Second,eye_comb_direction_x,eye_comb_direction_y,eye_comb_direction_z,eye_r_openness,eye_r_direction_x,eye_r_direction_y,eye_r_direction_z,eye_r_origin_x,eye_r_origin_y,eye_r_origin_z,eye_r_pupil_diameter,eye_r_pupil_position_x,eye_r_pupil_position_y,eye_l_openness,eye_l_direction_x,eye_l_direction_y,eye_l_direction_z,eye_l_origin_x,eye_l_origin_y,eye_l_origin_z,eye_l_pupil_diameter,eye_l_pupil_position_x,eye_l_pupil_position_y,head_position_x,head_position_y,head_position_z,head_rotation_roll,head_rotation_pitch,head_rotation_yaw,EDA,BVP,TMP
0,-0.04841614,-0.06681824,0.996582,0.5283578,-0.04841614,-0.06681824,0.996582,-30.89494,5.746124,-42.99106,3.760345,0.4770902,0.5359982,0.6264074000000001,0.0,0.0,0.0,36.39706,9.063202,-47.25632,-1.0,-1.0,-1.0,-0.5598976,1.110328,-0.3164217,0.0699842,0.4874097,0.02113439,3.7847716644918443,3.017838199874529,32.68510163111669
0,-0.04841614,-0.06681824,0.996582,0.5283578,-0.04841614,-0.06681824,0.996582,-30.89494,5.746124,-42.99106,3.760345,0.4770902,0.5359982,0.6264074000000001,0.0,0.0,0.0,36.39706,9.063202,-47.25632,-1.0,-1.0,-1.0,-0.5598976,1.110328,-0.3164217,0.0699842,0.4874097,0.02113439,3.7847716644918443,3.017838199874529,32.68510163111669
0,-0.04841614,-0.06681824,0.996582,0.5283578,-0.04841614,-0.06681824,0.996582,-30.89494,5.746124,-42.99106,3.760345,0.4770902,0.5359982,0.6264074000000001,0.0,0.0,0.0,36.39706,9.063202,-47.25632,-1.0,-1.0,-1.0,-0.5598976,1.110328,-0.3164217,0.0699842,0.4874097,0.02113439,3.7847716644918443,3.017838199874529,32.68510163111669
0,-0.04841614,-0.06681824,0.996582,0.5283578,-0.04841614,-0.06681824,0.996582,-30.89494,5.746124,-42.99106,3.760345,0.4770902,0.5359982,0.6264074000000001,0.0,0.0,0.0,36.39706,9.063202,-47.25632,-1.0,-1.0,-1.0,-0.5598976,1.110328,-0.3164217,0.0699842,0.4874097,0.02113439,3.7847716644918443,3.017838199874529,32.68510163111669
0,-0.04096985,-0.08200073,0.9957733,0.5224987,-0.04096985,-0.08200073,0.9957733,-30.841,5.823029,-43.22922,3.844223,0.4736196,0.5385739,0.6331549,0.0,0.0,0.0,36.48586,9.077759,-47.22984,-1.0,-1.0,-1.0,-0.5582583999999999,1.109645,-0.3188376,0.07136605,0.4947260999999999,0.0173473,3.7847716644918443,3.017838199874529,32.68510163111669
0,-0.04096985,-0.08200073,0.9957733,0.5224987,-0.04096985,-0.08200073,0.9957733,-30.841,5.823029,-43.22922,3.844223,0.4736196,0.5385739,0.6331549,0.0,0.0,0.0,36.48586,9.077759,-47.22984,-1.0,-1.0,-1.0,-0.5582583999999999,1.109645,-0.3188376,0.07136605,0.4947260999999999,0.0173473,3.7847716644918443,3.017838199874529,32.68510163111669
0,-0.04096985,-0.08200073,0.9957733,0.5224987,-0.04096985,-0.08200073,0.9957733,-30.841,5.823029,-43.22922,3.844223,0.4736196,0.5385739,0.6331549,0.0,0.0,0.0,36.48586,9.077759,-47.22984,-1.0,-1.0,-1.0,-0.5582583999999999,1.109645,-0.3188376,0.07136605,0.4947260999999999,0.0173473,3.7847716644918443,3.017838199874529,32.68510163111669
0,-0.0358429,-0.09628296,0.9947052,0.5224987,-0.0358429,-0.09628296,0.9947052,-30.791290000000004,5.717712000000001,-42.8387,3.838913,0.4707465,0.5411564999999999,0.6331549,0.0,0.0,0.0,36.48586,9.077759,-47.22984,-1.0,-1.0,-1.0,-0.5571020000000001,1.109218,-0.3204572,0.07234426,0.4995605999999999,0.01507309,3.7847716644918443,3.017838199874529,32.68510163111669
0,-0.0358429,-0.09628296,0.9947052,0.5224987,-0.0358429,-0.09628296,0.9947052,-30.791290000000004,5.717712000000001,-42.8387,3.838913,0.4707465,0.5411564999999999,0.6331549,0.0,0.0,0.0,36.48586,9.077759,-47.22984,-1.0,-1.0,-1.0,-0.5571020000000001,1.109218,-0.3204572,0.07234426,0.4995605999999999,0.01507309,3.7847716644918443,3.017838199874529,32.68510163111669
0,-0.0358429,-0.09628296,0.9947052,0.5224987,-0.0358429,-0.09628296,0.9947052,-30.791290000000004,5.717712000000001,-42.8387,3.838913,0.4707465,0.5411564999999999,0.6331549,0.0,0.0,0.0,36.48586,9.077759,-47.22984,-1.0,-1.0,-1.0,-0.5571020000000001,1.109218,-0.3204572,0.07234426,0.4995605999999999,0.01507309,3.7847716644918443,3.017838199874529,32.68510163111669
0,-0.186203,-0.2097321,0.9598541,0.5132104999999999,-0.03210449,-0.09092712,0.9953308,-30.69687,5.56662,-42.27759,3.794724,0.4665036,0.5398432,0.6357421,-0.1862488,-0.2097778,0.9598389,36.6286,9.090729,-47.20863,3.39296,0.3834752999999999,0.4776077,-0.5558705,1.1087,-0.3220199,0.07328684,0.5042547000000001,0.01268063,3.7847716644918443,3.017838199874529,32.68510163111669
0,-0.186203,-0.2097321,0.9598541,0.5132104999999999,-0.03210449,-0.09092712,0.9953308,-30.69687,5.56662,-42.27759,3.794724,0.4665036,0.5398432,0.6357421,-0.1862488,-0.2097778,0.9598389,36.6286,9.090729,-47.20863,3.39296,0.3834752999999999,0.4776077,-0.5558705,1.1087,-0.3220199,0.07328684,0.5042547000000001,0.01268063,3.7847716644918443,3.017838199874529,32.68510163111669
0,-0.186203,-0.2097321,0.9598541,0.5132104999999999,-0.03210449,-0.09092712,0.9953308,-30.69687,5.56662,-42.27759,3.794724,0.4665036,0.5398432,0.6357421,-0.1862488,-0.2097778,0.9598389,36.6286,9.090729,-47.20863,3.39296,0.3834752999999999,0.4776077,-0.5558705,1.1087,-0.3220199,0.07328684,0.5042547000000001,0.01268063,3.7847716644918443,3.017838199874529,32.68510163111669
0,-0.183075,-0.1987,0.9627991,0.5110031,-0.02966309,-0.09642029,0.9948883,-30.66872,5.642426,-42.48997,3.766876,0.4649782,0.5402536,0.6261438,-0.1831055,-0.1987305,0.9627838,36.6302,9.094482,-47.20801,3.2273560000000003,0.3829723,0.4750437,-0.5540714,1.108136,-0.324218,0.07407455,0.5106183,0.009465763,3.7847716644918443,3.017838199874529,32.68510163111669
0,-0.183075,-0.1987,0.9627991,0.5110031,-0.02966309,-0.09642029,0.9948883,-30.66872,5.642426,-42.48997,3.766876,0.4649782,0.5402536,0.6261438,-0.1831055,-0.1987305,0.9627838,36.6302,9.094482,-47.20801,3.2273560000000003,0.3829723,0.4750437,-0.5540714,1.108136,-0.324218,0.07407455,0.5106183,0.009465763,3.7847716644918443,3.017838199874529,32.68510163111669
0,-0.183075,-0.1987,0.9627991,0.5110031,-0.02966309,-0.09642029,0.9948883,-30.66872,5.642426,-42.48997,3.766876,0.4649782,0.5402536,0.6261438,-0.1831055,-0.1987305,0.9627838,36.6302,9.094482,-47.20801,3.2273560000000003,0.3829723,0.4750437,-0.5540714,1.108136,-0.324218,0.07407455,0.5106183,0.009465763,3.7847716644918443,3.017838199874529,32.68510163111669
0,-0.183075,-0.1987,0.9627991,0.5110031,-0.02966309,-0.09642029,0.9948883,-30.66872,5.642426,-42.48997,3.766876,0.4649782,0.5402536,0.6261438,-0.1831055,-0.1987305,0.9627838,36.6302,9.094482,-47.20801,3.2273560000000003,0.3829723,0.4750437,-0.552878,1.107824,-0.3255914,0.07443637,0.5146172999999999,0.007866671,3.7847716644918443,3.017838199874529,32.68510163111669
0,-0.183075,-0.1987,0.9627991,0.5110031,-0.02966309,-0.09642029,0.9948883,-30.66872,5.642426,-42.48997,3.766876,0.4649782,0.5402536,0.6261438,-0.1831055,-0.1987305,0.9627838,36.6302,9.094482,-47.20801,3.2273560000000003,0.3829723,0.4750437,-0.552878,1.107824,-0.3255914,0.07443637,0.5146172999999999,0.007866671,3.7847716644918443,3.017838199874529,32.68510163111669
0,-0.183075,-0.1987,0.9627991,0.5110031,-0.02966309,-0.09642029,0.9948883,-30.66872,5.642426,-42.48997,3.766876,0.4649782,0.5402536,0.6261438,-0.1831055,-0.1987305,0.9627838,36.6302,9.094482,-47.20801,3.2273560000000003,0.3829723,0.4750437,-0.552878,1.107824,-0.3255914,0.07443637,0.5146172999999999,0.007866671,3.7847716644918443,3.017838199874529,32.68510163111669
0,-0.183075,-0.1987,0.9627991,0.5110031,-0.02966309,-0.09642029,0.9948883,-30.66872,5.642426,-42.48997,3.766876,0.4649782,0.5402536,0.6261438,-0.1831055,-0.1987305,0.9627838,36.6302,9.094482,-47.20801,3.2273560000000003,0.3829723,0.4750437,-0.5517719,1.107526,-0.3269440999999999,0.07459335,0.5183323000000001,0.0063769319999999,3.7847716644918443,3.017838199874529,32.68510163111669
0,-0.183075,-0.1987,0.9627991,0.5110031,-0.02966309,-0.09642029,0.9948883,-30.66872,5.642426,-42.48997,3.766876,0.4649782,0.5402536,0.6261438,-0.1831055,-0.1987305,0.9627838,36.6302,9.094482,-47.20801,3.2273560000000003,0.3829723,0.4750437,-0.5517719,1.107526,-0.3269440999999999,0.07459335,0.5183323000000001,0.0063769319999999,3.7847716644918443,3.017838199874529,32.68510163111669
0,-0.183075,-0.1987,0.9627991,0.5110031,-0.02966309,-0.09642029,0.9948883,-30.66872,5.642426,-42.48997,3.766876,0.4649782,0.5402536,0.6261438,-0.1831055,-0.1987305,0.9627838,36.6302,9.094482,-47.20801,3.2273560000000003,0.3829723,0.4750437,-0.5517719,1.107526,-0.3269440999999999,0.07459335,0.5183323000000001,0.0063769319999999,3.7847716644918443,3.017838199874529,32.68510163111669
0,-0.01628113,-0.08467102,0.9962616,0.5187027,-0.01628113,-0.08467102,0.9962616,-30.4552,5.641724,-42.24094,3.5715790000000003,0.4544992999999999,0.5351974,0.6219853,0.0,0.0,0.0,36.75406,9.117645,-47.1748,-1.0,-1.0,-1.0,-0.550167,1.107465,-0.3288003,0.07361306,0.5237253,0.005189066,3.7847716644918443,3.017838199874529,32.68510163111669
0,-0.01628113,-0.08467102,0.9962616,0.5187027,-0.01628113,-0.08467102,0.9962616,-30.4552,5.641724,-42.24094,3.5715790000000003,0.4544992999999999,0.5351974,0.6219853,0.0,0.0,0.0,36.75406,9.117645,-47.1748,-1.0,-1.0,-1.0,-0.550167,1.107465,-0.3288003,0.07361306,0.5237253,0.005189066,3.7847716644918443,3.017838199874529,32.68510163111669
0,-0.01628113,-0.08467102,0.9962616,0.5187027,-0.01628113,-0.08467102,0.9962616,-30.4552,5.641724,-42.24094,3.5715790000000003,0.4544992999999999,0.5351974,0.6219853,0.0,0.0,0.0,36.75406,9.117645,-47.1748,-1.0,-1.0,-1.0,-0.550167,1.107465,-0.3288003,0.07361306,0.5237253,0.005189066,3.7847716644918443,3.017838199874529,32.68510163111669
0,-0.1231994999999999,-0.1513062,0.9807739,0.5208212000000001,-0.0116272,-0.08312988,0.99646,-30.37531,5.895508,-42.87737,3.603882,0.4505229,0.5320136999999999,0.6026361,-0.1324767999999999,-0.1569214,0.9786682,36.97618,9.166611,-47.15144,3.047562,0.3589691,0.4618505999999999,-0.549134,1.107622,-0.3299115999999999,0.07246989,0.5269443,0.005147258,3.7847716644918443,3.017838199874529,32.68510163111669
0,-0.1231994999999999,-0.1513062,0.9807739,0.5208212000000001,-0.0116272,-0.08312988,0.99646,-30.37531,5.895508,-42.87737,3.603882,0.4505229,0.5320136999999999,0.6026361,-0.1324767999999999,-0.1569214,0.9786682,36.97618,9.166611,-47.15144,3.047562,0.3589691,0.4618505999999999,-0.549134,1.107622,-0.3299115999999999,0.07246989,0.5269443,0.005147258,3.7847716644918443,3.017838199874529,32.68510163111669
0,-0.1231994999999999,-0.1513062,0.9807739,0.5208212000000001,-0.0116272,-0.08312988,0.99646,-30.37531,5.895508,-42.87737,3.603882,0.4505229,0.5320136999999999,0.6026361,-0.1324767999999999,-0.1569214,0.9786682,36.97618,9.166611,-47.15144,3.047562,0.3589691,0.4618505999999999,-0.549134,1.107622,-0.3299115999999999,0.07246989,0.5269443,0.005147258,3.7847716644918443,3.017838199874529,32.68510163111669
0,-0.01565552,-0.09234619,0.9955902,0.5103924,-0.01565552,-0.09234619,0.9955902,-30.30681,5.941895,-42.98694,3.451675,0.4486777,0.5331047,0.6087708000000001,0.0,0.0,0.0,36.97618,9.166611,-47.15144,-1.0,-1.0,-1.0,-0.5475770999999999,1.108733,-0.3308145999999999,0.06946745,0.5321004,0.0061533609999999,4.060075,3.017838199874529,32.68510163111669
0,-0.01565552,-0.09234619,0.9955902,0.5103924,-0.01565552,-0.09234619,0.9955902,-30.30681,5.941895,-42.98694,3.451675,0.4486777,0.5331047,0.6087708000000001,0.0,0.0,0.0,36.97618,9.166611,-47.15144,-1.0,-1.0,-1.0,-0.5475770999999999,1.108733,-0.3308145999999999,0.06946745,0.5321004,0.0061533609999999,4.060075,3.017838199874529,32.68510163111669
0,-0.01565552,-0.09234619,0.9955902,0.5103924,-0.01565552,-0.09234619,0.9955902,-30.30681,5.941895,-42.98694,3.451675,0.4486777,0.5331047,0.6087708000000001,0.0,0.0,0.0,36.97618,9.166611,-47.15144,-1.0,-1.0,-1.0,-0.5475770999999999,1.108733,-0.3308145999999999,0.06946745,0.5321004,0.0061533609999999,4.060075,3.017838199874529,32.68510163111669
0,-0.01565552,-0.09234619,0.9955902,0.5103924,-0.01565552,-0.09234619,0.9955902,-30.30681,5.941895,-42.98694,3.451675,0.4486777,0.5331047,0.6087708000000001,0.0,0.0,0.0,36.97618,9.166611,-47.15144,-1.0,-1.0,-1.0,-0.5461353,1.109814,-0.3330084,0.06544255,0.5382736,0.008449347,4.060075,3.017838199874529,32.68510163111669
0,-0.01565552,-0.09234619,0.9955902,0.5103924,-0.01565552,-0.09234619,0.9955902,-30.30681,5.941895,-42.98694,3.451675,0.4486777,0.5331047,0.6087708000000001,0.0,0.0,0.0,36.97618,9.166611,-47.15144,-1.0,-1.0,-1.0,-0.5461353,1.109814,-0.3330084,0.06544255,0.5382736,0.008449347,4.060075,3.017838199874529,32.68510163111669
0,-0.01565552,-0.09234619,0.9955902,0.5103924,-0.01565552,-0.09234619,0.9955902,-30.30681,5.941895,-42.98694,3.451675,0.4486777,0.5331047,0.6087708000000001,0.0,0.0,0.0,36.97618,9.166611,-47.15144,-1.0,-1.0,-1.0,-0.5461353,1.109814,-0.3330084,0.06544255,0.5382736,0.008449347,4.060075,3.017838199874529,32.68510163111669
0,0.002380371,-0.09329224,0.9956207,0.5382205,0.002380371,-0.09329224,0.9956207,-30.18875,5.601013,-42.16663,3.423935,0.4409752,0.5374223000000001,0.6066170999999999,0.0,0.0,0.0,36.97618,9.166611,-47.15144,-1.0,-1.0,-1.0,-0.545185,1.110909,-0.3347014,0.06226974,0.5436236,0.01008245,4.060075,3.017838199874529,32.68510163111669
0,0.002380371,-0.09329224,0.9956207,0.5382205,0.002380371,-0.09329224,0.9956207,-30.18875,5.601013,-42.16663,3.423935,0.4409752,0.5374223000000001,0.6066170999999999,0.0,0.0,0.0,36.97618,9.166611,-47.15144,-1.0,-1.0,-1.0,-0.545185,1.110909,-0.3347014,0.06226974,0.5436236,0.01008245,4.060075,3.017838199874529,32.68510163111669
0,0.002380371,-0.09329224,0.9956207,0.5382205,0.002380371,-0.09329224,0.9956207,-30.18875,5.601013,-42.16663,3.423935,0.4409752,0.5374223000000001,0.6066170999999999,0.0,0.0,0.0,36.97618,9.166611,-47.15144,-1.0,-1.0,-1.0,-0.545185,1.110909,-0.3347014,0.06226974,0.5436236,0.01008245,4.060075,3.017838199874529,32.68510163111669
0,-0.08110046,-0.2329102,0.969101,0.5516458000000001,0.009216309,-0.1002502,0.9949188,-30.27461,5.418549,-41.34647,3.452087,0.4431123999999999,0.5370749,0.5982898,-0.08110046,-0.2329102,0.969101,37.15338,9.12114,-47.11522,2.699753,0.3421210999999999,0.4791832,-0.5441066999999999,1.112105,-0.3368258,0.05911267,0.5502808000000001,0.01237254,4.060075,3.017838199874529,32.68510163111669
0,-0.08110046,-0.2329102,0.969101,0.5516458000000001,0.009216309,-0.1002502,0.9949188,-30.27461,5.418549,-41.34647,3.452087,0.4431123999999999,0.5370749,0.5982898,-0.08110046,-0.2329102,0.969101,37.15338,9.12114,-47.11522,2.699753,0.3421210999999999,0.4791832,-0.5441066999999999,1.112105,-0.3368258,0.05911267,0.5502808000000001,0.01237254,4.060075,3.017838199874529,32.68510163111669
0,-0.08110046,-0.2329102,0.969101,0.5516458000000001,0.009216309,-0.1002502,0.9949188,-30.27461,5.418549,-41.34647,3.452087,0.4431123999999999,0.5370749,0.5982898,-0.08110046,-0.2329102,0.969101,37.15338,9.12114,-47.11522,2.699753,0.3421210999999999,0.4791832,-0.5441066999999999,1.112105,-0.3368258,0.05911267,0.5502808000000001,0.01237254,4.060075,3.017838199874529,32.68510163111669
0,-0.08110046,-0.2329102,0.969101,0.5516458000000001,0.009216309,-0.1002502,0.9949188,-30.27461,5.418549,-41.34647,3.452087,0.4431123999999999,0.5370749,0.5982898,-0.08110046,-0.2329102,0.969101,37.15338,9.12114,-47.11522,2.699753,0.3421210999999999,0.4791832,-0.5429714,1.1132879999999998,-0.3393636,0.0559175999999999,0.5579270000000001,0.01504068,4.060075,-88.95239,32.97
0,-0.08110046,-0.2329102,0.969101,0.5516458000000001,0.009216309,-0.1002502,0.9949188,-30.27461,5.418549,-41.34647,3.452087,0.4431123999999999,0.5370749,0.5982898,-0.08110046,-0.2329102,0.969101,37.15338,9.12114,-47.11522,2.699753,0.3421210999999999,0.4791832,-0.5429714,1.1132879999999998,-0.3393636,0.0559175999999999,0.5579270000000001,0.01504068,4.060075,-88.95239,32.97
0,-0.08110046,-0.2329102,0.969101,0.5516458000000001,0.009216309,-0.1002502,0.9949188,-30.27461,5.418549,-41.34647,3.452087,0.4431123999999999,0.5370749,0.5982898,-0.08110046,-0.2329102,0.969101,37.15338,9.12114,-47.11522,2.699753,0.3421210999999999,0.4791832,-0.5429714,1.1132879999999998,-0.3393636,0.0559175999999999,0.5579270000000001,0.01504068,4.060075,-88.95239,32.97
0,-0.04907227,-0.08714294,0.9949799,0.4985491,-0.04907227,-0.08714294,0.9949799,-30.86597,6.07515,-43.42641,3.349777,0.4762167999999999,0.5318387,0.6198600999999999,0.0,0.0,0.0,36.53857,9.237854,-47.24004,-1.0,0.4048277999999999,0.4734781,-0.5419486,1.114482,-0.3421077,0.0526906999999999,0.5661166,0.01788445,4.060075,-88.95239,32.97
0,-0.04907227,-0.08714294,0.9949799,0.4985491,-0.04907227,-0.08714294,0.9949799,-30.86597,6.07515,-43.42641,3.349777,0.4762167999999999,0.5318387,0.6198600999999999,0.0,0.0,0.0,36.53857,9.237854,-47.24004,-1.0,0.4048277999999999,0.4734781,-0.5419486,1.114482,-0.3421077,0.0526906999999999,0.5661166,0.01788445,4.060075,-88.95239,32.97
0,-0.04907227,-0.08714294,0.9949799,0.4985491,-0.04907227,-0.08714294,0.9949799,-30.86597,6.07515,-43.42641,3.349777,0.4762167999999999,0.5318387,0.6198600999999999,0.0,0.0,0.0,36.53857,9.237854,-47.24004,-1.0,0.4048277999999999,0.4734781,-0.5419486,1.114482,-0.3421077,0.0526906999999999,0.5661166,0.01788445,4.060075,-88.95239,32.97
0,-0.04907227,-0.08714294,0.9949799,0.4985491,-0.04907227,-0.08714294,0.9949799,-30.86597,6.07515,-43.42641,3.349777,0.4762167999999999,0.5318387,0.6198600999999999,0.0,0.0,0.0,36.53857,9.237854,-47.24004,-1.0,0.4048277999999999,0.4734781,-0.5409337,1.115572,-0.3451190999999999,0.04935703,0.5745143,0.02050672,4.060075,-88.95239,32.97
0,-0.04907227,-0.08714294,0.9949799,0.4985491,-0.04907227,-0.08714294,0.9949799,-30.86597,6.07515,-43.42641,3.349777,0.4762167999999999,0.5318387,0.6198600999999999,0.0,0.0,0.0,36.53857,9.237854,-47.24004,-1.0,0.4048277999999999,0.4734781,-0.5409337,1.115572,-0.3451190999999999,0.04935703,0.5745143,0.02050672,4.060075,-88.95239,32.97
0,-0.04907227,-0.08714294,0.9949799,0.4985491,-0.04907227,-0.08714294,0.9949799,-30.86597,6.07515,-43.42641,3.349777,0.4762167999999999,0.5318387,0.6198600999999999,0.0,0.0,0.0,36.53857,9.237854,-47.24004,-1.0,0.4048277999999999,0.4734781,-0.5409337,1.115572,-0.3451190999999999,0.04935703,0.5745143,0.02050672,4.060075,-88.95239,32.97
0,-0.1237183,-0.1046753,0.9867706,0.4985491,-0.1237183,-0.1046753,0.9867706,-31.51688,5.878723,-42.50352,2.998413,0.5149097,0.5333378000000001,0.6198600999999999,0.0,0.0,0.0,35.77367,9.319778,-47.39462,-1.0,0.4457057,0.4379496,-0.5404009,1.116342,-0.3470744,0.04706131,0.5796564999999999,0.02212455,4.060075,-88.95239,32.97
0,-0.1237183,-0.1046753,0.9867706,0.4985491,-0.1237183,-0.1046753,0.9867706,-31.51688,5.878723,-42.50352,2.998413,0.5149097,0.5333378000000001,0.6198600999999999,0.0,0.0,0.0,35.77367,9.319778,-47.39462,-1.0,0.4457057,0.4379496,-0.5404009,1.116342,-0.3470744,0.04706131,0.5796564999999999,0.02212455,4.060075,-88.95239,32.97
0,-0.1237183,-0.1046753,0.9867706,0.4985491,-0.1237183,-0.1046753,0.9867706,-31.51688,5.878723,-42.50352,2.998413,0.5149097,0.5333378000000001,0.6198600999999999,0.0,0.0,0.0,35.77367,9.319778,-47.39462,-1.0,0.4457057,0.4379496,-0.5404009,1.116342,-0.3470744,0.04706131,0.5796564999999999,0.02212455,4.060075,-88.95239,32.97
0,-0.09738159,-0.1120148,0.9889069,0.4917114999999999,-0.09738159,-0.1120148,0.9889069,-31.25304,5.744171,-42.28349,2.883102,0.4999245,0.537235,0.6511113000000001,0.0,0.0,0.0,36.09039,9.296127,-47.29623,-1.0,0.4247536,0.4491353,-0.5396345,1.117478,-0.3498857999999999,0.04354053,0.5869141,0.02404212,4.060075,-88.95239,32.97
0,-0.09738159,-0.1120148,0.9889069,0.4917114999999999,-0.09738159,-0.1120148,0.9889069,-31.25304,5.744171,-42.28349,2.883102,0.4999245,0.537235,0.6511113000000001,0.0,0.0,0.0,36.09039,9.296127,-47.29623,-1.0,0.4247536,0.4491353,-0.5396345,1.117478,-0.3498857999999999,0.04354053,0.5869141,0.02404212,4.060075,-88.95239,32.97
0,-0.09738159,-0.1120148,0.9889069,0.4917114999999999,-0.09738159,-0.1120148,0.9889069,-31.25304,5.744171,-42.28349,2.883102,0.4999245,0.537235,0.6511113000000001,0.0,0.0,0.0,36.09039,9.296127,-47.29623,-1.0,0.4247536,0.4491353,-0.5396345,1.117478,-0.3498857999999999,0.04354053,0.5869141,0.02404212,4.060075,-88.95239,32.97
0,-0.2302704,-0.1692505,0.9582825,0.4913159000000001,-0.09103394,-0.08868408,0.9918823,-31.09177,5.865784,-42.83508,3.177231,0.4927104999999999,0.5339539000000001,0.6364639,-0.2372130999999999,-0.1732483,0.9558716,36.25807,9.209183,-47.25641,2.758301,0.4096194999999999,0.4664399999999999,-0.5388445,1.119069,-0.3542308,0.03789541,0.5968760999999999,0.02602575,4.060075,22.15521,32.97
0,-0.2302704,-0.1692505,0.9582825,0.4913159000000001,-0.09103394,-0.08868408,0.9918823,-31.09177,5.865784,-42.83508,3.177231,0.4927104999999999,0.5339539000000001,0.6364639,-0.2372130999999999,-0.1732483,0.9558716,36.25807,9.209183,-47.25641,2.758301,0.4096194999999999,0.4664399999999999,-0.5388445,1.119069,-0.3542308,0.03789541,0.5968760999999999,0.02602575,4.060075,22.15521,32.97
0,-0.2302704,-0.1692505,0.9582825,0.4913159000000001,-0.09103394,-0.08868408,0.9918823,-31.09177,5.865784,-42.83508,3.177231,0.4927104999999999,0.5339539000000001,0.6364639,-0.2372130999999999,-0.1732483,0.9558716,36.25807,9.209183,-47.25641,2.758301,0.4096194999999999,0.4664399999999999,-0.5388445,1.119069,-0.3542308,0.03789541,0.5968760999999999,0.02602575,4.060075,22.15521,32.97
0,-0.07841492,-0.08782959,0.993042,0.4913159000000001,-0.07841492,-0.08782959,0.993042,-31.05231,5.862091,-42.87013,3.193939,0.4888187,0.5342342,0.6364639,0.0,0.0,0.0,36.25807,9.209183,-47.25641,-1.0,-1.0,-1.0,-0.5386426999999999,1.120226,-0.3564256,0.033865,0.6012986,0.02749131,4.060075,22.15521,32.97
0,-0.07841492,-0.08782959,0.993042,0.4913159000000001,-0.07841492,-0.08782959,0.993042,-31.05231,5.862091,-42.87013,3.193939,0.4888187,0.5342342,0.6364639,0.0,0.0,0.0,36.25807,9.209183,-47.25641,-1.0,-1.0,-1.0,-0.5386426999999999,1.120226,-0.3564256,0.033865,0.6012986,0.02749131,4.060075,22.15521,32.97
0,-0.07841492,-0.08782959,0.993042,0.4913159000000001,-0.07841492,-0.08782959,0.993042,-31.05231,5.862091,-42.87013,3.193939,0.4888187,0.5342342,0.6364639,0.0,0.0,0.0,36.25807,9.209183,-47.25641,-1.0,-1.0,-1.0,-0.5386426999999999,1.120226,-0.3564256,0.033865,0.6012986,0.02749131,4.060075,22.15521,32.97
0,-0.07841492,-0.08782959,0.993042,0.4913159000000001,-0.07841492,-0.08782959,0.993042,-31.05231,5.862091,-42.87013,3.193939,0.4888187,0.5342342,0.6364639,0.0,0.0,0.0,36.25807,9.209183,-47.25641,-1.0,-1.0,-1.0,-0.5386350999999999,1.120961,-0.3578594,0.031051,0.6037871,0.02819322,4.060075,22.15521,32.97
0,-0.07841492,-0.08782959,0.993042,0.4913159000000001,-0.07841492,-0.08782959,0.993042,-31.05231,5.862091,-42.87013,3.193939,0.4888187,0.5342342,0.6364639,0.0,0.0,0.0,36.25807,9.209183,-47.25641,-1.0,-1.0,-1.0,-0.5386350999999999,1.120961,-0.3578594,0.031051,0.6037871,0.02819322,4.060075,22.15521,32.97
0,-0.07841492,-0.08782959,0.993042,0.4913159000000001,-0.07841492,-0.08782959,0.993042,-31.05231,5.862091,-42.87013,3.193939,0.4888187,0.5342342,0.6364639,0.0,0.0,0.0,36.25807,9.209183,-47.25641,-1.0,-1.0,-1.0,-0.5386350999999999,1.120961,-0.3578594,0.031051,0.6037871,0.02819322,4.060075,22.15521,32.97
0,-0.2056579999999999,-0.1684418,0.9640045,0.4978306999999999,-0.08244324,-0.09648132,0.9919128,-31.02893,5.883667,-42.98213,3.092194,0.4887318,0.5362406,0.6404309,-0.2065125,-0.1689301,0.9637451,36.36003,9.176041,-47.22516,2.461761,0.3995907,0.4657036,-0.5388397,1.122366,-0.3604268,0.0253150999999999,0.6079180000000001,0.02919625,4.060075,22.15521,32.97
0,-0.2056579999999999,-0.1684418,0.9640045,0.4978306999999999,-0.08244324,-0.09648132,0.9919128,-31.02893,5.883667,-42.98213,3.092194,0.4887318,0.5362406,0.6404309,-0.2065125,-0.1689301,0.9637451,36.36003,9.176041,-47.22516,2.461761,0.3995907,0.4657036,-0.5388397,1.122366,-0.3604268,0.0253150999999999,0.6079180000000001,0.02919625,4.060075,22.15521,32.97
0,-0.2056579999999999,-0.1684418,0.9640045,0.4978306999999999,-0.08244324,-0.09648132,0.9919128,-31.02893,5.883667,-42.98213,3.092194,0.4887318,0.5362406,0.6404309,-0.2065125,-0.1689301,0.9637451,36.36003,9.176041,-47.22516,2.461761,0.3995907,0.4657036,-0.5388397,1.122366,-0.3604268,0.0253150999999999,0.6079180000000001,0.02919625,4.060075,22.15521,32.97
0,-0.2056579999999999,-0.1684418,0.9640045,0.4978306999999999,-0.08244324,-0.09648132,0.9919128,-31.02893,5.883667,-42.98213,3.092194,0.4887318,0.5362406,0.6404309,-0.2065125,-0.1689301,0.9637451,36.36003,9.176041,-47.22516,2.461761,0.3995907,0.4657036,-0.5390305999999999,1.123045,-0.3614737999999999,0.02269261,0.6095937,0.02956169,4.060075,22.15521,32.97
0,-0.2056579999999999,-0.1684418,0.9640045,0.4978306999999999,-0.08244324,-0.09648132,0.9919128,-31.02893,5.883667,-42.98213,3.092194,0.4887318,0.5362406,0.6404309,-0.2065125,-0.1689301,0.9637451,36.36003,9.176041,-47.22516,2.461761,0.3995907,0.4657036,-0.5390305999999999,1.123045,-0.3614737999999999,0.02269261,0.6095937,0.02956169,4.060075,22.15521,32.97
0,-0.2056579999999999,-0.1684418,0.9640045,0.4978306999999999,-0.08244324,-0.09648132,0.9919128,-31.02893,5.883667,-42.98213,3.092194,0.4887318,0.5362406,0.6404309,-0.2065125,-0.1689301,0.9637451,36.36003,9.176041,-47.22516,2.461761,0.3995907,0.4657036,-0.5390305999999999,1.123045,-0.3614737999999999,0.02269261,0.6095937,0.02956169,4.060075,22.15521,32.97
0,-0.2091675,-0.1628113,0.9642181,0.4978306999999999,-0.07920837,-0.1012421,0.9916992,-31.00174,5.856735,-42.91057,3.183701,0.4870475,0.5374741999999999,0.6404309,-0.2108612,-0.1636047,0.9637146,36.35876,9.17511,-47.22881,2.594467,0.4003593,0.4650041,-0.5392066,1.123888,-0.3630623,0.01910088,0.6121846,0.03008575,4.060075,4.311707,32.97
0,-0.2091675,-0.1628113,0.9642181,0.4978306999999999,-0.07920837,-0.1012421,0.9916992,-31.00174,5.856735,-42.91057,3.183701,0.4870475,0.5374741999999999,0.6404309,-0.2108612,-0.1636047,0.9637146,36.35876,9.17511,-47.22881,2.594467,0.4003593,0.4650041,-0.5392066,1.123888,-0.3630623,0.01910088,0.6121846,0.03008575,4.060075,4.311707,32.97
0,-0.2091675,-0.1628113,0.9642181,0.4978306999999999,-0.07920837,-0.1012421,0.9916992,-31.00174,5.856735,-42.91057,3.183701,0.4870475,0.5374741999999999,0.6404309,-0.2108612,-0.1636047,0.9637146,36.35876,9.17511,-47.22881,2.594467,0.4003593,0.4650041,-0.5392066,1.123888,-0.3630623,0.01910088,0.6121846,0.03008575,4.060075,4.311707,32.97
0,-0.1626587,-0.1338806,0.9775543,0.4978306999999999,-0.06037903,-0.09162903,0.9939575,-30.82021,5.809143,-43.0757,3.165955,0.4766172999999999,0.5389647,0.6404309,-0.1658325,-0.1351624,0.9768372,36.57161,9.045532,-47.21663,2.867004,0.3823729,0.4633744000000001,-0.5394248,1.124855,-0.3645075999999999,0.01562226,0.6146851,0.03111087,4.060075,4.311707,32.97
0,-0.1626587,-0.1338806,0.9775543,0.4978306999999999,-0.06037903,-0.09162903,0.9939575,-30.82021,5.809143,-43.0757,3.165955,0.4766172999999999,0.5389647,0.6404309,-0.1658325,-0.1351624,0.9768372,36.57161,9.045532,-47.21663,2.867004,0.3823729,0.4633744000000001,-0.5394248,1.124855,-0.3645075999999999,0.01562226,0.6146851,0.03111087,4.060075,4.311707,32.97
0,-0.1626587,-0.1338806,0.9775543,0.4978306999999999,-0.06037903,-0.09162903,0.9939575,-30.82021,5.809143,-43.0757,3.165955,0.4766172999999999,0.5389647,0.6404309,-0.1658325,-0.1351624,0.9768372,36.57161,9.045532,-47.21663,2.867004,0.3823729,0.4633744000000001,-0.5394248,1.124855,-0.3645075999999999,0.01562226,0.6146851,0.03111087,4.060075,4.311707,32.97
0,-0.1626587,-0.1338806,0.9775543,0.5152157,-0.06037903,-0.09162903,0.9939575,-30.82021,5.809143,-43.0757,3.165955,0.4766172999999999,0.5389647,0.6321326,-0.1658325,-0.1351624,0.9768372,36.57161,9.045532,-47.21663,2.867004,0.3823729,0.4633744000000001,-0.5397734000000001,1.125637,-0.365842,0.01289865,0.6172380000000001,0.03210443,4.060075,4.311707,32.97
0,-0.1626587,-0.1338806,0.9775543,0.5152157,-0.06037903,-0.09162903,0.9939575,-30.82021,5.809143,-43.0757,3.165955,0.4766172999999999,0.5389647,0.6321326,-0.1658325,-0.1351624,0.9768372,36.57161,9.045532,-47.21663,2.867004,0.3823729,0.4633744000000001,-0.5397734000000001,1.125637,-0.365842,0.01289865,0.6172380000000001,0.03210443,4.060075,4.311707,32.97
0,-0.1626587,-0.1338806,0.9775543,0.5152157,-0.06037903,-0.09162903,0.9939575,-30.82021,5.809143,-43.0757,3.165955,0.4766172999999999,0.5389647,0.6321326,-0.1658325,-0.1351624,0.9768372,36.57161,9.045532,-47.21663,2.867004,0.3823729,0.4633744000000001,-0.5397734000000001,1.125637,-0.365842,0.01289865,0.6172380000000001,0.03210443,4.060075,4.311707,32.97
0,-0.1626587,-0.1338806,0.9775543,0.5152157,-0.06037903,-0.09162903,0.9939575,-30.82021,5.809143,-43.0757,3.165955,0.4766172999999999,0.5389647,0.6321326,-0.1658325,-0.1351624,0.9768372,36.57161,9.045532,-47.21663,2.867004,0.3823729,0.4633744000000001,-0.5400765000000001,1.126333,-0.3671877,0.01050124,0.6200161999999999,0.03330249,4.060075,4.311707,32.97
0,-0.1626587,-0.1338806,0.9775543,0.5152157,-0.06037903,-0.09162903,0.9939575,-30.82021,5.809143,-43.0757,3.165955,0.4766172999999999,0.5389647,0.6321326,-0.1658325,-0.1351624,0.9768372,36.57161,9.045532,-47.21663,2.867004,0.3823729,0.4633744000000001,-0.5400765000000001,1.126333,-0.3671877,0.01050124,0.6200161999999999,0.03330249,4.060075,4.311707,32.97
0,-0.1626587,-0.1338806,0.9775543,0.5152157,-0.06037903,-0.09162903,0.9939575,-30.82021,5.809143,-43.0757,3.165955,0.4766172999999999,0.5389647,0.6321326,-0.1658325,-0.1351624,0.9768372,36.57161,9.045532,-47.21663,2.867004,0.3823729,0.4633744000000001,-0.5400765000000001,1.126333,-0.3671877,0.01050124,0.6200161999999999,0.03330249,4.060075,4.311707,32.97
1,-0.1959839,-0.3066864,0.9313965,0.5106739,-0.06047058,-0.08900452,0.9941864,-30.73845,5.389633,-41.95087,3.172653,0.4734948,0.5423690999999999,0.6313725,-0.1960297,-0.3067474,0.931366,36.58931,9.005188,-47.24638,2.971924,0.3869188,0.5027076,-0.5402728,1.12697,-0.3683972,0.008024209,0.6229499,0.03458212,4.060075,4.311707,32.97
1,-0.1959839,-0.3066864,0.9313965,0.5106739,-0.06047058,-0.08900452,0.9941864,-30.73845,5.389633,-41.95087,3.172653,0.4734948,0.5423690999999999,0.6313725,-0.1960297,-0.3067474,0.931366,36.58931,9.005188,-47.24638,2.971924,0.3869188,0.5027076,-0.5402728,1.12697,-0.3683972,0.008024209,0.6229499,0.03458212,4.060075,4.311707,32.97
1,-0.1959839,-0.3066864,0.9313965,0.5106739,-0.06047058,-0.08900452,0.9941864,-30.73845,5.389633,-41.95087,3.172653,0.4734948,0.5423690999999999,0.6313725,-0.1960297,-0.3067474,0.931366,36.58931,9.005188,-47.24638,2.971924,0.3869188,0.5027076,-0.5402728,1.12697,-0.3683972,0.008024209,0.6229499,0.03458212,4.060075,4.311707,32.97
1,-0.1959839,-0.3066864,0.9313965,0.5106739,-0.06047058,-0.08900452,0.9941864,-30.73845,5.389633,-41.95087,3.172653,0.4734948,0.5423690999999999,0.6313725,-0.1960297,-0.3067474,0.931366,36.58931,9.005188,-47.24638,2.971924,0.3869188,0.5027076,-0.5407619,1.128048,-0.3699845,0.005063343,0.6276454,0.03710686,4.060075,4.311707,32.97
1,-0.1959839,-0.3066864,0.9313965,0.5106739,-0.06047058,-0.08900452,0.9941864,-30.73845,5.389633,-41.95087,3.172653,0.4734948,0.5423690999999999,0.6313725,-0.1960297,-0.3067474,0.931366,36.58931,9.005188,-47.24638,2.971924,0.3869188,0.5027076,-0.5407619,1.128048,-0.3699845,0.005063343,0.6276454,0.03710686,4.060075,4.311707,32.97
1,-0.1959839,-0.3066864,0.9313965,0.5106739,-0.06047058,-0.08900452,0.9941864,-30.73845,5.389633,-41.95087,3.172653,0.4734948,0.5423690999999999,0.6313725,-0.1960297,-0.3067474,0.931366,36.58931,9.005188,-47.24638,2.971924,0.3869188,0.5027076,-0.5407619,1.128048,-0.3699845,0.005063343,0.6276454,0.03710686,4.060075,4.311707,32.97
1,-0.2444152999999999,-0.2005462999999999,0.9487,0.5180899999999999,-0.04095459,-0.1306,0.9905853,-30.66725,5.587280000000001,-42.8269,3.057068,0.4670685999999999,0.5521975,0.6125006,-0.2444152999999999,-0.2005462999999999,0.9486847,36.69435,8.892731,-47.28671,3.56337,0.3923639,0.4852234,-0.5411326,1.12874,-0.3708124,0.003190218,0.6302161000000001,0.03892895,4.060075,-73.14584,32.97
1,-0.2444152999999999,-0.2005462999999999,0.9487,0.5180899999999999,-0.04095459,-0.1306,0.9905853,-30.66725,5.587280000000001,-42.8269,3.057068,0.4670685999999999,0.5521975,0.6125006,-0.2444152999999999,-0.2005462999999999,0.9486847,36.69435,8.892731,-47.28671,3.56337,0.3923639,0.4852234,-0.5411326,1.12874,-0.3708124,0.003190218,0.6302161000000001,0.03892895,4.060075,-73.14584,32.97
1,-0.2444152999999999,-0.2005462999999999,0.9487,0.5180899999999999,-0.04095459,-0.1306,0.9905853,-30.66725,5.587280000000001,-42.8269,3.057068,0.4670685999999999,0.5521975,0.6125006,-0.2444152999999999,-0.2005462999999999,0.9486847,36.69435,8.892731,-47.28671,3.56337,0.3923639,0.4852234,-0.5411326,1.12874,-0.3708124,0.003190218,0.6302161000000001,0.03892895,4.060075,-73.14584,32.97
1,-0.2444152999999999,-0.2005462999999999,0.9487,0.5180899999999999,-0.04095459,-0.1306,0.9905853,-30.66725,5.587280000000001,-42.8269,3.057068,0.4670685999999999,0.5521975,0.6125006,-0.2444152999999999,-0.2005462999999999,0.9486847,36.69435,8.892731,-47.28671,3.56337,0.3923639,0.4852234,-0.5424135,1.130729,-0.3723907,-0.002457376,0.6356685000000001,0.04436257,4.060075,-73.14584,32.97
1,-0.2444152999999999,-0.2005462999999999,0.9487,0.5180899999999999,-0.04095459,-0.1306,0.9905853,-30.66725,5.587280000000001,-42.8269,3.057068,0.4670685999999999,0.5521975,0.6125006,-0.2444152999999999,-0.2005462999999999,0.9486847,36.69435,8.892731,-47.28671,3.56337,0.3923639,0.4852234,-0.5424135,1.130729,-0.3723907,-0.002457376,0.6356685000000001,0.04436257,4.060075,-73.14584,32.97
1,-0.2444152999999999,-0.2005462999999999,0.9487,0.5180899999999999,-0.04095459,-0.1306,0.9905853,-30.66725,5.587280000000001,-42.8269,3.057068,0.4670685999999999,0.5521975,0.6125006,-0.2444152999999999,-0.2005462999999999,0.9486847,36.69435,8.892731,-47.28671,3.56337,0.3923639,0.4852234,-0.5424135,1.130729,-0.3723907,-0.002457376,0.6356685000000001,0.04436257,4.060075,-73.14584,32.97
1,-0.02639771,-0.1204833999999999,0.9923553,0.5180899999999999,-0.02639771,-0.1204833999999999,0.9923553,-30.52467,5.350571,-42.05678,3.133881,0.4589859999999999,0.5508926,0.6125006,0.0,0.0,0.0,36.70866,8.879425,-47.25977,-1.0,-1.0,-1.0,-0.5433920999999999,1.132305,-0.3730748,-0.00630526,0.6382626,0.04890375,4.060075,-73.14584,32.97
1,-0.02639771,-0.1204833999999999,0.9923553,0.5180899999999999,-0.02639771,-0.1204833999999999,0.9923553,-30.52467,5.350571,-42.05678,3.133881,0.4589859999999999,0.5508926,0.6125006,0.0,0.0,0.0,36.70866,8.879425,-47.25977,-1.0,-1.0,-1.0,-0.5433920999999999,1.132305,-0.3730748,-0.00630526,0.6382626,0.04890375,4.060075,-73.14584,32.97
1,-0.02639771,-0.1204833999999999,0.9923553,0.5180899999999999,-0.02639771,-0.1204833999999999,0.9923553,-30.52467,5.350571,-42.05678,3.133881,0.4589859999999999,0.5508926,0.6125006,0.0,0.0,0.0,36.70866,8.879425,-47.25977,-1.0,-1.0,-1.0,-0.5433920999999999,1.132305,-0.3730748,-0.00630526,0.6382626,0.04890375,4.060075,-73.14584,32.97
1,-0.02639771,-0.1204833999999999,0.9923553,0.497291,-0.02639771,-0.1204833999999999,0.9923553,-30.52467,5.350571,-42.05678,3.133881,0.4589859999999999,0.5508926,0.6076351,0.0,0.0,0.0,36.70866,8.879425,-47.25977,-1.0,-1.0,-1.0,-0.5450505999999999,1.135049,-0.3739878,-0.01310097,0.6420821,0.05656583,4.060075,-73.14584,32.97
1,-0.02639771,-0.1204833999999999,0.9923553,0.497291,-0.02639771,-0.1204833999999999,0.9923553,-30.52467,5.350571,-42.05678,3.133881,0.4589859999999999,0.5508926,0.6076351,0.0,0.0,0.0,36.70866,8.879425,-47.25977,-1.0,-1.0,-1.0,-0.5450505999999999,1.135049,-0.3739878,-0.01310097,0.6420821,0.05656583,4.060075,-73.14584,32.97
1,-0.02639771,-0.1204833999999999,0.9923553,0.497291,-0.02639771,-0.1204833999999999,0.9923553,-30.52467,5.350571,-42.05678,3.133881,0.4589859999999999,0.5508926,0.6076351,0.0,0.0,0.0,36.70866,8.879425,-47.25977,-1.0,-1.0,-1.0,-0.5450505999999999,1.135049,-0.3739878,-0.01310097,0.6420821,0.05656583,4.060075,-73.14584,32.97
1,-0.02639771,-0.1204833999999999,0.9923553,0.497291,-0.02639771,-0.1204833999999999,0.9923553,-30.52467,5.350571,-42.05678,3.133881,0.4589859999999999,0.5508926,0.6076351,0.0,0.0,0.0,36.70866,8.879425,-47.25977,-1.0,-1.0,-1.0,-0.5475563,1.13883,-0.3746382,-0.02244053,0.6459481,0.06774556,4.060075,-73.14584,32.97
1,-0.02639771,-0.1204833999999999,0.9923553,0.497291,-0.02639771,-0.1204833999999999,0.9923553,-30.52467,5.350571,-42.05678,3.133881,0.4589859999999999,0.5508926,0.6076351,0.0,0.0,0.0,36.70866,8.879425,-47.25977,-1.0,-1.0,-1.0,-0.5475563,1.13883,-0.3746382,-0.02244053,0.6459481,0.06774556,4.060075,-73.14584,32.97
1,-0.02639771,-0.1204833999999999,0.9923553,0.497291,-0.02639771,-0.1204833999999999,0.9923553,-30.52467,5.350571,-42.05678,3.133881,0.4589859999999999,0.5508926,0.6076351,0.0,0.0,0.0,36.70866,8.879425,-47.25977,-1.0,-1.0,-1.0,-0.5475563,1.13883,-0.3746382,-0.02244053,0.6459481,0.06774556,4.060075,-73.14584,32.97
1,-0.2392882999999999,-0.2189788999999999,0.9459229,0.4766795,-0.02481079,-0.1112366,0.9934692,-30.54768,5.48819,-42.30215,3.175797,0.4595496,0.5465578000000001,0.5661271,-0.2431183,-0.2208405,0.944519,36.81078,8.965378,-47.25459,3.679642,0.3871950999999999,0.4862257,-0.5504445,1.142768,-0.3750942,-0.0320699,0.6490704,0.07990171,4.060075,14.61801,32.97
1,-0.2392882999999999,-0.2189788999999999,0.9459229,0.4766795,-0.02481079,-0.1112366,0.9934692,-30.54768,5.48819,-42.30215,3.175797,0.4595496,0.5465578000000001,0.5661271,-0.2431183,-0.2208405,0.944519,36.81078,8.965378,-47.25459,3.679642,0.3871950999999999,0.4862257,-0.5504445,1.142768,-0.3750942,-0.0320699,0.6490704,0.07990171,4.060075,14.61801,32.97
1,-0.2392882999999999,-0.2189788999999999,0.9459229,0.4766795,-0.02481079,-0.1112366,0.9934692,-30.54768,5.48819,-42.30215,3.175797,0.4595496,0.5465578000000001,0.5661271,-0.2431183,-0.2208405,0.944519,36.81078,8.965378,-47.25459,3.679642,0.3871950999999999,0.4862257,-0.5504445,1.142768,-0.3750942,-0.0320699,0.6490704,0.07990171,4.060075,14.61801,32.97
1,-0.2392882999999999,-0.2189788999999999,0.9459229,0.4766795,-0.02481079,-0.1112366,0.9934692,-30.54768,5.48819,-42.30215,3.175797,0.4595496,0.5465578000000001,0.5661271,-0.2431183,-0.2208405,0.944519,36.81078,8.965378,-47.25459,3.679642,0.3871950999999999,0.4862257,-0.5539005,1.146753,-0.3751897999999999,-0.0420809,0.6513581999999999,0.09274931,4.060075,14.61801,32.97
1,-0.2392882999999999,-0.2189788999999999,0.9459229,0.4766795,-0.02481079,-0.1112366,0.9934692,-30.54768,5.48819,-42.30215,3.175797,0.4595496,0.5465578000000001,0.5661271,-0.2431183,-0.2208405,0.944519,36.81078,8.965378,-47.25459,3.679642,0.3871950999999999,0.4862257,-0.5539005,1.146753,-0.3751897999999999,-0.0420809,0.6513581999999999,0.09274931,4.060075,14.61801,32.97
1,-0.2392882999999999,-0.2189788999999999,0.9459229,0.4766795,-0.02481079,-0.1112366,0.9934692,-30.54768,5.48819,-42.30215,3.175797,0.4595496,0.5465578000000001,0.5661271,-0.2431183,-0.2208405,0.944519,36.81078,8.965378,-47.25459,3.679642,0.3871950999999999,0.4862257,-0.5539005,1.146753,-0.3751897999999999,-0.0420809,0.6513581999999999,0.09274931,4.060075,14.61801,32.97
1,-0.3044739,-0.2084808,0.9294128,0.4539986,-0.05680847,-0.1016998,0.9931793,-30.82997,5.87735,-42.95262,3.049194,0.4763270999999999,0.5370116,0.5886279999999999,-0.3045349,-0.2085114,0.9293823,36.53735,9.131607,-47.28833,3.549484,0.4110223,0.4785135999999999,-0.5575248,1.150425,-0.375044,-0.05117582,0.6530278,0.1051855,4.060075,14.61801,32.97
1,-0.3044739,-0.2084808,0.9294128,0.4539986,-0.05680847,-0.1016998,0.9931793,-30.82997,5.87735,-42.95262,3.049194,0.4763270999999999,0.5370116,0.5886279999999999,-0.3045349,-0.2085114,0.9293823,36.53735,9.131607,-47.28833,3.549484,0.4110223,0.4785135999999999,-0.5575248,1.150425,-0.375044,-0.05117582,0.6530278,0.1051855,4.060075,14.61801,32.97
1,-0.3044739,-0.2084808,0.9294128,0.4539986,-0.05680847,-0.1016998,0.9931793,-30.82997,5.87735,-42.95262,3.049194,0.4763270999999999,0.5370116,0.5886279999999999,-0.3045349,-0.2085114,0.9293823,36.53735,9.131607,-47.28833,3.549484,0.4110223,0.4785135999999999,-0.5575248,1.150425,-0.375044,-0.05117582,0.6530278,0.1051855,4.060075,14.61801,32.97
1,-0.2225647,-0.2174225,0.9503632,0.4539986,-0.05924988,-0.1139831999999999,0.9916992,-30.81065,5.7939,-42.8988,3.02359,0.4760351,0.5419877,0.5886279999999999,-0.2225647,-0.2174225,0.9503479,36.57877,9.059418,-47.23491,2.959946,0.3932314,0.4813191,-0.5615439,1.153777,-0.3746887,-0.06013741,0.6543486,0.1178530999999999,4.060075,14.61801,32.97
1,-0.2225647,-0.2174225,0.9503632,0.4539986,-0.05924988,-0.1139831999999999,0.9916992,-30.81065,5.7939,-42.8988,3.02359,0.4760351,0.5419877,0.5886279999999999,-0.2225647,-0.2174225,0.9503479,36.57877,9.059418,-47.23491,2.959946,0.3932314,0.4813191,-0.5615439,1.153777,-0.3746887,-0.06013741,0.6543486,0.1178530999999999,4.060075,14.61801,32.97
1,-0.2225647,-0.2174225,0.9503632,0.4539986,-0.05924988,-0.1139831999999999,0.9916992,-30.81065,5.7939,-42.8988,3.02359,0.4760351,0.5419877,0.5886279999999999,-0.2225647,-0.2174225,0.9503479,36.57877,9.059418,-47.23491,2.959946,0.3932314,0.4813191,-0.5615439,1.153777,-0.3746887,-0.06013741,0.6543486,0.1178530999999999,4.060075,14.61801,32.97
1,-0.2225647,-0.2174225,0.9503632,0.4539986,-0.05924988,-0.1139831999999999,0.9916992,-30.81065,5.7939,-42.8988,3.02359,0.4760351,0.5419877,0.5886279999999999,-0.2225647,-0.2174225,0.9503479,36.57877,9.059418,-47.23491,2.959946,0.3932314,0.4813191,-0.5652075,1.1562,-0.3743322,-0.0669718999999999,0.6553376000000001,0.127781,4.060075,6.300659,32.97
1,-0.2225647,-0.2174225,0.9503632,0.4539986,-0.05924988,-0.1139831999999999,0.9916992,-30.81065,5.7939,-42.8988,3.02359,0.4760351,0.5419877,0.5886279999999999,-0.2225647,-0.2174225,0.9503479,36.57877,9.059418,-47.23491,2.959946,0.3932314,0.4813191,-0.5652075,1.1562,-0.3743322,-0.0669718999999999,0.6553376000000001,0.127781,4.060075,6.300659,32.97
1,-0.2225647,-0.2174225,0.9503632,0.4539986,-0.05924988,-0.1139831999999999,0.9916992,-30.81065,5.7939,-42.8988,3.02359,0.4760351,0.5419877,0.5886279999999999,-0.2225647,-0.2174225,0.9503479,36.57877,9.059418,-47.23491,2.959946,0.3932314,0.4813191,-0.5652075,1.1562,-0.3743322,-0.0669718999999999,0.6553376000000001,0.127781,4.060075,6.300659,32.97
1,-0.1843109,-0.2372437,0.9537964,0.4757346999999999,-0.05873108,-0.1155853,0.9915466,-30.799840000000003,5.745941,-42.81703,2.997269,0.4755236,0.5432366,0.5929814999999999,-0.1843109,-0.2372437,0.9537964,36.58365,9.044403,-47.22578,2.679352,0.385389,0.485589,-0.5689849,1.158831,-0.3737994,-0.0740736,0.6559376,0.1381551,4.060075,6.300659,32.97
1,-0.1843109,-0.2372437,0.9537964,0.4757346999999999,-0.05873108,-0.1155853,0.9915466,-30.799840000000003,5.745941,-42.81703,2.997269,0.4755236,0.5432366,0.5929814999999999,-0.1843109,-0.2372437,0.9537964,36.58365,9.044403,-47.22578,2.679352,0.385389,0.485589,-0.5689849,1.158831,-0.3737994,-0.0740736,0.6559376,0.1381551,4.060075,6.300659,32.97
1,-0.1843109,-0.2372437,0.9537964,0.4757346999999999,-0.05873108,-0.1155853,0.9915466,-30.799840000000003,5.745941,-42.81703,2.997269,0.4755236,0.5432366,0.5929814999999999,-0.1843109,-0.2372437,0.9537964,36.58365,9.044403,-47.22578,2.679352,0.385389,0.485589,-0.5689849,1.158831,-0.3737994,-0.0740736,0.6559376,0.1381551,4.060075,6.300659,32.97
1,-0.1843109,-0.2372437,0.9537964,0.4757346999999999,-0.05873108,-0.1155853,0.9915466,-30.799840000000003,5.745941,-42.81703,2.997269,0.4755236,0.5432366,0.5929814999999999,-0.1843109,-0.2372437,0.9537964,36.58365,9.044403,-47.22578,2.679352,0.385389,0.485589,-0.5727943,1.161525,-0.3733011,-0.08222321,0.6564634,0.1486713,4.060075,6.300659,32.97
1,-0.1843109,-0.2372437,0.9537964,0.4757346999999999,-0.05873108,-0.1155853,0.9915466,-30.799840000000003,5.745941,-42.81703,2.997269,0.4755236,0.5432366,0.5929814999999999,-0.1843109,-0.2372437,0.9537964,36.58365,9.044403,-47.22578,2.679352,0.385389,0.485589,-0.5727943,1.161525,-0.3733011,-0.08222321,0.6564634,0.1486713,4.060075,6.300659,32.97
1,-0.1843109,-0.2372437,0.9537964,0.4757346999999999,-0.05873108,-0.1155853,0.9915466,-30.799840000000003,5.745941,-42.81703,2.997269,0.4755236,0.5432366,0.5929814999999999,-0.1843109,-0.2372437,0.9537964,36.58365,9.044403,-47.22578,2.679352,0.385389,0.485589,-0.5727943,1.161525,-0.3733011,-0.08222321,0.6564634,0.1486713,4.060075,6.300659,32.97
1,-0.2087554999999999,-0.2568817,0.9436188,0.4694665,-0.03601074,-0.1719207999999999,0.984436,-30.7285,5.204865,-42.55087,2.747604,0.4683805,0.5717328,0.5146748,-0.2089996,-0.2569885,0.9435272,36.6198,8.667953,-47.34407,3.011551,0.3883220999999999,0.5065194000000001,-0.5766358,1.164094,-0.3731055,-0.09059063,0.6571204,0.1596168999999999,4.060075,6.300659,32.97
1,-0.2087554999999999,-0.2568817,0.9436188,0.4694665,-0.03601074,-0.1719207999999999,0.984436,-30.7285,5.204865,-42.55087,2.747604,0.4683805,0.5717328,0.5146748,-0.2089996,-0.2569885,0.9435272,36.6198,8.667953,-47.34407,3.011551,0.3883220999999999,0.5065194000000001,-0.5766358,1.164094,-0.3731055,-0.09059063,0.6571204,0.1596168999999999,4.060075,6.300659,32.97
1,-0.2087554999999999,-0.2568817,0.9436188,0.4694665,-0.03601074,-0.1719207999999999,0.984436,-30.7285,5.204865,-42.55087,2.747604,0.4683805,0.5717328,0.5146748,-0.2089996,-0.2569885,0.9435272,36.6198,8.667953,-47.34407,3.011551,0.3883220999999999,0.5065194000000001,-0.5766358,1.164094,-0.3731055,-0.09059063,0.6571204,0.1596168999999999,4.060075,6.300659,32.97
1,-0.1795043999999999,-0.2647247,0.947464,0.4501154,-0.04890442,-0.1755981,0.9832306,-30.71455,5.142746,-42.56573,2.708817,0.4702989999999999,0.5749985,0.4801335,-0.2112732,-0.2858429,0.9346771,36.647,8.619873,-47.35434,2.738007,0.3877545,0.5149407,-0.5805465999999999,1.1670280000000002,-0.3730441,-0.09993491,0.6576343000000001,0.1709094,4.060075,6.300659,32.97
1,-0.1795043999999999,-0.2647247,0.947464,0.4501154,-0.04890442,-0.1755981,0.9832306,-30.71455,5.142746,-42.56573,2.708817,0.4702989999999999,0.5749985,0.4801335,-0.2112732,-0.2858429,0.9346771,36.647,8.619873,-47.35434,2.738007,0.3877545,0.5149407,-0.5805465999999999,1.1670280000000002,-0.3730441,-0.09993491,0.6576343000000001,0.1709094,4.060075,6.300659,32.97
1,-0.1795043999999999,-0.2647247,0.947464,0.4501154,-0.04890442,-0.1755981,0.9832306,-30.71455,5.142746,-42.56573,2.708817,0.4702989999999999,0.5749985,0.4801335,-0.2112732,-0.2858429,0.9346771,36.647,8.619873,-47.35434,2.738007,0.3877545,0.5149407,-0.5805465999999999,1.1670280000000002,-0.3730441,-0.09993491,0.6576343000000001,0.1709094,4.060075,6.300659,32.97
1,-0.08389282,-0.2445374,0.9659882,0.4146407999999999,-0.03718567,-0.1954193,0.980011,-30.70618,5.306778,-42.51077,2.760208,0.4677488,0.5722149999999999,0.4194039,-0.1580047999999999,-0.3208922999999999,0.9338379,36.59608,8.769165,-47.28055,2.688766,0.3792036,0.5150312,-0.5887723000000001,1.172735,-0.3734134,-0.1196359999999999,0.6584178,0.1928329,4.060075,-41.37875,32.97
1,-0.08389282,-0.2445374,0.9659882,0.4146407999999999,-0.03718567,-0.1954193,0.980011,-30.70618,5.306778,-42.51077,2.760208,0.4677488,0.5722149999999999,0.4194039,-0.1580047999999999,-0.3208922999999999,0.9338379,36.59608,8.769165,-47.28055,2.688766,0.3792036,0.5150312,-0.5887723000000001,1.172735,-0.3734134,-0.1196359999999999,0.6584178,0.1928329,4.060075,-41.37875,32.97
1,-0.08389282,-0.2445374,0.9659882,0.4146407999999999,-0.03718567,-0.1954193,0.980011,-30.70618,5.306778,-42.51077,2.760208,0.4677488,0.5722149999999999,0.4194039,-0.1580047999999999,-0.3208922999999999,0.9338379,36.59608,8.769165,-47.28055,2.688766,0.3792036,0.5150312,-0.5887723000000001,1.172735,-0.3734134,-0.1196359999999999,0.6584178,0.1928329,4.060075,-41.37875,32.97
1,-1.0,-1.0,-1.0,0.2910114,0.0,0.0,0.0,-30.68881,6.191559,-42.39838,-1.0,0.4739788,0.506494,0.2956542,0.0,0.0,0.0,36.52803,9.057419,-47.33435,-1.0,-1.0,-1.0,-0.5887723000000001,1.172735,-0.3734134,-0.1196359999999999,0.6584178,0.1928329,4.060075,-41.37875,32.97
1,-1.0,-1.0,-1.0,0.2910114,0.0,0.0,0.0,-30.68881,6.191559,-42.39838,-1.0,0.4739788,0.506494,0.2956542,0.0,0.0,0.0,36.52803,9.057419,-47.33435,-1.0,-1.0,-1.0,-0.5887723000000001,1.172735,-0.3734134,-0.1196359999999999,0.6584178,0.1928329,4.060075,-41.37875,32.97
1,-1.0,-1.0,-1.0,0.2910114,0.0,0.0,0.0,-30.68881,6.191559,-42.39838,-1.0,0.4739788,0.506494,0.2956542,0.0,0.0,0.0,36.52803,9.057419,-47.33435,-1.0,-1.0,-1.0,-0.5887723000000001,1.172735,-0.3734134,-0.1196359999999999,0.6584178,0.1928329,4.060075,-41.37875,32.97
1,-1.0,-1.0,-1.0,0.3039644,0.0,0.0,0.0,-30.70993,6.059051999999999,-41.99927,-1.0,0.4725032,0.5082704,0.2818603,0.0,0.0,0.0,36.52803,9.057419,-47.33435,-1.0,-1.0,-1.0,-0.592672,1.175266,-0.3736888,-0.128475,0.6588835999999999,0.2024957,4.060075,-41.37875,32.97
1,-1.0,-1.0,-1.0,0.3039644,0.0,0.0,0.0,-30.70993,6.059051999999999,-41.99927,-1.0,0.4725032,0.5082704,0.2818603,0.0,0.0,0.0,36.52803,9.057419,-47.33435,-1.0,-1.0,-1.0,-0.592672,1.175266,-0.3736888,-0.128475,0.6588835999999999,0.2024957,4.060075,-41.37875,32.97
1,-1.0,-1.0,-1.0,0.3039644,0.0,0.0,0.0,-30.70993,6.059051999999999,-41.99927,-1.0,0.4725032,0.5082704,0.2818603,0.0,0.0,0.0,36.52803,9.057419,-47.33435,-1.0,-1.0,-1.0,-0.592672,1.175266,-0.3736888,-0.128475,0.6588835999999999,0.2024957,4.060075,-41.37875,32.97
1,-1.0,-1.0,-1.0,0.3039644,0.0,0.0,0.0,-30.70993,6.059051999999999,-41.99927,-1.0,0.4725032,0.5082704,0.2818603,0.0,0.0,0.0,36.52803,9.057419,-47.33435,-1.0,-1.0,-1.0,-0.5965292,1.17739,-0.3741304,-0.1365699,0.6593762,0.2112485,4.060075,-41.37875,32.97
1,-1.0,-1.0,-1.0,0.3039644,0.0,0.0,0.0,-30.70993,6.059051999999999,-41.99927,-1.0,0.4725032,0.5082704,0.2818603,0.0,0.0,0.0,36.52803,9.057419,-47.33435,-1.0,-1.0,-1.0,-0.5965292,1.17739,-0.3741304,-0.1365699,0.6593762,0.2112485,4.060075,-41.37875,32.97
1,-1.0,-1.0,-1.0,0.3039644,0.0,0.0,0.0,-30.70993,6.059051999999999,-41.99927,-1.0,0.4725032,0.5082704,0.2818603,0.0,0.0,0.0,36.52803,9.057419,-47.33435,-1.0,-1.0,-1.0,-0.5965292,1.17739,-0.3741304,-0.1365699,0.6593762,0.2112485,4.060075,-41.37875,32.97
1,-0.03689575,-0.08122253,0.9960022,0.429188,-0.03689575,-0.08122253,0.9960022,-30.746,5.502762000000001,-41.18358,2.839066,0.4694568,0.5284291999999999,0.4947437,0.0,0.0,0.0,36.52803,9.057419,-47.33435,-1.0,-1.0,-1.0,-0.6001818,1.1793,-0.3744210999999999,-0.1433433,0.6601111999999999,0.2181703999999999,4.060075,-41.37875,32.97
1,-0.03689575,-0.08122253,0.9960022,0.429188,-0.03689575,-0.08122253,0.9960022,-30.746,5.502762000000001,-41.18358,2.839066,0.4694568,0.5284291999999999,0.4947437,0.0,0.0,0.0,36.52803,9.057419,-47.33435,-1.0,-1.0,-1.0,-0.6001818,1.1793,-0.3744210999999999,-0.1433433,0.6601111999999999,0.2181703999999999,4.060075,-41.37875,32.97
1,-0.03689575,-0.08122253,0.9960022,0.429188,-0.03689575,-0.08122253,0.9960022,-30.746,5.502762000000001,-41.18358,2.839066,0.4694568,0.5284291999999999,0.4947437,0.0,0.0,0.0,36.52803,9.057419,-47.33435,-1.0,-1.0,-1.0,-0.6001818,1.1793,-0.3744210999999999,-0.1433433,0.6601111999999999,0.2181703999999999,4.060075,-41.37875,32.97
1,-0.0382843,-0.06958008,0.9968262,0.4570964,-0.0382843,-0.06958008,0.9968262,-30.70782,5.53212,-41.94415,2.735474,0.4682827,0.5328425999999999,0.4886532,0.0,0.0,0.0,36.52803,9.057419,-47.33435,-1.0,-1.0,-1.0,-0.6034188,1.181007,-0.3747267,-0.149375,0.6606517,0.225096,4.060075,-41.37875,32.97
1,-0.0382843,-0.06958008,0.9968262,0.4570964,-0.0382843,-0.06958008,0.9968262,-30.70782,5.53212,-41.94415,2.735474,0.4682827,0.5328425999999999,0.4886532,0.0,0.0,0.0,36.52803,9.057419,-47.33435,-1.0,-1.0,-1.0,-0.6034188,1.181007,-0.3747267,-0.149375,0.6606517,0.225096,4.060075,-41.37875,32.97
1,-0.0382843,-0.06958008,0.9968262,0.4570964,-0.0382843,-0.06958008,0.9968262,-30.70782,5.53212,-41.94415,2.735474,0.4682827,0.5328425999999999,0.4886532,0.0,0.0,0.0,36.52803,9.057419,-47.33435,-1.0,-1.0,-1.0,-0.6034188,1.181007,-0.3747267,-0.149375,0.6606517,0.225096,4.060075,-41.37875,32.97
1,-0.03152466,-0.09918213,0.9945679,0.4776073,-0.03152466,-0.09918213,0.9945679,-30.70537,5.541718,-42.22586,2.822403,0.466834,0.5412357,0.5036495,0.0,0.0,0.0,36.52803,9.057419,-47.33435,-1.0,-1.0,-1.0,-0.6063031999999999,1.182394,-0.3749685,-0.154089,0.6614211999999999,0.2307547,4.060075,-41.37875,32.97
1,-0.03152466,-0.09918213,0.9945679,0.4776073,-0.03152466,-0.09918213,0.9945679,-30.70537,5.541718,-42.22586,2.822403,0.466834,0.5412357,0.5036495,0.0,0.0,0.0,36.52803,9.057419,-47.33435,-1.0,-1.0,-1.0,-0.6063031999999999,1.182394,-0.3749685,-0.154089,0.6614211999999999,0.2307547,4.060075,-41.37875,32.97
1,-0.03152466,-0.09918213,0.9945679,0.4776073,-0.03152466,-0.09918213,0.9945679,-30.70537,5.541718,-42.22586,2.822403,0.466834,0.5412357,0.5036495,0.0,0.0,0.0,36.52803,9.057419,-47.33435,-1.0,-1.0,-1.0,-0.6063031999999999,1.182394,-0.3749685,-0.154089,0.6614211999999999,0.2307547,4.060075,-41.37875,32.97
1,-0.03126526,-0.1024017,0.9942474,0.4776073,-0.03126526,-0.1024017,0.9942474,-30.67496,5.349823000000001,-41.77881,2.760941,0.4656509,0.544295,0.5036495,0.0,0.0,0.0,36.52803,9.057419,-47.33435,-1.0,-1.0,-1.0,-0.6087399,1.1834870000000002,-0.3749685,-0.158301,0.6618783,0.2362397,4.060075,-59.34641,32.97
1,-0.03126526,-0.1024017,0.9942474,0.4776073,-0.03126526,-0.1024017,0.9942474,-30.67496,5.349823000000001,-41.77881,2.760941,0.4656509,0.544295,0.5036495,0.0,0.0,0.0,36.52803,9.057419,-47.33435,-1.0,-1.0,-1.0,-0.6087399,1.1834870000000002,-0.3749685,-0.158301,0.6618783,0.2362397,4.060075,-59.34641,32.97
1,-0.03126526,-0.1024017,0.9942474,0.4776073,-0.03126526,-0.1024017,0.9942474,-30.67496,5.349823000000001,-41.77881,2.760941,0.4656509,0.544295,0.5036495,0.0,0.0,0.0,36.52803,9.057419,-47.33435,-1.0,-1.0,-1.0,-0.6087399,1.1834870000000002,-0.3749685,-0.158301,0.6618783,0.2362397,4.060075,-59.34641,32.97
1,-0.03126526,-0.1024017,0.9942474,0.4776073,-0.03126526,-0.1024017,0.9942474,-30.67496,5.349823000000001,-41.77881,2.760941,0.4656509,0.544295,0.5036495,0.0,0.0,0.0,36.52803,9.057419,-47.33435,-1.0,-1.0,-1.0,-0.6108680999999999,1.184481,-0.3747313,-0.1620334,0.6621041999999999,0.2416702,4.060075,-59.34641,32.97
1,-0.03126526,-0.1024017,0.9942474,0.4776073,-0.03126526,-0.1024017,0.9942474,-30.67496,5.349823000000001,-41.77881,2.760941,0.4656509,0.544295,0.5036495,0.0,0.0,0.0,36.52803,9.057419,-47.33435,-1.0,-1.0,-1.0,-0.6108680999999999,1.184481,-0.3747313,-0.1620334,0.6621041999999999,0.2416702,4.060075,-59.34641,32.97
1,-0.03126526,-0.1024017,0.9942474,0.4776073,-0.03126526,-0.1024017,0.9942474,-30.67496,5.349823000000001,-41.77881,2.760941,0.4656509,0.544295,0.5036495,0.0,0.0,0.0,36.52803,9.057419,-47.33435,-1.0,-1.0,-1.0,-0.6108680999999999,1.184481,-0.3747313,-0.1620334,0.6621041999999999,0.2416702,4.060075,-59.34641,32.97
1,-0.02746582,-0.1229401,0.9920197,0.4776073,-0.02746582,-0.1229401,0.9920197,-30.57999,5.138077,-41.29126,2.66716,0.4613804,0.551012,0.5036495,0.0,0.0,0.0,36.52803,9.057419,-47.33435,-1.0,-1.0,-1.0,-0.6128132,1.18536,-0.3743814,-0.1651606,0.6619613,0.2468296,4.060075,-59.34641,32.97
1,-0.02746582,-0.1229401,0.9920197,0.4776073,-0.02746582,-0.1229401,0.9920197,-30.57999,5.138077,-41.29126,2.66716,0.4613804,0.551012,0.5036495,0.0,0.0,0.0,36.52803,9.057419,-47.33435,-1.0,-1.0,-1.0,-0.6128132,1.18536,-0.3743814,-0.1651606,0.6619613,0.2468296,4.060075,-59.34641,32.97
1,-0.02746582,-0.1229401,0.9920197,0.4776073,-0.02746582,-0.1229401,0.9920197,-30.57999,5.138077,-41.29126,2.66716,0.4613804,0.551012,0.5036495,0.0,0.0,0.0,36.52803,9.057419,-47.33435,-1.0,-1.0,-1.0,-0.6128132,1.18536,-0.3743814,-0.1651606,0.6619613,0.2468296,4.060075,-59.34641,32.97
1,-1.0,-1.0,-1.0,0.3977257,0.0,0.0,0.0,-30.14972,5.978821,-40.89813,-1.0,0.4352078,0.4743209,0.3645732,0.0,0.0,0.0,36.52803,9.057419,-47.33435,-1.0,-1.0,-1.0,-0.6145491999999999,1.186606,-0.373772,-0.1685032,0.6610891999999999,0.2522619,4.060075,-59.34641,32.97
1,-1.0,-1.0,-1.0,0.3977257,0.0,0.0,0.0,-30.14972,5.978821,-40.89813,-1.0,0.4352078,0.4743209,0.3645732,0.0,0.0,0.0,36.52803,9.057419,-47.33435,-1.0,-1.0,-1.0,-0.6145491999999999,1.186606,-0.373772,-0.1685032,0.6610891999999999,0.2522619,4.060075,-59.34641,32.97
1,-1.0,-1.0,-1.0,0.3977257,0.0,0.0,0.0,-30.14972,5.978821,-40.89813,-1.0,0.4352078,0.4743209,0.3645732,0.0,0.0,0.0,36.52803,9.057419,-47.33435,-1.0,-1.0,-1.0,-0.6145491999999999,1.186606,-0.373772,-0.1685032,0.6610891999999999,0.2522619,4.060075,-59.34641,32.97
1,-1.0,-1.0,-1.0,0.3977257,0.0,0.0,0.0,-30.14972,5.978821,-40.89813,-1.0,0.4352078,0.4743209,0.3645732,0.0,0.0,0.0,36.52803,9.057419,-47.33435,-1.0,-1.0,-1.0,-0.6161746,1.187823,-0.373098,-0.170917,0.6598165,0.2569913,3.900787,51.81641,32.97
1,-1.0,-1.0,-1.0,0.3977257,0.0,0.0,0.0,-30.14972,5.978821,-40.89813,-1.0,0.4352078,0.4743209,0.3645732,0.0,0.0,0.0,36.52803,9.057419,-47.33435,-1.0,-1.0,-1.0,-0.6161746,1.187823,-0.373098,-0.170917,0.6598165,0.2569913,3.900787,51.81641,32.97
1,-1.0,-1.0,-1.0,0.3977257,0.0,0.0,0.0,-30.14972,5.978821,-40.89813,-1.0,0.4352078,0.4743209,0.3645732,0.0,0.0,0.0,36.52803,9.057419,-47.33435,-1.0,-1.0,-1.0,-0.6161746,1.187823,-0.373098,-0.170917,0.6598165,0.2569913,3.900787,51.81641,32.97
1,-1.0,-1.0,-1.0,0.3977257,0.0,0.0,0.0,-30.14972,5.978821,-40.89813,-1.0,0.4352078,0.4743209,0.3645732,0.0,0.0,0.0,36.52803,9.057419,-47.33435,-1.0,-1.0,-1.0,-0.61736,1.188257,-0.3725159999999999,-0.1721668999999999,0.6586612,0.260211,3.900787,51.81641,32.97
1,-1.0,-1.0,-1.0,0.3977257,0.0,0.0,0.0,-30.14972,5.978821,-40.89813,-1.0,0.4352078,0.4743209,0.3645732,0.0,0.0,0.0,36.52803,9.057419,-47.33435,-1.0,-1.0,-1.0,-0.61736,1.188257,-0.3725159999999999,-0.1721668999999999,0.6586612,0.260211,3.900787,51.81641,32.97
1,-1.0,-1.0,-1.0,0.3977257,0.0,0.0,0.0,-30.14972,5.978821,-40.89813,-1.0,0.4352078,0.4743209,0.3645732,0.0,0.0,0.0,36.52803,9.057419,-47.33435,-1.0,-1.0,-1.0,-0.61736,1.188257,-0.3725159999999999,-0.1721668999999999,0.6586612,0.260211,3.900787,51.81641,32.97
1,0.01817322,0.04589844,0.9987793,0.4650646,0.01817322,0.04589844,0.9987793,-30.23772,5.4510190000000005,-41.12619,2.559479,0.4403261999999999,0.5049511999999999,0.4682130999999999,0.0,0.0,0.0,36.52803,9.057419,-47.33435,-1.0,-1.0,-1.0,-0.618359,1.1886290000000002,-0.371863,-0.1740812,0.6572511,0.2637994,3.900787,51.81641,32.97
1,0.01817322,0.04589844,0.9987793,0.4650646,0.01817322,0.04589844,0.9987793,-30.23772,5.4510190000000005,-41.12619,2.559479,0.4403261999999999,0.5049511999999999,0.4682130999999999,0.0,0.0,0.0,36.52803,9.057419,-47.33435,-1.0,-1.0,-1.0,-0.618359,1.1886290000000002,-0.371863,-0.1740812,0.6572511,0.2637994,3.900787,51.81641,32.97
1,0.01817322,0.04589844,0.9987793,0.4650646,0.01817322,0.04589844,0.9987793,-30.23772,5.4510190000000005,-41.12619,2.559479,0.4403261999999999,0.5049511999999999,0.4682130999999999,0.0,0.0,0.0,36.52803,9.057419,-47.33435,-1.0,-1.0,-1.0,-0.618359,1.1886290000000002,-0.371863,-0.1740812,0.6572511,0.2637994,3.900787,51.81641,32.97
1,0.006637573,0.04873657,0.9987793,0.6485041,0.006637573,0.04873657,0.9987793,-30.28203,5.784653,-42.6237,2.633179,0.4438072,0.5072274,0.6349826,0.0,0.0,0.0,36.52803,9.057419,-47.33435,-1.0,-1.0,-1.0,-0.6194225999999999,1.189086,-0.3713945999999999,-0.1760021,0.6561203,0.2676652,3.900787,51.81641,32.97
1,0.006637573,0.04873657,0.9987793,0.6485041,0.006637573,0.04873657,0.9987793,-30.28203,5.784653,-42.6237,2.633179,0.4438072,0.5072274,0.6349826,0.0,0.0,0.0,36.52803,9.057419,-47.33435,-1.0,-1.0,-1.0,-0.6194225999999999,1.189086,-0.3713945999999999,-0.1760021,0.6561203,0.2676652,3.900787,51.81641,32.97
1,0.006637573,0.04873657,0.9987793,0.6485041,0.006637573,0.04873657,0.9987793,-30.28203,5.784653,-42.6237,2.633179,0.4438072,0.5072274,0.6349826,0.0,0.0,0.0,36.52803,9.057419,-47.33435,-1.0,-1.0,-1.0,-0.6194225999999999,1.189086,-0.3713945999999999,-0.1760021,0.6561203,0.2676652,3.900787,51.81641,32.97
2,0.0144043,0.04521179,0.9988708,0.6588177,0.0144043,0.04521179,0.9988708,-30.36856,5.492599,-41.913070000000005,2.666458,0.4456954999999999,0.5116193,0.6391865,0.0,0.0,0.0,36.52803,9.057419,-47.33435,-1.0,-1.0,-1.0,-0.6204592,1.1895950000000002,-0.3711172,-0.1776431,0.6552428000000001,0.2711622,3.900787,51.81641,32.97
2,0.0144043,0.04521179,0.9988708,0.6588177,0.0144043,0.04521179,0.9988708,-30.36856,5.492599,-41.913070000000005,2.666458,0.4456954999999999,0.5116193,0.6391865,0.0,0.0,0.0,36.52803,9.057419,-47.33435,-1.0,-1.0,-1.0,-0.6204592,1.1895950000000002,-0.3711172,-0.1776431,0.6552428000000001,0.2711622,3.900787,51.81641,32.97
2,0.0144043,0.04521179,0.9988708,0.6588177,0.0144043,0.04521179,0.9988708,-30.36856,5.492599,-41.913070000000005,2.666458,0.4456954999999999,0.5116193,0.6391865,0.0,0.0,0.0,36.52803,9.057419,-47.33435,-1.0,-1.0,-1.0,-0.6204592,1.1895950000000002,-0.3711172,-0.1776431,0.6552428000000001,0.2711622,3.900787,51.81641,32.97
2,0.01190186,0.03295898,0.9993744,0.6796118,0.01190186,0.03295898,0.9993744,-30.39536,5.571823,-42.68336,2.6428830000000003,0.4469765,0.5188583,0.6429026,0.0,0.0,0.0,36.52803,9.057419,-47.33435,-1.0,-1.0,-1.0,-0.6213751000000001,1.1901389999999998,-0.3709857,-0.1794263999999999,0.6548484,0.2740872,3.900787,49.86017,32.97
2,0.01190186,0.03295898,0.9993744,0.6796118,0.01190186,0.03295898,0.9993744,-30.39536,5.571823,-42.68336,2.6428830000000003,0.4469765,0.5188583,0.6429026,0.0,0.0,0.0,36.52803,9.057419,-47.33435,-1.0,-1.0,-1.0,-0.6213751000000001,1.1901389999999998,-0.3709857,-0.1794263999999999,0.6548484,0.2740872,3.900787,49.86017,32.97
2,0.01190186,0.03295898,0.9993744,0.6796118,0.01190186,0.03295898,0.9993744,-30.39536,5.571823,-42.68336,2.6428830000000003,0.4469765,0.5188583,0.6429026,0.0,0.0,0.0,36.52803,9.057419,-47.33435,-1.0,-1.0,-1.0,-0.6213751000000001,1.1901389999999998,-0.3709857,-0.1794263999999999,0.6548484,0.2740872,3.900787,49.86017,32.97
2,-0.1308289,0.01065063,0.991333,0.710608,0.01379395,0.03637695,0.9992371,-30.40501,5.548737,-42.72429,2.662338,0.4469656,0.5195087,0.6733026999999999,-0.1308594,0.01065063,0.991333,37.07237,8.861572,-47.12186,2.287048,0.3565546,0.4385225,-0.6220349000000001,1.190457,-0.370958,-0.1807016,0.6549903,0.2761542999999999,3.900787,49.86017,32.97
2,-0.1308289,0.01065063,0.991333,0.710608,0.01379395,0.03637695,0.9992371,-30.40501,5.548737,-42.72429,2.662338,0.4469656,0.5195087,0.6733026999999999,-0.1308594,0.01065063,0.991333,37.07237,8.861572,-47.12186,2.287048,0.3565546,0.4385225,-0.6220349000000001,1.190457,-0.370958,-0.1807016,0.6549903,0.2761542999999999,3.900787,49.86017,32.97
2,-0.1308289,0.01065063,0.991333,0.710608,0.01379395,0.03637695,0.9992371,-30.40501,5.548737,-42.72429,2.662338,0.4469656,0.5195087,0.6733026999999999,-0.1308594,0.01065063,0.991333,37.07237,8.861572,-47.12186,2.287048,0.3565546,0.4385225,-0.6220349000000001,1.190457,-0.370958,-0.1807016,0.6549903,0.2761542999999999,3.900787,49.86017,32.97
2,-0.1308289,0.01065063,0.991333,0.710608,0.01379395,0.03637695,0.9992371,-30.40501,5.548737,-42.72429,2.662338,0.4469656,0.5195087,0.6733026999999999,-0.1308594,0.01065063,0.991333,37.07237,8.861572,-47.12186,2.287048,0.3565546,0.4385225,-0.622297,1.190755,-0.3711196,-0.1821701,0.6554063,0.2777875,3.900787,49.86017,32.97
2,-0.1308289,0.01065063,0.991333,0.710608,0.01379395,0.03637695,0.9992371,-30.40501,5.548737,-42.72429,2.662338,0.4469656,0.5195087,0.6733026999999999,-0.1308594,0.01065063,0.991333,37.07237,8.861572,-47.12186,2.287048,0.3565546,0.4385225,-0.622297,1.190755,-0.3711196,-0.1821701,0.6554063,0.2777875,3.900787,49.86017,32.97
2,-0.1308289,0.01065063,0.991333,0.710608,0.01379395,0.03637695,0.9992371,-30.40501,5.548737,-42.72429,2.662338,0.4469656,0.5195087,0.6733026999999999,-0.1308594,0.01065063,0.991333,37.07237,8.861572,-47.12186,2.287048,0.3565546,0.4385225,-0.622297,1.190755,-0.3711196,-0.1821701,0.6554063,0.2777875,3.900787,49.86017,32.97
2,0.0067749019999999,0.03211975,0.9994507,0.7111839,0.0067749019999999,0.03211975,0.9994507,-30.41428,5.584671,-43.00851,2.506454,0.4486014,0.5217587,0.6678054,0.0,0.0,0.0,37.023590000000006,8.839203,-47.18097,-1.0,-1.0,-1.0,-0.6222340000000001,1.191058,-0.3713192,-0.1835911,0.6560307,0.2788556,3.900787,49.86017,32.97
2,0.0067749019999999,0.03211975,0.9994507,0.7111839,0.0067749019999999,0.03211975,0.9994507,-30.41428,5.584671,-43.00851,2.506454,0.4486014,0.5217587,0.6678054,0.0,0.0,0.0,37.023590000000006,8.839203,-47.18097,-1.0,-1.0,-1.0,-0.6222340000000001,1.191058,-0.3713192,-0.1835911,0.6560307,0.2788556,3.900787,49.86017,32.97
2,0.0067749019999999,0.03211975,0.9994507,0.7111839,0.0067749019999999,0.03211975,0.9994507,-30.41428,5.584671,-43.00851,2.506454,0.4486014,0.5217587,0.6678054,0.0,0.0,0.0,37.023590000000006,8.839203,-47.18097,-1.0,-1.0,-1.0,-0.6222340000000001,1.191058,-0.3713192,-0.1835911,0.6560307,0.2788556,3.900787,49.86017,32.97
2,0.0067749019999999,0.03211975,0.9994507,0.7111839,0.0067749019999999,0.03211975,0.9994507,-30.41428,5.584671,-43.00851,2.506454,0.4486014,0.5217587,0.6678054,0.0,0.0,0.0,37.023590000000006,8.839203,-47.18097,-1.0,-1.0,-1.0,-0.6217998,1.190992,-0.3715053,-0.1836118,0.6568037,0.2790257,3.900787,49.86017,32.97
2,0.0067749019999999,0.03211975,0.9994507,0.7111839,0.0067749019999999,0.03211975,0.9994507,-30.41428,5.584671,-43.00851,2.506454,0.4486014,0.5217587,0.6678054,0.0,0.0,0.0,37.023590000000006,8.839203,-47.18097,-1.0,-1.0,-1.0,-0.6217998,1.190992,-0.3715053,-0.1836118,0.6568037,0.2790257,3.900787,49.86017,32.97
2,0.0067749019999999,0.03211975,0.9994507,0.7111839,0.0067749019999999,0.03211975,0.9994507,-30.41428,5.584671,-43.00851,2.506454,0.4486014,0.5217587,0.6678054,0.0,0.0,0.0,37.023590000000006,8.839203,-47.18097,-1.0,-1.0,-1.0,-0.6217998,1.190992,-0.3715053,-0.1836118,0.6568037,0.2790257,3.900787,49.86017,32.97
2,0.009063721,0.01728821,0.9998016,0.7559296999999999,0.009063721,0.01728821,0.9998016,-30.45363,5.541656,-43.79758,2.50589,0.4494239,0.5344959,0.7130423,-0.1231384,-0.0241394,0.9920807,37.00728,8.522964,-47.26503,2.023926,0.3567652,0.460322,-0.6212373000000001,1.190673,-0.3717995999999999,-0.1831057,0.6573899000000001,0.2785597,3.900787,-40.92709,32.97
2,0.009063721,0.01728821,0.9998016,0.7559296999999999,0.009063721,0.01728821,0.9998016,-30.45363,5.541656,-43.79758,2.50589,0.4494239,0.5344959,0.7130423,-0.1231384,-0.0241394,0.9920807,37.00728,8.522964,-47.26503,2.023926,0.3567652,0.460322,-0.6212373000000001,1.190673,-0.3717995999999999,-0.1831057,0.6573899000000001,0.2785597,3.900787,-40.92709,32.97
2,0.009063721,0.01728821,0.9998016,0.7559296999999999,0.009063721,0.01728821,0.9998016,-30.45363,5.541656,-43.79758,2.50589,0.4494239,0.5344959,0.7130423,-0.1231384,-0.0241394,0.9920807,37.00728,8.522964,-47.26503,2.023926,0.3567652,0.460322,-0.6212373000000001,1.190673,-0.3717995999999999,-0.1831057,0.6573899000000001,0.2785597,3.900787,-40.92709,32.97
2,0.01286316,0.01365662,0.9998169,0.7446136,0.01286316,0.01365662,0.9998169,-30.434890000000003,5.478195,-43.62576,2.472275,0.4479973,0.5357553,0.7118069,-0.1148223999999999,-0.02389526,0.9930878,37.01691,8.516708,-47.24655,2.213791,0.3545189,0.4603600999999999,-0.6205126999999999,1.1903860000000002,-0.3718841,-0.183617,0.6571009,0.2774955999999999,3.900787,-40.92709,32.97
2,0.01286316,0.01365662,0.9998169,0.7446136,0.01286316,0.01365662,0.9998169,-30.434890000000003,5.478195,-43.62576,2.472275,0.4479973,0.5357553,0.7118069,-0.1148223999999999,-0.02389526,0.9930878,37.01691,8.516708,-47.24655,2.213791,0.3545189,0.4603600999999999,-0.6205126999999999,1.1903860000000002,-0.3718841,-0.183617,0.6571009,0.2774955999999999,3.900787,-40.92709,32.97
2,0.01286316,0.01365662,0.9998169,0.7446136,0.01286316,0.01365662,0.9998169,-30.434890000000003,5.478195,-43.62576,2.472275,0.4479973,0.5357553,0.7118069,-0.1148223999999999,-0.02389526,0.9930878,37.01691,8.516708,-47.24655,2.213791,0.3545189,0.4603600999999999,-0.6205126999999999,1.1903860000000002,-0.3718841,-0.183617,0.6571009,0.2774955999999999,3.900787,-40.92709,32.97
2,0.01393127,0.01681519,0.9997559,0.7308209,0.01393127,0.01681519,0.9997559,-30.42159,5.441147,-43.421690000000005,2.572723,0.4473339,0.5344849,0.7082154,-0.1115417,-0.02253723,0.9934998,37.02823,8.520172,-47.23418,2.239502,0.3533756,0.4597894,-0.6198461999999999,1.190283,-0.3718517,-0.1842335,0.6557588000000001,0.2758948,3.900787,-40.92709,32.97
2,0.01393127,0.01681519,0.9997559,0.7308209,0.01393127,0.01681519,0.9997559,-30.42159,5.441147,-43.421690000000005,2.572723,0.4473339,0.5344849,0.7082154,-0.1115417,-0.02253723,0.9934998,37.02823,8.520172,-47.23418,2.239502,0.3533756,0.4597894,-0.6198461999999999,1.190283,-0.3718517,-0.1842335,0.6557588000000001,0.2758948,3.900787,-40.92709,32.97
2,0.01393127,0.01681519,0.9997559,0.7308209,0.01393127,0.01681519,0.9997559,-30.42159,5.441147,-43.421690000000005,2.572723,0.4473339,0.5344849,0.7082154,-0.1115417,-0.02253723,0.9934998,37.02823,8.520172,-47.23418,2.239502,0.3533756,0.4597894,-0.6198461999999999,1.190283,-0.3718517,-0.1842335,0.6557588000000001,0.2758948,3.900787,-40.92709,32.97
2,-0.1180115,-0.02726746,0.99263,0.7166091,0.0164032,0.01098633,0.9998016,-30.41103,5.0132900000000005,-41.73398,2.647308,0.4468047,0.5341226,0.7034151999999999,-0.1180115,-0.02726746,0.99263,37.06825,8.473465,-46.89153,1.880966,0.3537345,0.4588912,-0.6191076,1.19006,-0.3715514,-0.1843922999999999,0.653744,0.2736332,3.900787,-40.92709,32.97
2,-0.1180115,-0.02726746,0.99263,0.7166091,0.0164032,0.01098633,0.9998016,-30.41103,5.0132900000000005,-41.73398,2.647308,0.4468047,0.5341226,0.7034151999999999,-0.1180115,-0.02726746,0.99263,37.06825,8.473465,-46.89153,1.880966,0.3537345,0.4588912,-0.6191076,1.19006,-0.3715514,-0.1843922999999999,0.653744,0.2736332,3.900787,-40.92709,32.97
2,-0.1180115,-0.02726746,0.99263,0.7166091,0.0164032,0.01098633,0.9998016,-30.41103,5.0132900000000005,-41.73398,2.647308,0.4468047,0.5341226,0.7034151999999999,-0.1180115,-0.02726746,0.99263,37.06825,8.473465,-46.89153,1.880966,0.3537345,0.4588912,-0.6191076,1.19006,-0.3715514,-0.1843922999999999,0.653744,0.2736332,3.900787,-40.92709,32.97
2,-0.1210632,-0.06813049,0.9902954,0.6202623,0.01742554,-0.002319336,0.9998322,-30.4053,4.68222,-40.27597,2.63237,0.4466988,0.5339005,0.6413368,-0.1210632,-0.06813049,0.9902954,37.01366,8.626099,-47.21716,1.958588,0.3560548,0.4649208999999999,-0.6175015,1.188868,-0.3705136,-0.1832021,0.6472378000000001,0.2672813,3.900787,-40.92709,32.97
2,-0.1210632,-0.06813049,0.9902954,0.6202623,0.01742554,-0.002319336,0.9998322,-30.4053,4.68222,-40.27597,2.63237,0.4466988,0.5339005,0.6413368,-0.1210632,-0.06813049,0.9902954,37.01366,8.626099,-47.21716,1.958588,0.3560548,0.4649208999999999,-0.6175015,1.188868,-0.3705136,-0.1832021,0.6472378000000001,0.2672813,3.900787,-40.92709,32.97
2,-0.1210632,-0.06813049,0.9902954,0.6202623,0.01742554,-0.002319336,0.9998322,-30.4053,4.68222,-40.27597,2.63237,0.4466988,0.5339005,0.6413368,-0.1210632,-0.06813049,0.9902954,37.01366,8.626099,-47.21716,1.958588,0.3560548,0.4649208999999999,-0.6175015,1.188868,-0.3705136,-0.1832021,0.6472378000000001,0.2672813,3.900787,-40.92709,32.97
2,-0.1210632,-0.06813049,0.9902954,0.6202623,0.01742554,-0.002319336,0.9998322,-30.4053,4.68222,-40.27597,2.63237,0.4466988,0.5339005,0.6413368,-0.1210632,-0.06813049,0.9902954,37.01366,8.626099,-47.21716,1.958588,0.3560548,0.4649208999999999,-0.6166658,1.188221,-0.3699726,-0.1832445,0.6439275999999999,0.2633625,3.900787,42.12314,32.97
2,-0.1210632,-0.06813049,0.9902954,0.6202623,0.01742554,-0.002319336,0.9998322,-30.4053,4.68222,-40.27597,2.63237,0.4466988,0.5339005,0.6413368,-0.1210632,-0.06813049,0.9902954,37.01366,8.626099,-47.21716,1.958588,0.3560548,0.4649208999999999,-0.6166658,1.188221,-0.3699726,-0.1832445,0.6439275999999999,0.2633625,3.900787,42.12314,32.97
2,-0.1210632,-0.06813049,0.9902954,0.6202623,0.01742554,-0.002319336,0.9998322,-30.4053,4.68222,-40.27597,2.63237,0.4466988,0.5339005,0.6413368,-0.1210632,-0.06813049,0.9902954,37.01366,8.626099,-47.21716,1.958588,0.3560548,0.4649208999999999,-0.6166658,1.188221,-0.3699726,-0.1832445,0.6439275999999999,0.2633625,3.900787,42.12314,32.97
2,-1.0,-1.0,-1.0,0.1260283,0.0,0.0,0.0,-30.44003,5.114044,-42.72141,-1.0,-1.0,-1.0,0.0,0.0,0.0,0.0,37.01366,8.626099,-47.21716,-1.0,-1.0,-1.0,-0.6166658,1.188221,-0.3699726,-0.1832445,0.6439275999999999,0.2633625,3.900787,42.12314,32.97
2,-1.0,-1.0,-1.0,0.1260283,0.0,0.0,0.0,-30.44003,5.114044,-42.72141,-1.0,-1.0,-1.0,0.0,0.0,0.0,0.0,37.01366,8.626099,-47.21716,-1.0,-1.0,-1.0,-0.6166658,1.188221,-0.3699726,-0.1832445,0.6439275999999999,0.2633625,3.900787,42.12314,32.97
2,-1.0,-1.0,-1.0,0.1260283,0.0,0.0,0.0,-30.44003,5.114044,-42.72141,-1.0,-1.0,-1.0,0.0,0.0,0.0,0.0,37.01366,8.626099,-47.21716,-1.0,-1.0,-1.0,-0.6166658,1.188221,-0.3699726,-0.1832445,0.6439275999999999,0.2633625,3.900787,42.12314,32.97
2,-1.0,-1.0,-1.0,0.1376089,0.0,0.0,0.0,-30.00175,4.032181,-40.09888,-1.0,0.4373904,0.5760622,0.0,0.0,0.0,0.0,37.01366,8.626099,-47.21716,-1.0,-1.0,-1.0,-0.6155478,1.187253,-0.3693768,-0.1822658999999999,0.6403499,0.2586617,3.900787,42.12314,32.97
2,-1.0,-1.0,-1.0,0.1376089,0.0,0.0,0.0,-30.00175,4.032181,-40.09888,-1.0,0.4373904,0.5760622,0.0,0.0,0.0,0.0,37.01366,8.626099,-47.21716,-1.0,-1.0,-1.0,-0.6155478,1.187253,-0.3693768,-0.1822658999999999,0.6403499,0.2586617,3.900787,42.12314,32.97
2,-1.0,-1.0,-1.0,0.1376089,0.0,0.0,0.0,-30.00175,4.032181,-40.09888,-1.0,0.4373904,0.5760622,0.0,0.0,0.0,0.0,37.01366,8.626099,-47.21716,-1.0,-1.0,-1.0,-0.6155478,1.187253,-0.3693768,-0.1822658999999999,0.6403499,0.2586617,3.900787,42.12314,32.97
2,-1.0,-1.0,-1.0,0.1864011,0.0,0.0,0.0,-29.96616,5.323822,-45.35371,-1.0,0.4383039999999999,0.5766085,0.0,0.0,0.0,0.0,37.01366,8.626099,-47.21716,-1.0,-1.0,-1.0,-0.6138933000000001,1.185748,-0.3688648,-0.1795421,0.6369545,0.2517072,3.900787,42.12314,32.97
2,-1.0,-1.0,-1.0,0.1864011,0.0,0.0,0.0,-29.96616,5.323822,-45.35371,-1.0,0.4383039999999999,0.5766085,0.0,0.0,0.0,0.0,37.01366,8.626099,-47.21716,-1.0,-1.0,-1.0,-0.6138933000000001,1.185748,-0.3688648,-0.1795421,0.6369545,0.2517072,3.900787,42.12314,32.97
2,-1.0,-1.0,-1.0,0.1864011,0.0,0.0,0.0,-29.96616,5.323822,-45.35371,-1.0,0.4383039999999999,0.5766085,0.0,0.0,0.0,0.0,37.01366,8.626099,-47.21716,-1.0,-1.0,-1.0,-0.6138933000000001,1.185748,-0.3688648,-0.1795421,0.6369545,0.2517072,3.900787,42.12314,32.97
2,-1.0,-1.0,-1.0,0.2356612,0.0,0.0,0.0,-30.16866,3.801163,-40.00076,-1.0,0.4335811,0.5838464,0.1029578999999999,0.0,0.0,0.0,37.01366,8.626099,-47.21716,-1.0,-1.0,-1.0,-0.6115619999999999,1.183899,-0.3681824,-0.1751316,0.6348696,0.2433522,3.900787,42.12314,32.95
2,-1.0,-1.0,-1.0,0.2356612,0.0,0.0,0.0,-30.16866,3.801163,-40.00076,-1.0,0.4335811,0.5838464,0.1029578999999999,0.0,0.0,0.0,37.01366,8.626099,-47.21716,-1.0,-1.0,-1.0,-0.6115619999999999,1.183899,-0.3681824,-0.1751316,0.6348696,0.2433522,3.900787,42.12314,32.95
2,-1.0,-1.0,-1.0,0.2356612,0.0,0.0,0.0,-30.16866,3.801163,-40.00076,-1.0,0.4335811,0.5838464,0.1029578999999999,0.0,0.0,0.0,37.01366,8.626099,-47.21716,-1.0,-1.0,-1.0,-0.6115619999999999,1.183899,-0.3681824,-0.1751316,0.6348696,0.2433522,3.900787,42.12314,32.95
2,0.04486084,-0.1125183,0.99263,0.2761953,0.04486084,-0.1125183,0.99263,-30.22821,3.972885,-40.04982,2.989319,0.4347784,0.5790073,0.1968253999999999,0.0,0.0,0.0,37.09703,8.16333,-47.32805,-1.0,-1.0,-1.0,-0.6085826,1.181247,-0.3674748,-0.1672385,0.6330059,0.2331331,3.900787,38.01245,32.95
2,0.04486084,-0.1125183,0.99263,0.2761953,0.04486084,-0.1125183,0.99263,-30.22821,3.972885,-40.04982,2.989319,0.4347784,0.5790073,0.1968253999999999,0.0,0.0,0.0,37.09703,8.16333,-47.32805,-1.0,-1.0,-1.0,-0.6085826,1.181247,-0.3674748,-0.1672385,0.6330059,0.2331331,3.900787,38.01245,32.95
2,0.04486084,-0.1125183,0.99263,0.2761953,0.04486084,-0.1125183,0.99263,-30.22821,3.972885,-40.04982,2.989319,0.4347784,0.5790073,0.1968253999999999,0.0,0.0,0.0,37.09703,8.16333,-47.32805,-1.0,-1.0,-1.0,-0.6085826,1.181247,-0.3674748,-0.1672385,0.6330059,0.2331331,3.900787,38.01245,32.95
2,0.04486084,-0.1125183,0.99263,0.2811804,0.04486084,-0.1125183,0.99263,-30.22821,3.972885,-40.04982,2.989319,0.4347784,0.5790073,0.237105,0.0,0.0,0.0,37.09703,8.16333,-47.32805,-1.0,-1.0,-1.0,-0.6005684,1.1742,-0.3660852,-0.1432681,0.6316343000000001,0.2073691,3.900787,38.01245,32.95
2,0.04486084,-0.1125183,0.99263,0.2811804,0.04486084,-0.1125183,0.99263,-30.22821,3.972885,-40.04982,2.989319,0.4347784,0.5790073,0.237105,0.0,0.0,0.0,37.09703,8.16333,-47.32805,-1.0,-1.0,-1.0,-0.6005684,1.1742,-0.3660852,-0.1432681,0.6316343000000001,0.2073691,3.900787,38.01245,32.95
2,0.04486084,-0.1125183,0.99263,0.2811804,0.04486084,-0.1125183,0.99263,-30.22821,3.972885,-40.04982,2.989319,0.4347784,0.5790073,0.237105,0.0,0.0,0.0,37.09703,8.16333,-47.32805,-1.0,-1.0,-1.0,-0.6005684,1.1742,-0.3660852,-0.1432681,0.6316343000000001,0.2073691,3.900787,38.01245,32.95
2,-0.01625061,-0.1464996,0.9890747,0.2504241,-0.01625061,-0.1464996,0.9890747,-30.17116,5.585083,-45.28159,2.589371,0.442856,0.5817911,0.1746171,0.0,0.0,0.0,37.09703,8.16333,-47.32805,-1.0,-1.0,-1.0,-0.5953393,1.169614,-0.3653568,-0.1269566,0.632097,0.1915398999999999,3.900787,38.01245,32.95
2,-0.01625061,-0.1464996,0.9890747,0.2504241,-0.01625061,-0.1464996,0.9890747,-30.17116,5.585083,-45.28159,2.589371,0.442856,0.5817911,0.1746171,0.0,0.0,0.0,37.09703,8.16333,-47.32805,-1.0,-1.0,-1.0,-0.5953393,1.169614,-0.3653568,-0.1269566,0.632097,0.1915398999999999,3.900787,38.01245,32.95
2,-0.01625061,-0.1464996,0.9890747,0.2504241,-0.01625061,-0.1464996,0.9890747,-30.17116,5.585083,-45.28159,2.589371,0.442856,0.5817911,0.1746171,0.0,0.0,0.0,37.09703,8.16333,-47.32805,-1.0,-1.0,-1.0,-0.5953393,1.169614,-0.3653568,-0.1269566,0.632097,0.1915398999999999,3.900787,38.01245,32.95
2,-1.0,-1.0,-1.0,0.1967862,0.0,0.0,0.0,-30.16867,4.267471,-42.26335,-1.0,-1.0,-1.0,0.0,0.0,0.0,0.0,37.09703,8.16333,-47.32805,-1.0,-1.0,-1.0,-0.5897031999999999,1.164424,-0.3650508,-0.1079166999999999,0.6338196,0.1733053,3.900787,38.01245,32.95
2,-1.0,-1.0,-1.0,0.1967862,0.0,0.0,0.0,-30.16867,4.267471,-42.26335,-1.0,-1.0,-1.0,0.0,0.0,0.0,0.0,37.09703,8.16333,-47.32805,-1.0,-1.0,-1.0,-0.5897031999999999,1.164424,-0.3650508,-0.1079166999999999,0.6338196,0.1733053,3.900787,38.01245,32.95
2,-1.0,-1.0,-1.0,0.1967862,0.0,0.0,0.0,-30.16867,4.267471,-42.26335,-1.0,-1.0,-1.0,0.0,0.0,0.0,0.0,37.09703,8.16333,-47.32805,-1.0,-1.0,-1.0,-0.5897031999999999,1.164424,-0.3650508,-0.1079166999999999,0.6338196,0.1733053,3.900787,38.01245,32.95
2,-0.1203918,-0.5156708,0.8482818999999999,0.1961734,0.0,0.0,0.0,-30.45219,3.819641,-42.36775,-1.0,0.4518067,0.6477418,0.1470272,-0.1203918,-0.5156708,0.8482818999999999,36.73729,7.351471000000001,-47.64818,2.638306,0.3639619,0.621056,-0.5837895000000001,1.159214,-0.3650619,-0.08913966,0.6368163,0.1543859,3.900787,38.01245,32.95
2,-0.1203918,-0.5156708,0.8482818999999999,0.1961734,0.0,0.0,0.0,-30.45219,3.819641,-42.36775,-1.0,0.4518067,0.6477418,0.1470272,-0.1203918,-0.5156708,0.8482818999999999,36.73729,7.351471000000001,-47.64818,2.638306,0.3639619,0.621056,-0.5837895000000001,1.159214,-0.3650619,-0.08913966,0.6368163,0.1543859,3.900787,38.01245,32.95
2,-0.1203918,-0.5156708,0.8482818999999999,0.1961734,0.0,0.0,0.0,-30.45219,3.819641,-42.36775,-1.0,0.4518067,0.6477418,0.1470272,-0.1203918,-0.5156708,0.8482818999999999,36.73729,7.351471000000001,-47.64818,2.638306,0.3639619,0.621056,-0.5837895000000001,1.159214,-0.3650619,-0.08913966,0.6368163,0.1543859,3.900787,38.01245,32.95
2,-0.04177856,-0.2763367,0.960144,0.1869198,-0.04177856,-0.2763367,0.960144,-30.45914,4.144119,-42.27621,2.977448,0.4588875,0.6301547,0.1728039999999999,0.0,0.0,0.0,36.55396,7.660355,-47.4657,-1.0,-1.0,-1.0,-0.5775313,1.154135,-0.3654902,-0.07214768,0.6409669,0.1359296,3.900787,1.376587,32.95
2,-0.04177856,-0.2763367,0.960144,0.1869198,-0.04177856,-0.2763367,0.960144,-30.45914,4.144119,-42.27621,2.977448,0.4588875,0.6301547,0.1728039999999999,0.0,0.0,0.0,36.55396,7.660355,-47.4657,-1.0,-1.0,-1.0,-0.5775313,1.154135,-0.3654902,-0.07214768,0.6409669,0.1359296,3.900787,1.376587,32.95
2,-0.04177856,-0.2763367,0.960144,0.1869198,-0.04177856,-0.2763367,0.960144,-30.45914,4.144119,-42.27621,2.977448,0.4588875,0.6301547,0.1728039999999999,0.0,0.0,0.0,36.55396,7.660355,-47.4657,-1.0,-1.0,-1.0,-0.5775313,1.154135,-0.3654902,-0.07214768,0.6409669,0.1359296,3.900787,1.376587,32.95
2,-0.005783081,-0.2455597,0.9693604,0.2362791,0.0001831054999999,-0.2415009,0.9703979,-30.53067,4.611801,-42.12268,3.153885,0.4538365,0.6034901999999999,0.2410978,-0.1457672,-0.3369293,0.9301758,36.77899,8.102875,-47.31572,3.07074,0.3682559,0.5456159,-0.5655599,1.142761,-0.3681077,-0.03497389,0.6510614,0.09736837,3.900787,1.376587,32.95
2,-0.005783081,-0.2455597,0.9693604,0.2362791,0.0001831054999999,-0.2415009,0.9703979,-30.53067,4.611801,-42.12268,3.153885,0.4538365,0.6034901999999999,0.2410978,-0.1457672,-0.3369293,0.9301758,36.77899,8.102875,-47.31572,3.07074,0.3682559,0.5456159,-0.5655599,1.142761,-0.3681077,-0.03497389,0.6510614,0.09736837,3.900787,1.376587,32.95
2,-0.005783081,-0.2455597,0.9693604,0.2362791,0.0001831054999999,-0.2415009,0.9703979,-30.53067,4.611801,-42.12268,3.153885,0.4538365,0.6034901999999999,0.2410978,-0.1457672,-0.3369293,0.9301758,36.77899,8.102875,-47.31572,3.07074,0.3682559,0.5456159,-0.5655599,1.142761,-0.3681077,-0.03497389,0.6510614,0.09736837,3.900787,1.376587,32.95
2,-0.2949677,-0.3273773,0.8976593,0.2360787,-0.01092529,-0.1989746,0.9799347,-30.47775,4.608795,-41.05298,3.246857,0.454216,0.5833664000000001,0.2808464,-0.2993164,-0.3291779,0.8955536000000001,36.566390000000006,8.646042,-47.24121,3.3727720000000003,0.4082087,0.5237151,-0.5598387,1.137028,-0.3695742,-0.01754142,0.6555576,0.07831802,3.900787,1.376587,32.95
2,-0.2949677,-0.3273773,0.8976593,0.2360787,-0.01092529,-0.1989746,0.9799347,-30.47775,4.608795,-41.05298,3.246857,0.454216,0.5833664000000001,0.2808464,-0.2993164,-0.3291779,0.8955536000000001,36.566390000000006,8.646042,-47.24121,3.3727720000000003,0.4082087,0.5237151,-0.5598387,1.137028,-0.3695742,-0.01754142,0.6555576,0.07831802,3.900787,1.376587,32.95
2,-0.2949677,-0.3273773,0.8976593,0.2360787,-0.01092529,-0.1989746,0.9799347,-30.47775,4.608795,-41.05298,3.246857,0.454216,0.5833664000000001,0.2808464,-0.2993164,-0.3291779,0.8955536000000001,36.566390000000006,8.646042,-47.24121,3.3727720000000003,0.4082087,0.5237151,-0.5598387,1.137028,-0.3695742,-0.01754142,0.6555576,0.07831802,3.900787,1.376587,32.95
2,-0.4463501,-0.2394103999999999,0.8622284,0.2753647999999999,-0.01586914,-0.1492767,0.9886627,-30.431590000000003,5.100784,-41.38554,3.3909300000000004,0.4535176999999999,0.5588619,0.3355508,-0.4463501,-0.2394103999999999,0.8622284,35.94107,8.208038,-47.59448,4.056061,0.4631385999999999,0.5293666,-0.554763,1.131218,-0.3708752,-0.001791982,0.6586138000000001,0.06089198,3.900787,1.376587,32.95
2,-0.4463501,-0.2394103999999999,0.8622284,0.2753647999999999,-0.01586914,-0.1492767,0.9886627,-30.431590000000003,5.100784,-41.38554,3.3909300000000004,0.4535176999999999,0.5588619,0.3355508,-0.4463501,-0.2394103999999999,0.8622284,35.94107,8.208038,-47.59448,4.056061,0.4631385999999999,0.5293666,-0.554763,1.131218,-0.3708752,-0.001791982,0.6586138000000001,0.06089198,3.900787,1.376587,32.95
2,-0.4463501,-0.2394103999999999,0.8622284,0.2753647999999999,-0.01586914,-0.1492767,0.9886627,-30.431590000000003,5.100784,-41.38554,3.3909300000000004,0.4535176999999999,0.5588619,0.3355508,-0.4463501,-0.2394103999999999,0.8622284,35.94107,8.208038,-47.59448,4.056061,0.4631385999999999,0.5293666,-0.554763,1.131218,-0.3708752,-0.001791982,0.6586138000000001,0.06089198,3.900787,1.376587,32.95
2,-0.01951599,-0.1456451,0.9891357,0.2579508,-0.01951599,-0.1456451,0.9891357,-30.38716,5.182678,-41.52924,3.38533,0.4525295999999999,0.5566124,0.3032034999999999,0.0,0.0,0.0,35.94107,8.208038,-47.59448,-1.0,-1.0,-1.0,-0.550033,1.126104,-0.3719859,0.01143314,0.6609694,0.04527241,3.900787,-127.5591,32.95
2,-0.01951599,-0.1456451,0.9891357,0.2579508,-0.01951599,-0.1456451,0.9891357,-30.38716,5.182678,-41.52924,3.38533,0.4525295999999999,0.5566124,0.3032034999999999,0.0,0.0,0.0,35.94107,8.208038,-47.59448,-1.0,-1.0,-1.0,-0.550033,1.126104,-0.3719859,0.01143314,0.6609694,0.04527241,3.900787,-127.5591,32.95
2,-0.01951599,-0.1456451,0.9891357,0.2579508,-0.01951599,-0.1456451,0.9891357,-30.38716,5.182678,-41.52924,3.38533,0.4525295999999999,0.5566124,0.3032034999999999,0.0,0.0,0.0,35.94107,8.208038,-47.59448,-1.0,-1.0,-1.0,-0.550033,1.126104,-0.3719859,0.01143314,0.6609694,0.04527241,3.900787,-127.5591,32.95
2,-0.1022491,-0.3631287,0.9261017,0.225138,-0.03704834,-0.310379,0.9498749,-30.40446,4.547791,-41.79485,3.035095,0.4560295,0.6165081,0.3025438,-0.1029053,-0.3636475,0.925827,36.47507,8.021957,-47.36073,3.112869,0.3716672,0.5550478,-0.5454654999999999,1.120909,-0.3730406,0.02489037,0.6624318,0.02913673,3.900787,-127.5591,32.95
2,-0.1022491,-0.3631287,0.9261017,0.225138,-0.03704834,-0.310379,0.9498749,-30.40446,4.547791,-41.79485,3.035095,0.4560295,0.6165081,0.3025438,-0.1029053,-0.3636475,0.925827,36.47507,8.021957,-47.36073,3.112869,0.3716672,0.5550478,-0.5454654999999999,1.120909,-0.3730406,0.02489037,0.6624318,0.02913673,3.900787,-127.5591,32.95
2,-0.1022491,-0.3631287,0.9261017,0.225138,-0.03704834,-0.310379,0.9498749,-30.40446,4.547791,-41.79485,3.035095,0.4560295,0.6165081,0.3025438,-0.1029053,-0.3636475,0.925827,36.47507,8.021957,-47.36073,3.112869,0.3716672,0.5550478,-0.5454654999999999,1.120909,-0.3730406,0.02489037,0.6624318,0.02913673,3.900787,-127.5591,32.95
2,-0.07601929,-0.3246155,0.9427795,0.2109259,-0.04943848,-0.2934723,0.9546814,-30.42242,4.627655,-41.77136,3.077911,0.4590913,0.609769,0.2969386,-0.178894,-0.4409636999999999,0.8795013,36.40862,8.418839,-47.261,2.620911,0.3900122,0.5568395,-0.541593,1.1151870000000002,-0.3740184,0.04026124,0.662783,0.01181673,3.900787,-127.5591,32.95
2,-0.07601929,-0.3246155,0.9427795,0.2109259,-0.04943848,-0.2934723,0.9546814,-30.42242,4.627655,-41.77136,3.077911,0.4590913,0.609769,0.2969386,-0.178894,-0.4409636999999999,0.8795013,36.40862,8.418839,-47.261,2.620911,0.3900122,0.5568395,-0.541593,1.1151870000000002,-0.3740184,0.04026124,0.662783,0.01181673,3.900787,-127.5591,32.95
2,-0.07601929,-0.3246155,0.9427795,0.2109259,-0.04943848,-0.2934723,0.9546814,-30.42242,4.627655,-41.77136,3.077911,0.4590913,0.609769,0.2969386,-0.178894,-0.4409636999999999,0.8795013,36.40862,8.418839,-47.261,2.620911,0.3900122,0.5568395,-0.541593,1.1151870000000002,-0.3740184,0.04026124,0.662783,0.01181673,3.900787,-127.5591,32.95
3,-0.06053162,-0.2899474999999999,0.9551239,0.2227401,-0.03186035,-0.2649535999999999,0.9637299,-30.442490000000003,4.782166,-41.72015,3.224976,0.4566189,0.597474,0.311368,-0.1640015,-0.3770905,0.9115295,36.44458,8.533828999999999,-47.1998,2.656845,0.3859807,0.5365691,-0.5380033000000001,1.110152,-0.3747457,0.05274476,0.6614744,-0.003500886,3.900787,-127.5591,32.95
3,-0.06053162,-0.2899474999999999,0.9551239,0.2227401,-0.03186035,-0.2649535999999999,0.9637299,-30.442490000000003,4.782166,-41.72015,3.224976,0.4566189,0.597474,0.311368,-0.1640015,-0.3770905,0.9115295,36.44458,8.533828999999999,-47.1998,2.656845,0.3859807,0.5365691,-0.5380033000000001,1.110152,-0.3747457,0.05274476,0.6614744,-0.003500886,3.900787,-127.5591,32.95
3,-0.06053162,-0.2899474999999999,0.9551239,0.2227401,-0.03186035,-0.2649535999999999,0.9637299,-30.442490000000003,4.782166,-41.72015,3.224976,0.4566189,0.597474,0.311368,-0.1640015,-0.3770905,0.9115295,36.44458,8.533828999999999,-47.1998,2.656845,0.3859807,0.5365691,-0.5380033000000001,1.110152,-0.3747457,0.05274476,0.6614744,-0.003500886,3.900787,-127.5591,32.95
3,-0.0692748999999999,-0.2446442,0.9671173,0.221455,-0.04742432,-0.2424316,0.9689941,-30.44641,4.864731,-41.70081,3.186356,0.4597609,0.5896313,0.3475899,-0.3833922999999999,-0.2631531,0.8852844000000001,36.40659,8.667603,-47.3231,3.2882839999999995,0.4323596999999999,0.5112014,-0.5348314000000001,1.105179,-0.3752732,0.06511908,0.6593223000000001,-0.01852706,3.900787,-127.5591,32.95
3,-0.0692748999999999,-0.2446442,0.9671173,0.221455,-0.04742432,-0.2424316,0.9689941,-30.44641,4.864731,-41.70081,3.186356,0.4597609,0.5896313,0.3475899,-0.3833922999999999,-0.2631531,0.8852844000000001,36.40659,8.667603,-47.3231,3.2882839999999995,0.4323596999999999,0.5112014,-0.5348314000000001,1.105179,-0.3752732,0.06511908,0.6593223000000001,-0.01852706,3.900787,-127.5591,32.95
3,-0.0692748999999999,-0.2446442,0.9671173,0.221455,-0.04742432,-0.2424316,0.9689941,-30.44641,4.864731,-41.70081,3.186356,0.4597609,0.5896313,0.3475899,-0.3833922999999999,-0.2631531,0.8852844000000001,36.40659,8.667603,-47.3231,3.2882839999999995,0.4323596999999999,0.5112014,-0.5348314000000001,1.105179,-0.3752732,0.06511908,0.6593223000000001,-0.01852706,3.900787,-127.5591,32.95
3,-0.0692748999999999,-0.2446442,0.9671173,0.221455,-0.04742432,-0.2424316,0.9689941,-30.44641,4.864731,-41.70081,3.186356,0.4597609,0.5896313,0.3475899,-0.3833922999999999,-0.2631531,0.8852844000000001,36.40659,8.667603,-47.3231,3.2882839999999995,0.4323596999999999,0.5112014,-0.5320292,1.100211,-0.3758117,0.07626291,0.6569862,-0.03337473,3.900787,5.745392,32.95
3,-0.0692748999999999,-0.2446442,0.9671173,0.221455,-0.04742432,-0.2424316,0.9689941,-30.44641,4.864731,-41.70081,3.186356,0.4597609,0.5896313,0.3475899,-0.3833922999999999,-0.2631531,0.8852844000000001,36.40659,8.667603,-47.3231,3.2882839999999995,0.4323596999999999,0.5112014,-0.5320292,1.100211,-0.3758117,0.07626291,0.6569862,-0.03337473,3.900787,5.745392,32.95
3,-0.0692748999999999,-0.2446442,0.9671173,0.221455,-0.04742432,-0.2424316,0.9689941,-30.44641,4.864731,-41.70081,3.186356,0.4597609,0.5896313,0.3475899,-0.3833922999999999,-0.2631531,0.8852844000000001,36.40659,8.667603,-47.3231,3.2882839999999995,0.4323596999999999,0.5112014,-0.5320292,1.100211,-0.3758117,0.07626291,0.6569862,-0.03337473,3.900787,5.745392,32.95
3,-0.04051208,-0.2018127,0.9785767,0.2793017,-0.03668213,-0.2015686,0.978775,-30.52312,5.219284,-41.59071,3.3139190000000003,0.4607585,0.566973,0.3977446,-0.3782501,-0.2110596,0.9013062,35.94107,8.246383999999999,-47.47998,4.074722,0.4492154,0.5185377999999999,-0.5294592,1.0956549999999998,-0.376138,0.08667491,0.6547061,-0.04614129,3.900787,5.745392,32.95
3,-0.04051208,-0.2018127,0.9785767,0.2793017,-0.03668213,-0.2015686,0.978775,-30.52312,5.219284,-41.59071,3.3139190000000003,0.4607585,0.566973,0.3977446,-0.3782501,-0.2110596,0.9013062,35.94107,8.246383999999999,-47.47998,4.074722,0.4492154,0.5185377999999999,-0.5294592,1.0956549999999998,-0.376138,0.08667491,0.6547061,-0.04614129,3.900787,5.745392,32.95
3,-0.04051208,-0.2018127,0.9785767,0.2793017,-0.03668213,-0.2015686,0.978775,-30.52312,5.219284,-41.59071,3.3139190000000003,0.4607585,0.566973,0.3977446,-0.3782501,-0.2110596,0.9013062,35.94107,8.246383999999999,-47.47998,4.074722,0.4492154,0.5185377999999999,-0.5294592,1.0956549999999998,-0.376138,0.08667491,0.6547061,-0.04614129,3.900787,5.745392,32.95
3,-0.04397583,-0.1739502,0.9837646,0.258231,-0.04397583,-0.1739502,0.9837646,-30.58846,5.191177,-40.91319,3.399277,0.4646632,0.5554716,0.3613783,0.0,0.0,0.0,35.914120000000004,8.297089,-47.47794,-1.0,-1.0,-1.0,-0.5273236,1.091238,-0.3765954,0.09706127,0.6521749,-0.05889722,3.900787,5.745392,32.95
3,-0.04397583,-0.1739502,0.9837646,0.258231,-0.04397583,-0.1739502,0.9837646,-30.58846,5.191177,-40.91319,3.399277,0.4646632,0.5554716,0.3613783,0.0,0.0,0.0,35.914120000000004,8.297089,-47.47794,-1.0,-1.0,-1.0,-0.5273236,1.091238,-0.3765954,0.09706127,0.6521749,-0.05889722,3.900787,5.745392,32.95
3,-0.04397583,-0.1739502,0.9837646,0.258231,-0.04397583,-0.1739502,0.9837646,-30.58846,5.191177,-40.91319,3.399277,0.4646632,0.5554716,0.3613783,0.0,0.0,0.0,35.914120000000004,8.297089,-47.47794,-1.0,-1.0,-1.0,-0.5273236,1.091238,-0.3765954,0.09706127,0.6521749,-0.05889722,3.900787,5.745392,32.95
3,-0.01889038,-0.2059479,0.978363,0.2631697,-0.01737976,-0.2053222999999999,0.9785309,-30.13255,4.895874,-41.63406,3.395981,0.4423729999999999,0.5801715999999999,0.3429889,-0.1846770999999999,-0.2722015,0.9443511999999998,36.73193,7.863022,-47.36343,2.664764,0.3786403,0.5419598000000001,-0.5253609,1.0868790000000002,-0.3767738,0.1075351,0.6494340999999999,-0.0706065,3.900787,5.745392,32.95
3,-0.01889038,-0.2059479,0.978363,0.2631697,-0.01737976,-0.2053222999999999,0.9785309,-30.13255,4.895874,-41.63406,3.395981,0.4423729999999999,0.5801715999999999,0.3429889,-0.1846770999999999,-0.2722015,0.9443511999999998,36.73193,7.863022,-47.36343,2.664764,0.3786403,0.5419598000000001,-0.5253609,1.0868790000000002,-0.3767738,0.1075351,0.6494340999999999,-0.0706065,3.900787,5.745392,32.95
3,-0.01889038,-0.2059479,0.978363,0.2631697,-0.01737976,-0.2053222999999999,0.9785309,-30.13255,4.895874,-41.63406,3.395981,0.4423729999999999,0.5801715999999999,0.3429889,-0.1846770999999999,-0.2722015,0.9443511999999998,36.73193,7.863022,-47.36343,2.664764,0.3786403,0.5419598000000001,-0.5253609,1.0868790000000002,-0.3767738,0.1075351,0.6494340999999999,-0.0706065,3.900787,5.745392,32.95
3,-0.01806641,-0.2541199,0.9669952,0.2631697,-0.005187988,-0.2533112,0.9673615,-30.0542,4.824326,-41.65024,3.278809,0.4370369,0.5926212,0.3429889,-0.3639679,-0.2593384,0.8945770000000001,36.77032,8.583206,-47.28244,3.364014,0.4135388,0.5126696,-0.5238379,1.082553,-0.37667,0.1175174,0.6461859000000001,-0.08190991,3.900787,5.745392,32.95
3,-0.01806641,-0.2541199,0.9669952,0.2631697,-0.005187988,-0.2533112,0.9673615,-30.0542,4.824326,-41.65024,3.278809,0.4370369,0.5926212,0.3429889,-0.3639679,-0.2593384,0.8945770000000001,36.77032,8.583206,-47.28244,3.364014,0.4135388,0.5126696,-0.5238379,1.082553,-0.37667,0.1175174,0.6461859000000001,-0.08190991,3.900787,5.745392,32.95
3,-0.01806641,-0.2541199,0.9669952,0.2631697,-0.005187988,-0.2533112,0.9673615,-30.0542,4.824326,-41.65024,3.278809,0.4370369,0.5926212,0.3429889,-0.3639679,-0.2593384,0.8945770000000001,36.77032,8.583206,-47.28244,3.364014,0.4135388,0.5126696,-0.5238379,1.082553,-0.37667,0.1175174,0.6461859000000001,-0.08190991,3.900787,5.745392,32.95
3,-0.01806641,-0.2541199,0.9669952,0.2631697,-0.005187988,-0.2533112,0.9673615,-30.0542,4.824326,-41.65024,3.278809,0.4370369,0.5926212,0.3429889,-0.3639679,-0.2593384,0.8945770000000001,36.77032,8.583206,-47.28244,3.364014,0.4135388,0.5126696,-0.5223614999999999,1.078867,-0.3761822,0.1263292,0.6421698,-0.09054615,3.900787,8.591095,32.95
3,-0.01806641,-0.2541199,0.9669952,0.2631697,-0.005187988,-0.2533112,0.9673615,-30.0542,4.824326,-41.65024,3.278809,0.4370369,0.5926212,0.3429889,-0.3639679,-0.2593384,0.8945770000000001,36.77032,8.583206,-47.28244,3.364014,0.4135388,0.5126696,-0.5223614999999999,1.078867,-0.3761822,0.1263292,0.6421698,-0.09054615,3.900787,3.344879,32.95
3,-0.01806641,-0.2541199,0.9669952,0.2631697,-0.005187988,-0.2533112,0.9673615,-30.0542,4.824326,-41.65024,3.278809,0.4370369,0.5926212,0.3429889,-0.3639679,-0.2593384,0.8945770000000001,36.77032,8.583206,-47.28244,3.364014,0.4135388,0.5126696,-0.5223614999999999,1.078867,-0.3761822,0.1263292,0.6421698,-0.09054615,3.900787,3.344879,32.95
3,-0.01293945,-0.2039795,0.9788818,0.3128868,-0.01293945,-0.2039795,0.9788818,-30.16866,5.112015,-41.57104,3.543701,0.4429621,0.5711881999999999,0.3904855,0.0,0.0,0.0,36.79201,7.725006,-47.40012,-1.0,-1.0,-1.0,-0.5211974,1.075211,-0.3752942999999999,0.1353382,0.6372566999999999,-0.09766693,3.900787,3.492645,32.95
3,-0.01293945,-0.2039795,0.9788818,0.3128868,-0.01293945,-0.2039795,0.9788818,-30.16866,5.112015,-41.57104,3.543701,0.4429621,0.5711881999999999,0.3904855,0.0,0.0,0.0,36.79201,7.725006,-47.40012,-1.0,-1.0,-1.0,-0.5211974,1.075211,-0.3752942999999999,0.1353382,0.6372566999999999,-0.09766693,3.900787,3.492645,32.95
3,-0.01293945,-0.2039795,0.9788818,0.3128868,-0.01293945,-0.2039795,0.9788818,-30.16866,5.112015,-41.57104,3.543701,0.4429621,0.5711881999999999,0.3904855,0.0,0.0,0.0,36.79201,7.725006,-47.40012,-1.0,-1.0,-1.0,-0.5211974,1.075211,-0.3752942999999999,0.1353382,0.6372566999999999,-0.09766693,3.900787,3.492645,32.95
3,-0.03421021,-0.1673584,0.9852905,0.3705716,-0.03070068,-0.1652985,0.9857635,-30.24232,5.25795,-41.52798,3.524124,0.4491565999999999,0.5576979999999999,0.3947776,-0.2314757999999999,-0.2792511,0.9318848,36.84206,8.988937,-47.07962,2.883331,0.384268,0.4959393,-0.5204446,1.072707,-0.3741489999999999,0.1418428,0.6324533,-0.1020926,3.900787,3.492645,32.95
3,-0.03421021,-0.1673584,0.9852905,0.3705716,-0.03070068,-0.1652985,0.9857635,-30.24232,5.25795,-41.52798,3.524124,0.4491565999999999,0.5576979999999999,0.3947776,-0.2314757999999999,-0.2792511,0.9318848,36.84206,8.988937,-47.07962,2.883331,0.384268,0.4959393,-0.5204446,1.072707,-0.3741489999999999,0.1418428,0.6324533,-0.1020926,3.900787,3.492645,32.95
3,-0.03421021,-0.1673584,0.9852905,0.3705716,-0.03070068,-0.1652985,0.9857635,-30.24232,5.25795,-41.52798,3.524124,0.4491565999999999,0.5576979999999999,0.3947776,-0.2314757999999999,-0.2792511,0.9318848,36.84206,8.988937,-47.07962,2.883331,0.384268,0.4959393,-0.5204446,1.072707,-0.3741489999999999,0.1418428,0.6324533,-0.1020926,3.900787,3.492645,32.95
3,-0.1675873,-0.1540832999999999,0.9737244,0.4154577999999999,-0.04747009,-0.140274,0.9889679,-30.25676,5.140656,-40.82819,3.515015,0.4529956,0.549868,0.4423259,-0.1690216,-0.1542358,0.973465,36.91878,8.380005,-47.23732,3.010284,0.3685097,0.49413,-0.5199094,1.071706,-0.3728515,0.1451280999999999,0.6282793999999999,-0.1024841999999999,3.900787,3.492645,32.95
3,-0.1675873,-0.1540832999999999,0.9737244,0.4154577999999999,-0.04747009,-0.140274,0.9889679,-30.25676,5.140656,-40.82819,3.515015,0.4529956,0.549868,0.4423259,-0.1690216,-0.1542358,0.973465,36.91878,8.380005,-47.23732,3.010284,0.3685097,0.49413,-0.5199094,1.071706,-0.3728515,0.1451280999999999,0.6282793999999999,-0.1024841999999999,3.900787,3.492645,32.95
3,-0.1675873,-0.1540832999999999,0.9737244,0.4154577999999999,-0.04747009,-0.140274,0.9889679,-30.25676,5.140656,-40.82819,3.515015,0.4529956,0.549868,0.4423259,-0.1690216,-0.1542358,0.973465,36.91878,8.380005,-47.23732,3.010284,0.3685097,0.49413,-0.5199094,1.071706,-0.3728515,0.1451280999999999,0.6282793999999999,-0.1024841999999999,3.900787,3.492645,32.95
3,-0.1140747,-0.2976074,0.9478302,0.4478478,-0.04238892,-0.1590729,0.9863434,-30.27565,5.248978,-41.10477,3.418686,0.4527079,0.5523509,0.4808136999999999,-0.1151123,-0.2995910999999999,0.9470825,36.77225,9.123322,-46.98918,2.415253,0.3637672999999999,0.4927452999999999,-0.5194389,1.072733,-0.3714422,0.1440596,0.6252408,-0.09808768,3.909755,3.492645,32.95
3,-0.1140747,-0.2976074,0.9478302,0.4478478,-0.04238892,-0.1590729,0.9863434,-30.27565,5.248978,-41.10477,3.418686,0.4527079,0.5523509,0.4808136999999999,-0.1151123,-0.2995910999999999,0.9470825,36.77225,9.123322,-46.98918,2.415253,0.3637672999999999,0.4927452999999999,-0.5194389,1.072733,-0.3714422,0.1440596,0.6252408,-0.09808768,3.909755,3.492645,32.95
3,-0.1140747,-0.2976074,0.9478302,0.4478478,-0.04238892,-0.1590729,0.9863434,-30.27565,5.248978,-41.10477,3.418686,0.4527079,0.5523509,0.4808136999999999,-0.1151123,-0.2995910999999999,0.9470825,36.77225,9.123322,-46.98918,2.415253,0.3637672999999999,0.4927452999999999,-0.5194389,1.072733,-0.3714422,0.1440596,0.6252408,-0.09808768,3.909755,3.492645,32.95
3,-0.05541992,-0.1423645,0.9882507,0.4478478,-0.05541992,-0.1423645,0.9882507,-30.273390000000003,4.947342,-39.90623,3.565491,0.4552090999999999,0.5478859,0.4808136999999999,0.0,0.0,0.0,36.77225,9.123322,-46.98918,-1.0,-1.0,-1.0,-0.5195148,1.075636,-0.3701056,0.1382377,0.6233804000000001,-0.09047591,3.909755,-40.62387,32.95
3,-0.05541992,-0.1423645,0.9882507,0.4478478,-0.05541992,-0.1423645,0.9882507,-30.273390000000003,4.947342,-39.90623,3.565491,0.4552090999999999,0.5478859,0.4808136999999999,0.0,0.0,0.0,36.77225,9.123322,-46.98918,-1.0,-1.0,-1.0,-0.5195148,1.075636,-0.3701056,0.1382377,0.6233804000000001,-0.09047591,3.909755,-40.62387,32.95
3,-0.05541992,-0.1423645,0.9882507,0.4478478,-0.05541992,-0.1423645,0.9882507,-30.273390000000003,4.947342,-39.90623,3.565491,0.4552090999999999,0.5478859,0.4808136999999999,0.0,0.0,0.0,36.77225,9.123322,-46.98918,-1.0,-1.0,-1.0,-0.5195148,1.075636,-0.3701056,0.1382377,0.6233804000000001,-0.09047591,3.909755,-40.62387,32.95
3,-0.2172241,-0.1629181,0.9624176,0.5291581999999999,-0.04818726,-0.1648865,0.9851227,-30.54227,5.992188,-42.42752,3.347275,0.4637366,0.5397071,0.5705591,-0.2172241,-0.1629181,0.9624176,36.9039,8.50499,-47.207640000000005,2.430939,0.3797952,0.4909689999999999,-0.5198902,1.0796,-0.3690333,0.1302276,0.6228427,-0.08254163,3.909755,-40.62387,32.95
3,-0.2172241,-0.1629181,0.9624176,0.5291581999999999,-0.04818726,-0.1648865,0.9851227,-30.54227,5.992188,-42.42752,3.347275,0.4637366,0.5397071,0.5705591,-0.2172241,-0.1629181,0.9624176,36.9039,8.50499,-47.207640000000005,2.430939,0.3797952,0.4909689999999999,-0.5198902,1.0796,-0.3690333,0.1302276,0.6228427,-0.08254163,3.909755,-40.62387,32.95
3,-0.2172241,-0.1629181,0.9624176,0.5291581999999999,-0.04818726,-0.1648865,0.9851227,-30.54227,5.992188,-42.42752,3.347275,0.4637366,0.5397071,0.5705591,-0.2172241,-0.1629181,0.9624176,36.9039,8.50499,-47.207640000000005,2.430939,0.3797952,0.4909689999999999,-0.5198902,1.0796,-0.3690333,0.1302276,0.6228427,-0.08254163,3.909755,-40.62387,32.95
3,-1.0,-1.0,-1.0,0.4788743,0.0,0.0,0.0,-30.72113,6.606339,-42.39821,-1.0,0.4775906,0.4847204,0.5430362,0.0,0.0,0.0,36.67641,8.826202,-47.20074,-1.0,-1.0,-1.0,-0.5205795999999999,1.083926,-0.3681413,0.1208355,0.6230088,-0.07280517,3.909755,-40.62387,32.95
3,-1.0,-1.0,-1.0,0.4788743,0.0,0.0,0.0,-30.72113,6.606339,-42.39821,-1.0,0.4775906,0.4847204,0.5430362,0.0,0.0,0.0,36.67641,8.826202,-47.20074,-1.0,-1.0,-1.0,-0.5205795999999999,1.083926,-0.3681413,0.1208355,0.6230088,-0.07280517,3.909755,-40.62387,32.95
3,-1.0,-1.0,-1.0,0.4788743,0.0,0.0,0.0,-30.72113,6.606339,-42.39821,-1.0,0.4775906,0.4847204,0.5430362,0.0,0.0,0.0,36.67641,8.826202,-47.20074,-1.0,-1.0,-1.0,-0.5205795999999999,1.083926,-0.3681413,0.1208355,0.6230088,-0.07280517,3.909755,-40.62387,32.95
3,-0.08267212,0.004638672,0.9965515,0.6024491999999999,-0.08267212,0.004638672,0.9965515,-30.80917,6.195999,-41.79362,3.456345,0.4805345,0.4931425,0.6823049,0.0,0.0,0.0,36.67641,8.826202,-47.20074,-1.0,-1.0,-1.0,-0.521753,1.088272,-0.3675075999999999,0.1109923,0.6241270000000001,-0.06143388,3.909755,-40.62387,32.95
3,-0.08267212,0.004638672,0.9965515,0.6024491999999999,-0.08267212,0.004638672,0.9965515,-30.80917,6.195999,-41.79362,3.456345,0.4805345,0.4931425,0.6823049,0.0,0.0,0.0,36.67641,8.826202,-47.20074,-1.0,-1.0,-1.0,-0.521753,1.088272,-0.3675075999999999,0.1109923,0.6241270000000001,-0.06143388,3.909755,-40.62387,32.95
3,-0.08267212,0.004638672,0.9965515,0.6024491999999999,-0.08267212,0.004638672,0.9965515,-30.80917,6.195999,-41.79362,3.456345,0.4805345,0.4931425,0.6823049,0.0,0.0,0.0,36.67641,8.826202,-47.20074,-1.0,-1.0,-1.0,-0.521753,1.088272,-0.3675075999999999,0.1109923,0.6241270000000001,-0.06143388,3.909755,-40.62387,32.95
3,-0.297699,-0.1369019,0.9447784,0.6067047,-0.09735107,0.007003784,0.995224,-30.8179,6.137207,-42.30768,3.4269870000000004,0.4836662,0.5000815,0.7046472,-0.297699,-0.1369019,0.9447784,36.65854,8.709946,-47.24861,2.6865080000000003,0.4060008,0.4793752,-0.523626,1.092455,-0.3669493,0.1021365,0.6251257,-0.05069281,3.909755,-40.62387,32.95
3,-0.297699,-0.1369019,0.9447784,0.6067047,-0.09735107,0.007003784,0.995224,-30.8179,6.137207,-42.30768,3.4269870000000004,0.4836662,0.5000815,0.7046472,-0.297699,-0.1369019,0.9447784,36.65854,8.709946,-47.24861,2.6865080000000003,0.4060008,0.4793752,-0.523626,1.092455,-0.3669493,0.1021365,0.6251257,-0.05069281,3.909755,-40.62387,32.95
3,-0.297699,-0.1369019,0.9447784,0.6067047,-0.09735107,0.007003784,0.995224,-30.8179,6.137207,-42.30768,3.4269870000000004,0.4836662,0.5000815,0.7046472,-0.297699,-0.1369019,0.9447784,36.65854,8.709946,-47.24861,2.6865080000000003,0.4060008,0.4793752,-0.523626,1.092455,-0.3669493,0.1021365,0.6251257,-0.05069281,3.909755,-40.62387,32.95
3,-0.2069855,-0.2261658,0.951828,0.6194459,-0.0962677,-0.03160095,0.9948425,-30.85112,6.0168610000000005,-42.00577,3.470032,0.4845805,0.5089210999999999,0.7182717,-0.2070007,-0.2261962999999999,0.9518127,36.43025,9.447784,-46.99931,2.589523,0.3966757999999999,0.4650912999999999,-0.5257568,1.096563,-0.3666097,0.09337424,0.6261234999999999,-0.0402863,3.909755,-40.62387,32.95
3,-0.2069855,-0.2261658,0.951828,0.6194459,-0.0962677,-0.03160095,0.9948425,-30.85112,6.0168610000000005,-42.00577,3.470032,0.4845805,0.5089210999999999,0.7182717,-0.2070007,-0.2261962999999999,0.9518127,36.43025,9.447784,-46.99931,2.589523,0.3966757999999999,0.4650912999999999,-0.5257568,1.096563,-0.3666097,0.09337424,0.6261234999999999,-0.0402863,3.909755,-40.62387,32.95
3,-0.2069855,-0.2261658,0.951828,0.6194459,-0.0962677,-0.03160095,0.9948425,-30.85112,6.0168610000000005,-42.00577,3.470032,0.4845805,0.5089210999999999,0.7182717,-0.2070007,-0.2261962999999999,0.9518127,36.43025,9.447784,-46.99931,2.589523,0.3966757999999999,0.4650912999999999,-0.5257568,1.096563,-0.3666097,0.09337424,0.6261234999999999,-0.0402863,3.909755,-40.62387,32.95
3,-0.1884612999999999,-0.219986,0.9571228,0.6304344,-0.09387207,-0.04255676,0.9946594,-30.8642,5.9677430000000005,-41.918,3.423706,0.4845983,0.5119117,0.7095667,-0.1884612999999999,-0.219986,0.9571075,36.43037,9.432541,-47.00562,2.497742,0.392977,0.4641818,-0.5281043000000001,1.100815,-0.3663586,0.08419281,0.6273314,-0.02897351,3.909755,-73.74036,32.95
3,-0.1884612999999999,-0.219986,0.9571228,0.6304344,-0.09387207,-0.04255676,0.9946594,-30.8642,5.9677430000000005,-41.918,3.423706,0.4845983,0.5119117,0.7095667,-0.1884612999999999,-0.219986,0.9571075,36.43037,9.432541,-47.00562,2.497742,0.392977,0.4641818,-0.5281043000000001,1.100815,-0.3663586,0.08419281,0.6273314,-0.02897351,3.909755,-73.74036,32.95
3,-0.1884612999999999,-0.219986,0.9571228,0.6304344,-0.09387207,-0.04255676,0.9946594,-30.8642,5.9677430000000005,-41.918,3.423706,0.4845983,0.5119117,0.7095667,-0.1884612999999999,-0.219986,0.9571075,36.43037,9.432541,-47.00562,2.497742,0.392977,0.4641818,-0.5281043000000001,1.100815,-0.3663586,0.08419281,0.6273314,-0.02897351,3.909755,-73.74036,32.95
3,-0.180542,-0.1999664,0.9630127,0.6311100000000001,-0.09031677,-0.03953552,0.9951171999999998,-30.86705,5.994293,-42.18568,3.505203,0.4840417999999999,0.5131066,0.7224863,-0.180542,-0.1999664,0.9630127,36.43326,9.427063,-47.00636,2.539825,0.3912877999999999,0.4599789000000001,-0.5309520999999999,1.105055,-0.3660809,0.07425162,0.6284685999999999,-0.0174285,3.909755,-73.74036,32.95
3,-0.180542,-0.1999664,0.9630127,0.6311100000000001,-0.09031677,-0.03953552,0.9951171999999998,-30.86705,5.994293,-42.18568,3.505203,0.4840417999999999,0.5131066,0.7224863,-0.180542,-0.1999664,0.9630127,36.43326,9.427063,-47.00636,2.539825,0.3912877999999999,0.4599789000000001,-0.5309520999999999,1.105055,-0.3660809,0.07425162,0.6284685999999999,-0.0174285,3.909755,-73.74036,32.95
3,-0.180542,-0.1999664,0.9630127,0.6311100000000001,-0.09031677,-0.03953552,0.9951171999999998,-30.86705,5.994293,-42.18568,3.505203,0.4840417999999999,0.5131066,0.7224863,-0.180542,-0.1999664,0.9630127,36.43326,9.427063,-47.00636,2.539825,0.3912877999999999,0.4599789000000001,-0.5309520999999999,1.105055,-0.3660809,0.07425162,0.6284685999999999,-0.0174285,3.909755,-73.74036,32.95
3,-0.1827697999999999,-0.2491302,0.9510498,0.6172253000000001,-0.08433533,-0.04873657,0.9952393,-30.89099,6.122986,-42.98868,3.313156,0.4839299,0.51812,0.7095137,-0.1827697999999999,-0.2491302,0.9510498,36.45334,9.330048,-46.99765,2.3609310000000003,0.3908489,0.4744388,-0.5340536,1.109537,-0.3658566,0.06419552,0.6292747,-0.005244764,3.909755,-73.74036,32.95
3,-0.1827697999999999,-0.2491302,0.9510498,0.6172253000000001,-0.08433533,-0.04873657,0.9952393,-30.89099,6.122986,-42.98868,3.313156,0.4839299,0.51812,0.7095137,-0.1827697999999999,-0.2491302,0.9510498,36.45334,9.330048,-46.99765,2.3609310000000003,0.3908489,0.4744388,-0.5340536,1.109537,-0.3658566,0.06419552,0.6292747,-0.005244764,3.909755,-73.74036,32.95
3,-0.1827697999999999,-0.2491302,0.9510498,0.6172253000000001,-0.08433533,-0.04873657,0.9952393,-30.89099,6.122986,-42.98868,3.313156,0.4839299,0.51812,0.7095137,-0.1827697999999999,-0.2491302,0.9510498,36.45334,9.330048,-46.99765,2.3609310000000003,0.3908489,0.4744388,-0.5340536,1.109537,-0.3658566,0.06419552,0.6292747,-0.005244764,3.909755,-73.74036,32.95
3,-0.1790923999999999,-0.1946259,0.964386,0.6422681,-0.07250977,-0.07449341,0.9945679,-30.90884,6.002808,-42.82904,3.249817,0.4823047,0.5258957,0.7238609,-0.1790923999999999,-0.1946259,0.964386,36.45459,9.240738,-47.02382,2.969696,0.389717,0.4664294,-0.5373521,1.113656,-0.3656313,0.05478489,0.6295349,0.0066013969999999,3.909755,-73.74036,32.95
3,-0.1790923999999999,-0.1946259,0.964386,0.6422681,-0.07250977,-0.07449341,0.9945679,-30.90884,6.002808,-42.82904,3.249817,0.4823047,0.5258957,0.7238609,-0.1790923999999999,-0.1946259,0.964386,36.45459,9.240738,-47.02382,2.969696,0.389717,0.4664294,-0.5373521,1.113656,-0.3656313,0.05478489,0.6295349,0.0066013969999999,3.909755,-73.74036,32.95
3,-0.1790923999999999,-0.1946259,0.964386,0.6422681,-0.07250977,-0.07449341,0.9945679,-30.90884,6.002808,-42.82904,3.249817,0.4823047,0.5258957,0.7238609,-0.1790923999999999,-0.1946259,0.964386,36.45459,9.240738,-47.02382,2.969696,0.389717,0.4664294,-0.5373521,1.113656,-0.3656313,0.05478489,0.6295349,0.0066013969999999,3.909755,-73.74036,32.95
3,-0.1703644,-0.1850128,0.9678497,0.6401004,-0.07556152,-0.1020659999999999,0.9918976,-30.90331,5.829834,-42.73767,3.265121,0.4825967,0.5368364000000001,0.7040545,-0.1729279,-0.1872559,0.9669647,36.45949,9.182465,-47.025940000000006,2.5015110000000003,0.388667,0.4670997,-0.5449363,1.121736,-0.3653234,0.03516319,0.629182,0.02828958,3.909755,64.74252,32.95
3,-0.1703644,-0.1850128,0.9678497,0.6401004,-0.07556152,-0.1020659999999999,0.9918976,-30.90331,5.829834,-42.73767,3.265121,0.4825967,0.5368364000000001,0.7040545,-0.1729279,-0.1872559,0.9669647,36.45949,9.182465,-47.025940000000006,2.5015110000000003,0.388667,0.4670997,-0.5449363,1.121736,-0.3653234,0.03516319,0.629182,0.02828958,3.909755,64.74252,32.95
3,-0.1703644,-0.1850128,0.9678497,0.6401004,-0.07556152,-0.1020659999999999,0.9918976,-30.90331,5.829834,-42.73767,3.265121,0.4825967,0.5368364000000001,0.7040545,-0.1729279,-0.1872559,0.9669647,36.45949,9.182465,-47.025940000000006,2.5015110000000003,0.388667,0.4670997,-0.5449363,1.121736,-0.3653234,0.03516319,0.629182,0.02828958,3.909755,64.74252,32.95
3,-0.07823181,-0.108139,0.9910431,0.6444006999999999,-0.07823181,-0.108139,0.9910431,-30.89807,5.62587,-42.18874,3.283264,0.4828254,0.5399494,0.701237,0.0,0.0,0.0,36.45949,9.182465,-47.025940000000006,-1.0,-1.0,-1.0,-0.5449363,1.121736,-0.3653234,0.03516319,0.629182,0.02828958,3.909755,64.74252,32.95
3,-0.07823181,-0.108139,0.9910431,0.6444006999999999,-0.07823181,-0.108139,0.9910431,-30.89807,5.62587,-42.18874,3.283264,0.4828254,0.5399494,0.701237,0.0,0.0,0.0,36.45949,9.182465,-47.025940000000006,-1.0,-1.0,-1.0,-0.5449363,1.121736,-0.3653234,0.03516319,0.629182,0.02828958,3.909755,64.74252,32.95
3,-0.07823181,-0.108139,0.9910431,0.6444006999999999,-0.07823181,-0.108139,0.9910431,-30.89807,5.62587,-42.18874,3.283264,0.4828254,0.5399494,0.701237,0.0,0.0,0.0,36.45949,9.182465,-47.025940000000006,-1.0,-1.0,-1.0,-0.5449363,1.121736,-0.3653234,0.03516319,0.629182,0.02828958,3.909755,64.74252,32.95
3,-0.1760254,-0.191452,0.9655762,0.6527369000000001,-0.07170105,-0.1134186,0.9909515,-30.91725,5.795287999999999,-42.83229,3.232574,0.4823835999999999,0.5413215,0.6955948000000001,-0.178833,-0.1935425,0.9646454,36.46042,9.165527,-47.03236,2.692688,0.3896421,0.4692686,-0.5534306999999999,1.130346,-0.3652313,0.01215504,0.6276761,0.05130454,3.909755,64.74252,32.95
3,-0.1760254,-0.191452,0.9655762,0.6527369000000001,-0.07170105,-0.1134186,0.9909515,-30.91725,5.795287999999999,-42.83229,3.232574,0.4823835999999999,0.5413215,0.6955948000000001,-0.178833,-0.1935425,0.9646454,36.46042,9.165527,-47.03236,2.692688,0.3896421,0.4692686,-0.5534306999999999,1.130346,-0.3652313,0.01215504,0.6276761,0.05130454,3.909755,64.74252,32.95
3,-0.1760254,-0.191452,0.9655762,0.6527369000000001,-0.07170105,-0.1134186,0.9909515,-30.91725,5.795287999999999,-42.83229,3.232574,0.4823835999999999,0.5413215,0.6955948000000001,-0.178833,-0.1935425,0.9646454,36.46042,9.165527,-47.03236,2.692688,0.3896421,0.4692686,-0.5534306999999999,1.130346,-0.3652313,0.01215504,0.6276761,0.05130454,3.909755,64.74252,32.95
3,-0.2015381,-0.1905518,0.9607544,0.6521640999999999,-0.07661438,-0.1450806,0.9864349,-30.9269,5.60231,-42.45456,3.393234,0.4835443,0.5509239,0.6499387,-0.2061005,-0.1921692,0.9594726999999998,36.43553,9.015106,-47.0975,3.009094,0.3958315,0.4760471999999999,-0.5582562,1.134744,-0.3654068,0.0004139606,0.6268623000000001,0.06351511,3.909755,64.74252,32.95
3,-0.2015381,-0.1905518,0.9607544,0.6521640999999999,-0.07661438,-0.1450806,0.9864349,-30.9269,5.60231,-42.45456,3.393234,0.4835443,0.5509239,0.6499387,-0.2061005,-0.1921692,0.9594726999999998,36.43553,9.015106,-47.0975,3.009094,0.3958315,0.4760471999999999,-0.5582562,1.134744,-0.3654068,0.0004139606,0.6268623000000001,0.06351511,3.909755,64.74252,32.95
3,-0.2015381,-0.1905518,0.9607544,0.6521640999999999,-0.07661438,-0.1450806,0.9864349,-30.9269,5.60231,-42.45456,3.393234,0.4835443,0.5509239,0.6499387,-0.2061005,-0.1921692,0.9594726999999998,36.43553,9.015106,-47.0975,3.009094,0.3958315,0.4760471999999999,-0.5582562,1.134744,-0.3654068,0.0004139606,0.6268623000000001,0.06351511,3.909755,64.74252,32.95
3,-0.2015381,-0.1905518,0.9607544,0.6521640999999999,-0.07661438,-0.1450806,0.9864349,-30.9269,5.60231,-42.45456,3.393234,0.4835443,0.5509239,0.6499387,-0.2061005,-0.1921692,0.9594726999999998,36.43553,9.015106,-47.0975,3.009094,0.3958315,0.4760471999999999,-0.5630295999999999,1.139161,-0.3654274,-0.01239555,0.6258848000000001,0.075785,3.909755,64.74252,32.95
3,-0.2015381,-0.1905518,0.9607544,0.6521640999999999,-0.07661438,-0.1450806,0.9864349,-30.9269,5.60231,-42.45456,3.393234,0.4835443,0.5509239,0.6499387,-0.2061005,-0.1921692,0.9594726999999998,36.43553,9.015106,-47.0975,3.009094,0.3958315,0.4760471999999999,-0.5630295999999999,1.139161,-0.3654274,-0.01239555,0.6258848000000001,0.075785,3.909755,64.74252,32.95
3,-0.2015381,-0.1905518,0.9607544,0.6521640999999999,-0.07661438,-0.1450806,0.9864349,-30.9269,5.60231,-42.45456,3.393234,0.4835443,0.5509239,0.6499387,-0.2061005,-0.1921692,0.9594726999999998,36.43553,9.015106,-47.0975,3.009094,0.3958315,0.4760471999999999,-0.5630295999999999,1.139161,-0.3654274,-0.01239555,0.6258848000000001,0.075785,3.909755,64.74252,32.95
3,-0.07902527,-0.1620636,0.9835968,0.6527582,-0.07902527,-0.1620636,0.9835968,-30.9362,5.55484,-42.45236,3.264694,0.4843511,0.556,0.6544309,0.0,0.0,0.0,36.43436,9.008041,-47.09163,-1.0,-1.0,-1.0,-0.5678270999999999,1.14328,-0.3656948,-0.0247273,0.6246832,0.08674563,3.909755,46.5817,32.95
3,-0.07902527,-0.1620636,0.9835968,0.6527582,-0.07902527,-0.1620636,0.9835968,-30.9362,5.55484,-42.45236,3.264694,0.4843511,0.556,0.6544309,0.0,0.0,0.0,36.43436,9.008041,-47.09163,-1.0,-1.0,-1.0,-0.5678270999999999,1.14328,-0.3656948,-0.0247273,0.6246832,0.08674563,3.909755,46.5817,32.95
3,-0.07902527,-0.1620636,0.9835968,0.6527582,-0.07902527,-0.1620636,0.9835968,-30.9362,5.55484,-42.45236,3.264694,0.4843511,0.556,0.6544309,0.0,0.0,0.0,36.43436,9.008041,-47.09163,-1.0,-1.0,-1.0,-0.5678270999999999,1.14328,-0.3656948,-0.0247273,0.6246832,0.08674563,3.909755,46.5817,32.95
3,-0.07902527,-0.1620636,0.9835968,0.6527582,-0.07902527,-0.1620636,0.9835968,-30.9362,5.55484,-42.45236,3.264694,0.4843511,0.556,0.6544309,0.0,0.0,0.0,36.43436,9.008041,-47.09163,-1.0,-1.0,-1.0,-0.5723345000000001,1.147047,-0.3658310999999999,-0.03614261,0.6235065,0.09703527,3.909755,46.5817,32.95
3,-0.07902527,-0.1620636,0.9835968,0.6527582,-0.07902527,-0.1620636,0.9835968,-30.9362,5.55484,-42.45236,3.264694,0.4843511,0.556,0.6544309,0.0,0.0,0.0,36.43436,9.008041,-47.09163,-1.0,-1.0,-1.0,-0.5723345000000001,1.147047,-0.3658310999999999,-0.03614261,0.6235065,0.09703527,3.909755,46.5817,32.95
3,-0.07902527,-0.1620636,0.9835968,0.6527582,-0.07902527,-0.1620636,0.9835968,-30.9362,5.55484,-42.45236,3.264694,0.4843511,0.556,0.6544309,0.0,0.0,0.0,36.43436,9.008041,-47.09163,-1.0,-1.0,-1.0,-0.5723345000000001,1.147047,-0.3658310999999999,-0.03614261,0.6235065,0.09703527,3.909755,46.5817,32.95
4,-0.07902527,-0.1620636,0.9835968,0.6527582,-0.07902527,-0.1620636,0.9835968,-30.9362,5.55484,-42.45236,3.264694,0.4843511,0.556,0.6544309,0.0,0.0,0.0,36.43436,9.008041,-47.09163,-1.0,-1.0,-1.0,-0.5766602,1.15056,-0.3658799,-0.0468399,0.6215957,0.106999,3.909755,46.5817,32.95
4,-0.07902527,-0.1620636,0.9835968,0.6527582,-0.07902527,-0.1620636,0.9835968,-30.9362,5.55484,-42.45236,3.264694,0.4843511,0.556,0.6544309,0.0,0.0,0.0,36.43436,9.008041,-47.09163,-1.0,-1.0,-1.0,-0.5766602,1.15056,-0.3658799,-0.0468399,0.6215957,0.106999,3.909755,46.5817,32.95
4,-0.07902527,-0.1620636,0.9835968,0.6527582,-0.07902527,-0.1620636,0.9835968,-30.9362,5.55484,-42.45236,3.264694,0.4843511,0.556,0.6544309,0.0,0.0,0.0,36.43436,9.008041,-47.09163,-1.0,-1.0,-1.0,-0.5766602,1.15056,-0.3658799,-0.0468399,0.6215957,0.106999,3.909755,46.5817,32.95
4,-0.07902527,-0.1620636,0.9835968,0.6527582,-0.07902527,-0.1620636,0.9835968,-30.9362,5.55484,-42.45236,3.264694,0.4843511,0.556,0.6544309,0.0,0.0,0.0,36.43436,9.008041,-47.09163,-1.0,-1.0,-1.0,-0.5808333999999999,1.153983,-0.3660553,-0.05761744,0.6192219,0.1170595,3.909755,46.5817,32.95
4,-0.07902527,-0.1620636,0.9835968,0.6527582,-0.07902527,-0.1620636,0.9835968,-30.9362,5.55484,-42.45236,3.264694,0.4843511,0.556,0.6544309,0.0,0.0,0.0,36.43436,9.008041,-47.09163,-1.0,-1.0,-1.0,-0.5808333999999999,1.153983,-0.3660553,-0.05761744,0.6192219,0.1170595,3.909755,46.5817,32.95
4,-0.07902527,-0.1620636,0.9835968,0.6527582,-0.07902527,-0.1620636,0.9835968,-30.9362,5.55484,-42.45236,3.264694,0.4843511,0.556,0.6544309,0.0,0.0,0.0,36.43436,9.008041,-47.09163,-1.0,-1.0,-1.0,-0.5808333999999999,1.153983,-0.3660553,-0.05761744,0.6192219,0.1170595,3.909755,46.5817,32.95
4,-0.0191803,-0.2236328,0.974472,0.4591232,-0.0191803,-0.2236328,0.974472,-30.55698,5.206238,-42.45837,3.276764,0.4585835,0.5812019,0.3511714,0.0,0.0,0.0,36.83623,8.76413,-47.12701,-1.0,-1.0,-1.0,-0.5847452,1.157097,-0.3661885,-0.06821112,0.6168776,0.1265691,3.909755,46.5817,32.95
4,-0.0191803,-0.2236328,0.974472,0.4591232,-0.0191803,-0.2236328,0.974472,-30.55698,5.206238,-42.45837,3.276764,0.4585835,0.5812019,0.3511714,0.0,0.0,0.0,36.83623,8.76413,-47.12701,-1.0,-1.0,-1.0,-0.5847452,1.157097,-0.3661885,-0.06821112,0.6168776,0.1265691,3.909755,46.5817,32.95
4,-0.0191803,-0.2236328,0.974472,0.4591232,-0.0191803,-0.2236328,0.974472,-30.55698,5.206238,-42.45837,3.276764,0.4585835,0.5812019,0.3511714,0.0,0.0,0.0,36.83623,8.76413,-47.12701,-1.0,-1.0,-1.0,-0.5847452,1.157097,-0.3661885,-0.06821112,0.6168776,0.1265691,3.909755,46.5817,32.95
4,-0.02528381,-0.2308655,0.972641,0.4553552999999999,-0.01942444,-0.2248534999999999,0.9741821,-30.55882,5.099411,-42.48595,3.149384,0.4586813,0.5857455,0.3673982999999999,-0.1560974,-0.3610992,0.9193573,36.81767,8.619507,-47.185970000000005,2.796631,0.3692513,0.5290545999999999,-0.5884088000000001,1.160029,-0.366237,-0.07873805,0.6142833000000001,0.1358378999999999,3.909755,-29.45389,32.95
4,-0.02528381,-0.2308655,0.972641,0.4553552999999999,-0.01942444,-0.2248534999999999,0.9741821,-30.55882,5.099411,-42.48595,3.149384,0.4586813,0.5857455,0.3673982999999999,-0.1560974,-0.3610992,0.9193573,36.81767,8.619507,-47.185970000000005,2.796631,0.3692513,0.5290545999999999,-0.5884088000000001,1.160029,-0.366237,-0.07873805,0.6142833000000001,0.1358378999999999,3.909755,-29.45389,32.95
4,-0.02528381,-0.2308655,0.972641,0.4553552999999999,-0.01942444,-0.2248534999999999,0.9741821,-30.55882,5.099411,-42.48595,3.149384,0.4586813,0.5857455,0.3673982999999999,-0.1560974,-0.3610992,0.9193573,36.81767,8.619507,-47.185970000000005,2.796631,0.3692513,0.5290545999999999,-0.5884088000000001,1.160029,-0.366237,-0.07873805,0.6142833000000001,0.1358378999999999,3.909755,-29.45389,32.95
4,-0.02088928,-0.2557067999999999,0.9665222,0.4489162999999999,-0.02088928,-0.2557067999999999,0.9665222,-30.52638,5.027847,-42.50586,3.082687,0.4576688,0.5949573,0.3786462,0.0,0.0,0.0,36.81767,8.619507,-47.185970000000005,-1.0,-1.0,-1.0,-0.5921341,1.163031,-0.3660902,-0.09013288,0.6106246,0.1457962,3.909755,-29.45389,32.95
4,-0.02088928,-0.2557067999999999,0.9665222,0.4489162999999999,-0.02088928,-0.2557067999999999,0.9665222,-30.52638,5.027847,-42.50586,3.082687,0.4576688,0.5949573,0.3786462,0.0,0.0,0.0,36.81767,8.619507,-47.185970000000005,-1.0,-1.0,-1.0,-0.5921341,1.163031,-0.3660902,-0.09013288,0.6106246,0.1457962,3.909755,-29.45389,32.95
