Second,eye_comb_direction_x,eye_comb_direction_y,eye_comb_direction_z,eye_r_openness,eye_r_direction_x,eye_r_direction_y,eye_r_direction_z,eye_r_origin_x,eye_r_origin_y,eye_r_origin_z,eye_r_pupil_diameter,eye_r_pupil_position_x,eye_r_pupil_position_y,eye_l_openness,eye_l_direction_x,eye_l_direction_y,eye_l_direction_z,eye_l_origin_x,eye_l_origin_y,eye_l_origin_z,eye_l_pupil_diameter,eye_l_pupil_position_x,eye_l_pupil_position_y,head_position_x,head_position_y,head_position_z,head_rotation_roll,head_rotation_pitch,head_rotation_yaw,EDA,BVP,TMP
0,0.1207123,-0.1508636,0.9811401,0.8377648999999999,0.1611938,-0.1387482,0.9771118,-29.70337,6.361481,-38.77798,4.246368,0.3955151,0.4845117,0.6569651999999999,0.05186462,-0.1707153,0.9839478000000002,38.043490000000006,10.30547,-43.3519,3.942078,0.2809052999999999,0.3768442,-0.5920949000000001,1.143764,-0.3371593,-0.09430175,0.4501984,0.09194261,4.27215072775,1.1197058694999997,32.3245875
0,0.1207123,-0.1508636,0.9811401,0.8377648999999999,0.1611938,-0.1387482,0.9771118,-29.70337,6.361481,-38.77798,4.246368,0.3955151,0.4845117,0.6569651999999999,0.05186462,-0.1707153,0.9839478000000002,38.043490000000006,10.30547,-43.3519,3.942078,0.2809052999999999,0.3768442,-0.5920949000000001,1.143764,-0.3371593,-0.09430175,0.4501984,0.09194261,4.27215072775,1.1197058694999997,32.3245875
0,0.1207123,-0.1508636,0.9811401,0.8377648999999999,0.1611938,-0.1387482,0.9771118,-29.70337,6.361481,-38.77798,4.246368,0.3955151,0.4845117,0.6569651999999999,0.05186462,-0.1707153,0.9839478000000002,38.043490000000006,10.30547,-43.3519,3.942078,0.2809052999999999,0.3768442,-0.5920949000000001,1.143764,-0.3371593,-0.09430175,0.4501984,0.09194261,4.27215072775,1.1197058694999997,32.3245875
0,0.1207123,-0.1508636,0.9811401,0.8377648999999999,0.1611938,-0.1387482,0.9771118,-29.70337,6.361481,-38.77798,4.246368,0.3955151,0.4845117,0.6569651999999999,0.05186462,-0.1707153,0.9839478000000002,38.043490000000006,10.30547,-43.3519,3.942078,0.2809052999999999,0.3768442,-0.5920949000000001,1.143764,-0.3371593,-0.09430175,0.4501984,0.09194261,4.27215072775,1.1197058694999997,32.3245875
0,0.1130676,-0.1533966,0.9816589,0.8434224,0.1569824,-0.1329497999999999,0.9786072,-29.71927,6.343506,-38.77884,4.183136,0.396854,0.4840489,0.6784617,0.02738953,-0.191925,0.9810181,38.057970000000005,10.26663,-43.34749,3.671295,0.2858925,0.3833500999999999,-0.5888188,1.143413,-0.3355745,-0.09262757,0.4442215999999999,0.09010468,4.27215072775,1.1197058694999997,32.3245875
0,0.1130676,-0.1533966,0.9816589,0.8434224,0.1569824,-0.1329497999999999,0.9786072,-29.71927,6.343506,-38.77884,4.183136,0.396854,0.4840489,0.6784617,0.02738953,-0.191925,0.9810181,38.057970000000005,10.26663,-43.34749,3.671295,0.2858925,0.3833500999999999,-0.5888188,1.143413,-0.3355745,-0.09262757,0.4442215999999999,0.09010468,4.27215072775,1.1197058694999997,32.3245875
0,0.1130676,-0.1533966,0.9816589,0.8434224,0.1569824,-0.1329497999999999,0.9786072,-29.71927,6.343506,-38.77884,4.183136,0.396854,0.4840489,0.6784617,0.02738953,-0.191925,0.9810181,38.057970000000005,10.26663,-43.34749,3.671295,0.2858925,0.3833500999999999,-0.5888188,1.143413,-0.3355745,-0.09262757,0.4442215999999999,0.09010468,4.27215072775,1.1197058694999997,32.3245875
0,0.0897521999999999,-0.1447906,0.9853668,0.8605292,0.1475983,-0.117157,0.9820709,-29.83138,6.327515,-38.76875,4.284027,0.4027153,0.4816076,0.6797519000000001,-0.01113892,-0.1911774,0.9814758,38.0114,10.26595,-43.31514,3.163101,0.2964232999999999,0.3837962,-0.5868886,1.143047,-0.3344657,-0.09128942,0.4394896,0.08791444,4.27215072775,1.1197058694999997,32.3245875
0,0.0897521999999999,-0.1447906,0.9853668,0.8605292,0.1475983,-0.117157,0.9820709,-29.83138,6.327515,-38.76875,4.284027,0.4027153,0.4816076,0.6797519000000001,-0.01113892,-0.1911774,0.9814758,38.0114,10.26595,-43.31514,3.163101,0.2964232999999999,0.3837962,-0.5868886,1.143047,-0.3344657,-0.09128942,0.4394896,0.08791444,4.27215072775,1.1197058694999997,32.3245875
0,0.0897521999999999,-0.1447906,0.9853668,0.8605292,0.1475983,-0.117157,0.9820709,-29.83138,6.327515,-38.76875,4.284027,0.4027153,0.4816076,0.6797519000000001,-0.01113892,-0.1911774,0.9814758,38.0114,10.26595,-43.31514,3.163101,0.2964232999999999,0.3837962,-0.5868886,1.143047,-0.3344657,-0.09128942,0.4394896,0.08791444,4.27215072775,1.1197058694999997,32.3245875
0,0.06626892,-0.1556244,0.9855804,0.849525,0.1394348,-0.1332855,0.9812164,-29.84386,6.325439,-38.7578,4.153487999999999,0.4046341,0.4845301999999999,0.7281456999999999,-0.02851868,-0.1830292,0.9826813,38.00757,10.26794,-43.29887,3.363968,0.2999386,0.3818667,-0.5852639000000001,1.142569,-0.3333049,-0.08974028,0.4342183,0.08510805,4.27215072775,1.1197058694999997,32.3245875
0,0.06626892,-0.1556244,0.9855804,0.849525,0.1394348,-0.1332855,0.9812164,-29.84386,6.325439,-38.7578,4.153487999999999,0.4046341,0.4845301999999999,0.7281456999999999,-0.02851868,-0.1830292,0.9826813,38.00757,10.26794,-43.29887,3.363968,0.2999386,0.3818667,-0.5852639000000001,1.142569,-0.3333049,-0.08974028,0.4342183,0.08510805,4.27215072775,1.1197058694999997,32.3245875
0,0.06626892,-0.1556244,0.9855804,0.849525,0.1394348,-0.1332855,0.9812164,-29.84386,6.325439,-38.7578,4.153487999999999,0.4046341,0.4845301999999999,0.7281456999999999,-0.02851868,-0.1830292,0.9826813,38.00757,10.26794,-43.29887,3.363968,0.2999386,0.3818667,-0.5852639000000001,1.142569,-0.3333049,-0.08974028,0.4342183,0.08510805,4.27215072775,1.1197058694999997,32.3245875
0,0.05683899,-0.1641997999999999,0.9847717,0.8392578000000002,0.1239319,-0.1413422,0.9821625,-29.893420000000003,6.377899,-38.7097,4.22023,0.4093187,0.4836482,0.7044406999999999,-0.01126099,-0.1864624,0.9823914,37.96176,10.28821,-43.27611,3.59761,0.2980291,0.3812828,-0.5834606999999999,1.141521,-0.3313875999999999,-0.08675241,0.4247414,0.080341,4.27215072775,1.1197058694999997,32.3245875
0,0.05683899,-0.1641997999999999,0.9847717,0.8392578000000002,0.1239319,-0.1413422,0.9821625,-29.893420000000003,6.377899,-38.7097,4.22023,0.4093187,0.4836482,0.7044406999999999,-0.01126099,-0.1864624,0.9823914,37.96176,10.28821,-43.27611,3.59761,0.2980291,0.3812828,-0.5834606999999999,1.141521,-0.3313875999999999,-0.08675241,0.4247414,0.080341,4.27215072775,1.1197058694999997,32.3245875
0,0.05683899,-0.1641997999999999,0.9847717,0.8392578000000002,0.1239319,-0.1413422,0.9821625,-29.893420000000003,6.377899,-38.7097,4.22023,0.4093187,0.4836482,0.7044406999999999,-0.01126099,-0.1864624,0.9823914,37.96176,10.28821,-43.27611,3.59761,0.2980291,0.3812828,-0.5834606999999999,1.141521,-0.3313875999999999,-0.08675241,0.4247414,0.080341,4.27215072775,1.1197058694999997,32.3245875
0,0.03953552,-0.1573792,0.9867401,0.8138616999999999,0.1269836,-0.1102752999999999,0.9857483,-29.9706,6.422058,-38.68793,4.360123000000001,0.4116532,0.4761035,0.6697236999999999,-0.02354431,-0.1902617999999999,0.9814453000000002,37.89853,10.32816,-43.25047,3.401535,0.3033833,0.3806390999999999,-0.5822562,1.140265,-0.3291727,-0.08372279,0.4133090999999999,0.07592636,4.27215072775,1.1197058694999997,32.3245875
0,0.03953552,-0.1573792,0.9867401,0.8138616999999999,0.1269836,-0.1102752999999999,0.9857483,-29.9706,6.422058,-38.68793,4.360123000000001,0.4116532,0.4761035,0.6697236999999999,-0.02354431,-0.1902617999999999,0.9814453000000002,37.89853,10.32816,-43.25047,3.401535,0.3033833,0.3806390999999999,-0.5822562,1.140265,-0.3291727,-0.08372279,0.4133090999999999,0.07592636,4.27215072775,1.1197058694999997,32.3245875
0,0.03953552,-0.1573792,0.9867401,0.8138616999999999,0.1269836,-0.1102752999999999,0.9857483,-29.9706,6.422058,-38.68793,4.360123000000001,0.4116532,0.4761035,0.6697236999999999,-0.02354431,-0.1902617999999999,0.9814453000000002,37.89853,10.32816,-43.25047,3.401535,0.3033833,0.3806390999999999,-0.5822562,1.140265,-0.3291727,-0.08372279,0.4133090999999999,0.07592636,4.27215072775,1.1197058694999997,32.3245875
1,0.01933289,-0.1604462,0.9868469,0.8087327,0.1157837,-0.1010437,0.9881134,-30.021590000000003,6.45726,-38.58946,4.362793,0.4156117,0.4721487,0.6973997,-0.03735352,-0.1943512,0.9802094,37.8369,10.36009,-43.24962,3.240021,0.3088914,0.3806045,-0.5817283000000001,1.139418,-0.3276997,-0.08240867,0.4057792,0.07333968,4.27215072775,1.1197058694999997,32.3245875
1,0.01933289,-0.1604462,0.9868469,0.8087327,0.1157837,-0.1010437,0.9881134,-30.021590000000003,6.45726,-38.58946,4.362793,0.4156117,0.4721487,0.6973997,-0.03735352,-0.1943512,0.9802094,37.8369,10.36009,-43.24962,3.240021,0.3088914,0.3806045,-0.5817283000000001,1.139418,-0.3276997,-0.08240867,0.4057792,0.07333968,4.27215072775,1.1197058694999997,32.3245875
1,0.01933289,-0.1604462,0.9868469,0.8087327,0.1157837,-0.1010437,0.9881134,-30.021590000000003,6.45726,-38.58946,4.362793,0.4156117,0.4721487,0.6973997,-0.03735352,-0.1943512,0.9802094,37.8369,10.36009,-43.24962,3.240021,0.3088914,0.3806045,-0.5817283000000001,1.139418,-0.3276997,-0.08240867,0.4057792,0.07333968,4.27215072775,1.1197058694999997,32.3245875
1,-0.0629425,-0.2070313,0.9763031,0.7625188,0.09640503,-0.1099396,0.9892426,-30.20245,6.3316040000000005,-37.84061,4.265228,0.426015,0.4711809,0.7028913,-0.06452942,-0.2079772999999999,0.9759979,37.65749,10.44868,-43.25111,3.217453,0.3216892,0.3806119,-0.5811939,1.1383299999999998,-0.325887,-0.0811997,0.3966582,0.07017196,4.27215072775,1.1197058694999997,32.3245875
1,-0.0629425,-0.2070313,0.9763031,0.7625188,0.09640503,-0.1099396,0.9892426,-30.20245,6.3316040000000005,-37.84061,4.265228,0.426015,0.4711809,0.7028913,-0.06452942,-0.2079772999999999,0.9759979,37.65749,10.44868,-43.25111,3.217453,0.3216892,0.3806119,-0.5811939,1.1383299999999998,-0.325887,-0.0811997,0.3966582,0.07017196,4.27215072775,1.1197058694999997,32.3245875
1,-0.0629425,-0.2070313,0.9763031,0.7625188,0.09640503,-0.1099396,0.9892426,-30.20245,6.3316040000000005,-37.84061,4.265228,0.426015,0.4711809,0.7028913,-0.06452942,-0.2079772999999999,0.9759979,37.65749,10.44868,-43.25111,3.217453,0.3216892,0.3806119,-0.5811939,1.1383299999999998,-0.325887,-0.0811997,0.3966582,0.07017196,4.27215072775,1.1197058694999997,32.3245875
1,-0.05010986,-0.213089,0.9757385,0.7554523,0.07769775,-0.1055908,0.9913635,-30.30022,6.429886,-38.11562,4.419174,0.4328492999999999,0.4695085,0.6796084,-0.05030823,-0.2132416,0.9756927,37.55553,10.46741,-43.2505,3.178543,0.3229719,0.3810124,-0.5809543,1.137462,-0.3247902,-0.0803945,0.3902085,0.06770701,4.27215072775,-67.92938,32.3245875
1,-0.05010986,-0.213089,0.9757385,0.7554523,0.07769775,-0.1055908,0.9913635,-30.30022,6.429886,-38.11562,4.419174,0.4328492999999999,0.4695085,0.6796084,-0.05030823,-0.2132416,0.9756927,37.55553,10.46741,-43.2505,3.178543,0.3229719,0.3810124,-0.5809543,1.137462,-0.3247902,-0.0803945,0.3902085,0.06770701,4.27215072775,-67.92938,32.3245875
1,-0.05010986,-0.213089,0.9757385,0.7554523,0.07769775,-0.1055908,0.9913635,-30.30022,6.429886,-38.11562,4.419174,0.4328492999999999,0.4695085,0.6796084,-0.05030823,-0.2132416,0.9756927,37.55553,10.46741,-43.2505,3.178543,0.3229719,0.3810124,-0.5809543,1.137462,-0.3247902,-0.0803945,0.3902085,0.06770701,4.27215072775,-67.92938,32.3245875
1,-0.04379272,-0.199646,0.9788818,0.7460786,0.06774902,-0.1238708,0.989975,-30.4794,6.6092830000000005,-38.45483,4.272476,0.4410595999999999,0.4696358,0.6914670999999999,-0.04554749,-0.2008209,0.9785614,37.39249,10.51524,-43.22324,3.233688,0.3285421,0.3763667999999999,-0.5807486999999999,1.136989,-0.3246289,-0.07990908,0.3876158,0.06635698,4.27215072775,-67.92938,32.3245875
1,-0.04379272,-0.199646,0.9788818,0.7460786,0.06774902,-0.1238708,0.989975,-30.4794,6.6092830000000005,-38.45483,4.272476,0.4410595999999999,0.4696358,0.6914670999999999,-0.04554749,-0.2008209,0.9785614,37.39249,10.51524,-43.22324,3.233688,0.3285421,0.3763667999999999,-0.5807486999999999,1.136989,-0.3246289,-0.07990908,0.3876158,0.06635698,4.27215072775,-67.92938,32.3245875
1,-0.04379272,-0.199646,0.9788818,0.7460786,0.06774902,-0.1238708,0.989975,-30.4794,6.6092830000000005,-38.45483,4.272476,0.4410595999999999,0.4696358,0.6914670999999999,-0.04554749,-0.2008209,0.9785614,37.39249,10.51524,-43.22324,3.233688,0.3285421,0.3763667999999999,-0.5807486999999999,1.136989,-0.3246289,-0.07990908,0.3876158,0.06635698,4.27215072775,-67.92938,32.3245875
1,-0.02267456,-0.2000427,0.9795227,0.7460786,0.04800415,-0.1254272,0.9909363,-30.58838,6.643631,-38.49641,4.168076,0.448568,0.4690787,0.6914670999999999,-0.02351379,-0.2009277,0.9793091,37.26726,10.52826,-43.21985,3.140167,0.3292330999999999,0.3758872,-0.5803439,1.136772,-0.3254704,-0.07889747,0.3905117,0.0656888,4.27215072775,-67.92938,32.3245875
1,-0.02267456,-0.2000427,0.9795227,0.7460786,0.04800415,-0.1254272,0.9909363,-30.58838,6.643631,-38.49641,4.168076,0.448568,0.4690787,0.6914670999999999,-0.02351379,-0.2009277,0.9793091,37.26726,10.52826,-43.21985,3.140167,0.3292330999999999,0.3758872,-0.5803439,1.136772,-0.3254704,-0.07889747,0.3905117,0.0656888,4.27215072775,-67.92938,32.3245875
1,-0.02267456,-0.2000427,0.9795227,0.7460786,0.04800415,-0.1254272,0.9909363,-30.58838,6.643631,-38.49641,4.168076,0.448568,0.4690787,0.6914670999999999,-0.02351379,-0.2009277,0.9793091,37.26726,10.52826,-43.21985,3.140167,0.3292330999999999,0.3758872,-0.5803439,1.136772,-0.3254704,-0.07889747,0.3905117,0.0656888,4.27215072775,-67.92938,32.3245875
1,-0.02267456,-0.2000427,0.9795227,0.7270691999999999,0.04800415,-0.1254272,0.9909363,-30.58838,6.643631,-38.49641,4.168076,0.448568,0.4690787,0.7098042,-0.02351379,-0.2009277,0.9793091,37.26726,10.52826,-43.21985,3.140167,0.3292330999999999,0.3758872,-0.5797629,1.136955,-0.326934,-0.07779691,0.3974734,0.06486231,4.27215072775,-67.92938,32.3245875
1,-0.02267456,-0.2000427,0.9795227,0.7270691999999999,0.04800415,-0.1254272,0.9909363,-30.58838,6.643631,-38.49641,4.168076,0.448568,0.4690787,0.7098042,-0.02351379,-0.2009277,0.9793091,37.26726,10.52826,-43.21985,3.140167,0.3292330999999999,0.3758872,-0.5797629,1.136955,-0.326934,-0.07779691,0.3974734,0.06486231,4.27215072775,-67.92938,32.3245875
1,-0.02267456,-0.2000427,0.9795227,0.7270691999999999,0.04800415,-0.1254272,0.9909363,-30.58838,6.643631,-38.49641,4.168076,0.448568,0.4690787,0.7098042,-0.02351379,-0.2009277,0.9793091,37.26726,10.52826,-43.21985,3.140167,0.3292330999999999,0.3758872,-0.5797629,1.136955,-0.326934,-0.07779691,0.3974734,0.06486231,4.27215072775,-67.92938,32.3245875
1,-0.03138733,-0.1939697,0.9804993,0.7270691999999999,0.0533905,-0.1316528,0.9898529,-30.62292,6.605988000000001,-38.38577,4.212128,0.4488754,0.4705672999999999,0.7098042,-0.03323364,-0.1953125,0.9801636,37.222640000000006,10.5237,-43.22128,3.304535,0.3328441,0.3749500999999999,-0.5790846,1.137124,-0.3293349,-0.0765451,0.4072606,0.06375308,4.27215072775,-67.92938,32.3245875
1,-0.03138733,-0.1939697,0.9804993,0.7270691999999999,0.0533905,-0.1316528,0.9898529,-30.62292,6.605988000000001,-38.38577,4.212128,0.4488754,0.4705672999999999,0.7098042,-0.03323364,-0.1953125,0.9801636,37.222640000000006,10.5237,-43.22128,3.304535,0.3328441,0.3749500999999999,-0.5790846,1.137124,-0.3293349,-0.0765451,0.4072606,0.06375308,4.27215072775,-67.92938,32.3245875
1,-0.03138733,-0.1939697,0.9804993,0.7270691999999999,0.0533905,-0.1316528,0.9898529,-30.62292,6.605988000000001,-38.38577,4.212128,0.4488754,0.4705672999999999,0.7098042,-0.03323364,-0.1953125,0.9801636,37.222640000000006,10.5237,-43.22128,3.304535,0.3328441,0.3749500999999999,-0.5790846,1.137124,-0.3293349,-0.0765451,0.4072606,0.06375308,4.27215072775,-67.92938,32.3245875
1,-0.03138733,-0.1939697,0.9804993,0.7270691999999999,0.0533905,-0.1316528,0.9898529,-30.62292,6.605988000000001,-38.38577,4.212128,0.4488754,0.4705672999999999,0.7098042,-0.03323364,-0.1953125,0.9801636,37.222640000000006,10.5237,-43.22128,3.304535,0.3328441,0.3749500999999999,-0.5785677,1.137222,-0.3312434,-0.07523821,0.4150832,0.06245481,4.27215072775,-67.92938,32.3245875
1,-0.03138733,-0.1939697,0.9804993,0.7270691999999999,0.0533905,-0.1316528,0.9898529,-30.62292,6.605988000000001,-38.38577,4.212128,0.4488754,0.4705672999999999,0.7098042,-0.03323364,-0.1953125,0.9801636,37.222640000000006,10.5237,-43.22128,3.304535,0.3328441,0.3749500999999999,-0.5785677,1.137222,-0.3312434,-0.07523821,0.4150832,0.06245481,4.27215072775,-67.92938,32.3245875
1,-0.03138733,-0.1939697,0.9804993,0.7270691999999999,0.0533905,-0.1316528,0.9898529,-30.62292,6.605988000000001,-38.38577,4.212128,0.4488754,0.4705672999999999,0.7098042,-0.03323364,-0.1953125,0.9801636,37.222640000000006,10.5237,-43.22128,3.304535,0.3328441,0.3749500999999999,-0.5785677,1.137222,-0.3312434,-0.07523821,0.4150832,0.06245481,4.27215072775,-67.92938,32.3245875
1,-0.03919983,-0.1941681,0.9801788,0.7440222,0.0565033,-0.1004028,0.9933319,-30.65431,6.675598,-38.68442,4.345154,0.4494299,0.4651324,0.732735,-0.04188538,-0.1967621,0.9795532,37.20415,10.52533,-43.22023,3.172989,0.3354488,0.3753763,-0.5772519,1.1369200000000002,-0.3347729,-0.07190967,0.4299505,0.0595523,4.27215072775,-42.47607,32.3245875
1,-0.03919983,-0.1941681,0.9801788,0.7440222,0.0565033,-0.1004028,0.9933319,-30.65431,6.675598,-38.68442,4.345154,0.4494299,0.4651324,0.732735,-0.04188538,-0.1967621,0.9795532,37.20415,10.52533,-43.22023,3.172989,0.3354488,0.3753763,-0.5772519,1.1369200000000002,-0.3347729,-0.07190967,0.4299505,0.0595523,4.27215072775,-42.47607,32.3245875
1,-0.03919983,-0.1941681,0.9801788,0.7440222,0.0565033,-0.1004028,0.9933319,-30.65431,6.675598,-38.68442,4.345154,0.4494299,0.4651324,0.732735,-0.04188538,-0.1967621,0.9795532,37.20415,10.52533,-43.22023,3.172989,0.3354488,0.3753763,-0.5772519,1.1369200000000002,-0.3347729,-0.07190967,0.4299505,0.0595523,4.27215072775,-42.47607,32.3245875
1,-0.03919983,-0.1941681,0.9801788,0.7440222,0.0565033,-0.1004028,0.9933319,-30.65431,6.675598,-38.68442,4.345154,0.4494299,0.4651324,0.732735,-0.04188538,-0.1967621,0.9795532,37.20415,10.52533,-43.22023,3.172989,0.3354488,0.3753763,-0.5760158000000001,1.136332,-0.337526,-0.06801037,0.4427193,0.05720945,4.27215072775,-42.47607,32.3245875
1,-0.03919983,-0.1941681,0.9801788,0.7440222,0.0565033,-0.1004028,0.9933319,-30.65431,6.675598,-38.68442,4.345154,0.4494299,0.4651324,0.732735,-0.04188538,-0.1967621,0.9795532,37.20415,10.52533,-43.22023,3.172989,0.3354488,0.3753763,-0.5760158000000001,1.136332,-0.337526,-0.06801037,0.4427193,0.05720945,4.27215072775,-42.47607,32.3245875
1,-0.03919983,-0.1941681,0.9801788,0.7440222,0.0565033,-0.1004028,0.9933319,-30.65431,6.675598,-38.68442,4.345154,0.4494299,0.4651324,0.732735,-0.04188538,-0.1967621,0.9795532,37.20415,10.52533,-43.22023,3.172989,0.3354488,0.3753763,-0.5760158000000001,1.136332,-0.337526,-0.06801037,0.4427193,0.05720945,4.27215072775,-42.47607,32.3245875
1,-0.04348755,-0.2424469,0.9691771999999998,0.7440222,0.05218506,-0.122467,0.9910889,-30.69701,6.891617,-39.76596,4.107864,0.4515505,0.4716867999999999,0.732735,-0.04356384,-0.242569,0.9691467,37.163990000000005,10.5341,-43.23007,3.023636,0.3375315,0.3850432,-0.5745526999999999,1.135273,-0.3407000999999999,-0.06250024,0.4572795,0.05408059,4.27215072775,-42.47607,32.3245875
1,-0.04348755,-0.2424469,0.9691771999999998,0.7440222,0.05218506,-0.122467,0.9910889,-30.69701,6.891617,-39.76596,4.107864,0.4515505,0.4716867999999999,0.732735,-0.04356384,-0.242569,0.9691467,37.163990000000005,10.5341,-43.23007,3.023636,0.3375315,0.3850432,-0.5745526999999999,1.135273,-0.3407000999999999,-0.06250024,0.4572795,0.05408059,4.27215072775,-42.47607,32.3245875
1,-0.04348755,-0.2424469,0.9691771999999998,0.7440222,0.05218506,-0.122467,0.9910889,-30.69701,6.891617,-39.76596,4.107864,0.4515505,0.4716867999999999,0.732735,-0.04356384,-0.242569,0.9691467,37.163990000000005,10.5341,-43.23007,3.023636,0.3375315,0.3850432,-0.5745526999999999,1.135273,-0.3407000999999999,-0.06250024,0.4572795,0.05408059,4.27215072775,-42.47607,32.3245875
1,-0.2571564,-0.2743224999999999,0.9266052,0.929006,-0.2530823,-0.276062,0.9272003,-32.49576,5.461273,-39.05487,3.964478,0.5728446,0.5486453,0.9107783000000002,-0.3185425,-0.2470551,0.9151306,34.79323,9.482605,-44.10518,3.843979,0.4837919,0.4408845999999999,-0.572072,1.133379,-0.3458717,-0.05402849,0.4809582999999999,0.04942385,4.012669,-42.47607,32.3245875
1,-0.2571564,-0.2743224999999999,0.9266052,0.929006,-0.2530823,-0.276062,0.9272003,-32.49576,5.461273,-39.05487,3.964478,0.5728446,0.5486453,0.9107783000000002,-0.3185425,-0.2470551,0.9151306,34.79323,9.482605,-44.10518,3.843979,0.4837919,0.4408845999999999,-0.572072,1.133379,-0.3458717,-0.05402849,0.4809582999999999,0.04942385,4.012669,-42.47607,32.3245875
1,-0.2571564,-0.2743224999999999,0.9266052,0.929006,-0.2530823,-0.276062,0.9272003,-32.49576,5.461273,-39.05487,3.964478,0.5728446,0.5486453,0.9107783000000002,-0.3185425,-0.2470551,0.9151306,34.79323,9.482605,-44.10518,3.843979,0.4837919,0.4408845999999999,-0.572072,1.133379,-0.3458717,-0.05402849,0.4809582999999999,0.04942385,4.012669,-42.47607,32.3245875
1,-0.2262114999999999,-0.2619629,0.9381714,1.0,-0.2247467,-0.2625122,0.938385,-32.46719,5.439423000000001,-39.06107,3.989822,0.5665691999999999,0.5464511,1.0,-0.3085938,-0.2298889,0.9229889,34.93973,9.542084,-44.0273,4.004791,0.4760109999999999,0.4339318,-0.5703902,1.132218,-0.349475,-0.04883026,0.4971316,0.04750308,4.012669,-42.47607,32.3245875
1,-0.2262114999999999,-0.2619629,0.9381714,1.0,-0.2247467,-0.2625122,0.938385,-32.46719,5.439423000000001,-39.06107,3.989822,0.5665691999999999,0.5464511,1.0,-0.3085938,-0.2298889,0.9229889,34.93973,9.542084,-44.0273,4.004791,0.4760109999999999,0.4339318,-0.5703902,1.132218,-0.349475,-0.04883026,0.4971316,0.04750308,4.012669,-42.47607,32.3245875
1,-0.2262114999999999,-0.2619629,0.9381714,1.0,-0.2247467,-0.2625122,0.938385,-32.46719,5.439423000000001,-39.06107,3.989822,0.5665691999999999,0.5464511,1.0,-0.3085938,-0.2298889,0.9229889,34.93973,9.542084,-44.0273,4.004791,0.4760109999999999,0.4339318,-0.5703902,1.132218,-0.349475,-0.04883026,0.4971316,0.04750308,4.012669,-42.47607,32.3245875
1,-0.2172546,-0.2879027999999999,0.9326782,1.0,-0.2133025999999999,-0.2902679,0.9328613,-32.41563,5.527648999999999,-39.01227,3.912781,0.5625498999999999,0.5480446,1.0,-0.2982788,-0.2371367999999999,0.9245453,35.0146,9.587982,-43.98225,3.909653,0.4711335999999999,0.4330111,-0.5668343000000001,1.129471,-0.3589672,-0.03707834,0.5361428,0.04362652,4.012669,-42.47607,32.3245875
1,-0.2172546,-0.2879027999999999,0.9326782,1.0,-0.2133025999999999,-0.2902679,0.9328613,-32.41563,5.527648999999999,-39.01227,3.912781,0.5625498999999999,0.5480446,1.0,-0.2982788,-0.2371367999999999,0.9245453,35.0146,9.587982,-43.98225,3.909653,0.4711335999999999,0.4330111,-0.5668343000000001,1.129471,-0.3589672,-0.03707834,0.5361428,0.04362652,4.012669,-42.47607,32.3245875
1,-0.2172546,-0.2879027999999999,0.9326782,1.0,-0.2133025999999999,-0.2902679,0.9328613,-32.41563,5.527648999999999,-39.01227,3.912781,0.5625498999999999,0.5480446,1.0,-0.2982788,-0.2371367999999999,0.9245453,35.0146,9.587982,-43.98225,3.909653,0.4711335999999999,0.4330111,-0.5668343000000001,1.129471,-0.3589672,-0.03707834,0.5361428,0.04362652,4.012669,-42.47607,32.3245875
1,-0.1372681,-0.2589874,0.9560699,0.9989199,-0.09391785,-0.2740936,0.9570923,-31.586990000000004,5.795593,-38.80042,3.989655,0.5102976,0.5316885,0.9144708,-0.2060242,-0.2336731,0.9502258,35.95523,9.846283,-43.6579,3.800476,0.4164962,0.417103,-0.5651397,1.128009,-0.3665532999999999,-0.03044082,0.5645899999999999,0.0410777,4.012669,-69.11902,32.3245875
1,-0.1372681,-0.2589874,0.9560699,0.9989199,-0.09391785,-0.2740936,0.9570923,-31.586990000000004,5.795593,-38.80042,3.989655,0.5102976,0.5316885,0.9144708,-0.2060242,-0.2336731,0.9502258,35.95523,9.846283,-43.6579,3.800476,0.4164962,0.417103,-0.5651397,1.128009,-0.3665532999999999,-0.03044082,0.5645899999999999,0.0410777,4.012669,-69.11902,32.3245875
1,-0.1372681,-0.2589874,0.9560699,0.9989199,-0.09391785,-0.2740936,0.9570923,-31.586990000000004,5.795593,-38.80042,3.989655,0.5102976,0.5316885,0.9144708,-0.2060242,-0.2336731,0.9502258,35.95523,9.846283,-43.6579,3.800476,0.4164962,0.417103,-0.5651397,1.128009,-0.3665532999999999,-0.03044082,0.5645899999999999,0.0410777,4.012669,-69.11902,32.3245875
1,-0.1239014,-0.2624512,0.956955,1.0,-0.07183838,-0.2893524,0.9545135,-31.52286,5.812164,-38.78473,3.761475,0.5039929,0.5337746999999999,1.0,-0.1912537,-0.2259521,0.9551697,36.01959,9.864624,-43.63432,3.9039,0.4110282999999999,0.4142567,-0.5646259,1.127437,-0.3702455999999999,-0.02797249,0.5774251,0.04019581,4.012669,-69.11902,32.3245875
1,-0.1239014,-0.2624512,0.956955,1.0,-0.07183838,-0.2893524,0.9545135,-31.52286,5.812164,-38.78473,3.761475,0.5039929,0.5337746999999999,1.0,-0.1912537,-0.2259521,0.9551697,36.01959,9.864624,-43.63432,3.9039,0.4110282999999999,0.4142567,-0.5646259,1.127437,-0.3702455999999999,-0.02797249,0.5774251,0.04019581,4.012669,-69.11902,32.3245875
1,-0.1239014,-0.2624512,0.956955,1.0,-0.07183838,-0.2893524,0.9545135,-31.52286,5.812164,-38.78473,3.761475,0.5039929,0.5337746999999999,1.0,-0.1912537,-0.2259521,0.9551697,36.01959,9.864624,-43.63432,3.9039,0.4110282999999999,0.4142567,-0.5646259,1.127437,-0.3702455999999999,-0.02797249,0.5774251,0.04019581,4.012669,-69.11902,32.3245875
1,-0.1072845,-0.2440337999999999,0.9638062,1.0,-0.04296875,-0.2617035,0.9641876,-31.32808,5.82547,-38.76363,3.887955,0.4916601,0.5275175,1.0,-0.1817322,-0.2220459,0.9579315,36.20013,9.900208,-43.60086,4.019928,0.4019902999999999,0.4114231,-0.5642581999999999,1.1270209999999998,-0.375175,-0.0254845,0.5944418,0.03945185,4.012669,-69.11902,32.3245875
1,-0.1072845,-0.2440337999999999,0.9638062,1.0,-0.04296875,-0.2617035,0.9641876,-31.32808,5.82547,-38.76363,3.887955,0.4916601,0.5275175,1.0,-0.1817322,-0.2220459,0.9579315,36.20013,9.900208,-43.60086,4.019928,0.4019902999999999,0.4114231,-0.5642581999999999,1.1270209999999998,-0.375175,-0.0254845,0.5944418,0.03945185,4.012669,-69.11902,32.3245875
1,-0.1072845,-0.2440337999999999,0.9638062,1.0,-0.04296875,-0.2617035,0.9641876,-31.32808,5.82547,-38.76363,3.887955,0.4916601,0.5275175,1.0,-0.1817322,-0.2220459,0.9579315,36.20013,9.900208,-43.60086,4.019928,0.4019902999999999,0.4114231,-0.5642581999999999,1.1270209999999998,-0.375175,-0.0254845,0.5944418,0.03945185,4.012669,-69.11902,32.3245875
1,-0.08398438,-0.2436066,0.966217,1.0,-0.0370635999999999,-0.2555695,0.9660645,-31.04831,5.911179,-38.73907,4.134521,0.4803565999999999,0.5229031,1.0,-0.1390838999999999,-0.2287597999999999,0.9634857,36.49747,9.953384,-43.54306,3.812576,0.3821374,0.4094754,-0.5643393,1.126858,-0.3795031,-0.02378195,0.6087144,0.03870197,4.012669,-69.11902,32.3245875
1,-0.08398438,-0.2436066,0.966217,1.0,-0.0370635999999999,-0.2555695,0.9660645,-31.04831,5.911179,-38.73907,4.134521,0.4803565999999999,0.5229031,1.0,-0.1390838999999999,-0.2287597999999999,0.9634857,36.49747,9.953384,-43.54306,3.812576,0.3821374,0.4094754,-0.5643393,1.126858,-0.3795031,-0.02378195,0.6087144,0.03870197,4.012669,-69.11902,32.3245875
1,-0.08398438,-0.2436066,0.966217,1.0,-0.0370635999999999,-0.2555695,0.9660645,-31.04831,5.911179,-38.73907,4.134521,0.4803565999999999,0.5229031,1.0,-0.1390838999999999,-0.2287597999999999,0.9634857,36.49747,9.953384,-43.54306,3.812576,0.3821374,0.4094754,-0.5643393,1.126858,-0.3795031,-0.02378195,0.6087144,0.03870197,4.012669,-69.11902,32.3245875
1,-0.05667114,-0.2304688,0.9714203,1.0,-0.003112793,-0.2519989,0.9677124,-30.8624,5.869553,-38.75505,3.913208,0.4674712,0.5237404,1.0,-0.1231384,-0.2025909,0.9714813,36.70848,9.937439,-43.52556,4.109024,0.3704298,0.4039652999999999,-0.5646188,1.126558,-0.3832627999999999,-0.02121408,0.6208937,0.03740464,4.012669,72.99963,32.3245875
1,-0.05667114,-0.2304688,0.9714203,1.0,-0.003112793,-0.2519989,0.9677124,-30.8624,5.869553,-38.75505,3.913208,0.4674712,0.5237404,1.0,-0.1231384,-0.2025909,0.9714813,36.70848,9.937439,-43.52556,4.109024,0.3704298,0.4039652999999999,-0.5646188,1.126558,-0.3832627999999999,-0.02121408,0.6208937,0.03740464,4.012669,72.99963,32.3245875
1,-0.05667114,-0.2304688,0.9714203,1.0,-0.003112793,-0.2519989,0.9677124,-30.8624,5.869553,-38.75505,3.913208,0.4674712,0.5237404,1.0,-0.1231384,-0.2025909,0.9714813,36.70848,9.937439,-43.52556,4.109024,0.3704298,0.4039652999999999,-0.5646188,1.126558,-0.3832627999999999,-0.02121408,0.6208937,0.03740464,4.012669,72.99963,32.3245875
1,-0.05815125,-0.2340393,0.9704742,0.9857001,0.01200867,-0.2343292,0.9720764,-30.65799,5.906357,-38.74101,4.12561,0.4572962,0.5188164000000001,0.8737348,-0.1140594,-0.2329712,0.9657593,36.90993,9.919266,-43.5162,3.562378,0.3611150999999999,0.4108779999999999,-0.5651255000000001,1.125916,-0.386502,-0.0180033,0.6308904000000001,0.03524531,4.012669,72.99963,32.3245875
1,-0.05815125,-0.2340393,0.9704742,0.9857001,0.01200867,-0.2343292,0.9720764,-30.65799,5.906357,-38.74101,4.12561,0.4572962,0.5188164000000001,0.8737348,-0.1140594,-0.2329712,0.9657593,36.90993,9.919266,-43.5162,3.562378,0.3611150999999999,0.4108779999999999,-0.5651255000000001,1.125916,-0.386502,-0.0180033,0.6308904000000001,0.03524531,4.012669,72.99963,32.3245875
1,-0.05815125,-0.2340393,0.9704742,0.9857001,0.01200867,-0.2343292,0.9720764,-30.65799,5.906357,-38.74101,4.12561,0.4572962,0.5188164000000001,0.8737348,-0.1140594,-0.2329712,0.9657593,36.90993,9.919266,-43.5162,3.562378,0.3611150999999999,0.4108779999999999,-0.5651255000000001,1.125916,-0.386502,-0.0180033,0.6308904000000001,0.03524531,4.012669,72.99963,32.3245875
1,-0.03363037,-0.2408142,0.969986,0.9921345,0.03334045,-0.2232208,0.9741821,-30.54176,5.895264,-38.74985,3.952164,0.4492074,0.5171104000000001,0.8482298,-0.103302,-0.2579192999999999,0.9606171,37.06895,9.942139,-43.49994,3.517639,0.3526677,0.4147983,-0.5655364,1.125018,-0.3891310999999999,-0.01384193,0.6391973000000001,0.03282216,4.012669,72.99963,32.3245875
1,-0.03363037,-0.2408142,0.969986,0.9921345,0.03334045,-0.2232208,0.9741821,-30.54176,5.895264,-38.74985,3.952164,0.4492074,0.5171104000000001,0.8482298,-0.103302,-0.2579192999999999,0.9606171,37.06895,9.942139,-43.49994,3.517639,0.3526677,0.4147983,-0.5655364,1.125018,-0.3891310999999999,-0.01384193,0.6391973000000001,0.03282216,4.012669,72.99963,32.3245875
1,-0.03363037,-0.2408142,0.969986,0.9921345,0.03334045,-0.2232208,0.9741821,-30.54176,5.895264,-38.74985,3.952164,0.4492074,0.5171104000000001,0.8482298,-0.103302,-0.2579192999999999,0.9606171,37.06895,9.942139,-43.49994,3.517639,0.3526677,0.4147983,-0.5655364,1.125018,-0.3891310999999999,-0.01384193,0.6391973000000001,0.03282216,4.012669,72.99963,32.3245875
1,-0.1188048999999999,-0.2139282,0.9695892,0.9394075,-0.06724548,-0.2317657,0.9704285,-31.34213,6.120682,-38.70171,3.737442,0.4966364,0.5104771,0.8461331,-0.1728058,-0.1944275,0.9655609,36.21184,10.06337,-43.55666,3.837524,0.4000526,0.3987884,-0.5658094,1.124033,-0.3912374,-0.008607473,0.6460074,0.03030493,4.012669,72.99963,32.3245875
1,-0.1188048999999999,-0.2139282,0.9695892,0.9394075,-0.06724548,-0.2317657,0.9704285,-31.34213,6.120682,-38.70171,3.737442,0.4966364,0.5104771,0.8461331,-0.1728058,-0.1944275,0.9655609,36.21184,10.06337,-43.55666,3.837524,0.4000526,0.3987884,-0.5658094,1.124033,-0.3912374,-0.008607473,0.6460074,0.03030493,4.012669,72.99963,32.3245875
1,-0.1188048999999999,-0.2139282,0.9695892,0.9394075,-0.06724548,-0.2317657,0.9704285,-31.34213,6.120682,-38.70171,3.737442,0.4966364,0.5104771,0.8461331,-0.1728058,-0.1944275,0.9655609,36.21184,10.06337,-43.55666,3.837524,0.4000526,0.3987884,-0.5658094,1.124033,-0.3912374,-0.008607473,0.6460074,0.03030493,4.012669,72.99963,32.3245875
1,-0.1040955,-0.214035,0.9712524,0.9684081,-0.05426025,-0.2299957,0.9716644,-31.32785,6.161758,-38.6926,3.755554,0.4937715999999999,0.5085002000000001,0.8863701999999999,-0.1839447,-0.1870575,0.9649658,36.19742,10.14668,-43.54828,3.870056,0.4027855,0.394039,-0.5659940999999999,1.122455,-0.3933114,-0.001019488,0.6525890000000001,0.02707713,4.012669,72.99963,32.3245875
1,-0.1040955,-0.214035,0.9712524,0.9684081,-0.05426025,-0.2299957,0.9716644,-31.32785,6.161758,-38.6926,3.755554,0.4937715999999999,0.5085002000000001,0.8863701999999999,-0.1839447,-0.1870575,0.9649658,36.19742,10.14668,-43.54828,3.870056,0.4027855,0.394039,-0.5659940999999999,1.122455,-0.3933114,-0.001019488,0.6525890000000001,0.02707713,4.012669,72.99963,32.3245875
1,-0.1040955,-0.214035,0.9712524,0.9684081,-0.05426025,-0.2299957,0.9716644,-31.32785,6.161758,-38.6926,3.755554,0.4937715999999999,0.5085002000000001,0.8863701999999999,-0.1839447,-0.1870575,0.9649658,36.19742,10.14668,-43.54828,3.870056,0.4027855,0.394039,-0.5659940999999999,1.122455,-0.3933114,-0.001019488,0.6525890000000001,0.02707713,4.012669,72.99963,32.3245875
1,-0.10849,-0.2202759,0.9693756,0.9799581,-0.04800415,-0.2533112,0.9661865,-31.30113,6.165436,-38.69022,3.445663,0.4916844,0.5128204000000001,0.8814666999999999,-0.1809692,-0.1789397999999999,0.9670715,36.23839,10.16194,-43.53786,3.841644,0.4006389999999999,0.3915848,-0.5660769,1.121468,-0.3940046,0.0028392829999999,0.6545751999999999,0.02476885,4.012669,258.7029,32.3245875
1,-0.10849,-0.2202759,0.9693756,0.9799581,-0.04800415,-0.2533112,0.9661865,-31.30113,6.165436,-38.69022,3.445663,0.4916844,0.5128204000000001,0.8814666999999999,-0.1809692,-0.1789397999999999,0.9670715,36.23839,10.16194,-43.53786,3.841644,0.4006389999999999,0.3915848,-0.5660769,1.121468,-0.3940046,0.0028392829999999,0.6545751999999999,0.02476885,4.012669,258.7029,32.3245875
1,-0.10849,-0.2202759,0.9693756,0.9799581,-0.04800415,-0.2533112,0.9661865,-31.30113,6.165436,-38.69022,3.445663,0.4916844,0.5128204000000001,0.8814666999999999,-0.1809692,-0.1789397999999999,0.9670715,36.23839,10.16194,-43.53786,3.841644,0.4006389999999999,0.3915848,-0.5660769,1.121468,-0.3940046,0.0028392829999999,0.6545751999999999,0.02476885,4.012669,258.7029,32.3245875
1,-0.1044311999999999,-0.1825867,0.9776154,1.0,-0.04658508,-0.1874694999999999,0.9811554,-31.25047,6.185576999999999,-38.69435,3.853455,0.4895872,0.4994851999999999,1.0,-0.1693267999999999,-0.1763458,0.9696503,36.2816,10.2117,-43.50941,3.751816,0.396757,0.3886418,-0.5660626999999999,1.119059,-0.3949009,0.01161225,0.6573354,0.01886717,4.012669,258.7029,32.3245875
1,-0.1044311999999999,-0.1825867,0.9776154,1.0,-0.04658508,-0.1874694999999999,0.9811554,-31.25047,6.185576999999999,-38.69435,3.853455,0.4895872,0.4994851999999999,1.0,-0.1693267999999999,-0.1763458,0.9696503,36.2816,10.2117,-43.50941,3.751816,0.396757,0.3886418,-0.5660626999999999,1.119059,-0.3949009,0.01161225,0.6573354,0.01886717,4.012669,258.7029,32.3245875
1,-0.1044311999999999,-0.1825867,0.9776154,1.0,-0.04658508,-0.1874694999999999,0.9811554,-31.25047,6.185576999999999,-38.69435,3.853455,0.4895872,0.4994851999999999,1.0,-0.1693267999999999,-0.1763458,0.9696503,36.2816,10.2117,-43.50941,3.751816,0.396757,0.3886418,-0.5660626999999999,1.119059,-0.3949009,0.01161225,0.6573354,0.01886717,4.012669,258.7029,32.3245875
1,-0.09863281,-0.1895142,0.9768982,1.0,-0.03799438,-0.1873168999999999,0.9815521,-31.23631,6.175232,-38.71587,3.843033,0.4875224,0.5000076,1.0,-0.1530151,-0.190918,0.9696045,36.31705,10.22552,-43.49672,3.5558620000000003,0.3923163,0.3908538,-0.5658858,1.1175389999999998,-0.3953003,0.01670747,0.6582626,0.01530669,4.012669,258.7029,32.3245875
1,-0.09863281,-0.1895142,0.9768982,1.0,-0.03799438,-0.1873168999999999,0.9815521,-31.23631,6.175232,-38.71587,3.843033,0.4875224,0.5000076,1.0,-0.1530151,-0.190918,0.9696045,36.31705,10.22552,-43.49672,3.5558620000000003,0.3923163,0.3908538,-0.5658858,1.1175389999999998,-0.3953003,0.01670747,0.6582626,0.01530669,4.012669,258.7029,32.3245875
1,-0.09863281,-0.1895142,0.9768982,1.0,-0.03799438,-0.1873168999999999,0.9815521,-31.23631,6.175232,-38.71587,3.843033,0.4875224,0.5000076,1.0,-0.1530151,-0.190918,0.9696045,36.31705,10.22552,-43.49672,3.5558620000000003,0.3923163,0.3908538,-0.5658858,1.1175389999999998,-0.3953003,0.01670747,0.6582626,0.01530669,4.012669,258.7029,32.3245875
1,-0.09849548,-0.1738892,0.9798126,1.0,-0.04364014,-0.1720276,0.9841156,-31.24628,6.220428,-38.72151,3.678757,0.4889446,0.4954984,1.0,-0.1493529999999999,-0.1751404,0.9731445,36.31505,10.27034,-43.48662,3.5226589999999995,0.3917323,0.3856727,-0.5649306,1.113665,-0.3963802999999999,0.02905011,0.6610695,0.005478564,4.012669,258.7029,32.3245875
1,-0.09849548,-0.1738892,0.9798126,1.0,-0.04364014,-0.1720276,0.9841156,-31.24628,6.220428,-38.72151,3.678757,0.4889446,0.4954984,1.0,-0.1493529999999999,-0.1751404,0.9731445,36.31505,10.27034,-43.48662,3.5226589999999995,0.3917323,0.3856727,-0.5649306,1.113665,-0.3963802999999999,0.02905011,0.6610695,0.005478564,4.012669,258.7029,32.3245875
1,-0.09849548,-0.1738892,0.9798126,1.0,-0.04364014,-0.1720276,0.9841156,-31.24628,6.220428,-38.72151,3.678757,0.4889446,0.4954984,1.0,-0.1493529999999999,-0.1751404,0.9731445,36.31505,10.27034,-43.48662,3.5226589999999995,0.3917323,0.3856727,-0.5649306,1.113665,-0.3963802999999999,0.02905011,0.6610695,0.005478564,4.012669,258.7029,32.3245875
1,-0.07759094,-0.1803741,0.9805298,1.0,-0.03843689,-0.1612549,0.9861603,-31.24394,6.289139,-38.74171,3.665451,0.4879396,0.4911484,1.0,-0.1191864,-0.2003783999999999,0.9724274,36.3181,10.34503,-43.45308,3.1008,0.3859951,0.3874895,-0.5640309,1.1108870000000002,-0.3971395,0.0363514,0.6631269000000001,-0.001508692,4.012669,258.7029,32.3245875
1,-0.07759094,-0.1803741,0.9805298,1.0,-0.03843689,-0.1612549,0.9861603,-31.24394,6.289139,-38.74171,3.665451,0.4879396,0.4911484,1.0,-0.1191864,-0.2003783999999999,0.9724274,36.3181,10.34503,-43.45308,3.1008,0.3859951,0.3874895,-0.5640309,1.1108870000000002,-0.3971395,0.0363514,0.6631269000000001,-0.001508692,4.012669,258.7029,32.3245875
1,-0.07759094,-0.1803741,0.9805298,1.0,-0.03843689,-0.1612549,0.9861603,-31.24394,6.289139,-38.74171,3.665451,0.4879396,0.4911484,1.0,-0.1191864,-0.2003783999999999,0.9724274,36.3181,10.34503,-43.45308,3.1008,0.3859951,0.3874895,-0.5640309,1.1108870000000002,-0.3971395,0.0363514,0.6631269000000001,-0.001508692,4.012669,258.7029,32.3245875
1,-0.08824158,-0.173584,0.9808502,1.0,-0.03610229,-0.1581726,0.9867401,-31.237170000000003,6.451477,-38.88193,3.728134,0.4873035,0.486044,1.0,-0.09796143,-0.1764069,0.9794159,36.31129,10.45291,-43.41968,3.034119,0.3821478,0.3776873,-0.5628964,1.108038,-0.3983125999999999,0.0433671,0.6662892,-0.009341371,4.012669,-45.6485,32.3245875
1,-0.08824158,-0.173584,0.9808502,1.0,-0.03610229,-0.1581726,0.9867401,-31.237170000000003,6.451477,-38.88193,3.728134,0.4873035,0.486044,1.0,-0.09796143,-0.1764069,0.9794159,36.31129,10.45291,-43.41968,3.034119,0.3821478,0.3776873,-0.5628964,1.108038,-0.3983125999999999,0.0433671,0.6662892,-0.009341371,4.012669,-45.6485,32.3245875
1,-0.08824158,-0.173584,0.9808502,1.0,-0.03610229,-0.1581726,0.9867401,-31.237170000000003,6.451477,-38.88193,3.728134,0.4873035,0.486044,1.0,-0.09796143,-0.1764069,0.9794159,36.31129,10.45291,-43.41968,3.034119,0.3821478,0.3776873,-0.5628964,1.108038,-0.3983125999999999,0.0433671,0.6662892,-0.009341371,4.012669,-45.6485,32.3245875
1,-0.1269836,-0.1482239,0.9807587,1.0,-0.03639221,-0.1252289,0.9914551,-31.21246,6.916855,-40.1644,3.871155,0.4866576,0.4752997,1.0,-0.1269989,-0.1482239,0.9807587,36.33818,10.5448,-43.4175,3.46579,0.3864774,0.3682094999999999,-0.5614538,1.104934,-0.3996531,0.05010674,0.6691473000000001,-0.01499069,4.012669,-45.6485,32.3245875
1,-0.1269836,-0.1482239,0.9807587,1.0,-0.03639221,-0.1252289,0.9914551,-31.21246,6.916855,-40.1644,3.871155,0.4866576,0.4752997,1.0,-0.1269989,-0.1482239,0.9807587,36.33818,10.5448,-43.4175,3.46579,0.3864774,0.3682094999999999,-0.5614538,1.104934,-0.3996531,0.05010674,0.6691473000000001,-0.01499069,4.012669,-45.6485,32.3245875
1,-0.1269836,-0.1482239,0.9807587,1.0,-0.03639221,-0.1252289,0.9914551,-31.21246,6.916855,-40.1644,3.871155,0.4866576,0.4752997,1.0,-0.1269989,-0.1482239,0.9807587,36.33818,10.5448,-43.4175,3.46579,0.3864774,0.3682094999999999,-0.5614538,1.104934,-0.3996531,0.05010674,0.6691473000000001,-0.01499069,4.012669,-45.6485,32.3245875
1,-0.116272,-0.1684418,0.9788208,1.0,-0.02972412,-0.1327362,0.9906921,-31.19453,6.832016,-39.75082,3.695847,0.4847436,0.4757455,1.0,-0.116272,-0.1684418,0.9788208,36.34561,10.57927,-43.40666,3.160202,0.3843075999999999,0.3709829,-0.559952,1.101344,-0.4009342999999999,0.05964674,0.6731001999999999,-0.02459724,4.012669,-45.6485,32.3245875
1,-0.116272,-0.1684418,0.9788208,1.0,-0.02972412,-0.1327362,0.9906921,-31.19453,6.832016,-39.75082,3.695847,0.4847436,0.4757455,1.0,-0.116272,-0.1684418,0.9788208,36.34561,10.57927,-43.40666,3.160202,0.3843075999999999,0.3709829,-0.559952,1.101344,-0.4009342999999999,0.05964674,0.6731001999999999,-0.02459724,4.012669,-45.6485,32.3245875
1,-0.116272,-0.1684418,0.9788208,1.0,-0.02972412,-0.1327362,0.9906921,-31.19453,6.832016,-39.75082,3.695847,0.4847436,0.4757455,1.0,-0.116272,-0.1684418,0.9788208,36.34561,10.57927,-43.40666,3.160202,0.3843075999999999,0.3709829,-0.559952,1.101344,-0.4009342999999999,0.05964674,0.6731001999999999,-0.02459724,4.012669,-45.6485,32.3245875
2,-0.1376953,-0.157959,0.9777832,1.0,-0.02949524,-0.1545868,0.9875336,-31.11626,6.34874,-39.14821,3.69606,0.4817018,0.4916286,1.0,-0.1377563,-0.157959,0.9777832,36.21791,10.24948,-43.49783,3.625702,0.3932107999999999,0.3829508,-0.5582623000000001,1.096384,-0.4022714,0.0705309,0.6770136999999999,-0.03505518,4.012669,-45.6485,32.3245875
2,-0.1376953,-0.157959,0.9777832,1.0,-0.02949524,-0.1545868,0.9875336,-31.11626,6.34874,-39.14821,3.69606,0.4817018,0.4916286,1.0,-0.1377563,-0.157959,0.9777832,36.21791,10.24948,-43.49783,3.625702,0.3932107999999999,0.3829508,-0.5582623000000001,1.096384,-0.4022714,0.0705309,0.6770136999999999,-0.03505518,4.012669,-45.6485,32.3245875
2,-0.1376953,-0.157959,0.9777832,1.0,-0.02949524,-0.1545868,0.9875336,-31.11626,6.34874,-39.14821,3.69606,0.4817018,0.4916286,1.0,-0.1377563,-0.157959,0.9777832,36.21791,10.24948,-43.49783,3.625702,0.3932107999999999,0.3829508,-0.5582623000000001,1.096384,-0.4022714,0.0705309,0.6770136999999999,-0.03505518,4.012669,-45.6485,32.3245875
2,-0.1419373,-0.2098236,0.9673767,1.0,-0.02648926,-0.2449341,0.969162,-30.94048,5.81398,-39.2659,3.5382230000000003,0.4745648,0.5295802,1.0,-0.1425780999999999,-0.2096251999999999,0.9673157,36.23492,9.769089,-43.61534,3.666733,0.3933054,0.4137705,-0.5567496999999999,1.090454,-0.4036026,0.08444441,0.6804044,-0.04760496,4.012669,-45.6485,32.3245875
2,-0.1419373,-0.2098236,0.9673767,1.0,-0.02648926,-0.2449341,0.969162,-30.94048,5.81398,-39.2659,3.5382230000000003,0.4745648,0.5295802,1.0,-0.1425780999999999,-0.2096251999999999,0.9673157,36.23492,9.769089,-43.61534,3.666733,0.3933054,0.4137705,-0.5567496999999999,1.090454,-0.4036026,0.08444441,0.6804044,-0.04760496,4.012669,-45.6485,32.3245875
2,-0.1419373,-0.2098236,0.9673767,1.0,-0.02648926,-0.2449341,0.969162,-30.94048,5.81398,-39.2659,3.5382230000000003,0.4745648,0.5295802,1.0,-0.1425780999999999,-0.2096251999999999,0.9673157,36.23492,9.769089,-43.61534,3.666733,0.3933054,0.4137705,-0.5567496999999999,1.090454,-0.4036026,0.08444441,0.6804044,-0.04760496,4.012669,-45.6485,32.3245875
2,-0.1275024,-0.2342224,0.9637756,1.0,-0.01997375,-0.2444,0.9694672,-30.964170000000003,5.818054,-39.26498,3.542389,0.47425,0.5293114999999999,1.0,-0.1541443,-0.2312469,0.9606018,36.33038,9.786621,-43.61755,3.477295,0.3919152,0.4177265,-0.5550644,1.084519,-0.4046972,0.09600499,0.6833463000000001,-0.05880958,4.012669,-45.6485,32.3245875
2,-0.1275024,-0.2342224,0.9637756,1.0,-0.01997375,-0.2444,0.9694672,-30.964170000000003,5.818054,-39.26498,3.542389,0.47425,0.5293114999999999,1.0,-0.1541443,-0.2312469,0.9606018,36.33038,9.786621,-43.61755,3.477295,0.3919152,0.4177265,-0.5550644,1.084519,-0.4046972,0.09600499,0.6833463000000001,-0.05880958,4.012669,-45.6485,32.3245875
2,-0.1275024,-0.2342224,0.9637756,1.0,-0.01997375,-0.2444,0.9694672,-30.964170000000003,5.818054,-39.26498,3.542389,0.47425,0.5293114999999999,1.0,-0.1541443,-0.2312469,0.9606018,36.33038,9.786621,-43.61755,3.477295,0.3919152,0.4177265,-0.5550644,1.084519,-0.4046972,0.09600499,0.6833463000000001,-0.05880958,4.012669,-45.6485,32.3245875
2,-0.1275024,-0.2342224,0.9637756,1.0,-0.01997375,-0.2444,0.9694672,-30.964170000000003,5.818054,-39.26498,3.542389,0.47425,0.5293114999999999,1.0,-0.1541443,-0.2312469,0.9606018,36.33038,9.786621,-43.61755,3.477295,0.3919152,0.4177265,-0.5543394,1.078426,-0.4060038,0.1102591999999999,0.6860669,-0.07087304,4.012669,-243.5453,32.3245875
2,-0.1275024,-0.2342224,0.9637756,1.0,-0.01997375,-0.2444,0.9694672,-30.964170000000003,5.818054,-39.26498,3.542389,0.47425,0.5293114999999999,1.0,-0.1541443,-0.2312469,0.9606018,36.33038,9.786621,-43.61755,3.477295,0.3919152,0.4177265,-0.5543394,1.078426,-0.4060038,0.1102591999999999,0.6860669,-0.07087304,4.012669,-243.5453,32.3245875
2,-0.1275024,-0.2342224,0.9637756,1.0,-0.01997375,-0.2444,0.9694672,-30.964170000000003,5.818054,-39.26498,3.542389,0.47425,0.5293114999999999,1.0,-0.1541443,-0.2312469,0.9606018,36.33038,9.786621,-43.61755,3.477295,0.3919152,0.4177265,-0.5543394,1.078426,-0.4060038,0.1102591999999999,0.6860669,-0.07087304,4.012669,-243.5453,32.3245875
2,-0.05302429,-0.1835175,0.9815674,1.0,-0.01222229,-0.1854706,0.9825592,-30.85808,6.181793,-39.17368,3.665359,0.4690650999999999,0.5037259,1.0,-0.09382629,-0.1812592,0.9789429,36.47849,10.10953,-43.4949,3.42305,0.3744238,0.3926542,-0.5538086,1.0732,-0.4074404,0.1215464999999999,0.6897065,-0.08096872,4.012669,-243.5453,32.3245875
2,-0.05302429,-0.1835175,0.9815674,1.0,-0.01222229,-0.1854706,0.9825592,-30.85808,6.181793,-39.17368,3.665359,0.4690650999999999,0.5037259,1.0,-0.09382629,-0.1812592,0.9789429,36.47849,10.10953,-43.4949,3.42305,0.3744238,0.3926542,-0.5538086,1.0732,-0.4074404,0.1215464999999999,0.6897065,-0.08096872,4.012669,-243.5453,32.3245875
2,-0.05302429,-0.1835175,0.9815674,1.0,-0.01222229,-0.1854706,0.9825592,-30.85808,6.181793,-39.17368,3.665359,0.4690650999999999,0.5037259,1.0,-0.09382629,-0.1812592,0.9789429,36.47849,10.10953,-43.4949,3.42305,0.3744238,0.3926542,-0.5538086,1.0732,-0.4074404,0.1215464999999999,0.6897065,-0.08096872,4.012669,-243.5453,32.3245875
2,-0.07066345,-0.2043152,0.9763489,1.0,-0.009796143,-0.126358,0.9919281,-30.78006,6.960953,-40.69585,3.925827,0.4658075,0.4789149,1.0,-0.07066345,-0.2043152,0.9763336,36.60381,10.42619,-43.40646,3.068741,0.365123,0.3838897999999999,-0.5534693,1.067873,-0.4091088,0.1327963999999999,0.6930012,-0.09051336,4.012669,-243.5453,32.3245875
2,-0.07066345,-0.2043152,0.9763489,1.0,-0.009796143,-0.126358,0.9919281,-30.78006,6.960953,-40.69585,3.925827,0.4658075,0.4789149,1.0,-0.07066345,-0.2043152,0.9763336,36.60381,10.42619,-43.40646,3.068741,0.365123,0.3838897999999999,-0.5534693,1.067873,-0.4091088,0.1327963999999999,0.6930012,-0.09051336,4.012669,-243.5453,32.3245875
2,-0.07066345,-0.2043152,0.9763489,1.0,-0.009796143,-0.126358,0.9919281,-30.78006,6.960953,-40.69585,3.925827,0.4658075,0.4789149,1.0,-0.07066345,-0.2043152,0.9763336,36.60381,10.42619,-43.40646,3.068741,0.365123,0.3838897999999999,-0.5534693,1.067873,-0.4091088,0.1327963999999999,0.6930012,-0.09051336,4.012669,-243.5453,32.3245875
2,-0.09011841,-0.180954,0.9793396,1.0,0.003616333,-0.1398926,0.9901581,-30.72131,6.332077,-39.36453,3.99733,0.4612141999999999,0.4915085999999999,1.0,-0.09011841,-0.180954,0.9793396,36.50737,10.18163,-43.47763,3.526184,0.3724628,0.3894537,-0.5535741,1.062488,-0.41081,0.1460964,0.6950516,-0.101588,4.012669,-243.5453,32.3245875
2,-0.09011841,-0.180954,0.9793396,1.0,0.003616333,-0.1398926,0.9901581,-30.72131,6.332077,-39.36453,3.99733,0.4612141999999999,0.4915085999999999,1.0,-0.09011841,-0.180954,0.9793396,36.50737,10.18163,-43.47763,3.526184,0.3724628,0.3894537,-0.5535741,1.062488,-0.41081,0.1460964,0.6950516,-0.101588,4.012669,-243.5453,32.3245875
2,-0.09011841,-0.180954,0.9793396,1.0,0.003616333,-0.1398926,0.9901581,-30.72131,6.332077,-39.36453,3.99733,0.4612141999999999,0.4915085999999999,1.0,-0.09011841,-0.180954,0.9793396,36.50737,10.18163,-43.47763,3.526184,0.3724628,0.3894537,-0.5535741,1.062488,-0.41081,0.1460964,0.6950516,-0.101588,4.012669,-243.5453,32.3245875
2,-0.08021545,-0.305191,0.9488983,1.0,-0.01081848,-0.3452606,0.9384308,-30.62251,5.283447,-39.67763,3.648651,0.459729,0.573126,1.0,-0.1221771,-0.2798462,0.9522247,36.33435,9.192062,-43.79335,3.824738,0.3848838,0.4524022,-0.5534494000000001,1.050294,-0.4137626,0.169696,0.6981399,-0.1268435,4.012669,-269.9958,32.3245875
2,-0.08021545,-0.305191,0.9488983,1.0,-0.01081848,-0.3452606,0.9384308,-30.62251,5.283447,-39.67763,3.648651,0.459729,0.573126,1.0,-0.1221771,-0.2798462,0.9522247,36.33435,9.192062,-43.79335,3.824738,0.3848838,0.4524022,-0.5534494000000001,1.050294,-0.4137626,0.169696,0.6981399,-0.1268435,4.012669,-269.9958,32.3245875
2,-0.08021545,-0.305191,0.9488983,1.0,-0.01081848,-0.3452606,0.9384308,-30.62251,5.283447,-39.67763,3.648651,0.459729,0.573126,1.0,-0.1221771,-0.2798462,0.9522247,36.33435,9.192062,-43.79335,3.824738,0.3848838,0.4524022,-0.5534494000000001,1.050294,-0.4137626,0.169696,0.6981399,-0.1268435,4.012669,-269.9958,32.3245875
2,-0.07769775,-0.2996063,0.950882,1.0,-0.01318359,-0.311264,0.9502258,-30.58189,5.323441000000001,-39.65083,3.821411,0.4587020999999999,0.5644901,1.0,-0.1189117,-0.2914580999999999,0.9491577,36.53802,9.238815,-43.77072,3.487778,0.376448,0.4527600999999999,-0.5538563,1.043814,-0.4145475999999999,0.1809726,0.6966216,-0.1439329,4.012669,-269.9958,32.3245875
2,-0.07769775,-0.2996063,0.950882,1.0,-0.01318359,-0.311264,0.9502258,-30.58189,5.323441000000001,-39.65083,3.821411,0.4587020999999999,0.5644901,1.0,-0.1189117,-0.2914580999999999,0.9491577,36.53802,9.238815,-43.77072,3.487778,0.376448,0.4527600999999999,-0.5538563,1.043814,-0.4145475999999999,0.1809726,0.6966216,-0.1439329,4.012669,-269.9958,32.3245875
2,-0.07769775,-0.2996063,0.950882,1.0,-0.01318359,-0.311264,0.9502258,-30.58189,5.323441000000001,-39.65083,3.821411,0.4587020999999999,0.5644901,1.0,-0.1189117,-0.2914580999999999,0.9491577,36.53802,9.238815,-43.77072,3.487778,0.376448,0.4527600999999999,-0.5538563,1.043814,-0.4145475999999999,0.1809726,0.6966216,-0.1439329,4.012669,-269.9958,32.3245875
2,-0.06211853,-0.2641295999999999,0.9624786,1.0,-0.01570129,-0.2644652999999999,0.9642639,-30.48198,5.5266720000000005,-39.56967,3.673874,0.455613,0.546886,1.0,-0.1061553999999999,-0.2632904,0.958847,36.67897,9.497665,-43.67688,3.555664,0.3685207,0.4355173,-0.5535328,1.037344,-0.4146962,0.1883433,0.6934863,-0.1592876,4.012669,-269.9958,32.3245875
2,-0.06211853,-0.2641295999999999,0.9624786,1.0,-0.01570129,-0.2644652999999999,0.9642639,-30.48198,5.5266720000000005,-39.56967,3.673874,0.455613,0.546886,1.0,-0.1061553999999999,-0.2632904,0.958847,36.67897,9.497665,-43.67688,3.555664,0.3685207,0.4355173,-0.5535328,1.037344,-0.4146962,0.1883433,0.6934863,-0.1592876,4.012669,-269.9958,32.3245875
2,-0.06211853,-0.2641295999999999,0.9624786,1.0,-0.01570129,-0.2644652999999999,0.9642639,-30.48198,5.5266720000000005,-39.56967,3.673874,0.455613,0.546886,1.0,-0.1061553999999999,-0.2632904,0.958847,36.67897,9.497665,-43.67688,3.555664,0.3685207,0.4355173,-0.5535328,1.037344,-0.4146962,0.1883433,0.6934863,-0.1592876,4.012669,-269.9958,32.3245875
2,-0.06697083,-0.2841492,0.9564362,1.0,-0.01173401,-0.2910004,0.9566345,-30.49619,5.700302,-39.52159,3.595413,0.4554269,0.5452661999999999,1.0,-0.1112366,-0.2779999,0.9541016,36.7372,9.581894,-43.65611,3.542755,0.3672052,0.4351092,-0.5537288,1.031253,-0.4147969,0.1981723,0.6888159,-0.1721052,4.012669,-269.9958,32.3245875
2,-0.06697083,-0.2841492,0.9564362,1.0,-0.01173401,-0.2910004,0.9566345,-30.49619,5.700302,-39.52159,3.595413,0.4554269,0.5452661999999999,1.0,-0.1112366,-0.2779999,0.9541016,36.7372,9.581894,-43.65611,3.542755,0.3672052,0.4351092,-0.5537288,1.031253,-0.4147969,0.1981723,0.6888159,-0.1721052,4.012669,-269.9958,32.3245875
2,-0.06697083,-0.2841492,0.9564362,1.0,-0.01173401,-0.2910004,0.9566345,-30.49619,5.700302,-39.52159,3.595413,0.4554269,0.5452661999999999,1.0,-0.1112366,-0.2779999,0.9541016,36.7372,9.581894,-43.65611,3.542755,0.3672052,0.4351092,-0.5537288,1.031253,-0.4147969,0.1981723,0.6888159,-0.1721052,4.012669,-269.9958,32.3245875
2,-0.06504822,-0.2609252999999999,0.96315,1.0,-0.004638672,-0.2550049,0.9669189,-30.54791,5.8856660000000005,-39.46805,3.770477,0.456126,0.5308459,1.0,-0.1158295,-0.2651672,0.9572144,36.69119,9.739746,-43.60454,3.447617,0.3700967,0.4258478,-0.5533879,1.02536,-0.4150869,0.2034037999999999,0.6865041000000001,-0.1825496,4.012669,-269.9958,32.3245875
2,-0.06504822,-0.2609252999999999,0.96315,1.0,-0.004638672,-0.2550049,0.9669189,-30.54791,5.8856660000000005,-39.46805,3.770477,0.456126,0.5308459,1.0,-0.1158295,-0.2651672,0.9572144,36.69119,9.739746,-43.60454,3.447617,0.3700967,0.4258478,-0.5533879,1.02536,-0.4150869,0.2034037999999999,0.6865041000000001,-0.1825496,4.012669,-269.9958,32.3245875
2,-0.06504822,-0.2609252999999999,0.96315,1.0,-0.004638672,-0.2550049,0.9669189,-30.54791,5.8856660000000005,-39.46805,3.770477,0.456126,0.5308459,1.0,-0.1158295,-0.2651672,0.9572144,36.69119,9.739746,-43.60454,3.447617,0.3700967,0.4258478,-0.5533879,1.02536,-0.4150869,0.2034037999999999,0.6865041000000001,-0.1825496,4.012669,-269.9958,32.3245875
2,-0.06930542,-0.2651062,0.9617157,1.0,-0.01812744,-0.2595978,0.9655457,-30.62122,5.956024,-39.44661,3.748077,0.4612867,0.5290020000000001,1.0,-0.1126708999999999,-0.2692413,0.9564514,36.63866,9.833435,-43.58069,3.3990940000000003,0.3716045,0.4228272,-0.5536661999999999,1.019263,-0.415609,0.2118496,0.6846665,-0.1932915,4.012669,-26.32056,32.3245875
2,-0.06930542,-0.2651062,0.9617157,1.0,-0.01812744,-0.2595978,0.9655457,-30.62122,5.956024,-39.44661,3.748077,0.4612867,0.5290020000000001,1.0,-0.1126708999999999,-0.2692413,0.9564514,36.63866,9.833435,-43.58069,3.3990940000000003,0.3716045,0.4228272,-0.5536661999999999,1.019263,-0.415609,0.2118496,0.6846665,-0.1932915,4.012669,-26.32056,32.3245875
2,-0.06930542,-0.2651062,0.9617157,1.0,-0.01812744,-0.2595978,0.9655457,-30.62122,5.956024,-39.44661,3.748077,0.4612867,0.5290020000000001,1.0,-0.1126708999999999,-0.2692413,0.9564514,36.63866,9.833435,-43.58069,3.3990940000000003,0.3716045,0.4228272,-0.5536661999999999,1.019263,-0.415609,0.2118496,0.6846665,-0.1932915,4.012669,-26.32056,32.3245875
2,-0.04200745,-0.2875061,0.9568481,1.0,0.02546692,-0.281311,0.9592743,-30.31584,5.3921660000000005,-39.63112,4.170486,0.4419019,0.5557243000000001,1.0,-0.09367371,-0.2913817999999999,0.9519958,36.66986,9.200287,-43.77255,3.697403,0.3661212,0.453842,-0.5540045,1.013464,-0.4161225999999999,0.2197091,0.682774,-0.2028287,4.012669,-26.32056,33.55
2,-0.04200745,-0.2875061,0.9568481,1.0,0.02546692,-0.281311,0.9592743,-30.31584,5.3921660000000005,-39.63112,4.170486,0.4419019,0.5557243000000001,1.0,-0.09367371,-0.2913817999999999,0.9519958,36.66986,9.200287,-43.77255,3.697403,0.3661212,0.453842,-0.5540045,1.013464,-0.4161225999999999,0.2197091,0.682774,-0.2028287,4.012669,-26.32056,33.55
2,-0.04200745,-0.2875061,0.9568481,1.0,0.02546692,-0.281311,0.9592743,-30.31584,5.3921660000000005,-39.63112,4.170486,0.4419019,0.5557243000000001,1.0,-0.09367371,-0.2913817999999999,0.9519958,36.66986,9.200287,-43.77255,3.697403,0.3661212,0.453842,-0.5540045,1.013464,-0.4161225999999999,0.2197091,0.682774,-0.2028287,4.012669,-26.32056,33.55
2,-0.01603699,-0.3015594,0.9533081,1.0,0.03785706,-0.3009491,0.9528809,-30.33449,5.385178,-39.64063,4.112564,0.4403138,0.5599693,1.0,-0.09399414,-0.3009033,0.9490051,36.81393,9.216782,-43.75862,3.555557,0.3605627,0.4550350999999999,-0.5541998,1.0072370000000002,-0.4165640999999999,0.2280738,0.6806911,-0.2120157,4.012669,-26.32056,33.55
2,-0.01603699,-0.3015594,0.9533081,1.0,0.03785706,-0.3009491,0.9528809,-30.33449,5.385178,-39.64063,4.112564,0.4403138,0.5599693,1.0,-0.09399414,-0.3009033,0.9490051,36.81393,9.216782,-43.75862,3.555557,0.3605627,0.4550350999999999,-0.5541998,1.0072370000000002,-0.4165640999999999,0.2280738,0.6806911,-0.2120157,4.012669,-26.32056,33.55
2,-0.01603699,-0.3015594,0.9533081,1.0,0.03785706,-0.3009491,0.9528809,-30.33449,5.385178,-39.64063,4.112564,0.4403138,0.5599693,1.0,-0.09399414,-0.3009033,0.9490051,36.81393,9.216782,-43.75862,3.555557,0.3605627,0.4550350999999999,-0.5541998,1.0072370000000002,-0.4165640999999999,0.2280738,0.6806911,-0.2120157,4.012669,-26.32056,33.55
2,-0.007492065,-0.2811432,0.9596252,1.0,0.02374268,-0.2964172,0.9547577,-30.3369,5.386749,-39.6385,4.180176,0.4429670999999999,0.5589769,1.0,-0.06634521,-0.2514191,0.9655914,36.82066,9.154633,-43.75252,4.007935,0.3546566,0.4466031,-0.5550670999999999,1.001267,-0.4168612,0.2376276,0.6768791000000001,-0.2223632,4.012669,-26.32056,33.55
2,-0.007492065,-0.2811432,0.9596252,1.0,0.02374268,-0.2964172,0.9547577,-30.3369,5.386749,-39.6385,4.180176,0.4429670999999999,0.5589769,1.0,-0.06634521,-0.2514191,0.9655914,36.82066,9.154633,-43.75252,4.007935,0.3546566,0.4466031,-0.5550670999999999,1.001267,-0.4168612,0.2376276,0.6768791000000001,-0.2223632,4.012669,-26.32056,33.55
2,-0.007492065,-0.2811432,0.9596252,1.0,0.02374268,-0.2964172,0.9547577,-30.3369,5.386749,-39.6385,4.180176,0.4429670999999999,0.5589769,1.0,-0.06634521,-0.2514191,0.9655914,36.82066,9.154633,-43.75252,4.007935,0.3546566,0.4466031,-0.5550670999999999,1.001267,-0.4168612,0.2376276,0.6768791000000001,-0.2223632,4.012669,-26.32056,33.55
2,-0.03988647,-0.2937164,0.9550476,1.0,0.02552795,-0.2879639,0.9572906,-30.32175,5.51149,-39.59366,4.011871,0.4421435999999999,0.5522511999999999,1.0,-0.115921,-0.2987975999999999,0.9472351,36.95776,9.389969,-43.71497,3.239777,0.3594964,0.4476347,-0.5549729,0.9960836,-0.4170332999999999,0.2416102,0.6742014000000001,-0.2301188,4.012669,-26.32056,33.55
2,-0.03988647,-0.2937164,0.9550476,1.0,0.02552795,-0.2879639,0.9572906,-30.32175,5.51149,-39.59366,4.011871,0.4421435999999999,0.5522511999999999,1.0,-0.115921,-0.2987975999999999,0.9472351,36.95776,9.389969,-43.71497,3.239777,0.3594964,0.4476347,-0.5549729,0.9960836,-0.4170332999999999,0.2416102,0.6742014000000001,-0.2301188,4.012669,-26.32056,33.55
2,-0.03988647,-0.2937164,0.9550476,1.0,0.02552795,-0.2879639,0.9572906,-30.32175,5.51149,-39.59366,4.011871,0.4421435999999999,0.5522511999999999,1.0,-0.115921,-0.2987975999999999,0.9472351,36.95776,9.389969,-43.71497,3.239777,0.3594964,0.4476347,-0.5549729,0.9960836,-0.4170332999999999,0.2416102,0.6742014000000001,-0.2301188,4.012669,-26.32056,33.55
2,-0.03138733,-0.2510529,0.967453,1.0,0.02626038,-0.2458954,0.9689331,-30.31096,5.6338040000000005,-39.54944,4.141617,0.4417116,0.5390764,1.0,-0.0922699,-0.2556,0.9623566,36.98935,9.510437,-43.65968,3.823776,0.3532672999999999,0.4327099,-0.5546606,0.9914395,-0.4167377,0.2428372,0.6712135,-0.2360486,4.012669,134.0943,33.55
2,-0.03138733,-0.2510529,0.967453,1.0,0.02626038,-0.2458954,0.9689331,-30.31096,5.6338040000000005,-39.54944,4.141617,0.4417116,0.5390764,1.0,-0.0922699,-0.2556,0.9623566,36.98935,9.510437,-43.65968,3.823776,0.3532672999999999,0.4327099,-0.5546606,0.9914395,-0.4167377,0.2428372,0.6712135,-0.2360486,4.012669,134.0943,33.55
2,-0.03138733,-0.2510529,0.967453,1.0,0.02626038,-0.2458954,0.9689331,-30.31096,5.6338040000000005,-39.54944,4.141617,0.4417116,0.5390764,1.0,-0.0922699,-0.2556,0.9623566,36.98935,9.510437,-43.65968,3.823776,0.3532672999999999,0.4327099,-0.5546606,0.9914395,-0.4167377,0.2428372,0.6712135,-0.2360486,4.012669,134.0943,33.55
2,-0.03382874,-0.2669067,0.9631195,1.0,0.01818848,-0.2817993,0.9592896,-30.30818,5.640518,-39.55063,3.730392,0.4430305,0.5458475,1.0,-0.09014893,-0.2498474,0.9640656,37.00842,9.5121,-43.65961,3.76886,0.3521493,0.4314234999999999,-0.5555357,0.9887396,-0.4160748999999999,0.2447401,0.6663909,-0.2445802,4.012669,134.0943,33.55
2,-0.03382874,-0.2669067,0.9631195,1.0,0.01818848,-0.2817993,0.9592896,-30.30818,5.640518,-39.55063,3.730392,0.4430305,0.5458475,1.0,-0.09014893,-0.2498474,0.9640656,37.00842,9.5121,-43.65961,3.76886,0.3521493,0.4314234999999999,-0.5555357,0.9887396,-0.4160748999999999,0.2447401,0.6663909,-0.2445802,4.012669,134.0943,33.55
2,-0.03382874,-0.2669067,0.9631195,1.0,0.01818848,-0.2817993,0.9592896,-30.30818,5.640518,-39.55063,3.730392,0.4430305,0.5458475,1.0,-0.09014893,-0.2498474,0.9640656,37.00842,9.5121,-43.65961,3.76886,0.3521493,0.4314234999999999,-0.5555357,0.9887396,-0.4160748999999999,0.2447401,0.6663909,-0.2445802,4.012669,134.0943,33.55
2,-0.03382874,-0.2669067,0.9631195,1.0,0.01818848,-0.2817993,0.9592896,-30.30818,5.640518,-39.55063,3.730392,0.4430305,0.5458475,1.0,-0.09014893,-0.2498474,0.9640656,37.00842,9.5121,-43.65961,3.76886,0.3521493,0.4314234999999999,-0.5555665,0.9886792,-0.4158541,0.2429715,0.6656989000000001,-0.2465386,4.012669,134.0943,33.55
2,-0.03382874,-0.2669067,0.9631195,1.0,0.01818848,-0.2817993,0.9592896,-30.30818,5.640518,-39.55063,3.730392,0.4430305,0.5458475,1.0,-0.09014893,-0.2498474,0.9640656,37.00842,9.5121,-43.65961,3.76886,0.3521493,0.4314234999999999,-0.5555665,0.9886792,-0.4158541,0.2429715,0.6656989000000001,-0.2465386,4.012669,134.0943,33.55
2,-0.03382874,-0.2669067,0.9631195,1.0,0.01818848,-0.2817993,0.9592896,-30.30818,5.640518,-39.55063,3.730392,0.4430305,0.5458475,1.0,-0.09014893,-0.2498474,0.9640656,37.00842,9.5121,-43.65961,3.76886,0.3521493,0.4314234999999999,-0.5555665,0.9886792,-0.4158541,0.2429715,0.6656989000000001,-0.2465386,4.012669,134.0943,33.55
2,-1.0,-1.0,-1.0,1.0,0.0,0.0,0.0,-30.94398,6.112289,-39.436,-1.0,0.4779429,0.5217621,1.0,0.0,0.0,0.0,36.37625,9.971619,-43.5901,-1.0,0.3876131,0.3988952,-0.5548434,0.9901902,-0.4162964,0.2396685,0.6688571,-0.2423886,4.012669,134.0943,33.55
2,-1.0,-1.0,-1.0,1.0,0.0,0.0,0.0,-30.94398,6.112289,-39.436,-1.0,0.4779429,0.5217621,1.0,0.0,0.0,0.0,36.37625,9.971619,-43.5901,-1.0,0.3876131,0.3988952,-0.5548434,0.9901902,-0.4162964,0.2396685,0.6688571,-0.2423886,4.012669,134.0943,33.55
2,-1.0,-1.0,-1.0,1.0,0.0,0.0,0.0,-30.94398,6.112289,-39.436,-1.0,0.4779429,0.5217621,1.0,0.0,0.0,0.0,36.37625,9.971619,-43.5901,-1.0,0.3876131,0.3988952,-0.5548434,0.9901902,-0.4162964,0.2396685,0.6688571,-0.2423886,4.012669,134.0943,33.55
2,-1.0,-1.0,-1.0,1.0,0.0,0.0,0.0,-32.337309999999995,6.811493,-39.57895,-1.0,0.5731183000000001,0.4650129,1.0,0.0,0.0,0.0,35.01038,10.70454,-43.8593,-1.0,0.4870499,0.3628261,-0.5538691,0.9916852,-0.4172715999999999,0.2371931,0.6739799,-0.2367719999999999,4.012669,134.0943,33.55
2,-1.0,-1.0,-1.0,1.0,0.0,0.0,0.0,-32.337309999999995,6.811493,-39.57895,-1.0,0.5731183000000001,0.4650129,1.0,0.0,0.0,0.0,35.01038,10.70454,-43.8593,-1.0,0.4870499,0.3628261,-0.5538691,0.9916852,-0.4172715999999999,0.2371931,0.6739799,-0.2367719999999999,4.012669,134.0943,33.55
2,-1.0,-1.0,-1.0,1.0,0.0,0.0,0.0,-32.337309999999995,6.811493,-39.57895,-1.0,0.5731183000000001,0.4650129,1.0,0.0,0.0,0.0,35.01038,10.70454,-43.8593,-1.0,0.4870499,0.3628261,-0.5538691,0.9916852,-0.4172715999999999,0.2371931,0.6739799,-0.2367719999999999,4.012669,134.0943,33.55
2,-0.2945557,-0.07002258,0.9530487,1.0,-0.2620239,-0.05982971,0.9631958,-32.34244,6.457932,-39.62666,4.555084,0.5693513000000001,0.4766757,1.0,-0.3706817999999999,-0.0940093999999999,0.9239807,34.99933,10.37798,-43.92334,3.984131,0.4867698,0.3731301,-0.5531404999999999,0.9918914,-0.4183734999999999,0.2385673999999999,0.679457,-0.2340199,4.012669,99.36836,33.55
2,-0.2945557,-0.07002258,0.9530487,1.0,-0.2620239,-0.05982971,0.9631958,-32.34244,6.457932,-39.62666,4.555084,0.5693513000000001,0.4766757,1.0,-0.3706817999999999,-0.0940093999999999,0.9239807,34.99933,10.37798,-43.92334,3.984131,0.4867698,0.3731301,-0.5531404999999999,0.9918914,-0.4183734999999999,0.2385673999999999,0.679457,-0.2340199,4.012669,99.36836,33.55
2,-0.2945557,-0.07002258,0.9530487,1.0,-0.2620239,-0.05982971,0.9631958,-32.34244,6.457932,-39.62666,4.555084,0.5693513000000001,0.4766757,1.0,-0.3706817999999999,-0.0940093999999999,0.9239807,34.99933,10.37798,-43.92334,3.984131,0.4867698,0.3731301,-0.5531404999999999,0.9918914,-0.4183734999999999,0.2385673999999999,0.679457,-0.2340199,4.012669,99.36836,33.55
2,-0.2945557,-0.07002258,0.9530487,1.0,-0.2620239,-0.05982971,0.9631958,-32.34244,6.457932,-39.62666,4.555084,0.5693513000000001,0.4766757,1.0,-0.3706817999999999,-0.0940093999999999,0.9239807,34.99933,10.37798,-43.92334,3.984131,0.4867698,0.3731301,-0.5525373,0.9900959,-0.4191893,0.2402815,0.6839911,-0.2378117,4.0242,99.36836,33.55
2,-0.2945557,-0.07002258,0.9530487,1.0,-0.2620239,-0.05982971,0.9631958,-32.34244,6.457932,-39.62666,4.555084,0.5693513000000001,0.4766757,1.0,-0.3706817999999999,-0.0940093999999999,0.9239807,34.99933,10.37798,-43.92334,3.984131,0.4867698,0.3731301,-0.5525373,0.9900959,-0.4191893,0.2402815,0.6839911,-0.2378117,4.0242,99.36836,33.55
2,-0.2945557,-0.07002258,0.9530487,1.0,-0.2620239,-0.05982971,0.9631958,-32.34244,6.457932,-39.62666,4.555084,0.5693513000000001,0.4766757,1.0,-0.3706817999999999,-0.0940093999999999,0.9239807,34.99933,10.37798,-43.92334,3.984131,0.4867698,0.3731301,-0.5525373,0.9900959,-0.4191893,0.2402815,0.6839911,-0.2378117,4.0242,99.36836,33.55
2,-0.2945557,-0.07002258,0.9530487,1.0,-0.2620239,-0.05982971,0.9631958,-32.34244,6.457932,-39.62666,4.555084,0.5693513000000001,0.4766757,1.0,-0.3706817999999999,-0.0940093999999999,0.9239807,34.99933,10.37798,-43.92334,3.984131,0.4867698,0.3731301,-0.551555,0.9869885,-0.4195416,0.2434507999999999,0.685271,-0.24336,4.0242,99.36836,33.55
2,-0.2945557,-0.07002258,0.9530487,1.0,-0.2620239,-0.05982971,0.9631958,-32.34244,6.457932,-39.62666,4.555084,0.5693513000000001,0.4766757,1.0,-0.3706817999999999,-0.0940093999999999,0.9239807,34.99933,10.37798,-43.92334,3.984131,0.4867698,0.3731301,-0.551555,0.9869885,-0.4195416,0.2434507999999999,0.685271,-0.24336,4.0242,99.36836,33.55
2,-0.2945557,-0.07002258,0.9530487,1.0,-0.2620239,-0.05982971,0.9631958,-32.34244,6.457932,-39.62666,4.555084,0.5693513000000001,0.4766757,1.0,-0.3706817999999999,-0.0940093999999999,0.9239807,34.99933,10.37798,-43.92334,3.984131,0.4867698,0.3731301,-0.551555,0.9869885,-0.4195416,0.2434507999999999,0.685271,-0.24336,4.0242,99.36836,33.55
2,-0.2948914,-0.06796265,0.9531097,1.0,-0.2457886,-0.07923889,0.9660645,-32.0899,6.032166,-39.66321,4.392075,0.5570349,0.4960197,1.0,-0.3378143,-0.05778503,0.9394226,35.36,9.910889,-43.91197,4.007004,0.4661297,0.3833541,-0.5504937,0.9827114,-0.4195582999999999,0.2490409999999999,0.6834471999999999,-0.2498090999999999,4.0242,99.36836,33.55
2,-0.2948914,-0.06796265,0.9531097,1.0,-0.2457886,-0.07923889,0.9660645,-32.0899,6.032166,-39.66321,4.392075,0.5570349,0.4960197,1.0,-0.3378143,-0.05778503,0.9394226,35.36,9.910889,-43.91197,4.007004,0.4661297,0.3833541,-0.5504937,0.9827114,-0.4195582999999999,0.2490409999999999,0.6834471999999999,-0.2498090999999999,4.0242,99.36836,33.55
2,-0.2948914,-0.06796265,0.9531097,1.0,-0.2457886,-0.07923889,0.9660645,-32.0899,6.032166,-39.66321,4.392075,0.5570349,0.4960197,1.0,-0.3378143,-0.05778503,0.9394226,35.36,9.910889,-43.91197,4.007004,0.4661297,0.3833541,-0.5504937,0.9827114,-0.4195582999999999,0.2490409999999999,0.6834471999999999,-0.2498090999999999,4.0242,99.36836,33.55
2,-0.2907104,-0.06317139,0.9547119,1.0,-0.2445831,-0.07092285,0.9670258,-32.02452,6.009216,-39.66017,4.465195,0.5543759,0.4952867999999999,1.0,-0.3453217,-0.0536499,0.9369354,35.44125,9.871597,-43.90961,4.015717,0.4644455,0.3841585999999999,-0.5497618000000001,0.9781123,-0.4190862,0.255947,0.680962,-0.2583695,4.0242,99.36836,33.55
2,-0.2907104,-0.06317139,0.9547119,1.0,-0.2445831,-0.07092285,0.9670258,-32.02452,6.009216,-39.66017,4.465195,0.5543759,0.4952867999999999,1.0,-0.3453217,-0.0536499,0.9369354,35.44125,9.871597,-43.90961,4.015717,0.4644455,0.3841585999999999,-0.5497618000000001,0.9781123,-0.4190862,0.255947,0.680962,-0.2583695,4.0242,99.36836,33.55
2,-0.2907104,-0.06317139,0.9547119,1.0,-0.2445831,-0.07092285,0.9670258,-32.02452,6.009216,-39.66017,4.465195,0.5543759,0.4952867999999999,1.0,-0.3453217,-0.0536499,0.9369354,35.44125,9.871597,-43.90961,4.015717,0.4644455,0.3841585999999999,-0.5497618000000001,0.9781123,-0.4190862,0.255947,0.680962,-0.2583695,4.0242,99.36836,33.55
2,-0.2978363,-0.04779053,0.9534149,1.0,-0.2559813999999999,-0.05252075,0.9652405,-31.94046,6.006042,-39.63347,4.447266,0.5534183000000001,0.4918227,1.0,-0.3384705,-0.04302979,0.9399872,35.45917,9.884918,-43.89758,4.091812,0.4623417999999999,0.3812107999999999,-0.5492969,0.9738346,-0.4181282999999999,0.2625254,0.6777161999999999,-0.2658919,4.0242,-48.61853,33.55
2,-0.2978363,-0.04779053,0.9534149,1.0,-0.2559813999999999,-0.05252075,0.9652405,-31.94046,6.006042,-39.63347,4.447266,0.5534183000000001,0.4918227,1.0,-0.3384705,-0.04302979,0.9399872,35.45917,9.884918,-43.89758,4.091812,0.4623417999999999,0.3812107999999999,-0.5492969,0.9738346,-0.4181282999999999,0.2625254,0.6777161999999999,-0.2658919,4.0242,-48.61853,33.55
2,-0.2978363,-0.04779053,0.9534149,1.0,-0.2559813999999999,-0.05252075,0.9652405,-31.94046,6.006042,-39.63347,4.447266,0.5534183000000001,0.4918227,1.0,-0.3384705,-0.04302979,0.9399872,35.45917,9.884918,-43.89758,4.091812,0.4623417999999999,0.3812107999999999,-0.5492969,0.9738346,-0.4181282999999999,0.2625254,0.6777161999999999,-0.2658919,4.0242,-48.61853,33.55
2,-0.2846832,-0.03897095,0.9578247,1.0,-0.2210387999999999,-0.0280304,0.9748535,-31.94093,6.222733,-39.58281,4.475464,0.5470142,0.4784648,1.0,-0.3396454,-0.04846191,0.9393005,35.44638,10.08881,-43.87274,3.971207,0.4632198,0.3740045999999999,-0.5486435000000001,0.9708098,-0.4169605999999999,0.2684025,0.6750398,-0.2680330999999999,4.0242,-48.61853,33.55
2,-0.2846832,-0.03897095,0.9578247,1.0,-0.2210387999999999,-0.0280304,0.9748535,-31.94093,6.222733,-39.58281,4.475464,0.5470142,0.4784648,1.0,-0.3396454,-0.04846191,0.9393005,35.44638,10.08881,-43.87274,3.971207,0.4632198,0.3740045999999999,-0.5486435000000001,0.9708098,-0.4169605999999999,0.2684025,0.6750398,-0.2680330999999999,4.0242,-48.61853,33.55
2,-0.2846832,-0.03897095,0.9578247,1.0,-0.2210387999999999,-0.0280304,0.9748535,-31.94093,6.222733,-39.58281,4.475464,0.5470142,0.4784648,1.0,-0.3396454,-0.04846191,0.9393005,35.44638,10.08881,-43.87274,3.971207,0.4632198,0.3740045999999999,-0.5486435000000001,0.9708098,-0.4169605999999999,0.2684025,0.6750398,-0.2680330999999999,4.0242,-48.61853,33.55
3,-0.3079834,-0.009597778,0.9513397,1.0,-0.2292632999999999,-0.02278137,0.9730835,-31.98918,6.315933,-39.58769,4.494049,0.55033,0.4742217000000001,1.0,-0.3796692,0.0027618409999999,0.9251099,35.61105,10.03549,-43.86809,4.143433,0.4648366,0.366351,-0.5486823000000001,0.969505,-0.4156061,0.2733592,0.6735993,-0.2682149,4.0242,-48.61853,33.55
3,-0.3079834,-0.009597778,0.9513397,1.0,-0.2292632999999999,-0.02278137,0.9730835,-31.98918,6.315933,-39.58769,4.494049,0.55033,0.4742217000000001,1.0,-0.3796692,0.0027618409999999,0.9251099,35.61105,10.03549,-43.86809,4.143433,0.4648366,0.366351,-0.5486823000000001,0.969505,-0.4156061,0.2733592,0.6735993,-0.2682149,4.0242,-48.61853,33.55
3,-0.3079834,-0.009597778,0.9513397,1.0,-0.2292632999999999,-0.02278137,0.9730835,-31.98918,6.315933,-39.58769,4.494049,0.55033,0.4742217000000001,1.0,-0.3796692,0.0027618409999999,0.9251099,35.61105,10.03549,-43.86809,4.143433,0.4648366,0.366351,-0.5486823000000001,0.969505,-0.4156061,0.2733592,0.6735993,-0.2682149,4.0242,-48.61853,33.55
3,-0.2844085999999999,-0.01216125,0.9586182,1.0,-0.2295837,-0.02069092,0.973053,-32.0442,6.367294,-39.61263,4.505539,0.5524423,0.4722041,1.0,-0.3438567999999999,-0.0027008059999999,0.9390106,35.50912,10.11089,-43.85123,4.150482,0.4616077999999999,0.3636321,-0.5489807,0.969888,-0.4137329,0.2768165,0.6722913,-0.2647915999999999,4.0242,-48.61853,33.55
3,-0.2844085999999999,-0.01216125,0.9586182,1.0,-0.2295837,-0.02069092,0.973053,-32.0442,6.367294,-39.61263,4.505539,0.5524423,0.4722041,1.0,-0.3438567999999999,-0.0027008059999999,0.9390106,35.50912,10.11089,-43.85123,4.150482,0.4616077999999999,0.3636321,-0.5489807,0.969888,-0.4137329,0.2768165,0.6722913,-0.2647915999999999,4.0242,-48.61853,33.55
3,-0.2844085999999999,-0.01216125,0.9586182,1.0,-0.2295837,-0.02069092,0.973053,-32.0442,6.367294,-39.61263,4.505539,0.5524423,0.4722041,1.0,-0.3438567999999999,-0.0027008059999999,0.9390106,35.50912,10.11089,-43.85123,4.150482,0.4616077999999999,0.3636321,-0.5489807,0.969888,-0.4137329,0.2768165,0.6722913,-0.2647915999999999,4.0242,-48.61853,33.55
3,-0.2937775,0.0003967285,0.9558716,1.0,-0.2390747,-0.01074219,0.970932,-31.98816,6.362823000000001,-39.59911,4.469284,0.5521676,0.4704759,1.0,-0.3523865,0.01257324,0.9357605,35.52005,10.10521,-43.85585,4.227051,0.4628724,0.3609414,-0.5492016,0.9717097,-0.4114855999999999,0.2778936999999999,0.6708940999999999,-0.2593707,4.0242,-48.61853,33.55
3,-0.2937775,0.0003967285,0.9558716,1.0,-0.2390747,-0.01074219,0.970932,-31.98816,6.362823000000001,-39.59911,4.469284,0.5521676,0.4704759,1.0,-0.3523865,0.01257324,0.9357605,35.52005,10.10521,-43.85585,4.227051,0.4628724,0.3609414,-0.5492016,0.9717097,-0.4114855999999999,0.2778936999999999,0.6708940999999999,-0.2593707,4.0242,-48.61853,33.55
3,-0.2937775,0.0003967285,0.9558716,1.0,-0.2390747,-0.01074219,0.970932,-31.98816,6.362823000000001,-39.59911,4.469284,0.5521676,0.4704759,1.0,-0.3523865,0.01257324,0.9357605,35.52005,10.10521,-43.85585,4.227051,0.4628724,0.3609414,-0.5492016,0.9717097,-0.4114855999999999,0.2778936999999999,0.6708940999999999,-0.2593707,4.0242,-48.61853,33.55
3,-0.2864075,-0.002090454,0.9580994,1.0,-0.2324219,-0.01774597,0.9724426,-32.0083,6.439774,-39.60658,4.53035,0.551643,0.4689831,1.0,-0.3418884,0.01428223,0.939621,35.55002,10.16306,-43.84996,4.236786,0.4595883,0.3579868,-0.5491512,0.9744657,-0.4087338,0.2760342,0.6691476,-0.2534697999999999,4.0242,66.76208,33.55
3,-0.2864075,-0.002090454,0.9580994,1.0,-0.2324219,-0.01774597,0.9724426,-32.0083,6.439774,-39.60658,4.53035,0.551643,0.4689831,1.0,-0.3418884,0.01428223,0.939621,35.55002,10.16306,-43.84996,4.236786,0.4595883,0.3579868,-0.5491512,0.9744657,-0.4087338,0.2760342,0.6691476,-0.2534697999999999,4.0242,66.76208,33.55
3,-0.2864075,-0.002090454,0.9580994,1.0,-0.2324219,-0.01774597,0.9724426,-32.0083,6.439774,-39.60658,4.53035,0.551643,0.4689831,1.0,-0.3418884,0.01428223,0.939621,35.55002,10.16306,-43.84996,4.236786,0.4595883,0.3579868,-0.5491512,0.9744657,-0.4087338,0.2760342,0.6691476,-0.2534697999999999,4.0242,66.76208,33.55
3,-0.1306915,0.02084351,0.9911957,1.0,-0.08538818,0.0783843999999999,0.9932556,-30.8501,7.295395,-40.95622,4.483078,0.4825416,0.4312419,1.0,-0.1306915,0.02084351,0.9911957,36.63074,10.98553,-45.56761,3.586243,0.3734267,0.3349562,-0.5491977,0.9786962,-0.4052943,0.2714058,0.6664111999999999,-0.2445742,4.0242,66.76208,33.55
3,-0.1306915,0.02084351,0.9911957,1.0,-0.08538818,0.0783843999999999,0.9932556,-30.8501,7.295395,-40.95622,4.483078,0.4825416,0.4312419,1.0,-0.1306915,0.02084351,0.9911957,36.63074,10.98553,-45.56761,3.586243,0.3734267,0.3349562,-0.5491977,0.9786962,-0.4052943,0.2714058,0.6664111999999999,-0.2445742,4.0242,66.76208,33.55
3,-0.1306915,0.02084351,0.9911957,1.0,-0.08538818,0.0783843999999999,0.9932556,-30.8501,7.295395,-40.95622,4.483078,0.4825416,0.4312419,1.0,-0.1306915,0.02084351,0.9911957,36.63074,10.98553,-45.56761,3.586243,0.3734267,0.3349562,-0.5491977,0.9786962,-0.4052943,0.2714058,0.6664111999999999,-0.2445742,4.0242,66.76208,33.55
3,-0.05326843,0.01899719,0.9983978,1.0,0.06159973,0.15979,0.9852142,-29.79948,7.799301,-41.86066,4.722321,0.4156940999999999,0.4050604,1.0,-0.05326843,0.01899719,0.9983978,37.69919,10.98024,-45.02673,3.23204,0.3140125,0.3269519,-0.5487124,0.9843417,-0.4011414,0.2632784,0.6623563,-0.2318496,4.0242,66.76208,33.55
3,-0.05326843,0.01899719,0.9983978,1.0,0.06159973,0.15979,0.9852142,-29.79948,7.799301,-41.86066,4.722321,0.4156940999999999,0.4050604,1.0,-0.05326843,0.01899719,0.9983978,37.69919,10.98024,-45.02673,3.23204,0.3140125,0.3269519,-0.5487124,0.9843417,-0.4011414,0.2632784,0.6623563,-0.2318496,4.0242,66.76208,33.55
3,-0.05326843,0.01899719,0.9983978,1.0,0.06159973,0.15979,0.9852142,-29.79948,7.799301,-41.86066,4.722321,0.4156940999999999,0.4050604,1.0,-0.05326843,0.01899719,0.9983978,37.69919,10.98024,-45.02673,3.23204,0.3140125,0.3269519,-0.5487124,0.9843417,-0.4011414,0.2632784,0.6623563,-0.2318496,4.0242,66.76208,33.55
3,0.07798767,0.05665588,0.9953308,1.0,0.2158966,0.1400909,0.9663086,-28.676440000000003,7.424805,-40.28896,4.585785,0.3452191,0.4071962,1.0,0.07797241,0.05665588,0.9953308,38.85417,11.03937,-45.25237,3.639786,0.2322259,0.3107975,-0.5478429,0.9911499,-0.3961844,0.2535244,0.658231,-0.2150349,4.0242,66.76208,33.55
3,0.07798767,0.05665588,0.9953308,1.0,0.2158966,0.1400909,0.9663086,-28.676440000000003,7.424805,-40.28896,4.585785,0.3452191,0.4071962,1.0,0.07797241,0.05665588,0.9953308,38.85417,11.03937,-45.25237,3.639786,0.2322259,0.3107975,-0.5478429,0.9911499,-0.3961844,0.2535244,0.658231,-0.2150349,4.0242,66.76208,33.55
3,0.07798767,0.05665588,0.9953308,1.0,0.2158966,0.1400909,0.9663086,-28.676440000000003,7.424805,-40.28896,4.585785,0.3452191,0.4071962,1.0,0.07797241,0.05665588,0.9953308,38.85417,11.03937,-45.25237,3.639786,0.2322259,0.3107975,-0.5478429,0.9911499,-0.3961844,0.2535244,0.658231,-0.2150349,4.0242,66.76208,33.55
3,0.3147125,0.106781,0.9431458,1.0,0.3169402999999999,0.1073303,0.942337,-28.181690000000003,7.328978999999999,-40.45364,4.547653,0.3065498,0.4183585,1.0,0.1664124,0.0700531,0.983551,39.25252,10.70175,-44.34503,3.444321,0.1949771,0.3096159,-0.5471020999999999,0.9986905,-0.3906246,0.2407403,0.6542508,-0.1978064,4.0242,66.76208,33.55
3,0.3147125,0.106781,0.9431458,1.0,0.3169402999999999,0.1073303,0.942337,-28.181690000000003,7.328978999999999,-40.45364,4.547653,0.3065498,0.4183585,1.0,0.1664124,0.0700531,0.983551,39.25252,10.70175,-44.34503,3.444321,0.1949771,0.3096159,-0.5471020999999999,0.9986905,-0.3906246,0.2407403,0.6542508,-0.1978064,4.0242,66.76208,33.55
3,0.3147125,0.106781,0.9431458,1.0,0.3169402999999999,0.1073303,0.942337,-28.181690000000003,7.328978999999999,-40.45364,4.547653,0.3065498,0.4183585,1.0,0.1664124,0.0700531,0.983551,39.25252,10.70175,-44.34503,3.444321,0.1949771,0.3096159,-0.5471020999999999,0.9986905,-0.3906246,0.2407403,0.6542508,-0.1978064,4.0242,66.76208,33.55
3,0.2833099,0.1062164,0.953125,1.0,0.2833099,0.1062164,0.9531097,-28.307170000000003,7.071609,-40.42307,4.562775,0.3181482,0.4280082,1.0,0.1854858,0.08087158,0.9793091,39.27612,10.64595,-44.43037,3.845947,0.1878576,0.3093599999999999,-0.5467522,1.0064540000000002,-0.3842546,0.2243978999999999,0.6496629,-0.1806848999999999,4.0242,66.76208,33.55
3,0.2833099,0.1062164,0.953125,1.0,0.2833099,0.1062164,0.9531097,-28.307170000000003,7.071609,-40.42307,4.562775,0.3181482,0.4280082,1.0,0.1854858,0.08087158,0.9793091,39.27612,10.64595,-44.43037,3.845947,0.1878576,0.3093599999999999,-0.5467522,1.0064540000000002,-0.3842546,0.2243978999999999,0.6496629,-0.1806848999999999,4.0242,66.76208,33.55
3,0.2833099,0.1062164,0.953125,1.0,0.2833099,0.1062164,0.9531097,-28.307170000000003,7.071609,-40.42307,4.562775,0.3181482,0.4280082,1.0,0.1854858,0.08087158,0.9793091,39.27612,10.64595,-44.43037,3.845947,0.1878576,0.3093599999999999,-0.5467522,1.0064540000000002,-0.3842546,0.2243978999999999,0.6496629,-0.1806848999999999,4.0242,66.76208,33.55
3,0.2833099,0.1062164,0.953125,1.0,0.2833099,0.1062164,0.9531097,-28.307170000000003,7.071609,-40.42307,4.562775,0.3181482,0.4280082,1.0,0.1854858,0.08087158,0.9793091,39.27612,10.64595,-44.43037,3.845947,0.1878576,0.3093599999999999,-0.5472811,1.014726,-0.3772799,0.2094964,0.640788,-0.1623381,4.0242,140.5726,33.55
3,0.2833099,0.1062164,0.953125,1.0,0.2833099,0.1062164,0.9531097,-28.307170000000003,7.071609,-40.42307,4.562775,0.3181482,0.4280082,1.0,0.1854858,0.08087158,0.9793091,39.27612,10.64595,-44.43037,3.845947,0.1878576,0.3093599999999999,-0.5472811,1.014726,-0.3772799,0.2094964,0.640788,-0.1623381,4.0242,140.5726,33.55
3,0.2833099,0.1062164,0.953125,1.0,0.2833099,0.1062164,0.9531097,-28.307170000000003,7.071609,-40.42307,4.562775,0.3181482,0.4280082,1.0,0.1854858,0.08087158,0.9793091,39.27612,10.64595,-44.43037,3.845947,0.1878576,0.3093599999999999,-0.5472811,1.014726,-0.3772799,0.2094964,0.640788,-0.1623381,4.0242,140.5726,33.55
3,0.2833099,0.1062164,0.953125,1.0,0.2833099,0.1062164,0.9531097,-28.307170000000003,7.071609,-40.42307,4.562775,0.3181482,0.4280082,1.0,0.1854858,0.08087158,0.9793091,39.27612,10.64595,-44.43037,3.845947,0.1878576,0.3093599999999999,-0.5489743,1.023206,-0.3697484,0.1939734,0.6276808,-0.1430992999999999,4.0242,140.5726,33.55
3,0.2833099,0.1062164,0.953125,1.0,0.2833099,0.1062164,0.9531097,-28.307170000000003,7.071609,-40.42307,4.562775,0.3181482,0.4280082,1.0,0.1854858,0.08087158,0.9793091,39.27612,10.64595,-44.43037,3.845947,0.1878576,0.3093599999999999,-0.5489743,1.023206,-0.3697484,0.1939734,0.6276808,-0.1430992999999999,4.0242,140.5726,33.55
3,0.2833099,0.1062164,0.953125,1.0,0.2833099,0.1062164,0.9531097,-28.307170000000003,7.071609,-40.42307,4.562775,0.3181482,0.4280082,1.0,0.1854858,0.08087158,0.9793091,39.27612,10.64595,-44.43037,3.845947,0.1878576,0.3093599999999999,-0.5489743,1.023206,-0.3697484,0.1939734,0.6276808,-0.1430992999999999,4.0242,140.5726,33.55
3,0.2392882999999999,0.0496521,0.9696655,1.0,0.2392882999999999,0.0496521,0.9696655,-28.5594,6.879623,-40.32939,4.544662000000001,0.3366975,0.4449251,1.0,0.08500671,0.04458618,0.9953766,38.9418,11.07773,-46.53139,3.770294,0.2241277,0.3241268,-0.5515318,1.031668,-0.3621404,0.1776387,0.6127461,-0.1238765,4.0242,140.5726,33.55
3,0.2392882999999999,0.0496521,0.9696655,1.0,0.2392882999999999,0.0496521,0.9696655,-28.5594,6.879623,-40.32939,4.544662000000001,0.3366975,0.4449251,1.0,0.08500671,0.04458618,0.9953766,38.9418,11.07773,-46.53139,3.770294,0.2241277,0.3241268,-0.5515318,1.031668,-0.3621404,0.1776387,0.6127461,-0.1238765,4.0242,140.5726,33.55
3,0.2392882999999999,0.0496521,0.9696655,1.0,0.2392882999999999,0.0496521,0.9696655,-28.5594,6.879623,-40.32939,4.544662000000001,0.3366975,0.4449251,1.0,0.08500671,0.04458618,0.9953766,38.9418,11.07773,-46.53139,3.770294,0.2241277,0.3241268,-0.5515318,1.031668,-0.3621404,0.1776387,0.6127461,-0.1238765,4.0242,140.5726,33.55
3,0.210968,0.03942871,0.9766846,1.0,0.210968,0.03942871,0.9766846,-28.78375,6.772888000000001,-40.29817,4.575562000000001,0.3506583,0.4505883,1.0,0.008407593,-0.04588318,0.9989014,38.71257,10.76001,-45.48708,3.333939,0.2572041,0.3508915999999999,-0.5553033,1.040114,-0.3550397999999999,0.1613467999999999,0.5976523,-0.1037557,4.0242,140.5726,33.55
3,0.210968,0.03942871,0.9766846,1.0,0.210968,0.03942871,0.9766846,-28.78375,6.772888000000001,-40.29817,4.575562000000001,0.3506583,0.4505883,1.0,0.008407593,-0.04588318,0.9989014,38.71257,10.76001,-45.48708,3.333939,0.2572041,0.3508915999999999,-0.5553033,1.040114,-0.3550397999999999,0.1613467999999999,0.5976523,-0.1037557,4.0242,140.5726,33.55
3,0.210968,0.03942871,0.9766846,1.0,0.210968,0.03942871,0.9766846,-28.78375,6.772888000000001,-40.29817,4.575562000000001,0.3506583,0.4505883,1.0,0.008407593,-0.04588318,0.9989014,38.71257,10.76001,-45.48708,3.333939,0.2572041,0.3508915999999999,-0.5553033,1.040114,-0.3550397999999999,0.1613467999999999,0.5976523,-0.1037557,4.0242,140.5726,33.55
3,-1.0,-1.0,-1.0,1.0,0.0,0.0,0.0,-29.55127,8.141647,-42.5687,-1.0,0.3995982999999999,0.397583,1.0,0.0,0.0,0.0,37.95981,10.81741,-42.73726,-1.0,0.29871,0.3023244,-0.5650488,1.056604,-0.3434507,0.1303951,0.5693799,-0.06531709,4.0242,106.2304,33.55
3,-1.0,-1.0,-1.0,1.0,0.0,0.0,0.0,-29.55127,8.141647,-42.5687,-1.0,0.3995982999999999,0.397583,1.0,0.0,0.0,0.0,37.95981,10.81741,-42.73726,-1.0,0.29871,0.3023244,-0.5650488,1.056604,-0.3434507,0.1303951,0.5693799,-0.06531709,4.0242,106.2304,33.55
3,-1.0,-1.0,-1.0,1.0,0.0,0.0,0.0,-29.55127,8.141647,-42.5687,-1.0,0.3995982999999999,0.397583,1.0,0.0,0.0,0.0,37.95981,10.81741,-42.73726,-1.0,0.29871,0.3023244,-0.5650488,1.056604,-0.3434507,0.1303951,0.5693799,-0.06531709,4.0242,106.2304,33.55
3,0.07086182,0.1305388999999999,0.9889069,1.0,0.0717926,0.1315155,0.9887085,-29.83206,7.757553,-41.72203,4.524292,0.4151219,0.410487,1.0,-0.037323,0.01635742,0.9991608,37.5827,11.20924,-44.79526,3.3172910000000004,0.3152799,0.3154763,-0.5650488,1.056604,-0.3434507,0.1303951,0.5693799,-0.06531709,4.0242,106.2304,33.55
3,0.07086182,0.1305388999999999,0.9889069,1.0,0.0717926,0.1315155,0.9887085,-29.83206,7.757553,-41.72203,4.524292,0.4151219,0.410487,1.0,-0.037323,0.01635742,0.9991608,37.5827,11.20924,-44.79526,3.3172910000000004,0.3152799,0.3154763,-0.5650488,1.056604,-0.3434507,0.1303951,0.5693799,-0.06531709,4.0242,106.2304,33.55
3,0.07086182,0.1305388999999999,0.9889069,1.0,0.0717926,0.1315155,0.9887085,-29.83206,7.757553,-41.72203,4.524292,0.4151219,0.410487,1.0,-0.037323,0.01635742,0.9991608,37.5827,11.20924,-44.79526,3.3172910000000004,0.3152799,0.3154763,-0.5650488,1.056604,-0.3434507,0.1303951,0.5693799,-0.06531709,4.0242,106.2304,33.55
3,0.02281189,0.05865479,0.9980164,1.0,0.04956055,0.08586121,0.9950714,-30.10002,7.705414,-41.94928,4.495605,0.4293194999999999,0.423293,1.0,-0.02638245,0.0084838869999999,0.9996033,37.39886,10.84326,-43.58736,3.247101,0.3227016,0.3215172999999999,-0.5709943000000001,1.064222,-0.3393178,0.1171493,0.5564872,-0.04785203,4.0242,106.2304,33.55
3,0.02281189,0.05865479,0.9980164,1.0,0.04956055,0.08586121,0.9950714,-30.10002,7.705414,-41.94928,4.495605,0.4293194999999999,0.423293,1.0,-0.02638245,0.0084838869999999,0.9996033,37.39886,10.84326,-43.58736,3.247101,0.3227016,0.3215172999999999,-0.5709943000000001,1.064222,-0.3393178,0.1171493,0.5564872,-0.04785203,4.0242,106.2304,33.55
3,0.02281189,0.05865479,0.9980164,1.0,0.04956055,0.08586121,0.9950714,-30.10002,7.705414,-41.94928,4.495605,0.4293194999999999,0.423293,1.0,-0.02638245,0.0084838869999999,0.9996033,37.39886,10.84326,-43.58736,3.247101,0.3227016,0.3215172999999999,-0.5709943000000001,1.064222,-0.3393178,0.1171493,0.5564872,-0.04785203,4.0242,106.2304,33.55
3,0.01716614,0.05758667,0.9981842,1.0,0.01934814,0.05815125,0.9981079,-30.35017,7.574234,-41.59773,4.385208,0.4444545999999999,0.430141,1.0,-0.08355713,0.03109741,0.9960022,37.183040000000005,10.61862,-42.54436,3.884964,0.3437697,0.3171532,-0.5768002,1.071568,-0.3361319,0.1035493999999999,0.5456619,-0.0312711,4.0242,106.2304,33.55
3,0.01716614,0.05758667,0.9981842,1.0,0.01934814,0.05815125,0.9981079,-30.35017,7.574234,-41.59773,4.385208,0.4444545999999999,0.430141,1.0,-0.08355713,0.03109741,0.9960022,37.183040000000005,10.61862,-42.54436,3.884964,0.3437697,0.3171532,-0.5768002,1.071568,-0.3361319,0.1035493999999999,0.5456619,-0.0312711,4.0242,106.2304,33.55
3,0.01716614,0.05758667,0.9981842,1.0,0.01934814,0.05815125,0.9981079,-30.35017,7.574234,-41.59773,4.385208,0.4444545999999999,0.430141,1.0,-0.08355713,0.03109741,0.9960022,37.183040000000005,10.61862,-42.54436,3.884964,0.3437697,0.3171532,-0.5768002,1.071568,-0.3361319,0.1035493999999999,0.5456619,-0.0312711,4.0242,106.2304,33.55
3,-0.03860474,0.03701782,0.9985657,1.0,0.004653931,0.02877808,0.9995728000000002,-30.46384,7.764525999999999,-42.52911,4.359543,0.4512597,0.4374772,1.0,-0.09133911,0.04696655,0.9947052,37.00401,10.78065,-43.47639,4.275711,0.3510388,0.3161574,-0.5826701,1.0788209999999998,-0.333415,0.09041885,0.5357339,-0.01452021,4.0242,106.2304,33.55
3,-0.03860474,0.03701782,0.9985657,1.0,0.004653931,0.02877808,0.9995728000000002,-30.46384,7.764525999999999,-42.52911,4.359543,0.4512597,0.4374772,1.0,-0.09133911,0.04696655,0.9947052,37.00401,10.78065,-43.47639,4.275711,0.3510388,0.3161574,-0.5826701,1.0788209999999998,-0.333415,0.09041885,0.5357339,-0.01452021,4.0242,106.2304,33.55
3,-0.03860474,0.03701782,0.9985657,1.0,0.004653931,0.02877808,0.9995728000000002,-30.46384,7.764525999999999,-42.52911,4.359543,0.4512597,0.4374772,1.0,-0.09133911,0.04696655,0.9947052,37.00401,10.78065,-43.47639,4.275711,0.3510388,0.3161574,-0.5826701,1.0788209999999998,-0.333415,0.09041885,0.5357339,-0.01452021,4.0242,106.2304,33.55
3,-0.046875,0.001480103,0.9988861,1.0,-0.02172852,0.006607056,0.9997406,-30.77487,7.306747,-41.55388,4.251785,0.4679029,0.4494980999999999,1.0,-0.09384155,-0.0081024169999999,0.9955444,36.69276,10.88126,-44.70155,3.901443,0.3638278,0.3363348,-0.5887589,1.085715,-0.3316699999999999,0.07779902,0.5279073000000001,0.0007221777,4.0242,-26.95825,33.55
3,-0.046875,0.001480103,0.9988861,1.0,-0.02172852,0.006607056,0.9997406,-30.77487,7.306747,-41.55388,4.251785,0.4679029,0.4494980999999999,1.0,-0.09384155,-0.0081024169999999,0.9955444,36.69276,10.88126,-44.70155,3.901443,0.3638278,0.3363348,-0.5887589,1.085715,-0.3316699999999999,0.07779902,0.5279073000000001,0.0007221777,4.0242,-26.95825,33.55
3,-0.046875,0.001480103,0.9988861,1.0,-0.02172852,0.006607056,0.9997406,-30.77487,7.306747,-41.55388,4.251785,0.4679029,0.4494980999999999,1.0,-0.09384155,-0.0081024169999999,0.9955444,36.69276,10.88126,-44.70155,3.901443,0.3638278,0.3363348,-0.5887589,1.085715,-0.3316699999999999,0.07779902,0.5279073000000001,0.0007221777,4.0242,-26.95825,33.55
3,-0.046875,0.001480103,0.9988861,1.0,-0.02172852,0.006607056,0.9997406,-30.77487,7.306747,-41.55388,4.251785,0.4679029,0.4494980999999999,1.0,-0.09384155,-0.0081024169999999,0.9955444,36.69276,10.88126,-44.70155,3.901443,0.3638278,0.3363348,-0.5949432,1.09222,-0.3303937,0.06516674,0.5204135,0.01502333,4.0242,-26.95825,33.55
3,-0.046875,0.001480103,0.9988861,1.0,-0.02172852,0.006607056,0.9997406,-30.77487,7.306747,-41.55388,4.251785,0.4679029,0.4494980999999999,1.0,-0.09384155,-0.0081024169999999,0.9955444,36.69276,10.88126,-44.70155,3.901443,0.3638278,0.3363348,-0.5949432,1.09222,-0.3303937,0.06516674,0.5204135,0.01502333,4.0242,-26.95825,33.55
3,-0.046875,0.001480103,0.9988861,1.0,-0.02172852,0.006607056,0.9997406,-30.77487,7.306747,-41.55388,4.251785,0.4679029,0.4494980999999999,1.0,-0.09384155,-0.0081024169999999,0.9955444,36.69276,10.88126,-44.70155,3.901443,0.3638278,0.3363348,-0.5949432,1.09222,-0.3303937,0.06516674,0.5204135,0.01502333,4.0242,-26.95825,33.55
3,-0.046875,0.001480103,0.9988861,1.0,-0.02172852,0.006607056,0.9997406,-30.77487,7.306747,-41.55388,4.251785,0.4679029,0.4494980999999999,1.0,-0.09384155,-0.0081024169999999,0.9955444,36.69276,10.88126,-44.70155,3.901443,0.3638278,0.3363348,-0.6008023,1.098132,-0.3294816,0.05293019,0.5137407,0.02846399,4.0242,-26.95825,33.55
3,-0.046875,0.001480103,0.9988861,1.0,-0.02172852,0.006607056,0.9997406,-30.77487,7.306747,-41.55388,4.251785,0.4679029,0.4494980999999999,1.0,-0.09384155,-0.0081024169999999,0.9955444,36.69276,10.88126,-44.70155,3.901443,0.3638278,0.3363348,-0.6008023,1.098132,-0.3294816,0.05293019,0.5137407,0.02846399,4.0242,-26.95825,33.55
3,-0.046875,0.001480103,0.9988861,1.0,-0.02172852,0.006607056,0.9997406,-30.77487,7.306747,-41.55388,4.251785,0.4679029,0.4494980999999999,1.0,-0.09384155,-0.0081024169999999,0.9955444,36.69276,10.88126,-44.70155,3.901443,0.3638278,0.3363348,-0.6008023,1.098132,-0.3294816,0.05293019,0.5137407,0.02846399,4.0242,-26.95825,33.55
3,0.03063965,-0.005477905,0.9995117,1.0,0.0,0.0,0.0,-29.484820000000003,7.689316000000001,-40.20178,-1.0,0.3916494,0.4073877,1.0,0.03063965,-0.005477905,0.9995117,37.95317,11.5489,-44.60031,3.528442,0.2840422999999999,0.3008686,-0.6066779999999999,1.104457,-0.3289460999999999,0.03789581,0.5053369000000001,0.04311165,4.0242,-26.95825,33.55
3,0.03063965,-0.005477905,0.9995117,1.0,0.0,0.0,0.0,-29.484820000000003,7.689316000000001,-40.20178,-1.0,0.3916494,0.4073877,1.0,0.03063965,-0.005477905,0.9995117,37.95317,11.5489,-44.60031,3.528442,0.2840422999999999,0.3008686,-0.6066779999999999,1.104457,-0.3289460999999999,0.03789581,0.5053369000000001,0.04311165,4.0242,-26.95825,33.55
3,0.03063965,-0.005477905,0.9995117,1.0,0.0,0.0,0.0,-29.484820000000003,7.689316000000001,-40.20178,-1.0,0.3916494,0.4073877,1.0,0.03063965,-0.005477905,0.9995117,37.95317,11.5489,-44.60031,3.528442,0.2840422999999999,0.3008686,-0.6066779999999999,1.104457,-0.3289460999999999,0.03789581,0.5053369000000001,0.04311165,4.0242,-26.95825,33.55
3,0.1515503,0.06314087,0.9864197,0.8924844999999999,0.1515503,0.06314087,0.9864197,-29.542340000000003,7.487197999999999,-40.06099,4.39856,0.3904252,0.4175869,0.9442621,-0.01812744,-0.04449463,0.9988403,37.91957,11.74678,-46.071670000000005,3.116547,0.2950124,0.316934,-0.6186724,1.116564,-0.3285149,0.005230539,0.4884929,0.06570128,4.0242,-26.95825,33.55
3,0.1515503,0.06314087,0.9864197,0.8924844999999999,0.1515503,0.06314087,0.9864197,-29.542340000000003,7.487197999999999,-40.06099,4.39856,0.3904252,0.4175869,0.9442621,-0.01812744,-0.04449463,0.9988403,37.91957,11.74678,-46.071670000000005,3.116547,0.2950124,0.316934,-0.6186724,1.116564,-0.3285149,0.005230539,0.4884929,0.06570128,4.0242,-26.95825,33.55
3,0.1515503,0.06314087,0.9864197,0.8924844999999999,0.1515503,0.06314087,0.9864197,-29.542340000000003,7.487197999999999,-40.06099,4.39856,0.3904252,0.4175869,0.9442621,-0.01812744,-0.04449463,0.9988403,37.91957,11.74678,-46.071670000000005,3.116547,0.2950124,0.316934,-0.6186724,1.116564,-0.3285149,0.005230539,0.4884929,0.06570128,4.0242,-26.95825,33.55
3,0.1323547,0.03320313,0.9906311,0.9036604,0.1323547,0.03320313,0.9906311,-29.69913,7.343933,-40.10985,4.398331,0.3998532,0.4289965,0.8986198000000001,-0.04084778,-0.05371094,0.9977112,37.86263,11.15013,-43.97931,3.276321,0.305906,0.3246487,-0.6245603,1.122266,-0.3291702999999999,-0.01052711,0.4798979999999999,0.07477154,4.0242,83.97034,33.55
3,0.1323547,0.03320313,0.9906311,0.9036604,0.1323547,0.03320313,0.9906311,-29.69913,7.343933,-40.10985,4.398331,0.3998532,0.4289965,0.8986198000000001,-0.04084778,-0.05371094,0.9977112,37.86263,11.15013,-43.97931,3.276321,0.305906,0.3246487,-0.6245603,1.122266,-0.3291702999999999,-0.01052711,0.4798979999999999,0.07477154,4.0242,83.97034,33.55
3,0.1323547,0.03320313,0.9906311,0.9036604,0.1323547,0.03320313,0.9906311,-29.69913,7.343933,-40.10985,4.398331,0.3998532,0.4289965,0.8986198000000001,-0.04084778,-0.05371094,0.9977112,37.86263,11.15013,-43.97931,3.276321,0.305906,0.3246487,-0.6245603,1.122266,-0.3291702999999999,-0.01052711,0.4798979999999999,0.07477154,4.0242,83.97034,33.55
3,0.1050415,0.0084991459999999,0.9944153,0.9665834,0.1050415,0.0084991459999999,0.9944305,-29.88271,7.219222999999999,-40.329640000000005,4.201126,0.4116095,0.4402498999999999,0.9509579,-0.008758545,-0.04780579,0.9988098,37.59775,11.3148,-45.56841,3.333984,0.3079716,0.3321402,-0.6300462,1.127331,-0.3306325999999999,-0.0263409,0.4730751,0.08264665,4.0242,83.97034,33.55
3,0.1050415,0.0084991459999999,0.9944153,0.9665834,0.1050415,0.0084991459999999,0.9944305,-29.88271,7.219222999999999,-40.329640000000005,4.201126,0.4116095,0.4402498999999999,0.9509579,-0.008758545,-0.04780579,0.9988098,37.59775,11.3148,-45.56841,3.333984,0.3079716,0.3321402,-0.6300462,1.127331,-0.3306325999999999,-0.0263409,0.4730751,0.08264665,4.0242,83.97034,33.55
3,0.1050415,0.0084991459999999,0.9944153,0.9665834,0.1050415,0.0084991459999999,0.9944305,-29.88271,7.219222999999999,-40.329640000000005,4.201126,0.4116095,0.4402498999999999,0.9509579,-0.008758545,-0.04780579,0.9988098,37.59775,11.3148,-45.56841,3.333984,0.3079716,0.3321402,-0.6300462,1.127331,-0.3306325999999999,-0.0263409,0.4730751,0.08264665,4.0242,83.97034,33.55
3,0.09745789,-0.0078582759999999,0.9951935,1.0,0.09745789,-0.0078582759999999,0.9951935,-29.96631,7.059296000000001,-40.02486,4.130463,0.416254,0.4463101,1.0,-0.01023865,-0.01525879,0.9998169,37.55125,11.18849,-45.28261,3.715195,0.3100613,0.3274823,-0.6300462,1.127331,-0.3306325999999999,-0.0263409,0.4730751,0.08264665,4.0242,83.97034,33.55
3,0.09745789,-0.0078582759999999,0.9951935,1.0,0.09745789,-0.0078582759999999,0.9951935,-29.96631,7.059296000000001,-40.02486,4.130463,0.416254,0.4463101,1.0,-0.01023865,-0.01525879,0.9998169,37.55125,11.18849,-45.28261,3.715195,0.3100613,0.3274823,-0.6300462,1.127331,-0.3306325999999999,-0.0263409,0.4730751,0.08264665,4.0242,83.97034,33.55
3,0.09745789,-0.0078582759999999,0.9951935,1.0,0.09745789,-0.0078582759999999,0.9951935,-29.96631,7.059296000000001,-40.02486,4.130463,0.416254,0.4463101,1.0,-0.01023865,-0.01525879,0.9998169,37.55125,11.18849,-45.28261,3.715195,0.3100613,0.3274823,-0.6300462,1.127331,-0.3306325999999999,-0.0263409,0.4730751,0.08264665,4.0242,83.97034,33.55
3,0.08650208,-0.03923035,0.9954681,1.0,0.08668518,-0.03913879,0.9954529,-30.09727,7.022933999999999,-40.36623,4.171707,0.4229327999999999,0.4568215,1.0,-0.05278015,-0.1041565,0.9931488000000002,37.45103,10.80569,-44.06802,3.4752660000000004,0.3259188,0.3519272,-0.6353196,1.132252,-0.3325152,-0.04236526,0.4664859999999999,0.09050688,4.0242,83.97034,33.55
3,0.08650208,-0.03923035,0.9954681,1.0,0.08668518,-0.03913879,0.9954529,-30.09727,7.022933999999999,-40.36623,4.171707,0.4229327999999999,0.4568215,1.0,-0.05278015,-0.1041565,0.9931488000000002,37.45103,10.80569,-44.06802,3.4752660000000004,0.3259188,0.3519272,-0.6353196,1.132252,-0.3325152,-0.04236526,0.4664859999999999,0.09050688,4.0242,83.97034,33.55
3,0.08650208,-0.03923035,0.9954681,1.0,0.08668518,-0.03913879,0.9954529,-30.09727,7.022933999999999,-40.36623,4.171707,0.4229327999999999,0.4568215,1.0,-0.05278015,-0.1041565,0.9931488000000002,37.45103,10.80569,-44.06802,3.4752660000000004,0.3259188,0.3519272,-0.6353196,1.132252,-0.3325152,-0.04236526,0.4664859999999999,0.09050688,4.0242,83.97034,33.55
3,0.06376648,-0.05935669,0.9961853,1.0,0.06376648,-0.05935669,0.9961853,-30.27608,6.811493,-40.39177,4.041809,0.4337208999999999,0.4686392,1.0,-0.0553894,-0.1102295,0.9923553,37.22438,10.78464,-44.77887,3.379028,0.3351127,0.3615457,-0.6445076,1.140594,-0.3387651,-0.07259265,0.4606052,0.1032138,4.0242,83.97034,33.55
3,0.06376648,-0.05935669,0.9961853,1.0,0.06376648,-0.05935669,0.9961853,-30.27608,6.811493,-40.39177,4.041809,0.4337208999999999,0.4686392,1.0,-0.0553894,-0.1102295,0.9923553,37.22438,10.78464,-44.77887,3.379028,0.3351127,0.3615457,-0.6445076,1.140594,-0.3387651,-0.07259265,0.4606052,0.1032138,4.0242,83.97034,33.55
3,0.06376648,-0.05935669,0.9961853,1.0,0.06376648,-0.05935669,0.9961853,-30.27608,6.811493,-40.39177,4.041809,0.4337208999999999,0.4686392,1.0,-0.0553894,-0.1102295,0.9923553,37.22438,10.78464,-44.77887,3.379028,0.3351127,0.3615457,-0.6445076,1.140594,-0.3387651,-0.07259265,0.4606052,0.1032138,4.0242,83.97034,33.55
3,0.06785583,-0.09103394,0.9935303,1.0,0.06788635,-0.09101868,0.9935303,-30.34007,6.738098,-40.59039,4.02095,0.4352347,0.4792689,1.0,-0.0428772,-0.1385803,0.9894104,37.182590000000005,10.76042,-45.27119,3.3250580000000003,0.3338417999999999,0.3733913,-0.6480668,1.144123,-0.3428582,-0.08640725,0.4610738,0.1081964999999999,4.0242,60.33813,33.55
3,0.06785583,-0.09103394,0.9935303,1.0,0.06788635,-0.09101868,0.9935303,-30.34007,6.738098,-40.59039,4.02095,0.4352347,0.4792689,1.0,-0.0428772,-0.1385803,0.9894104,37.182590000000005,10.76042,-45.27119,3.3250580000000003,0.3338417999999999,0.3733913,-0.6480668,1.144123,-0.3428582,-0.08640725,0.4610738,0.1081964999999999,4.0242,60.33813,33.55
3,0.06785583,-0.09103394,0.9935303,1.0,0.06788635,-0.09101868,0.9935303,-30.34007,6.738098,-40.59039,4.02095,0.4352347,0.4792689,1.0,-0.0428772,-0.1385803,0.9894104,37.182590000000005,10.76042,-45.27119,3.3250580000000003,0.3338417999999999,0.3733913,-0.6480668,1.144123,-0.3428582,-0.08640725,0.4610738,0.1081964999999999,4.0242,60.33813,33.55
4,0.06065369,-0.1029968,0.9928284,1.0,0.06066895,-0.1029968,0.9928284,-30.439120000000003,6.491547,-40.13205,4.020432,0.4403281,0.4861349,1.0,-0.0476532,-0.1013336,0.9936981,37.0966,10.28906,-43.75597,3.738068,0.3398335999999999,0.3699288,-0.6516038000000001,1.147772,-0.3475438,-0.1008081,0.4633705,0.1137031999999999,4.0242,60.33813,33.55
4,0.06065369,-0.1029968,0.9928284,1.0,0.06066895,-0.1029968,0.9928284,-30.439120000000003,6.491547,-40.13205,4.020432,0.4403281,0.4861349,1.0,-0.0476532,-0.1013336,0.9936981,37.0966,10.28906,-43.75597,3.738068,0.3398335999999999,0.3699288,-0.6516038000000001,1.147772,-0.3475438,-0.1008081,0.4633705,0.1137031999999999,4.0242,60.33813,33.55
4,0.06065369,-0.1029968,0.9928284,1.0,0.06066895,-0.1029968,0.9928284,-30.439120000000003,6.491547,-40.13205,4.020432,0.4403281,0.4861349,1.0,-0.0476532,-0.1013336,0.9936981,37.0966,10.28906,-43.75597,3.738068,0.3398335999999999,0.3699288,-0.6516038000000001,1.147772,-0.3475438,-0.1008081,0.4633705,0.1137031999999999,4.0242,60.33813,33.55
4,0.04664612,-0.1244811999999999,0.9911194,1.0,0.04847717,-0.1244507,0.9910278,-30.42165,6.391357,-40.05151,4.101334,0.4419064,0.4930951,1.0,-0.04698181,-0.125351,0.9909973,37.09856,10.35365,-44.5284,3.588715,0.3389304999999999,0.3799303,-0.6547883000000001,1.150918,-0.3522744,-0.1135643,0.4662282,0.1188591,4.0242,60.33813,33.55
4,0.04664612,-0.1244811999999999,0.9911194,1.0,0.04847717,-0.1244507,0.9910278,-30.42165,6.391357,-40.05151,4.101334,0.4419064,0.4930951,1.0,-0.04698181,-0.125351,0.9909973,37.09856,10.35365,-44.5284,3.588715,0.3389304999999999,0.3799303,-0.6547883000000001,1.150918,-0.3522744,-0.1135643,0.4662282,0.1188591,4.0242,60.33813,33.55
4,0.04664612,-0.1244811999999999,0.9911194,1.0,0.04847717,-0.1244507,0.9910278,-30.42165,6.391357,-40.05151,4.101334,0.4419064,0.4930951,1.0,-0.04698181,-0.125351,0.9909973,37.09856,10.35365,-44.5284,3.588715,0.3389304999999999,0.3799303,-0.6547883000000001,1.150918,-0.3522744,-0.1135643,0.4662282,0.1188591,4.0242,60.33813,33.55
4,0.04510498,-0.1277771,0.9907684,1.0,0.04571533,-0.1277924,0.9907379,-30.52405,6.414398,-40.21413,4.127182,0.4461529999999999,0.4945238,1.0,-0.03741455,-0.1247101,0.9914856,36.94104,10.41762,-44.70316,3.689362000000001,0.3430775,0.3790212,-0.6575536999999999,1.153903,-0.3573563,-0.1251556,0.4722279,0.1243785,4.0242,60.33813,33.55
4,0.04510498,-0.1277771,0.9907684,1.0,0.04571533,-0.1277924,0.9907379,-30.52405,6.414398,-40.21413,4.127182,0.4461529999999999,0.4945238,1.0,-0.03741455,-0.1247101,0.9914856,36.94104,10.41762,-44.70316,3.689362000000001,0.3430775,0.3790212,-0.6575536999999999,1.153903,-0.3573563,-0.1251556,0.4722279,0.1243785,4.0242,60.33813,33.55
4,0.04510498,-0.1277771,0.9907684,1.0,0.04571533,-0.1277924,0.9907379,-30.52405,6.414398,-40.21413,4.127182,0.4461529999999999,0.4945238,1.0,-0.03741455,-0.1247101,0.9914856,36.94104,10.41762,-44.70316,3.689362000000001,0.3430775,0.3790212,-0.6575536999999999,1.153903,-0.3573563,-0.1251556,0.4722279,0.1243785,4.0242,60.33813,33.55
4,-0.09301758,-0.1165770999999999,0.9888,1.0,-0.06071472,-0.06524658,0.9960175,-31.20692,7.071242999999999,-41.10735,4.1311800000000005,0.4910797,0.4676032999999999,1.0,-0.09303284,-0.1165924,0.9888,36.162690000000005,10.79758,-44.75676,3.387115,0.3857203,0.3641453,-0.6575536999999999,1.153903,-0.3573563,-0.1251556,0.4722279,0.1243785,4.0242,60.33813,33.55
4,-0.09301758,-0.1165770999999999,0.9888,1.0,-0.06071472,-0.06524658,0.9960175,-31.20692,7.071242999999999,-41.10735,4.1311800000000005,0.4910797,0.4676032999999999,1.0,-0.09303284,-0.1165924,0.9888,36.162690000000005,10.79758,-44.75676,3.387115,0.3857203,0.3641453,-0.6575536999999999,1.153903,-0.3573563,-0.1251556,0.4722279,0.1243785,4.0242,60.33813,33.55
4,-0.09301758,-0.1165770999999999,0.9888,1.0,-0.06071472,-0.06524658,0.9960175,-31.20692,7.071242999999999,-41.10735,4.1311800000000005,0.4910797,0.4676032999999999,1.0,-0.09303284,-0.1165924,0.9888,36.162690000000005,10.79758,-44.75676,3.387115,0.3857203,0.3641453,-0.6575536999999999,1.153903,-0.3573563,-0.1251556,0.4722279,0.1243785,4.0242,60.33813,33.55
4,-0.1238556,-0.07495117,0.9894562,1.0,-0.02589417,-0.09857178,0.9947815,-31.07784,6.907775999999999,-41.0323,4.021148999999999,0.4798191,0.4790418999999999,1.0,-0.1239014,-0.07493591,0.9894562,36.31818,10.60056,-44.84319,3.878784,0.3852444,0.3642349,-0.6637221999999999,1.158449,-0.3659812,-0.1434493,0.4799297999999999,0.135979,4.0242,60.33813,33.55
4,-0.1238556,-0.07495117,0.9894562,1.0,-0.02589417,-0.09857178,0.9947815,-31.07784,6.907775999999999,-41.0323,4.021148999999999,0.4798191,0.4790418999999999,1.0,-0.1239014,-0.07493591,0.9894562,36.31818,10.60056,-44.84319,3.878784,0.3852444,0.3642349,-0.6637221999999999,1.158449,-0.3659812,-0.1434493,0.4799297999999999,0.135979,4.0242,60.33813,33.55
4,-0.1238556,-0.07495117,0.9894562,1.0,-0.02589417,-0.09857178,0.9947815,-31.07784,6.907775999999999,-41.0323,4.021148999999999,0.4798191,0.4790418999999999,1.0,-0.1239014,-0.07493591,0.9894562,36.31818,10.60056,-44.84319,3.878784,0.3852444,0.3642349,-0.6637221999999999,1.158449,-0.3659812,-0.1434493,0.4799297999999999,0.135979,4.0242,60.33813,33.55
4,-0.1238556,-0.07495117,0.9894562,1.0,-0.02589417,-0.09857178,0.9947815,-31.07784,6.907775999999999,-41.0323,4.021148999999999,0.4798191,0.4790418999999999,1.0,-0.1239014,-0.07493591,0.9894562,36.31818,10.60056,-44.84319,3.878784,0.3852444,0.3642349,-0.6669212,1.159916,-0.3695567999999999,-0.1504587,0.4814978,0.1407999,4.0242,-304.805,33.55
4,-0.1238556,-0.07495117,0.9894562,1.0,-0.02589417,-0.09857178,0.9947815,-31.07784,6.907775999999999,-41.0323,4.021148999999999,0.4798191,0.4790418999999999,1.0,-0.1239014,-0.07493591,0.9894562,36.31818,10.60056,-44.84319,3.878784,0.3852444,0.3642349,-0.6669212,1.159916,-0.3695567999999999,-0.1504587,0.4814978,0.1407999,4.0242,-304.805,33.55
4,-0.1238556,-0.07495117,0.9894562,1.0,-0.02589417,-0.09857178,0.9947815,-31.07784,6.907775999999999,-41.0323,4.021148999999999,0.4798191,0.4790418999999999,1.0,-0.1239014,-0.07493591,0.9894562,36.31818,10.60056,-44.84319,3.878784,0.3852444,0.3642349,-0.6669212,1.159916,-0.3695567999999999,-0.1504587,0.4814978,0.1407999,4.0242,-304.805,33.55
4,-0.1238556,-0.07495117,0.9894562,1.0,-0.02589417,-0.09857178,0.9947815,-31.07784,6.907775999999999,-41.0323,4.021148999999999,0.4798191,0.4790418999999999,1.0,-0.1239014,-0.07493591,0.9894562,36.31818,10.60056,-44.84319,3.878784,0.3852444,0.3642349,-0.6702547,1.161571,-0.3724605,-0.1584149,0.4811292,0.145814,4.0242,-304.805,33.55
4,-0.1238556,-0.07495117,0.9894562,1.0,-0.02589417,-0.09857178,0.9947815,-31.07784,6.907775999999999,-41.0323,4.021148999999999,0.4798191,0.4790418999999999,1.0,-0.1239014,-0.07493591,0.9894562,36.31818,10.60056,-44.84319,3.878784,0.3852444,0.3642349,-0.6702547,1.161571,-0.3724605,-0.1584149,0.4811292,0.145814,4.0242,-304.805,33.55
4,-0.1238556,-0.07495117,0.9894562,1.0,-0.02589417,-0.09857178,0.9947815,-31.07784,6.907775999999999,-41.0323,4.021148999999999,0.4798191,0.4790418999999999,1.0,-0.1239014,-0.07493591,0.9894562,36.31818,10.60056,-44.84319,3.878784,0.3852444,0.3642349,-0.6702547,1.161571,-0.3724605,-0.1584149,0.4811292,0.145814,4.0242,-304.805,33.55
4,-0.1287689,-0.1378174,0.9820404,1.0,-0.03765869,-0.1686859,0.9849396,-31.03096,6.57338,-40.49606,4.066864,0.4800887,0.499485,1.0,-0.1288147,-0.1378020999999999,0.9820404,36.42944,10.39484,-44.78946,3.962997,0.3817636,0.3850442,-0.6702547,1.161571,-0.3724605,-0.1584149,0.4811292,0.145814,4.0242,-304.805,33.55
4,-0.1287689,-0.1378174,0.9820404,1.0,-0.03765869,-0.1686859,0.9849396,-31.03096,6.57338,-40.49606,4.066864,0.4800887,0.499485,1.0,-0.1288147,-0.1378020999999999,0.9820404,36.42944,10.39484,-44.78946,3.962997,0.3817636,0.3850442,-0.6702547,1.161571,-0.3724605,-0.1584149,0.4811292,0.145814,4.0242,-304.805,33.55
4,-0.1287689,-0.1378174,0.9820404,1.0,-0.03765869,-0.1686859,0.9849396,-31.03096,6.57338,-40.49606,4.066864,0.4800887,0.499485,1.0,-0.1288147,-0.1378020999999999,0.9820404,36.42944,10.39484,-44.78946,3.962997,0.3817636,0.3850442,-0.6702547,1.161571,-0.3724605,-0.1584149,0.4811292,0.145814,4.0242,-304.805,33.55
4,-1.0,-1.0,-1.0,1.0,0.0,0.0,0.0,-31.04845,6.687042,-40.60431,-1.0,0.4835062,0.5045261999999999,1.0,0.0,0.0,0.0,36.30252,10.52516,-44.76109,-1.0,0.3914296,0.3987946,-0.6768932,1.164261,-0.3772564,-0.1727368,0.4767817,0.1556285,4.0242,-304.805,33.55
4,-1.0,-1.0,-1.0,1.0,0.0,0.0,0.0,-31.04845,6.687042,-40.60431,-1.0,0.4835062,0.5045261999999999,1.0,0.0,0.0,0.0,36.30252,10.52516,-44.76109,-1.0,0.3914296,0.3987946,-0.6768932,1.164261,-0.3772564,-0.1727368,0.4767817,0.1556285,4.0242,-304.805,33.55
4,-1.0,-1.0,-1.0,1.0,0.0,0.0,0.0,-31.04845,6.687042,-40.60431,-1.0,0.4835062,0.5045261999999999,1.0,0.0,0.0,0.0,36.30252,10.52516,-44.76109,-1.0,0.3914296,0.3987946,-0.6768932,1.164261,-0.3772564,-0.1727368,0.4767817,0.1556285,4.0242,-304.805,33.55
4,-1.0,-1.0,-1.0,0.1205971,0.0,0.0,0.0,-31.0098,6.333313,-40.72615,-1.0,0.4609555,0.5374021999999999,0.0,0.0,0.0,0.0,36.28806,9.640503,-45.01093,-1.0,-1.0,-1.0,-0.680227,1.165567,-0.3789617,-0.1802498,0.4721085999999999,0.1606071,4.0242,-304.805,33.55
4,-1.0,-1.0,-1.0,0.1205971,0.0,0.0,0.0,-31.0098,6.333313,-40.72615,-1.0,0.4609555,0.5374021999999999,0.0,0.0,0.0,0.0,36.28806,9.640503,-45.01093,-1.0,-1.0,-1.0,-0.680227,1.165567,-0.3789617,-0.1802498,0.4721085999999999,0.1606071,3.923849,-400.0645,33.55
4,-1.0,-1.0,-1.0,0.1205971,0.0,0.0,0.0,-31.0098,6.333313,-40.72615,-1.0,0.4609555,0.5374021999999999,0.0,0.0,0.0,0.0,36.28806,9.640503,-45.01093,-1.0,-1.0,-1.0,-0.680227,1.165567,-0.3789617,-0.1802498,0.4721085999999999,0.1606071,3.923849,-341.0434,33.55
4,-1.0,-1.0,-1.0,0.0114782999999999,0.0,0.0,0.0,-30.18866,6.488663,-40.72163,-1.0,0.4221224,0.5020095,0.0,0.0,0.0,0.0,36.775940000000006,9.991043,-44.83905,-1.0,0.3601316,0.4178889,-0.6831666000000001,1.166293,-0.3803867,-0.1858524,0.4675422999999999,0.163762,3.923849,-341.0434,33.55
4,-1.0,-1.0,-1.0,0.0114782999999999,0.0,0.0,0.0,-30.18866,6.488663,-40.72163,-1.0,0.4221224,0.5020095,0.0,0.0,0.0,0.0,36.775940000000006,9.991043,-44.83905,-1.0,0.3601316,0.4178889,-0.6831666000000001,1.166293,-0.3803867,-0.1858524,0.4675422999999999,0.163762,3.923849,-341.0434,33.55
4,-1.0,-1.0,-1.0,0.0114782999999999,0.0,0.0,0.0,-30.18866,6.488663,-40.72163,-1.0,0.4221224,0.5020095,0.0,0.0,0.0,0.0,36.775940000000006,9.991043,-44.83905,-1.0,0.3601316,0.4178889,-0.6831666000000001,1.166293,-0.3803867,-0.1858524,0.4675422999999999,0.163762,3.923849,-341.0434,33.55
4,-1.0,-1.0,-1.0,0.3020039,0.0,0.0,0.0,-30.09325,6.6303410000000005,-40.648990000000005,-1.0,0.428968,0.5020511,0.0,0.0,0.0,0.0,36.59875,10.00774,-44.85307,-1.0,0.3735812,0.4171417,-0.6858464,1.166651,-0.3815825,-0.1902791,0.462776,0.1652976,3.923849,-341.0434,33.55
4,-1.0,-1.0,-1.0,0.3020039,0.0,0.0,0.0,-30.09325,6.6303410000000005,-40.648990000000005,-1.0,0.428968,0.5020511,0.0,0.0,0.0,0.0,36.59875,10.00774,-44.85307,-1.0,0.3735812,0.4171417,-0.6858464,1.166651,-0.3815825,-0.1902791,0.462776,0.1652976,3.923849,-341.0434,33.55
4,-1.0,-1.0,-1.0,0.3020039,0.0,0.0,0.0,-30.09325,6.6303410000000005,-40.648990000000005,-1.0,0.428968,0.5020511,0.0,0.0,0.0,0.0,36.59875,10.00774,-44.85307,-1.0,0.3735812,0.4171417,-0.6858464,1.166651,-0.3815825,-0.1902791,0.462776,0.1652976,3.923849,-341.0434,33.55
4,-1.0,-1.0,-1.0,0.438673,0.0,0.0,0.0,-30.19556,6.516051999999999,-40.6871,-1.0,0.4253965999999999,0.5099252000000001,0.03715063,0.0,0.0,0.0,37.24887,10.13583,-44.78304,-1.0,0.3275462999999999,0.4061829,-0.6882946,1.1666450000000002,-0.3825134,-0.1929809999999999,0.4574362,0.166373,3.923849,-341.0434,33.55
4,-1.0,-1.0,-1.0,0.438673,0.0,0.0,0.0,-30.19556,6.516051999999999,-40.6871,-1.0,0.4253965999999999,0.5099252000000001,0.03715063,0.0,0.0,0.0,37.24887,10.13583,-44.78304,-1.0,0.3275462999999999,0.4061829,-0.6882946,1.1666450000000002,-0.3825134,-0.1929809999999999,0.4574362,0.166373,3.923849,-341.0434,33.55
4,-1.0,-1.0,-1.0,0.438673,0.0,0.0,0.0,-30.19556,6.516051999999999,-40.6871,-1.0,0.4253965999999999,0.5099252000000001,0.03715063,0.0,0.0,0.0,37.24887,10.13583,-44.78304,-1.0,0.3275462999999999,0.4061829,-0.6882946,1.1666450000000002,-0.3825134,-0.1929809999999999,0.4574362,0.166373,3.923849,-341.0434,33.55
4,-1.0,-1.0,-1.0,0.6381397,0.0,0.0,0.0,-30.19556,6.516051999999999,-40.6871,-1.0,0.4253965999999999,0.5099252000000001,0.2414856,0.0,0.0,0.0,37.24887,10.13583,-44.78304,-1.0,0.3275462999999999,0.4061829,-0.6903640999999999,1.16637,-0.3833178,-0.1936732,0.4535471,0.1661272999999999,3.923849,-341.0434,33.55
4,-1.0,-1.0,-1.0,0.6381397,0.0,0.0,0.0,-30.19556,6.516051999999999,-40.6871,-1.0,0.4253965999999999,0.5099252000000001,0.2414856,0.0,0.0,0.0,37.24887,10.13583,-44.78304,-1.0,0.3275462999999999,0.4061829,-0.6903640999999999,1.16637,-0.3833178,-0.1936732,0.4535471,0.1661272999999999,3.923849,-341.0434,33.55
4,-1.0,-1.0,-1.0,0.6381397,0.0,0.0,0.0,-30.19556,6.516051999999999,-40.6871,-1.0,0.4253965999999999,0.5099252000000001,0.2414856,0.0,0.0,0.0,37.24887,10.13583,-44.78304,-1.0,0.3275462999999999,0.4061829,-0.6903640999999999,1.16637,-0.3833178,-0.1936732,0.4535471,0.1661272999999999,3.923849,-341.0434,33.55
4,-1.0,-1.0,-1.0,0.783519,0.0,0.0,0.0,-30.2402,6.455154,-40.69495,-1.0,0.4306759,0.5125064,0.3912869,0.0,0.0,0.0,37.23425,10.34621,-44.7406,-1.0,0.3260973,0.3973969,-0.6918999,1.1661549999999998,-0.3841038,-0.1938885,0.4509681,0.1657907,3.923849,-341.0434,33.55
4,-1.0,-1.0,-1.0,0.783519,0.0,0.0,0.0,-30.2402,6.455154,-40.69495,-1.0,0.4306759,0.5125064,0.3912869,0.0,0.0,0.0,37.23425,10.34621,-44.7406,-1.0,0.3260973,0.3973969,-0.6918999,1.1661549999999998,-0.3841038,-0.1938885,0.4509681,0.1657907,3.923849,-341.0434,33.55
4,-1.0,-1.0,-1.0,0.783519,0.0,0.0,0.0,-30.2402,6.455154,-40.69495,-1.0,0.4306759,0.5125064,0.3912869,0.0,0.0,0.0,37.23425,10.34621,-44.7406,-1.0,0.3260973,0.3973969,-0.6918999,1.1661549999999998,-0.3841038,-0.1938885,0.4509681,0.1657907,3.923849,-341.0434,33.55
4,0.01431274,-0.192215,0.9812469,1.0,0.05012512,-0.1947632,0.9795532,-30.47626,6.33403,-40.71014,3.81636,0.4433357,0.5151871,1.0,-0.05848694,-0.1862792999999999,0.9807434000000002,37.07072,10.19385,-44.73558,3.613159,0.34224,0.4014037,-0.6931159,1.165863,-0.3849347,-0.1940979,0.4495292,0.1648872,3.923849,-148.1322,33.55
4,0.01431274,-0.192215,0.9812469,1.0,0.05012512,-0.1947632,0.9795532,-30.47626,6.33403,-40.71014,3.81636,0.4433357,0.5151871,1.0,-0.05848694,-0.1862792999999999,0.9807434000000002,37.07072,10.19385,-44.73558,3.613159,0.34224,0.4014037,-0.6931159,1.165863,-0.3849347,-0.1940979,0.4495292,0.1648872,3.923849,-148.1322,33.55
4,0.01431274,-0.192215,0.9812469,1.0,0.05012512,-0.1947632,0.9795532,-30.47626,6.33403,-40.71014,3.81636,0.4433357,0.5151871,1.0,-0.05848694,-0.1862792999999999,0.9807434000000002,37.07072,10.19385,-44.73558,3.613159,0.34224,0.4014037,-0.6931159,1.165863,-0.3849347,-0.1940979,0.4495292,0.1648872,3.923849,-148.1322,33.55
4,-0.0055236819999999,-0.1932068,0.9811249,1.0,0.04075623,-0.1981049,0.9793243,-30.63568,6.3124080000000005,-40.69743,3.854935,0.4509833,0.5165526,1.0,-0.05297852,-0.1877594,0.9807739,36.93042,10.12463,-44.73607,3.559219,0.346881,0.4046394,-0.694366,1.165101,-0.3870549,-0.1928353,0.4500844,0.162686,3.923849,-148.1322,33.55
4,-0.0055236819999999,-0.1932068,0.9811249,1.0,0.04075623,-0.1981049,0.9793243,-30.63568,6.3124080000000005,-40.69743,3.854935,0.4509833,0.5165526,1.0,-0.05297852,-0.1877594,0.9807739,36.93042,10.12463,-44.73607,3.559219,0.346881,0.4046394,-0.694366,1.165101,-0.3870549,-0.1928353,0.4500844,0.162686,3.923849,-148.1322,33.55
4,-0.0055236819999999,-0.1932068,0.9811249,1.0,0.04075623,-0.1981049,0.9793243,-30.63568,6.3124080000000005,-40.69743,3.854935,0.4509833,0.5165526,1.0,-0.05297852,-0.1877594,0.9807739,36.93042,10.12463,-44.73607,3.559219,0.346881,0.4046394,-0.694366,1.165101,-0.3870549,-0.1928353,0.4500844,0.162686,3.923849,-148.1322,33.55
4,-0.03033447,-0.1833496,0.9825745,1.0,0.02488708,-0.1988983,0.9796906,-30.70761,6.287659,-40.68768,3.84642,0.4565675,0.5175377,1.0,-0.09382629,-0.1647034,0.9818573,36.90678,10.13771,-44.74246,3.814804,0.355804,0.3996545,-0.694366,1.165101,-0.3870549,-0.1928353,0.4500844,0.162686,3.923849,-148.1322,33.55
4,-0.03033447,-0.1833496,0.9825745,1.0,0.02488708,-0.1988983,0.9796906,-30.70761,6.287659,-40.68768,3.84642,0.4565675,0.5175377,1.0,-0.09382629,-0.1647034,0.9818573,36.90678,10.13771,-44.74246,3.814804,0.355804,0.3996545,-0.694366,1.165101,-0.3870549,-0.1928353,0.4500844,0.162686,3.923849,-148.1322,33.55
4,-0.03033447,-0.1833496,0.9825745,1.0,0.02488708,-0.1988983,0.9796906,-30.70761,6.287659,-40.68768,3.84642,0.4565675,0.5175377,1.0,-0.09382629,-0.1647034,0.9818573,36.90678,10.13771,-44.74246,3.814804,0.355804,0.3996545,-0.694366,1.165101,-0.3870549,-0.1928353,0.4500844,0.162686,3.923849,-148.1322,33.55
4,-0.02835083,-0.1976012999999999,0.9798584,1.0,0.02700806,-0.2016602,0.9790802,-30.72218,6.2947690000000005,-40.68359,3.844193,0.456717,0.5177737,1.0,-0.09428406,-0.1919556,0.9768524,36.88391,10.15085,-44.74701,3.666733,0.3569227,0.4049910999999999,-0.6944733000000001,1.164576,-0.3899351,-0.1923515,0.4573366,0.1608816,3.923849,-148.1322,33.55
4,-0.02835083,-0.1976012999999999,0.9798584,1.0,0.02700806,-0.2016602,0.9790802,-30.72218,6.2947690000000005,-40.68359,3.844193,0.456717,0.5177737,1.0,-0.09428406,-0.1919556,0.9768524,36.88391,10.15085,-44.74701,3.666733,0.3569227,0.4049910999999999,-0.6944733000000001,1.164576,-0.3899351,-0.1923515,0.4573366,0.1608816,3.923849,-148.1322,33.55
4,-0.02835083,-0.1976012999999999,0.9798584,1.0,0.02700806,-0.2016602,0.9790802,-30.72218,6.2947690000000005,-40.68359,3.844193,0.456717,0.5177737,1.0,-0.09428406,-0.1919556,0.9768524,36.88391,10.15085,-44.74701,3.666733,0.3569227,0.4049910999999999,-0.6944733000000001,1.164576,-0.3899351,-0.1923515,0.4573366,0.1608816,3.923849,-148.1322,33.55
4,-0.02835083,-0.1976012999999999,0.9798584,1.0,0.02700806,-0.2016602,0.9790802,-30.72218,6.2947690000000005,-40.68359,3.844193,0.456717,0.5177737,1.0,-0.09428406,-0.1919556,0.9768524,36.88391,10.15085,-44.74701,3.666733,0.3569227,0.4049910999999999,-0.694102,1.164125,-0.3919514,-0.1915503999999999,0.4642315999999999,0.1592549,3.923849,99.26208,33.55
4,-0.02835083,-0.1976012999999999,0.9798584,1.0,0.02700806,-0.2016602,0.9790802,-30.72218,6.2947690000000005,-40.68359,3.844193,0.456717,0.5177737,1.0,-0.09428406,-0.1919556,0.9768524,36.88391,10.15085,-44.74701,3.666733,0.3569227,0.4049910999999999,-0.694102,1.164125,-0.3919514,-0.1915503999999999,0.4642315999999999,0.1592549,3.923849,99.26208,33.55
4,-0.02835083,-0.1976012999999999,0.9798584,1.0,0.02700806,-0.2016602,0.9790802,-30.72218,6.2947690000000005,-40.68359,3.844193,0.456717,0.5177737,1.0,-0.09428406,-0.1919556,0.9768524,36.88391,10.15085,-44.74701,3.666733,0.3569227,0.4049910999999999,-0.694102,1.164125,-0.3919514,-0.1915503999999999,0.4642315999999999,0.1592549,3.923849,99.26208,33.55
4,-0.02827454,-0.1898193,0.9813995,1.0,0.02677917,-0.1899109,0.9814301,-30.730190000000004,6.308578,-40.67154,3.942139,0.4570791,0.514888,1.0,-0.09413147,-0.1889648,0.9774475,36.87386,10.15015,-44.74387,3.722549,0.3572527,0.4043387,-0.694102,1.164125,-0.3919514,-0.1915503999999999,0.4642315999999999,0.1592549,3.923849,99.26208,33.55
4,-0.02827454,-0.1898193,0.9813995,1.0,0.02677917,-0.1899109,0.9814301,-30.730190000000004,6.308578,-40.67154,3.942139,0.4570791,0.514888,1.0,-0.09413147,-0.1889648,0.9774475,36.87386,10.15015,-44.74387,3.722549,0.3572527,0.4043387,-0.694102,1.164125,-0.3919514,-0.1915503999999999,0.4642315999999999,0.1592549,3.923849,99.26208,33.55
4,-0.02827454,-0.1898193,0.9813995,1.0,0.02677917,-0.1899109,0.9814301,-30.730190000000004,6.308578,-40.67154,3.942139,0.4570791,0.514888,1.0,-0.09413147,-0.1889648,0.9774475,36.87386,10.15015,-44.74387,3.722549,0.3572527,0.4043387,-0.694102,1.164125,-0.3919514,-0.1915503999999999,0.4642315999999999,0.1592549,3.923849,99.26208,33.55
4,-0.02827454,-0.1898193,0.9813995,1.0,0.02677917,-0.1899109,0.9814301,-30.730190000000004,6.308578,-40.67154,3.942139,0.4570791,0.514888,1.0,-0.09413147,-0.1889648,0.9774475,36.87386,10.15015,-44.74387,3.722549,0.3572527,0.4043387,-0.6934437,1.163738,-0.3941921,-0.1906185,0.4739654,0.1581681,3.923849,99.26208,33.55
4,-0.02827454,-0.1898193,0.9813995,1.0,0.02677917,-0.1899109,0.9814301,-30.730190000000004,6.308578,-40.67154,3.942139,0.4570791,0.514888,1.0,-0.09413147,-0.1889648,0.9774475,36.87386,10.15015,-44.74387,3.722549,0.3572527,0.4043387,-0.6934437,1.163738,-0.3941921,-0.1906185,0.4739654,0.1581681,3.923849,99.26208,33.55
4,-0.02827454,-0.1898193,0.9813995,1.0,0.02677917,-0.1899109,0.9814301,-30.730190000000004,6.308578,-40.67154,3.942139,0.4570791,0.514888,1.0,-0.09413147,-0.1889648,0.9774475,36.87386,10.15015,-44.74387,3.722549,0.3572527,0.4043387,-0.6934437,1.163738,-0.3941921,-0.1906185,0.4739654,0.1581681,3.923849,99.26208,33.55
