Second,eye_comb_direction_x,eye_comb_direction_y,eye_comb_direction_z,eye_r_openness,eye_r_direction_x,eye_r_direction_y,eye_r_direction_z,eye_r_origin_x,eye_r_origin_y,eye_r_origin_z,eye_r_pupil_diameter,eye_r_pupil_position_x,eye_r_pupil_position_y,eye_l_openness,eye_l_direction_x,eye_l_direction_y,eye_l_direction_z,eye_l_origin_x,eye_l_origin_y,eye_l_origin_z,eye_l_pupil_diameter,eye_l_pupil_position_x,eye_l_pupil_position_y,head_position_x,head_position_y,head_position_z,head_rotation_roll,head_rotation_pitch,head_rotation_yaw,EDA,BVP,TMP
0,-0.2041626,-0.2206879,0.9537201,0.3559015,-0.1216583,-0.2125092,0.9695435,-32.28192,4.436935,-37.39391,4.225708,0.5398916,0.5550904999999999,0.4793939,-0.2272643999999999,-0.2227172999999999,0.9480133,35.38118,9.349945,-44.14311,4.235962000000001,0.4425345,0.4395699,-0.6557009,1.133739,-0.3092527,-0.1134632,0.4525359,0.168894,3.9960889694521584,-0.49818895087099213,32.34934107548599
0,-0.2041626,-0.2206879,0.9537201,0.3559015,-0.1216583,-0.2125092,0.9695435,-32.28192,4.436935,-37.39391,4.225708,0.5398916,0.5550904999999999,0.4793939,-0.2272643999999999,-0.2227172999999999,0.9480133,35.38118,9.349945,-44.14311,4.235962000000001,0.4425345,0.4395699,-0.6557009,1.133739,-0.3092527,-0.1134632,0.4525359,0.168894,3.9960889694521584,-0.49818895087099213,32.34934107548599
0,-0.2041626,-0.2206879,0.9537201,0.3559015,-0.1216583,-0.2125092,0.9695435,-32.28192,4.436935,-37.39391,4.225708,0.5398916,0.5550904999999999,0.4793939,-0.2272643999999999,-0.2227172999999999,0.9480133,35.38118,9.349945,-44.14311,4.235962000000001,0.4425345,0.4395699,-0.6557009,1.133739,-0.3092527,-0.1134632,0.4525359,0.168894,3.9960889694521584,-0.49818895087099213,32.34934107548599
0,-0.2041626,-0.2206879,0.9537201,0.3559015,-0.1216583,-0.2125092,0.9695435,-32.28192,4.436935,-37.39391,4.225708,0.5398916,0.5550904999999999,0.4793939,-0.2272643999999999,-0.2227172999999999,0.9480133,35.38118,9.349945,-44.14311,4.235962000000001,0.4425345,0.4395699,-0.6557009,1.133739,-0.3092527,-0.1134632,0.4525359,0.168894,3.9960889694521584,-0.49818895087099213,32.34934107548599
0,-0.2080078,-0.200882,0.9572601,0.4030723,-0.1242218,-0.1482849,0.9811096,-32.250809999999994,4.578674,-37.59268,4.344513,0.5393306999999999,0.5399520000000001,0.5052522,-0.2239837999999999,-0.2108154,0.9515076,35.35622,9.428619,-44.13876,4.312302,0.4428648,0.4339406,-0.6510121,1.132152,-0.3118167,-0.1083174,0.4572286,0.158214,3.9960889694521584,-0.49818895087099213,32.34934107548599
0,-0.2080078,-0.200882,0.9572601,0.4030723,-0.1242218,-0.1482849,0.9811096,-32.250809999999994,4.578674,-37.59268,4.344513,0.5393306999999999,0.5399520000000001,0.5052522,-0.2239837999999999,-0.2108154,0.9515076,35.35622,9.428619,-44.13876,4.312302,0.4428648,0.4339406,-0.6510121,1.132152,-0.3118167,-0.1083174,0.4572286,0.158214,3.9960889694521584,-0.49818895087099213,32.34934107548599
0,-0.2080078,-0.200882,0.9572601,0.4030723,-0.1242218,-0.1482849,0.9811096,-32.250809999999994,4.578674,-37.59268,4.344513,0.5393306999999999,0.5399520000000001,0.5052522,-0.2239837999999999,-0.2108154,0.9515076,35.35622,9.428619,-44.13876,4.312302,0.4428648,0.4339406,-0.6510121,1.132152,-0.3118167,-0.1083174,0.4572286,0.158214,3.9960889694521584,-0.49818895087099213,32.34934107548599
0,-0.2171172999999999,-0.2149199999999999,0.952179,0.4303809,-0.1209869,-0.180954,0.9760132,-32.14893,4.791458,-37.77388,4.317459,0.5351486,0.5401765000000001,0.5264635999999999,-0.2178497,-0.2151642,0.9519501,35.44778,9.573746,-44.08713,4.252747,0.4381550999999999,0.4285035,-0.6466556,1.130778,-0.3144232,-0.1027309999999999,0.461656,0.148347,3.9960889694521584,-0.49818895087099213,32.34934107548599
0,-0.2171172999999999,-0.2149199999999999,0.952179,0.4303809,-0.1209869,-0.180954,0.9760132,-32.14893,4.791458,-37.77388,4.317459,0.5351486,0.5401765000000001,0.5264635999999999,-0.2178497,-0.2151642,0.9519501,35.44778,9.573746,-44.08713,4.252747,0.4381550999999999,0.4285035,-0.6466556,1.130778,-0.3144232,-0.1027309999999999,0.461656,0.148347,3.9960889694521584,-0.49818895087099213,32.34934107548599
0,-0.2171172999999999,-0.2149199999999999,0.952179,0.4303809,-0.1209869,-0.180954,0.9760132,-32.14893,4.791458,-37.77388,4.317459,0.5351486,0.5401765000000001,0.5264635999999999,-0.2178497,-0.2151642,0.9519501,35.44778,9.573746,-44.08713,4.252747,0.4381550999999999,0.4285035,-0.6466556,1.130778,-0.3144232,-0.1027309999999999,0.461656,0.148347,3.9960889694521584,-0.49818895087099213,32.34934107548599
0,-0.2233276,-0.184021,0.9571991,0.4460862,-0.08113098,-0.249054,0.9650726,-32.070370000000004,4.921082,-37.46123,4.139755,0.5250335999999999,0.5450053,0.4852944,-0.2234344,-0.1839599999999999,0.9571838,35.532070000000004,9.665512,-44.06018,4.373306,0.4359393,0.4182207999999999,-0.6426367,1.1292879999999998,-0.317055,-0.09828055,0.4661455,0.1386175,3.9960889694521584,-0.49818895087099213,32.34934107548599
0,-0.2233276,-0.184021,0.9571991,0.4460862,-0.08113098,-0.249054,0.9650726,-32.070370000000004,4.921082,-37.46123,4.139755,0.5250335999999999,0.5450053,0.4852944,-0.2234344,-0.1839599999999999,0.9571838,35.532070000000004,9.665512,-44.06018,4.373306,0.4359393,0.4182207999999999,-0.6426367,1.1292879999999998,-0.317055,-0.09828055,0.4661455,0.1386175,3.9960889694521584,-0.49818895087099213,32.34934107548599
0,-0.2233276,-0.184021,0.9571991,0.4460862,-0.08113098,-0.249054,0.9650726,-32.070370000000004,4.921082,-37.46123,4.139755,0.5250335999999999,0.5450053,0.4852944,-0.2234344,-0.1839599999999999,0.9571838,35.532070000000004,9.665512,-44.06018,4.373306,0.4359393,0.4182207999999999,-0.6426367,1.1292879999999998,-0.317055,-0.09828055,0.4661455,0.1386175,3.9960889694521584,-0.49818895087099213,32.34934107548599
0,-0.2088165,-0.207428,0.9556885,0.4580246,-0.1281586,-0.2002106,0.9713287,-32.03857,5.013657,-37.60983,4.181915,0.5323786,0.5341419,0.5164185,-0.2088317999999999,-0.207428,0.9556885,35.57271,9.73111,-44.02765,4.114105,0.4316805,0.4199872999999999,-0.6402234,1.128295,-0.318804,-0.09519982,0.4694297999999999,0.1320297999999999,3.9960889694521584,-0.49818895087099213,32.34934107548599
0,-0.2088165,-0.207428,0.9556885,0.4580246,-0.1281586,-0.2002106,0.9713287,-32.03857,5.013657,-37.60983,4.181915,0.5323786,0.5341419,0.5164185,-0.2088317999999999,-0.207428,0.9556885,35.57271,9.73111,-44.02765,4.114105,0.4316805,0.4199872999999999,-0.6402234,1.128295,-0.318804,-0.09519982,0.4694297999999999,0.1320297999999999,3.9960889694521584,-0.49818895087099213,32.34934107548599
0,-0.2088165,-0.207428,0.9556885,0.4580246,-0.1281586,-0.2002106,0.9713287,-32.03857,5.013657,-37.60983,4.181915,0.5323786,0.5341419,0.5164185,-0.2088317999999999,-0.207428,0.9556885,35.57271,9.73111,-44.02765,4.114105,0.4316805,0.4199872999999999,-0.6402234,1.128295,-0.318804,-0.09519982,0.4694297999999999,0.1320297999999999,3.9960889694521584,-0.49818895087099213,32.34934107548599
0,-0.1319122,-0.2305907999999999,0.9640503,0.4334752,-0.02226257,-0.2030487,0.9788971,-31.1976,5.507294,-38.6756,3.876755,0.4831573,0.5267896,0.4151273,-0.1319122,-0.2305907999999999,0.9640503,36.40387,9.90509,-43.88824,3.801071,0.3841673,0.4151590999999999,-0.6373286,1.126865,-0.3213278,-0.09034778,0.4739624,0.123123,3.9960889694521584,-0.49818895087099213,32.34934107548599
0,-0.1319122,-0.2305907999999999,0.9640503,0.4334752,-0.02226257,-0.2030487,0.9788971,-31.1976,5.507294,-38.6756,3.876755,0.4831573,0.5267896,0.4151273,-0.1319122,-0.2305907999999999,0.9640503,36.40387,9.90509,-43.88824,3.801071,0.3841673,0.4151590999999999,-0.6373286,1.126865,-0.3213278,-0.09034778,0.4739624,0.123123,3.9960889694521584,-0.49818895087099213,32.34934107548599
0,-0.1319122,-0.2305907999999999,0.9640503,0.4334752,-0.02226257,-0.2030487,0.9788971,-31.1976,5.507294,-38.6756,3.876755,0.4831573,0.5267896,0.4151273,-0.1319122,-0.2305907999999999,0.9640503,36.40387,9.90509,-43.88824,3.801071,0.3841673,0.4151590999999999,-0.6373286,1.126865,-0.3213278,-0.09034778,0.4739624,0.123123,3.9960889694521584,-0.49818895087099213,32.34934107548599
1,-0.08033752,-0.2173462,0.9727783,0.4599164,0.0395813,-0.1446381,0.988678,-30.94316,5.655746,-38.57373,4.386322,0.4628322,0.5094023,0.3128549,-0.08033752,-0.2173462,0.9727783,36.68153,9.974533,-43.84755,3.500443,0.3632864,0.4086040999999999,-0.6350789000000001,1.1259290000000002,-0.3236772999999999,-0.0864916999999999,0.4781043,0.1166362,3.9960889694521584,-0.49818895087099213,32.34934107548599
1,-0.08033752,-0.2173462,0.9727783,0.4599164,0.0395813,-0.1446381,0.988678,-30.94316,5.655746,-38.57373,4.386322,0.4628322,0.5094023,0.3128549,-0.08033752,-0.2173462,0.9727783,36.68153,9.974533,-43.84755,3.500443,0.3632864,0.4086040999999999,-0.6350789000000001,1.1259290000000002,-0.3236772999999999,-0.0864916999999999,0.4781043,0.1166362,3.9960889694521584,-0.49818895087099213,32.34934107548599
1,-0.08033752,-0.2173462,0.9727783,0.4599164,0.0395813,-0.1446381,0.988678,-30.94316,5.655746,-38.57373,4.386322,0.4628322,0.5094023,0.3128549,-0.08033752,-0.2173462,0.9727783,36.68153,9.974533,-43.84755,3.500443,0.3632864,0.4086040999999999,-0.6350789000000001,1.1259290000000002,-0.3236772999999999,-0.0864916999999999,0.4781043,0.1166362,3.9960889694521584,-0.49818895087099213,32.34934107548599
1,-0.0793457,-0.2167357999999999,0.9729919,0.5200952999999999,-0.009048462,-0.2163849,0.9762573,-30.89697,5.846558,-38.82655,3.758942,0.4698411,0.5184199,0.3524582,-0.08103943,-0.2167357999999999,0.9728546,36.76881,10.07755,-43.68419,3.701706,0.3599178,0.4026052,-0.6331679,1.125415,-0.3257417999999999,-0.08314198,0.4827858,0.1117763,3.9960889694521584,-0.49818895087099213,32.34934107548599
1,-0.0793457,-0.2167357999999999,0.9729919,0.5200952999999999,-0.009048462,-0.2163849,0.9762573,-30.89697,5.846558,-38.82655,3.758942,0.4698411,0.5184199,0.3524582,-0.08103943,-0.2167357999999999,0.9728546,36.76881,10.07755,-43.68419,3.701706,0.3599178,0.4026052,-0.6331679,1.125415,-0.3257417999999999,-0.08314198,0.4827858,0.1117763,3.9960889694521584,-0.49818895087099213,32.34934107548599
1,-0.0793457,-0.2167357999999999,0.9729919,0.5200952999999999,-0.009048462,-0.2163849,0.9762573,-30.89697,5.846558,-38.82655,3.758942,0.4698411,0.5184199,0.3524582,-0.08103943,-0.2167357999999999,0.9728546,36.76881,10.07755,-43.68419,3.701706,0.3599178,0.4026052,-0.6331679,1.125415,-0.3257417999999999,-0.08314198,0.4827858,0.1117763,3.9960889694521584,-0.49818895087099213,32.34934107548599
1,-0.07440186,-0.202301,0.9764862,0.5371571999999999,0.01878357,-0.1241302,0.9920807,-30.85555,5.895859,-38.57742,4.529861,0.463417,0.4969398,0.4343015,-0.07566833,-0.2033539,0.9761658,36.81152,10.19687,-43.69438,3.65654,0.3571605,0.3950942,-0.6317917,1.125008,-0.3276724,-0.07998522,0.4875017,0.1091492999999999,3.9960889694521584,-0.49818895087099213,32.34934107548599
1,-0.07440186,-0.202301,0.9764862,0.5371571999999999,0.01878357,-0.1241302,0.9920807,-30.85555,5.895859,-38.57742,4.529861,0.463417,0.4969398,0.4343015,-0.07566833,-0.2033539,0.9761658,36.81152,10.19687,-43.69438,3.65654,0.3571605,0.3950942,-0.6317917,1.125008,-0.3276724,-0.07998522,0.4875017,0.1091492999999999,3.9960889694521584,-5.212097,32.34934107548599
1,-0.07440186,-0.202301,0.9764862,0.5371571999999999,0.01878357,-0.1241302,0.9920807,-30.85555,5.895859,-38.57742,4.529861,0.463417,0.4969398,0.4343015,-0.07566833,-0.2033539,0.9761658,36.81152,10.19687,-43.69438,3.65654,0.3571605,0.3950942,-0.6317917,1.125008,-0.3276724,-0.07998522,0.4875017,0.1091492999999999,3.9960889694521584,-5.212097,32.34934107548599
1,-0.06442261,-0.194458,0.978775,0.5487558000000001,-0.01052856,-0.194397,0.9808502,-30.82747,5.990402,-38.77466,3.86821,0.4676114999999999,0.5084854999999999,0.440009,-0.06507874,-0.194458,0.9787445,36.83641,10.18243,-43.731190000000005,3.627823,0.3540619,0.394044,-0.630484,1.124809,-0.3291910999999999,-0.07797188,0.4921545,0.108026,3.9960889694521584,-5.212097,32.34934107548599
1,-0.06442261,-0.194458,0.978775,0.5487558000000001,-0.01052856,-0.194397,0.9808502,-30.82747,5.990402,-38.77466,3.86821,0.4676114999999999,0.5084854999999999,0.440009,-0.06507874,-0.194458,0.9787445,36.83641,10.18243,-43.731190000000005,3.627823,0.3540619,0.394044,-0.630484,1.124809,-0.3291910999999999,-0.07797188,0.4921545,0.108026,3.9960889694521584,-5.212097,32.34934107548599
1,-0.06442261,-0.194458,0.978775,0.5487558000000001,-0.01052856,-0.194397,0.9808502,-30.82747,5.990402,-38.77466,3.86821,0.4676114999999999,0.5084854999999999,0.440009,-0.06507874,-0.194458,0.9787445,36.83641,10.18243,-43.731190000000005,3.627823,0.3540619,0.394044,-0.630484,1.124809,-0.3291910999999999,-0.07797188,0.4921545,0.108026,3.9960889694521584,-5.212097,32.34934107548599
1,-0.07223511,-0.1884308,0.9794159,0.5635866,0.01777649,-0.121582,0.9924164,-30.69601,6.769958,-41.63347,4.307129,0.4574469,0.4944484999999999,0.4941444,-0.07223511,-0.1884308,0.9794159,36.911,10.2298,-43.65843,3.73735,0.3524564,0.3900981,-0.6296816,1.124591,-0.3301269,-0.07634442,0.4949984999999999,0.1075119,3.9960889694521584,-5.212097,32.34934107548599
1,-0.07223511,-0.1884308,0.9794159,0.5635866,0.01777649,-0.121582,0.9924164,-30.69601,6.769958,-41.63347,4.307129,0.4574469,0.4944484999999999,0.4941444,-0.07223511,-0.1884308,0.9794159,36.911,10.2298,-43.65843,3.73735,0.3524564,0.3900981,-0.6296816,1.124591,-0.3301269,-0.07634442,0.4949984999999999,0.1075119,3.9960889694521584,-5.212097,32.34934107548599
1,-0.07223511,-0.1884308,0.9794159,0.5635866,0.01777649,-0.121582,0.9924164,-30.69601,6.769958,-41.63347,4.307129,0.4574469,0.4944484999999999,0.4941444,-0.07223511,-0.1884308,0.9794159,36.911,10.2298,-43.65843,3.73735,0.3524564,0.3900981,-0.6296816,1.124591,-0.3301269,-0.07634442,0.4949984999999999,0.1075119,3.9960889694521584,-5.212097,32.34934107548599
1,-0.08259583,-0.1452026,0.9859314,0.6058776,0.01194763,-0.1216887999999999,0.9924927,-30.66736,6.769958,-41.63347,4.255142,0.4574469,0.4944484999999999,0.5331382,-0.08259583,-0.1452026,0.9859314,37.00818,10.07094,-43.0956,4.071152,0.3509218,0.3817747,-0.6285316,1.124005,-0.3312895,-0.07255127,0.4990135,0.1067094,3.9960889694521584,-5.212097,32.34934107548599
1,-0.08259583,-0.1452026,0.9859314,0.6058776,0.01194763,-0.1216887999999999,0.9924927,-30.66736,6.769958,-41.63347,4.255142,0.4574469,0.4944484999999999,0.5331382,-0.08259583,-0.1452026,0.9859314,37.00818,10.07094,-43.0956,4.071152,0.3509218,0.3817747,-0.6285316,1.124005,-0.3312895,-0.07255127,0.4990135,0.1067094,3.9960889694521584,-5.212097,32.34934107548599
1,-0.08259583,-0.1452026,0.9859314,0.6058776,0.01194763,-0.1216887999999999,0.9924927,-30.66736,6.769958,-41.63347,4.255142,0.4574469,0.4944484999999999,0.5331382,-0.08259583,-0.1452026,0.9859314,37.00818,10.07094,-43.0956,4.071152,0.3509218,0.3817747,-0.6285316,1.124005,-0.3312895,-0.07255127,0.4990135,0.1067094,3.9960889694521584,-5.212097,32.34934107548599
1,-0.03593445,-0.1595001,0.9865417,0.6531464,0.04803467,-0.1285858,0.9905243,-30.67903,5.988892,-38.85274,4.268143,0.4516807,0.4969322,0.5644802,-0.03593445,-0.1595001,0.9865417,37.06616,10.09711,-43.28192,3.76033,0.3394233,0.3851143,-0.6277033000000001,1.123215,-0.3323897,-0.06766452,0.5025854999999999,0.1046862,3.9960889694521584,-5.212097,32.34934107548599
1,-0.03593445,-0.1595001,0.9865417,0.6531464,0.04803467,-0.1285858,0.9905243,-30.67903,5.988892,-38.85274,4.268143,0.4516807,0.4969322,0.5644802,-0.03593445,-0.1595001,0.9865417,37.06616,10.09711,-43.28192,3.76033,0.3394233,0.3851143,-0.6277033000000001,1.123215,-0.3323897,-0.06766452,0.5025854999999999,0.1046862,3.9960889694521584,-5.212097,32.34934107548599
1,-0.03593445,-0.1595001,0.9865417,0.6531464,0.04803467,-0.1285858,0.9905243,-30.67903,5.988892,-38.85274,4.268143,0.4516807,0.4969322,0.5644802,-0.03593445,-0.1595001,0.9865417,37.06616,10.09711,-43.28192,3.76033,0.3394233,0.3851143,-0.6277033000000001,1.123215,-0.3323897,-0.06766452,0.5025854999999999,0.1046862,3.9960889694521584,-5.212097,32.34934107548599
1,0.0528717,-0.1299438,0.990097,0.6759394,0.0528717,-0.1299438,0.990097,-30.62386,5.946991000000001,-38.63321,4.184113,0.4488284999999999,0.4965125,0.5931566999999999,-0.0479126,-0.1261139,0.9908447,37.15639,9.687454,-41.46304,3.971024,0.3401426,0.3768803,-0.6267764,1.122077,-0.3333920999999999,-0.06222803,0.5060257,0.1018838,3.9960889694521584,-5.212097,32.34934107548599
1,0.0528717,-0.1299438,0.990097,0.6759394,0.0528717,-0.1299438,0.990097,-30.62386,5.946991000000001,-38.63321,4.184113,0.4488284999999999,0.4965125,0.5931566999999999,-0.0479126,-0.1261139,0.9908447,37.15639,9.687454,-41.46304,3.971024,0.3401426,0.3768803,-0.6267764,1.122077,-0.3333920999999999,-0.06222803,0.5060257,0.1018838,3.9960889694521584,12.54091,32.34934107548599
1,0.0528717,-0.1299438,0.990097,0.6759394,0.0528717,-0.1299438,0.990097,-30.62386,5.946991000000001,-38.63321,4.184113,0.4488284999999999,0.4965125,0.5931566999999999,-0.0479126,-0.1261139,0.9908447,37.15639,9.687454,-41.46304,3.971024,0.3401426,0.3768803,-0.6267764,1.122077,-0.3333920999999999,-0.06222803,0.5060257,0.1018838,3.9960889694521584,10.86646,32.34934107548599
1,0.05735779,-0.1220093,0.99086,0.6825026999999999,0.05735779,-0.1220093,0.99086,-30.61656,5.940155,-38.55579,4.18811,0.4477792,0.4945273,0.5756034999999999,-0.05387878,-0.1189423,0.9914246,37.16599,9.772522,-41.62698,4.034088,0.3406302,0.3736197,-0.6257579000000001,1.120842,-0.3344054,-0.05631107,0.5099024999999999,0.09814484,3.9960889694521584,10.86646,32.34934107548599
1,0.05735779,-0.1220093,0.99086,0.6825026999999999,0.05735779,-0.1220093,0.99086,-30.61656,5.940155,-38.55579,4.18811,0.4477792,0.4945273,0.5756034999999999,-0.05387878,-0.1189423,0.9914246,37.16599,9.772522,-41.62698,4.034088,0.3406302,0.3736197,-0.6257579000000001,1.120842,-0.3344054,-0.05631107,0.5099024999999999,0.09814484,3.9960889694521584,10.86646,32.34934107548599
1,0.05735779,-0.1220093,0.99086,0.6825026999999999,0.05735779,-0.1220093,0.99086,-30.61656,5.940155,-38.55579,4.18811,0.4477792,0.4945273,0.5756034999999999,-0.05387878,-0.1189423,0.9914246,37.16599,9.772522,-41.62698,4.034088,0.3406302,0.3736197,-0.6257579000000001,1.120842,-0.3344054,-0.05631107,0.5099024999999999,0.09814484,3.9960889694521584,10.86646,32.34934107548599
1,-0.1586761,-0.2048645,0.9658356,0.6938608,-0.1586761,-0.2048645,0.9658356,-32.234770000000005,5.3461,-38.64128,3.753601,0.5457675000000001,0.5335701,0.5951307,-0.2546539,-0.2125244,0.9433746,35.199870000000004,9.557312,-43.28078,3.702042,0.4557405,0.4214286,-0.6245049,1.119401,-0.3358462,-0.04966289,0.515544,0.09305942,4.045981,10.86646,32.34934107548599
1,-0.1586761,-0.2048645,0.9658356,0.6938608,-0.1586761,-0.2048645,0.9658356,-32.234770000000005,5.3461,-38.64128,3.753601,0.5457675000000001,0.5335701,0.5951307,-0.2546539,-0.2125244,0.9433746,35.199870000000004,9.557312,-43.28078,3.702042,0.4557405,0.4214286,-0.6245049,1.119401,-0.3358462,-0.04966289,0.515544,0.09305942,4.045981,10.86646,32.34934107548599
1,-0.1586761,-0.2048645,0.9658356,0.6938608,-0.1586761,-0.2048645,0.9658356,-32.234770000000005,5.3461,-38.64128,3.753601,0.5457675000000001,0.5335701,0.5951307,-0.2546539,-0.2125244,0.9433746,35.199870000000004,9.557312,-43.28078,3.702042,0.4557405,0.4214286,-0.6245049,1.119401,-0.3358462,-0.04966289,0.515544,0.09305942,4.045981,10.86646,32.34934107548599
1,-0.1837157999999999,-0.1850281,0.9653931,0.5630534,-0.1837157999999999,-0.1850281,0.9653931,-32.39218,5.319153,-38.67345,3.747772,0.556142,0.531315,0.6409342,-0.2841187,-0.1923828,0.93927,35.03609,9.560242,-43.33624,3.896652,0.4677447,0.4182178,-0.6234460999999999,1.118401,-0.3369586,-0.04489715,0.5197036,0.08948103,4.045981,10.86646,32.34934107548599
1,-0.1837157999999999,-0.1850281,0.9653931,0.5630534,-0.1837157999999999,-0.1850281,0.9653931,-32.39218,5.319153,-38.67345,3.747772,0.556142,0.531315,0.6409342,-0.2841187,-0.1923828,0.93927,35.03609,9.560242,-43.33624,3.896652,0.4677447,0.4182178,-0.6234460999999999,1.118401,-0.3369586,-0.04489715,0.5197036,0.08948103,4.045981,10.86646,32.34934107548599
1,-0.1837157999999999,-0.1850281,0.9653931,0.5630534,-0.1837157999999999,-0.1850281,0.9653931,-32.39218,5.319153,-38.67345,3.747772,0.556142,0.531315,0.6409342,-0.2841187,-0.1923828,0.93927,35.03609,9.560242,-43.33624,3.896652,0.4677447,0.4182178,-0.6234460999999999,1.118401,-0.3369586,-0.04489715,0.5197036,0.08948103,4.045981,10.86646,32.34934107548599
1,-0.2016449,-0.1754913,0.9635925,0.6591813,-0.1876526,-0.1710052,0.9672241,-32.43884,5.396057,-38.66666,4.054688,0.5584536999999999,0.5258949,0.7413193,-0.2942505,-0.2045287999999999,0.9335785,35.081309999999995,9.651749,-43.30943,3.705246,0.4681338,0.4170809,-0.6214397,1.117289,-0.3389842999999999,-0.03793383,0.5268202,0.08386879,4.045981,10.86646,32.34934107548599
1,-0.2016449,-0.1754913,0.9635925,0.6591813,-0.1876526,-0.1710052,0.9672241,-32.43884,5.396057,-38.66666,4.054688,0.5584536999999999,0.5258949,0.7413193,-0.2942505,-0.2045287999999999,0.9335785,35.081309999999995,9.651749,-43.30943,3.705246,0.4681338,0.4170809,-0.6214397,1.117289,-0.3389842999999999,-0.03793383,0.5268202,0.08386879,4.045981,10.86646,32.34934107548599
1,-0.2016449,-0.1754913,0.9635925,0.6591813,-0.1876526,-0.1710052,0.9672241,-32.43884,5.396057,-38.66666,4.054688,0.5584536999999999,0.5258949,0.7413193,-0.2942505,-0.2045287999999999,0.9335785,35.081309999999995,9.651749,-43.30943,3.705246,0.4681338,0.4170809,-0.6214397,1.117289,-0.3389842999999999,-0.03793383,0.5268202,0.08386879,4.045981,10.86646,32.34934107548599
1,-0.2382507,-0.1878357,0.9528503,0.6773235,-0.1917877,-0.1853485,0.9637604,-32.43086,5.547043,-38.62352,3.94838,0.5589179,0.5227326,0.7816496,-0.2795105,-0.1897125,0.9411926,35.10918,9.781647,-43.25896,3.706665,0.4642479,0.4082235,-0.6190224,1.116426,-0.3412603,-0.032694,0.5353710999999999,0.07807822,4.045981,10.86646,32.34934107548599
1,-0.2382507,-0.1878357,0.9528503,0.6773235,-0.1917877,-0.1853485,0.9637604,-32.43086,5.547043,-38.62352,3.94838,0.5589179,0.5227326,0.7816496,-0.2795105,-0.1897125,0.9411926,35.10918,9.781647,-43.25896,3.706665,0.4642479,0.4082235,-0.6190224,1.116426,-0.3412603,-0.032694,0.5353710999999999,0.07807822,4.045981,10.86646,32.34934107548599
1,-0.2382507,-0.1878357,0.9528503,0.6773235,-0.1917877,-0.1853485,0.9637604,-32.43086,5.547043,-38.62352,3.94838,0.5589179,0.5227326,0.7816496,-0.2795105,-0.1897125,0.9411926,35.10918,9.781647,-43.25896,3.706665,0.4642479,0.4082235,-0.6190224,1.116426,-0.3412603,-0.032694,0.5353710999999999,0.07807822,4.045981,10.86646,32.34934107548599
1,-0.2238464,-0.1982422,0.9542389,0.7217069,-0.1712036,-0.1867828,0.9673615,-32.41728,5.634232,-38.58772,3.945129,0.5546415,0.5192819000000001,0.7665854999999999,-0.2740936,-0.2087554999999999,0.9387665,35.16124,9.860306,-43.22664,3.590424,0.4612247,0.4086915,-0.6164407,1.11553,-0.3442042,-0.02765802,0.5448521,0.07221034,4.045981,-23.57352,32.34934107548599
1,-0.2238464,-0.1982422,0.9542389,0.7217069,-0.1712036,-0.1867828,0.9673615,-32.41728,5.634232,-38.58772,3.945129,0.5546415,0.5192819000000001,0.7665854999999999,-0.2740936,-0.2087554999999999,0.9387665,35.16124,9.860306,-43.22664,3.590424,0.4612247,0.4086915,-0.6164407,1.11553,-0.3442042,-0.02765802,0.5448521,0.07221034,4.045981,-23.57352,32.34934107548599
1,-0.2238464,-0.1982422,0.9542389,0.7217069,-0.1712036,-0.1867828,0.9673615,-32.41728,5.634232,-38.58772,3.945129,0.5546415,0.5192819000000001,0.7665854999999999,-0.2740936,-0.2087554999999999,0.9387665,35.16124,9.860306,-43.22664,3.590424,0.4612247,0.4086915,-0.6164407,1.11553,-0.3442042,-0.02765802,0.5448521,0.07221034,4.045981,-23.57352,32.34934107548599
1,-0.2201385,-0.1770172,0.959259,0.7092556999999999,-0.1664734,-0.1640625,0.97229,-32.32036,5.659530999999999,-38.58263,3.928131,0.5502560999999999,0.5139256,0.7488894,-0.2633209,-0.1871642999999999,0.9463654,35.24716,9.885452,-43.19431,3.641495,0.4558147,0.4027103,-0.6136185000000001,1.114215,-0.3476048,-0.02239849,0.5558261999999999,0.0657643,4.045981,-23.57352,32.34934107548599
1,-0.2201385,-0.1770172,0.959259,0.7092556999999999,-0.1664734,-0.1640625,0.97229,-32.32036,5.659530999999999,-38.58263,3.928131,0.5502560999999999,0.5139256,0.7488894,-0.2633209,-0.1871642999999999,0.9463654,35.24716,9.885452,-43.19431,3.641495,0.4558147,0.4027103,-0.6136185000000001,1.114215,-0.3476048,-0.02239849,0.5558261999999999,0.0657643,4.045981,-23.57352,32.34934107548599
1,-0.2201385,-0.1770172,0.959259,0.7092556999999999,-0.1664734,-0.1640625,0.97229,-32.32036,5.659530999999999,-38.58263,3.928131,0.5502560999999999,0.5139256,0.7488894,-0.2633209,-0.1871642999999999,0.9463654,35.24716,9.885452,-43.19431,3.641495,0.4558147,0.4027103,-0.6136185000000001,1.114215,-0.3476048,-0.02239849,0.5558261999999999,0.0657643,4.045981,-23.57352,32.34934107548599
1,-0.1648712,-0.1931763,0.9672089,0.6975906999999999,-0.09477234,-0.2316895,0.9681549,-32.17981,5.73259,-38.51761,3.435883,0.5321403,0.5229674,0.7691384,-0.2374572999999999,-0.1513367,0.9595337,35.39505,9.936707,-43.14439,3.837082,0.4449560999999999,0.3923637,-0.6097354,1.112046,-0.3524452,-0.015625,0.5721142,0.05652634,4.045981,-23.57352,32.34934107548599
1,-0.1648712,-0.1931763,0.9672089,0.6975906999999999,-0.09477234,-0.2316895,0.9681549,-32.17981,5.73259,-38.51761,3.435883,0.5321403,0.5229674,0.7691384,-0.2374572999999999,-0.1513367,0.9595337,35.39505,9.936707,-43.14439,3.837082,0.4449560999999999,0.3923637,-0.6097354,1.112046,-0.3524452,-0.015625,0.5721142,0.05652634,4.045981,-23.57352,32.34934107548599
1,-0.1648712,-0.1931763,0.9672089,0.6975906999999999,-0.09477234,-0.2316895,0.9681549,-32.17981,5.73259,-38.51761,3.435883,0.5321403,0.5229674,0.7691384,-0.2374572999999999,-0.1513367,0.9595337,35.39505,9.936707,-43.14439,3.837082,0.4449560999999999,0.3923637,-0.6097354,1.112046,-0.3524452,-0.015625,0.5721142,0.05652634,4.045981,-23.57352,32.34934107548599
1,-0.2186737,-0.1642761,0.9618683,0.6745018,-0.1589507999999999,-0.1490784,0.9759521,-32.406279999999995,5.690231,-38.57373,4.097305,0.5519776999999999,0.5098832,0.7700813,-0.2757874,-0.1783905,0.9445038,35.10425,9.865311,-43.23059,3.701569,0.4637742,0.4022964,-0.6077222,1.110817,-0.3549678,-0.012051,0.5807244,0.05177566,4.045981,-23.57352,32.34934107548599
1,-0.2186737,-0.1642761,0.9618683,0.6745018,-0.1589507999999999,-0.1490784,0.9759521,-32.406279999999995,5.690231,-38.57373,4.097305,0.5519776999999999,0.5098832,0.7700813,-0.2757874,-0.1783905,0.9445038,35.10425,9.865311,-43.23059,3.701569,0.4637742,0.4022964,-0.6077222,1.110817,-0.3549678,-0.012051,0.5807244,0.05177566,4.045981,-23.57352,32.34934107548599
1,-0.2186737,-0.1642761,0.9618683,0.6745018,-0.1589507999999999,-0.1490784,0.9759521,-32.406279999999995,5.690231,-38.57373,4.097305,0.5519776999999999,0.5098832,0.7700813,-0.2757874,-0.1783905,0.9445038,35.10425,9.865311,-43.23059,3.701569,0.4637742,0.4022964,-0.6077222,1.110817,-0.3549678,-0.012051,0.5807244,0.05177566,4.045981,-23.57352,32.34934107548599
1,-0.2586517,-0.1919861,0.9466858,0.6833814,-0.2368622,-0.193924,0.9519806,-32.69449,5.638153,-38.65108,3.895325,0.576889,0.5218844,0.8666476000000001,-0.3338165,-0.1844482,0.924408,34.74289,9.835556,-43.36505,3.658264,0.4892402,0.4071722,-0.6039281999999999,1.108064,-0.3602124,-0.004074297,0.5983835999999999,0.04291323,4.045981,-23.57352,32.34934107548599
1,-0.2586517,-0.1919861,0.9466858,0.6833814,-0.2368622,-0.193924,0.9519806,-32.69449,5.638153,-38.65108,3.895325,0.576889,0.5218844,0.8666476000000001,-0.3338165,-0.1844482,0.924408,34.74289,9.835556,-43.36505,3.658264,0.4892402,0.4071722,-0.6039281999999999,1.108064,-0.3602124,-0.004074297,0.5983835999999999,0.04291323,4.045981,-23.57352,32.34934107548599
1,-0.2586517,-0.1919861,0.9466858,0.6833814,-0.2368622,-0.193924,0.9519806,-32.69449,5.638153,-38.65108,3.895325,0.576889,0.5218844,0.8666476000000001,-0.3338165,-0.1844482,0.924408,34.74289,9.835556,-43.36505,3.658264,0.4892402,0.4071722,-0.6039281999999999,1.108064,-0.3602124,-0.004074297,0.5983835999999999,0.04291323,4.045981,-23.57352,32.34934107548599
1,-0.2574005,-0.1773224,0.9498901,0.6999063,-0.2130737,-0.1812744,0.9600677,-32.53775,5.7796330000000005,-38.58221,3.686829,0.5668168,0.5132792,0.8714459999999999,-0.3197632,-0.1710662999999999,0.9319153,34.943909999999995,9.928864,-43.28712,3.492249,0.4788956,0.3997166,-0.6021271,1.1068440000000002,-0.3627101,-0.000149505,0.6068531,0.03917459,4.045981,-23.57352,32.34934107548599
1,-0.2574005,-0.1773224,0.9498901,0.6999063,-0.2130737,-0.1812744,0.9600677,-32.53775,5.7796330000000005,-38.58221,3.686829,0.5668168,0.5132792,0.8714459999999999,-0.3197632,-0.1710662999999999,0.9319153,34.943909999999995,9.928864,-43.28712,3.492249,0.4788956,0.3997166,-0.6021271,1.1068440000000002,-0.3627101,-0.000149505,0.6068531,0.03917459,4.045981,-38.63635,32.34934107548599
1,-0.2574005,-0.1773224,0.9498901,0.6999063,-0.2130737,-0.1812744,0.9600677,-32.53775,5.7796330000000005,-38.58221,3.686829,0.5668168,0.5132792,0.8714459999999999,-0.3197632,-0.1710662999999999,0.9319153,34.943909999999995,9.928864,-43.28712,3.492249,0.4788956,0.3997166,-0.6021271,1.1068440000000002,-0.3627101,-0.000149505,0.6068531,0.03917459,4.045981,-38.63635,32.34934107548599
1,-0.2496185,-0.1833038,0.9508209,0.7121206999999999,-0.1975555,-0.1730194,0.9648895,-32.42577,5.83287,-38.55193,3.855606,0.5597856999999999,0.5093345,0.922184,-0.307663,-0.1942749,0.9314423,35.1364,9.984741,-43.21674,3.331802,0.4691205,0.401407,-0.5987020000000001,1.104387,-0.3674469999999999,0.008983579,0.6226586,0.03160183,4.045981,-38.63635,32.34934107548599
1,-0.2496185,-0.1833038,0.9508209,0.7121206999999999,-0.1975555,-0.1730194,0.9648895,-32.42577,5.83287,-38.55193,3.855606,0.5597856999999999,0.5093345,0.922184,-0.307663,-0.1942749,0.9314423,35.1364,9.984741,-43.21674,3.331802,0.4691205,0.401407,-0.5987020000000001,1.104387,-0.3674469999999999,0.008983579,0.6226586,0.03160183,4.045981,-38.63635,32.34934107548599
1,-0.2496185,-0.1833038,0.9508209,0.7121206999999999,-0.1975555,-0.1730194,0.9648895,-32.42577,5.83287,-38.55193,3.855606,0.5597856999999999,0.5093345,0.922184,-0.307663,-0.1942749,0.9314423,35.1364,9.984741,-43.21674,3.331802,0.4691205,0.401407,-0.5987020000000001,1.104387,-0.3674469999999999,0.008983579,0.6226586,0.03160183,4.045981,-38.63635,32.34934107548599
1,-0.1995392,-0.173584,0.964386,0.7224814,-0.1099242999999999,-0.1904144,0.9755249,-32.18481,5.881653,-38.48753,3.157578,0.5351547,0.5093437,0.8531502000000001,-0.2754211,-0.1578979,0.9482574,35.34247,10.04962,-43.15732,3.598007,0.4546507000000001,0.3900810999999999,-0.5965191,1.102345,-0.3707196,0.01704051,0.6333223000000001,0.02548348,4.045981,-38.63635,32.34934107548599
1,-0.1995392,-0.173584,0.964386,0.7224814,-0.1099242999999999,-0.1904144,0.9755249,-32.18481,5.881653,-38.48753,3.157578,0.5351547,0.5093437,0.8531502000000001,-0.2754211,-0.1578979,0.9482574,35.34247,10.04962,-43.15732,3.598007,0.4546507000000001,0.3900810999999999,-0.5965191,1.102345,-0.3707196,0.01704051,0.6333223000000001,0.02548348,4.045981,-38.63635,32.34934107548599
1,-0.1995392,-0.173584,0.964386,0.7224814,-0.1099242999999999,-0.1904144,0.9755249,-32.18481,5.881653,-38.48753,3.157578,0.5351547,0.5093437,0.8531502000000001,-0.2754211,-0.1578979,0.9482574,35.34247,10.04962,-43.15732,3.598007,0.4546507000000001,0.3900810999999999,-0.5965191,1.102345,-0.3707196,0.01704051,0.6333223000000001,0.02548348,4.045981,-38.63635,32.34934107548599
1,-0.1960602,-0.1790466,0.9640961,0.7274098000000001,-0.1173553,-0.1553345,0.9808502,-32.0528,5.92836,-38.50519,3.449707,0.5316643,0.5012175999999999,0.8541885,-0.2564697,-0.1966705,0.9463196,35.45428,10.09773,-43.116040000000005,3.226791,0.4468328,0.3955464,-0.5937996,1.099453,-0.3747672,0.02797102,0.6463883,0.016551,4.045981,-38.63635,32.34934107548599
1,-0.1960602,-0.1790466,0.9640961,0.7274098000000001,-0.1173553,-0.1553345,0.9808502,-32.0528,5.92836,-38.50519,3.449707,0.5316643,0.5012175999999999,0.8541885,-0.2564697,-0.1966705,0.9463196,35.45428,10.09773,-43.116040000000005,3.226791,0.4468328,0.3955464,-0.5937996,1.099453,-0.3747672,0.02797102,0.6463883,0.016551,4.045981,-38.63635,32.34934107548599
1,-0.1960602,-0.1790466,0.9640961,0.7274098000000001,-0.1173553,-0.1553345,0.9808502,-32.0528,5.92836,-38.50519,3.449707,0.5316643,0.5012175999999999,0.8541885,-0.2564697,-0.1966705,0.9463196,35.45428,10.09773,-43.116040000000005,3.226791,0.4468328,0.3955464,-0.5937996,1.099453,-0.3747672,0.02797102,0.6463883,0.016551,4.045981,-38.63635,32.34934107548599
1,-0.1516266,-0.1407166,0.978363,0.7053354000000001,-0.09025574,-0.1545258,0.9838562,-31.92088,6.012985,-38.51671,3.377167,0.5219536,0.4979182,0.8402780999999999,-0.23909,-0.1198119999999999,0.963562,35.615140000000004,10.16119,-43.07605,3.604736,0.4370484,0.37637,-0.5926658,1.098119,-0.376425,0.03347221,0.6520275,0.01163837,4.045981,-38.63635,32.34934107548599
1,-0.1516266,-0.1407166,0.978363,0.7053354000000001,-0.09025574,-0.1545258,0.9838562,-31.92088,6.012985,-38.51671,3.377167,0.5219536,0.4979182,0.8402780999999999,-0.23909,-0.1198119999999999,0.963562,35.615140000000004,10.16119,-43.07605,3.604736,0.4370484,0.37637,-0.5926658,1.098119,-0.376425,0.03347221,0.6520275,0.01163837,4.045981,-38.63635,32.34934107548599
1,-0.1516266,-0.1407166,0.978363,0.7053354000000001,-0.09025574,-0.1545258,0.9838562,-31.92088,6.012985,-38.51671,3.377167,0.5219536,0.4979182,0.8402780999999999,-0.23909,-0.1198119999999999,0.963562,35.615140000000004,10.16119,-43.07605,3.604736,0.4370484,0.37637,-0.5926658,1.098119,-0.376425,0.03347221,0.6520275,0.01163837,4.045981,-38.63635,32.34934107548599
1,-0.1947173999999999,-0.1344147,0.9716034,0.7025799,-0.09718323,-0.1251984,0.9873505,-31.78459,6.226837000000001,-38.77737,3.675171,0.5183343,0.4872789,0.8204345,-0.2376099,-0.1381073,0.9614868,35.73381,10.28197,-43.03978,3.363022,0.432335,0.3749908,-0.5899634,1.09566,-0.3791317999999999,0.04442768,0.6616403000000001,0.002345688,4.045981,-60.71704,32.34934107548599
1,-0.1947173999999999,-0.1344147,0.9716034,0.7025799,-0.09718323,-0.1251984,0.9873505,-31.78459,6.226837000000001,-38.77737,3.675171,0.5183343,0.4872789,0.8204345,-0.2376099,-0.1381073,0.9614868,35.73381,10.28197,-43.03978,3.363022,0.432335,0.3749908,-0.5899634,1.09566,-0.3791317999999999,0.04442768,0.6616403000000001,0.002345688,4.045981,-60.71704,32.34934107548599
1,-0.1947173999999999,-0.1344147,0.9716034,0.7025799,-0.09718323,-0.1251984,0.9873505,-31.78459,6.226837000000001,-38.77737,3.675171,0.5183343,0.4872789,0.8204345,-0.2376099,-0.1381073,0.9614868,35.73381,10.28197,-43.03978,3.363022,0.432335,0.3749908,-0.5899634,1.09566,-0.3791317999999999,0.04442768,0.6616403000000001,0.002345688,4.045981,-60.71704,32.34934107548599
1,-0.2105103,-0.163269,0.9638519,0.7192168999999999,-0.07276917,-0.1733704,0.9821625,-31.48677,6.058548,-38.63289,3.4939120000000004,0.5029774,0.5008692,0.7801020000000001,-0.2131195,-0.1630402,0.9633179,35.82748,10.05153,-43.05788,3.499954,0.4236682,0.3888977,-0.5884655,1.094704,-0.3801295,0.04888127,0.6657185999999999,-0.0008760192999999,4.045981,-60.71704,32.34934107548599
1,-0.2105103,-0.163269,0.9638519,0.7192168999999999,-0.07276917,-0.1733704,0.9821625,-31.48677,6.058548,-38.63289,3.4939120000000004,0.5029774,0.5008692,0.7801020000000001,-0.2131195,-0.1630402,0.9633179,35.82748,10.05153,-43.05788,3.499954,0.4236682,0.3888977,-0.5884655,1.094704,-0.3801295,0.04888127,0.6657185999999999,-0.0008760192999999,4.045981,-60.71704,32.34934107548599
1,-0.2105103,-0.163269,0.9638519,0.7192168999999999,-0.07276917,-0.1733704,0.9821625,-31.48677,6.058548,-38.63289,3.4939120000000004,0.5029774,0.5008692,0.7801020000000001,-0.2131195,-0.1630402,0.9633179,35.82748,10.05153,-43.05788,3.499954,0.4236682,0.3888977,-0.5884655,1.094704,-0.3801295,0.04888127,0.6657185999999999,-0.0008760192999999,4.045981,-60.71704,32.34934107548599
1,-0.2105103,-0.163269,0.9638519,0.7192168999999999,-0.07276917,-0.1733704,0.9821625,-31.48677,6.058548,-38.63289,3.4939120000000004,0.5029774,0.5008692,0.7801020000000001,-0.2131195,-0.1630402,0.9633179,35.82748,10.05153,-43.05788,3.499954,0.4236682,0.3888977,-0.5846664,1.092077,-0.3819909999999999,0.05724737,0.6742321,-0.0066039359999999,4.045981,-60.71704,32.34934107548599
1,-0.2105103,-0.163269,0.9638519,0.7192168999999999,-0.07276917,-0.1733704,0.9821625,-31.48677,6.058548,-38.63289,3.4939120000000004,0.5029774,0.5008692,0.7801020000000001,-0.2131195,-0.1630402,0.9633179,35.82748,10.05153,-43.05788,3.499954,0.4236682,0.3888977,-0.5846664,1.092077,-0.3819909999999999,0.05724737,0.6742321,-0.0066039359999999,4.045981,-60.71704,32.34934107548599
1,-0.2105103,-0.163269,0.9638519,0.7192168999999999,-0.07276917,-0.1733704,0.9821625,-31.48677,6.058548,-38.63289,3.4939120000000004,0.5029774,0.5008692,0.7801020000000001,-0.2131195,-0.1630402,0.9633179,35.82748,10.05153,-43.05788,3.499954,0.4236682,0.3888977,-0.5846664,1.092077,-0.3819909999999999,0.05724737,0.6742321,-0.0066039359999999,4.045981,-60.71704,32.34934107548599
1,-0.2105103,-0.163269,0.9638519,0.7192168999999999,-0.07276917,-0.1733704,0.9821625,-31.48677,6.058548,-38.63289,3.4939120000000004,0.5029774,0.5008692,0.7801020000000001,-0.2131195,-0.1630402,0.9633179,35.82748,10.05153,-43.05788,3.499954,0.4236682,0.3888977,-0.5846664,1.092077,-0.3819909999999999,0.05724737,0.6742321,-0.0066039359999999,4.045981,-60.71704,32.34934107548599
1,-0.2105103,-0.163269,0.9638519,0.7192168999999999,-0.07276917,-0.1733704,0.9821625,-31.48677,6.058548,-38.63289,3.4939120000000004,0.5029774,0.5008692,0.7801020000000001,-0.2131195,-0.1630402,0.9633179,35.82748,10.05153,-43.05788,3.499954,0.4236682,0.3888977,-0.5846664,1.092077,-0.3819909999999999,0.05724737,0.6742321,-0.0066039359999999,4.045981,-60.71704,32.34934107548599
1,-0.2105103,-0.163269,0.9638519,0.7192168999999999,-0.07276917,-0.1733704,0.9821625,-31.48677,6.058548,-38.63289,3.4939120000000004,0.5029774,0.5008692,0.7801020000000001,-0.2131195,-0.1630402,0.9633179,35.82748,10.05153,-43.05788,3.499954,0.4236682,0.3888977,-0.5846664,1.092077,-0.3819909999999999,0.05724737,0.6742321,-0.0066039359999999,4.045981,-60.71704,32.34934107548599
1,-0.1924744,-0.1994019,0.9608154,0.7601896,-0.05393982,-0.1818237,0.981842,-31.3315,5.817337,-38.61139,3.723831,0.4938311999999999,0.5109495,0.7337638000000001,-0.1962433,-0.1998291,0.9599609,35.932590000000005,9.88916,-43.07693,3.563675,0.4160976999999999,0.4027055999999999,-0.5827588,1.090793,-0.3823145999999999,0.05902816,0.677388,-0.0061967969999999,4.045981,-60.71704,32.34934107548599
1,-0.1924744,-0.1994019,0.9608154,0.7601896,-0.05393982,-0.1818237,0.981842,-31.3315,5.817337,-38.61139,3.723831,0.4938311999999999,0.5109495,0.7337638000000001,-0.1962433,-0.1998291,0.9599609,35.932590000000005,9.88916,-43.07693,3.563675,0.4160976999999999,0.4027055999999999,-0.5827588,1.090793,-0.3823145999999999,0.05902816,0.677388,-0.0061967969999999,4.045981,-60.71704,32.34934107548599
1,-0.1924744,-0.1994019,0.9608154,0.7601896,-0.05393982,-0.1818237,0.981842,-31.3315,5.817337,-38.61139,3.723831,0.4938311999999999,0.5109495,0.7337638000000001,-0.1962433,-0.1998291,0.9599609,35.932590000000005,9.88916,-43.07693,3.563675,0.4160976999999999,0.4027055999999999,-0.5827588,1.090793,-0.3823145999999999,0.05902816,0.677388,-0.0061967969999999,4.045981,-60.71704,32.34934107548599
1,-0.1924744,-0.1994019,0.9608154,0.7601896,-0.05393982,-0.1818237,0.981842,-31.3315,5.817337,-38.61139,3.723831,0.4938311999999999,0.5109495,0.7337638000000001,-0.1962433,-0.1998291,0.9599609,35.932590000000005,9.88916,-43.07693,3.563675,0.4160976999999999,0.4027055999999999,-0.5814657,1.090216,-0.382475,0.05921222,0.6800278000000001,-0.004528957,4.045981,-60.71704,32.34934107548599
1,-0.1924744,-0.1994019,0.9608154,0.7601896,-0.05393982,-0.1818237,0.981842,-31.3315,5.817337,-38.61139,3.723831,0.4938311999999999,0.5109495,0.7337638000000001,-0.1962433,-0.1998291,0.9599609,35.932590000000005,9.88916,-43.07693,3.563675,0.4160976999999999,0.4027055999999999,-0.5814657,1.090216,-0.382475,0.05921222,0.6800278000000001,-0.004528957,4.045981,-60.71704,32.34934107548599
1,-0.1924744,-0.1994019,0.9608154,0.7601896,-0.05393982,-0.1818237,0.981842,-31.3315,5.817337,-38.61139,3.723831,0.4938311999999999,0.5109495,0.7337638000000001,-0.1962433,-0.1998291,0.9599609,35.932590000000005,9.88916,-43.07693,3.563675,0.4160976999999999,0.4027055999999999,-0.5814657,1.090216,-0.382475,0.05921222,0.6800278000000001,-0.004528957,4.045981,-60.71704,32.34934107548599
1,-0.1389922999999999,-0.168869,0.9757843,0.767958,-0.04194641,-0.1948089999999999,0.9799347,-31.18266,6.0215760000000005,-38.5864,3.5632019999999995,0.486275,0.5056782,0.7379150999999999,-0.1514893,-0.1653748,0.9745178,36.34073,10.09203,-42.9789,3.488007,0.3915712999999999,0.3858193,-0.5807683000000001,1.090119,-0.3826251,0.0589886999999999,0.6825364,-0.002808944,4.045981,41.27997,32.34934107548599
1,-0.1389922999999999,-0.168869,0.9757843,0.767958,-0.04194641,-0.1948089999999999,0.9799347,-31.18266,6.0215760000000005,-38.5864,3.5632019999999995,0.486275,0.5056782,0.7379150999999999,-0.1514893,-0.1653748,0.9745178,36.34073,10.09203,-42.9789,3.488007,0.3915712999999999,0.3858193,-0.5807683000000001,1.090119,-0.3826251,0.0589886999999999,0.6825364,-0.002808944,4.045981,41.27997,32.34934107548599
1,-0.1389922999999999,-0.168869,0.9757843,0.767958,-0.04194641,-0.1948089999999999,0.9799347,-31.18266,6.0215760000000005,-38.5864,3.5632019999999995,0.486275,0.5056782,0.7379150999999999,-0.1514893,-0.1653748,0.9745178,36.34073,10.09203,-42.9789,3.488007,0.3915712999999999,0.3858193,-0.5807683000000001,1.090119,-0.3826251,0.0589886999999999,0.6825364,-0.002808944,4.045981,41.27997,32.34934107548599
2,-0.08111572,-0.1813049,0.980072,0.7661729,-0.03761292,-0.184906,0.9820251,-31.17331,6.0059510000000005,-38.58905,3.693192,0.4851403,0.5043924,0.7442281,-0.1510773,-0.1747589,0.9729462,36.37064,10.0787,-42.98221,3.47937,0.3903081,0.388288,-0.5803928,1.090318,-0.3828331,0.05840621,0.6846171,-0.0003112195,4.045981,41.27997,32.34934107548599
2,-0.08111572,-0.1813049,0.980072,0.7661729,-0.03761292,-0.184906,0.9820251,-31.17331,6.0059510000000005,-38.58905,3.693192,0.4851403,0.5043924,0.7442281,-0.1510773,-0.1747589,0.9729462,36.37064,10.0787,-42.98221,3.47937,0.3903081,0.388288,-0.5803928,1.090318,-0.3828331,0.05840621,0.6846171,-0.0003112195,4.045981,41.27997,32.34934107548599
2,-0.08111572,-0.1813049,0.980072,0.7661729,-0.03761292,-0.184906,0.9820251,-31.17331,6.0059510000000005,-38.58905,3.693192,0.4851403,0.5043924,0.7442281,-0.1510773,-0.1747589,0.9729462,36.37064,10.0787,-42.98221,3.47937,0.3903081,0.388288,-0.5803928,1.090318,-0.3828331,0.05840621,0.6846171,-0.0003112195,4.045981,41.27997,32.34934107548599
2,-0.0952301,-0.1758118,0.9797974,0.7649519,-0.03474426,-0.1848907,0.982132,-31.16718,5.992889,-38.59154,3.696884,0.4843962999999999,0.5048674,0.7341557,-0.1538086,-0.1663512999999999,0.9739838,36.43161,10.06212,-42.98016,3.670593,0.3882877999999999,0.3870898,-0.5803547,1.091089,-0.3831385,0.05634047,0.6887496999999999,0.002745225,4.045981,41.27997,32.34934107548599
2,-0.0952301,-0.1758118,0.9797974,0.7649519,-0.03474426,-0.1848907,0.982132,-31.16718,5.992889,-38.59154,3.696884,0.4843962999999999,0.5048674,0.7341557,-0.1538086,-0.1663512999999999,0.9739838,36.43161,10.06212,-42.98016,3.670593,0.3882877999999999,0.3870898,-0.5803547,1.091089,-0.3831385,0.05634047,0.6887496999999999,0.002745225,4.045981,41.27997,32.34934107548599
2,-0.0952301,-0.1758118,0.9797974,0.7649519,-0.03474426,-0.1848907,0.982132,-31.16718,5.992889,-38.59154,3.696884,0.4843962999999999,0.5048674,0.7341557,-0.1538086,-0.1663512999999999,0.9739838,36.43161,10.06212,-42.98016,3.670593,0.3882877999999999,0.3870898,-0.5803547,1.091089,-0.3831385,0.05634047,0.6887496999999999,0.002745225,4.045981,41.27997,32.34934107548599
2,-0.09437561,-0.1813812,0.9788666,0.78228,-0.03466797,-0.184845,0.9821472,-31.16605,5.992218,-38.592,3.698868,0.4843404,0.5048956,0.7395946,-0.1524963,-0.1773529,0.9722443,36.432970000000005,10.05963,-42.9778,3.573242,0.3880532,0.3894558,-0.5808767,1.091588,-0.3830724,0.05549449,0.6904331,0.004226878,4.045981,41.27997,32.34934107548599
2,-0.09437561,-0.1813812,0.9788666,0.78228,-0.03466797,-0.184845,0.9821472,-31.16605,5.992218,-38.592,3.698868,0.4843404,0.5048956,0.7395946,-0.1524963,-0.1773529,0.9722443,36.432970000000005,10.05963,-42.9778,3.573242,0.3880532,0.3894558,-0.5808767,1.091588,-0.3830724,0.05549449,0.6904331,0.004226878,4.045981,41.27997,32.34934107548599
2,-0.09437561,-0.1813812,0.9788666,0.78228,-0.03466797,-0.184845,0.9821472,-31.16605,5.992218,-38.592,3.698868,0.4843404,0.5048956,0.7395946,-0.1524963,-0.1773529,0.9722443,36.432970000000005,10.05963,-42.9778,3.573242,0.3880532,0.3894558,-0.5808767,1.091588,-0.3830724,0.05549449,0.6904331,0.004226878,4.045981,41.27997,32.34934107548599
2,-0.09437561,-0.1813812,0.9788666,0.78228,-0.03466797,-0.184845,0.9821472,-31.16605,5.992218,-38.592,3.698868,0.4843404,0.5048956,0.7395946,-0.1524963,-0.1773529,0.9722443,36.432970000000005,10.05963,-42.9778,3.573242,0.3880532,0.3894558,-0.5808767,1.091588,-0.3830724,0.05549449,0.6904331,0.004226878,4.045981,41.27997,32.34934107548599
2,-0.09437561,-0.1813812,0.9788666,0.78228,-0.03466797,-0.184845,0.9821472,-31.16605,5.992218,-38.592,3.698868,0.4843404,0.5048956,0.7395946,-0.1524963,-0.1773529,0.9722443,36.432970000000005,10.05963,-42.9778,3.573242,0.3880532,0.3894558,-0.5808767,1.091588,-0.3830724,0.05549449,0.6904331,0.004226878,4.045981,41.27997,32.34934107548599
2,-0.09437561,-0.1813812,0.9788666,0.78228,-0.03466797,-0.184845,0.9821472,-31.16605,5.992218,-38.592,3.698868,0.4843404,0.5048956,0.7395946,-0.1524963,-0.1773529,0.9722443,36.432970000000005,10.05963,-42.9778,3.573242,0.3880532,0.3894558,-0.5808767,1.091588,-0.3830724,0.05549449,0.6904331,0.004226878,4.045981,41.27997,32.34934107548599
2,-0.07058716,-0.1749878,0.9820251,0.7536716,-0.01765442,-0.1777648999999999,0.983902,-31.09938,5.937531,-38.6153,3.739792,0.478835,0.5057113,0.738796,-0.1312713999999999,-0.1711578,0.9764557,36.48926,10.06572,-42.95836,3.661819,0.3816186,0.3874020999999999,-0.58398,1.09309,-0.3830472,0.0544369,0.6930533,0.008131432,4.045981,-3.454773,32.34934107548599
2,-0.07058716,-0.1749878,0.9820251,0.7536716,-0.01765442,-0.1777648999999999,0.983902,-31.09938,5.937531,-38.6153,3.739792,0.478835,0.5057113,0.738796,-0.1312713999999999,-0.1711578,0.9764557,36.48926,10.06572,-42.95836,3.661819,0.3816186,0.3874020999999999,-0.58398,1.09309,-0.3830472,0.0544369,0.6930533,0.008131432,4.045981,-3.454773,32.34934107548599
2,-0.07058716,-0.1749878,0.9820251,0.7536716,-0.01765442,-0.1777648999999999,0.983902,-31.09938,5.937531,-38.6153,3.739792,0.478835,0.5057113,0.738796,-0.1312713999999999,-0.1711578,0.9764557,36.48926,10.06572,-42.95836,3.661819,0.3816186,0.3874020999999999,-0.58398,1.09309,-0.3830472,0.0544369,0.6930533,0.008131432,4.045981,-3.454773,32.34934107548599
2,-0.07034302,-0.1856537,0.9800873,0.7636428000000001,-0.009735107,-0.1916962,0.9813995,-31.0739,5.952834999999999,-38.61436,3.737732,0.4764680999999999,0.5077862,0.7230335999999999,-0.1265869,-0.1794127999999999,0.9755859,36.5426,10.05409,-42.96246,3.643921,0.3786022999999999,0.389507,-0.5868273,1.09447,-0.3829449,0.05373843,0.6944371,0.009943862,4.045981,-3.454773,32.34934107548599
2,-0.07034302,-0.1856537,0.9800873,0.7636428000000001,-0.009735107,-0.1916962,0.9813995,-31.0739,5.952834999999999,-38.61436,3.737732,0.4764680999999999,0.5077862,0.7230335999999999,-0.1265869,-0.1794127999999999,0.9755859,36.5426,10.05409,-42.96246,3.643921,0.3786022999999999,0.389507,-0.5868273,1.09447,-0.3829449,0.05373843,0.6944371,0.009943862,4.045981,-3.454773,32.34934107548599
2,-0.07034302,-0.1856537,0.9800873,0.7636428000000001,-0.009735107,-0.1916962,0.9813995,-31.0739,5.952834999999999,-38.61436,3.737732,0.4764680999999999,0.5077862,0.7230335999999999,-0.1265869,-0.1794127999999999,0.9755859,36.5426,10.05409,-42.96246,3.643921,0.3786022999999999,0.389507,-0.5868273,1.09447,-0.3829449,0.05373843,0.6944371,0.009943862,4.045981,-3.454773,32.34934107548599
2,-0.06837463,-0.1858215,0.9801940999999998,0.7560600000000001,-0.01042175,-0.1921387,0.981308,-31.07056,5.952286,-38.61443,3.736786,0.4764680999999999,0.5078891999999999,0.6896346,-0.1257781999999999,-0.1789093,0.9757843,36.554120000000005,10.05103,-42.96274,3.643127,0.3779914,0.389507,-0.5908813,1.096457,-0.3829381,0.05058323,0.6957479999999999,0.01375717,4.045981,-3.454773,32.34934107548599
2,-0.06837463,-0.1858215,0.9801940999999998,0.7560600000000001,-0.01042175,-0.1921387,0.981308,-31.07056,5.952286,-38.61443,3.736786,0.4764680999999999,0.5078891999999999,0.6896346,-0.1257781999999999,-0.1789093,0.9757843,36.554120000000005,10.05103,-42.96274,3.643127,0.3779914,0.389507,-0.5908813,1.096457,-0.3829381,0.05058323,0.6957479999999999,0.01375717,4.045981,-3.454773,32.34934107548599
2,-0.06837463,-0.1858215,0.9801940999999998,0.7560600000000001,-0.01042175,-0.1921387,0.981308,-31.07056,5.952286,-38.61443,3.736786,0.4764680999999999,0.5078891999999999,0.6896346,-0.1257781999999999,-0.1789093,0.9757843,36.554120000000005,10.05103,-42.96274,3.643127,0.3779914,0.389507,-0.5908813,1.096457,-0.3829381,0.05058323,0.6957479999999999,0.01375717,4.045981,-3.454773,32.34934107548599
2,-0.06439209,-0.1998749,0.9776917,0.7246554000000001,-0.009078979,-0.2029418999999999,0.9791412,-31.02707,6.002502,-38.60568,3.704819,0.4746412,0.5080246,0.6571889,-0.1169891,-0.1963806,0.9735107,36.66272,10.01013,-42.96652,3.461899,0.3721274,0.3946429999999999,-0.5956167,1.099373,-0.3826352,0.04555092,0.6955231,0.0208332,4.045981,-3.454773,32.34934107548599
2,-0.06439209,-0.1998749,0.9776917,0.7246554000000001,-0.009078979,-0.2029418999999999,0.9791412,-31.02707,6.002502,-38.60568,3.704819,0.4746412,0.5080246,0.6571889,-0.1169891,-0.1963806,0.9735107,36.66272,10.01013,-42.96652,3.461899,0.3721274,0.3946429999999999,-0.5956167,1.099373,-0.3826352,0.04555092,0.6955231,0.0208332,4.045981,-3.454773,32.34934107548599
2,-0.06439209,-0.1998749,0.9776917,0.7246554000000001,-0.009078979,-0.2029418999999999,0.9791412,-31.02707,6.002502,-38.60568,3.704819,0.4746412,0.5080246,0.6571889,-0.1169891,-0.1963806,0.9735107,36.66272,10.01013,-42.96652,3.461899,0.3721274,0.3946429999999999,-0.5956167,1.099373,-0.3826352,0.04555092,0.6955231,0.0208332,4.045981,-3.454773,32.34934107548599
2,-1.0,-1.0,-1.0,0.3712466,0.0,0.0,0.0,-29.88908,7.756577,-40.23413,-1.0,0.4061255,0.4178303,0.3785435,0.0,0.0,0.0,37.427690000000005,8.102219,-34.30876,-1.0,0.3327777999999999,0.3614525,-0.6077395000000001,1.106799,-0.3814725,0.03028654,0.6912096999999999,0.03894956,4.045981,-53.79156,32.34934107548599
2,-1.0,-1.0,-1.0,0.3712466,0.0,0.0,0.0,-29.88908,7.756577,-40.23413,-1.0,0.4061255,0.4178303,0.3785435,0.0,0.0,0.0,37.427690000000005,8.102219,-34.30876,-1.0,0.3327777999999999,0.3614525,-0.6077395000000001,1.106799,-0.3814725,0.03028654,0.6912096999999999,0.03894956,4.045981,-53.79156,32.34934107548599
2,-1.0,-1.0,-1.0,0.3712466,0.0,0.0,0.0,-29.88908,7.756577,-40.23413,-1.0,0.4061255,0.4178303,0.3785435,0.0,0.0,0.0,37.427690000000005,8.102219,-34.30876,-1.0,0.3327777999999999,0.3614525,-0.6077395000000001,1.106799,-0.3814725,0.03028654,0.6912096999999999,0.03894956,4.045981,-53.79156,32.34934107548599
2,-1.0,-1.0,-1.0,0.5193511,0.0,0.0,0.0,-29.88628,7.403336,-39.35928,-1.0,0.4049801,0.4157934,0.48743,0.0,0.0,0.0,37.77516,11.18083,-42.72404,-1.0,0.2978398,0.31799,-0.6077395000000001,1.106799,-0.3814725,0.03028654,0.6912096999999999,0.03894956,4.045981,-53.79156,32.34934107548599
2,-1.0,-1.0,-1.0,0.5193511,0.0,0.0,0.0,-29.88628,7.403336,-39.35928,-1.0,0.4049801,0.4157934,0.48743,0.0,0.0,0.0,37.77516,11.18083,-42.72404,-1.0,0.2978398,0.31799,-0.6077395000000001,1.106799,-0.3814725,0.03028654,0.6912096999999999,0.03894956,4.045981,-53.79156,32.34934107548599
2,-1.0,-1.0,-1.0,0.5193511,0.0,0.0,0.0,-29.88628,7.403336,-39.35928,-1.0,0.4049801,0.4157934,0.48743,0.0,0.0,0.0,37.77516,11.18083,-42.72404,-1.0,0.2978398,0.31799,-0.6077395000000001,1.106799,-0.3814725,0.03028654,0.6912096999999999,0.03894956,4.045981,-53.79156,32.34934107548599
2,0.1333007999999999,0.01582336,0.9909363,0.6004783,0.1333007999999999,0.01582336,0.9909363,-29.94545,7.466553,-39.96629,3.796112,0.4088550999999999,0.4261792,0.5691468000000001,0.01664734,-0.136261,0.9905243,37.73944,11.22754,-43.2599,2.758408,0.3008802,0.3324838,-0.6232824,1.113803,-0.3799394,0.009170926,0.6831516,0.06009626,4.045981,-53.79156,32.34934107548599
2,0.1333007999999999,0.01582336,0.9909363,0.6004783,0.1333007999999999,0.01582336,0.9909363,-29.94545,7.466553,-39.96629,3.796112,0.4088550999999999,0.4261792,0.5691468000000001,0.01664734,-0.136261,0.9905243,37.73944,11.22754,-43.2599,2.758408,0.3008802,0.3324838,-0.6232824,1.113803,-0.3799394,0.009170926,0.6831516,0.06009626,4.045981,-53.79156,32.34934107548599
2,0.1333007999999999,0.01582336,0.9909363,0.6004783,0.1333007999999999,0.01582336,0.9909363,-29.94545,7.466553,-39.96629,3.796112,0.4088550999999999,0.4261792,0.5691468000000001,0.01664734,-0.136261,0.9905243,37.73944,11.22754,-43.2599,2.758408,0.3008802,0.3324838,-0.6232824,1.113803,-0.3799394,0.009170926,0.6831516,0.06009626,4.045981,-53.79156,32.34934107548599
2,0.06039429,-0.06985474,0.9957123,0.6253145,0.1237335,-0.003295898,0.9922943,-30.00278,6.986435,-38.897,3.743362,0.4132723,0.4373795,0.6154191999999999,0.0100708,-0.1219481999999999,0.9924774,37.75249,10.90253,-42.63443,2.919449,0.3027455,0.3368085999999999,-0.6322824,1.117665,-0.3790436,-0.003031549,0.6776053000000001,0.07247536,4.045981,-53.79156,32.34934107548599
2,0.06039429,-0.06985474,0.9957123,0.6253145,0.1237335,-0.003295898,0.9922943,-30.00278,6.986435,-38.897,3.743362,0.4132723,0.4373795,0.6154191999999999,0.0100708,-0.1219481999999999,0.9924774,37.75249,10.90253,-42.63443,2.919449,0.3027455,0.3368085999999999,-0.6322824,1.117665,-0.3790436,-0.003031549,0.6776053000000001,0.07247536,4.045981,-53.79156,32.34934107548599
2,0.06039429,-0.06985474,0.9957123,0.6253145,0.1237335,-0.003295898,0.9922943,-30.00278,6.986435,-38.897,3.743362,0.4132723,0.4373795,0.6154191999999999,0.0100708,-0.1219481999999999,0.9924774,37.75249,10.90253,-42.63443,2.919449,0.3027455,0.3368085999999999,-0.6322824,1.117665,-0.3790436,-0.003031549,0.6776053000000001,0.07247536,4.045981,-53.79156,32.34934107548599
2,0.009414673,-0.1087645999999999,0.9940186,0.6429419,0.1278533999999999,-0.008590698,0.991745,-30.08931,7.316391,-40.39326,3.62027,0.4149474,0.4403062,0.6107944000000001,0.009399414,-0.1087799,0.9940186,37.68523,10.88115,-42.71423,3.033722,0.3053879,0.3357192,-0.6416841999999999,1.122484,-0.378275,-0.01775809,0.6714536999999999,0.08737108,4.045981,-53.79156,33.63
2,0.009414673,-0.1087645999999999,0.9940186,0.6429419,0.1278533999999999,-0.008590698,0.991745,-30.08931,7.316391,-40.39326,3.62027,0.4149474,0.4403062,0.6107944000000001,0.009399414,-0.1087799,0.9940186,37.68523,10.88115,-42.71423,3.033722,0.3053879,0.3357192,-0.6416841999999999,1.122484,-0.378275,-0.01775809,0.6714536999999999,0.08737108,4.045981,-53.79156,33.63
2,0.009414673,-0.1087645999999999,0.9940186,0.6429419,0.1278533999999999,-0.008590698,0.991745,-30.08931,7.316391,-40.39326,3.62027,0.4149474,0.4403062,0.6107944000000001,0.009399414,-0.1087799,0.9940186,37.68523,10.88115,-42.71423,3.033722,0.3053879,0.3357192,-0.6416841999999999,1.122484,-0.378275,-0.01775809,0.6714536999999999,0.08737108,4.045981,-53.79156,33.63
2,-0.006118774,-0.1048279,0.9944611,0.6232943,0.1117249,-0.02763367,0.9933472,-30.14307,7.086578,-39.92049,3.738083,0.4201656,0.4479124,0.6083485,-0.006149292,-0.1048431,0.9944611,37.61836,10.84583,-43.02734,3.216812,0.3108397,0.3395727,-0.6515062,1.126817,-0.3777521,-0.03081985,0.6657295999999999,0.102622,4.045981,-37.55969,33.63
2,-0.006118774,-0.1048279,0.9944611,0.6232943,0.1117249,-0.02763367,0.9933472,-30.14307,7.086578,-39.92049,3.738083,0.4201656,0.4479124,0.6083485,-0.006149292,-0.1048431,0.9944611,37.61836,10.84583,-43.02734,3.216812,0.3108397,0.3395727,-0.6515062,1.126817,-0.3777521,-0.03081985,0.6657295999999999,0.102622,4.045981,-37.55969,33.63
2,-0.006118774,-0.1048279,0.9944611,0.6232943,0.1117249,-0.02763367,0.9933472,-30.14307,7.086578,-39.92049,3.738083,0.4201656,0.4479124,0.6083485,-0.006149292,-0.1048431,0.9944611,37.61836,10.84583,-43.02734,3.216812,0.3108397,0.3395727,-0.6515062,1.126817,-0.3777521,-0.03081985,0.6657295999999999,0.102622,4.045981,-37.55969,33.63
2,-0.003204346,-0.142746,0.9897461,0.642249,0.09709167,-0.08781433,0.9913788,-30.25195,6.915298,-39.99991,3.507965,0.4267901,0.4662022,0.6099,-0.01089478,-0.1468963999999999,0.98909,37.5554,10.44012,-42.06041,3.141235,0.3163336,0.3561502,-0.6617799,1.1304,-0.3777525,-0.04414547,0.6611859,0.1171823,4.045981,-37.55969,33.63
2,-0.003204346,-0.142746,0.9897461,0.642249,0.09709167,-0.08781433,0.9913788,-30.25195,6.915298,-39.99991,3.507965,0.4267901,0.4662022,0.6099,-0.01089478,-0.1468963999999999,0.98909,37.5554,10.44012,-42.06041,3.141235,0.3163336,0.3561502,-0.6617799,1.1304,-0.3777525,-0.04414547,0.6611859,0.1171823,4.045981,-37.55969,33.63
2,-0.003204346,-0.142746,0.9897461,0.642249,0.09709167,-0.08781433,0.9913788,-30.25195,6.915298,-39.99991,3.507965,0.4267901,0.4662022,0.6099,-0.01089478,-0.1468963999999999,0.98909,37.5554,10.44012,-42.06041,3.141235,0.3163336,0.3561502,-0.6617799,1.1304,-0.3777525,-0.04414547,0.6611859,0.1171823,4.045981,-37.55969,33.63
2,0.09594727,-0.1171265,0.9884644,0.6862161999999999,0.1004486,-0.1132355,0.9884644,-30.52271,6.566925,-39.57031,3.758759,0.4362795999999999,0.4798242,0.5977121999999999,-0.02163696,-0.2162323,0.9760895,37.26443,10.36014,-42.83549,2.8405150000000003,0.329775,0.3823251,-0.6824279000000001,1.135389,-0.3788351,-0.07055469,0.6546486,0.1436897,4.045981,-37.55969,33.63
2,0.09594727,-0.1171265,0.9884644,0.6862161999999999,0.1004486,-0.1132355,0.9884644,-30.52271,6.566925,-39.57031,3.758759,0.4362795999999999,0.4798242,0.5977121999999999,-0.02163696,-0.2162323,0.9760895,37.26443,10.36014,-42.83549,2.8405150000000003,0.329775,0.3823251,-0.6824279000000001,1.135389,-0.3788351,-0.07055469,0.6546486,0.1436897,4.045981,-37.55969,33.63
2,0.09594727,-0.1171265,0.9884644,0.6862161999999999,0.1004486,-0.1132355,0.9884644,-30.52271,6.566925,-39.57031,3.758759,0.4362795999999999,0.4798242,0.5977121999999999,-0.02163696,-0.2162323,0.9760895,37.26443,10.36014,-42.83549,2.8405150000000003,0.329775,0.3823251,-0.6824279000000001,1.135389,-0.3788351,-0.07055469,0.6546486,0.1436897,4.045981,-37.55969,33.63
2,-0.1096801999999999,-0.1279906999999999,0.9856873,0.4479324999999999,-0.02709961,-0.1105652,0.9934845,-31.37007,7.277176,-40.68858,3.609726,0.4909235999999999,0.4642648,0.567074,-0.1097716999999999,-0.1280059999999999,0.985672,36.32597,10.70575,-42.84947,3.5827480000000005,0.383793,0.3518833,-0.6824279000000001,1.135389,-0.3788351,-0.07055469,0.6546486,0.1436897,4.045981,-37.55969,33.63
2,-0.1096801999999999,-0.1279906999999999,0.9856873,0.4479324999999999,-0.02709961,-0.1105652,0.9934845,-31.37007,7.277176,-40.68858,3.609726,0.4909235999999999,0.4642648,0.567074,-0.1097716999999999,-0.1280059999999999,0.985672,36.32597,10.70575,-42.84947,3.5827480000000005,0.383793,0.3518833,-0.6824279000000001,1.135389,-0.3788351,-0.07055469,0.6546486,0.1436897,4.045981,-37.55969,33.63
2,-0.1096801999999999,-0.1279906999999999,0.9856873,0.4479324999999999,-0.02709961,-0.1105652,0.9934845,-31.37007,7.277176,-40.68858,3.609726,0.4909235999999999,0.4642648,0.567074,-0.1097716999999999,-0.1280059999999999,0.985672,36.32597,10.70575,-42.84947,3.5827480000000005,0.383793,0.3518833,-0.6824279000000001,1.135389,-0.3788351,-0.07055469,0.6546486,0.1436897,4.045981,-37.55969,33.63
2,-0.1604767,-0.1245728,0.9791412,0.4924535,-0.04353333,-0.06192017,0.9971161,-31.59508,6.983978,-40.28566,3.82547,0.5021729,0.4621269,0.5903635,-0.1605072,-0.124588,0.979126,36.00757,10.62781,-42.91333,3.4205019999999995,0.406465,0.3559669,-0.7038460999999999,1.137534,-0.3814083,-0.09306733,0.6511772,0.1555619999999999,4.045981,-38.34387,33.63
2,-0.1604767,-0.1245728,0.9791412,0.4924535,-0.04353333,-0.06192017,0.9971161,-31.59508,6.983978,-40.28566,3.82547,0.5021729,0.4621269,0.5903635,-0.1605072,-0.124588,0.979126,36.00757,10.62781,-42.91333,3.4205019999999995,0.406465,0.3559669,-0.7038460999999999,1.137534,-0.3814083,-0.09306733,0.6511772,0.1555619999999999,4.045981,-38.34387,33.63
2,-0.1604767,-0.1245728,0.9791412,0.4924535,-0.04353333,-0.06192017,0.9971161,-31.59508,6.983978,-40.28566,3.82547,0.5021729,0.4621269,0.5903635,-0.1605072,-0.124588,0.979126,36.00757,10.62781,-42.91333,3.4205019999999995,0.406465,0.3559669,-0.7038460999999999,1.137534,-0.3814083,-0.09306733,0.6511772,0.1555619999999999,4.045981,-38.34387,33.63
2,-0.1393738,-0.1346282999999999,0.9810333,0.5688751,-0.04298401,-0.1115112,0.9928284,-31.60028,7.363541000000001,-41.97099,3.523514,0.502695,0.4737962,0.6718736999999999,-0.1393738,-0.1346282999999999,0.9810333,36.02162,10.56425,-42.913070000000005,3.1121060000000003,0.4020187,0.360433,-0.7146666,1.138256,-0.3828028,-0.1029708,0.6482806999999999,0.1616517999999999,4.045981,-38.34387,33.63
2,-0.1393738,-0.1346282999999999,0.9810333,0.5688751,-0.04298401,-0.1115112,0.9928284,-31.60028,7.363541000000001,-41.97099,3.523514,0.502695,0.4737962,0.6718736999999999,-0.1393738,-0.1346282999999999,0.9810333,36.02162,10.56425,-42.913070000000005,3.1121060000000003,0.4020187,0.360433,-0.7146666,1.138256,-0.3828028,-0.1029708,0.6482806999999999,0.1616517999999999,4.045981,-38.34387,33.63
2,-0.1393738,-0.1346282999999999,0.9810333,0.5688751,-0.04298401,-0.1115112,0.9928284,-31.60028,7.363541000000001,-41.97099,3.523514,0.502695,0.4737962,0.6718736999999999,-0.1393738,-0.1346282999999999,0.9810333,36.02162,10.56425,-42.913070000000005,3.1121060000000003,0.4020187,0.360433,-0.7146666,1.138256,-0.3828028,-0.1029708,0.6482806999999999,0.1616517999999999,4.045981,-38.34387,33.63
2,-0.1393738,-0.1346282999999999,0.9810333,0.5688751,-0.04298401,-0.1115112,0.9928284,-31.60028,7.363541000000001,-41.97099,3.523514,0.502695,0.4737962,0.6718736999999999,-0.1393738,-0.1346282999999999,0.9810333,36.02162,10.56425,-42.913070000000005,3.1121060000000003,0.4020187,0.360433,-0.7146666,1.138256,-0.3828028,-0.1029708,0.6482806999999999,0.1616517999999999,4.045981,-38.34387,33.63
2,-0.1393738,-0.1346282999999999,0.9810333,0.5688751,-0.04298401,-0.1115112,0.9928284,-31.60028,7.363541000000001,-41.97099,3.523514,0.502695,0.4737962,0.6718736999999999,-0.1393738,-0.1346282999999999,0.9810333,36.02162,10.56425,-42.913070000000005,3.1121060000000003,0.4020187,0.360433,-0.7146666,1.138256,-0.3828028,-0.1029708,0.6482806999999999,0.1616517999999999,4.045981,-38.34387,33.63
2,-0.1393738,-0.1346282999999999,0.9810333,0.5688751,-0.04298401,-0.1115112,0.9928284,-31.60028,7.363541000000001,-41.97099,3.523514,0.502695,0.4737962,0.6718736999999999,-0.1393738,-0.1346282999999999,0.9810333,36.02162,10.56425,-42.913070000000005,3.1121060000000003,0.4020187,0.360433,-0.7146666,1.138256,-0.3828028,-0.1029708,0.6482806999999999,0.1616517999999999,4.045981,-38.34387,33.63
2,-0.1842194,-0.1482849,0.9716187,0.5688751,-0.05537415,-0.08807373,0.9945679,-31.60812,6.982589999999999,-40.79996,3.816315,0.5049344,0.4721305999999999,0.6718736999999999,-0.1842194,-0.1482849,0.9716187,36.04295,10.51239,-42.94606,3.3668370000000003,0.4097684,0.3660915,-0.7354498,1.137797,-0.3857342,-0.1190339999999999,0.6433899000000001,0.1744494,4.045981,-38.34387,33.63
2,-0.1842194,-0.1482849,0.9716187,0.5688751,-0.05537415,-0.08807373,0.9945679,-31.60812,6.982589999999999,-40.79996,3.816315,0.5049344,0.4721305999999999,0.6718736999999999,-0.1842194,-0.1482849,0.9716187,36.04295,10.51239,-42.94606,3.3668370000000003,0.4097684,0.3660915,-0.7354498,1.137797,-0.3857342,-0.1190339999999999,0.6433899000000001,0.1744494,4.045981,-38.34387,33.63
2,-0.1842194,-0.1482849,0.9716187,0.5688751,-0.05537415,-0.08807373,0.9945679,-31.60812,6.982589999999999,-40.79996,3.816315,0.5049344,0.4721305999999999,0.6718736999999999,-0.1842194,-0.1482849,0.9716187,36.04295,10.51239,-42.94606,3.3668370000000003,0.4097684,0.3660915,-0.7354498,1.137797,-0.3857342,-0.1190339999999999,0.6433899000000001,0.1744494,4.045981,-38.34387,33.63
2,-0.1842194,-0.1482849,0.9716187,0.5688751,-0.05537415,-0.08807373,0.9945679,-31.60812,6.982589999999999,-40.79996,3.816315,0.5049344,0.4721305999999999,0.6718736999999999,-0.1842194,-0.1482849,0.9716187,36.04295,10.51239,-42.94606,3.3668370000000003,0.4097684,0.3660915,-0.7452835999999999,1.136678,-0.3873816,-0.1243741999999999,0.6417415,0.1812797,4.045981,-38.34387,33.63
2,-0.1842194,-0.1482849,0.9716187,0.5688751,-0.05537415,-0.08807373,0.9945679,-31.60812,6.982589999999999,-40.79996,3.816315,0.5049344,0.4721305999999999,0.6718736999999999,-0.1842194,-0.1482849,0.9716187,36.04295,10.51239,-42.94606,3.3668370000000003,0.4097684,0.3660915,-0.7452835999999999,1.136678,-0.3873816,-0.1243741999999999,0.6417415,0.1812797,4.045981,-38.34387,33.63
2,-0.1842194,-0.1482849,0.9716187,0.5688751,-0.05537415,-0.08807373,0.9945679,-31.60812,6.982589999999999,-40.79996,3.816315,0.5049344,0.4721305999999999,0.6718736999999999,-0.1842194,-0.1482849,0.9716187,36.04295,10.51239,-42.94606,3.3668370000000003,0.4097684,0.3660915,-0.7452835999999999,1.136678,-0.3873816,-0.1243741999999999,0.6417415,0.1812797,4.045981,-38.34387,33.63
2,-0.1703949,-0.189682,0.9669342,0.7184012,-0.04780579,-0.1575012,0.9863586,-31.69226,6.308838,-40.10736,3.711044,0.5063425,0.5032697,0.7443424,-0.1703949,-0.189682,0.9669342,36.0325,9.958115,-43.0632,3.276764,0.4074320999999999,0.3974744,-0.7545270000000001,1.135597,-0.388858,-0.1302776,0.6406594,0.1879237999999999,4.053669,-38.34387,33.63
2,-0.1703949,-0.189682,0.9669342,0.7184012,-0.04780579,-0.1575012,0.9863586,-31.69226,6.308838,-40.10736,3.711044,0.5063425,0.5032697,0.7443424,-0.1703949,-0.189682,0.9669342,36.0325,9.958115,-43.0632,3.276764,0.4074320999999999,0.3974744,-0.7545270000000001,1.135597,-0.388858,-0.1302776,0.6406594,0.1879237999999999,3.948193,-51.7583,33.63
2,-0.1703949,-0.189682,0.9669342,0.7184012,-0.04780579,-0.1575012,0.9863586,-31.69226,6.308838,-40.10736,3.711044,0.5063425,0.5032697,0.7443424,-0.1703949,-0.189682,0.9669342,36.0325,9.958115,-43.0632,3.276764,0.4074320999999999,0.3974744,-0.7545270000000001,1.135597,-0.388858,-0.1302776,0.6406594,0.1879237999999999,3.948193,-51.7583,33.63
2,-0.1902771,-0.1986847,0.9614105,0.7232938,-0.03663635,-0.17099,0.9845886,-31.73416,6.247131,-40.1021,3.620285,0.5058327,0.5080147,0.7724584,-0.1944275,-0.1993713,0.960434,36.0155,9.913223,-43.09201,3.530579,0.4125295,0.401755,-0.7545270000000001,1.135597,-0.388858,-0.1302776,0.6406594,0.1879237999999999,3.948193,-51.7583,33.63
2,-0.1902771,-0.1986847,0.9614105,0.7232938,-0.03663635,-0.17099,0.9845886,-31.73416,6.247131,-40.1021,3.620285,0.5058327,0.5080147,0.7724584,-0.1944275,-0.1993713,0.960434,36.0155,9.913223,-43.09201,3.530579,0.4125295,0.401755,-0.7545270000000001,1.135597,-0.388858,-0.1302776,0.6406594,0.1879237999999999,3.948193,-51.7583,33.63
2,-0.1902771,-0.1986847,0.9614105,0.7232938,-0.03663635,-0.17099,0.9845886,-31.73416,6.247131,-40.1021,3.620285,0.5058327,0.5080147,0.7724584,-0.1944275,-0.1993713,0.960434,36.0155,9.913223,-43.09201,3.530579,0.4125295,0.401755,-0.7545270000000001,1.135597,-0.388858,-0.1302776,0.6406594,0.1879237999999999,3.948193,-51.7583,33.63
2,-0.1195068,-0.1794739,0.9764709,0.7708496,-0.05310059,-0.1736907999999999,0.9833527,-31.726090000000003,6.1306,-40.12424,3.663147,0.5085430000000001,0.513091,0.7274031999999999,-0.1936035,-0.1850281,0.9634552,36.01596,9.81987,-43.11395,3.687439,0.4122318,0.4025969,-0.7712513000000001,1.1329,-0.3919878,-0.1433622999999999,0.6398083999999999,0.1983056,3.948193,-51.7583,33.63
2,-0.1195068,-0.1794739,0.9764709,0.7708496,-0.05310059,-0.1736907999999999,0.9833527,-31.726090000000003,6.1306,-40.12424,3.663147,0.5085430000000001,0.513091,0.7274031999999999,-0.1936035,-0.1850281,0.9634552,36.01596,9.81987,-43.11395,3.687439,0.4122318,0.4025969,-0.7712513000000001,1.1329,-0.3919878,-0.1433622999999999,0.6398083999999999,0.1983056,3.948193,-51.7583,33.63
2,-0.1195068,-0.1794739,0.9764709,0.7708496,-0.05310059,-0.1736907999999999,0.9833527,-31.726090000000003,6.1306,-40.12424,3.663147,0.5085430000000001,0.513091,0.7274031999999999,-0.1936035,-0.1850281,0.9634552,36.01596,9.81987,-43.11395,3.687439,0.4122318,0.4025969,-0.7712513000000001,1.1329,-0.3919878,-0.1433622999999999,0.6398083999999999,0.1983056,3.948193,-51.7583,33.63
2,-0.1261596999999999,-0.1766815,0.9761353000000002,0.7869841,-0.05918884,-0.1947021,0.9790649,-31.6711,6.0589900000000005,-40.14969,3.588852,0.5076299,0.5200292000000001,0.7409769,-0.1873932,-0.1592865,0.9692688,36.03577,9.72699,-43.1259,3.916412,0.4100911,0.4009112,-0.7787255999999999,1.131223,-0.3934336,-0.1492976,0.6389665,0.2028927,3.948193,-51.7583,33.63
2,-0.1261596999999999,-0.1766815,0.9761353000000002,0.7869841,-0.05918884,-0.1947021,0.9790649,-31.6711,6.0589900000000005,-40.14969,3.588852,0.5076299,0.5200292000000001,0.7409769,-0.1873932,-0.1592865,0.9692688,36.03577,9.72699,-43.1259,3.916412,0.4100911,0.4009112,-0.7787255999999999,1.131223,-0.3934336,-0.1492976,0.6389665,0.2028927,3.948193,-51.7583,33.63
2,-0.1261596999999999,-0.1766815,0.9761353000000002,0.7869841,-0.05918884,-0.1947021,0.9790649,-31.6711,6.0589900000000005,-40.14969,3.588852,0.5076299,0.5200292000000001,0.7409769,-0.1873932,-0.1592865,0.9692688,36.03577,9.72699,-43.1259,3.916412,0.4100911,0.4009112,-0.7787255999999999,1.131223,-0.3934336,-0.1492976,0.6389665,0.2028927,3.948193,-51.7583,33.63
2,-0.1264038,-0.1955719,0.9725037,0.7885659,-0.0569458,-0.2036591,0.9773712,-31.65407,6.030533,-40.15999,3.4291080000000003,0.5066056999999999,0.5228731,0.7271857,-0.190094,-0.1872406,0.9637299,36.03624,9.718994,-43.1295,3.726395,0.4106992,0.4070777,-0.7787255999999999,1.131223,-0.3934336,-0.1492976,0.6389665,0.2028927,3.948193,-51.7583,33.63
2,-0.1264038,-0.1955719,0.9725037,0.7885659,-0.0569458,-0.2036591,0.9773712,-31.65407,6.030533,-40.15999,3.4291080000000003,0.5066056999999999,0.5228731,0.7271857,-0.190094,-0.1872406,0.9637299,36.03624,9.718994,-43.1295,3.726395,0.4106992,0.4070777,-0.7787255999999999,1.131223,-0.3934336,-0.1492976,0.6389665,0.2028927,3.948193,-51.7583,33.63
2,-0.1264038,-0.1955719,0.9725037,0.7885659,-0.0569458,-0.2036591,0.9773712,-31.65407,6.030533,-40.15999,3.4291080000000003,0.5066056999999999,0.5228731,0.7271857,-0.190094,-0.1872406,0.9637299,36.03624,9.718994,-43.1295,3.726395,0.4106992,0.4070777,-0.7787255999999999,1.131223,-0.3934336,-0.1492976,0.6389665,0.2028927,3.948193,-51.7583,33.63
2,-0.1224518,-0.1927032,0.9735718,0.7789307,-0.04577637,-0.1936493,0.9799957,-31.640290000000004,6.028442,-40.15503,3.626328,0.5040224,0.5209568,0.7157015999999999,-0.1960297,-0.1907043,0.9618683,36.05449,9.706741,-43.13002,3.6633,0.4111922,0.408352,-0.7856665,1.130313,-0.3947188,-0.1556731,0.6376345,0.2067203999999999,3.948193,-52.74866,33.63
2,-0.1224518,-0.1927032,0.9735718,0.7789307,-0.04577637,-0.1936493,0.9799957,-31.640290000000004,6.028442,-40.15503,3.626328,0.5040224,0.5209568,0.7157015999999999,-0.1960297,-0.1907043,0.9618683,36.05449,9.706741,-43.13002,3.6633,0.4111922,0.408352,-0.7856665,1.130313,-0.3947188,-0.1556731,0.6376345,0.2067203999999999,3.948193,-52.74866,33.63
2,-0.1224518,-0.1927032,0.9735718,0.7789307,-0.04577637,-0.1936493,0.9799957,-31.640290000000004,6.028442,-40.15503,3.626328,0.5040224,0.5209568,0.7157015999999999,-0.1960297,-0.1907043,0.9618683,36.05449,9.706741,-43.13002,3.6633,0.4111922,0.408352,-0.7856665,1.130313,-0.3947188,-0.1556731,0.6376345,0.2067203999999999,3.948193,-52.74866,33.63
3,-0.1235503999999999,-0.19664,0.9726563,0.7443773,-0.05326843,-0.1981354,0.978714,-31.629590000000004,6.002533000000001,-40.156490000000005,3.496078,0.5050156,0.5227852,0.7243063,-0.1857147,-0.1944885,0.96315,36.057390000000005,9.684113,-43.13301,3.659271,0.4090555999999999,0.4099073,-0.7919856,1.129453,-0.3957390999999999,-0.1600201,0.6354052,0.2104232999999999,3.948193,-52.74866,33.63
3,-0.1235503999999999,-0.19664,0.9726563,0.7443773,-0.05326843,-0.1981354,0.978714,-31.629590000000004,6.002533000000001,-40.156490000000005,3.496078,0.5050156,0.5227852,0.7243063,-0.1857147,-0.1944885,0.96315,36.057390000000005,9.684113,-43.13301,3.659271,0.4090555999999999,0.4099073,-0.7919856,1.129453,-0.3957390999999999,-0.1600201,0.6354052,0.2104232999999999,3.948193,-52.74866,33.63
3,-0.1235503999999999,-0.19664,0.9726563,0.7443773,-0.05326843,-0.1981354,0.978714,-31.629590000000004,6.002533000000001,-40.156490000000005,3.496078,0.5050156,0.5227852,0.7243063,-0.1857147,-0.1944885,0.96315,36.057390000000005,9.684113,-43.13301,3.659271,0.4090555999999999,0.4099073,-0.7919856,1.129453,-0.3957390999999999,-0.1600201,0.6354052,0.2104232999999999,3.948193,-52.74866,33.63
3,-0.1327515,-0.2076416,0.9691467,0.7253984,-0.06550598,-0.2050629,0.9765472,-31.59607,5.970596,-40.16365,3.432129,0.5060329000000001,0.5254127,0.703275,-0.1940613,-0.2091827,0.9584198,36.08131,9.613937,-43.15068,3.5651550000000003,0.4097775999999999,0.4159645999999999,-0.8028341999999999,1.1271209999999998,-0.3965579999999999,-0.1641134,0.6283383000000001,0.2180659,3.948193,-52.74866,33.63
3,-0.1327515,-0.2076416,0.9691467,0.7253984,-0.06550598,-0.2050629,0.9765472,-31.59607,5.970596,-40.16365,3.432129,0.5060329000000001,0.5254127,0.703275,-0.1940613,-0.2091827,0.9584198,36.08131,9.613937,-43.15068,3.5651550000000003,0.4097775999999999,0.4159645999999999,-0.8028341999999999,1.1271209999999998,-0.3965579999999999,-0.1641134,0.6283383000000001,0.2180659,3.948193,-52.74866,33.63
3,-0.1327515,-0.2076416,0.9691467,0.7253984,-0.06550598,-0.2050629,0.9765472,-31.59607,5.970596,-40.16365,3.432129,0.5060329000000001,0.5254127,0.703275,-0.1940613,-0.2091827,0.9584198,36.08131,9.613937,-43.15068,3.5651550000000003,0.4097775999999999,0.4159645999999999,-0.8028341999999999,1.1271209999999998,-0.3965579999999999,-0.1641134,0.6283383000000001,0.2180659,3.948193,-52.74866,33.63
3,-0.1277617999999999,-0.2284241,0.9651337,0.6549438,-0.04794312,-0.2391052,0.9698029,-31.63727,5.926514,-40.16853,3.193604,0.5043255,0.5336754,0.6714034000000001,-0.193573,-0.2184143,0.9564514,36.03606,9.515152,-43.17906,3.480331,0.4114685,0.4220418999999999,-0.8074912,1.125166,-0.3967863,-0.1630257999999999,0.6255472,0.217969,3.948193,-52.74866,33.63
3,-0.1277617999999999,-0.2284241,0.9651337,0.6549438,-0.04794312,-0.2391052,0.9698029,-31.63727,5.926514,-40.16853,3.193604,0.5043255,0.5336754,0.6714034000000001,-0.193573,-0.2184143,0.9564514,36.03606,9.515152,-43.17906,3.480331,0.4114685,0.4220418999999999,-0.8074912,1.125166,-0.3967863,-0.1630257999999999,0.6255472,0.217969,3.948193,-52.74866,33.63
3,-0.1277617999999999,-0.2284241,0.9651337,0.6549438,-0.04794312,-0.2391052,0.9698029,-31.63727,5.926514,-40.16853,3.193604,0.5043255,0.5336754,0.6714034000000001,-0.193573,-0.2184143,0.9564514,36.03606,9.515152,-43.17906,3.480331,0.4114685,0.4220418999999999,-0.8074912,1.125166,-0.3967863,-0.1630257999999999,0.6255472,0.217969,3.948193,-52.74866,33.63
3,-0.1277617999999999,-0.2284241,0.9651337,0.6549438,-0.04794312,-0.2391052,0.9698029,-31.63727,5.926514,-40.16853,3.193604,0.5043255,0.5336754,0.6714034000000001,-0.193573,-0.2184143,0.9564514,36.03606,9.515152,-43.17906,3.480331,0.4114685,0.4220418999999999,-0.8117502,1.124463,-0.3968024,-0.1622957,0.6225795999999999,0.2183666,3.948193,-52.74866,33.63
3,-0.1277617999999999,-0.2284241,0.9651337,0.6549438,-0.04794312,-0.2391052,0.9698029,-31.63727,5.926514,-40.16853,3.193604,0.5043255,0.5336754,0.6714034000000001,-0.193573,-0.2184143,0.9564514,36.03606,9.515152,-43.17906,3.480331,0.4114685,0.4220418999999999,-0.8117502,1.124463,-0.3968024,-0.1622957,0.6225795999999999,0.2183666,3.948193,-52.74866,33.63
3,-0.1277617999999999,-0.2284241,0.9651337,0.6549438,-0.04794312,-0.2391052,0.9698029,-31.63727,5.926514,-40.16853,3.193604,0.5043255,0.5336754,0.6714034000000001,-0.193573,-0.2184143,0.9564514,36.03606,9.515152,-43.17906,3.480331,0.4114685,0.4220418999999999,-0.8117502,1.124463,-0.3968024,-0.1622957,0.6225795999999999,0.2183666,3.948193,-52.74866,33.63
3,-0.1277617999999999,-0.2284241,0.9651337,0.6549438,-0.04794312,-0.2391052,0.9698029,-31.63727,5.926514,-40.16853,3.193604,0.5043255,0.5336754,0.6714034000000001,-0.193573,-0.2184143,0.9564514,36.03606,9.515152,-43.17906,3.480331,0.4114685,0.4220418999999999,-0.8117502,1.124463,-0.3968024,-0.1622957,0.6225795999999999,0.2183666,3.948193,-52.74866,33.63
3,-0.1277617999999999,-0.2284241,0.9651337,0.6549438,-0.04794312,-0.2391052,0.9698029,-31.63727,5.926514,-40.16853,3.193604,0.5043255,0.5336754,0.6714034000000001,-0.193573,-0.2184143,0.9564514,36.03606,9.515152,-43.17906,3.480331,0.4114685,0.4220418999999999,-0.8117502,1.124463,-0.3968024,-0.1622957,0.6225795999999999,0.2183666,3.948193,-52.74866,33.63
3,-0.1277617999999999,-0.2284241,0.9651337,0.6549438,-0.04794312,-0.2391052,0.9698029,-31.63727,5.926514,-40.16853,3.193604,0.5043255,0.5336754,0.6714034000000001,-0.193573,-0.2184143,0.9564514,36.03606,9.515152,-43.17906,3.480331,0.4114685,0.4220418999999999,-0.8117502,1.124463,-0.3968024,-0.1622957,0.6225795999999999,0.2183666,3.948193,-52.74866,33.63
3,-0.1397552,-0.2197112999999999,0.9654999,0.5075622000000001,-0.06391907,-0.2152557,0.9744568,-31.76591,5.917694,-40.17386,3.250626,0.5120353,0.5294426999999999,0.4941979,-0.2019196,-0.2224274,0.9537964,35.90359,9.554123,-43.19118,3.468628,0.41826,0.4216705,-0.8207669,1.125291,-0.3969641,-0.1673417,0.6164274000000001,0.2206076,3.948193,-105.1953,33.63
3,-0.1397552,-0.2197112999999999,0.9654999,0.5075622000000001,-0.06391907,-0.2152557,0.9744568,-31.76591,5.917694,-40.17386,3.250626,0.5120353,0.5294426999999999,0.4941979,-0.2019196,-0.2224274,0.9537964,35.90359,9.554123,-43.19118,3.468628,0.41826,0.4216705,-0.8207669,1.125291,-0.3969641,-0.1673417,0.6164274000000001,0.2206076,3.948193,-105.1953,33.63
3,-0.1397552,-0.2197112999999999,0.9654999,0.5075622000000001,-0.06391907,-0.2152557,0.9744568,-31.76591,5.917694,-40.17386,3.250626,0.5120353,0.5294426999999999,0.4941979,-0.2019196,-0.2224274,0.9537964,35.90359,9.554123,-43.19118,3.468628,0.41826,0.4216705,-0.8207669,1.125291,-0.3969641,-0.1673417,0.6164274000000001,0.2206076,3.948193,-105.1953,33.63
3,-1.0,-1.0,-1.0,0.304649,0.0,0.0,0.0,-31.50249,6.981522,-39.67088,-1.0,0.4995675999999999,0.4592777,0.2060957,0.0,0.0,0.0,35.47993,9.664658,-43.12355,-1.0,0.4126681,0.3843949,-0.8251867,1.125584,-0.3973284,-0.1769301,0.6122888000000001,0.2268672999999999,3.948193,-105.1953,33.63
3,-1.0,-1.0,-1.0,0.304649,0.0,0.0,0.0,-31.50249,6.981522,-39.67088,-1.0,0.4995675999999999,0.4592777,0.2060957,0.0,0.0,0.0,35.47993,9.664658,-43.12355,-1.0,0.4126681,0.3843949,-0.8251867,1.125584,-0.3973284,-0.1769301,0.6122888000000001,0.2268672999999999,3.948193,-105.1953,33.63
3,-1.0,-1.0,-1.0,0.304649,0.0,0.0,0.0,-31.50249,6.981522,-39.67088,-1.0,0.4995675999999999,0.4592777,0.2060957,0.0,0.0,0.0,35.47993,9.664658,-43.12355,-1.0,0.4126681,0.3843949,-0.8251867,1.125584,-0.3973284,-0.1769301,0.6122888000000001,0.2268672999999999,3.948193,-105.1953,33.63
3,-1.0,-1.0,-1.0,0.3485349,0.0,0.0,0.0,-31.59712,6.606491,-39.28236,-1.0,0.5043287000000001,0.4596609,0.292756,0.0,0.0,0.0,35.96638,10.45509,-42.93484,-1.0,0.4050043,0.3835660999999999,-0.8251867,1.125584,-0.3973284,-0.1769301,0.6122888000000001,0.2268672999999999,3.948193,-105.1953,33.63
3,-1.0,-1.0,-1.0,0.3485349,0.0,0.0,0.0,-31.59712,6.606491,-39.28236,-1.0,0.5043287000000001,0.4596609,0.292756,0.0,0.0,0.0,35.96638,10.45509,-42.93484,-1.0,0.4050043,0.3835660999999999,-0.8251867,1.125584,-0.3973284,-0.1769301,0.6122888000000001,0.2268672999999999,3.948193,-105.1953,33.63
3,-1.0,-1.0,-1.0,0.3485349,0.0,0.0,0.0,-31.59712,6.606491,-39.28236,-1.0,0.5043287000000001,0.4596609,0.292756,0.0,0.0,0.0,35.96638,10.45509,-42.93484,-1.0,0.4050043,0.3835660999999999,-0.8251867,1.125584,-0.3973284,-0.1769301,0.6122888000000001,0.2268672999999999,3.948193,-105.1953,33.63
3,-0.1309357,-0.1186218,0.9842529,0.4110470999999999,-0.05981445,-0.02627563,0.9978485,-31.60291,6.541412,-39.22128,3.798264,0.505166,0.461513,0.3748086,-0.1316376,-0.1195374,0.9840546,35.9926,10.37715,-42.93318,2.861801,0.401858,0.3649205,-0.8292476999999999,1.126244,-0.3975250999999999,-0.184357,0.6078433000000001,0.2321468,3.948193,-105.1953,33.63
3,-0.1309357,-0.1186218,0.9842529,0.4110470999999999,-0.05981445,-0.02627563,0.9978485,-31.60291,6.541412,-39.22128,3.798264,0.505166,0.461513,0.3748086,-0.1316376,-0.1195374,0.9840546,35.9926,10.37715,-42.93318,2.861801,0.401858,0.3649205,-0.8292476999999999,1.126244,-0.3975250999999999,-0.184357,0.6078433000000001,0.2321468,3.948193,-105.1953,33.63
3,-0.1309357,-0.1186218,0.9842529,0.4110470999999999,-0.05981445,-0.02627563,0.9978485,-31.60291,6.541412,-39.22128,3.798264,0.505166,0.461513,0.3748086,-0.1316376,-0.1195374,0.9840546,35.9926,10.37715,-42.93318,2.861801,0.401858,0.3649205,-0.8292476999999999,1.126244,-0.3975250999999999,-0.184357,0.6078433000000001,0.2321468,3.948193,-105.1953,33.63
3,-0.1374207,-0.1319427,0.9816742,0.4179425,-0.05055237,-0.01174927,0.998642,-31.645,6.757416,-40.71391,3.761826,0.5054470999999999,0.4651560999999999,0.3454752,-0.1374207,-0.131958,0.9816742,35.9787,10.2404,-42.97191,2.851532,0.4035384,0.3733356,-0.8330388000000001,1.126704,-0.3976079,-0.1910683,0.6035228,0.2379152999999999,3.948193,-105.1953,33.63
3,-0.1374207,-0.1319427,0.9816742,0.4179425,-0.05055237,-0.01174927,0.998642,-31.645,6.757416,-40.71391,3.761826,0.5054470999999999,0.4651560999999999,0.3454752,-0.1374207,-0.131958,0.9816742,35.9787,10.2404,-42.97191,2.851532,0.4035384,0.3733356,-0.8330388000000001,1.126704,-0.3976079,-0.1910683,0.6035228,0.2379152999999999,3.948193,-105.1953,33.63
3,-0.1374207,-0.1319427,0.9816742,0.4179425,-0.05055237,-0.01174927,0.998642,-31.645,6.757416,-40.71391,3.761826,0.5054470999999999,0.4651560999999999,0.3454752,-0.1374207,-0.131958,0.9816742,35.9787,10.2404,-42.97191,2.851532,0.4035384,0.3733356,-0.8330388000000001,1.126704,-0.3976079,-0.1910683,0.6035228,0.2379152999999999,3.948193,-105.1953,33.63
3,-0.1763916,-0.1299895999999999,0.9756927,0.4303944,-0.04885864,-0.04067993,0.9979706,-31.71954,6.107208,-39.459790000000005,3.511658,0.5074536000000001,0.4820996,0.4158354999999999,-0.1763916,-0.1299895999999999,0.9756927,35.939,9.926453,-43.06651,3.067871,0.4125684,0.3866122,-0.8385478999999999,1.127517,-0.3974912,-0.2034224999999999,0.5948249,0.2462468,3.948193,-247.377,33.63
3,-0.1763916,-0.1299895999999999,0.9756927,0.4303944,-0.04885864,-0.04067993,0.9979706,-31.71954,6.107208,-39.459790000000005,3.511658,0.5074536000000001,0.4820996,0.4158354999999999,-0.1763916,-0.1299895999999999,0.9756927,35.939,9.926453,-43.06651,3.067871,0.4125684,0.3866122,-0.8385478999999999,1.127517,-0.3974912,-0.2034224999999999,0.5948249,0.2462468,3.948193,-247.377,33.63
3,-0.1763916,-0.1299895999999999,0.9756927,0.4303944,-0.04885864,-0.04067993,0.9979706,-31.71954,6.107208,-39.459790000000005,3.511658,0.5074536000000001,0.4820996,0.4158354999999999,-0.1763916,-0.1299895999999999,0.9756927,35.939,9.926453,-43.06651,3.067871,0.4125684,0.3866122,-0.8385478999999999,1.127517,-0.3974912,-0.2034224999999999,0.5948249,0.2462468,3.948193,-247.377,33.63
3,-0.1732483,-0.1043854,0.9793243,0.4254833999999999,-0.06248474,-0.07073975,0.9955292,-31.7374,5.877853,-39.81746,3.492722,0.510666,0.4996429,0.4118175,-0.1733092999999999,-0.1044006,0.9793091,35.88217,9.566605,-43.15506,3.3036190000000003,0.4139826,0.3963007,-0.8394554,1.126541,-0.397318,-0.2082697999999999,0.5904075,0.2499159,3.948193,-247.377,33.63
3,-0.1732483,-0.1043854,0.9793243,0.4254833999999999,-0.06248474,-0.07073975,0.9955292,-31.7374,5.877853,-39.81746,3.492722,0.510666,0.4996429,0.4118175,-0.1733092999999999,-0.1044006,0.9793091,35.88217,9.566605,-43.15506,3.3036190000000003,0.4139826,0.3963007,-0.8394554,1.126541,-0.397318,-0.2082697999999999,0.5904075,0.2499159,3.948193,-247.377,33.63
3,-0.1732483,-0.1043854,0.9793243,0.4254833999999999,-0.06248474,-0.07073975,0.9955292,-31.7374,5.877853,-39.81746,3.492722,0.510666,0.4996429,0.4118175,-0.1733092999999999,-0.1044006,0.9793091,35.88217,9.566605,-43.15506,3.3036190000000003,0.4139826,0.3963007,-0.8394554,1.126541,-0.397318,-0.2082697999999999,0.5904075,0.2499159,3.948193,-247.377,33.63
3,-0.1564484,-0.1481476,0.9765015,0.40589,-0.06211853,-0.05136108,0.9967346,-31.78668,5.453644000000001,-39.09398,3.517914,0.5121464,0.5043420999999999,0.3162105999999999,-0.1571654999999999,-0.1488799999999999,0.9762726,35.85472,9.331223,-43.19818,2.979431,0.4119854999999999,0.4148073,-0.8396564000000001,1.12622,-0.397034,-0.2113722999999999,0.5853742,0.252239,3.948193,-247.377,33.63
3,-0.1564484,-0.1481476,0.9765015,0.40589,-0.06211853,-0.05136108,0.9967346,-31.78668,5.453644000000001,-39.09398,3.517914,0.5121464,0.5043420999999999,0.3162105999999999,-0.1571654999999999,-0.1488799999999999,0.9762726,35.85472,9.331223,-43.19818,2.979431,0.4119854999999999,0.4148073,-0.8396564000000001,1.12622,-0.397034,-0.2113722999999999,0.5853742,0.252239,3.948193,-247.377,33.63
3,-0.1564484,-0.1481476,0.9765015,0.40589,-0.06211853,-0.05136108,0.9967346,-31.78668,5.453644000000001,-39.09398,3.517914,0.5121464,0.5043420999999999,0.3162105999999999,-0.1571654999999999,-0.1488799999999999,0.9762726,35.85472,9.331223,-43.19818,2.979431,0.4119854999999999,0.4148073,-0.8396564000000001,1.12622,-0.397034,-0.2113722999999999,0.5853742,0.252239,3.948193,-247.377,33.63
3,-0.1954497999999999,-0.1087645999999999,0.9746552,0.3726867,-0.05264282,-0.07141113,0.996048,-31.811770000000003,5.164093,-38.63739,3.306381,0.5111634,0.5139085999999999,0.2618384,-0.1954803,-0.1087799,0.9746399,35.80534,9.07103,-43.28105,3.291824,0.4212195999999999,0.4180344,-0.8387891,1.125491,-0.3964425,-0.2101552,0.5804111,0.2508163,3.948193,-247.377,33.63
3,-0.1954497999999999,-0.1087645999999999,0.9746552,0.3726867,-0.05264282,-0.07141113,0.996048,-31.811770000000003,5.164093,-38.63739,3.306381,0.5111634,0.5139085999999999,0.2618384,-0.1954803,-0.1087799,0.9746399,35.80534,9.07103,-43.28105,3.291824,0.4212195999999999,0.4180344,-0.8387891,1.125491,-0.3964425,-0.2101552,0.5804111,0.2508163,3.948193,-247.377,33.63
3,-0.1954497999999999,-0.1087645999999999,0.9746552,0.3726867,-0.05264282,-0.07141113,0.996048,-31.811770000000003,5.164093,-38.63739,3.306381,0.5111634,0.5139085999999999,0.2618384,-0.1954803,-0.1087799,0.9746399,35.80534,9.07103,-43.28105,3.291824,0.4212195999999999,0.4180344,-0.8387891,1.125491,-0.3964425,-0.2101552,0.5804111,0.2508163,3.948193,-247.377,33.63
3,-0.2081299,-0.1009674,0.9728699,0.3423403,-0.07119751,-0.0464325,0.9963684000000002,-31.854340000000004,5.314102,-39.45232,3.60759,0.5163899000000001,0.5121572,0.2313772999999999,-0.2081909,-0.1009827,0.9728546,35.7135,8.945404,-43.32988,3.61525,0.426992,0.4220689999999999,-0.8366832000000001,1.124117,-0.3960676,-0.2085489999999999,0.5754318,0.2488869,3.948193,-459.989,33.63
3,-0.2081299,-0.1009674,0.9728699,0.3423403,-0.07119751,-0.0464325,0.9963684000000002,-31.854340000000004,5.314102,-39.45232,3.60759,0.5163899000000001,0.5121572,0.2313772999999999,-0.2081909,-0.1009827,0.9728546,35.7135,8.945404,-43.32988,3.61525,0.426992,0.4220689999999999,-0.8366832000000001,1.124117,-0.3960676,-0.2085489999999999,0.5754318,0.2488869,3.948193,-459.989,33.63
3,-0.2081299,-0.1009674,0.9728699,0.3423403,-0.07119751,-0.0464325,0.9963684000000002,-31.854340000000004,5.314102,-39.45232,3.60759,0.5163899000000001,0.5121572,0.2313772999999999,-0.2081909,-0.1009827,0.9728546,35.7135,8.945404,-43.32988,3.61525,0.426992,0.4220689999999999,-0.8366832000000001,1.124117,-0.3960676,-0.2085489999999999,0.5754318,0.2488869,3.948193,-459.989,33.63
3,-0.1634827,-0.1309509,0.9778137,0.3004464,-0.07099915,-0.0519104,0.996109,-31.91849,5.211014,-39.22238,3.456802,0.5186284999999999,0.5145489999999999,0.2229945,-0.1634979,-0.1309662,0.9777985,35.64835,8.896469,-43.31393,2.97728,0.4211823,0.4293108,-0.8340439000000001,1.122457,-0.3958236,-0.2057995,0.5717971,0.2440552,3.948193,-459.989,33.63
3,-0.1634827,-0.1309509,0.9778137,0.3004464,-0.07099915,-0.0519104,0.996109,-31.91849,5.211014,-39.22238,3.456802,0.5186284999999999,0.5145489999999999,0.2229945,-0.1634979,-0.1309662,0.9777985,35.64835,8.896469,-43.31393,2.97728,0.4211823,0.4293108,-0.8340439000000001,1.122457,-0.3958236,-0.2057995,0.5717971,0.2440552,3.948193,-459.989,33.63
3,-0.1634827,-0.1309509,0.9778137,0.3004464,-0.07099915,-0.0519104,0.996109,-31.91849,5.211014,-39.22238,3.456802,0.5186284999999999,0.5145489999999999,0.2229945,-0.1634979,-0.1309662,0.9777985,35.64835,8.896469,-43.31393,2.97728,0.4211823,0.4293108,-0.8340439000000001,1.122457,-0.3958236,-0.2057995,0.5717971,0.2440552,3.948193,-459.989,33.63
3,-0.201004,-0.1004333,0.974411,0.2891553,-0.09101868,-0.04377747,0.994873,-31.97838,5.095551,-39.20258,3.578476,0.5244677,0.5172079,0.2286077,-0.2089232999999999,-0.1045226999999999,0.9723206,35.58476,8.806671000000001,-43.36972,3.449997,0.4322397,0.4286082999999999,-0.830991,1.120239,-0.3954622,-0.200708,0.5696260000000001,0.2341244999999999,3.948193,-459.989,33.63
3,-0.201004,-0.1004333,0.974411,0.2891553,-0.09101868,-0.04377747,0.994873,-31.97838,5.095551,-39.20258,3.578476,0.5244677,0.5172079,0.2286077,-0.2089232999999999,-0.1045226999999999,0.9723206,35.58476,8.806671000000001,-43.36972,3.449997,0.4322397,0.4286082999999999,-0.830991,1.120239,-0.3954622,-0.200708,0.5696260000000001,0.2341244999999999,3.948193,-459.989,33.63
3,-0.201004,-0.1004333,0.974411,0.2891553,-0.09101868,-0.04377747,0.994873,-31.97838,5.095551,-39.20258,3.578476,0.5244677,0.5172079,0.2286077,-0.2089232999999999,-0.1045226999999999,0.9723206,35.58476,8.806671000000001,-43.36972,3.449997,0.4322397,0.4286082999999999,-0.830991,1.120239,-0.3954622,-0.200708,0.5696260000000001,0.2341244999999999,3.948193,-459.989,33.63
3,-0.1321259,-0.1053162,0.985611,0.2375652999999999,-0.03207397,-0.07920837,0.9963379,-31.231140000000003,4.741409,-39.44345,3.80481,0.4862319,0.5389645000000001,0.1469463,-0.1356049,-0.1062012,0.9850464,36.18677,8.425735000000001,-43.36978,4.012329,0.3938808,0.4426866,-0.827159,1.11873,-0.3948761,-0.1994082999999999,0.5669741,0.2263226,3.948193,-459.989,33.63
3,-0.1321259,-0.1053162,0.985611,0.2375652999999999,-0.03207397,-0.07920837,0.9963379,-31.231140000000003,4.741409,-39.44345,3.80481,0.4862319,0.5389645000000001,0.1469463,-0.1356049,-0.1062012,0.9850464,36.18677,8.425735000000001,-43.36978,4.012329,0.3938808,0.4426866,-0.827159,1.11873,-0.3948761,-0.1994082999999999,0.5669741,0.2263226,3.948193,-459.989,33.63
3,-0.1321259,-0.1053162,0.985611,0.2375652999999999,-0.03207397,-0.07920837,0.9963379,-31.231140000000003,4.741409,-39.44345,3.80481,0.4862319,0.5389645000000001,0.1469463,-0.1356049,-0.1062012,0.9850464,36.18677,8.425735000000001,-43.36978,4.012329,0.3938808,0.4426866,-0.827159,1.11873,-0.3948761,-0.1994082999999999,0.5669741,0.2263226,3.948193,-459.989,33.63
3,-0.02166748,-0.2645874,0.9641113,0.134318,0.0,0.0,0.0,-29.84448,5.151535,-39.42822,-1.0,0.40907,0.5487626999999999,0.0,-0.02166748,-0.2645874,0.9641113,37.73315,8.295776,-43.34056,3.420898,0.3101867,0.4778439,-0.8224629999999999,1.116535,-0.3942994999999999,-0.1988594,0.564225,0.2150754,3.948193,-459.989,33.63
3,-0.02166748,-0.2645874,0.9641113,0.134318,0.0,0.0,0.0,-29.84448,5.151535,-39.42822,-1.0,0.40907,0.5487626999999999,0.0,-0.02166748,-0.2645874,0.9641113,37.73315,8.295776,-43.34056,3.420898,0.3101867,0.4778439,-0.8224629999999999,1.116535,-0.3942994999999999,-0.1988594,0.564225,0.2150754,3.948193,-459.989,33.63
3,-0.02166748,-0.2645874,0.9641113,0.134318,0.0,0.0,0.0,-29.84448,5.151535,-39.42822,-1.0,0.40907,0.5487626999999999,0.0,-0.02166748,-0.2645874,0.9641113,37.73315,8.295776,-43.34056,3.420898,0.3101867,0.4778439,-0.8224629999999999,1.116535,-0.3942994999999999,-0.1988594,0.564225,0.2150754,3.948193,-459.989,33.63
3,-0.01992798,-0.1347655999999999,0.9906616,0.1306138,0.1080627,-0.05303955,0.9927216,-29.69496,4.073013,-39.83253,3.459656,0.4035126,0.5619433000000001,0.0,-0.02325439,-0.1368561,0.9903107,37.61815,7.674774,-43.53542,3.292175,0.3152046,0.4777467999999999,-0.8176452,1.115183,-0.3938504,-0.1924177,0.5624444000000001,0.2047635,3.948193,-459.989,33.63
3,-0.01992798,-0.1347655999999999,0.9906616,0.1306138,0.1080627,-0.05303955,0.9927216,-29.69496,4.073013,-39.83253,3.459656,0.4035126,0.5619433000000001,0.0,-0.02325439,-0.1368561,0.9903107,37.61815,7.674774,-43.53542,3.292175,0.3152046,0.4777467999999999,-0.8176452,1.115183,-0.3938504,-0.1924177,0.5624444000000001,0.2047635,3.948193,-459.989,33.63
3,-0.01992798,-0.1347655999999999,0.9906616,0.1306138,0.1080627,-0.05303955,0.9927216,-29.69496,4.073013,-39.83253,3.459656,0.4035126,0.5619433000000001,0.0,-0.02325439,-0.1368561,0.9903107,37.61815,7.674774,-43.53542,3.292175,0.3152046,0.4777467999999999,-0.8176452,1.115183,-0.3938504,-0.1924177,0.5624444000000001,0.2047635,3.948193,-459.989,33.63
3,-0.02851868,-0.1321716,0.9908142,0.1169676,0.1429749,-0.1287842,0.981308,-29.78375,4.175293,-39.80142,4.019821,0.4004092999999999,0.572869,0.0,-0.04008484,-0.1322479,0.9904022,37.60188,7.752517999999999,-43.51151,3.3502660000000004,0.3192455,0.4736478,-0.8129776999999999,1.113817,-0.393497,-0.1841551,0.561912,0.1967085,3.948193,-74.95599,33.63
3,-0.02851868,-0.1321716,0.9908142,0.1169676,0.1429749,-0.1287842,0.981308,-29.78375,4.175293,-39.80142,4.019821,0.4004092999999999,0.572869,0.0,-0.04008484,-0.1322479,0.9904022,37.60188,7.752517999999999,-43.51151,3.3502660000000004,0.3192455,0.4736478,-0.8129776999999999,1.113817,-0.393497,-0.1841551,0.561912,0.1967085,3.948193,-74.95599,33.63
3,-0.02851868,-0.1321716,0.9908142,0.1169676,0.1429749,-0.1287842,0.981308,-29.78375,4.175293,-39.80142,4.019821,0.4004092999999999,0.572869,0.0,-0.04008484,-0.1322479,0.9904022,37.60188,7.752517999999999,-43.51151,3.3502660000000004,0.3192455,0.4736478,-0.8129776999999999,1.113817,-0.393497,-0.1841551,0.561912,0.1967085,3.948193,-74.95599,33.63
3,0.02915955,-0.2094878999999999,0.9773712,0.1079066,0.1642914,-0.1222229,0.9788055,-29.87009,4.3744510000000005,-39.75308,3.87265,0.399739,0.5638234999999999,0.0,-0.009521484,-0.2333832,0.9723358,37.5779,7.949234,-43.46704,2.932434,0.3141755,0.4862917,-0.8086723000000001,1.112231,-0.3934189,-0.1795548,0.5621045,0.1926472,3.948193,-74.95599,33.63
3,0.02915955,-0.2094878999999999,0.9773712,0.1079066,0.1642914,-0.1222229,0.9788055,-29.87009,4.3744510000000005,-39.75308,3.87265,0.399739,0.5638234999999999,0.0,-0.009521484,-0.2333832,0.9723358,37.5779,7.949234,-43.46704,2.932434,0.3141755,0.4862917,-0.8086723000000001,1.112231,-0.3934189,-0.1795548,0.5621045,0.1926472,3.948193,-74.95599,33.63
3,0.02915955,-0.2094878999999999,0.9773712,0.1079066,0.1642914,-0.1222229,0.9788055,-29.87009,4.3744510000000005,-39.75308,3.87265,0.399739,0.5638234999999999,0.0,-0.009521484,-0.2333832,0.9723358,37.5779,7.949234,-43.46704,2.932434,0.3141755,0.4862917,-0.8086723000000001,1.112231,-0.3934189,-0.1795548,0.5621045,0.1926472,3.948193,-74.95599,33.63
3,0.005569458,-0.2003937,0.9796906,0.1122778,0.1640777999999999,0.01023865,0.9863892,-29.83905,4.427414,-39.77991,4.4492650000000005,0.3988441,0.5376704000000001,0.1,-0.02261353,-0.2363586,0.9713898,37.5943,7.965453999999999,-43.4584,2.732117,0.3162777,0.4862679,-0.8043395000000001,1.109474,-0.3934555999999999,-0.1729352,0.5629261999999999,0.1900121,3.948193,-74.95599,33.63
3,0.005569458,-0.2003937,0.9796906,0.1122778,0.1640777999999999,0.01023865,0.9863892,-29.83905,4.427414,-39.77991,4.4492650000000005,0.3988441,0.5376704000000001,0.1,-0.02261353,-0.2363586,0.9713898,37.5943,7.965453999999999,-43.4584,2.732117,0.3162777,0.4862679,-0.8043395000000001,1.109474,-0.3934555999999999,-0.1729352,0.5629261999999999,0.1900121,3.948193,-74.95599,33.63
3,0.005569458,-0.2003937,0.9796906,0.1122778,0.1640777999999999,0.01023865,0.9863892,-29.83905,4.427414,-39.77991,4.4492650000000005,0.3988441,0.5376704000000001,0.1,-0.02261353,-0.2363586,0.9713898,37.5943,7.965453999999999,-43.4584,2.732117,0.3162777,0.4862679,-0.8043395000000001,1.109474,-0.3934555999999999,-0.1729352,0.5629261999999999,0.1900121,3.948193,-74.95599,33.63
3,0.0340271,-0.1790619,0.9832458,0.09373495,0.1515045,-0.05781555,0.9867554,-29.86385,4.516785,-39.70621,4.308075,0.4021278,0.5461153,0.1,-0.0511321999999999,-0.2631835999999999,0.9633789,37.62331,8.109909,-43.41373,2.70163,0.3208579,0.4860061,-0.8008345,1.107252,-0.3939477,-0.1648691,0.5647748,0.1872262,3.948193,-74.95599,33.63
3,0.0340271,-0.1790619,0.9832458,0.09373495,0.1515045,-0.05781555,0.9867554,-29.86385,4.516785,-39.70621,4.308075,0.4021278,0.5461153,0.1,-0.0511321999999999,-0.2631835999999999,0.9633789,37.62331,8.109909,-43.41373,2.70163,0.3208579,0.4860061,-0.8008345,1.107252,-0.3939477,-0.1648691,0.5647748,0.1872262,3.948193,-74.95599,33.63
3,0.0340271,-0.1790619,0.9832458,0.09373495,0.1515045,-0.05781555,0.9867554,-29.86385,4.516785,-39.70621,4.308075,0.4021278,0.5461153,0.1,-0.0511321999999999,-0.2631835999999999,0.9633789,37.62331,8.109909,-43.41373,2.70163,0.3208579,0.4860061,-0.8008345,1.107252,-0.3939477,-0.1648691,0.5647748,0.1872262,3.948193,-74.95599,33.63
3,0.09588623,-0.134491,0.9862518,0.09735336,0.1350708,-0.1370697,0.9812927,-29.90816,4.699554,-39.61055,4.005936,0.4067883,0.5531375,0.1,0.005447388,-0.1277771,0.9917755,37.62032,8.324326,-43.31813,3.464523,0.3095719999999999,0.4481393,-0.7980304,1.105736,-0.3948282999999999,-0.1590877,0.5664558000000001,0.1843317,3.948193,88.29315,33.63
3,0.09588623,-0.134491,0.9862518,0.09735336,0.1350708,-0.1370697,0.9812927,-29.90816,4.699554,-39.61055,4.005936,0.4067883,0.5531375,0.1,0.005447388,-0.1277771,0.9917755,37.62032,8.324326,-43.31813,3.464523,0.3095719999999999,0.4481393,-0.7980304,1.105736,-0.3948282999999999,-0.1590877,0.5664558000000001,0.1843317,3.948193,88.29315,33.63
3,0.09588623,-0.134491,0.9862518,0.09735336,0.1350708,-0.1370697,0.9812927,-29.90816,4.699554,-39.61055,4.005936,0.4067883,0.5531375,0.1,0.005447388,-0.1277771,0.9917755,37.62032,8.324326,-43.31813,3.464523,0.3095719999999999,0.4481393,-0.7980304,1.105736,-0.3948282999999999,-0.1590877,0.5664558000000001,0.1843317,3.948193,88.29315,33.63
3,-0.02018738,-0.2227631,0.9746552,0.1130137,0.1032867,-0.0471344,0.9935303,-29.88972,4.730682,-39.07506,4.025085,0.4123617999999999,0.5294477,0.1,-0.02024841,-0.2228546,0.9746399,37.70433,8.533828999999999,-43.18707,3.085602,0.3116815,0.4583544,-0.7959177,1.105187,-0.395836,-0.1553783,0.5676960999999999,0.1822361,3.948193,88.29315,33.63
3,-0.02018738,-0.2227631,0.9746552,0.1130137,0.1032867,-0.0471344,0.9935303,-29.88972,4.730682,-39.07506,4.025085,0.4123617999999999,0.5294477,0.1,-0.02024841,-0.2228546,0.9746399,37.70433,8.533828999999999,-43.18707,3.085602,0.3116815,0.4583544,-0.7959177,1.105187,-0.395836,-0.1553783,0.5676960999999999,0.1822361,3.948193,88.29315,33.63
3,-0.02018738,-0.2227631,0.9746552,0.1130137,0.1032867,-0.0471344,0.9935303,-29.88972,4.730682,-39.07506,4.025085,0.4123617999999999,0.5294477,0.1,-0.02024841,-0.2228546,0.9746399,37.70433,8.533828999999999,-43.18707,3.085602,0.3116815,0.4583544,-0.7959177,1.105187,-0.395836,-0.1553783,0.5676960999999999,0.1822361,3.948193,88.29315,33.63
3,0.0009002686,-0.2191772,0.9756775,0.09302709,0.1322784,-0.03337097,0.9906464,-29.8756,4.768814,-39.07506,4.220016,0.4065765,0.5257566999999999,0.1,-0.002960205,-0.2244719999999999,0.974472,37.70738,8.529099,-43.07523,3.241333,0.3081377999999999,0.4575973,-0.794626,1.105511,-0.3969380999999999,-0.1533137,0.568082,0.1815742,3.948193,88.29315,33.63
3,0.0009002686,-0.2191772,0.9756775,0.09302709,0.1322784,-0.03337097,0.9906464,-29.8756,4.768814,-39.07506,4.220016,0.4065765,0.5257566999999999,0.1,-0.002960205,-0.2244719999999999,0.974472,37.70738,8.529099,-43.07523,3.241333,0.3081377999999999,0.4575973,-0.794626,1.105511,-0.3969380999999999,-0.1533137,0.568082,0.1815742,3.948193,88.29315,33.63
3,0.0009002686,-0.2191772,0.9756775,0.09302709,0.1322784,-0.03337097,0.9906464,-29.8756,4.768814,-39.07506,4.220016,0.4065765,0.5257566999999999,0.1,-0.002960205,-0.2244719999999999,0.974472,37.70738,8.529099,-43.07523,3.241333,0.3081377999999999,0.4575973,-0.794626,1.105511,-0.3969380999999999,-0.1533137,0.568082,0.1815742,3.948193,88.29315,33.63
3,0.04747009,-0.1392059,0.9891205,0.095433,0.153595,-0.02861023,0.9877167,-29.8598,4.8720550000000005,-39.35516,4.291092,0.4019426,0.5240656,0.1,-0.004989624,-0.192276,0.9813232,37.7083,8.551346,-43.07523,3.303131,0.3085207,0.4500291,-0.7941129,1.106523,-0.3981489,-0.1522248,0.5694720999999999,0.1817662,3.948193,88.29315,33.63
3,0.04747009,-0.1392059,0.9891205,0.095433,0.153595,-0.02861023,0.9877167,-29.8598,4.8720550000000005,-39.35516,4.291092,0.4019426,0.5240656,0.1,-0.004989624,-0.192276,0.9813232,37.7083,8.551346,-43.07523,3.303131,0.3085207,0.4500291,-0.7941129,1.106523,-0.3981489,-0.1522248,0.5694720999999999,0.1817662,3.948193,88.29315,33.63
3,0.04747009,-0.1392059,0.9891205,0.095433,0.153595,-0.02861023,0.9877167,-29.8598,4.8720550000000005,-39.35516,4.291092,0.4019426,0.5240656,0.1,-0.004989624,-0.192276,0.9813232,37.7083,8.551346,-43.07523,3.303131,0.3085207,0.4500291,-0.7941129,1.106523,-0.3981489,-0.1522248,0.5694720999999999,0.1817662,3.948193,88.29315,33.63
3,0.03143311,-0.1510467999999999,0.9880219,0.05834826,0.1825104,-0.0663146999999999,0.980957,-29.8721,4.864182,-39.45505,4.388077,0.397018,0.5326285,0.1,-0.02156067,-0.1795958999999999,0.98349,37.72028,8.523361,-43.05391,3.416718,0.3113267,0.4483569,-0.7942421,1.106872,-0.3994021,-0.1493517999999999,0.5724345999999999,0.1809045,3.948193,88.29315,33.63
3,0.03143311,-0.1510467999999999,0.9880219,0.05834826,0.1825104,-0.0663146999999999,0.980957,-29.8721,4.864182,-39.45505,4.388077,0.397018,0.5326285,0.1,-0.02156067,-0.1795958999999999,0.98349,37.72028,8.523361,-43.05391,3.416718,0.3113267,0.4483569,-0.7942421,1.106872,-0.3994021,-0.1493517999999999,0.5724345999999999,0.1809045,3.948193,88.29315,33.63
3,0.03143311,-0.1510467999999999,0.9880219,0.05834826,0.1825104,-0.0663146999999999,0.980957,-29.8721,4.864182,-39.45505,4.388077,0.397018,0.5326285,0.1,-0.02156067,-0.1795958999999999,0.98349,37.72028,8.523361,-43.05391,3.416718,0.3113267,0.4483569,-0.7942421,1.106872,-0.3994021,-0.1493517999999999,0.5724345999999999,0.1809045,3.948193,88.29315,33.63
4,-0.09111023,-0.1431885,0.9854889,0.07174524,0.0,0.0,0.0,-30.948090000000004,5.241409,-40.81126,-1.0,0.4604551999999999,0.5139914000000001,0.1,-0.09111023,-0.1431885,0.9854889,36.60478,8.473419,-43.21782,4.026169,0.3688072,0.4460460999999999,-0.7948335999999999,1.106954,-0.400804,-0.1453187,0.5754324000000001,0.1812191,3.948193,88.29315,33.63
4,-0.09111023,-0.1431885,0.9854889,0.07174524,0.0,0.0,0.0,-30.948090000000004,5.241409,-40.81126,-1.0,0.4604551999999999,0.5139914000000001,0.1,-0.09111023,-0.1431885,0.9854889,36.60478,8.473419,-43.21782,4.026169,0.3688072,0.4460460999999999,-0.7948335999999999,1.106954,-0.400804,-0.1453187,0.5754324000000001,0.1812191,3.948193,88.29315,33.63
4,-0.09111023,-0.1431885,0.9854889,0.07174524,0.0,0.0,0.0,-30.948090000000004,5.241409,-40.81126,-1.0,0.4604551999999999,0.5139914000000001,0.1,-0.09111023,-0.1431885,0.9854889,36.60478,8.473419,-43.21782,4.026169,0.3688072,0.4460460999999999,-0.7948335999999999,1.106954,-0.400804,-0.1453187,0.5754324000000001,0.1812191,3.948193,88.29315,33.63
4,-0.2554016,-0.1878967,0.9483948,0.04613933,-0.01522827,0.01037598,0.9998169,-32.14653,5.00766,-39.20766,3.363953,0.5167437,0.5099921,0.1,-0.2554016,-0.1878967,0.9483948,35.25275,8.758957,-43.44528,3.926331,0.4534977,0.4489468,-0.7957478,1.106591,-0.4021298,-0.1434466,0.5781475,0.1829512999999999,3.948193,237.6756,33.63
4,-0.2554016,-0.1878967,0.9483948,0.04613933,-0.01522827,0.01037598,0.9998169,-32.14653,5.00766,-39.20766,3.363953,0.5167437,0.5099921,0.1,-0.2554016,-0.1878967,0.9483948,35.25275,8.758957,-43.44528,3.926331,0.4534977,0.4489468,-0.7957478,1.106591,-0.4021298,-0.1434466,0.5781475,0.1829512999999999,3.948193,237.6756,33.63
4,-0.2554016,-0.1878967,0.9483948,0.04613933,-0.01522827,0.01037598,0.9998169,-32.14653,5.00766,-39.20766,3.363953,0.5167437,0.5099921,0.1,-0.2554016,-0.1878967,0.9483948,35.25275,8.758957,-43.44528,3.926331,0.4534977,0.4489468,-0.7957478,1.106591,-0.4021298,-0.1434466,0.5781475,0.1829512999999999,3.948193,237.6756,33.63
4,-0.2595061999999999,-0.1864471,0.9475555,0.1115581,-0.06228638,-0.05162048,0.9967194,-32.09273,5.277481,-39.47685,3.53447,0.5235094,0.5146604,0.1320037,-0.2595061999999999,-0.1864471,0.9475555,35.29672,8.989807,-43.38857,4.094208,0.4525019,0.4391707,-0.7969122,1.1060219999999998,-0.4032243,-0.142805,0.5797966,0.1855875,3.948193,237.6756,33.63
4,-0.2595061999999999,-0.1864471,0.9475555,0.1115581,-0.06228638,-0.05162048,0.9967194,-32.09273,5.277481,-39.47685,3.53447,0.5235094,0.5146604,0.1320037,-0.2595061999999999,-0.1864471,0.9475555,35.29672,8.989807,-43.38857,4.094208,0.4525019,0.4391707,-0.7969122,1.1060219999999998,-0.4032243,-0.142805,0.5797966,0.1855875,3.948193,237.6756,33.63
4,-0.2595061999999999,-0.1864471,0.9475555,0.1115581,-0.06228638,-0.05162048,0.9967194,-32.09273,5.277481,-39.47685,3.53447,0.5235094,0.5146604,0.1320037,-0.2595061999999999,-0.1864471,0.9475555,35.29672,8.989807,-43.38857,4.094208,0.4525019,0.4391707,-0.7969122,1.1060219999999998,-0.4032243,-0.142805,0.5797966,0.1855875,3.948193,237.6756,33.63
4,-0.2684174,-0.1725159,0.9477234,0.1119896,-0.1073151,-0.06532288,0.9920654,-31.78746,7.666199000000001,-47.5946,3.138351,0.5243873,0.5107986,0.1299423999999999,-0.2684174,-0.1725159,0.9477234,35.39803,9.096191,-43.36066,4.133575,0.4503313,0.4320141999999999,-0.7982210999999999,1.106191,-0.4039127999999999,-0.1440094,0.579497,0.1875193,3.948193,237.6756,33.63
4,-0.2684174,-0.1725159,0.9477234,0.1119896,-0.1073151,-0.06532288,0.9920654,-31.78746,7.666199000000001,-47.5946,3.138351,0.5243873,0.5107986,0.1299423999999999,-0.2684174,-0.1725159,0.9477234,35.39803,9.096191,-43.36066,4.133575,0.4503313,0.4320141999999999,-0.7982210999999999,1.106191,-0.4039127999999999,-0.1440094,0.579497,0.1875193,3.948193,237.6756,33.63
4,-0.2684174,-0.1725159,0.9477234,0.1119896,-0.1073151,-0.06532288,0.9920654,-31.78746,7.666199000000001,-47.5946,3.138351,0.5243873,0.5107986,0.1299423999999999,-0.2684174,-0.1725159,0.9477234,35.39803,9.096191,-43.36066,4.133575,0.4503313,0.4320141999999999,-0.7982210999999999,1.106191,-0.4039127999999999,-0.1440094,0.579497,0.1875193,3.948193,237.6756,33.63
4,-0.2653198,-0.1846007999999999,0.9463043,0.1398252999999999,-0.09835815,-0.05648804,0.9935303,-31.84491,7.0466,-45.47105,3.512436,0.5237599000000001,0.5107986,0.1393968,-0.2653198,-0.1846007999999999,0.9463043,35.43208,9.011475,-43.36269,4.008376999999999,0.4484607,0.4377295,-0.7994979,1.106087,-0.4044455,-0.1439466,0.5783721,0.1885233,3.948193,237.6756,33.63
4,-0.2653198,-0.1846007999999999,0.9463043,0.1398252999999999,-0.09835815,-0.05648804,0.9935303,-31.84491,7.0466,-45.47105,3.512436,0.5237599000000001,0.5107986,0.1393968,-0.2653198,-0.1846007999999999,0.9463043,35.43208,9.011475,-43.36269,4.008376999999999,0.4484607,0.4377295,-0.7994979,1.106087,-0.4044455,-0.1439466,0.5783721,0.1885233,3.948193,237.6756,33.63
4,-0.2653198,-0.1846007999999999,0.9463043,0.1398252999999999,-0.09835815,-0.05648804,0.9935303,-31.84491,7.0466,-45.47105,3.512436,0.5237599000000001,0.5107986,0.1393968,-0.2653198,-0.1846007999999999,0.9463043,35.43208,9.011475,-43.36269,4.008376999999999,0.4484607,0.4377295,-0.7994979,1.106087,-0.4044455,-0.1439466,0.5783721,0.1885233,3.948193,237.6756,33.63
4,-0.2640381,-0.1819916,0.9471741,0.1377525,-0.07505798,-0.04330444,0.9962311,-31.96066,6.105637000000001,-42.16788,3.296997,0.5222404,0.5095059000000001,0.1168298,-0.2640381,-0.1819916,0.9471741,35.41595,8.995499,-43.36978,4.080185,0.4487728,0.4378701,-0.8010174,1.106028,-0.4049274,-0.1430187999999999,0.5770856,0.1886028,3.948193,237.6756,33.63
4,-0.2640381,-0.1819916,0.9471741,0.1377525,-0.07505798,-0.04330444,0.9962311,-31.96066,6.105637000000001,-42.16788,3.296997,0.5222404,0.5095059000000001,0.1168298,-0.2640381,-0.1819916,0.9471741,35.41595,8.995499,-43.36978,4.080185,0.4487728,0.4378701,-0.8010174,1.106028,-0.4049274,-0.1430187999999999,0.5770856,0.1886028,3.948193,237.6756,33.63
4,-0.2640381,-0.1819916,0.9471741,0.1377525,-0.07505798,-0.04330444,0.9962311,-31.96066,6.105637000000001,-42.16788,3.296997,0.5222404,0.5095059000000001,0.1168298,-0.2640381,-0.1819916,0.9471741,35.41595,8.995499,-43.36978,4.080185,0.4487728,0.4378701,-0.8010174,1.106028,-0.4049274,-0.1430187999999999,0.5770856,0.1886028,3.948193,237.6756,33.63
4,-0.2652587999999999,-0.1810302999999999,0.9470215,0.1367827,-0.07055664,-0.03204346,0.9969788,-32.05876,5.395554,-39.75067,3.624771,0.523917,0.5095059000000001,0.09550745,-0.2652587999999999,-0.1810302999999999,0.9470215,35.41133,8.968703999999999,-43.38057,4.111511,0.4491582999999999,0.4388465999999999,-0.802682,1.105996,-0.4056606,-0.1433178,0.5759481,0.1894973,3.948193,284.3048,33.63
4,-0.2652587999999999,-0.1810302999999999,0.9470215,0.1367827,-0.07055664,-0.03204346,0.9969788,-32.05876,5.395554,-39.75067,3.624771,0.523917,0.5095059000000001,0.09550745,-0.2652587999999999,-0.1810302999999999,0.9470215,35.41133,8.968703999999999,-43.38057,4.111511,0.4491582999999999,0.4388465999999999,-0.802682,1.105996,-0.4056606,-0.1433178,0.5759481,0.1894973,3.948193,284.3048,33.63
4,-0.2652587999999999,-0.1810302999999999,0.9470215,0.1367827,-0.07055664,-0.03204346,0.9969788,-32.05876,5.395554,-39.75067,3.624771,0.523917,0.5095059000000001,0.09550745,-0.2652587999999999,-0.1810302999999999,0.9470215,35.41133,8.968703999999999,-43.38057,4.111511,0.4491582999999999,0.4388465999999999,-0.802682,1.105996,-0.4056606,-0.1433178,0.5759481,0.1894973,3.948193,284.3048,33.63
4,-0.2649689,-0.1786652,0.9475555,0.1446792999999999,-0.07011414,-0.02539063,0.9972076,-32.065490000000004,5.396286,-39.74174,3.71579,0.5240739999999999,0.5082133,0.1613809,-0.2649689,-0.1786652,0.9475555,35.405359999999995,8.972686999999999,-43.37895,4.131485,0.4493242999999999,0.438185,-0.8043989,1.106205,-0.4067194,-0.1440572,0.5756705,0.1902035,3.948193,284.3048,33.63
4,-0.2649689,-0.1786652,0.9475555,0.1446792999999999,-0.07011414,-0.02539063,0.9972076,-32.065490000000004,5.396286,-39.74174,3.71579,0.5240739999999999,0.5082133,0.1613809,-0.2649689,-0.1786652,0.9475555,35.405359999999995,8.972686999999999,-43.37895,4.131485,0.4493242999999999,0.438185,-0.8043989,1.106205,-0.4067194,-0.1440572,0.5756705,0.1902035,3.948193,284.3048,33.63
4,-0.2649689,-0.1786652,0.9475555,0.1446792999999999,-0.07011414,-0.02539063,0.9972076,-32.065490000000004,5.396286,-39.74174,3.71579,0.5240739999999999,0.5082133,0.1613809,-0.2649689,-0.1786652,0.9475555,35.405359999999995,8.972686999999999,-43.37895,4.131485,0.4493242999999999,0.438185,-0.8043989,1.106205,-0.4067194,-0.1440572,0.5756705,0.1902035,3.948193,284.3048,33.63
4,-0.1920012999999999,-0.1255341,0.9733276,0.1336373,-0.06896973,-0.02909851,0.9971924,-32.10403,5.387436,-39.67914,3.735733,0.5252472,0.5086185000000001,0.1697622,-0.2634277,-0.1818237,0.9473724,35.38753,8.983917,-43.37733,4.133789,0.4497085999999999,0.4383594,-0.8064696,1.10609,-0.4082751,-0.1444587,0.5770065999999999,0.1895812,3.948193,284.3048,33.63
4,-0.1920012999999999,-0.1255341,0.9733276,0.1336373,-0.06896973,-0.02909851,0.9971924,-32.10403,5.387436,-39.67914,3.735733,0.5252472,0.5086185000000001,0.1697622,-0.2634277,-0.1818237,0.9473724,35.38753,8.983917,-43.37733,4.133789,0.4497085999999999,0.4383594,-0.8064696,1.10609,-0.4082751,-0.1444587,0.5770065999999999,0.1895812,3.948193,284.3048,33.63
4,-0.1920012999999999,-0.1255341,0.9733276,0.1336373,-0.06896973,-0.02909851,0.9971924,-32.10403,5.387436,-39.67914,3.735733,0.5252472,0.5086185000000001,0.1697622,-0.2634277,-0.1818237,0.9473724,35.38753,8.983917,-43.37733,4.133789,0.4497085999999999,0.4383594,-0.8064696,1.10609,-0.4082751,-0.1444587,0.5770065999999999,0.1895812,3.948193,284.3048,33.63
4,-0.1972655999999999,-0.1304016,0.9716339,0.1366115,-0.07131958,-0.03842163,0.9967041,-32.149,5.386246,-39.67717,3.732697,0.5273222,0.5104015000000001,0.1352357,-0.2618256,-0.1777039,0.9486084,35.33807,8.990631,-43.38045,4.0976870000000005,0.4513742999999999,0.4372898,-0.8086004,1.106264,-0.4097973,-0.1483027,0.5785569,0.1889641,3.917443,284.3048,33.63
4,-0.1972655999999999,-0.1304016,0.9716339,0.1366115,-0.07131958,-0.03842163,0.9967041,-32.149,5.386246,-39.67717,3.732697,0.5273222,0.5104015000000001,0.1352357,-0.2618256,-0.1777039,0.9486084,35.33807,8.990631,-43.38045,4.0976870000000005,0.4513742999999999,0.4372898,-0.8086004,1.106264,-0.4097973,-0.1483027,0.5785569,0.1889641,3.917443,284.3048,33.63
4,-0.1972655999999999,-0.1304016,0.9716339,0.1366115,-0.07131958,-0.03842163,0.9967041,-32.149,5.386246,-39.67717,3.732697,0.5273222,0.5104015000000001,0.1352357,-0.2618256,-0.1777039,0.9486084,35.33807,8.990631,-43.38045,4.0976870000000005,0.4513742999999999,0.4372898,-0.8086004,1.106264,-0.4097973,-0.1483027,0.5785569,0.1889641,3.917443,284.3048,33.63
4,-0.1932372999999999,-0.1275635,0.9728088,0.1350942,-0.07685852,-0.03869629,0.9962769,-32.16174,5.387436,-39.67859,3.673157,0.5288189,0.5104015000000001,0.162607,-0.2595825,-0.178421,0.9490814,35.326840000000004,8.993561,-43.38045,4.09697,0.4513742999999999,0.4372898,-0.8108687,1.106441,-0.4112499,-0.1526417,0.5795428,0.1897272,3.917443,284.3048,33.63
4,-0.1932372999999999,-0.1275635,0.9728088,0.1350942,-0.07685852,-0.03869629,0.9962769,-32.16174,5.387436,-39.67859,3.673157,0.5288189,0.5104015000000001,0.162607,-0.2595825,-0.178421,0.9490814,35.326840000000004,8.993561,-43.38045,4.09697,0.4513742999999999,0.4372898,-0.8108687,1.106441,-0.4112499,-0.1526417,0.5795428,0.1897272,3.917443,284.3048,33.63
4,-0.1932372999999999,-0.1275635,0.9728088,0.1350942,-0.07685852,-0.03869629,0.9962769,-32.16174,5.387436,-39.67859,3.673157,0.5288189,0.5104015000000001,0.162607,-0.2595825,-0.178421,0.9490814,35.326840000000004,8.993561,-43.38045,4.09697,0.4513742999999999,0.4372898,-0.8108687,1.106441,-0.4112499,-0.1526417,0.5795428,0.1897272,3.917443,284.3048,33.63
4,-0.1932372999999999,-0.1275635,0.9728088,0.1350942,-0.07685852,-0.03869629,0.9962769,-32.16174,5.387436,-39.67859,3.673157,0.5288189,0.5104015000000001,0.162607,-0.2595825,-0.178421,0.9490814,35.326840000000004,8.993561,-43.38045,4.09697,0.4513742999999999,0.4372898,-0.8127984,1.10592,-0.4124060999999999,-0.1557338999999999,0.580853,0.1905564,3.917443,222.0239,33.63
4,-0.1932372999999999,-0.1275635,0.9728088,0.1350942,-0.07685852,-0.03869629,0.9962769,-32.16174,5.387436,-39.67859,3.673157,0.5288189,0.5104015000000001,0.162607,-0.2595825,-0.178421,0.9490814,35.326840000000004,8.993561,-43.38045,4.09697,0.4513742999999999,0.4372898,-0.8127984,1.10592,-0.4124060999999999,-0.1557338999999999,0.580853,0.1905564,3.917443,222.0239,33.63
4,-0.1932372999999999,-0.1275635,0.9728088,0.1350942,-0.07685852,-0.03869629,0.9962769,-32.16174,5.387436,-39.67859,3.673157,0.5288189,0.5104015000000001,0.162607,-0.2595825,-0.178421,0.9490814,35.326840000000004,8.993561,-43.38045,4.09697,0.4513742999999999,0.4372898,-0.8127984,1.10592,-0.4124060999999999,-0.1557338999999999,0.580853,0.1905564,3.917443,222.0239,33.63
4,-0.2028961,-0.1396332,0.9691771999999998,0.1350942,-0.07800293,-0.06001282,0.9951324,-32.16174,5.386246,-39.67859,3.622345,0.5290166000000001,0.5144118,0.162607,-0.2596283,-0.1757355,0.9495697,35.326840000000004,8.993561,-43.38045,4.113907,0.4513742999999999,0.4367479,-0.8146051,1.106186,-0.4131626,-0.156933,0.5819691,0.1911187999999999,3.917443,222.0239,33.63
4,-0.2028961,-0.1396332,0.9691771999999998,0.1350942,-0.07800293,-0.06001282,0.9951324,-32.16174,5.386246,-39.67859,3.622345,0.5290166000000001,0.5144118,0.162607,-0.2596283,-0.1757355,0.9495697,35.326840000000004,8.993561,-43.38045,4.113907,0.4513742999999999,0.4367479,-0.8146051,1.106186,-0.4131626,-0.156933,0.5819691,0.1911187999999999,3.917443,222.0239,33.63
4,-0.2028961,-0.1396332,0.9691771999999998,0.1350942,-0.07800293,-0.06001282,0.9951324,-32.16174,5.386246,-39.67859,3.622345,0.5290166000000001,0.5144118,0.162607,-0.2596283,-0.1757355,0.9495697,35.326840000000004,8.993561,-43.38045,4.113907,0.4513742999999999,0.4367479,-0.8146051,1.106186,-0.4131626,-0.156933,0.5819691,0.1911187999999999,3.917443,222.0239,33.63
4,-0.1344147,-0.1325377999999999,0.9820099,0.04718354,-0.01870728,0.03552246,0.9991913,-31.10959,5.124191000000001,-40.50745,4.346329,0.479494,0.5147488,0.0,-0.1344147,-0.1325377999999999,0.9820099,36.29132,8.465881,-43.33855,4.279465,0.3892930999999999,0.4460375,-0.8164753,1.10548,-0.4138175,-0.1536657,0.5839810000000001,0.1879942,3.917443,222.0239,33.59
4,-0.1344147,-0.1325377999999999,0.9820099,0.04718354,-0.01870728,0.03552246,0.9991913,-31.10959,5.124191000000001,-40.50745,4.346329,0.479494,0.5147488,0.0,-0.1344147,-0.1325377999999999,0.9820099,36.29132,8.465881,-43.33855,4.279465,0.3892930999999999,0.4460375,-0.8164753,1.10548,-0.4138175,-0.1536657,0.5839810000000001,0.1879942,3.917443,222.0239,33.59
4,-0.1344147,-0.1325377999999999,0.9820099,0.04718354,-0.01870728,0.03552246,0.9991913,-31.10959,5.124191000000001,-40.50745,4.346329,0.479494,0.5147488,0.0,-0.1344147,-0.1325377999999999,0.9820099,36.29132,8.465881,-43.33855,4.279465,0.3892930999999999,0.4460375,-0.8164753,1.10548,-0.4138175,-0.1536657,0.5839810000000001,0.1879942,3.917443,222.0239,33.59
4,-0.1382904,-0.1592559999999999,0.9774933,0.04994056,-0.02262878,-0.01376343,0.999649,-31.12878,5.203674,-40.51521,3.634216,0.4809426999999999,0.5204482,0.0,-0.1424713,-0.1645355,0.9760132,36.31833,8.532394,-43.32387,4.186996,0.3898047999999999,0.4498079,-0.8185091,1.106874,-0.4140813,-0.154806,0.5855325,0.1895836,3.917443,222.0239,33.59
4,-0.1382904,-0.1592559999999999,0.9774933,0.04994056,-0.02262878,-0.01376343,0.999649,-31.12878,5.203674,-40.51521,3.634216,0.4809426999999999,0.5204482,0.0,-0.1424713,-0.1645355,0.9760132,36.31833,8.532394,-43.32387,4.186996,0.3898047999999999,0.4498079,-0.8185091,1.106874,-0.4140813,-0.154806,0.5855325,0.1895836,3.917443,222.0239,33.59
4,-0.1382904,-0.1592559999999999,0.9774933,0.04994056,-0.02262878,-0.01376343,0.999649,-31.12878,5.203674,-40.51521,3.634216,0.4809426999999999,0.5204482,0.0,-0.1424713,-0.1645355,0.9760132,36.31833,8.532394,-43.32387,4.186996,0.3898047999999999,0.4498079,-0.8185091,1.106874,-0.4140813,-0.154806,0.5855325,0.1895836,3.917443,222.0239,33.59
4,-0.1652069,-0.1233368,0.9785004,0.04036168,0.04707336,0.01928711,0.998703,-31.07187,4.71019,-39.524370000000005,3.582977,0.4659219,0.5222487,0.0,-0.1652069,-0.1233520999999999,0.9785004,36.35349,8.260086,-43.39137,4.238632,0.3928218,0.4530122,-0.8211586,1.106574,-0.4143127,-0.1540612,0.5896121,0.1884467,3.917443,222.0239,33.59
4,-0.1652069,-0.1233368,0.9785004,0.04036168,0.04707336,0.01928711,0.998703,-31.07187,4.71019,-39.524370000000005,3.582977,0.4659219,0.5222487,0.0,-0.1652069,-0.1233520999999999,0.9785004,36.35349,8.260086,-43.39137,4.238632,0.3928218,0.4530122,-0.8211586,1.106574,-0.4143127,-0.1540612,0.5896121,0.1884467,3.917443,222.0239,33.59
4,-0.1652069,-0.1233368,0.9785004,0.04036168,0.04707336,0.01928711,0.998703,-31.07187,4.71019,-39.524370000000005,3.582977,0.4659219,0.5222487,0.0,-0.1652069,-0.1233520999999999,0.9785004,36.35349,8.260086,-43.39137,4.238632,0.3928218,0.4530122,-0.8211586,1.106574,-0.4143127,-0.1540612,0.5896121,0.1884467,3.917443,222.0239,33.59
4,-0.1377563,-0.1400146,0.9805145,0.05667853,0.009597778,0.07478333,0.9971466,-31.06329,4.595978,-39.29909,4.150742,0.4725460999999999,0.5145206,0.0,-0.1377563,-0.1400146,0.9805145,36.3438,8.361282000000001,-43.35898,4.269073000000001,0.3878364,0.4518089,-0.8217458000000001,1.105391,-0.4143085,-0.1527331,0.5916053000000001,0.1865832999999999,3.917443,183.8928,33.59
4,-0.1377563,-0.1400146,0.9805145,0.05667853,0.009597778,0.07478333,0.9971466,-31.06329,4.595978,-39.29909,4.150742,0.4725460999999999,0.5145206,0.0,-0.1377563,-0.1400146,0.9805145,36.3438,8.361282000000001,-43.35898,4.269073000000001,0.3878364,0.4518089,-0.8217458000000001,1.105391,-0.4143085,-0.1527331,0.5916053000000001,0.1865832999999999,3.917443,183.8928,33.59
