Second,eye_comb_direction_x,eye_comb_direction_y,eye_comb_direction_z,eye_r_openness,eye_r_direction_x,eye_r_direction_y,eye_r_direction_z,eye_r_origin_x,eye_r_origin_y,eye_r_origin_z,eye_r_pupil_diameter,eye_r_pupil_position_x,eye_r_pupil_position_y,eye_l_openness,eye_l_direction_x,eye_l_direction_y,eye_l_direction_z,eye_l_origin_x,eye_l_origin_y,eye_l_origin_z,eye_l_pupil_diameter,eye_l_pupil_position_x,eye_l_pupil_position_y,head_position_x,head_position_y,head_position_z,head_rotation_roll,head_rotation_pitch,head_rotation_yaw,EDA,BVP,TMP
0,0.0,0.0,0.0,0.0,0.0,0.0,0.0,0.0,0.0,0.0,0.0,0.0,0.0,0.0,0.0,0.0,0.0,0.0,0.0,0.0,0.0,0.0,0.0,0.0,0.0,0.0,0.0,0.0,0.0,0.4142795107358263,-0.18980966128347418,31.190981905910736
0,0.01707458,-0.1904449,0.9815369,0.0,0.0171051,-0.1904907,0.9815369,-31.32352,3.72966,-33.04562,4.781235,0.4802158,0.5323923,0.0,-0.01902771,-0.1399994,0.9899597,28.8335,1.804581,-31.39641,5.635666,0.639964,0.5746745,0.2438344,1.191153,-0.1275048,-0.04644579,0.01546395,-0.01968325,0.4142795107358263,-0.18980966128347418,31.190981905910736
0,0.01921082,-0.189621,0.9816589,0.0,0.01934814,-0.1898346,0.9816132,-31.32588,3.739777,-33.04034,4.795425,0.4799188,0.5318726,0.0,-0.01213074,-0.138916,0.9902191,28.84879,1.838791,-31.4642,5.604279,0.6383114,0.5739262,0.2437569,1.190557,-0.1261095,-0.04434615,0.01675034,-0.02004594,0.4074633,-0.18980966128347418,31.190981905910736
0,0.01921082,-0.189621,0.9816589,0.0,0.01934814,-0.1898346,0.9816132,-31.32588,3.739777,-33.04034,4.795425,0.4799188,0.5318726,0.0,-0.01213074,-0.138916,0.9902191,28.84879,1.838791,-31.4642,5.604279,0.6383114,0.5739262,0.2437569,1.190557,-0.1261095,-0.04434615,0.01675034,-0.02004594,0.4074633,-0.18980966128347418,31.190981905910736
0,0.01921082,-0.189621,0.9816589,0.0,0.01934814,-0.1898346,0.9816132,-31.32588,3.739777,-33.04034,4.795425,0.4799188,0.5318726,0.0,-0.01213074,-0.138916,0.9902191,28.84879,1.838791,-31.4642,5.604279,0.6383114,0.5739262,0.2437569,1.190557,-0.1261095,-0.04434615,0.01675034,-0.02004594,0.4074633,-0.18980966128347418,31.190981905910736
0,0.01921082,-0.189621,0.9816589,0.0,0.01934814,-0.1898346,0.9816132,-31.32588,3.739777,-33.04034,4.795425,0.4799188,0.5318726,0.0,-0.01213074,-0.138916,0.9902191,28.84879,1.838791,-31.4642,5.604279,0.6383114,0.5739262,0.2437569,1.190557,-0.1261095,-0.04434615,0.01675034,-0.02004594,0.4074633,-0.18980966128347418,31.190981905910736
0,0.01921082,-0.189621,0.9816589,0.0,0.01934814,-0.1898346,0.9816132,-31.32588,3.739777,-33.04034,4.795425,0.4799188,0.5318726,0.0,-0.01213074,-0.138916,0.9902191,28.84879,1.838791,-31.4642,5.604279,0.6383114,0.5739262,0.2437569,1.190557,-0.1261095,-0.04434615,0.01675034,-0.02004594,0.4074633,-0.18980966128347418,31.190981905910736
0,0.01921082,-0.189621,0.9816589,0.0,0.01934814,-0.1898346,0.9816132,-31.32588,3.739777,-33.04034,4.795425,0.4799188,0.5318726,0.0,-0.01213074,-0.138916,0.9902191,28.84879,1.838791,-31.4642,5.604279,0.6383114,0.5739262,0.2437569,1.190557,-0.1261095,-0.04434615,0.01675034,-0.02004594,0.4074633,-0.18980966128347418,31.190981905910736
0,0.01921082,-0.189621,0.9816589,0.0,0.01934814,-0.1898346,0.9816132,-31.32588,3.739777,-33.04034,4.795425,0.4799188,0.5318726,0.0,-0.01213074,-0.138916,0.9902191,28.84879,1.838791,-31.4642,5.604279,0.6383114,0.5739262,0.2437569,1.190557,-0.1261095,-0.04434615,0.01675034,-0.02004594,0.4074633,-0.18980966128347418,31.190981905910736
0,0.01921082,-0.189621,0.9816589,0.0,0.01934814,-0.1898346,0.9816132,-31.32588,3.739777,-33.04034,4.795425,0.4799188,0.5318726,0.0,-0.01213074,-0.138916,0.9902191,28.84879,1.838791,-31.4642,5.604279,0.6383114,0.5739262,0.2437569,1.190557,-0.1261095,-0.04434615,0.01675034,-0.02004594,0.4074633,-0.18980966128347418,31.190981905910736
0,0.01921082,-0.189621,0.9816589,0.0,0.01934814,-0.1898346,0.9816132,-31.32588,3.739777,-33.04034,4.795425,0.4799188,0.5318726,0.0,-0.01213074,-0.138916,0.9902191,28.84879,1.838791,-31.4642,5.604279,0.6383114,0.5739262,0.2437569,1.190557,-0.1261095,-0.04434615,0.01675034,-0.02004594,0.4074633,-0.18980966128347418,31.190981905910736
0,0.0052948,-0.1486664,0.9888611,0.3792731,0.02545166,-0.1440735,0.9892273,-31.23602,4.086548,-32.93991,5.192429,0.4758421,0.5108407,0.6141668,-0.02226257,-0.1548615,0.9876709,29.09814,2.328476,-31.64265,5.822662,0.6314721,0.5613886,0.244553,1.189956,-0.1269323,-0.04293353,0.01490008,-0.02154982,0.4074633,-0.18980966128347418,31.190981905910736
0,0.0052948,-0.1486664,0.9888611,0.3792731,0.02545166,-0.1440735,0.9892273,-31.23602,4.086548,-32.93991,5.192429,0.4758421,0.5108407,0.6141668,-0.02226257,-0.1548615,0.9876709,29.09814,2.328476,-31.64265,5.822662,0.6314721,0.5613886,0.244553,1.189956,-0.1269323,-0.04293353,0.01490008,-0.02154982,0.4074633,-0.18980966128347418,31.190981905910736
0,0.0052948,-0.1486664,0.9888611,0.3792731,0.02545166,-0.1440735,0.9892273,-31.23602,4.086548,-32.93991,5.192429,0.4758421,0.5108407,0.6141668,-0.02226257,-0.1548615,0.9876709,29.09814,2.328476,-31.64265,5.822662,0.6314721,0.5613886,0.244553,1.189956,-0.1269323,-0.04293353,0.01490008,-0.02154982,0.4074633,-0.18980966128347418,31.190981905910736
0,0.0052948,-0.1486664,0.9888611,0.3792731,0.02545166,-0.1440735,0.9892273,-31.23602,4.086548,-32.93991,5.192429,0.4758421,0.5108407,0.6141668,-0.02226257,-0.1548615,0.9876709,29.09814,2.328476,-31.64265,5.822662,0.6314721,0.5613886,0.244553,1.189956,-0.1269323,-0.04293353,0.01490008,-0.02154982,0.4074633,-0.18980966128347418,31.190981905910736
0,0.0052948,-0.1486664,0.9888611,0.3792731,0.02545166,-0.1440735,0.9892273,-31.23602,4.086548,-32.93991,5.192429,0.4758421,0.5108407,0.6141668,-0.02226257,-0.1548615,0.9876709,29.09814,2.328476,-31.64265,5.822662,0.6314721,0.5613886,0.244553,1.189956,-0.1269323,-0.04293353,0.01490008,-0.02154982,0.4074633,-0.18980966128347418,31.190981905910736
0,0.003204346,-0.07090759,0.997467,0.3852125,0.007507324,-0.07209778,0.9973602,-31.17555,4.59581,-32.83868,5.20845,0.476879,0.4796407,0.6289516,-0.04849243,-0.056427,0.9972229,28.93071,3.10318,-32.27168,5.836212,0.6429253,0.5228868,0.2445089,1.189846,-0.1270697,-0.04186442,0.0148098,-0.0210312,0.4074633,-0.18980966128347418,31.190981905910736
0,0.003204346,-0.07090759,0.997467,0.3852125,0.007507324,-0.07209778,0.9973602,-31.17555,4.59581,-32.83868,5.20845,0.476879,0.4796407,0.6289516,-0.04849243,-0.056427,0.9972229,28.93071,3.10318,-32.27168,5.836212,0.6429253,0.5228868,0.2445089,1.189846,-0.1270697,-0.04186442,0.0148098,-0.0210312,0.4074633,-0.18980966128347418,31.190981905910736
0,0.01083374,-0.04127502,0.9990845,0.3812184,0.01087952,-0.04127502,0.9990845,-31.19717,4.788513,-33.31126,5.247498,0.4771135,0.4719613,0.6434527,-0.03318787,-0.04154968,0.9985809,28.94548,3.215073,-32.40771,5.97731,0.6400262,0.5176907,0.2444808,1.189878,-0.1271983,-0.04179763,0.01475082,-0.02084867,0.4074633,-0.18980966128347418,31.190981905910736
0,0.01083374,-0.04127502,0.9990845,0.3812184,0.01087952,-0.04127502,0.9990845,-31.19717,4.788513,-33.31126,5.247498,0.4771135,0.4719613,0.6434527,-0.03318787,-0.04154968,0.9985809,28.94548,3.215073,-32.40771,5.97731,0.6400262,0.5176907,0.2444808,1.189878,-0.1271983,-0.04179763,0.01475082,-0.02084867,0.4074633,-0.18980966128347418,31.190981905910736
0,-0.00630188,-0.04173279,0.9990997,0.3878501,-0.001434326,-0.03707886,0.9992981,-31.23921,4.756119,-33.2709,5.215729,0.480674,0.471994,0.6409706,-0.02182007,-0.05656433,0.9981537,28.98769,3.064896,-32.0584,5.918961,0.63598,0.52221,0.2444613,1.189856,-0.1272017,-0.04190267,0.01475688,-0.0207498,0.4074633,-0.18980966128347418,31.190981905910736
0,-0.01959229,-0.04875183,0.9986115,0.393784,-0.01464844,-0.03721619,0.9991913,-31.267,4.743134,-33.22485,5.301926,0.4838803,0.472118,0.650188,-0.02307129,-0.05685425,0.9981079,28.99548,3.07756,-32.09946,5.916656,0.63598,0.52221,0.2444563,1.189876,-0.1272862,-0.04211797,0.01457808,-0.02055281,0.4074633,-0.18980966128347418,31.190981905910736
0,-0.01959229,-0.04875183,0.9986115,0.393784,-0.01464844,-0.03721619,0.9991913,-31.267,4.743134,-33.22485,5.301926,0.4838803,0.472118,0.650188,-0.02307129,-0.05685425,0.9981079,28.99548,3.07756,-32.09946,5.916656,0.63598,0.52221,0.2444563,1.189876,-0.1272862,-0.04211797,0.01457808,-0.02055281,0.4074633,-0.18980966128347418,31.190981905910736
0,-0.01420593,-0.04103088,0.999054,0.393784,-0.002441406,-0.02294922,0.9997253,-31.2758,4.746658,-33.25284,5.2901,0.4821309,0.4697642,0.650188,-0.02342224,-0.0552063,0.9981995,28.99957,3.081253,-32.12912,5.872086,0.6359156,0.5220459,0.2445174,1.189948,-0.1272922,-0.04221674,0.01454687,-0.02052633,0.4074633,-0.18980966128347418,31.190981905910736
1,-0.006057739,-0.03869629,0.9992218,0.3918936,-0.002944946,-0.03605652,0.9993439,-31.28925,4.723892,-33.18988,5.270081,0.4826685,0.4722424,0.6489761,-0.02456665,-0.05433655,0.9982147,29.00764,3.081253,-32.14426,5.871567,0.6358477,0.5220459,0.244496,1.189977,-0.1272855,-0.04248959,0.01459544,-0.02070739,0.4074633,-0.18980966128347418,31.190981905910736
1,-0.01203918,-0.04202271,0.9990387,0.3859494,-0.007385254,-0.03829956,0.9992371,-31.30957,4.708282,-33.18707,5.205582,0.4841291,0.4731242,0.6422965,-0.02536011,-0.05262756,0.998291,29.01161,3.07756,-32.1441,5.885437,0.6358442,0.5218819,0.2444395,1.190124,-0.127338,-0.04288023,0.01470225,-0.02131517,0.4074633,-0.18980966128347418,31.190981905910736
1,-0.01394653,-0.03567505,0.9992523,0.3913445,-0.005325317,-0.03030396,0.9995117,-31.31886,4.688721,-33.15157,5.305588,0.4841037,0.4721455,0.644986,-0.02574158,-0.04301453,0.9987335,29.01573,3.07756,-32.1441,5.920288,0.6357793,0.5202214,0.2444097,1.190189,-0.1274105,-0.0430647,0.01482539,-0.02143786,0.4074633,-0.18980966128347418,31.190981905910736
1,-0.01394653,-0.03567505,0.9992523,0.3913445,-0.005325317,-0.03030396,0.9995117,-31.31886,4.688721,-33.15157,5.305588,0.4841037,0.4721455,0.644986,-0.02574158,-0.04301453,0.9987335,29.01573,3.07756,-32.1441,5.920288,0.6357793,0.5202214,0.2444097,1.190189,-0.1274105,-0.0430647,0.01482539,-0.02143786,0.4074633,-0.18980966128347418,31.190981905910736
1,-0.01348877,-0.03938293,0.9991302,0.3908426,-0.003875732,-0.03552246,0.9993591,-31.32481,4.673004,-33.11661,5.245605,0.4840584,0.4732443,0.6454986,-0.02032471,-0.04211426,0.9989014,29.01599,3.07756,-32.15878,5.937592,0.6348599,0.5202214,0.2443298,1.190221,-0.1274618,-0.04329833,0.01489258,-0.0213473,0.4074633,-0.18980966128347418,31.190981905910736
1,-0.01353455,-0.04219055,0.9990082,0.3918077,-0.002441406,-0.03421021,0.9994049,-31.33197,4.652176,-33.06644,5.178055,0.4840584,0.4732443,0.6459444,-0.0202179,-0.04699707,0.9986877,29.01599,3.073059,-32.18002,5.917343,0.6348599,0.5214216,0.244257,1.190353,-0.1275618,-0.04369896,0.01483895,-0.02100851,0.4074633,-0.18980966128347418,31.190981905910736
1,-0.01325989,-0.04231262,0.9990082,0.3918077,-0.003234863,-0.03379822,0.9994202,-31.33571,4.641205,-33.04004,5.164429,0.4843208,0.4732982,0.6459444,-0.01925659,-0.04740906,0.9986877,29.01587,3.072433,-32.19539,5.901398,0.634711,0.5216517,0.2441853,1.190385,-0.1276209,-0.04404219,0.01485651,-0.02065118,0.4074633,-0.18980966128347418,31.190981905910736
1,-0.001831055,-0.0322113,0.9994659,0.4023235,-0.001800537,-0.03157043,0.9994965,-31.34265,4.628082,-33.04752,5.164749,0.4843208,0.4734391,0.6512854,-0.002807617,-0.05085754,0.9986877,28.98854,2.772385,-31.58449,5.733749,0.6319255,0.5267872,0.2441001,1.190497,-0.127719,-0.04455851,0.01464945,-0.02048237,0.4074633,-0.18980966128347418,31.190981905910736
1,-0.001831055,-0.0322113,0.9994659,0.4023235,-0.001800537,-0.03157043,0.9994965,-31.34265,4.628082,-33.04752,5.164749,0.4843208,0.4734391,0.6512854,-0.002807617,-0.05085754,0.9986877,28.98854,2.772385,-31.58449,5.733749,0.6319255,0.5267872,0.2441001,1.190497,-0.127719,-0.04455851,0.01464945,-0.02048237,0.4074633,-0.18980966128347418,31.190981905910736
1,0.001800537,-0.02832031,0.999588,0.4044591,0.001815796,-0.02832031,0.999588,-31.35843,4.54921,-33.02374,5.008942,0.4842427,0.4753089,0.6649759,-0.002578735,-0.03121948,0.9994965,28.99081,2.783539,-31.73053,5.863724,0.6320454,0.5244881,0.2440314,1.190523,-0.1277677,-0.04471724,0.01460004,-0.02065731,0.4074633,-0.18980966128347418,31.190981905910736
1,-0.008361816,-0.015625,0.9998322,0.4079346,-0.008560181,-0.01582336,0.9998322,-31.33984,4.452332,-32.91042,5.072189,0.4853484,0.4755136,0.6588211,0.02410889,0.01683044,0.9995575,28.98584,2.734558,-31.72887,6.178314,0.6277592,0.5181218,0.243966,1.190552,-0.1278378,-0.04479598,0.01436701,-0.02095773,0.4074633,-0.18980966128347418,31.190981905910736
1,-0.01109314,-0.012146,0.9998627,0.4170908,-0.01329041,-0.01264954,0.9998169,-31.36732,4.316101,-32.45917,5.057724,0.4870502,0.4755507,0.6642803,0.014328,-0.006210327,0.9998779,28.98354,2.713211,-31.66585,5.953751,0.6293341,0.5220579,0.2438796,1.190561,-0.1279358,-0.04486429,0.01411747,-0.0210871,0.4074633,-0.18980966128347418,31.190981905910736
1,-0.01109314,-0.012146,0.9998627,0.4170908,-0.01329041,-0.01264954,0.9998169,-31.36732,4.316101,-32.45917,5.057724,0.4870502,0.4755507,0.6642803,0.014328,-0.006210327,0.9998779,28.98354,2.713211,-31.66585,5.953751,0.6293341,0.5220579,0.2438796,1.190561,-0.1279358,-0.04486429,0.01411747,-0.0210871,0.4074633,-0.18980966128347418,31.190981905910736
1,-0.0008239746,-0.03857422,0.9992523,0.4229583,-0.00932312,-0.0473175,0.9988251,-31.36491,4.448135,-32.90302,4.912537,0.4863299,0.4809599,0.6718451,0.009475708,-0.02798462,0.9995575,28.97824,2.675461,-31.55824,5.827118,0.6301574,0.526016,0.2438582,1.190521,-0.1279762,-0.04492619,0.01399503,-0.02104713,0.4074633,-0.18980966128347418,31.190981905910736
1,0.004928589,-0.02484131,0.9996643,0.4298629,-0.00819397,-0.02108765,0.9997406,-31.37318,4.450592,-32.88922,5.122421,0.4864398,0.4763286,0.6601104,0.01623535,-0.02807617,0.9994659,28.97244,2.656616,-31.52141,5.733246,0.6291089,0.526283,0.2438087,1.190555,-0.1280363,-0.0449769,0.01400993,-0.02076344,0.4074633,-0.18980966128347418,31.190981905910736
1,0.002212524,-0.02642822,0.9996338,0.4298629,-0.007049561,-0.02416992,0.9996796,-31.3788,4.451096,-32.88301,5.061371,0.4864398,0.4767496,0.6601104,0.01701355,-0.03001404,0.9993896,28.96811,2.651596,-31.50975,5.723358,0.6291089,0.5266731,0.2438742,1.190625,-0.1280766,-0.04517921,0.01399716,-0.02061362,0.4074633,-0.18980966128347418,31.190981905910736
1,0.002212524,-0.02642822,0.9996338,0.4298629,-0.007049561,-0.02416992,0.9996796,-31.3788,4.451096,-32.88301,5.061371,0.4864398,0.4767496,0.6601104,0.01701355,-0.03001404,0.9993896,28.96811,2.651596,-31.50975,5.723358,0.6291089,0.5266731,0.2438742,1.190625,-0.1280766,-0.04517921,0.01399716,-0.02061362,0.4074633,-0.18980966128347418,31.190981905910736
1,0.004119873,-0.02729797,0.9996033,0.4413871,-0.006622314,-0.02613831,0.9996338,-31.38132,4.450928,-32.88199,5.006973,0.4864543,0.4770495,0.6707821,0.01901245,-0.02890015,0.9993896,28.96655,2.649017,-31.50583,5.719452,0.6288121,0.5265281,0.2438265,1.190689,-0.1281013,-0.04527295,0.01412064,-0.020506,0.4074633,-0.18980966128347418,31.190981905910736
1,0.001861572,-0.0390625,0.9992218,0.4486554,-0.009399414,-0.04208374,0.9990692,-31.38837,4.450546,-32.86819,4.916382,0.4871601,0.4796542,0.6689692,0.01524353,-0.03547668,0.9992523,28.96298,2.645599,-31.49561,5.667206,0.6295556,0.52766,0.2438236,1.190745,-0.1281151,-0.04559338,0.01422787,-0.02025889,0.4074633,13.98722,31.190981905910736
1,0.001861572,-0.0390625,0.9992218,0.4486554,-0.009399414,-0.04208374,0.9990692,-31.38837,4.450546,-32.86819,4.916382,0.4871601,0.4796542,0.6689692,0.01524353,-0.03547668,0.9992523,28.96298,2.645599,-31.49561,5.667206,0.6295556,0.52766,0.2438236,1.190745,-0.1281151,-0.04559338,0.01422787,-0.02025889,0.4074633,13.98722,31.190981905910736
1,0.0009307861,-0.02178955,0.9997559,0.4486554,-0.01779175,-0.02549744,0.9995117,-31.4449,4.425201,-32.64139,4.841202,0.4905399,0.475555,0.6689692,0.01582336,-0.0188446,0.9996948,28.90907,2.728714,-31.64999,5.597931,0.6315502,0.5232863,0.2437586,1.190779,-0.128087,-0.04586904,0.01417541,-0.02005188,0.4074633,13.98722,31.190981905910736
1,-0.003005981,-0.01425171,0.9998932,0.4545796,-0.02589417,-0.02215576,0.9994049,-31.5002,4.372574,-32.36305,4.787949,0.4937935,0.4742441,0.6703439,0.01242065,-0.008911133,0.9998779,28.81903,2.905746,-32.04359,5.626053,0.6359192,0.5191424,0.2437387,1.19085,-0.1280855,-0.0462089,0.01422577,-0.02032278,0.4074633,13.98722,31.47
1,-0.003005981,-0.01425171,0.9998932,0.4545796,-0.02589417,-0.02215576,0.9994049,-31.5002,4.372574,-32.36305,4.787949,0.4937935,0.4742441,0.6703439,0.01242065,-0.008911133,0.9998779,28.81903,2.905746,-32.04359,5.626053,0.6359192,0.5191424,0.2437387,1.19085,-0.1280855,-0.0462089,0.01422577,-0.02032278,0.4074633,13.98722,31.47
1,-0.003005981,-0.01425171,0.9998932,0.4545796,-0.02589417,-0.02215576,0.9994049,-31.5002,4.372574,-32.36305,4.787949,0.4937935,0.4742441,0.6703439,0.01242065,-0.008911133,0.9998779,28.81903,2.905746,-32.04359,5.626053,0.6359192,0.5191424,0.2436584,1.190919,-0.1280927,-0.0464039,0.01430516,-0.02059663,0.4074633,13.98722,31.47
1,-0.003005981,-0.01425171,0.9998932,0.4545796,-0.02589417,-0.02215576,0.9994049,-31.5002,4.372574,-32.36305,4.787949,0.4937935,0.4742441,0.6703439,0.01242065,-0.008911133,0.9998779,28.81903,2.905746,-32.04359,5.626053,0.6359192,0.5191424,0.2436532,1.190971,-0.1280655,-0.04649437,0.01436856,-0.02076093,0.4074633,13.98722,31.47
1,-0.003005981,-0.01425171,0.9998932,0.4545796,-0.02589417,-0.02215576,0.9994049,-31.5002,4.372574,-32.36305,4.787949,0.4937935,0.4742441,0.6703439,0.01242065,-0.008911133,0.9998779,28.81903,2.905746,-32.04359,5.626053,0.6359192,0.5191424,0.2436199,1.190925,-0.1281245,-0.04649181,0.01443994,-0.02065226,0.4074633,13.98722,31.47
1,-0.003005981,-0.01425171,0.9998932,0.4545796,-0.02589417,-0.02215576,0.9994049,-31.5002,4.372574,-32.36305,4.787949,0.4937935,0.4742441,0.6703439,0.01242065,-0.008911133,0.9998779,28.81903,2.905746,-32.04359,5.626053,0.6359192,0.5191424,0.2436199,1.190925,-0.1281245,-0.04649181,0.01443994,-0.02065226,0.4074633,13.98722,31.47
1,-0.01095581,0.005020142,0.9999237,0.4545796,-0.03208923,-0.008972168,0.9994354,-31.54793,4.414917,-32.40009,4.849625,0.4965216,0.4708823,0.6703439,0.01275635,0.02075195,0.9996948,28.74222,2.951904,-32.06252,5.622238,0.6386682,0.5125206,0.2436441,1.190923,-0.1280998,-0.04647513,0.01450995,-0.02053141,0.4074633,13.98722,31.47
1,-0.01095581,0.005020142,0.9999237,0.4545796,-0.03208923,-0.008972168,0.9994354,-31.54793,4.414917,-32.40009,4.849625,0.4965216,0.4708823,0.6703439,0.01275635,0.02075195,0.9996948,28.74222,2.951904,-32.06252,5.622238,0.6386682,0.5125206,0.2436441,1.190923,-0.1280998,-0.04647513,0.01450995,-0.02053141,0.4074633,13.98722,31.47
1,-0.01095581,0.005020142,0.9999237,0.4545796,-0.03208923,-0.008972168,0.9994354,-31.54793,4.414917,-32.40009,4.849625,0.4965216,0.4708823,0.6703439,0.01275635,0.02075195,0.9996948,28.74222,2.951904,-32.06252,5.622238,0.6386682,0.5125206,0.2436603,1.190853,-0.1280711,-0.04635683,0.01471846,-0.02056948,0.4074633,13.98722,31.47
1,-0.01095581,0.005020142,0.9999237,0.4545796,-0.03208923,-0.008972168,0.9994354,-31.54793,4.414917,-32.40009,4.849625,0.4965216,0.4708823,0.6703439,0.01275635,0.02075195,0.9996948,28.74222,2.951904,-32.06252,5.622238,0.6386682,0.5125206,0.2436534,1.190858,-0.1280457,-0.04633192,0.01470985,-0.02064721,0.4074633,13.98722,31.47
1,-0.01095581,0.005020142,0.9999237,0.4545796,-0.03208923,-0.008972168,0.9994354,-31.54793,4.414917,-32.40009,4.849625,0.4965216,0.4708823,0.6703439,0.01275635,0.02075195,0.9996948,28.74222,2.951904,-32.06252,5.622238,0.6386682,0.5125206,0.2436594,1.190863,-0.1280057,-0.04629878,0.01479974,-0.02076236,0.4074633,13.98722,31.47
1,-0.01095581,0.005020142,0.9999237,0.4545796,-0.03208923,-0.008972168,0.9994354,-31.54793,4.414917,-32.40009,4.849625,0.4965216,0.4708823,0.6703439,0.01275635,0.02075195,0.9996948,28.74222,2.951904,-32.06252,5.622238,0.6386682,0.5125206,0.2436594,1.190863,-0.1280057,-0.04629878,0.01479974,-0.02076236,0.4074633,13.98722,31.47
1,-0.03691101,-0.002166748,0.9993134,0.4655054,-0.04229736,-0.002548218,0.9990997,-31.58263,4.407349,-32.20065,4.740265,0.4994371,0.468184,0.6714499,0.007125854,0.0009460449,0.9999695,28.66406,3.18541,-32.56929,5.566498,0.6431665,0.5125648,0.2436668,1.19084,-0.1279908,-0.04634478,0.01479873,-0.02076164,0.4074633,13.98722,31.47
1,-0.03691101,-0.002166748,0.9993134,0.4655054,-0.04229736,-0.002548218,0.9990997,-31.58263,4.407349,-32.20065,4.740265,0.4994371,0.468184,0.6714499,0.007125854,0.0009460449,0.9999695,28.66406,3.18541,-32.56929,5.566498,0.6431665,0.5125648,0.2436765,1.190838,-0.1279531,-0.04637066,0.01478614,-0.0206223,0.4074633,6.86454,31.47
1,-0.03691101,-0.002166748,0.9993134,0.4655054,-0.04229736,-0.002548218,0.9990997,-31.58263,4.407349,-32.20065,4.740265,0.4994371,0.468184,0.6714499,0.007125854,0.0009460449,0.9999695,28.66406,3.18541,-32.56929,5.566498,0.6431665,0.5125648,0.2436057,1.19081,-0.1279997,-0.04636616,0.01468298,-0.02055426,0.4074633,6.86454,31.47
1,-0.03691101,-0.002166748,0.9993134,0.4655054,-0.04229736,-0.002548218,0.9990997,-31.58263,4.407349,-32.20065,4.740265,0.4994371,0.468184,0.6714499,0.007125854,0.0009460449,0.9999695,28.66406,3.18541,-32.56929,5.566498,0.6431665,0.5125648,0.2436458,1.19078,-0.1279547,-0.04638656,0.0145837,-0.02073867,0.4074633,6.86454,31.47
1,-0.0413208,0.005126953,0.9991302,0.4655054,-0.05014038,-0.01092529,0.9986725,-31.65887,4.323181,-31.90022,4.520416,0.5033411,0.4696944,0.6714499,-0.0146637,0.05357361,0.9984436,28.64253,2.592712,-30.87495,5.304642,0.6452512,0.5078142,0.2436458,1.19078,-0.1279547,-0.04638656,0.0145837,-0.02073867,0.4074633,6.86454,31.47
1,-0.0413208,0.005126953,0.9991302,0.4655054,-0.05014038,-0.01092529,0.9986725,-31.65887,4.323181,-31.90022,4.520416,0.5033411,0.4696944,0.6714499,-0.0146637,0.05357361,0.9984436,28.64253,2.592712,-30.87495,5.304642,0.6452512,0.5078142,0.2436458,1.19078,-0.1279547,-0.04638656,0.0145837,-0.02073867,0.4074633,6.86454,31.47
1,-0.04606628,-0.0052948,0.9989166,0.4983855,-0.04623413,-0.005523682,0.9989014,-31.64197,4.312958,-31.86879,4.340027,0.5021114,0.4686661,0.6896694,-0.003005981,0.05134583,0.9986725,28.66103,2.567245,-30.79332,5.241623,0.6423328,0.5082932,0.2437491,1.190902,-0.1279075,-0.04662463,0.01472099,-0.02059084,0.4074633,6.86454,31.47
1,-0.04864502,-0.009902954,0.998764,0.4983855,-0.04864502,-0.009902954,0.998764,-31.6447,4.327209,-31.89908,4.317734,0.5026223,0.4692072,0.6896694,-0.001495361,0.05363464,0.9985504,28.65974,2.569672,-30.78862,5.227478,0.6421037,0.5077606,0.2439009,1.191025,-0.1278838,-0.04725383,0.0154326,-0.02050818,0.4074633,6.86454,31.47
1,-0.04864502,-0.009902954,0.998764,0.4983855,-0.04864502,-0.009902954,0.998764,-31.6447,4.327209,-31.89908,4.317734,0.5026223,0.4692072,0.6896694,-0.001495361,0.05363464,0.9985504,28.65974,2.569672,-30.78862,5.227478,0.6421037,0.5077606,0.2439009,1.191025,-0.1278838,-0.04725383,0.0154326,-0.02050818,0.4074633,6.86454,31.47
1,-0.04797363,-0.01055908,0.9987793,0.4947385,-0.04798889,-0.0105896,0.9987793,-31.64784,4.329041,-31.90097,4.271606,0.5026223,0.4692404,0.6938511,-0.002151489,0.05415344,0.9985199,28.65591,2.571381,-30.78702,5.211014,0.6423465,0.5075775,0.2440836,1.191106,-0.1278148,-0.04760053,0.01649892,-0.02029233,0.4074633,6.86454,31.47
1,-0.04797363,-0.01055908,0.9987793,0.4947385,-0.04798889,-0.0105896,0.9987793,-31.64784,4.329041,-31.90097,4.271606,0.5026223,0.4692404,0.6938511,-0.002151489,0.05415344,0.9985199,28.65591,2.571381,-30.78702,5.211014,0.6423465,0.5075775,0.2440836,1.191106,-0.1278148,-0.04760053,0.01649892,-0.02029233,0.4074633,6.86454,31.47
1,-0.04797363,-0.01055908,0.9987793,0.4947385,-0.04798889,-0.0105896,0.9987793,-31.64784,4.329041,-31.90097,4.271606,0.5026223,0.4692404,0.6938511,-0.002151489,0.05415344,0.9985199,28.65591,2.571381,-30.78702,5.211014,0.6423465,0.5075775,0.2443126,1.191164,-0.1278061,-0.04797689,0.01795305,-0.02011532,0.4074633,6.86454,31.47
1,-0.04797363,-0.01055908,0.9987793,0.4947385,-0.04798889,-0.0105896,0.9987793,-31.64784,4.329041,-31.90097,4.271606,0.5026223,0.4692404,0.6938511,-0.002151489,0.05415344,0.9985199,28.65591,2.571381,-30.78702,5.211014,0.6423465,0.5075775,0.2448617,1.191263,-0.1277677,-0.04848328,0.02057021,-0.0202622,0.4074633,6.86454,31.47
1,-0.04797363,-0.01055908,0.9987793,0.4947385,-0.04798889,-0.0105896,0.9987793,-31.64784,4.329041,-31.90097,4.271606,0.5026223,0.4692404,0.6938511,-0.002151489,0.05415344,0.9985199,28.65591,2.571381,-30.78702,5.211014,0.6423465,0.5075775,0.2448617,1.191263,-0.1277677,-0.04848328,0.02057021,-0.0202622,0.4074633,6.86454,31.47
1,-0.04797363,-0.01055908,0.9987793,0.4947385,-0.04798889,-0.0105896,0.9987793,-31.64784,4.329041,-31.90097,4.271606,0.5026223,0.4692404,0.6938511,-0.002151489,0.05415344,0.9985199,28.65591,2.571381,-30.78702,5.211014,0.6423465,0.5075775,0.2455927,1.191432,-0.1277008,-0.04927242,0.02451122,-0.02000799,0.4074633,-19.77517,31.47
1,-0.04797363,-0.01055908,0.9987793,0.4947385,-0.04798889,-0.0105896,0.9987793,-31.64784,4.329041,-31.90097,4.271606,0.5026223,0.4692404,0.6938511,-0.002151489,0.05415344,0.9985199,28.65591,2.571381,-30.78702,5.211014,0.6423465,0.5075775,0.2455927,1.191432,-0.1277008,-0.04927242,0.02451122,-0.02000799,0.4074633,-19.77517,31.47
1,-0.01620483,0.02407837,0.9995728,0.4962384,-0.04046631,-0.01287842,0.9990845,-31.66631,4.351257,-31.9693,4.055801,0.5020048,0.4693409,0.6973628,0.002044678,0.05183411,0.998642,28.64812,2.572723,-30.79012,5.163101,0.6418746,0.5079177,0.246641,1.191626,-0.1276519,-0.0501807,0.03002458,-0.01964346,0.4074633,-19.77517,31.47
1,-0.01620483,0.02407837,0.9995728,0.4962384,-0.04046631,-0.01287842,0.9990845,-31.66631,4.351257,-31.9693,4.055801,0.5020048,0.4693409,0.6973628,0.002044678,0.05183411,0.998642,28.64812,2.572723,-30.79012,5.163101,0.6418746,0.5079177,0.246641,1.191626,-0.1276519,-0.0501807,0.03002458,-0.01964346,0.4074633,-19.77517,31.47
1,-0.007888794,0.0246582,0.9996643,0.4976504,-0.04577637,-0.01533508,0.9988251,-31.80827,4.454239,-32.29843,3.978134,0.5079136,0.469201,0.6950527,0.006835938,0.04019165,0.9991608,28.51927,2.642929,-30.88873,4.805542,0.6456059,0.5081046,0.2480154,1.191805,-0.1276439,-0.0512768,0.03773533,-0.02012421,0.4074633,-19.77517,31.47
1,-0.007888794,0.0246582,0.9996643,0.4976504,-0.04577637,-0.01533508,0.9988251,-31.80827,4.454239,-32.29843,3.978134,0.5079136,0.469201,0.6950527,0.006835938,0.04019165,0.9991608,28.51927,2.642929,-30.88873,4.805542,0.6456059,0.5081046,0.2480154,1.191805,-0.1276439,-0.0512768,0.03773533,-0.02012421,0.4074633,-19.77517,31.47
1,-0.1603546,0.003234863,0.9870453,0.5062117,-0.1646423,-0.003005981,0.9863434,-32.65077,4.586212,-32.75134,3.946167,0.5579575,0.4672914,0.7015318,-0.121048,0.06002808,0.9908142,27.46556,3.088867,-32.21782,4.944107,0.7090732,0.5016925,0.249838,1.191957,-0.1277204,-0.05263807,0.04814478,-0.02062627,0.4074633,-19.77517,31.47
1,-0.1603546,0.003234863,0.9870453,0.5062117,-0.1646423,-0.003005981,0.9863434,-32.65077,4.586212,-32.75134,3.946167,0.5579575,0.4672914,0.7015318,-0.121048,0.06002808,0.9908142,27.46556,3.088867,-32.21782,4.944107,0.7090732,0.5016925,0.249838,1.191957,-0.1277204,-0.05263807,0.04814478,-0.02062627,0.4074633,-19.77517,31.47
1,-0.29039,-0.004974365,0.9568787,0.5072288,-0.290451,-0.006195068,0.9568634,-33.40544,4.5186,-32.83742,3.86557,0.6067051,0.4720958,0.709134,-0.2863159,0.06129456,0.9561615,26.5336,2.851593,-31.94965,5.119995,0.7747534,0.5082879,0.2519081,1.192007,-0.1278856,-0.05347766,0.05988392,-0.02030554,0.4074633,-19.77517,31.47
1,-0.29039,-0.004974365,0.9568787,0.5072288,-0.290451,-0.006195068,0.9568634,-33.40544,4.5186,-32.83742,3.86557,0.6067051,0.4720958,0.709134,-0.2863159,0.06129456,0.9561615,26.5336,2.851593,-31.94965,5.119995,0.7747534,0.5082879,0.2519081,1.192007,-0.1278856,-0.05347766,0.05988392,-0.02030554,0.4074633,-19.77517,31.47
1,-0.29039,-0.004974365,0.9568787,0.5072288,-0.290451,-0.006195068,0.9568634,-33.40544,4.5186,-32.83742,3.86557,0.6067051,0.4720958,0.709134,-0.2863159,0.06129456,0.9561615,26.5336,2.851593,-31.94965,5.119995,0.7747534,0.5082879,0.2519081,1.192007,-0.1278856,-0.05347766,0.05988392,-0.02030554,0.4074633,-19.77517,31.47
1,-0.3614197,0.001144409,0.9323883,0.6132762,-0.3631897,-0.003494263,0.9317017,-33.63977,4.475403,-32.95436,4.069977,0.6281851,0.4752564,0.8408869,-0.345108,0.04295349,0.937561,26.28915,2.751984,-32.05359,5.007751,0.7963086,0.5166106,0.2540374,1.192173,-0.128055,-0.05381169,0.07222963,-0.01983521,0.4074633,-19.77517,31.47
1,-0.3345642,0.01501465,0.9422455,0.6237706,-0.3408966,-0.0112915,0.9400177,-33.50293,4.444138,-32.9077,3.838409,0.6193237,0.4768797,0.8387579,-0.3196869,0.07312012,0.9446869,26.52377,2.744141,-32.0015,5.157974,0.7820072,0.510895,0.2562975,1.192299,-0.1283569,-0.05442803,0.08477271,-0.0199345,0.4074633,-19.77517,31.47
1,-0.3345642,0.01501465,0.9422455,0.6237706,-0.3408966,-0.0112915,0.9400177,-33.50293,4.444138,-32.9077,3.838409,0.6193237,0.4768797,0.8387579,-0.3196869,0.07312012,0.9446869,26.52377,2.744141,-32.0015,5.157974,0.7820072,0.510895,0.2562975,1.192299,-0.1283569,-0.05442803,0.08477271,-0.0199345,0.4074633,-19.77517,31.47
1,-0.2995605,0.0003356934,0.954071,0.6168211,-0.3018494,-0.02813721,0.9529266,-33.39157,4.441376,-32.84268,3.736191,0.6082621,0.4787926,0.8699237,-0.2960052,0.03952026,0.954361,26.69888,2.739487,-31.92102,4.966324,0.7699869,0.5160173,0.2582585,1.192487,-0.1287351,-0.05528802,0.09643972,-0.02035831,0.4074633,-19.77517,31.47
1,-0.2995605,0.0003356934,0.954071,0.6168211,-0.3018494,-0.02813721,0.9529266,-33.39157,4.441376,-32.84268,3.736191,0.6082621,0.4787926,0.8699237,-0.2960052,0.03952026,0.954361,26.69888,2.739487,-31.92102,4.966324,0.7699869,0.5160173,0.2582585,1.192487,-0.1287351,-0.05528802,0.09643972,-0.02035831,0.4074633,-19.77517,31.47
1,-0.2995605,0.0003356934,0.954071,0.6168211,-0.3018494,-0.02813721,0.9529266,-33.39157,4.441376,-32.84268,3.736191,0.6082621,0.4787926,0.8699237,-0.2960052,0.03952026,0.954361,26.69888,2.739487,-31.92102,4.966324,0.7699869,0.5160173,0.2582585,1.192487,-0.1287351,-0.05528802,0.09643972,-0.02035831,0.4074633,-19.77517,31.47
1,-0.2743988,-0.01068115,0.9615479,0.6288883,-0.2819061,-0.02555847,0.9590912,-33.11621,4.427292,-32.78952,3.779465,0.5949515,0.4781272,0.8575111,-0.259201,0.0189209,0.9656372,26.98749,2.682037,-31.83774,4.771194,0.7514272,0.5205689,0.2599883,1.192531,-0.1291828,-0.05627958,0.106064,-0.02110652,0.4074633,-19.77517,31.47
1,-0.257782,-0.01431274,0.966095,0.6288883,-0.263916,-0.02682495,0.9641571,-33.02031,4.419022,-32.76602,3.841766,0.5883297,0.4782499,0.8575111,-0.2459717,0.009399414,0.969223,27.09955,2.696518,-31.81293,4.669556,0.7445669,0.5213541,0.2613539,1.192589,-0.1295552,-0.0570822,0.1134995,-0.02218525,0.4074633,1.399368,31.47
1,-0.257782,-0.01431274,0.966095,0.6288883,-0.263916,-0.02682495,0.9641571,-33.02031,4.419022,-32.76602,3.841766,0.5883297,0.4782499,0.8575111,-0.2459717,0.009399414,0.969223,27.09955,2.696518,-31.81293,4.669556,0.7445669,0.5213541,0.2613539,1.192589,-0.1295552,-0.0570822,0.1134995,-0.02218525,0.4074633,1.399368,31.47
1,-0.257782,-0.01431274,0.966095,0.6288883,-0.263916,-0.02682495,0.9641571,-33.02031,4.419022,-32.76602,3.841766,0.5883297,0.4782499,0.8575111,-0.2459717,0.009399414,0.969223,27.09955,2.696518,-31.81293,4.669556,0.7445669,0.5213541,0.2624468,1.192608,-0.1298082,-0.05799214,0.1188024,-0.02423918,0.4074633,1.399368,31.47
1,-0.257782,-0.01431274,0.966095,0.6288883,-0.263916,-0.02682495,0.9641571,-33.02031,4.419022,-32.76602,3.841766,0.5883297,0.4782499,0.8575111,-0.2459717,0.009399414,0.969223,27.09955,2.696518,-31.81293,4.669556,0.7445669,0.5213541,0.2624468,1.192608,-0.1298082,-0.05799214,0.1188024,-0.02423918,0.4074633,1.399368,31.47
1,-0.257782,-0.01431274,0.966095,0.6288883,-0.263916,-0.02682495,0.9641571,-33.02031,4.419022,-32.76602,3.841766,0.5883297,0.4782499,0.8575111,-0.2459717,0.009399414,0.969223,27.09955,2.696518,-31.81293,4.669556,0.7445669,0.5213541,0.2632797,1.192691,-0.1300111,-0.05895806,0.1225675,-0.02667788,0.4074633,1.399368,31.47
1,-0.257782,-0.01431274,0.966095,0.6288883,-0.263916,-0.02682495,0.9641571,-33.02031,4.419022,-32.76602,3.841766,0.5883297,0.4782499,0.8575111,-0.2459717,0.009399414,0.969223,27.09955,2.696518,-31.81293,4.669556,0.7445669,0.5213541,0.2632797,1.192691,-0.1300111,-0.05895806,0.1225675,-0.02667788,0.4074633,1.399368,31.47
1,-0.1724701,-0.0390625,0.9842377,0.6135515,-0.1724701,-0.0390625,0.9842224,-32.36287,4.545273,-33.29936,3.510925,0.5497209,0.4798722,0.8396286,-0.152359,-0.004013062,0.9883118,27.96263,2.998932,-33.0269,4.496338,0.6977016,0.5241163,0.2638663,1.192807,-0.1302184,-0.05976236,0.1248546,-0.02868211,0.4074633,1.399368,31.47
1,-0.1724701,-0.0390625,0.9842377,0.6135515,-0.1724701,-0.0390625,0.9842224,-32.36287,4.545273,-33.29936,3.510925,0.5497209,0.4798722,0.8396286,-0.152359,-0.004013062,0.9883118,27.96263,2.998932,-33.0269,4.496338,0.6977016,0.5241163,0.2638663,1.192807,-0.1302184,-0.05976236,0.1248546,-0.02868211,0.4074633,1.399368,31.47
1,-0.1627808,-0.04963684,0.9853973,0.6168026,-0.1627808,-0.04963684,0.9853973,-32.24971,4.630768,-33.51758,3.560226,0.5441602,0.4807409,0.8487586,-0.1316986,-0.0322876,0.9907532,28.07619,3.168976,-33.52603,4.511597,0.6906263,0.5279651,0.2642227,1.192869,-0.1303532,-0.06060358,0.1256138,-0.03027221,0.4074633,1.399368,31.47
1,-0.1627808,-0.04963684,0.9853973,0.6168026,-0.1627808,-0.04963684,0.9853973,-32.24971,4.630768,-33.51758,3.560226,0.5441602,0.4807409,0.8487586,-0.1316986,-0.0322876,0.9907532,28.07619,3.168976,-33.52603,4.511597,0.6906263,0.5279651,0.2642227,1.192869,-0.1303532,-0.06060358,0.1256138,-0.03027221,0.4074633,1.399368,31.47
1,-0.1463165,-0.04849243,0.9880371,0.6265169,-0.1496582,-0.05000305,0.9874573,-32.16092,4.604919,-33.44333,3.577454,0.5387017,0.4809283,0.8501241,-0.1239929,-0.03845215,0.9915314,28.17387,3.040771,-33.1188,4.374756,0.6848466,0.5295123,0.2643199,1.19281,-0.1304429,-0.06071719,0.1249116,-0.03111476,0.4074633,1.399368,31.47
1,-0.1463165,-0.04849243,0.9880371,0.6265169,-0.1496582,-0.05000305,0.9874573,-32.16092,4.604919,-33.44333,3.577454,0.5387017,0.4809283,0.8501241,-0.1239929,-0.03845215,0.9915314,28.17387,3.040771,-33.1188,4.374756,0.6848466,0.5295123,0.2643199,1.19281,-0.1304429,-0.06071719,0.1249116,-0.03111476,0.4074633,1.399368,31.47
1,-0.1350708,-0.05148315,0.9894867,0.6182828,-0.1402588,-0.05380249,0.9886475,-32.0905,4.586029,-33.41217,3.509277,0.5345894,0.48186,0.8433818,-0.1090088,-0.0398407,0.9932404,28.2494,2.963425,-33.00214,4.30101,0.6791314,0.5312399,0.2641991,1.192795,-0.1305761,-0.06064475,0.1226784,-0.03121183,0.4074633,1.399368,31.47
1,-0.1350708,-0.05148315,0.9894867,0.6182828,-0.1402588,-0.05380249,0.9886475,-32.0905,4.586029,-33.41217,3.509277,0.5345894,0.48186,0.8433818,-0.1090088,-0.0398407,0.9932404,28.2494,2.963425,-33.00214,4.30101,0.6791314,0.5312399,0.2641991,1.192795,-0.1305761,-0.06064475,0.1226784,-0.03121183,0.4074633,1.399368,31.47
1,-0.1350708,-0.05148315,0.9894867,0.6182828,-0.1402588,-0.05380249,0.9886475,-32.0905,4.586029,-33.41217,3.509277,0.5345894,0.48186,0.8433818,-0.1090088,-0.0398407,0.9932404,28.2494,2.963425,-33.00214,4.30101,0.6791314,0.5312399,0.2638075,1.192801,-0.1304796,-0.06075767,0.1190132,-0.0321701,0.4074633,1.399368,31.47
1,-0.1350708,-0.05148315,0.9894867,0.6182828,-0.1402588,-0.05380249,0.9886475,-32.0905,4.586029,-33.41217,3.509277,0.5345894,0.48186,0.8433818,-0.1090088,-0.0398407,0.9932404,28.2494,2.963425,-33.00214,4.30101,0.6791314,0.5312399,0.2638075,1.192801,-0.1304796,-0.06075767,0.1190132,-0.0321701,0.4074633,1.399368,31.47
1,-0.1350708,-0.05148315,0.9894867,0.6182828,-0.1402588,-0.05380249,0.9886475,-32.0905,4.586029,-33.41217,3.509277,0.5345894,0.48186,0.8433818,-0.1090088,-0.0398407,0.9932404,28.2494,2.963425,-33.00214,4.30101,0.6791314,0.5312399,0.2635406,1.192758,-0.1303552,-0.06096468,0.1168004,-0.03304816,0.4074633,15.16864,31.47
1,-0.1350708,-0.05148315,0.9894867,0.6182828,-0.1402588,-0.05380249,0.9886475,-32.0905,4.586029,-33.41217,3.509277,0.5345894,0.48186,0.8433818,-0.1090088,-0.0398407,0.9932404,28.2494,2.963425,-33.00214,4.30101,0.6791314,0.5312399,0.2635406,1.192758,-0.1303552,-0.06096468,0.1168004,-0.03304816,0.4074633,15.16864,31.47
1,-0.1350708,-0.05148315,0.9894867,0.6182828,-0.1402588,-0.05380249,0.9886475,-32.0905,4.586029,-33.41217,3.509277,0.5345894,0.48186,0.8433818,-0.1090088,-0.0398407,0.9932404,28.2494,2.963425,-33.00214,4.30101,0.6791314,0.5312399,0.2630339,1.192882,-0.1301226,-0.06135682,0.1119159,-0.03397548,0.4074633,15.16864,31.47
1,-0.1350708,-0.05148315,0.9894867,0.6182828,-0.1402588,-0.05380249,0.9886475,-32.0905,4.586029,-33.41217,3.509277,0.5345894,0.48186,0.8433818,-0.1090088,-0.0398407,0.9932404,28.2494,2.963425,-33.00214,4.30101,0.6791314,0.5312399,0.2630339,1.192882,-0.1301226,-0.06135682,0.1119159,-0.03397548,0.4074633,15.16864,31.47
1,-0.1186829,-0.04721069,0.991806,0.6197199,-0.1329346,-0.06362915,0.9890747,-32.04973,4.588852,-33.29268,3.402252,0.5318426,0.4823058,0.8419731,-0.1019592,-0.0280304,0.9943848,28.29752,3.01442,-33.02365,4.246902,0.6761333,0.5274454,0.2627293,1.19297,-0.1300201,-0.06140889,0.1091162,-0.03408955,0.4074633,15.16864,31.47
1,-0.0917511,-0.04296875,0.9948425,0.6114011,-0.1235352,-0.05229187,0.9909515,-31.92192,4.635391,-33.40257,3.500488,0.5257795,0.4796617,0.8374254,-0.06965637,-0.03646851,0.9969025,28.44363,3.033127,-33.04109,4.203186,0.6649901,0.5283254,0.2619671,1.193061,-0.1298213,-0.06135232,0.1029348,-0.03393533,0.4074633,15.16864,31.47
1,-0.0917511,-0.04296875,0.9948425,0.6114011,-0.1235352,-0.05229187,0.9909515,-31.92192,4.635391,-33.40257,3.500488,0.5257795,0.4796617,0.8374254,-0.06965637,-0.03646851,0.9969025,28.44363,3.033127,-33.04109,4.203186,0.6649901,0.5283254,0.2619671,1.193061,-0.1298213,-0.06135232,0.1029348,-0.03393533,0.4074633,15.16864,31.47
1,-0.03509521,-0.01531982,0.9992523,0.6114011,-0.0874939,-0.05722046,0.9945068,-31.59091,4.393143,-32.50853,3.559387,0.5076528,0.4804935,0.8374254,-0.03274536,-0.01344299,0.9993591,28.68375,2.996048,-32.88432,4.204926,0.6494324,0.5238767,0.2615305,1.193168,-0.1296988,-0.06122517,0.09966972,-0.03402435,0.4074633,15.16864,31.47
1,-0.03509521,-0.01531982,0.9992523,0.6114011,-0.0874939,-0.05722046,0.9945068,-31.59091,4.393143,-32.50853,3.559387,0.5076528,0.4804935,0.8374254,-0.03274536,-0.01344299,0.9993591,28.68375,2.996048,-32.88432,4.204926,0.6494324,0.5238767,0.2615305,1.193168,-0.1296988,-0.06122517,0.09966972,-0.03402435,0.4074633,15.16864,31.47
2,-0.03509521,-0.01531982,0.9992523,0.6114011,-0.0874939,-0.05722046,0.9945068,-31.59091,4.393143,-32.50853,3.559387,0.5076528,0.4804935,0.8374254,-0.03274536,-0.01344299,0.9993591,28.68375,2.996048,-32.88432,4.204926,0.6494324,0.5238767,0.2600181,1.193115,-0.129354,-0.06074663,0.08891764,-0.03427807,0.4074633,15.16864,31.47
2,-0.03509521,-0.01531982,0.9992523,0.6114011,-0.0874939,-0.05722046,0.9945068,-31.59091,4.393143,-32.50853,3.559387,0.5076528,0.4804935,0.8374254,-0.03274536,-0.01344299,0.9993591,28.68375,2.996048,-32.88432,4.204926,0.6494324,0.5238767,0.2600181,1.193115,-0.129354,-0.06074663,0.08891764,-0.03427807,0.4074633,15.16864,31.47
2,-0.03509521,-0.01531982,0.9992523,0.6114011,-0.0874939,-0.05722046,0.9945068,-31.59091,4.393143,-32.50853,3.559387,0.5076528,0.4804935,0.8374254,-0.03274536,-0.01344299,0.9993591,28.68375,2.996048,-32.88432,4.204926,0.6494324,0.5238767,0.2594186,1.193101,-0.1292275,-0.0605491,0.08492954,-0.03440218,0.4074633,15.16864,31.47
2,0.1272278,-0.06292725,0.9898682,0.5292224,0.1039429,-0.06417847,0.9925079,-30.26299,4.540985,-33.66861,3.517303,0.4281041,0.4867657,0.8125843,0.1464844,-0.06185913,0.9872742,29.99081,2.916275,-32.76385,4.07666,0.5706555,0.5342982,0.2587966,1.193055,-0.1290004,-0.0603451,0.08054171,-0.0346785,0.4074633,15.16864,31.47
2,0.1253357,-0.06385803,0.9900513,0.5449421,0.09326172,-0.07382202,0.9928894,-30.31114,4.69548,-34.26831,3.463455,0.4314629,0.4886649,0.8166937,0.125946,-0.06367493,0.9899902,29.96353,2.993057,-33.09647,4.001709,0.5755056,0.5350356,0.2573947,1.192998,-0.1286643,-0.06017645,0.07072677,-0.03539176,0.4074633,15.16864,31.47
2,0.1253357,-0.06385803,0.9900513,0.5449421,0.09326172,-0.07382202,0.9928894,-30.31114,4.69548,-34.26831,3.463455,0.4314629,0.4886649,0.8166937,0.125946,-0.06367493,0.9899902,29.96353,2.993057,-33.09647,4.001709,0.5755056,0.5350356,0.2573947,1.192998,-0.1286643,-0.06017645,0.07072677,-0.03539176,0.4074633,15.16864,31.47
2,0.1180267,-0.06141663,0.9911041,0.5480287,0.08467102,-0.06550598,0.9942474,-30.35275,4.775085,-34.5775,3.490601,0.4343547,0.4872871,0.8207327,0.118042,-0.06141663,0.9911041,29.95309,3.131897,-33.62633,4.106247,0.5777918,0.5349697,0.2566608,1.193031,-0.128501,-0.060071,0.06597356,-0.0358895,0.4074633,11.32385,31.47
2,0.07727051,-0.06019592,0.9951782,0.5519773,0.06556702,-0.06600952,0.9956512,-30.51492,4.703674,-34.3839,3.548615,0.4434895,0.488117,0.8236167,0.09590149,-0.05093384,0.9940796,29.82671,3.16098,-33.78091,4.060425,0.586385,0.5334684,0.2559705,1.193002,-0.1283138,-0.0600509,0.0611744,-0.03636343,0.4074633,11.32385,31.47
2,0.06578064,-0.06806946,0.9954987,0.552558,0.06143188,-0.06933594,0.995697,-30.57578,4.675537,-34.29424,3.523575,0.4463693,0.4888601,0.8248296,0.1027222,-0.05723572,0.9930573,29.7543,3.040222,-33.41495,4.048904,0.5874193,0.535311,0.2545433,1.193172,-0.1279372,-0.05976473,0.05135883,-0.03636528,0.4074633,11.32385,31.47
2,0.06578064,-0.06806946,0.9954987,0.552558,0.06143188,-0.06933594,0.995697,-30.57578,4.675537,-34.29424,3.523575,0.4463693,0.4888601,0.8248296,0.1027222,-0.05723572,0.9930573,29.7543,3.040222,-33.41495,4.048904,0.5874193,0.535311,0.2545433,1.193172,-0.1279372,-0.05976473,0.05135883,-0.03636528,0.4074633,11.32385,31.47
2,0.05084229,-0.06660461,0.9964752,0.5476934,0.04321289,-0.06890869,0.9966736,-30.64493,4.573853,-33.88979,3.561188,0.4520687,0.4885729,0.829796,0.08905029,-0.05499268,0.9944916,29.68738,2.985336,-33.31743,4.081833,0.5921664,0.5358743,0.2536069,1.193164,-0.127828,-0.05968165,0.04568937,-0.03590465,0.4074633,11.32385,31.47
2,0.06112671,-0.06149292,0.9962311,0.5425609,0.03619385,-0.07159424,0.9967651,-30.69127,4.55452,-33.82211,3.600769,0.4549282,0.4891289,0.8432605,0.07788086,-0.05467224,0.9954529,29.64633,2.887589,-33.09073,4.011887,0.5953609,0.5369687,0.2526351,1.193116,-0.1277233,-0.05944298,0.03944987,-0.0355757,0.4074633,11.32385,31.47
2,0.02261353,-0.05889893,0.9980011,0.5221802,0.0188446,-0.0586853,0.9980927,-30.78792,4.381332,-33.27278,3.56871,0.4613853,0.4877483,0.841984,0.0619812,-0.06108093,0.9962006,29.56682,2.738647,-32.63086,4.025192,0.600556,0.5388447,0.2505368,1.192873,-0.1276036,-0.05835357,0.02644083,-0.03600371,0.4074633,11.32385,31.47
2,0.02261353,-0.05889893,0.9980011,0.5221802,0.0188446,-0.0586853,0.9980927,-30.78792,4.381332,-33.27278,3.56871,0.4613853,0.4877483,0.841984,0.0619812,-0.06108093,0.9962006,29.56682,2.738647,-32.63086,4.025192,0.600556,0.5388447,0.2505368,1.192873,-0.1276036,-0.05835357,0.02644083,-0.03600371,0.4074633,11.32385,31.47
2,0.02766418,-0.0776825,0.996582,0.5326077,0.02561951,-0.08102417,0.9963684,-30.89952,4.406998,-33.20332,3.591629,0.4640924,0.4902371,0.847471,0.05149841,-0.03858948,0.9979248,29.51317,2.705078,-32.47765,4.196304,0.604205,0.5345964,0.249416,1.192719,-0.1274748,-0.05791165,0.01981491,-0.03647411,0.4074633,11.32385,31.47
2,-1.0,-1.0,-1.0,0.5270265,0.0,0.0,0.0,-31.0983,4.70697,-33.63683,-1.0,0.4750696,0.4819747,0.8537071,0.0,0.0,0.0,29.54874,3.176239,-33.55789,-1.0,0.6156235,0.5366457,0.2482702,1.192641,-0.1274241,-0.05719486,0.01287827,-0.03665485,0.4074633,11.32385,31.47
2,-1.0,-1.0,-1.0,0.4621682,0.0,0.0,0.0,-31.17316,5.301971,-35.11961,-1.0,0.4091747,0.537194,0.8137397,0.0,0.0,0.0,29.90544,7.893677,-51.15637,-1.0,0.6357808,0.6183716,0.2457536,1.192561,-0.1272538,-0.05586848,-0.002250866,-0.03654125,0.4074633,11.32385,31.47
2,-1.0,-1.0,-1.0,0.4621682,0.0,0.0,0.0,-31.17316,5.301971,-35.11961,-1.0,0.4091747,0.537194,0.8137397,0.0,0.0,0.0,29.90544,7.893677,-51.15637,-1.0,0.6357808,0.6183716,0.2457536,1.192561,-0.1272538,-0.05586848,-0.002250866,-0.03654125,0.4074633,11.32385,31.47
2,-1.0,-1.0,-1.0,0.4621682,0.0,0.0,0.0,-31.17316,5.301971,-35.11961,-1.0,0.4091747,0.537194,0.8137397,0.0,0.0,0.0,29.90544,7.893677,-51.15637,-1.0,0.6357808,0.6183716,0.2446383,1.192594,-0.1271104,-0.05522478,-0.009798377,-0.03621047,0.4074633,11.32385,31.47
2,-1.0,-1.0,-1.0,0.4621682,0.0,0.0,0.0,-31.17316,5.301971,-35.11961,-1.0,0.4091747,0.537194,0.8137397,0.0,0.0,0.0,29.90544,7.893677,-51.15637,-1.0,0.6357808,0.6183716,0.243457,1.19268,-0.1270355,-0.0550736,-0.01663205,-0.03580637,0.4074633,11.32385,31.47
2,-1.0,-1.0,-1.0,0.4621682,0.0,0.0,0.0,-31.17316,5.301971,-35.11961,-1.0,0.4091747,0.537194,0.8137397,0.0,0.0,0.0,29.90544,7.893677,-51.15637,-1.0,0.6357808,0.6183716,0.2415242,1.193009,-0.1269119,-0.05549408,-0.02819269,-0.03474182,0.4074633,11.32385,31.47
2,-1.0,-1.0,-1.0,0.4621682,0.0,0.0,0.0,-31.17316,5.301971,-35.11961,-1.0,0.4091747,0.537194,0.8137397,0.0,0.0,0.0,29.90544,7.893677,-51.15637,-1.0,0.6357808,0.6183716,0.2406651,1.193199,-0.1268669,-0.05615354,-0.03289903,-0.03406462,0.4074633,-13.85838,31.47
2,-1.0,-1.0,-1.0,0.4621682,0.0,0.0,0.0,-31.17316,5.301971,-35.11961,-1.0,0.4091747,0.537194,0.8137397,0.0,0.0,0.0,29.90544,7.893677,-51.15637,-1.0,0.6357808,0.6183716,0.2406651,1.193199,-0.1268669,-0.05615354,-0.03289903,-0.03406462,0.4074633,-13.85838,31.47
2,-1.0,-1.0,-1.0,0.1910792,0.0,0.0,0.0,-31.17316,5.301971,-35.11961,-1.0,-1.0,-1.0,0.4561911,0.0,0.0,0.0,30.0005,2.923935,-33.13301,-1.0,0.5808388,0.5681663,0.2397895,1.193299,-0.1268044,-0.05680967,-0.03790966,-0.03337033,0.4074633,-13.85838,31.47
2,-1.0,-1.0,-1.0,0.3382573,0.0,0.0,0.0,-30.53355,5.341721,-35.80844,-1.0,0.4260339,0.4644866,0.759965,0.0,0.0,0.0,29.87839,3.637482,-34.39595,-1.0,0.5903693,0.5086642,0.2381898,1.193426,-0.1268898,-0.05754758,-0.04688517,-0.03254588,0.4074633,-13.85838,31.47
2,-1.0,-1.0,-1.0,0.3382573,0.0,0.0,0.0,-30.53355,5.341721,-35.80844,-1.0,0.4260339,0.4644866,0.759965,0.0,0.0,0.0,29.87839,3.637482,-34.39595,-1.0,0.5903693,0.5086642,0.2381898,1.193426,-0.1268898,-0.05754758,-0.04688517,-0.03254588,0.4074633,-13.85838,31.47
2,-1.0,-1.0,-1.0,0.4363356,0.0,0.0,0.0,-30.67935,5.084961,-35.25085,-1.0,0.4452873,0.4774686,0.7717856,0.0,0.0,0.0,29.7487,3.379898,-33.8976,-1.0,0.5907355,0.5266719,0.2375337,1.193413,-0.1269449,-0.05754693,-0.05088019,-0.03254977,0.4074633,-13.85838,31.47
2,-1.0,-1.0,-1.0,0.4986532,0.0,0.0,0.0,-30.83412,4.895782,-34.82016,-1.0,0.4534089,0.4792125,0.8165467,0.0,0.0,0.0,29.59827,3.279221,-33.80905,-1.0,0.5943322,0.528904,0.2375337,1.193413,-0.1269449,-0.05754693,-0.05088019,-0.03254977,0.4074633,-13.85838,31.47
2,-1.0,-1.0,-1.0,0.5303174,0.0,0.0,0.0,-30.98778,4.768524,-34.50661,-1.0,0.4607794,0.4787567,0.8367428,0.0,0.0,0.0,29.40247,3.042465,-33.00072,-1.0,0.6033427,0.5256218,0.2363645,1.1934,-0.1271383,-0.05745325,-0.05664378,-0.0325834,0.4074633,-13.85838,31.47
2,-1.0,-1.0,-1.0,0.5303174,0.0,0.0,0.0,-30.98778,4.768524,-34.50661,-1.0,0.4607794,0.4787567,0.8367428,0.0,0.0,0.0,29.40247,3.042465,-33.00072,-1.0,0.6033427,0.5256218,0.2363645,1.1934,-0.1271383,-0.05745325,-0.05664378,-0.0325834,0.4074633,-13.85838,31.47
2,0.06106567,-0.04692078,0.9970245,0.5303174,0.06106567,-0.04692078,0.9970245,-31.06041,4.772903,-34.55283,3.656769,0.4634744,0.4840537,0.8367428,0.0922699,-0.02731323,0.9953461,29.30653,3.048538,-33.1134,4.307098,0.6051245,0.5268708,0.2356954,1.193568,-0.127177,-0.05773978,-0.05987309,-0.03205014,0.4074633,-13.85838,31.47
2,0.05041504,-0.04974365,0.9974823,0.5469307,0.05041504,-0.04974365,0.9974823,-31.24049,4.574463,-33.89436,3.764297,0.4716856,0.4854594,0.8695005,0.08413696,-0.01142883,0.9963837,29.10341,2.78157,-32.19273,4.365417,0.6127974,0.524526,0.2353774,1.193795,-0.1271517,-0.05844198,-0.06099657,-0.03067051,0.4074633,-13.85838,31.47
2,0.03692627,-0.03877258,0.9985504,0.5488619,0.03686523,-0.03877258,0.9985657,-31.28506,4.487015,-33.58519,3.701355,0.4755959,0.48364,0.8711757,0.07397461,-0.0357666,0.9966125,29.06302,2.761063,-32.17313,4.227005,0.6159581,0.5292614,0.2354025,1.193853,-0.1271282,-0.05889371,-0.06009468,-0.02909758,0.4074633,-13.85838,31.47
2,0.03692627,-0.03877258,0.9985504,0.5488619,0.03686523,-0.03877258,0.9985657,-31.28506,4.487015,-33.58519,3.701355,0.4755959,0.48364,0.8711757,0.07397461,-0.0357666,0.9966125,29.06302,2.761063,-32.17313,4.227005,0.6159581,0.5292614,0.2354025,1.193853,-0.1271282,-0.05889371,-0.06009468,-0.02909758,0.4074633,-13.85838,31.47
2,0.04289246,-0.05726624,0.9974213,0.5566009,0.04104614,-0.05885315,0.9974213,-31.40317,4.523972,-33.76614,3.73584,0.4789981,0.4876553,0.8655396,0.07398987,-0.03051758,0.9967804,28.96051,2.643417,-31.87262,4.258652,0.619249,0.5295706,0.2356727,1.193818,-0.1272329,-0.05891256,-0.05752324,-0.02825552,0.4074633,-13.85838,31.47
2,0.04289246,-0.05726624,0.9974213,0.5566009,0.04104614,-0.05885315,0.9974213,-31.40317,4.523972,-33.76614,3.73584,0.4789981,0.4876553,0.8655396,0.07398987,-0.03051758,0.9967804,28.96051,2.643417,-31.87262,4.258652,0.619249,0.5295706,0.2356727,1.193818,-0.1272329,-0.05891256,-0.05752324,-0.02825552,0.4074633,-13.85838,31.47
2,0.04493713,-0.04870605,0.9977875,0.553476,0.03271484,-0.0574646,0.9978027,-31.44704,4.44693,-33.55806,3.771423,0.4819635,0.4881754,0.8658348,0.06629944,-0.0333252,0.9972382,28.94844,2.656494,-31.90742,4.218338,0.6210556,0.5299061,0.2360073,1.19366,-0.1272973,-0.05867165,-0.05401346,-0.02793277,0.4074633,-13.85838,31.47
2,0.04493713,-0.04870605,0.9977875,0.553476,0.03271484,-0.0574646,0.9978027,-31.44704,4.44693,-33.55806,3.771423,0.4819635,0.4881754,0.8658348,0.06629944,-0.0333252,0.9972382,28.94844,2.656494,-31.90742,4.218338,0.6210556,0.5299061,0.2360073,1.19366,-0.1272973,-0.05867165,-0.05401346,-0.02793277,0.4074633,-13.85838,31.47
2,0.04977417,-0.04022217,0.9979401,0.5573716,0.03334045,-0.05255127,0.9980469,-31.41786,4.455673,-33.58145,3.737823,0.4808376,0.4871973,0.8632073,0.06497192,-0.02879333,0.997467,28.95476,2.651993,-31.88255,4.267227,0.6210556,0.5290358,0.2364042,1.193567,-0.127434,-0.05820041,-0.05076702,-0.02779801,0.4074633,-0.4663582,31.47
2,0.04977417,-0.04022217,0.9979401,0.5573716,0.03334045,-0.05255127,0.9980469,-31.41786,4.455673,-33.58145,3.737823,0.4808376,0.4871973,0.8632073,0.06497192,-0.02879333,0.997467,28.95476,2.651993,-31.88255,4.267227,0.6210556,0.5290358,0.2364042,1.193567,-0.127434,-0.05820041,-0.05076702,-0.02779801,0.4074633,-0.4663582,31.47
2,0.0519104,-0.05511475,0.9971161,0.5549747,0.03819275,-0.06822205,0.996933,-31.34109,4.469254,-33.52225,3.692337,0.4773057,0.4889208,0.8513831,0.07321167,-0.03471375,0.9967041,29.06351,2.638092,-31.75114,4.278442,0.6155975,0.5293193,0.2368755,1.193476,-0.1274893,-0.05804877,-0.04752033,-0.02800709,0.4074633,-0.4663582,31.47
2,0.0519104,-0.05511475,0.9971161,0.5549747,0.03819275,-0.06822205,0.996933,-31.34109,4.469254,-33.52225,3.692337,0.4773057,0.4889208,0.8513831,0.07321167,-0.03471375,0.9967041,29.06351,2.638092,-31.75114,4.278442,0.6155975,0.5293193,0.2368755,1.193476,-0.1274893,-0.05804877,-0.04752033,-0.02800709,0.4074633,-0.4663582,31.47
2,0.0486145,-0.05049133,0.9975281,0.5634526,0.03955078,-0.0605011,0.9973755,-31.26393,4.548523,-33.7094,3.749756,0.4743952,0.4865387,0.8783873,0.07499695,-0.02127075,0.9969482,29.14349,2.693436,-31.88135,4.298431,0.6125969,0.5262672,0.2374046,1.193474,-0.1274985,-0.05809765,-0.04379297,-0.02835108,0.4074633,-0.4663582,31.47
2,0.0486145,-0.05049133,0.9975281,0.5634526,0.03955078,-0.0605011,0.9973755,-31.26393,4.548523,-33.7094,3.749756,0.4743952,0.4865387,0.8783873,0.07499695,-0.02127075,0.9969482,29.14349,2.693436,-31.88135,4.298431,0.6125969,0.5262672,0.2374046,1.193474,-0.1274985,-0.05809765,-0.04379297,-0.02835108,0.4074633,-0.4663582,31.47
2,0.040802,-0.0423584,0.9982605,0.5647835,0.03900146,-0.04364014,0.9982758,-31.15833,4.541946,-33.66321,3.839462,0.4708162,0.483372,0.8793978,0.07017517,-0.02128601,0.9972992,29.24835,2.848541,-32.29814,4.423996,0.6102514,0.5249352,0.2379006,1.193605,-0.1275547,-0.05850608,-0.03999084,-0.02886828,0.4074633,-0.4663582,31.47
2,0.040802,-0.0423584,0.9982605,0.5647835,0.03900146,-0.04364014,0.9982758,-31.15833,4.541946,-33.66321,3.839462,0.4708162,0.483372,0.8793978,0.07017517,-0.02128601,0.9972992,29.24835,2.848541,-32.29814,4.423996,0.6102514,0.5249352,0.2379006,1.193605,-0.1275547,-0.05850608,-0.03999084,-0.02886828,0.4074633,-0.4663582,31.47
2,0.04342651,-0.03987122,0.9982452,0.5678696,0.03720093,-0.0388031,0.9985504,-31.10045,4.616119,-33.88054,3.943756,0.4691152,0.4820002,0.8748306,0.07244873,-0.04486084,0.9963531,29.29932,2.866669,-32.33765,4.269592,0.6080315,0.5287771,0.2381494,1.193544,-0.1276531,-0.05910964,-0.0366644,-0.028467,0.4074633,-0.4663582,31.47
2,0.04342651,-0.03987122,0.9982452,0.5678696,0.03720093,-0.0388031,0.9985504,-31.10045,4.616119,-33.88054,3.943756,0.4691152,0.4820002,0.8748306,0.07244873,-0.04486084,0.9963531,29.29932,2.866669,-32.33765,4.269592,0.6080315,0.5287771,0.2381494,1.193544,-0.1276531,-0.05910964,-0.0366644,-0.028467,0.4074633,-0.4663582,31.47
2,0.0504303,-0.05209351,0.9973602,0.5658554,0.04335022,-0.05284119,0.9976501,-31.00943,4.64032,-33.96774,3.898773,0.4648444,0.4844066,0.8849738,0.07933044,-0.04899597,0.995636,29.40398,2.953705,-32.73831,4.168121,0.603479,0.5302867,0.2385834,1.193705,-0.1277406,-0.05967578,-0.0335811,-0.02877081,0.4074633,-0.4663582,31.47
2,0.0504303,-0.05209351,0.9973602,0.5658554,0.04335022,-0.05284119,0.9976501,-31.00943,4.64032,-33.96774,3.898773,0.4648444,0.4844066,0.8849738,0.07933044,-0.04899597,0.995636,29.40398,2.953705,-32.73831,4.168121,0.603479,0.5302867,0.2385834,1.193705,-0.1277406,-0.05967578,-0.0335811,-0.02877081,0.4074633,-0.4663582,31.47
2,0.05714417,-0.04312134,0.9974213,0.5586199,0.04859924,-0.04347229,0.9978638,-30.96609,4.599289,-33.85735,3.881073,0.4624192,0.4831276,0.8821563,0.08625793,-0.04188538,0.9953766,29.45493,2.981873,-32.87538,4.264862,0.6006162,0.5294421,0.2389829,1.193739,-0.1278587,-0.06001715,-0.03073022,-0.02914542,0.4074633,-0.4663582,31.47
2,0.05714417,-0.04312134,0.9974213,0.5586199,0.04859924,-0.04347229,0.9978638,-30.96609,4.599289,-33.85735,3.881073,0.4624192,0.4831276,0.8821563,0.08625793,-0.04188538,0.9953766,29.45493,2.981873,-32.87538,4.264862,0.6006162,0.5294421,0.2389829,1.193739,-0.1278587,-0.06001715,-0.03073022,-0.02914542,0.4074633,-0.4663582,31.47
2,0.05429077,-0.0411377,0.9976654,0.5634819,0.05410767,-0.04115295,0.9976807,-30.92264,4.568466,-33.82736,3.879211,0.4599381,0.4835034,0.8671421,0.08476257,-0.03851318,0.9956512,29.52539,3.010864,-33.08977,4.347977,0.5986159,0.5299516,0.2394677,1.193717,-0.1279831,-0.06015318,-0.02804032,-0.02888221,0.4074633,6.449799,31.47
2,0.05429077,-0.0411377,0.9976654,0.5634819,0.05410767,-0.04115295,0.9976807,-30.92264,4.568466,-33.82736,3.879211,0.4599381,0.4835034,0.8671421,0.08476257,-0.03851318,0.9956512,29.52539,3.010864,-33.08977,4.347977,0.5986159,0.5299516,0.2394677,1.193717,-0.1279831,-0.06015318,-0.02804032,-0.02888221,0.4074633,6.449799,31.47
2,0.06611633,-0.05548096,0.9962616,0.5911,0.05891418,-0.05664063,0.9966431,-30.85699,4.651154,-34.13664,3.809235,0.4567544,0.4862047,0.8904579,0.09835815,-0.05024719,0.993866,29.57146,2.990524,-33.09872,4.299042,0.5945522,0.5328769,0.2397619,1.193741,-0.1280829,-0.06039558,-0.02593298,-0.02864572,0.4074633,6.449799,31.47
2,0.06611633,-0.05548096,0.9962616,0.5911,0.05891418,-0.05664063,0.9966431,-30.85699,4.651154,-34.13664,3.809235,0.4567544,0.4862047,0.8904579,0.09835815,-0.05024719,0.993866,29.57146,2.990524,-33.09872,4.299042,0.5945522,0.5328769,0.2397619,1.193741,-0.1280829,-0.06039558,-0.02593298,-0.02864572,0.4074633,6.449799,31.47
2,0.08294678,-0.04499817,0.9955292,0.5913833,0.05743408,-0.0375824,0.9976349,-30.81075,4.60817,-34.04678,3.965775,0.455419,0.4835466,0.8925517,0.1000824,-0.04997253,0.9937134,29.6124,3.025452,-33.23865,4.348221,0.5929443,0.5330032,0.2400136,1.193788,-0.1282218,-0.06096077,-0.02468085,-0.0286184,0.4074633,6.449799,31.47
2,0.08294678,-0.04499817,0.9955292,0.5913833,0.05743408,-0.0375824,0.9976349,-30.81075,4.60817,-34.04678,3.965775,0.455419,0.4835466,0.8925517,0.1000824,-0.04997253,0.9937134,29.6124,3.025452,-33.23865,4.348221,0.5929443,0.5330032,0.2400136,1.193788,-0.1282218,-0.06096077,-0.02468085,-0.0286184,0.4074633,6.449799,31.47
2,0.06933594,-0.05680847,0.9959717,0.5893483,0.0652771,-0.05596924,0.9962921,-30.76112,4.661804,-34.20392,3.935287,0.4522805,0.4863818,0.8829435,0.1033936,-0.06381226,0.9925842,29.68451,3.133606,-33.59363,4.236496,0.5900801,0.5351002,0.240121,1.193892,-0.1284229,-0.06151302,-0.02412426,-0.02887318,0.4074633,6.449799,31.47
2,0.06933594,-0.05680847,0.9959717,0.5893483,0.0652771,-0.05596924,0.9962921,-30.76112,4.661804,-34.20392,3.935287,0.4522805,0.4863818,0.8829435,0.1033936,-0.06381226,0.9925842,29.68451,3.133606,-33.59363,4.236496,0.5900801,0.5351002,0.240121,1.193892,-0.1284229,-0.06151302,-0.02412426,-0.02887318,0.4074633,6.449799,31.47
2,-0.002059937,-0.01599121,0.9998627,0.5715922,-0.006317139,-0.01889038,0.9997864,-31.33566,4.680313,-33.30676,4.074829,0.484898,0.4711429,0.8744071,0.03599548,0.01000977,0.9992981,28.89194,2.986221,-32.21849,4.621887,0.628987,0.5139,0.2401716,1.194017,-0.1286235,-0.06228494,-0.02366811,-0.02930374,0.4074633,6.449799,31.47
2,-0.002059937,-0.01599121,0.9998627,0.5715922,-0.006317139,-0.01889038,0.9997864,-31.33566,4.680313,-33.30676,4.074829,0.484898,0.4711429,0.8744071,0.03599548,0.01000977,0.9992981,28.89194,2.986221,-32.21849,4.621887,0.628987,0.5139,0.2401716,1.194017,-0.1286235,-0.06228494,-0.02366811,-0.02930374,0.4074633,6.449799,31.47
2,-0.01594543,0.03419495,0.9992828,0.5996038,0.0,0.0,0.0,-31.85493,4.935333,-33.69569,-1.0,0.5133882,0.4610124,0.8715382,-0.01594543,0.03419495,0.9992828,28.2961,3.315903,-32.98201,4.515564,0.6607514,0.5051812,0.240316,1.194142,-0.1287168,-0.06300034,-0.02291153,-0.02965279,0.4074633,6.449799,31.47
2,-0.01594543,0.03419495,0.9992828,0.5996038,0.0,0.0,0.0,-31.85493,4.935333,-33.69569,-1.0,0.5133882,0.4610124,0.8715382,-0.01594543,0.03419495,0.9992828,28.2961,3.315903,-32.98201,4.515564,0.6607514,0.5051812,0.240316,1.194142,-0.1287168,-0.06300034,-0.02291153,-0.02965279,0.4074633,6.449799,31.47
2,-0.1887054,0.07319641,0.9792938,0.6477926,0.0,0.0,0.0,-32.67293,4.98584,-33.96884,-1.0,0.5675302,0.4617362,0.8976308,-0.1887054,0.07319641,0.9792938,27.34761,3.233032,-32.9671,5.021469,0.7277009,0.5017633,0.2404341,1.19421,-0.1288936,-0.06353734,-0.02211124,-0.02959645,0.4074633,6.449799,31.47
2,-0.1887054,0.07319641,0.9792938,0.6477926,0.0,0.0,0.0,-32.67293,4.98584,-33.96884,-1.0,0.5675302,0.4617362,0.8976308,-0.1887054,0.07319641,0.9792938,27.34761,3.233032,-32.9671,5.021469,0.7277009,0.5017633,0.2404341,1.19421,-0.1288936,-0.06353734,-0.02211124,-0.02959645,0.4074633,6.449799,31.47
2,-0.266449,0.05606079,0.962204,0.6878856,-0.296814,0.02307129,0.9546509,-33.06435,4.921646,-34.0817,4.270294,0.5970511,0.4645855,0.9225206,-0.2653046,0.05729675,0.9624481,26.94974,3.120193,-33.06738,4.917984,0.7576269,0.509989,0.2405627,1.19421,-0.1289995,-0.06379877,-0.02159782,-0.02931823,0.4074633,6.449799,31.47
2,-0.266449,0.05606079,0.962204,0.6878856,-0.296814,0.02307129,0.9546509,-33.06435,4.921646,-34.0817,4.270294,0.5970511,0.4645855,0.9225206,-0.2653046,0.05729675,0.9624481,26.94974,3.120193,-33.06738,4.917984,0.7576269,0.509989,0.2405627,1.19421,-0.1289995,-0.06379877,-0.02159782,-0.02931823,0.4074633,6.449799,31.47
2,-0.2574615,0.0642395,0.9641418,0.7131369,-0.2961273,0.005020142,0.9551239,-33.06645,4.898911,-34.07497,4.06781,0.5970261,0.4684117,0.9451942,-0.2565002,0.06567383,0.9642944,27.01001,3.090256,-33.06325,4.948853,0.7536288,0.5094944,0.2407577,1.194282,-0.1291214,-0.06396834,-0.02106482,-0.0290512,0.4074633,6.147568,31.47
2,-0.2574615,0.0642395,0.9641418,0.7131369,-0.2961273,0.005020142,0.9551239,-33.06645,4.898911,-34.07497,4.06781,0.5970261,0.4684117,0.9451942,-0.2565002,0.06567383,0.9642944,27.01001,3.090256,-33.06325,4.948853,0.7536288,0.5094944,0.2407577,1.194282,-0.1291214,-0.06396834,-0.02106482,-0.0290512,0.4074633,6.147568,31.47
2,-0.266922,0.03248596,0.9631653,0.7200434,-0.2876587,-0.006546021,0.9577026,-33.06631,4.886658,-34.06552,4.079391,0.5954342,0.4707086,0.9449992,-0.2520599,0.05986023,0.9658508,27.06018,3.107681,-33.04622,4.993683,0.7507961,0.5097631,0.2407986,1.194321,-0.1291595,-0.06412492,-0.02086653,-0.02927143,0.4074633,6.147568,31.47
2,-0.266922,0.03248596,0.9631653,0.7200434,-0.2876587,-0.006546021,0.9577026,-33.06631,4.886658,-34.06552,4.079391,0.5954342,0.4707086,0.9449992,-0.2520599,0.05986023,0.9658508,27.06018,3.107681,-33.04622,4.993683,0.7507961,0.5097631,0.2407986,1.194321,-0.1291595,-0.06412492,-0.02086653,-0.02927143,0.4074633,6.147568,31.47
2,-0.2694397,0.03034973,0.9625244,0.7200434,-0.2862244,-0.003570557,0.9581451,-33.06667,4.888306,-34.06564,4.102798,0.5951896,0.4701259,0.9449992,-0.2540588,0.06069946,0.965271,27.07249,3.119431,-33.04408,4.904724,0.7506667,0.5091282,0.2408715,1.194368,-0.1291535,-0.06447312,-0.02060025,-0.02935302,0.4074633,6.147568,31.47
2,-0.2694397,0.03034973,0.9625244,0.7200434,-0.2862244,-0.003570557,0.9581451,-33.06667,4.888306,-34.06564,4.102798,0.5951896,0.4701259,0.9449992,-0.2540588,0.06069946,0.965271,27.07249,3.119431,-33.04408,4.904724,0.7506667,0.5091282,0.2410227,1.194458,-0.1291189,-0.06501479,-0.02008196,-0.02956119,0.4074633,6.147568,31.47
2,-0.2694397,0.03034973,0.9625244,0.7200434,-0.2862244,-0.003570557,0.9581451,-33.06667,4.888306,-34.06564,4.102798,0.5951896,0.4701259,0.9449992,-0.2540588,0.06069946,0.965271,27.07249,3.119431,-33.04408,4.904724,0.7506667,0.5091282,0.2411103,1.19446,-0.129089,-0.0650645,-0.01979723,-0.02972356,0.4074633,6.147568,31.47
2,-0.2694397,0.03034973,0.9625244,0.7200434,-0.2862244,-0.003570557,0.9581451,-33.06667,4.888306,-34.06564,4.102798,0.5951896,0.4701259,0.9449992,-0.2540588,0.06069946,0.965271,27.07249,3.119431,-33.04408,4.904724,0.7506667,0.5091282,0.2411103,1.19446,-0.129089,-0.0650645,-0.01979723,-0.02972356,0.4074633,6.147568,31.47
2,-0.2694397,0.03034973,0.9625244,0.7200434,-0.2862244,-0.003570557,0.9581451,-33.06667,4.888306,-34.06564,4.102798,0.5951896,0.4701259,0.9449992,-0.2540588,0.06069946,0.965271,27.07249,3.119431,-33.04408,4.904724,0.7506667,0.5091282,0.2411901,1.194437,-0.1291047,-0.06493762,-0.01946897,-0.02985287,0.4074633,6.147568,31.47
2,-0.2705383,0.0284729,0.9622803,0.7186521,-0.2856445,0.0004272461,0.9583282,-33.06819,4.885025,-34.0654,4.103973,0.5951501,0.4695151,0.9522476,-0.2540436,0.05848694,0.9654083,27.08257,3.129517,-33.0405,4.904541,0.7502592,0.5091282,0.2414289,1.194311,-0.1291307,-0.06451067,-0.0186955,-0.03014717,0.4074633,6.147568,31.47
2,-0.259079,0.03640747,0.9651642,0.7143858,-0.2726593,0.01335144,0.9620056,-33.0486,4.85051,-34.06493,4.097763,0.5921615,0.4682706,0.9562614,-0.2442932,0.06111145,0.9677582,27.12788,3.072968,-33.04044,5.00502,0.7466875,0.5107083,0.2416081,1.194289,-0.1291678,-0.06416859,-0.01820526,-0.03019902,0.4074633,6.147568,31.47
2,-0.259079,0.03640747,0.9651642,0.7143858,-0.2726593,0.01335144,0.9620056,-33.0486,4.85051,-34.06493,4.097763,0.5921615,0.4682706,0.9562614,-0.2442932,0.06111145,0.9677582,27.12788,3.072968,-33.04044,5.00502,0.7466875,0.5107083,0.2416081,1.194289,-0.1291678,-0.06416859,-0.01820526,-0.03019902,0.4074633,6.147568,31.47
2,-0.2561646,0.0333252,0.9660492,0.7140733,-0.272934,0.009399414,0.9619751,-33.047,4.845306,-34.06682,4.056213,0.5921615,0.4691548,0.9445993,-0.2381744,0.05860901,0.9694519,27.1324,3.06572,-33.03615,4.994446,0.7453084,0.5113236,0.2417763,1.194239,-0.1291212,-0.06384476,-0.01761454,-0.03020494,0.4074633,6.147568,31.47
2,-0.2547607,0.03387451,0.9664001,0.7116286,-0.2704926,0.008392334,0.962677,-33.04404,4.842484,-34.06581,4.034485,0.5916218,0.4693857,0.9471477,-0.2379761,0.06063843,0.9693604,27.13983,3.062317,-33.03406,5.026566,0.7450095,0.5110828,0.241891,1.194167,-0.1291285,-0.06362112,-0.01703176,-0.03019631,0.4074633,6.147568,31.47
2,-0.2528992,0.03570557,0.9668274,0.72525,-0.2706451,0.008361816,0.9626312,-33.0401,4.842422,-34.06509,4.034775,0.5915084,0.4693857,0.9434994,-0.2342377,0.06401062,0.9700623,27.18304,3.066772,-33.02922,4.991638,0.7426257,0.5102357,0.2420634,1.194061,-0.1290888,-0.0632707,-0.01599773,-0.03024857,0.4074633,6.147568,31.47
2,-0.2528992,0.03570557,0.9668274,0.72525,-0.2706451,0.008361816,0.9626312,-33.0401,4.842422,-34.06509,4.034775,0.5915084,0.4693857,0.9434994,-0.2342377,0.06401062,0.9700623,27.18304,3.066772,-33.02922,4.991638,0.7426257,0.5102357,0.2420634,1.194061,-0.1290888,-0.0632707,-0.01599773,-0.03024857,0.4074633,6.147568,31.47
2,-0.2505951,0.03140259,0.9675751,0.714272,-0.2707367,0.007507324,0.962616,-33.03786,4.843445,-34.06442,4.032928,0.5914445,0.4694933,0.9428368,-0.2295227,0.05607605,0.9716797,27.19814,3.069427,-33.01683,4.982361,0.7410811,0.5113999,0.2421869,1.19402,-0.1290233,-0.06318869,-0.01557581,-0.03025645,0.4074633,-19.22332,31.47
2,-0.2363586,0.03048706,0.9711761,0.7228243,-0.253006,0.007232666,0.9674225,-32.97984,4.84819,-34.04053,4.067413,0.5861678,0.4689962,0.9495845,-0.2185211,0.05509949,0.9742584,27.23889,3.075333,-33.0038,4.88443,0.737357,0.5110943,0.2424049,1.193971,-0.1289022,-0.06302671,-0.01444098,-0.03044547,0.4074633,-19.22332,31.47
2,-0.2363586,0.03048706,0.9711761,0.7228243,-0.253006,0.007232666,0.9674225,-32.97984,4.84819,-34.04053,4.067413,0.5861678,0.4689962,0.9495845,-0.2185211,0.05509949,0.9742584,27.23889,3.075333,-33.0038,4.88443,0.737357,0.5110943,0.2424049,1.193971,-0.1289022,-0.06302671,-0.01444098,-0.03044547,0.4074633,-19.22332,31.47
2,-0.2332001,0.02128601,0.9721832,0.7211505,-0.245224,0.00541687,0.9694366,-32.95949,4.854782,-34.03145,3.988388,0.5840767,0.4688691,0.9480069,-0.2206116,0.03773499,0.9746246,27.26964,3.082886,-32.98958,4.896606,0.7364976,0.51384,0.242485,1.19395,-0.1288515,-0.06293894,-0.01381338,-0.03070912,0.4074633,-19.22332,31.47
2,-0.2301483,0.02084351,0.9729309,0.7150726,-0.2452545,0.004608154,0.9694366,-32.93518,4.858582,-34.02843,4.066589,0.5831832,0.4688962,0.9392626,-0.2135468,0.03851318,0.9761658,27.31506,3.097595,-32.98019,4.8349,0.7333943,0.5129874,0.2426701,1.193969,-0.1287473,-0.06286266,-0.01274744,-0.03131312,0.4074633,-19.22332,31.47
2,-0.2301483,0.02084351,0.9729309,0.7150726,-0.2452545,0.004608154,0.9694366,-32.93518,4.858582,-34.02843,4.066589,0.5831832,0.4688962,0.9392626,-0.2135468,0.03851318,0.9761658,27.31506,3.097595,-32.98019,4.8349,0.7333943,0.5129874,0.2426701,1.193969,-0.1287473,-0.06286266,-0.01274744,-0.03131312,0.4074633,-19.22332,31.47
3,-0.2307739,0.02914429,0.9725647,0.7153269,-0.243988,0.006072998,0.9697571,-32.90057,4.864868,-34.02567,4.152069,0.5817006,0.4684363,0.9393908,-0.2163544,0.05403137,0.9748077,27.36618,3.115189,-32.97691,4.94635,0.7320968,0.5096661,0.2427554,1.193955,-0.128727,-0.06274224,-0.0121728,-0.03143589,0.4074633,-19.22332,31.47
3,-0.2228699,0.01548767,0.9747162,0.7172981,-0.2319641,-0.004501343,0.972702,-32.87088,4.86145,-34.0118,4.00296,0.5785252,0.4701016,0.9435161,-0.2130585,0.0368042,0.9763336,27.40286,3.118149,-32.96692,4.70665,0.7299087,0.5123681,0.2428652,1.193987,-0.1287092,-0.06261386,-0.01139381,-0.03132144,0.4074633,-19.22332,31.47
3,-0.2132721,0.02424622,0.9766846,0.7006122,-0.2248077,-0.007614136,0.9743652,-32.85008,4.86499,-34.00293,4.019363,0.5764932,0.4703844,0.9391112,-0.2008667,0.05780029,0.9779053,27.43983,3.122864,-32.98749,4.889816,0.726407,0.5086932,0.2429467,1.193986,-0.128623,-0.06267297,-0.01103572,-0.03113128,0.4074633,-19.22332,31.47
3,-0.2132721,0.02424622,0.9766846,0.7006122,-0.2248077,-0.007614136,0.9743652,-32.85008,4.86499,-34.00293,4.019363,0.5764932,0.4703844,0.9391112,-0.2008667,0.05780029,0.9779053,27.43983,3.122864,-32.98749,4.889816,0.726407,0.5086932,0.2429467,1.193986,-0.128623,-0.06267297,-0.01103572,-0.03113128,0.4074633,-19.22332,31.47
3,-0.2117004,0.01333618,0.9772339,0.7072164,-0.2205963,-0.01960754,0.9751587,-32.84171,4.859482,-33.99356,3.862274,0.5754736,0.4725045,0.9252812,-0.2021637,0.0476532,0.9781799,27.45781,3.121063,-32.98996,4.839828,0.7259266,0.5105792,0.2429899,1.194001,-0.1286032,-0.06272276,-0.01054902,-0.03113678,0.4074633,-19.22332,31.47
3,-0.2023315,0.007644653,0.9792786,0.7109293,-0.2110138,-0.01829529,0.9772949,-32.81464,4.86322,-33.98747,3.896744,0.5727983,0.4720113,0.9339407,-0.1927795,0.03569031,0.9805908,27.49254,3.144379,-33.05453,4.806549,0.7229452,0.5124381,0.2430564,1.194043,-0.1285374,-0.06286491,-0.01011638,-0.03133762,0.4074633,-19.22332,31.47
3,-0.2015991,0.01753235,0.9793091,0.7040995,-0.2113647,-0.001815796,0.9774017,-32.78603,4.868225,-33.99753,4.059006,0.571839,0.4690991,0.9239613,-0.1865234,0.04704285,0.981308,27.52469,3.164886,-33.10773,4.856964,0.720739,0.5101863,0.243163,1.194039,-0.128498,-0.06303322,-0.009416046,-0.03163529,0.4074633,-19.22332,31.47
3,-0.2015991,0.01753235,0.9793091,0.7040995,-0.2113647,-0.001815796,0.9774017,-32.78603,4.868225,-33.99753,4.059006,0.571839,0.4690991,0.9239613,-0.1865234,0.04704285,0.981308,27.52469,3.164886,-33.10773,4.856964,0.720739,0.5101863,0.243163,1.194039,-0.128498,-0.06303322,-0.009416046,-0.03163529,0.4074633,-19.22332,31.47
3,-0.1947479,0.02098083,0.9806213,0.7115321,-0.2021942,0.008850098,0.9792938,-32.75558,4.887924,-34.03685,4.076477,0.5691944,0.4668192,0.9378245,-0.1789703,0.04646301,0.9827423,27.54463,3.181976,-33.16875,4.799255,0.7186792,0.5101885,0.243292,1.193967,-0.1285003,-0.06300567,-0.009022475,-0.03164354,0.4074633,-19.22332,31.47
3,-0.1947479,0.02098083,0.9806213,0.7115321,-0.2021942,0.008850098,0.9792938,-32.75558,4.887924,-34.03685,4.076477,0.5691944,0.4668192,0.9378245,-0.1789703,0.04646301,0.9827423,27.54463,3.181976,-33.16875,4.799255,0.7186792,0.5101885,0.243292,1.193967,-0.1285003,-0.06300567,-0.009022475,-0.03164354,0.4074633,-19.22332,31.47
3,-0.1167755,-0.02432251,0.9928589,0.705929,-0.1209564,-0.02728271,0.9922791,-32.17737,4.655334,-33.66176,3.979599,0.5342844,0.4772102,0.9140455,-0.08241272,-0.0001220703,0.996582,28.01231,2.861877,-32.58763,4.60054,0.6823614,0.5237505,0.2434074,1.193866,-0.1285012,-0.06286313,-0.008419313,-0.03161621,0.4074633,-19.22332,31.47
3,-0.02342224,-0.01852417,0.9995422,0.7140102,-0.07789612,-0.05152893,0.9956207,-31.65228,4.000076,-32.09367,3.996002,0.5078895,0.4893849,0.933287,-0.02302551,-0.01828003,0.9995575,28.38472,2.298416,-31.35722,4.505295,0.6562494,0.5346431,0.2434535,1.193768,-0.1285058,-0.06261577,-0.007733903,-0.03146716,0.4074633,6.365105,31.47
3,-0.02342224,-0.01852417,0.9995422,0.7140102,-0.07789612,-0.05152893,0.9956207,-31.65228,4.000076,-32.09367,3.996002,0.5078895,0.4893849,0.933287,-0.02302551,-0.01828003,0.9995575,28.38472,2.298416,-31.35722,4.505295,0.6562494,0.5346431,0.2434535,1.193768,-0.1285058,-0.06261577,-0.007733903,-0.03146716,0.4074633,6.365105,31.47
3,-0.01620483,-0.02957153,0.9994202,0.7201919,-0.06236267,-0.07315063,0.9953613,-31.57416,4.024933,-32.27238,3.959213,0.5025559,0.493867,0.919943,-0.01257324,-0.02615356,0.9995728,28.48752,2.21434,-31.24123,4.632355,0.6505538,0.5379427,0.2434779,1.193763,-0.128529,-0.06232571,-0.007540745,-0.03119655,0.4074633,6.365105,31.47
3,-0.0118866,-0.04563904,0.9988861,0.722132,-0.06314087,-0.07684326,0.9950256,-31.56088,4.019318,-32.22926,4.05127,0.5022024,0.4943554,0.9121964,-0.007797241,-0.0431366,0.9990234,28.567,2.500626,-32.03427,4.573486,0.648035,0.5386074,0.2434757,1.193745,-0.128537,-0.06220773,-0.007354673,-0.03123617,0.4074633,6.365105,31.47
3,-0.04989624,-0.06794739,0.9964294,0.7237343,-0.05912781,-0.07931519,0.9950867,-31.52277,3.971497,-32.04189,4.062225,0.5001493,0.4946853,0.9182782,-0.01567078,-0.02577209,0.9995422,28.60789,2.176285,-31.06349,4.71521,0.6466116,0.5375276,0.2434262,1.19375,-0.128593,-0.0620582,-0.007139809,-0.03101091,0.4074633,6.365105,31.47
3,-0.05097961,-0.07356262,0.9959717,0.7237343,-0.05099487,-0.07359314,0.9959717,-31.53175,4.048096,-32.31029,3.959274,0.4991483,0.4934383,0.9182782,-0.02116394,-0.03036499,0.9993134,28.62372,2.182144,-31.07387,4.674988,0.6469727,0.538215,0.2433711,1.193755,-0.1286551,-0.06219252,-0.007060056,-0.03070621,0.4074633,6.365105,31.47
3,-0.05097961,-0.07356262,0.9959717,0.7237343,-0.05099487,-0.07359314,0.9959717,-31.53175,4.048096,-32.31029,3.959274,0.4991483,0.4934383,0.9182782,-0.02116394,-0.03036499,0.9993134,28.62372,2.182144,-31.07387,4.674988,0.6469727,0.538215,0.2433711,1.193755,-0.1286551,-0.06219252,-0.007060056,-0.03070621,0.4074633,6.365105,31.47
3,-0.04888916,-0.07414246,0.9960327,0.7333148,-0.04890442,-0.07415771,0.9960327,-31.52634,4.051804,-32.31029,3.983673,0.4985963,0.4934383,0.9200792,-0.0141449,-0.02600098,0.9995575,28.65968,2.209824,-31.11568,4.654449,0.6445223,0.5368508,0.2433711,1.193755,-0.1286551,-0.06219252,-0.007060056,-0.03070621,0.4074633,6.365105,31.47
3,-0.04942322,-0.07423401,0.9960022,0.7265552,-0.04943848,-0.07424927,0.9960022,-31.52271,4.049957,-32.29515,4.014267,0.4985552,0.4933899,0.921119,-0.009185791,-0.03341675,0.9993896,28.67691,2.205704,-31.07832,4.468567,0.6429337,0.5377989,0.2433286,1.193841,-0.1286167,-0.06251717,-0.006988992,-0.03063114,0.4074633,6.365105,31.47
3,-0.04808044,-0.07556152,0.9959717,0.7317654,-0.04808044,-0.07556152,0.9959717,-31.51581,4.046753,-32.25752,4.04068,0.4980746,0.4933899,0.921962,-0.007583618,-0.03385925,0.9993896,28.71507,2.216782,-31.10936,4.579086,0.6413768,0.5378673,0.243313,1.193908,-0.1285747,-0.06278106,-0.00695158,-0.03079633,0.4074633,6.365105,31.47
3,-0.0440979,-0.07598877,0.9961243,0.7249908,-0.04589844,-0.07774353,0.9959106,-31.50868,4.042252,-32.22711,4.040878,0.4974451,0.4936406,0.9133678,0.0004882813,-0.0322876,0.9994659,28.75369,2.223358,-31.16643,4.6577,0.6386976,0.5379674,0.2432518,1.193933,-0.1285689,-0.06299549,-0.006886973,-0.03067076,0.4074633,6.365105,31.47
3,-0.0440979,-0.07598877,0.9961243,0.7249908,-0.04589844,-0.07774353,0.9959106,-31.50868,4.042252,-32.22711,4.040878,0.4974451,0.4936406,0.9133678,0.0004882813,-0.0322876,0.9994659,28.75369,2.223358,-31.16643,4.6577,0.6386976,0.5379674,0.2432518,1.193933,-0.1285689,-0.06299549,-0.006886973,-0.03067076,0.4074633,6.365105,31.47
3,-0.01603699,-0.05410767,0.9983978,0.7231038,-0.03683472,-0.08033752,0.9960785,-31.45242,3.985397,-32.05783,4.045944,0.4939128,0.4944527,0.9196417,3.051758e-05,-0.03378296,0.9994202,28.782,2.221054,-31.18661,4.576111,0.6377774,0.5384472,0.2433041,1.193957,-0.1285481,-0.06301466,-0.006869642,-0.03037785,0.4074633,4.746201,31.47
3,-0.01603699,-0.05410767,0.9983978,0.7231038,-0.03683472,-0.08033752,0.9960785,-31.45242,3.985397,-32.05783,4.045944,0.4939128,0.4944527,0.9196417,3.051758e-05,-0.03378296,0.9994202,28.782,2.221054,-31.18661,4.576111,0.6377774,0.5384472,0.2433041,1.193957,-0.1285481,-0.06301466,-0.006869642,-0.03037785,0.4074633,4.746201,31.47
3,-0.00692749,-0.04896545,0.998764,0.7319938,-0.02996826,-0.07147217,0.9969788,-31.4155,3.968033,-32.02144,4.138397,0.4914606,0.4931603,0.9188009,0.01197815,-0.0304718,0.9994507,28.84552,2.171021,-31.04417,4.679153,0.6332955,0.5382875,0.2432934,1.193973,-0.1285522,-0.06285281,-0.00691181,-0.03037123,0.4074633,4.746201,31.47
3,-0.00692749,-0.04896545,0.998764,0.7319938,-0.02996826,-0.07147217,0.9969788,-31.4155,3.968033,-32.02144,4.138397,0.4914606,0.4931603,0.9188009,0.01197815,-0.0304718,0.9994507,28.84552,2.171021,-31.04417,4.679153,0.6332955,0.5382875,0.2432934,1.193973,-0.1285522,-0.06285281,-0.00691181,-0.03037123,0.4074633,4.746201,31.47
3,-0.02227783,-0.07203674,0.9971466,0.7286763,-0.02578735,-0.07543945,0.9968109,-31.39201,4.01416,-32.18484,4.129944,0.4899585,0.4937731,0.9261386,0.01483154,-0.03611755,0.9992371,28.9037,2.128052,-30.90259,4.535614,0.6304879,0.5392878,0.2432187,1.193964,-0.1285401,-0.06271446,-0.00679878,-0.0305083,0.4074633,4.746201,31.47
3,-0.02227783,-0.07203674,0.9971466,0.7286763,-0.02578735,-0.07543945,0.9968109,-31.39201,4.01416,-32.18484,4.129944,0.4899585,0.4937731,0.9261386,0.01483154,-0.03611755,0.9992371,28.9037,2.128052,-30.90259,4.535614,0.6304879,0.5392878,0.2432187,1.193964,-0.1285401,-0.06271446,-0.00679878,-0.0305083,0.4074633,4.746201,31.47
3,-0.01399231,-0.07048035,0.997406,0.7183661,-0.01533508,-0.07139587,0.9973145,-31.37236,4.047836,-32.30963,4.100174,0.4875121,0.4930339,0.923758,0.02215576,-0.045578,0.998703,28.94547,2.317719,-31.396,4.545914,0.6283745,0.5391489,0.2432127,1.193953,-0.1285346,-0.06263718,-0.006643586,-0.03038987,0.4074633,4.746201,31.47
3,-0.01399231,-0.07048035,0.997406,0.7183661,-0.01533508,-0.07139587,0.9973145,-31.37236,4.047836,-32.30963,4.100174,0.4875121,0.4930339,0.923758,0.02215576,-0.045578,0.998703,28.94547,2.317719,-31.396,4.545914,0.6283745,0.5391489,0.2432127,1.193953,-0.1285346,-0.06263718,-0.006643586,-0.03038987,0.4074633,4.746201,31.47
3,-0.01409912,-0.07167053,0.9973145,0.714121,-0.01426697,-0.07177734,0.9973145,-31.35001,4.056915,-32.31007,4.134796,0.4865561,0.4928069,0.9269893,0.02973938,-0.04267883,0.998642,28.9911,2.369217,-31.51025,4.527969,0.6255817,0.5379309,0.2431483,1.193881,-0.1285696,-0.06262124,-0.006406075,-0.03003178,0.4074633,4.746201,31.47
3,-0.01409912,-0.07167053,0.9973145,0.714121,-0.01426697,-0.07177734,0.9973145,-31.35001,4.056915,-32.31007,4.134796,0.4865561,0.4928069,0.9269893,0.02973938,-0.04267883,0.998642,28.9911,2.369217,-31.51025,4.527969,0.6255817,0.5379309,0.2431483,1.193881,-0.1285696,-0.06262124,-0.006406075,-0.03003178,0.4074633,4.746201,31.47
3,-0.01409912,-0.07167053,0.9973145,0.714121,-0.01426697,-0.07177734,0.9973145,-31.35001,4.056915,-32.31007,4.134796,0.4865561,0.4928069,0.9269893,0.02973938,-0.04267883,0.998642,28.9911,2.369217,-31.51025,4.527969,0.6255817,0.5379309,0.2431483,1.193881,-0.1285696,-0.06262124,-0.006406075,-0.03003178,0.4074633,4.746201,31.47
3,-0.001571655,-0.07023621,0.9975281,0.7095195,-0.001571655,-0.07025146,0.9975128,-31.30647,4.049362,-32.24719,4.095398,0.482877,0.4921636,0.9132714,0.03663635,-0.04956055,0.9980927,29.04367,2.428207,-31.62981,4.503159,0.6226569,0.5382443,0.2431369,1.193896,-0.1285774,-0.06291325,-0.006226783,-0.03007739,0.4074633,4.746201,31.47
3,-0.004058838,-0.07225037,0.9973755,0.719311,-0.004241943,-0.07232666,0.9973602,-31.2933,4.057022,-32.24719,4.122147,0.482877,0.4922708,0.920483,0.03761292,-0.05599976,0.9977112,29.05983,2.447006,-31.6636,4.583954,0.6219913,0.5391038,0.2431337,1.193943,-0.1285588,-0.06297858,-0.006014983,-0.03005211,0.4074633,4.746201,31.47
3,-0.004058838,-0.07225037,0.9973755,0.719311,-0.004241943,-0.07232666,0.9973602,-31.2933,4.057022,-32.24719,4.122147,0.482877,0.4922708,0.920483,0.03761292,-0.05599976,0.9977112,29.05983,2.447006,-31.6636,4.583954,0.6219913,0.5391038,0.2431337,1.193943,-0.1285588,-0.06297858,-0.006014983,-0.03005211,0.4074633,4.746201,31.47
3,-0.02279663,-0.08097839,0.9964447,0.719311,-0.02337646,-0.08169556,0.9963684,-31.39409,4.034012,-32.09294,4.138351,0.4896045,0.4933474,0.920483,0.02522278,-0.02175903,0.9994354,28.89105,2.228149,-31.05975,4.6604,0.6293872,0.5348922,0.2431425,1.193982,-0.1285515,-0.06301063,-0.005674629,-0.02997988,0.4074633,4.746201,31.47
3,-0.02279663,-0.08097839,0.9964447,0.719311,-0.02337646,-0.08169556,0.9963684,-31.39409,4.034012,-32.09294,4.138351,0.4896045,0.4933474,0.920483,0.02522278,-0.02175903,0.9994354,28.89105,2.228149,-31.05975,4.6604,0.6293872,0.5348922,0.2431425,1.193982,-0.1285515,-0.06301063,-0.005674629,-0.02997988,0.4074633,4.746201,31.47
3,-0.02279663,-0.08097839,0.9964447,0.719311,-0.02337646,-0.08169556,0.9963684,-31.39409,4.034012,-32.09294,4.138351,0.4896045,0.4933474,0.920483,0.02522278,-0.02175903,0.9994354,28.89105,2.228149,-31.05975,4.6604,0.6293872,0.5348922,0.2429688,1.19388,-0.1286043,-0.06319412,-0.005579294,-0.02981391,0.4074633,-2.261238,31.47
3,-0.02279663,-0.08097839,0.9964447,0.719311,-0.02337646,-0.08169556,0.9963684,-31.39409,4.034012,-32.09294,4.138351,0.4896045,0.4933474,0.920483,0.02522278,-0.02175903,0.9994354,28.89105,2.228149,-31.05975,4.6604,0.6293872,0.5348922,0.2429688,1.19388,-0.1286043,-0.06319412,-0.005579294,-0.02981391,0.4074633,-2.261238,31.47
3,-0.02279663,-0.08097839,0.9964447,0.719311,-0.02337646,-0.08169556,0.9963684,-31.39409,4.034012,-32.09294,4.138351,0.4896045,0.4933474,0.920483,0.02522278,-0.02175903,0.9994354,28.89105,2.228149,-31.05975,4.6604,0.6293872,0.5348922,0.2429446,1.193828,-0.1285726,-0.06325127,-0.005513472,-0.02967238,0.4074633,-2.261238,31.47
3,-0.02279663,-0.08097839,0.9964447,0.719311,-0.02337646,-0.08169556,0.9963684,-31.39409,4.034012,-32.09294,4.138351,0.4896045,0.4933474,0.920483,0.02522278,-0.02175903,0.9994354,28.89105,2.228149,-31.05975,4.6604,0.6293872,0.5348922,0.2429446,1.193828,-0.1285726,-0.06325127,-0.005513472,-0.02967238,0.4074633,-2.261238,31.47
3,-0.0552063,-0.08195496,0.9951019,0.7132885,-0.05551147,-0.08229065,0.9950562,-31.64107,4.066315,-32.23322,3.94725,0.5036812,0.4936631,0.9095384,-0.02134705,-0.0451355,0.9987488,28.63538,2.488297,-31.8336,4.720123,0.6477019,0.5375565,0.2429543,1.193821,-0.1285317,-0.0630565,-0.005372481,-0.02971328,0.4074633,-2.261238,31.47
3,-0.0552063,-0.08195496,0.9951019,0.7132885,-0.05551147,-0.08229065,0.9950562,-31.64107,4.066315,-32.23322,3.94725,0.5036812,0.4936631,0.9095384,-0.02134705,-0.0451355,0.9987488,28.63538,2.488297,-31.8336,4.720123,0.6477019,0.5375565,0.2429543,1.193821,-0.1285317,-0.0630565,-0.005372481,-0.02971328,0.4074633,-2.261238,31.47
3,-0.0552063,-0.08195496,0.9951019,0.7132885,-0.05551147,-0.08229065,0.9950562,-31.64107,4.066315,-32.23322,3.94725,0.5036812,0.4936631,0.9095384,-0.02134705,-0.0451355,0.9987488,28.63538,2.488297,-31.8336,4.720123,0.6477019,0.5375565,0.2429055,1.193768,-0.128557,-0.0628323,-0.005487736,-0.02972982,0.4074633,-2.261238,31.47
3,-0.0552063,-0.08195496,0.9951019,0.7132885,-0.05551147,-0.08229065,0.9950562,-31.64107,4.066315,-32.23322,3.94725,0.5036812,0.4936631,0.9095384,-0.02134705,-0.0451355,0.9987488,28.63538,2.488297,-31.8336,4.720123,0.6477019,0.5375565,0.2429055,1.193768,-0.128557,-0.0628323,-0.005487736,-0.02972982,0.4074633,-2.261238,31.47
3,-0.09605408,-0.07731628,0.9923553,0.7132885,-0.09675598,-0.07795715,0.9922485,-31.89629,4.258743,-32.77069,4.087875,0.5197838,0.4915241,0.9095384,-0.05834961,-0.04318237,0.9973602,28.32242,2.774887,-32.59021,4.747604,0.6667307,0.5346227,0.2428608,1.193732,-0.1285474,-0.06273536,-0.005510768,-0.02959746,0.4074633,-2.261238,31.47
3,-0.09605408,-0.07731628,0.9923553,0.7132885,-0.09675598,-0.07795715,0.9922485,-31.89629,4.258743,-32.77069,4.087875,0.5197838,0.4915241,0.9095384,-0.05834961,-0.04318237,0.9973602,28.32242,2.774887,-32.59021,4.747604,0.6667307,0.5346227,0.2428608,1.193732,-0.1285474,-0.06273536,-0.005510768,-0.02959746,0.4074633,-2.261238,31.47
3,-0.1447601,-0.05909729,0.9876862,0.7411336,-0.1447601,-0.05909729,0.9876862,-32.31642,4.351044,-32.82516,4.036697,0.5427568,0.4858461,0.9412407,-0.119339,-0.02655029,0.9924927,28.01436,3.082916,-33.50093,4.76619,0.6906746,0.5298563,0.2428094,1.19377,-0.1285845,-0.06258113,-0.005571276,-0.02927881,0.4074633,-2.261238,31.47
3,-0.1447601,-0.05909729,0.9876862,0.7411336,-0.1447601,-0.05909729,0.9876862,-32.31642,4.351044,-32.82516,4.036697,0.5427568,0.4858461,0.9412407,-0.119339,-0.02655029,0.9924927,28.01436,3.082916,-33.50093,4.76619,0.6906746,0.5298563,0.2428094,1.19377,-0.1285845,-0.06258113,-0.005571276,-0.02927881,0.4074633,-2.261238,31.47
3,-0.1447601,-0.05909729,0.9876862,0.7411336,-0.1447601,-0.05909729,0.9876862,-32.31642,4.351044,-32.82516,4.036697,0.5427568,0.4858461,0.9412407,-0.119339,-0.02655029,0.9924927,28.01436,3.082916,-33.50093,4.76619,0.6906746,0.5298563,0.2428094,1.19377,-0.1285845,-0.06258113,-0.005571276,-0.02927881,0.4074633,-2.261238,31.47
3,-0.140274,-0.05938721,0.988327,0.7411302,-0.1420593,-0.06141663,0.9879456,-32.3055,4.388626,-32.92578,4.026154,0.5419664,0.4858677,0.9294322,-0.1083984,-0.02323914,0.9938202,28.03033,3.083313,-33.48689,4.746475,0.6880593,0.5290508,0.2427357,1.193691,-0.1285429,-0.06243464,-0.00561258,-0.02933144,0.4074633,-2.261238,31.47
3,-0.140274,-0.05938721,0.988327,0.7411302,-0.1420593,-0.06141663,0.9879456,-32.3055,4.388626,-32.92578,4.026154,0.5419664,0.4858677,0.9294322,-0.1083984,-0.02323914,0.9938202,28.03033,3.083313,-33.48689,4.746475,0.6880593,0.5290508,0.2427357,1.193691,-0.1285429,-0.06243464,-0.00561258,-0.02933144,0.4074633,-2.261238,31.47
3,-0.140274,-0.05938721,0.988327,0.7411302,-0.1420593,-0.06141663,0.9879456,-32.3055,4.388626,-32.92578,4.026154,0.5419664,0.4858677,0.9294322,-0.1083984,-0.02323914,0.9938202,28.03033,3.083313,-33.48689,4.746475,0.6880593,0.5290508,0.2427583,1.193617,-0.1285232,-0.06230096,-0.005672002,-0.02928695,0.4100259,-26.88071,31.47
3,-0.1178436,-0.03475952,0.9924164,0.7411302,-0.1416931,-0.06158447,0.9879761,-32.30368,4.397964,-32.95569,4.032639,0.5418554,0.4858461,0.9294322,-0.1083069,-0.02407837,0.9938202,28.03244,3.083221,-33.48003,4.740479,0.6879507,0.5291287,0.242776,1.19355,-0.1285161,-0.06215165,-0.005861918,-0.02905017,0.4100259,-26.88071,31.47
3,-0.1178436,-0.03475952,0.9924164,0.7411302,-0.1416931,-0.06158447,0.9879761,-32.30368,4.397964,-32.95569,4.032639,0.5418554,0.4858461,0.9294322,-0.1083069,-0.02407837,0.9938202,28.03244,3.083221,-33.48003,4.740479,0.6879507,0.5291287,0.242776,1.19355,-0.1285161,-0.06215165,-0.005861918,-0.02905017,0.4100259,-26.88071,31.47
3,-0.1178436,-0.03475952,0.9924164,0.7411302,-0.1416931,-0.06158447,0.9879761,-32.30368,4.397964,-32.95569,4.032639,0.5418554,0.4858461,0.9294322,-0.1083069,-0.02407837,0.9938202,28.03244,3.083221,-33.48003,4.740479,0.6879507,0.5291287,0.2428186,1.193558,-0.1284975,-0.06222485,-0.005858103,-0.02938144,0.4100259,-26.88071,31.47
3,-0.1178436,-0.03475952,0.9924164,0.7411302,-0.1416931,-0.06158447,0.9879761,-32.30368,4.397964,-32.95569,4.032639,0.5418554,0.4858461,0.9294322,-0.1083069,-0.02407837,0.9938202,28.03244,3.083221,-33.48003,4.740479,0.6879507,0.5291287,0.2428186,1.193558,-0.1284975,-0.06222485,-0.005858103,-0.02938144,0.4100259,-26.88071,31.47
3,-0.1117096,-0.04689026,0.99263,0.7481973,-0.1266785,-0.0562439,0.9903412,-32.23091,4.512222,-33.3331,4.032501,0.5369224,0.4843431,0.9510916,-0.09143066,-0.03421021,0.9952087,28.11583,2.963669,-32.91528,4.641678,0.6807744,0.5295108,0.2428366,1.193577,-0.1284387,-0.06220498,-0.00557395,-0.02979091,0.4100259,-26.88071,31.47
3,-0.1117096,-0.04689026,0.99263,0.7481973,-0.1266785,-0.0562439,0.9903412,-32.23091,4.512222,-33.3331,4.032501,0.5369224,0.4843431,0.9510916,-0.09143066,-0.03421021,0.9952087,28.11583,2.963669,-32.91528,4.641678,0.6807744,0.5295108,0.2428366,1.193577,-0.1284387,-0.06220498,-0.00557395,-0.02979091,0.4100259,-26.88071,31.47
3,-0.1206512,-0.04957581,0.9914398,0.7397368,-0.1262512,-0.05328369,0.9905548,-32.22609,4.521271,-33.36018,4.057312,0.5366918,0.4837603,0.9313542,-0.09747314,-0.0342865,0.9946442,28.12166,2.966888,-32.8961,4.755402,0.6816605,0.5293193,0.2428113,1.193509,-0.1283895,-0.06192684,-0.005340489,-0.02947385,0.4100259,-26.88071,31.47
3,-0.1206512,-0.04957581,0.9914398,0.7397368,-0.1262512,-0.05328369,0.9905548,-32.22609,4.521271,-33.36018,4.057312,0.5366918,0.4837603,0.9313542,-0.09747314,-0.0342865,0.9946442,28.12166,2.966888,-32.8961,4.755402,0.6816605,0.5293193,0.2428113,1.193509,-0.1283895,-0.06192684,-0.005340489,-0.02947385,0.4100259,-26.88071,31.47
3,-0.1206512,-0.04957581,0.9914398,0.7397368,-0.1262512,-0.05328369,0.9905548,-32.22609,4.521271,-33.36018,4.057312,0.5366918,0.4837603,0.9313542,-0.09747314,-0.0342865,0.9946442,28.12166,2.966888,-32.8961,4.755402,0.6816605,0.5293193,0.242915,1.193491,-0.1283364,-0.06183558,-0.005365543,-0.0293101,0.4100259,-26.88071,31.47
3,-0.1206512,-0.04957581,0.9914398,0.7397368,-0.1262512,-0.05328369,0.9905548,-32.22609,4.521271,-33.36018,4.057312,0.5366918,0.4837603,0.9313542,-0.09747314,-0.0342865,0.9946442,28.12166,2.966888,-32.8961,4.755402,0.6816605,0.5293193,0.242915,1.193491,-0.1283364,-0.06183558,-0.005365543,-0.0293101,0.4100259,-26.88071,31.47
3,-0.1206512,-0.04957581,0.9914398,0.7397368,-0.1262512,-0.05328369,0.9905548,-32.22609,4.521271,-33.36018,4.057312,0.5366918,0.4837603,0.9313542,-0.09747314,-0.0342865,0.9946442,28.12166,2.966888,-32.8961,4.755402,0.6816605,0.5293193,0.2429066,1.193421,-0.1283379,-0.06168019,-0.005201972,-0.02923068,0.4100259,-26.88071,31.47
3,-0.1206512,-0.04957581,0.9914398,0.7397368,-0.1262512,-0.05328369,0.9905548,-32.22609,4.521271,-33.36018,4.057312,0.5366918,0.4837603,0.9313542,-0.09747314,-0.0342865,0.9946442,28.12166,2.966888,-32.8961,4.755402,0.6816605,0.5293193,0.2429066,1.193421,-0.1283379,-0.06168019,-0.005201972,-0.02923068,0.4100259,-26.88071,31.47
3,-0.1251526,-0.05288696,0.9907227,0.7397368,-0.1266174,-0.05358887,0.9904938,-32.21872,4.505753,-33.30437,4.059235,0.5364677,0.4838357,0.9313542,-0.09239197,-0.03691101,0.9950256,28.1283,2.954498,-32.83109,4.696381,0.6803657,0.5295386,0.2429,1.193384,-0.1283273,-0.06129619,-0.005128406,-0.02940628,0.4100259,-26.88071,31.47
3,-0.1158905,-0.06079102,0.991394,0.7381279,-0.116272,-0.0610199,0.991333,-32.13652,4.505936,-33.33183,4.03801,0.5318074,0.4853246,0.9268081,-0.087677,-0.04367065,0.9951782,28.21315,2.880829,-32.66531,4.611801,0.6761009,0.5316587,0.2429208,1.193428,-0.128323,-0.06121653,-0.005184756,-0.02951679,0.4100259,-26.88071,31.47
3,-0.1136475,-0.06312561,0.9915009,0.7403888,-0.1151733,-0.06472778,0.9912262,-32.11595,4.506226,-33.30479,3.977386,0.5308937,0.4856814,0.9291966,-0.08428955,-0.03207397,0.9959106,28.2532,2.893509,-32.64612,4.607712,0.6739998,0.5289307,0.2429638,1.19337,-0.1283537,-0.06108701,-0.005001904,-0.02934998,0.4100259,-26.88071,31.47
3,-0.1136475,-0.06312561,0.9915009,0.7403888,-0.1151733,-0.06472778,0.9912262,-32.11595,4.506226,-33.30479,3.977386,0.5308937,0.4856814,0.9291966,-0.08428955,-0.03207397,0.9959106,28.2532,2.893509,-32.64612,4.607712,0.6739998,0.5289307,0.2429638,1.19337,-0.1283537,-0.06108701,-0.005001904,-0.02934998,0.4100259,-26.88071,31.47
3,-0.1079102,-0.05809021,0.9924469,0.753915,-0.1134644,-0.06430054,0.9914551,-32.10368,4.496201,-33.2514,4.064621,0.5301247,0.4854924,0.9387764,-0.08459473,-0.03205872,0.9958954,28.26447,2.893509,-32.64612,4.607819,0.67365,0.5289307,0.2429781,1.193385,-0.1283945,-0.06092104,-0.004982503,-0.02931467,0.4100259,14.58361,31.47
3,-0.1079102,-0.05809021,0.9924469,0.753915,-0.1134644,-0.06430054,0.9914551,-32.10368,4.496201,-33.2514,4.064621,0.5301247,0.4854924,0.9387764,-0.08459473,-0.03205872,0.9958954,28.26447,2.893509,-32.64612,4.607819,0.67365,0.5289307,0.2429781,1.193385,-0.1283945,-0.06092104,-0.004982503,-0.02931467,0.4100259,14.58361,31.47
3,-0.09031677,-0.04127502,0.9950409,0.7467752,-0.1099091,-0.06311035,0.9919281,-32.08789,4.471252,-33.15007,4.029266,0.5289202,0.4851696,0.937701,-0.08004761,-0.02986145,0.9963379,28.27596,2.895584,-32.64813,4.65918,0.6724339,0.5285074,0.2429699,1.193365,-0.1284537,-0.06080376,-0.004702481,-0.02924138,0.4100259,14.58361,31.47
3,-0.08685303,-0.03823853,0.9954834,0.7467752,-0.1072388,-0.06268311,0.9922485,-32.08392,4.468628,-33.14243,4.026825,0.5283157,0.485101,0.937701,-0.07972717,-0.0296936,0.9963684,28.28052,2.89592,-32.65013,4.641174,0.672206,0.5284694,0.2429792,1.19338,-0.1284801,-0.06072026,-0.00458861,-0.02920901,0.4100259,14.58361,31.47
3,-0.08685303,-0.03823853,0.9954834,0.7467752,-0.1072388,-0.06268311,0.9922485,-32.08392,4.468628,-33.14243,4.026825,0.5283157,0.485101,0.937701,-0.07972717,-0.0296936,0.9963684,28.28052,2.89592,-32.65013,4.641174,0.672206,0.5284694,0.2429668,1.193366,-0.1285409,-0.06092177,-0.004394531,-0.02899626,0.4100259,14.58361,31.47
3,-0.08685303,-0.03823853,0.9954834,0.7467752,-0.1072388,-0.06268311,0.9922485,-32.08392,4.468628,-33.14243,4.026825,0.5283157,0.485101,0.937701,-0.07972717,-0.0296936,0.9963684,28.28052,2.89592,-32.65013,4.641174,0.672206,0.5284694,0.2429668,1.193366,-0.1285409,-0.06092177,-0.004394531,-0.02899626,0.4100259,14.58361,31.47
3,-0.08685303,-0.03823853,0.9954834,0.7467752,-0.1072388,-0.06268311,0.9922485,-32.08392,4.468628,-33.14243,4.026825,0.5283157,0.485101,0.937701,-0.07972717,-0.0296936,0.9963684,28.28052,2.89592,-32.65013,4.641174,0.672206,0.5284694,0.2429439,1.193364,-0.1285452,-0.06113627,-0.004539637,-0.02886879,0.4100259,14.58361,31.47
3,-0.08685303,-0.03823853,0.9954834,0.7467752,-0.1072388,-0.06268311,0.9922485,-32.08392,4.468628,-33.14243,4.026825,0.5283157,0.485101,0.937701,-0.07972717,-0.0296936,0.9963684,28.28052,2.89592,-32.65013,4.641174,0.672206,0.5284694,0.2428877,1.193352,-0.1285933,-0.06147183,-0.004544558,-0.02868367,0.4100259,14.58361,31.47
3,-0.06613159,-0.04855347,0.9966278,0.7357693,-0.1085205,-0.06269836,0.9921112,-32.0764,4.451859,-33.07883,4.029022,0.5282459,0.485101,0.9353016,-0.0531311,-0.04420471,0.9976044,28.32957,2.897003,-32.63612,4.496399,0.6655867,0.5307199,0.242869,1.193387,-0.1285816,-0.06152041,-0.004542918,-0.02899909,0.4100259,14.58361,31.47
3,-0.06613159,-0.04855347,0.9966278,0.7357693,-0.1085205,-0.06269836,0.9921112,-32.0764,4.451859,-33.07883,4.029022,0.5282459,0.485101,0.9353016,-0.0531311,-0.04420471,0.9976044,28.32957,2.897003,-32.63612,4.496399,0.6655867,0.5307199,0.242869,1.193387,-0.1285816,-0.06152041,-0.004542918,-0.02899909,0.4100259,14.58361,31.47
3,-0.08677673,-0.04771423,0.9950714,0.7428786,-0.08880615,-0.04893494,0.9948425,-31.9588,4.41626,-32.90115,3.949295,0.5206955,0.482109,0.9330226,-0.04225159,-0.02110291,0.9988708,28.4075,2.69783,-32.02235,4.487839,0.659832,0.5276132,0.2428647,1.193395,-0.1285708,-0.06171279,-0.004570714,-0.02919548,0.4100259,14.58361,31.47
3,-0.08781433,-0.05497742,0.9946136,0.740806,-0.08798218,-0.05506897,0.9945984,-31.9411,4.401001,-32.86992,3.97377,0.5199136,0.4834415,0.9269879,-0.03648376,-0.0292511,0.9989014,28.44209,2.70639,-32.04279,4.49379,0.6575955,0.5289478,0.2429323,1.193421,-0.1285633,-0.06182376,-0.004622582,-0.02926278,0.4100259,14.58361,31.47
3,-0.08781433,-0.05497742,0.9946136,0.740806,-0.08798218,-0.05506897,0.9945984,-31.9411,4.401001,-32.86992,3.97377,0.5199136,0.4834415,0.9269879,-0.03648376,-0.0292511,0.9989014,28.44209,2.70639,-32.04279,4.49379,0.6575955,0.5289478,0.2429323,1.193421,-0.1285633,-0.06182376,-0.004622582,-0.02926278,0.4100259,14.58361,31.47
3,-0.08772278,-0.05604553,0.9945526,0.7415813,-0.08818054,-0.05621338,0.9945068,-31.93486,4.392273,-32.83217,3.98555,0.5197139,0.4836047,0.9233973,-0.03448486,-0.0352478,0.9987793,28.46696,2.705933,-32.06143,4.542816,0.6563928,0.5302513,0.2429854,1.193448,-0.1285244,-0.06186328,-0.004680247,-0.02907837,0.4100259,14.58361,31.47
3,-0.06008911,-0.04577637,0.9971313,0.7418168,-0.08457947,-0.05691528,0.9947815,-31.92143,4.367096,-32.7802,3.980988,0.5186036,0.4840998,0.9335886,-0.03494263,-0.03433228,0.9987946,28.49446,2.714584,-32.13632,4.490402,0.6555854,0.5304767,0.2429677,1.193479,-0.1285362,-0.06159037,-0.004649902,-0.02901399,0.4100259,14.58361,31.47
3,-0.06318665,-0.04299927,0.9970703,0.7337884,-0.08149719,-0.05082703,0.9953613,-31.88766,4.367203,-32.80989,3.988419,0.5169152,0.4832889,0.9357125,-0.03944397,-0.03283691,0.9986725,28.51115,2.722305,-32.16859,4.526611,0.6558426,0.5302865,0.2429488,1.193416,-0.1285545,-0.06144952,-0.004673874,-0.02915104,0.4100259,11.90678,31.47
3,-0.06318665,-0.04299927,0.9970703,0.7337884,-0.08149719,-0.05082703,0.9953613,-31.88766,4.367203,-32.80989,3.988419,0.5169152,0.4832889,0.9357125,-0.03944397,-0.03283691,0.9986725,28.51115,2.722305,-32.16859,4.526611,0.6558426,0.5302865,0.2429488,1.193416,-0.1285545,-0.06144952,-0.004673874,-0.02915104,0.4100259,11.90678,31.47
3,-0.06207275,-0.04544067,0.9970245,0.7352874,-0.07659912,-0.05308533,0.995636,-31.87637,4.36998,-32.83324,3.926346,0.5156919,0.483739,0.9227511,-0.03819275,-0.03285217,0.9987183,28.52734,2.729065,-32.1963,4.515884,0.6550791,0.5303113,0.2429765,1.19337,-0.128534,-0.06131625,-0.004689789,-0.0292062,0.4100259,11.90678,31.47
3,-0.06016541,-0.03857422,0.9974365,0.734645,-0.07540894,-0.05215454,0.9957733,-31.8692,4.37323,-32.84799,3.905472,0.5152463,0.483585,0.9209818,-0.03912354,-0.01982117,0.9990234,28.55257,2.730164,-32.18103,4.502289,0.6543097,0.5277947,0.2430182,1.193315,-0.1285841,-0.06106774,-0.004807463,-0.02917685,0.4100259,11.90678,31.47
3,-0.06016541,-0.03857422,0.9974365,0.734645,-0.07540894,-0.05215454,0.9957733,-31.8692,4.37323,-32.84799,3.905472,0.5152463,0.483585,0.9209818,-0.03912354,-0.01982117,0.9990234,28.55257,2.730164,-32.18103,4.502289,0.6543097,0.5277947,0.2430182,1.193315,-0.1285841,-0.06106774,-0.004807463,-0.02917685,0.4100259,11.90678,31.47
4,-0.04234314,-0.03181458,0.9985809,0.731601,-0.07196045,-0.05352783,0.9959564,-31.80627,4.18808,-32.18018,3.929535,0.5122459,0.4840207,0.9349993,-0.04205322,-0.03160095,0.9986115,28.57349,2.708527,-32.08813,4.57843,0.6539623,0.5298065,0.2430292,1.19328,-0.1285392,-0.06114638,-0.004809013,-0.02924189,0.4100259,11.90678,31.47
4,-0.02490234,-0.01660156,0.9995422,0.7259149,-0.07255554,-0.05900574,0.9956055,-31.77116,4.095154,-31.84503,3.856461,0.5110345,0.4850378,0.9203485,-0.02488708,-0.0165863,0.9995422,28.59123,2.695526,-32.02092,4.508362,0.6501597,0.5268637,0.2430161,1.193292,-0.1285496,-0.06107518,-0.004809013,-0.02917506,0.4100259,11.90678,31.47
4,-0.0269928,-0.01843262,0.9994507,0.7296084,-0.07424927,-0.06134033,0.9953461,-31.75084,4.085709,-31.7789,3.8638,0.510604,0.4851555,0.9202967,-0.02697754,-0.01843262,0.9994507,28.60155,2.700912,-32.00905,4.479599,0.6501336,0.5268637,0.2430742,1.193311,-0.1285094,-0.06161831,-0.004746636,-0.02951023,0.4100259,11.90678,31.47
4,-0.0269928,-0.01843262,0.9994507,0.7296084,-0.07424927,-0.06134033,0.9953461,-31.75084,4.085709,-31.7789,3.8638,0.510604,0.4851555,0.9202967,-0.02697754,-0.01843262,0.9994507,28.60155,2.700912,-32.00905,4.479599,0.6501336,0.5268637,0.2430742,1.193311,-0.1285094,-0.06161831,-0.004746636,-0.02951023,0.4100259,11.90678,31.47
4,-0.02726746,-0.01705933,0.9994812,0.7297393,-0.07290649,-0.0581665,0.995636,-31.74382,4.091019,-31.82217,3.907013,0.5101418,0.4848363,0.9215477,-0.02726746,-0.01705933,0.9994812,28.60686,2.699814,-32.00029,4.490326,0.6499825,0.5265856,0.2431134,1.193328,-0.1285053,-0.06179375,-0.004649902,-0.02974736,0.4100259,11.90678,31.47
4,-0.03604126,-0.02116394,0.999115,0.7439178,-0.08526611,-0.03553772,0.9957123,-31.89752,4.451355,-32.87506,4.084152,0.5179574,0.4782951,0.9302046,-0.03604126,-0.02116394,0.999115,28.44615,2.804733,-32.15602,4.433167,0.6575276,0.5251018,0.2431091,1.19339,-0.1284885,-0.06185027,-0.0044785,-0.0299851,0.4100259,11.90678,31.47
4,-0.09082031,0.01422119,0.9957581,0.7376063,-0.1279602,-0.01507568,0.9916534,-32.15419,4.905792,-34.02742,4.085434,0.5348991,0.4697855,0.9242004,-0.09082031,0.01422119,0.9957581,28.07556,3.067062,-32.58212,4.670059,0.6815806,0.513956,0.243192,1.193451,-0.1285335,-0.06224509,-0.004274205,-0.03019557,0.4100259,11.90678,31.47
4,-0.09082031,0.01422119,0.9957581,0.7376063,-0.1279602,-0.01507568,0.9916534,-32.15419,4.905792,-34.02742,4.085434,0.5348991,0.4697855,0.9242004,-0.09082031,0.01422119,0.9957581,28.07556,3.067062,-32.58212,4.670059,0.6815806,0.513956,0.243192,1.193451,-0.1285335,-0.06224509,-0.004274205,-0.03019557,0.4100259,11.90678,31.47
4,-0.09306335,0.02384949,0.9953613,0.7376063,-0.1326294,-0.02606201,0.9908142,-32.22218,5.066055,-34.34015,4.055511,0.5382729,0.469025,0.9242004,-0.09306335,0.02384949,0.9953613,27.98564,3.136765,-32.70049,4.4879,0.6854712,0.5107553,0.243192,1.193451,-0.1285335,-0.06224509,-0.004274205,-0.03019557,0.4100259,11.90678,31.47
4,-0.09306335,0.02384949,0.9953613,0.7376063,-0.1326294,-0.02606201,0.9908142,-32.22218,5.066055,-34.34015,4.055511,0.5382729,0.469025,0.9242004,-0.09306335,0.02384949,0.9953613,27.98564,3.136765,-32.70049,4.4879,0.6854712,0.5107553,0.2432659,1.19347,-0.1285725,-0.06262552,-0.004022768,-0.03006748,0.4100259,-7.78067,31.47
4,-0.09306335,0.02384949,0.9953613,0.7376063,-0.1326294,-0.02606201,0.9908142,-32.22218,5.066055,-34.34015,4.055511,0.5382729,0.469025,0.9242004,-0.09306335,0.02384949,0.9953613,27.98564,3.136765,-32.70049,4.4879,0.6854712,0.5107553,0.2432659,1.19347,-0.1285725,-0.06262552,-0.004022768,-0.03006748,0.4100259,-10.81506,31.47
4,-0.09306335,0.02384949,0.9953613,0.7376063,-0.1326294,-0.02606201,0.9908142,-32.22218,5.066055,-34.34015,4.055511,0.5382729,0.469025,0.9242004,-0.09306335,0.02384949,0.9953613,27.98564,3.136765,-32.70049,4.4879,0.6854712,0.5107553,0.2433655,1.193639,-0.128557,-0.06292248,-0.00406331,-0.03014914,0.4100259,-10.81506,31.47
4,-0.09306335,0.02384949,0.9953613,0.7376063,-0.1326294,-0.02606201,0.9908142,-32.22218,5.066055,-34.34015,4.055511,0.5382729,0.469025,0.9242004,-0.09306335,0.02384949,0.9953613,27.98564,3.136765,-32.70049,4.4879,0.6854712,0.5107553,0.2434241,1.193681,-0.1285693,-0.06343371,-0.004180797,-0.03027122,0.4100259,-10.81506,31.47
4,-0.1123047,0.03788757,0.9929352,0.7349712,-0.1508179,-0.0111084,0.9884949,-32.28618,5.275513,-34.89139,3.944504,0.544122,0.4641526,0.919304,-0.1123047,0.03788757,0.9929352,27.91359,3.251755,-32.94089,4.600342,0.6921435,0.5066222,0.2434412,1.193696,-0.128614,-0.06385689,-0.004312383,-0.0303516,0.4100259,-10.81506,31.47
4,-0.1123047,0.03788757,0.9929352,0.7349712,-0.1508179,-0.0111084,0.9884949,-32.28618,5.275513,-34.89139,3.944504,0.544122,0.4641526,0.919304,-0.1123047,0.03788757,0.9929352,27.91359,3.251755,-32.94089,4.600342,0.6921435,0.5066222,0.2434412,1.193696,-0.128614,-0.06385689,-0.004312383,-0.0303516,0.4100259,-10.81506,31.47
4,-0.1123047,0.03788757,0.9929352,0.7349712,-0.1508179,-0.0111084,0.9884949,-32.28618,5.275513,-34.89139,3.944504,0.544122,0.4641526,0.919304,-0.1123047,0.03788757,0.9929352,27.91359,3.251755,-32.94089,4.600342,0.6921435,0.5066222,0.2434314,1.193773,-0.128634,-0.0642679,-0.004397921,-0.03033981,0.4100259,-10.81506,31.47
4,-0.1123047,0.03788757,0.9929352,0.7349712,-0.1508179,-0.0111084,0.9884949,-32.28618,5.275513,-34.89139,3.944504,0.544122,0.4641526,0.919304,-0.1123047,0.03788757,0.9929352,27.91359,3.251755,-32.94089,4.600342,0.6921435,0.5066222,0.2434314,1.193773,-0.128634,-0.0642679,-0.004397921,-0.03033981,0.4100259,-10.81506,31.47
4,-0.1123047,0.03788757,0.9929352,0.7349712,-0.1508179,-0.0111084,0.9884949,-32.28618,5.275513,-34.89139,3.944504,0.544122,0.4641526,0.919304,-0.1123047,0.03788757,0.9929352,27.91359,3.251755,-32.94089,4.600342,0.6921435,0.5066222,0.2434858,1.193957,-0.1286311,-0.06480301,-0.00458211,-0.03036559,0.4100259,-10.81506,31.47
4,-0.1123047,0.03788757,0.9929352,0.7349712,-0.1508179,-0.0111084,0.9884949,-32.28618,5.275513,-34.89139,3.944504,0.544122,0.4641526,0.919304,-0.1123047,0.03788757,0.9929352,27.91359,3.251755,-32.94089,4.600342,0.6921435,0.5066222,0.2434858,1.193957,-0.1286311,-0.06480301,-0.00458211,-0.03036559,0.4100259,-10.81506,31.47
4,-0.09037781,0.07891846,0.9927673,0.7335193,-0.1384888,-0.004837036,0.9903412,-32.27394,5.174744,-34.54305,3.964676,0.5413107,0.4632972,0.9188888,-0.09037781,0.07891846,0.9927673,28.05898,2.97139,-32.03685,4.68042,0.6813152,0.5006523,0.2435216,1.19411,-0.128672,-0.0652961,-0.004667494,-0.03039183,0.4100259,-10.81506,31.47
4,-0.09037781,0.07891846,0.9927673,0.7335193,-0.1384888,-0.004837036,0.9903412,-32.27394,5.174744,-34.54305,3.964676,0.5413107,0.4632972,0.9188888,-0.09037781,0.07891846,0.9927673,28.05898,2.97139,-32.03685,4.68042,0.6813152,0.5006523,0.2435216,1.19411,-0.128672,-0.0652961,-0.004667494,-0.03039183,0.4100259,-10.81506,31.47
4,-0.1014099,0.04278564,0.9939117,0.7238057,-0.1358337,-0.009429932,0.9906769,-32.27122,5.183044,-34.60953,3.960754,0.5407743,0.4644145,0.9349254,-0.09498596,0.05245972,0.9940796,28.08656,3.204285,-32.73082,4.615463,0.6822992,0.5036761,0.2435955,1.194161,-0.1287063,-0.06563286,-0.004748206,-0.03062603,0.4100259,-10.81506,31.47
4,-0.1014099,0.04278564,0.9939117,0.7238057,-0.1358337,-0.009429932,0.9906769,-32.27122,5.183044,-34.60953,3.960754,0.5407743,0.4644145,0.9349254,-0.09498596,0.05245972,0.9940796,28.08656,3.204285,-32.73082,4.615463,0.6822992,0.5036761,0.2435955,1.194161,-0.1287063,-0.06563286,-0.004748206,-0.03062603,0.4100259,-10.81506,31.47
4,-0.1307678,-0.004776001,0.991394,0.7238057,-0.1326904,-0.007766724,0.9911194,-32.27534,5.178864,-34.60953,3.960953,0.5403677,0.464241,0.9349254,-0.09242249,0.05383301,0.9942474,28.09335,3.20726,-32.76346,4.628174,0.6816496,0.5036501,0.2436787,1.194135,-0.1286513,-0.06579137,-0.004929888,-0.03095415,0.4100259,-10.81506,31.47
4,-0.1307678,-0.004776001,0.991394,0.7238057,-0.1326904,-0.007766724,0.9911194,-32.27534,5.178864,-34.60953,3.960953,0.5403677,0.464241,0.9349254,-0.09242249,0.05383301,0.9942474,28.09335,3.20726,-32.76346,4.628174,0.6816496,0.5036501,0.2436787,1.194135,-0.1286513,-0.06579137,-0.004929888,-0.03095415,0.4100259,-10.81506,31.47
4,-0.1307678,-0.004776001,0.991394,0.7238057,-0.1326904,-0.007766724,0.9911194,-32.27534,5.178864,-34.60953,3.960953,0.5403677,0.464241,0.9349254,-0.09242249,0.05383301,0.9942474,28.09335,3.20726,-32.76346,4.628174,0.6816496,0.5036501,0.2437119,1.194033,-0.1286252,-0.06509622,-0.004981007,-0.03094115,0.4100259,-27.4743,31.47
4,-0.1307678,-0.004776001,0.991394,0.7238057,-0.1326904,-0.007766724,0.9911194,-32.27534,5.178864,-34.60953,3.960953,0.5403677,0.464241,0.9349254,-0.09242249,0.05383301,0.9942474,28.09335,3.20726,-32.76346,4.628174,0.6816496,0.5036501,0.2437119,1.194033,-0.1286252,-0.06509622,-0.004981007,-0.03094115,0.4100259,-27.4743,31.47
4,-0.1307678,-0.004776001,0.991394,0.7238057,-0.1326904,-0.007766724,0.9911194,-32.27534,5.178864,-34.60953,3.960953,0.5403677,0.464241,0.9349254,-0.09242249,0.05383301,0.9942474,28.09335,3.20726,-32.76346,4.628174,0.6816496,0.5036501,0.2438328,1.193817,-0.1285888,-0.06401957,-0.004916267,-0.03105724,0.4100259,-27.4743,31.47
4,-0.1307678,-0.004776001,0.991394,0.7238057,-0.1326904,-0.007766724,0.9911194,-32.27534,5.178864,-34.60953,3.960953,0.5403677,0.464241,0.9349254,-0.09242249,0.05383301,0.9942474,28.09335,3.20726,-32.76346,4.628174,0.6816496,0.5036501,0.2438328,1.193817,-0.1285888,-0.06401957,-0.004916267,-0.03105724,0.4100259,-27.4743,31.47
4,-0.1312866,-0.008361816,0.9913025,0.734654,-0.1322937,-0.00994873,0.9911499,-32.27394,5.176895,-34.59991,3.96077,0.5402378,0.4646209,0.9218593,-0.09144592,0.05433655,0.9943237,28.09706,3.208572,-32.79178,4.614746,0.681381,0.5037751,0.2438594,1.193729,-0.1285115,-0.06330743,-0.004766998,-0.03142143,0.4100259,-27.4743,31.47
4,-0.1312866,-0.008361816,0.9913025,0.734654,-0.1322937,-0.00994873,0.9911499,-32.27394,5.176895,-34.59991,3.96077,0.5402378,0.4646209,0.9218593,-0.09144592,0.05433655,0.9943237,28.09706,3.208572,-32.79178,4.614746,0.681381,0.5037751,0.2438594,1.193729,-0.1285115,-0.06330743,-0.004766998,-0.03142143,0.4100259,-27.4743,31.47
4,-0.1312866,-0.008361816,0.9913025,0.734654,-0.1322937,-0.00994873,0.9911499,-32.27394,5.176895,-34.59991,3.96077,0.5402378,0.4646209,0.9218593,-0.09144592,0.05433655,0.9943237,28.09706,3.208572,-32.79178,4.614746,0.681381,0.5037751,0.2439276,1.193626,-0.1284678,-0.06305709,-0.004711977,-0.0313476,0.4100259,-27.4743,31.47
4,-0.1312866,-0.008361816,0.9913025,0.734654,-0.1322937,-0.00994873,0.9911499,-32.27394,5.176895,-34.59991,3.96077,0.5402378,0.4646209,0.9218593,-0.09144592,0.05433655,0.9943237,28.09706,3.208572,-32.79178,4.614746,0.681381,0.5037751,0.2439276,1.193626,-0.1284678,-0.06305709,-0.004711977,-0.0313476,0.4100259,-27.4743,31.47
4,-0.1314392,-0.0113678,0.9912567,0.734654,-0.1321259,-0.01231384,0.9911499,-32.2737,5.175812,-34.57507,3.96051,0.540184,0.4648471,0.9218593,-0.08943176,0.04576111,0.9949341,28.1293,3.198227,-32.79124,4.577133,0.6798044,0.5056215,0.2439746,1.193617,-0.1284245,-0.06308532,-0.004813658,-0.0311509,0.4100259,-27.4743,31.47
4,-0.1314392,-0.0113678,0.9912567,0.734654,-0.1321259,-0.01231384,0.9911499,-32.2737,5.175812,-34.57507,3.96051,0.540184,0.4648471,0.9218593,-0.08943176,0.04576111,0.9949341,28.1293,3.198227,-32.79124,4.577133,0.6798044,0.5056215,0.2439746,1.193617,-0.1284245,-0.06308532,-0.004813658,-0.0311509,0.4100259,-27.4743,31.47
4,-0.09214783,0.02775574,0.9953461,0.7448298,-0.1228027,-0.0148468,0.9923096,-32.20126,4.958084,-33.76494,3.966278,0.5355509,0.4654279,0.9375084,-0.09213257,0.027771,0.9953461,28.21681,3.13533,-32.45822,4.53804,0.6764774,0.5078466,0.2439729,1.19361,-0.128395,-0.06340951,-0.005180443,-0.03134023,0.4100259,-27.4743,31.47
4,-0.09214783,0.02775574,0.9953461,0.7448298,-0.1228027,-0.0148468,0.9923096,-32.20126,4.958084,-33.76494,3.966278,0.5355509,0.4654279,0.9375084,-0.09213257,0.027771,0.9953461,28.21681,3.13533,-32.45822,4.53804,0.6764774,0.5078466,0.2439729,1.19361,-0.128395,-0.06340951,-0.005180443,-0.03134023,0.4100259,-27.4743,31.47
4,-0.07118225,0.0191803,0.9972687,0.739875,-0.1179047,-0.01164246,0.9929504,-32.19261,4.955261,-33.71794,3.982315,0.5343683,0.4645151,0.926115,-0.07112122,0.01921082,0.9972687,28.25412,3.144104,-32.42192,4.409012,0.6712248,0.508552,0.2439657,1.193626,-0.1284364,-0.06366678,-0.005711273,-0.03152134,0.4100259,-27.4743,31.47
4,-0.07118225,0.0191803,0.9972687,0.739875,-0.1179047,-0.01164246,0.9929504,-32.19261,4.955261,-33.71794,3.982315,0.5343683,0.4645151,0.926115,-0.07112122,0.01921082,0.9972687,28.25412,3.144104,-32.42192,4.409012,0.6712248,0.508552,0.2439657,1.193626,-0.1284364,-0.06366678,-0.005711273,-0.03152134,0.4100259,-27.4743,31.47
4,-0.01420593,0.03266907,0.9993591,0.7489628,-0.07098389,0.006469727,0.9974518,-31.67912,4.558487,-32.37506,4.064865,0.5078294,0.4626805,0.9191545,-0.01092529,0.03417969,0.9993439,28.5984,2.751587,-31.31055,4.555557,0.6464801,0.5091371,0.2439378,1.193744,-0.1283787,-0.06386331,-0.006270898,-0.03161763,0.4100259,-27.4743,31.47
4,-0.01420593,0.03266907,0.9993591,0.7489628,-0.07098389,0.006469727,0.9974518,-31.67912,4.558487,-32.37506,4.064865,0.5078294,0.4626805,0.9191545,-0.01092529,0.03417969,0.9993439,28.5984,2.751587,-31.31055,4.555557,0.6464801,0.5091371,0.2439378,1.193744,-0.1283787,-0.06386331,-0.006270898,-0.03161763,0.4100259,-27.4743,31.47
4,-0.01420593,0.03266907,0.9993591,0.7489628,-0.07098389,0.006469727,0.9974518,-31.67912,4.558487,-32.37506,4.064865,0.5078294,0.4626805,0.9191545,-0.01092529,0.03417969,0.9993439,28.5984,2.751587,-31.31055,4.555557,0.6464801,0.5091371,0.2439378,1.193744,-0.1283787,-0.06386331,-0.006270898,-0.03161763,0.4100259,-27.4743,31.47
4,0.04891968,0.006881714,0.998764,0.7294704,0.0450592,0.007247925,0.9989471,-30.70781,4.778671,-33.31757,4.098892,0.4541497,0.463049,0.9054595,0.06938171,0.004898071,0.9975739,29.66602,3.829773,-34.76129,4.253265,0.5980089,0.5091925,0.2438961,1.193826,-0.1283549,-0.06409947,-0.00692581,-0.03131978,0.4100259,15.24578,31.47
4,0.1206818,-0.01191711,0.9926147,0.7350213,0.1206818,-0.01191711,0.9926147,-30.20813,5.131424,-34.7085,3.957108,0.4229877,0.4667067,0.8912015,0.1564026,-0.004150391,0.9876709,29.9769,3.391724,-33.24339,4.366577,0.5699244,0.5120814,0.2438488,1.193885,-0.1284028,-0.06399419,-0.007360749,-0.031452,0.4100259,15.24578,31.47
4,0.1206818,-0.01191711,0.9926147,0.7350213,0.1206818,-0.01191711,0.9926147,-30.20813,5.131424,-34.7085,3.957108,0.4229877,0.4667067,0.8912015,0.1564026,-0.004150391,0.9876709,29.9769,3.391724,-33.24339,4.366577,0.5699244,0.5120814,0.2438488,1.193885,-0.1284028,-0.06399419,-0.007360749,-0.031452,0.4100259,15.24578,31.47
4,0.1426697,-0.008285522,0.9897308,0.7695447,0.128891,-0.01490784,0.9915314,-30.17444,5.070847,-34.59583,3.930756,0.4203801,0.4683227,0.8658845,0.1727753,0.006225586,0.9849396,30.08791,3.259155,-32.90387,4.294998,0.5627275,0.5116624,0.2438672,1.193844,-0.1284539,-0.06403365,-0.007857196,-0.03162281,0.4100259,15.24578,31.47
4,0.1426697,-0.008285522,0.9897308,0.7695447,0.128891,-0.01490784,0.9915314,-30.17444,5.070847,-34.59583,3.930756,0.4203801,0.4683227,0.8658845,0.1727753,0.006225586,0.9849396,30.08791,3.259155,-32.90387,4.294998,0.5627275,0.5116624,0.2438672,1.193844,-0.1284539,-0.06403365,-0.007857196,-0.03162281,0.4100259,15.24578,31.47
4,0.1506653,-0.01350403,0.9884796,0.7774444,0.1277161,-0.01914978,0.9916229,-30.18422,5.15126,-34.92548,3.855927,0.4207816,0.4692584,0.8814118,0.1757813,-0.00730896,0.9843903,30.09772,3.244003,-32.92795,4.27742,0.5618674,0.5148492,0.2438687,1.193774,-0.1285211,-0.06422024,-0.008332137,-0.03141669,0.4100259,15.24578,31.47
4,0.1506653,-0.01350403,0.9884796,0.7774444,0.1277161,-0.01914978,0.9916229,-30.18422,5.15126,-34.92548,3.855927,0.4207816,0.4692584,0.8814118,0.1757813,-0.00730896,0.9843903,30.09772,3.244003,-32.92795,4.27742,0.5618674,0.5148492,0.2438687,1.193774,-0.1285211,-0.06422024,-0.008332137,-0.03141669,0.4100259,15.24578,31.47
4,0.1299133,-0.01701355,0.9913788,0.7790365,0.1290436,-0.01713562,0.9914856,-30.19035,5.139755,-34.87981,3.85788,0.4207816,0.4688902,0.8741843,0.1692352,-0.01126099,0.9855042,30.10298,3.246231,-32.9503,4.266846,0.5628582,0.5156435,0.2439148,1.193833,-0.1285697,-0.06438941,-0.008521348,-0.03195096,0.4100259,15.24578,31.47
4,0.1299133,-0.01701355,0.9913788,0.7790365,0.1290436,-0.01713562,0.9914856,-30.19035,5.139755,-34.87981,3.85788,0.4207816,0.4688902,0.8741843,0.1692352,-0.01126099,0.9855042,30.10298,3.246231,-32.9503,4.266846,0.5628582,0.5156435,0.2439148,1.193833,-0.1285697,-0.06438941,-0.008521348,-0.03195096,0.4100259,15.24578,31.47
4,0.1621399,-0.01376343,0.9866638,0.7796028,0.1279449,-0.010849,0.9917145,-30.20285,5.120529,-34.77107,3.881821,0.4214689,0.4674549,0.8857452,0.168457,-0.01429749,0.9855957,30.11134,3.283112,-33.00883,4.249023,0.5627388,0.5154269,0.2439893,1.193947,-0.1284907,-0.06468874,-0.008476639,-0.03226677,0.4100259,15.24578,31.47
4,0.1621399,-0.01376343,0.9866638,0.7796028,0.1279449,-0.010849,0.9917145,-30.20285,5.120529,-34.77107,3.881821,0.4214689,0.4674549,0.8857452,0.168457,-0.01429749,0.9855957,30.11134,3.283112,-33.00883,4.249023,0.5627388,0.5154269,0.2439893,1.193947,-0.1284907,-0.06468874,-0.008476639,-0.03226677,0.4100259,15.24578,31.47
4,0.1554413,-0.01568604,0.9877167,0.7843236,0.1261597,-0.01081848,0.9919434,-30.21272,5.101532,-34.67537,3.90065,0.4221767,0.4672465,0.8768268,0.1686096,-0.0178833,0.9855042,30.11739,3.320709,-33.06851,4.237015,0.5625395,0.51531,0.24401,1.194009,-0.1284511,-0.0647654,-0.008471363,-0.03217566,0.4100259,15.24578,31.47
4,0.1554413,-0.01568604,0.9877167,0.7843236,0.1261597,-0.01081848,0.9919434,-30.21272,5.101532,-34.67537,3.90065,0.4221767,0.4672465,0.8768268,0.1686096,-0.0178833,0.9855042,30.11739,3.320709,-33.06851,4.237015,0.5625395,0.51531,0.24401,1.194009,-0.1284511,-0.0647654,-0.008471363,-0.03217566,0.4100259,15.24578,31.47
4,0.1557007,-0.01669312,0.9876556,0.7759774,0.1264343,-0.01115417,0.9918976,-30.2159,5.101074,-34.66913,3.907181,0.422244,0.4672696,0.8761255,0.1681824,-0.01907349,0.9855652,30.11896,3.327438,-33.08264,4.247833,0.5625795,0.5154269,0.2440633,1.193999,-0.1284583,-0.06482784,-0.008285508,-0.03193696,0.4100259,15.24578,31.47
4,0.1545105,-0.01655579,0.9878387,0.7759774,0.1266937,-0.01153564,0.9918671,-30.21907,5.100601,-34.6629,3.900787,0.4223114,0.4672928,0.8761255,0.1681213,-0.01902771,0.9855804,30.12054,3.334183,-33.09679,4.238785,0.5625395,0.51531,0.2441827,1.193962,-0.1284873,-0.06473618,-0.00805294,-0.03178988,0.4100259,13.26208,31.47
4,0.1545105,-0.01655579,0.9878387,0.7759774,0.1266937,-0.01153564,0.9918671,-30.21907,5.100601,-34.6629,3.900787,0.4223114,0.4672928,0.8761255,0.1681213,-0.01902771,0.9855804,30.12054,3.334183,-33.09679,4.238785,0.5625395,0.51531,0.2441827,1.193962,-0.1284873,-0.06473618,-0.00805294,-0.03178988,0.4100259,13.26208,31.47
4,0.1545105,-0.01655579,0.9878387,0.7759774,0.1266937,-0.01153564,0.9918671,-30.21907,5.100601,-34.6629,3.900787,0.4223114,0.4672928,0.8761255,0.1681213,-0.01902771,0.9855804,30.12054,3.334183,-33.09679,4.238785,0.5625395,0.51531,0.2442857,1.193892,-0.1284639,-0.06466409,-0.008086179,-0.031919,0.4100259,13.26208,31.47
4,0.1545105,-0.01655579,0.9878387,0.7759774,0.1266937,-0.01153564,0.9918671,-30.21907,5.100601,-34.6629,3.900787,0.4223114,0.4672928,0.8761255,0.1681213,-0.01902771,0.9855804,30.12054,3.334183,-33.09679,4.238785,0.5625395,0.51531,0.2443858,1.193761,-0.1284513,-0.06421652,-0.007895034,-0.03227438,0.4100259,13.26208,31.47
4,0.1545105,-0.01655579,0.9878387,0.7759774,0.1266937,-0.01153564,0.9918671,-30.21907,5.100601,-34.6629,3.900787,0.4223114,0.4672928,0.8761255,0.1681213,-0.01902771,0.9855804,30.12054,3.334183,-33.09679,4.238785,0.5625395,0.51531,0.2443858,1.193761,-0.1284513,-0.06421652,-0.007895034,-0.03227438,0.4100259,13.26208,31.47
4,0.1545105,-0.01655579,0.9878387,0.7759774,0.1266937,-0.01153564,0.9918671,-30.21907,5.100601,-34.6629,3.900787,0.4223114,0.4672928,0.8761255,0.1681213,-0.01902771,0.9855804,30.12054,3.334183,-33.09679,4.238785,0.5625395,0.51531,0.2444699,1.193649,-0.1284987,-0.06381219,-0.007671029,-0.03236751,0.4100259,13.26208,31.47
4,0.1537323,-0.01737976,0.9879456,0.7821611,0.1271667,-0.01246643,0.9917908,-30.22205,5.089722,-34.61287,3.908661,0.4223577,0.4673823,0.8826362,0.1685791,-0.02012634,0.9854736,30.12201,3.342712,-33.11899,4.247864,0.5624286,0.5154269,0.2444866,1.193489,-0.1285274,-0.06341479,-0.00742324,-0.03246611,0.4100259,13.26208,31.47
4,0.1537323,-0.01737976,0.9879456,0.7821611,0.1271667,-0.01246643,0.9917908,-30.22205,5.089722,-34.61287,3.908661,0.4223577,0.4673823,0.8826362,0.1685791,-0.02012634,0.9854736,30.12201,3.342712,-33.11899,4.247864,0.5624286,0.5154269,0.2446053,1.193285,-0.1285683,-0.0628342,-0.00741822,-0.03257905,0.4100259,13.26208,31.47
4,0.1537323,-0.01737976,0.9879456,0.7821611,0.1271667,-0.01246643,0.9917908,-30.22205,5.089722,-34.61287,3.908661,0.4223577,0.4673823,0.8826362,0.1685791,-0.02012634,0.9854736,30.12201,3.342712,-33.11899,4.247864,0.5624286,0.5154269,0.2446305,1.192742,-0.1287612,-0.06069866,-0.007280346,-0.03246542,0.4100259,13.26208,31.47
4,0.1537323,-0.01737976,0.9879456,0.7821611,0.1271667,-0.01246643,0.9917908,-30.22205,5.089722,-34.61287,3.908661,0.4223577,0.4673823,0.8826362,0.1685791,-0.02012634,0.9854736,30.12201,3.342712,-33.11899,4.247864,0.5624286,0.5154269,0.244643,1.192443,-0.1288557,-0.05937576,-0.007272154,-0.03241214,0.4100259,13.26208,31.47
4,0.1537323,-0.01737976,0.9879456,0.7821611,0.1271667,-0.01246643,0.9917908,-30.22205,5.089722,-34.61287,3.908661,0.4223577,0.4673823,0.8826362,0.1685791,-0.02012634,0.9854736,30.12201,3.342712,-33.11899,4.247864,0.5624286,0.5154269,0.244643,1.192443,-0.1288557,-0.05937576,-0.007272154,-0.03241214,0.4100259,13.26208,31.47
4,0.144104,-0.01068115,0.989502,0.7885351,0.1234436,-0.01132202,0.9922791,-30.24048,5.006653,-34.53616,4.005798,0.4237051,0.4694412,0.8874661,0.1677704,-0.00994873,0.9857635,30.18254,3.28598,-33.29849,4.316101,0.5605527,0.5173935,0.2446207,1.192178,-0.1289515,-0.05793249,-0.007404146,-0.03259186,0.4100259,13.26208,31.47
4,0.1411285,-0.01934814,0.9897919,0.7834803,0.1352844,-0.02323914,0.9905243,-30.2299,5.029388,-34.5473,3.939545,0.4212278,0.4708656,0.8739157,0.1706085,0.000289917,0.9853363,30.21307,3.336044,-33.37837,4.409973,0.5590626,0.5146483,0.2445974,1.191792,-0.1291314,-0.05611717,-0.007809639,-0.03288906,0.4100259,13.26208,31.47
4,0.1716461,0.005157471,0.9851379,0.7560275,0.137085,-0.02415466,0.9902496,-30.25137,5.477737,-35.69531,4.093323,0.4212648,0.4659705,0.8810374,0.1721802,0.005630493,0.9850464,30.25354,3.453049,-33.42578,4.48259,0.5574256,0.5100717,0.244622,1.191707,-0.12913,-0.055972,-0.008149507,-0.03309276,0.4100259,13.26208,31.47
4,0.1716461,0.005157471,0.9851379,0.7560275,0.137085,-0.02415466,0.9902496,-30.25137,5.477737,-35.69531,4.093323,0.4212648,0.4659705,0.8810374,0.1721802,0.005630493,0.9850464,30.25354,3.453049,-33.42578,4.48259,0.5574256,0.5100717,0.244622,1.191707,-0.12913,-0.055972,-0.008149507,-0.03309276,0.4100259,13.26208,31.47
4,0.1535034,0.008361816,0.9880981,0.7042141,0.1351471,0.02397156,0.9905243,-30.2731,5.688187,-35.8692,4.490036,0.4223959,0.4517322,0.8668658,0.1535034,0.008361816,0.9880981,30.29005,3.724533,-33.93283,4.301331,0.5597196,0.5045812,0.2445668,1.192055,-0.1291032,-0.05758964,-0.008623903,-0.03318988,0.4100259,13.26208,31.47
4,0.1535034,0.008361816,0.9880981,0.7042141,0.1351471,0.02397156,0.9905243,-30.2731,5.688187,-35.8692,4.490036,0.4223959,0.4517322,0.8668658,0.1535034,0.008361816,0.9880981,30.29005,3.724533,-33.93283,4.301331,0.5597196,0.5045812,0.2445668,1.192055,-0.1291032,-0.05758964,-0.008623903,-0.03318988,0.4100259,13.26208,31.47
