Second,eye_comb_direction_x,eye_comb_direction_y,eye_comb_direction_z,eye_r_openness,eye_r_direction_x,eye_r_direction_y,eye_r_direction_z,eye_r_origin_x,eye_r_origin_y,eye_r_origin_z,eye_r_pupil_diameter,eye_r_pupil_position_x,eye_r_pupil_position_y,eye_l_openness,eye_l_direction_x,eye_l_direction_y,eye_l_direction_z,eye_l_origin_x,eye_l_origin_y,eye_l_origin_z,eye_l_pupil_diameter,eye_l_pupil_position_x,eye_l_pupil_position_y,head_position_x,head_position_y,head_position_z,head_rotation_roll,head_rotation_pitch,head_rotation_yaw,EDA,BVP,TMP
0,0.0,0.0,0.0,0.0,0.0,0.0,0.0,0.0,0.0,0.0,0.0,0.0,0.0,0.0,0.0,0.0,0.0,0.0,0.0,0.0,0.0,0.0,0.0,0.0,0.0,0.0,0.0,0.0,0.0,0.9720752957436517,0.08877132924788379,30.717596130592504
0,-0.05363464,0.01246643,0.9984741,0.9829275,-0.05363464,0.01246643,0.9984741,-28.00912,-0.130127,-34.7908,4.606583,0.3734808,0.6492952,0.6348431,0.0,0.0,0.0,32.36754,-0.8393707,-31.06198,-1.0,0.5132925,0.634813,0.2154043,1.174552,-0.2371576,0.001539248,0.02552846,0.0007012406,0.9720752957436517,0.08877132924788379,30.717596130592504
1,-0.06391907,0.04606628,0.9968872,0.9918762,-0.06391907,0.04606628,0.9968872,-27.98897,-0.1391907,-34.80374,4.758865,0.3747372,0.6438803,0.6379057,0.0,0.0,0.0,32.34627,-0.7511444,-31.02592,-1.0,0.5172024,0.6319277,0.216524,1.175924,-0.2385272,-0.004730914,0.02714192,-0.000622439,1.013869,0.08877132924788379,30.717596130592504
1,-0.06391907,0.04606628,0.9968872,0.9918762,-0.06391907,0.04606628,0.9968872,-27.98897,-0.1391907,-34.80374,4.758865,0.3747372,0.6438803,0.6379057,0.0,0.0,0.0,32.34627,-0.7511444,-31.02592,-1.0,0.5172024,0.6319277,0.216524,1.175924,-0.2385272,-0.004730914,0.02714192,-0.000622439,1.013869,0.08877132924788379,30.717596130592504
1,-0.06391907,0.04606628,0.9968872,0.9918762,-0.06391907,0.04606628,0.9968872,-27.98897,-0.1391907,-34.80374,4.758865,0.3747372,0.6438803,0.6379057,0.0,0.0,0.0,32.34627,-0.7511444,-31.02592,-1.0,0.5172024,0.6319277,0.216524,1.175924,-0.2385272,-0.004730914,0.02714192,-0.000622439,1.013869,0.08877132924788379,30.717596130592504
1,-0.06391907,0.04606628,0.9968872,0.9918762,-0.06391907,0.04606628,0.9968872,-27.98897,-0.1391907,-34.80374,4.758865,0.3747372,0.6438803,0.6379057,0.0,0.0,0.0,32.34627,-0.7511444,-31.02592,-1.0,0.5172024,0.6319277,0.216524,1.175924,-0.2385272,-0.004730914,0.02714192,-0.000622439,1.013869,0.08877132924788379,30.717596130592504
1,-0.06391907,0.04606628,0.9968872,0.9918762,-0.06391907,0.04606628,0.9968872,-27.98897,-0.1391907,-34.80374,4.758865,0.3747372,0.6438803,0.6379057,0.0,0.0,0.0,32.34627,-0.7511444,-31.02592,-1.0,0.5172024,0.6319277,0.216524,1.175924,-0.2385272,-0.004730914,0.02714192,-0.000622439,1.013869,0.08877132924788379,30.717596130592504
1,-0.06391907,0.04606628,0.9968872,0.9918762,-0.06391907,0.04606628,0.9968872,-27.98897,-0.1391907,-34.80374,4.758865,0.3747372,0.6438803,0.6379057,0.0,0.0,0.0,32.34627,-0.7511444,-31.02592,-1.0,0.5172024,0.6319277,0.216524,1.175924,-0.2385272,-0.004730914,0.02714192,-0.000622439,1.013869,0.08877132924788379,30.717596130592504
1,-0.06391907,0.04606628,0.9968872,0.9918762,-0.06391907,0.04606628,0.9968872,-27.98897,-0.1391907,-34.80374,4.758865,0.3747372,0.6438803,0.6379057,0.0,0.0,0.0,32.34627,-0.7511444,-31.02592,-1.0,0.5172024,0.6319277,0.216524,1.175924,-0.2385272,-0.004730914,0.02714192,-0.000622439,1.013869,0.08877132924788379,30.717596130592504
1,-0.06391907,0.04606628,0.9968872,0.9918762,-0.06391907,0.04606628,0.9968872,-27.98897,-0.1391907,-34.80374,4.758865,0.3747372,0.6438803,0.6379057,0.0,0.0,0.0,32.34627,-0.7511444,-31.02592,-1.0,0.5172024,0.6319277,0.216524,1.175924,-0.2385272,-0.004730914,0.02714192,-0.000622439,1.013869,0.08877132924788379,30.717596130592504
1,-0.06391907,0.04606628,0.9968872,0.9918762,-0.06391907,0.04606628,0.9968872,-27.98897,-0.1391907,-34.80374,4.758865,0.3747372,0.6438803,0.6379057,0.0,0.0,0.0,32.34627,-0.7511444,-31.02592,-1.0,0.5172024,0.6319277,0.216524,1.175924,-0.2385272,-0.004730914,0.02714192,-0.000622439,1.013869,0.08877132924788379,30.717596130592504
1,-0.0335083,-0.002838135,0.9994202,0.98402,0.0,0.0,0.0,-27.91611,-0.2778168,-34.83083,-1.0,0.3710836,0.6576742,0.6391506,0.0003204346,-0.002410889,0.9999847,32.46869,-0.9382477,-31.12701,5.220535,0.5071794,0.6421419,0.2176086,1.174741,-0.2380944,0.0002729575,0.02755627,-0.0006573687,1.013869,0.08877132924788379,30.717596130592504
1,-0.0335083,-0.002838135,0.9994202,0.98402,0.0,0.0,0.0,-27.91611,-0.2778168,-34.83083,-1.0,0.3710836,0.6576742,0.6391506,0.0003204346,-0.002410889,0.9999847,32.46869,-0.9382477,-31.12701,5.220535,0.5071794,0.6421419,0.2176086,1.174741,-0.2380944,0.0002729575,0.02755627,-0.0006573687,1.013869,0.08877132924788379,30.717596130592504
1,-0.0335083,-0.002838135,0.9994202,0.98402,0.0,0.0,0.0,-27.91611,-0.2778168,-34.83083,-1.0,0.3710836,0.6576742,0.6391506,0.0003204346,-0.002410889,0.9999847,32.46869,-0.9382477,-31.12701,5.220535,0.5071794,0.6421419,0.2176086,1.174741,-0.2380944,0.0002729575,0.02755627,-0.0006573687,1.013869,0.08877132924788379,30.717596130592504
1,-0.0335083,-0.002838135,0.9994202,0.98402,0.0,0.0,0.0,-27.91611,-0.2778168,-34.83083,-1.0,0.3710836,0.6576742,0.6391506,0.0003204346,-0.002410889,0.9999847,32.46869,-0.9382477,-31.12701,5.220535,0.5071794,0.6421419,0.2176086,1.174741,-0.2380944,0.0002729575,0.02755627,-0.0006573687,1.013869,0.08877132924788379,30.717596130592504
1,-0.0335083,-0.002838135,0.9994202,0.98402,0.0,0.0,0.0,-27.91611,-0.2778168,-34.83083,-1.0,0.3710836,0.6576742,0.6391506,0.0003204346,-0.002410889,0.9999847,32.46869,-0.9382477,-31.12701,5.220535,0.5071794,0.6421419,0.2176086,1.174741,-0.2380944,0.0002729575,0.02755627,-0.0006573687,1.013869,0.08877132924788379,30.717596130592504
1,-0.0335083,-0.002838135,0.9994202,0.98402,0.0,0.0,0.0,-27.91611,-0.2778168,-34.83083,-1.0,0.3710836,0.6576742,0.6391506,0.0003204346,-0.002410889,0.9999847,32.46869,-0.9382477,-31.12701,5.220535,0.5071794,0.6421419,0.2176086,1.174741,-0.2380944,0.0002729575,0.02755627,-0.0006573687,1.013869,0.08877132924788379,30.717596130592504
1,-0.0335083,-0.002838135,0.9994202,0.98402,0.0,0.0,0.0,-27.91611,-0.2778168,-34.83083,-1.0,0.3710836,0.6576742,0.6391506,0.0003204346,-0.002410889,0.9999847,32.46869,-0.9382477,-31.12701,5.220535,0.5071794,0.6421419,0.2176086,1.174741,-0.2380944,0.0002729575,0.02755627,-0.0006573687,1.013869,0.08877132924788379,30.717596130592504
1,-0.09963989,-0.1599274,0.9820709,1.0,0.0,0.0,0.0,-28.52551,-0.9416504,-34.74115,-1.0,0.4171306,0.7198477,1.0,-0.09963989,-0.1599274,0.9820709,31.58298,-1.782425,-31.2084,5.365356,0.5555987,0.7028217,0.2178921,1.174567,-0.2380977,0.0008368719,0.02872286,-0.001214584,1.013869,0.08877132924788379,30.717596130592504
1,-0.09963989,-0.1599274,0.9820709,1.0,0.0,0.0,0.0,-28.52551,-0.9416504,-34.74115,-1.0,0.4171306,0.7198477,1.0,-0.09963989,-0.1599274,0.9820709,31.58298,-1.782425,-31.2084,5.365356,0.5555987,0.7028217,0.2178921,1.174567,-0.2380977,0.0008368719,0.02872286,-0.001214584,1.013869,0.08877132924788379,30.717596130592504
1,-0.09963989,-0.1599274,0.9820709,1.0,0.0,0.0,0.0,-28.52551,-0.9416504,-34.74115,-1.0,0.4171306,0.7198477,1.0,-0.09963989,-0.1599274,0.9820709,31.58298,-1.782425,-31.2084,5.365356,0.5555987,0.7028217,0.2178921,1.174567,-0.2380977,0.0008368719,0.02872286,-0.001214584,1.013869,0.08877132924788379,30.717596130592504
1,-0.09963989,-0.1599274,0.9820709,1.0,0.0,0.0,0.0,-28.52551,-0.9416504,-34.74115,-1.0,0.4171306,0.7198477,1.0,-0.09963989,-0.1599274,0.9820709,31.58298,-1.782425,-31.2084,5.365356,0.5555987,0.7028217,0.2179576,1.174576,-0.2380985,0.0008188725,0.02927474,-0.001614838,1.013869,0.08877132924788379,30.717596130592504
1,-0.09963989,-0.1599274,0.9820709,1.0,0.0,0.0,0.0,-28.52551,-0.9416504,-34.74115,-1.0,0.4171306,0.7198477,1.0,-0.09963989,-0.1599274,0.9820709,31.58298,-1.782425,-31.2084,5.365356,0.5555987,0.7028217,0.2180682,1.174696,-0.2380564,0.0001726335,0.0295889,-0.001818807,1.013869,0.08877132924788379,30.717596130592504
1,0.09788513,-0.2724762,0.9571686,1.0,0.0,0.0,0.0,-28.52551,-0.9416504,-34.74115,-1.0,0.4167262,0.7202086,1.0,0.09788513,-0.2724762,0.9571686,30.61139,-1.238998,-31.04507,5.287186,0.556208,0.7025089,0.218105,1.174776,-0.2380394,-0.000211432,0.02976939,-0.001871303,1.013869,0.08877132924788379,30.717596130592504
1,0.09788513,-0.2724762,0.9571686,1.0,0.0,0.0,0.0,-28.52551,-0.9416504,-34.74115,-1.0,0.4167262,0.7202086,1.0,0.09788513,-0.2724762,0.9571686,30.61139,-1.238998,-31.04507,5.287186,0.556208,0.7025089,0.218105,1.174776,-0.2380394,-0.000211432,0.02976939,-0.001871303,1.013869,0.08877132924788379,30.717596130592504
1,-0.1375427,-0.2012939,0.9698181,1.0,-0.1634674,-0.190094,0.9680481,-28.75798,-1.024612,-34.69803,4.654816,0.4188757,0.7189214,1.0,0.3063049,-0.3615417,0.8806,29.67319,-0.6841431,-30.88756,5.380798,0.5538166,0.7006618,0.218199,1.174895,-0.2380215,-0.0005854287,0.02990822,-0.001739234,1.013869,0.08877132924788379,30.717596130592504
1,-0.1375427,-0.2012939,0.9698181,1.0,-0.1634674,-0.190094,0.9680481,-28.75798,-1.024612,-34.69803,4.654816,0.4188757,0.7189214,1.0,0.3063049,-0.3615417,0.8806,29.67319,-0.6841431,-30.88756,5.380798,0.5538166,0.7006618,0.218199,1.174895,-0.2380215,-0.0005854287,0.02990822,-0.001739234,1.013869,0.08877132924788379,30.717596130592504
1,-0.102478,-0.2145538,0.9713135,1.0,-0.1622467,-0.188797,0.9685059,-28.75401,-1.055725,-34.71077,4.636093,0.4185106,0.7199339,1.0,0.3098755,-0.3626862,0.8788757,29.6969,-0.6576691,-30.88321,5.368744,0.5523385,0.6999368,0.2182565,1.174868,-0.238043,-0.00059802,0.02992591,-0.001591602,1.013869,0.08877132924788379,30.717596130592504
1,-0.102478,-0.2145538,0.9713135,1.0,-0.1622467,-0.188797,0.9685059,-28.75401,-1.055725,-34.71077,4.636093,0.4185106,0.7199339,1.0,0.3098755,-0.3626862,0.8788757,29.6969,-0.6576691,-30.88321,5.368744,0.5523385,0.6999368,0.2182523,1.174879,-0.2380327,-0.0005033088,0.02994656,-0.001449505,1.013869,0.08877132924788379,30.717596130592504
1,-0.102478,-0.2145538,0.9713135,1.0,-0.1622467,-0.188797,0.9685059,-28.75401,-1.055725,-34.71077,4.636093,0.4185106,0.7199339,1.0,0.3098755,-0.3626862,0.8788757,29.6969,-0.6576691,-30.88321,5.368744,0.5523385,0.6999368,0.2182523,1.174879,-0.2380327,-0.0005033088,0.02994656,-0.001449505,1.013869,0.08877132924788379,30.717596130592504
1,-0.102478,-0.2145538,0.9713135,1.0,-0.1622467,-0.188797,0.9685059,-28.75401,-1.055725,-34.71077,4.636093,0.4185106,0.7199339,1.0,0.3098755,-0.3626862,0.8788757,29.6969,-0.6576691,-30.88321,5.368744,0.5523385,0.6999368,0.2182667,1.174867,-0.2380059,-0.000422864,0.0299677,-0.001434001,1.013869,0.08877132924788379,30.717596130592504
1,-0.102478,-0.2145538,0.9713135,1.0,-0.1622467,-0.188797,0.9685059,-28.75401,-1.055725,-34.71077,4.636093,0.4185106,0.7199339,1.0,0.3098755,-0.3626862,0.8788757,29.6969,-0.6576691,-30.88321,5.368744,0.5523385,0.6999368,0.2182709,1.174899,-0.2379578,-0.0003860202,0.02993885,-0.001423572,1.013869,0.08877132924788379,30.717596130592504
1,-0.102478,-0.2145538,0.9713135,1.0,-0.1622467,-0.188797,0.9685059,-28.75401,-1.055725,-34.71077,4.636093,0.4185106,0.7199339,1.0,0.3098755,-0.3626862,0.8788757,29.6969,-0.6576691,-30.88321,5.368744,0.5523385,0.6999368,0.2182469,1.174973,-0.2378622,-0.0005033088,0.02994258,-0.001529537,1.013869,0.08877132924788379,30.717596130592504
1,-0.102478,-0.2145538,0.9713135,1.0,-0.1622467,-0.188797,0.9685059,-28.75401,-1.055725,-34.71077,4.636093,0.4185106,0.7199339,1.0,0.3098755,-0.3626862,0.8788757,29.6969,-0.6576691,-30.88321,5.368744,0.5523385,0.6999368,0.2182469,1.174973,-0.2378622,-0.0005033088,0.02994258,-0.001529537,1.013869,0.08877132924788379,30.717596130592504
1,-0.4249268,-0.007598877,0.9051819,1.0,0.0,0.0,0.0,-28.75401,-1.055725,-34.71077,-1.0,0.418508,0.7200053,1.0,-0.09259033,-0.1571503,0.9832153,31.70035,-1.75383,-31.2229,5.288239,0.5502151,0.7013098,0.2182515,1.174972,-0.2378169,-0.000634296,0.02993114,-0.00155849,1.013869,0.08877132924788379,30.717596130592504
1,-0.4249268,-0.007598877,0.9051819,1.0,0.0,0.0,0.0,-28.75401,-1.055725,-34.71077,-1.0,0.418508,0.7200053,1.0,-0.09259033,-0.1571503,0.9832153,31.70035,-1.75383,-31.2229,5.288239,0.5502151,0.7013098,0.2182524,1.174972,-0.2376804,-0.0006103516,0.02993114,-0.001449505,1.013869,0.08877132924788379,30.717596130592504
1,-0.4249268,-0.007598877,0.9051819,1.0,0.0,0.0,0.0,-28.75401,-1.055725,-34.71077,-1.0,0.418508,0.7200053,1.0,-0.09259033,-0.1571503,0.9832153,31.70035,-1.75383,-31.2229,5.288239,0.5502151,0.7013098,0.2182524,1.174972,-0.2376804,-0.0006103516,0.02993114,-0.001449505,1.013869,0.08877132924788379,30.717596130592504
1,-0.4249268,-0.007598877,0.9051819,1.0,0.0,0.0,0.0,-28.75401,-1.055725,-34.71077,-1.0,0.418508,0.7200053,1.0,-0.09259033,-0.1571503,0.9832153,31.70035,-1.75383,-31.2229,5.288239,0.5502151,0.7013098,0.218226,1.174925,-0.2376289,-0.0005033088,0.02997441,-0.001397159,1.013869,-2.168762,30.717596130592504
1,-0.4249268,-0.007598877,0.9051819,1.0,0.0,0.0,0.0,-28.75401,-1.055725,-34.71077,-1.0,0.418508,0.7200053,1.0,-0.09259033,-0.1571503,0.9832153,31.70035,-1.75383,-31.2229,5.288239,0.5502151,0.7013098,0.2181798,1.174841,-0.2375541,0.0,0.02987058,-0.001326023,1.013869,-2.168762,30.717596130592504
1,-0.4249268,-0.007598877,0.9051819,1.0,0.0,0.0,0.0,-28.75401,-1.055725,-34.71077,-1.0,0.418508,0.7200053,1.0,-0.09259033,-0.1571503,0.9832153,31.70035,-1.75383,-31.2229,5.288239,0.5502151,0.7013098,0.2181798,1.174841,-0.2375541,0.0,0.02987058,-0.001326023,1.013869,-2.168762,30.717596130592504
1,-0.2761078,-0.1129456,0.9544525,1.0,0.0,0.0,0.0,-28.75401,-1.055725,-34.71077,-1.0,0.4185053,0.7200768,1.0,0.1090546,-0.2722015,0.9560242,30.71031,-1.217133,-31.06245,5.287003,0.5507729,0.7018917,0.2181295,1.174755,-0.2375513,0.0002729575,0.02978991,-0.001250849,1.013869,-2.168762,30.717596130592504
1,-0.2761078,-0.1129456,0.9544525,1.0,0.0,0.0,0.0,-28.75401,-1.055725,-34.71077,-1.0,0.4185053,0.7200768,1.0,0.1090546,-0.2722015,0.9560242,30.71031,-1.217133,-31.06245,5.287003,0.5507729,0.7018917,0.2181096,1.174671,-0.2373871,0.001118793,0.02966183,-0.001359317,1.013869,-2.168762,30.717596130592504
1,-0.2761078,-0.1129456,0.9544525,1.0,0.0,0.0,0.0,-28.75401,-1.055725,-34.71077,-1.0,0.4185053,0.7200768,1.0,0.1090546,-0.2722015,0.9560242,30.71031,-1.217133,-31.06245,5.287003,0.5507729,0.7018917,0.2181096,1.174671,-0.2373871,0.001118793,0.02966183,-0.001359317,1.013869,-2.168762,30.717596130592504
1,-0.2761078,-0.1129456,0.9544525,1.0,0.0,0.0,0.0,-28.75401,-1.055725,-34.71077,-1.0,0.4185053,0.7200768,1.0,0.1090546,-0.2722015,0.9560242,30.71031,-1.217133,-31.06245,5.287003,0.5507729,0.7018917,0.2181164,1.174595,-0.2372948,0.001464844,0.02953395,-0.001314737,1.013869,-2.168762,30.717596130592504
1,-0.2761078,-0.1129456,0.9544525,1.0,0.0,0.0,0.0,-28.75401,-1.055725,-34.71077,-1.0,0.4185053,0.7200768,1.0,0.1090546,-0.2722015,0.9560242,30.71031,-1.217133,-31.06245,5.287003,0.5507729,0.7018917,0.2180674,1.174459,-0.2370625,0.002267356,0.0294923,-0.001164477,1.013869,-2.168762,30.717596130592504
1,-0.0753479,-0.1289368,0.9887695,1.0,-0.1589661,-0.07395935,0.9844971,-28.75638,-1.530533,-34.99904,4.551346,0.4181217,0.7188301,1.0,0.3081055,-0.3582458,0.8813019,29.68649,-0.6344299,-30.8689,5.402451,0.5530341,0.6980488,0.2180563,1.174389,-0.236946,0.002537184,0.02940755,-0.001220703,1.013869,-2.168762,30.717596130592504
1,-0.0753479,-0.1289368,0.9887695,1.0,-0.1589661,-0.07395935,0.9844971,-28.75638,-1.530533,-34.99904,4.551346,0.4181217,0.7188301,1.0,0.3081055,-0.3582458,0.8813019,29.68649,-0.6344299,-30.8689,5.402451,0.5530341,0.6980488,0.2180563,1.174389,-0.236946,0.002537184,0.02940755,-0.001220703,1.013869,-2.168762,30.717596130592504
1,-0.0753479,-0.1289368,0.9887695,1.0,-0.1589661,-0.07395935,0.9844971,-28.75638,-1.530533,-34.99904,4.551346,0.4181217,0.7188301,1.0,0.3081055,-0.3582458,0.8813019,29.68649,-0.6344299,-30.8689,5.402451,0.5530341,0.6980488,0.2180479,1.174296,-0.2368743,0.002922048,0.02931391,-0.001098633,1.013869,-2.168762,30.717596130592504
1,-0.0753479,-0.1289368,0.9887695,1.0,-0.1589661,-0.07395935,0.9844971,-28.75638,-1.530533,-34.99904,4.551346,0.4181217,0.7188301,1.0,0.3081055,-0.3582458,0.8813019,29.68649,-0.6344299,-30.8689,5.402451,0.5530341,0.6980488,0.2180365,1.174176,-0.2365832,0.00348275,0.02910808,-0.0009917039,1.013869,-2.168762,30.717596130592504
2,-0.08045959,-0.141449,0.9866638,1.0,0.0,0.0,0.0,-28.75638,-1.530533,-34.99904,-1.0,0.4182383,0.7166368,1.0,-0.08045959,-0.141449,0.9866638,31.70789,-1.712006,-31.20345,4.846146,0.5478932,0.6962913,0.2180187,1.174151,-0.2364606,0.003890961,0.0291398,-0.001170857,1.013869,-2.168762,30.717596130592504
2,-0.08045959,-0.141449,0.9866638,1.0,0.0,0.0,0.0,-28.75638,-1.530533,-34.99904,-1.0,0.4182383,0.7166368,1.0,-0.08045959,-0.141449,0.9866638,31.70789,-1.712006,-31.20345,4.846146,0.5478932,0.6962913,0.2180187,1.174151,-0.2364606,0.003890961,0.0291398,-0.001170857,1.013869,-3.697678,30.717596130592504
2,-0.07635498,-0.2030945,0.9761658,1.0,-0.1539612,-0.1697235,0.9733887,-28.72536,-0.9849091,-34.69949,4.002686,0.4165119,0.7129761,1.0,0.3141327,-0.3455048,0.8842621,29.73761,-0.562561,-30.85411,4.808502,0.5495622,0.6928264,0.2179797,1.173996,-0.2362226,0.004630634,0.02903863,-0.001238878,1.013869,-26.41943,30.717596130592504
2,-0.1373291,-0.07142639,0.9879456,1.0,-0.1558075,-0.04533386,0.9867401,-28.73242,-1.485458,-34.99084,4.019135,0.4170905,0.711216,1.0,-0.08857727,-0.1389465,0.9863281,31.73235,-1.633072,-31.17723,4.748154,0.5484422,0.6926711,0.2179499,1.173776,-0.2360209,0.005687743,0.02899857,-0.001660336,1.013869,-26.41943,30.717596130592504
2,-0.1373291,-0.07142639,0.9879456,1.0,-0.1558075,-0.04533386,0.9867401,-28.73242,-1.485458,-34.99084,4.019135,0.4170905,0.711216,1.0,-0.08857727,-0.1389465,0.9863281,31.73235,-1.633072,-31.17723,4.748154,0.5484422,0.6926711,0.2179499,1.173776,-0.2360209,0.005687743,0.02899857,-0.001660336,1.013869,-26.41943,30.717596130592504
2,-0.1373291,-0.07142639,0.9879456,1.0,-0.1558075,-0.04533386,0.9867401,-28.73242,-1.485458,-34.99084,4.019135,0.4170905,0.711216,1.0,-0.08857727,-0.1389465,0.9863281,31.73235,-1.633072,-31.17723,4.748154,0.5484422,0.6926711,0.218011,1.173489,-0.2357891,0.007106338,0.02894405,-0.002089507,1.013869,-26.41943,30.717596130592504
2,-0.1373291,-0.07142639,0.9879456,1.0,-0.1558075,-0.04533386,0.9867401,-28.73242,-1.485458,-34.99084,4.019135,0.4170905,0.711216,1.0,-0.08857727,-0.1389465,0.9863281,31.73235,-1.633072,-31.17723,4.748154,0.5484422,0.6926711,0.218011,1.173489,-0.2357891,0.007106338,0.02894405,-0.002089507,1.013869,-26.41943,30.717596130592504
2,-0.1373291,-0.07142639,0.9879456,1.0,-0.1558075,-0.04533386,0.9867401,-28.73242,-1.485458,-34.99084,4.019135,0.4170905,0.711216,1.0,-0.08857727,-0.1389465,0.9863281,31.73235,-1.633072,-31.17723,4.748154,0.5484422,0.6926711,0.218011,1.173489,-0.2357891,0.007106338,0.02894405,-0.002089507,1.013869,-26.41943,30.717596130592504
2,-0.1373291,-0.07142639,0.9879456,1.0,-0.1558075,-0.04533386,0.9867401,-28.73242,-1.485458,-34.99084,4.019135,0.4170905,0.711216,1.0,-0.08857727,-0.1389465,0.9863281,31.73235,-1.633072,-31.17723,4.748154,0.5484422,0.6926711,0.2180463,1.173244,-0.2356209,0.008406915,0.02874672,-0.002671639,1.013869,-26.41943,30.717596130592504
2,0.07795715,-0.1784363,0.9808502,1.0,0.06072998,-0.1445007,0.9876251,-29.7907,-1.044739,-34.80139,4.006989,0.4165297,0.7111608,1.0,0.1130219,-0.2473755,0.9622955,30.74142,-1.091293,-31.01506,4.731262,0.5486914,0.6919165,0.218107,1.172744,-0.2355084,0.01054549,0.02825104,-0.003007491,1.013869,-26.41943,30.717596130592504
2,0.07795715,-0.1784363,0.9808502,1.0,0.06072998,-0.1445007,0.9876251,-29.7907,-1.044739,-34.80139,4.006989,0.4165297,0.7111608,1.0,0.1130219,-0.2473755,0.9622955,30.74142,-1.091293,-31.01506,4.731262,0.5486914,0.6919165,0.218107,1.172744,-0.2355084,0.01054549,0.02825104,-0.003007491,1.013869,-26.41943,30.717596130592504
2,0.07795715,-0.1784363,0.9808502,1.0,0.06072998,-0.1445007,0.9876251,-29.7907,-1.044739,-34.80139,4.006989,0.4165297,0.7111608,1.0,0.1130219,-0.2473755,0.9622955,30.74142,-1.091293,-31.01506,4.731262,0.5486914,0.6919165,0.2180902,1.17217,-0.2354591,0.01304783,0.02703162,-0.003213488,1.013869,-26.41943,30.717596130592504
2,0.07795715,-0.1784363,0.9808502,1.0,0.06072998,-0.1445007,0.9876251,-29.7907,-1.044739,-34.80139,4.006989,0.4165297,0.7111608,1.0,0.1130219,-0.2473755,0.9622955,30.74142,-1.091293,-31.01506,4.731262,0.5486914,0.6919165,0.2180315,1.171648,-0.2353906,0.01583577,0.02535392,-0.00351045,1.013869,-26.41943,30.717596130592504
2,0.07795715,-0.1784363,0.9808502,1.0,0.06072998,-0.1445007,0.9876251,-29.7907,-1.044739,-34.80139,4.006989,0.4165297,0.7111608,1.0,0.1130219,-0.2473755,0.9622955,30.74142,-1.091293,-31.01506,4.731262,0.5486914,0.6919165,0.2180315,1.171648,-0.2353906,0.01583577,0.02535392,-0.00351045,1.013869,-26.41943,30.717596130592504
2,0.2922516,-0.2742462,0.9161682,1.0,0.2754822,-0.2285004,0.9337463,-30.84081,-0.6040039,-34.61436,4.022018,0.4159689,0.711216,1.0,0.3170929,-0.3448181,0.8834686,29.75426,-0.5590515,-30.85843,4.796265,0.5484422,0.6926711,0.2179824,1.171402,-0.2352383,0.01733055,0.02334321,-0.004085254,1.013869,-26.41943,30.717596130592504
2,0.2922516,-0.2742462,0.9161682,1.0,0.2754822,-0.2285004,0.9337463,-30.84081,-0.6040039,-34.61436,4.022018,0.4159689,0.711216,1.0,0.3170929,-0.3448181,0.8834686,29.75426,-0.5590515,-30.85843,4.796265,0.5484422,0.6926711,0.2179824,1.171402,-0.2352383,0.01733055,0.02334321,-0.004085254,1.013869,-26.41943,30.717596130592504
2,-0.07302856,-0.08389282,0.9937897,0.9371777,-0.07302856,-0.08389282,0.9937897,-27.81386,-0.8540649,-34.96614,3.929535,0.3693147,0.6944256,0.6973917,0.0,0.0,0.0,29.86571,-0.3780823,-30.8226,-1.0,0.5277655,0.6785633,0.2177354,1.171678,-0.2349943,0.01634466,0.02080502,-0.004901089,1.013869,16.73367,30.717596130592504
2,-0.07302856,-0.08389282,0.9937897,0.9371777,-0.07302856,-0.08389282,0.9937897,-27.81386,-0.8540649,-34.96614,3.929535,0.3693147,0.6944256,0.6973917,0.0,0.0,0.0,29.86571,-0.3780823,-30.8226,-1.0,0.5277655,0.6785633,0.2177354,1.171678,-0.2349943,0.01634466,0.02080502,-0.004901089,1.013869,16.73367,30.717596130592504
2,-1.0,-1.0,-1.0,0.9594643,0.0,0.0,0.0,-27.81386,-0.8540649,-34.96614,-1.0,0.3005064,0.691627,0.6466881,0.0,0.0,0.0,32.31148,-1.594421,-31.34294,-1.0,0.4689747,0.6795134,0.2173704,1.172209,-0.2347586,0.01408313,0.01690046,-0.005261783,1.013869,16.73367,30.717596130592504
2,-1.0,-1.0,-1.0,0.9594643,0.0,0.0,0.0,-27.81386,-0.8540649,-34.96614,-1.0,0.3005064,0.691627,0.6466881,0.0,0.0,0.0,32.31148,-1.594421,-31.34294,-1.0,0.4689747,0.6795134,0.2173704,1.172209,-0.2347586,0.01408313,0.01690046,-0.005261783,1.013869,16.73367,30.717596130592504
2,0.2383575,-0.04641724,0.9700623,0.9900949,0.0,0.0,0.0,-27.81386,-0.8540649,-34.96614,-1.0,0.2627437,0.6880009,0.66676,0.2383575,-0.04641724,0.9700623,33.32225,-1.31102,-31.92738,4.257507,0.4345569,0.6726492,0.2168437,1.172526,-0.2346641,0.01297912,0.01159282,-0.006727171,1.013869,16.73367,30.717596130592504
2,0.2383575,-0.04641724,0.9700623,0.9900949,0.0,0.0,0.0,-27.81386,-0.8540649,-34.96614,-1.0,0.2627437,0.6880009,0.66676,0.2383575,-0.04641724,0.9700623,33.32225,-1.31102,-31.92738,4.257507,0.4345569,0.6726492,0.2168437,1.172526,-0.2346641,0.01297912,0.01159282,-0.006727171,1.013869,16.73367,30.717596130592504
2,-1.0,-1.0,-1.0,1.0,0.0,0.0,0.0,-27.81386,-0.8540649,-34.96614,-1.0,0.2510071,0.6877127,1.0,0.0,0.0,0.0,33.80434,-1.253494,-32.26822,-1.0,0.4069914,0.6723628,0.2161402,1.172646,-0.2346077,0.01284061,0.005801873,-0.008589276,1.013869,16.73367,30.717596130592504
2,-1.0,-1.0,-1.0,1.0,0.0,0.0,0.0,-27.81386,-0.8540649,-34.96614,-1.0,0.2510071,0.6877127,1.0,0.0,0.0,0.0,33.80434,-1.253494,-32.26822,-1.0,0.4069914,0.6723628,0.2161402,1.172646,-0.2346077,0.01284061,0.005801873,-0.008589276,1.013869,16.73367,30.717596130592504
2,0.2891998,-0.02145386,0.957016,1.0,0.0,0.0,0.0,-27.81386,-0.8540649,-34.96614,-1.0,0.2590767,0.6915379,1.0,0.2891998,-0.02145386,0.957016,33.81075,-1.418259,-32.30592,4.308182,0.4085433,0.6755762,0.2155131,1.172771,-0.2344841,0.01254061,-0.0008279211,-0.01037957,1.013869,16.73367,30.717596130592504
2,0.2891998,-0.02145386,0.957016,1.0,0.0,0.0,0.0,-27.81386,-0.8540649,-34.96614,-1.0,0.2590767,0.6915379,1.0,0.2891998,-0.02145386,0.957016,33.81075,-1.418259,-32.30592,4.308182,0.4085433,0.6755762,0.2155131,1.172771,-0.2344841,0.01254061,-0.0008279211,-0.01037957,1.013869,16.73367,30.717596130592504
2,0.2832184,-0.02044678,0.9588318,1.0,0.0,0.0,0.0,-28.65176,0.059021,-35.70575,-1.0,0.2604133,0.6892592,1.0,0.2832184,-0.02044678,0.9588318,33.7428,-1.454514,-32.27129,4.276382,0.4120148,0.6761962,0.2147696,1.173147,-0.2343892,0.0114421,-0.0089703,-0.01198032,1.013869,16.73367,30.717596130592504
2,0.2832184,-0.02044678,0.9588318,1.0,0.0,0.0,0.0,-28.65176,0.059021,-35.70575,-1.0,0.2604133,0.6892592,1.0,0.2832184,-0.02044678,0.9588318,33.7428,-1.454514,-32.27129,4.276382,0.4120148,0.6761962,0.2147696,1.173147,-0.2343892,0.0114421,-0.0089703,-0.01198032,1.013869,16.73367,30.717596130592504
2,-1.0,-1.0,-1.0,1.0,0.0,0.0,0.0,-28.74812,0.09677124,-35.61075,-1.0,0.2679232,0.6844164,1.0,0.0,0.0,0.0,33.7428,-1.454514,-32.27129,-1.0,0.4154033,0.6708496,0.2139173,1.173798,-0.2342423,0.009843138,-0.0185346,-0.01408947,1.013869,16.73367,30.717596130592504
2,-1.0,-1.0,-1.0,1.0,0.0,0.0,0.0,-28.74812,0.09677124,-35.61075,-1.0,0.2679232,0.6844164,1.0,0.0,0.0,0.0,33.7428,-1.454514,-32.27129,-1.0,0.4154033,0.6708496,0.2139173,1.173798,-0.2342423,0.009843138,-0.0185346,-0.01408947,1.013869,16.73367,30.717596130592504
2,-1.0,-1.0,-1.0,1.0,0.0,0.0,0.0,-28.74812,0.09677124,-35.61075,-1.0,0.2742419,0.6799499,1.0,0.0,0.0,0.0,33.65523,-1.374023,-32.17203,-1.0,0.4192576,0.6675063,0.2128093,1.174394,-0.2340347,0.008235903,-0.02952639,-0.0162981,1.013869,16.73367,30.717596130592504
2,-1.0,-1.0,-1.0,1.0,0.0,0.0,0.0,-28.74812,0.09677124,-35.61075,-1.0,0.2742419,0.6799499,1.0,0.0,0.0,0.0,33.65523,-1.374023,-32.17203,-1.0,0.4192576,0.6675063,0.2128093,1.174394,-0.2340347,0.008235903,-0.02952639,-0.0162981,1.013869,16.73367,30.717596130592504
2,-1.0,-1.0,-1.0,1.0,0.0,0.0,0.0,-28.74812,0.09677124,-35.61075,-1.0,0.2785747,0.6800491,1.0,0.0,0.0,0.0,33.57326,-1.29155,-32.07291,-1.0,0.4233324,0.6668856,0.211532,1.175057,-0.2337135,0.007031505,-0.04253691,-0.01860201,1.013869,7.483627,30.717596130592504
2,-1.0,-1.0,-1.0,1.0,0.0,0.0,0.0,-28.74812,0.09677124,-35.61075,-1.0,0.2785747,0.6800491,1.0,0.0,0.0,0.0,33.57326,-1.29155,-32.07291,-1.0,0.4233324,0.6668856,0.211532,1.175057,-0.2337135,0.007031505,-0.04253691,-0.01860201,1.013869,7.483627,30.717596130592504
2,-1.0,-1.0,-1.0,1.0,0.0,0.0,0.0,-28.74812,0.09677124,-35.61075,-1.0,0.2882123,0.6792879,1.0,0.0,0.0,0.0,33.51759,-1.31636,-31.9687,-1.0,0.4348102,0.6658298,0.2100328,1.175619,-0.2334176,0.005957732,-0.05769188,-0.02075267,1.013869,6.810837,30.717596130592504
2,-1.0,-1.0,-1.0,1.0,0.0,0.0,0.0,-28.74812,0.09677124,-35.61075,-1.0,0.2882123,0.6792879,1.0,0.0,0.0,0.0,33.51759,-1.31636,-31.9687,-1.0,0.4348102,0.6658298,0.2100328,1.175619,-0.2334176,0.005957732,-0.05769188,-0.02075267,1.013869,6.810837,30.717596130592504
2,-1.0,-1.0,-1.0,1.0,0.0,0.0,0.0,-28.74812,0.09677124,-35.61075,-1.0,0.2882123,0.6792879,1.0,0.0,0.0,0.0,33.51759,-1.31636,-31.9687,-1.0,0.4348102,0.6658298,0.2082835,1.176257,-0.2331455,0.005607268,-0.07498834,-0.02251792,1.013869,6.810837,30.717596130592504
2,-1.0,-1.0,-1.0,1.0,0.0,0.0,0.0,-28.74812,0.09677124,-35.61075,-1.0,0.2882123,0.6792879,1.0,0.0,0.0,0.0,33.51759,-1.31636,-31.9687,-1.0,0.4348102,0.6658298,0.2082835,1.176257,-0.2331455,0.005607268,-0.07498834,-0.02251792,1.013869,6.810837,30.717596130592504
2,-1.0,-1.0,-1.0,1.0,0.0,0.0,0.0,-28.74812,0.09677124,-35.61075,-1.0,0.2882123,0.6792879,1.0,0.0,0.0,0.0,33.51759,-1.31636,-31.9687,-1.0,0.4348102,0.6658298,0.2064575,1.177004,-0.2326704,0.005223412,-0.09409991,-0.02401189,1.013869,6.810837,30.717596130592504
2,-1.0,-1.0,-1.0,1.0,0.0,0.0,0.0,-28.74812,0.09677124,-35.61075,-1.0,0.2882123,0.6792879,1.0,0.0,0.0,0.0,33.51759,-1.31636,-31.9687,-1.0,0.4348102,0.6658298,0.2064575,1.177004,-0.2326704,0.005223412,-0.09409991,-0.02401189,1.013869,6.810837,30.717596130592504
2,-1.0,-1.0,-1.0,1.0,0.0,0.0,0.0,-28.74812,0.09677124,-35.61075,-1.0,0.291083,0.6796958,1.0,0.0,0.0,0.0,33.51759,-1.31636,-31.9687,-1.0,0.4356894,0.6651167,0.2044834,1.177547,-0.2322298,0.004827568,-0.1143721,-0.0253783,1.013869,6.810837,30.717596130592504
2,-1.0,-1.0,-1.0,1.0,0.0,0.0,0.0,-28.74812,0.09677124,-35.61075,-1.0,0.291083,0.6796958,1.0,0.0,0.0,0.0,33.51759,-1.31636,-31.9687,-1.0,0.4356894,0.6651167,0.2044834,1.177547,-0.2322298,0.004827568,-0.1143721,-0.0253783,1.013869,6.810837,30.717596130592504
2,0.1799469,-0.2541809,0.9502563,1.0,0.07714844,-0.03860474,0.9962616,-26.76761,-0.4502258,-35.41562,3.889725,0.3065847,0.6747885,1.0,0.1804199,-0.255188,0.9499054,33.12009,-0.03672791,-31.3627,4.052002,0.452935,0.6586226,0.2024633,1.177882,-0.2316917,0.005341884,-0.1351014,-0.02648982,1.013869,6.810837,30.717596130592504
2,0.1799469,-0.2541809,0.9502563,1.0,0.07714844,-0.03860474,0.9962616,-26.76761,-0.4502258,-35.41562,3.889725,0.3065847,0.6747885,1.0,0.1804199,-0.255188,0.9499054,33.12009,-0.03672791,-31.3627,4.052002,0.452935,0.6586226,0.2024633,1.177882,-0.2316917,0.005341884,-0.1351014,-0.02648982,1.013869,6.810837,30.717596130592504
2,-1.0,-1.0,-1.0,1.0,0.0,0.0,0.0,-26.76761,-0.4502258,-35.41562,-1.0,0.3038924,0.6754761,1.0,0.0,0.0,0.0,33.12009,-0.03672791,-31.3627,-1.0,0.4511818,0.6582692,0.2002451,1.177939,-0.2312021,0.0067316,-0.1562053,-0.02735819,1.013869,6.810837,30.717596130592504
2,-1.0,-1.0,-1.0,1.0,0.0,0.0,0.0,-26.76761,-0.4502258,-35.41562,-1.0,0.3038924,0.6754761,1.0,0.0,0.0,0.0,33.12009,-0.03672791,-31.3627,-1.0,0.4511818,0.6582692,0.2002451,1.177939,-0.2312021,0.0067316,-0.1562053,-0.02735819,1.013869,6.810837,30.717596130592504
2,-1.0,-1.0,-1.0,1.0,0.0,0.0,0.0,-26.76761,-0.4502258,-35.41562,-1.0,0.3038924,0.6754761,1.0,0.0,0.0,0.0,33.12009,-0.03672791,-31.3627,-1.0,0.4511818,0.6582692,0.1979145,1.17764,-0.2310084,0.009824954,-0.17841,-0.02804325,1.013869,6.810837,30.717596130592504
2,-1.0,-1.0,-1.0,1.0,0.0,0.0,0.0,-26.76761,-0.4502258,-35.41562,-1.0,0.3038924,0.6754761,1.0,0.0,0.0,0.0,33.12009,-0.03672791,-31.3627,-1.0,0.4511818,0.6582692,0.1979145,1.17764,-0.2310084,0.009824954,-0.17841,-0.02804325,1.013869,6.810837,30.717596130592504
2,-1.0,-1.0,-1.0,1.0,0.0,0.0,0.0,-26.76761,-0.4502258,-35.41562,-1.0,0.3038924,0.6754761,1.0,0.0,0.0,0.0,33.12009,-0.03672791,-31.3627,-1.0,0.4511818,0.6582692,0.1954652,1.177119,-0.2309609,0.01390316,-0.2012961,-0.02838548,1.013869,-14.57944,30.717596130592504
2,-1.0,-1.0,-1.0,1.0,0.0,0.0,0.0,-26.76761,-0.4502258,-35.41562,-1.0,0.3038924,0.6754761,1.0,0.0,0.0,0.0,33.12009,-0.03672791,-31.3627,-1.0,0.4511818,0.6582692,0.1954652,1.177119,-0.2309609,0.01390316,-0.2012961,-0.02838548,1.013869,-14.57944,30.717596130592504
2,0.04856873,0.01080322,0.9987488,1.0,0.0,0.0,0.0,-26.70798,-0.4647064,-35.40291,-1.0,0.3563934,0.6931708,1.0,0.04856873,0.01080322,0.9987488,32.3037,-1.828217,-31.452,4.004593,0.5043362,0.6742898,0.1942036,1.176783,-0.2309319,0.01571107,-0.2128365,-0.02848531,1.013869,-14.57944,30.717596130592504
2,0.04856873,0.01080322,0.9987488,1.0,0.0,0.0,0.0,-26.70798,-0.4647064,-35.40291,-1.0,0.3563934,0.6931708,1.0,0.04856873,0.01080322,0.9987488,32.3037,-1.828217,-31.452,4.004593,0.5043362,0.6742898,0.1942036,1.176783,-0.2309319,0.01571107,-0.2128365,-0.02848531,1.013869,-14.57944,30.717596130592504
2,-0.05436707,-0.05770874,0.9968414,1.0,-0.06538391,-0.03007507,0.997406,-27.72179,-1.063858,-35.03912,3.700546,0.3646865,0.6925766,1.0,0.01451111,-0.2266846,0.9738464,32.37234,-0.7626801,-31.00995,3.900452,0.507867,0.675301,0.1917711,1.176056,-0.2310561,0.01986111,-0.2350365,-0.02800869,1.013869,-14.57944,30.717596130592504
2,-0.05436707,-0.05770874,0.9968414,1.0,-0.06538391,-0.03007507,0.997406,-27.72179,-1.063858,-35.03912,3.700546,0.3646865,0.6925766,1.0,0.01451111,-0.2266846,0.9738464,32.37234,-0.7626801,-31.00995,3.900452,0.507867,0.675301,0.1917711,1.176056,-0.2310561,0.01986111,-0.2350365,-0.02800869,1.013869,-14.57944,30.717596130592504
2,-0.05436707,-0.05770874,0.9968414,1.0,-0.06538391,-0.03007507,0.997406,-27.72179,-1.063858,-35.03912,3.700546,0.3646865,0.6925766,1.0,0.01451111,-0.2266846,0.9738464,32.37234,-0.7626801,-31.00995,3.900452,0.507867,0.675301,0.1879308,1.175105,-0.2314554,0.02597317,-0.2723044,-0.02648673,1.013869,-14.57944,30.717596130592504
2,-0.05436707,-0.05770874,0.9968414,1.0,-0.06538391,-0.03007507,0.997406,-27.72179,-1.063858,-35.03912,3.700546,0.3646865,0.6925766,1.0,0.01451111,-0.2266846,0.9738464,32.37234,-0.7626801,-31.00995,3.900452,0.507867,0.675301,0.1879308,1.175105,-0.2314554,0.02597317,-0.2723044,-0.02648673,1.013869,-14.57944,30.717596130592504
2,-0.05436707,-0.05770874,0.9968414,1.0,-0.06538391,-0.03007507,0.997406,-27.72179,-1.063858,-35.03912,3.700546,0.3646865,0.6925766,1.0,0.01451111,-0.2266846,0.9738464,32.37234,-0.7626801,-31.00995,3.900452,0.507867,0.675301,0.1879308,1.175105,-0.2314554,0.02597317,-0.2723044,-0.02648673,1.013869,-14.57944,30.717596130592504
2,-0.05436707,-0.05770874,0.9968414,1.0,-0.06538391,-0.03007507,0.997406,-27.72179,-1.063858,-35.03912,3.700546,0.3646865,0.6925766,1.0,0.01451111,-0.2266846,0.9738464,32.37234,-0.7626801,-31.00995,3.900452,0.507867,0.675301,0.1879308,1.175105,-0.2314554,0.02597317,-0.2723044,-0.02648673,1.013869,-14.57944,30.717596130592504
2,-0.007919312,-0.2257996,0.9741364,1.0,0.0,0.0,0.0,-27.72179,-1.063858,-35.03912,-1.0,0.3718304,0.6924573,1.0,-0.007919312,-0.2257996,0.9741364,32.26114,-0.7753601,-30.95905,4.001419,0.5156991,0.6751128,0.1873428,1.174939,-0.2314795,0.02707348,-0.2792294,-0.02589301,1.013869,-14.57944,30.717596130592504
2,-0.007568359,0.04690552,0.9988556,1.0,0.01889038,-0.2485046,0.9684296,-28.89061,0.4676971,-34.47221,3.637939,0.3922807,0.6722212,1.0,-0.007629395,0.04753113,0.9988251,31.56293,-1.416275,-31.17024,4.05603,0.5404799,0.6503284,0.1866337,1.174629,-0.2313437,0.02908324,-0.2901742,-0.02422811,1.013869,-14.57944,30.717596130592504
2,0.06964111,0.05487061,0.996048,1.0,0.1210785,-0.214035,0.9692841,-28.65561,0.6763916,-34.50735,3.781372,0.3657502,0.6588179,1.0,0.06611633,0.07220459,0.9951935,31.90463,-1.183777,-31.18172,3.899231,0.5154178,0.6376056,0.1866771,1.174331,-0.2308261,0.03088789,-0.2952999,-0.02263541,1.013869,-14.57944,30.717596130592504
2,0.06964111,0.05487061,0.996048,1.0,0.1210785,-0.214035,0.9692841,-28.65561,0.6763916,-34.50735,3.781372,0.3657502,0.6588179,1.0,0.06611633,0.07220459,0.9951935,31.90463,-1.183777,-31.18172,3.899231,0.5154178,0.6376056,0.1866771,1.174331,-0.2308261,0.03088789,-0.2952999,-0.02263541,1.013869,-14.57944,30.717596130592504
2,0.06964111,0.05487061,0.996048,1.0,0.1210785,-0.214035,0.9692841,-28.65561,0.6763916,-34.50735,3.781372,0.3657502,0.6588179,1.0,0.06611633,0.07220459,0.9951935,31.90463,-1.183777,-31.18172,3.899231,0.5154178,0.6376056,0.1866771,1.174331,-0.2308261,0.03088789,-0.2952999,-0.02263541,1.013869,-14.57944,30.717596130592504
2,0.07553101,-0.1785583,0.9810181,1.0,0.1109924,-0.2038269,0.9726868,-28.84018,0.5484924,-34.48108,3.707672,0.3741961,0.6610912,1.0,0.01657104,-0.1359863,0.9905701,31.94804,-0.1056061,-30.71812,3.875031,0.5225786,0.6322362,0.1875204,1.173924,-0.2299097,0.03309096,-0.2942701,-0.02121742,1.013869,-14.57944,30.717596130592504
2,0.06834412,-0.164444,0.9840088,1.0,0.1085663,-0.1878204,0.976181,-28.91101,0.4914703,-34.47806,3.667038,0.3772022,0.6600069,1.0,0.01264954,-0.1316376,0.9912109,31.89395,-0.1313171,-30.69194,3.986496,0.5251584,0.6321361,0.1882688,1.173618,-0.2292405,0.0347474,-0.2910672,-0.02035538,1.013869,-29.57524,30.717596130592504
2,0.06834412,-0.164444,0.9840088,1.0,0.1085663,-0.1878204,0.976181,-28.91101,0.4914703,-34.47806,3.667038,0.3772022,0.6600069,1.0,0.01264954,-0.1316376,0.9912109,31.89395,-0.1313171,-30.69194,3.986496,0.5251584,0.6321361,0.1882688,1.173618,-0.2292405,0.0347474,-0.2910672,-0.02035538,1.013869,-29.57524,30.717596130592504
2,0.06834412,-0.164444,0.9840088,1.0,0.1085663,-0.1878204,0.976181,-28.91101,0.4914703,-34.47806,3.667038,0.3772022,0.6600069,1.0,0.01264954,-0.1316376,0.9912109,31.89395,-0.1313171,-30.69194,3.986496,0.5251584,0.6321361,0.1900643,1.172851,-0.2278029,0.03739478,-0.2822267,-0.01887911,1.013869,-29.57524,30.717596130592504
2,0.06834412,-0.164444,0.9840088,1.0,0.1085663,-0.1878204,0.976181,-28.91101,0.4914703,-34.47806,3.667038,0.3772022,0.6600069,1.0,0.01264954,-0.1316376,0.9912109,31.89395,-0.1313171,-30.69194,3.986496,0.5251584,0.6321361,0.1900643,1.172851,-0.2278029,0.03739478,-0.2822267,-0.01887911,1.013869,-29.57524,30.717596130592504
2,0.0196991,0.04330444,0.9988556,1.0,0.01519775,0.02008057,0.9996796,-28.38162,-0.4937286,-34.80705,3.807831,0.3746531,0.6601297,1.0,0.03120422,0.1029816,0.9941864,31.85477,-1.250748,-31.16475,4.04216,0.5233771,0.6345083,0.1906207,1.172175,-0.2271345,0.03894081,-0.2764362,-0.01797421,1.013869,-29.57524,30.717596130592504
2,0.01423645,0.03538513,0.9992676,1.0,0.009674072,0.01609802,0.9998169,-28.31882,-0.4900665,-34.81584,3.826218,0.373364,0.6608375,1.0,0.03530884,0.1242828,0.9916077,31.92599,-1.292419,-31.19208,4.077087,0.5201525,0.6325592,0.1930321,1.171155,-0.2253649,0.04200815,-0.2615315,-0.01673922,1.013869,-29.57524,30.717596130592504
2,0.01423645,0.03538513,0.9992676,1.0,0.009674072,0.01609802,0.9998169,-28.31882,-0.4900665,-34.81584,3.826218,0.373364,0.6608375,1.0,0.03530884,0.1242828,0.9916077,31.92599,-1.292419,-31.19208,4.077087,0.5201525,0.6325592,0.1944045,1.170656,-0.2243611,0.0439787,-0.2524335,-0.0159352,1.013869,-29.57524,30.717596130592504
2,0.01423645,0.03538513,0.9992676,1.0,0.009674072,0.01609802,0.9998169,-28.31882,-0.4900665,-34.81584,3.826218,0.373364,0.6608375,1.0,0.03530884,0.1242828,0.9916077,31.92599,-1.292419,-31.19208,4.077087,0.5201525,0.6325592,0.1944045,1.170656,-0.2243611,0.0439787,-0.2524335,-0.0159352,1.013869,-29.57524,30.717596130592504
2,0.01423645,0.03538513,0.9992676,1.0,0.009674072,0.01609802,0.9998169,-28.31882,-0.4900665,-34.81584,3.826218,0.373364,0.6608375,1.0,0.03530884,0.1242828,0.9916077,31.92599,-1.292419,-31.19208,4.077087,0.5201525,0.6325592,0.1958891,1.170086,-0.22333,0.04599492,-0.2427864,-0.01524511,1.013869,-29.57524,30.717596130592504
2,0.01423645,0.03538513,0.9992676,1.0,0.009674072,0.01609802,0.9998169,-28.31882,-0.4900665,-34.81584,3.826218,0.373364,0.6608375,1.0,0.03530884,0.1242828,0.9916077,31.92599,-1.292419,-31.19208,4.077087,0.5201525,0.6325592,0.1990906,1.16901,-0.2213686,0.05039523,-0.222405,-0.01374308,1.013869,-29.57524,30.717596130592504
2,0.09355164,-0.08143616,0.9922638,1.0,0.09638977,-0.1836395,0.978241,-28.05876,0.6703033,-34.55774,3.73642,0.3486805,0.6535721,1.0,0.08381653,0.1452332,0.9858246,32.40961,-1.227341,-31.24146,4.053299,0.4945066,0.6270199,0.2006688,1.16847,-0.2203617,0.05254372,-0.2110366,-0.01290775,1.013869,-29.57524,30.717596130592504
2,0.09355164,-0.08143616,0.9922638,1.0,0.09638977,-0.1836395,0.978241,-28.05876,0.6703033,-34.55774,3.73642,0.3486805,0.6535721,1.0,0.08381653,0.1452332,0.9858246,32.40961,-1.227341,-31.24146,4.053299,0.4945066,0.6270199,0.2006688,1.16847,-0.2203617,0.05254372,-0.2110366,-0.01290775,1.013869,-29.57524,30.717596130592504
2,0.1299286,0.1160583,0.9846954,1.0,0.1871796,-0.1488037,0.9709778,-28.01575,0.7190704,-34.62886,3.731277,0.3306934,0.6466217,1.0,0.1201172,0.1566925,0.9803009,32.66202,-1.210312,-31.27823,4.041626,0.479129,0.6248403,0.2040627,1.167198,-0.2183764,0.0568701,-0.1866531,-0.01191046,1.013869,-29.57524,30.717596130592504
2,0.1204071,0.1489105,0.9814758,1.0,0.03707886,0.1142731,0.9927521,-27.11223,-0.5383911,-35.00595,3.812912,0.3246375,0.6467102,1.0,0.1342926,0.1546021,0.9787903,32.77106,-1.187485,-31.2935,4.073776,0.4727661,0.6246478,0.2060641,1.16664,-0.2173112,0.05929628,-0.1732901,-0.01179606,1.013869,-29.57524,30.717596130592504
2,0.1204071,0.1489105,0.9814758,1.0,0.03707886,0.1142731,0.9927521,-27.11223,-0.5383911,-35.00595,3.812912,0.3246375,0.6467102,1.0,0.1342926,0.1546021,0.9787903,32.77106,-1.187485,-31.2935,4.073776,0.4727661,0.6246478,0.2060641,1.16664,-0.2173112,0.05929628,-0.1732901,-0.01179606,1.013869,-29.57524,30.717596130592504
2,0.1204071,0.1489105,0.9814758,1.0,0.03707886,0.1142731,0.9927521,-27.11223,-0.5383911,-35.00595,3.812912,0.3246375,0.6467102,1.0,0.1342926,0.1546021,0.9787903,32.77106,-1.187485,-31.2935,4.073776,0.4727661,0.6246478,0.2081906,1.166129,-0.2162381,0.06166678,-0.1596781,-0.01182697,1.013869,22.92778,30.717596130592504
2,0.1204071,0.1489105,0.9814758,1.0,0.03707886,0.1142731,0.9927521,-27.11223,-0.5383911,-35.00595,3.812912,0.3246375,0.6467102,1.0,0.1342926,0.1546021,0.9787903,32.77106,-1.187485,-31.2935,4.073776,0.4727661,0.6246478,0.2156049,1.164386,-0.213002,0.06916703,-0.1121499,-0.01396732,1.013869,22.92778,30.717596130592504
2,0.1204071,0.1489105,0.9814758,1.0,0.03707886,0.1142731,0.9927521,-27.11223,-0.5383911,-35.00595,3.812912,0.3246375,0.6467102,1.0,0.1342926,0.1546021,0.9787903,32.77106,-1.187485,-31.2935,4.073776,0.4727661,0.6246478,0.2156049,1.164386,-0.213002,0.06916703,-0.1121499,-0.01396732,1.013869,22.92778,30.717596130592504
2,0.1566467,0.1577606,0.9749603,1.0,0.127243,0.06214905,0.9899139,-27.3481,-0.2407074,-35.022,3.768066,0.3166523,0.6458849,1.0,0.1594543,0.167099,0.9729462,32.87672,-1.162659,-31.32912,4.136108,0.464548,0.6221476,0.2185057,1.163785,-0.211974,0.07185754,-0.09432877,-0.01521184,1.013869,22.92778,30.717596130592504
2,0.1566467,0.1577606,0.9749603,1.0,0.127243,0.06214905,0.9899139,-27.3481,-0.2407074,-35.022,3.768066,0.3166523,0.6458849,1.0,0.1594543,0.167099,0.9729462,32.87672,-1.162659,-31.32912,4.136108,0.464548,0.6221476,0.2185057,1.163785,-0.211974,0.07185754,-0.09432877,-0.01521184,1.013869,22.92778,30.717596130592504
2,0.1092987,0.1390991,0.9842224,1.0,0.1781006,-0.1520538,0.9721832,-27.94881,0.9346313,-34.58276,3.928238,0.3301587,0.639026,1.0,0.1081696,0.1434937,0.9837189,32.93645,-1.012207,-31.26875,4.158646,0.4716817,0.6201529,0.2214966,1.163164,-0.2110181,0.07465316,-0.07533707,-0.01657102,1.013869,22.92778,30.717596130592504
2,-0.05140686,0.08837891,0.994751,1.0,-0.05140686,0.08837891,0.994751,-27.91484,-0.4886627,-34.68217,3.875214,0.3702142,0.6462997,1.0,0.0,0.0,0.0,32.31969,-0.08731079,-34.20355,-1.0,0.5135137,0.6209421,0.2280298,1.161976,-0.2093793,0.08080713,-0.03561296,-0.01941916,1.013869,22.92778,30.717596130592504
2,-0.05140686,0.08837891,0.994751,1.0,-0.05140686,0.08837891,0.994751,-27.91484,-0.4886627,-34.68217,3.875214,0.3702142,0.6462997,1.0,0.0,0.0,0.0,32.31969,-0.08731079,-34.20355,-1.0,0.5135137,0.6209421,0.2280298,1.161976,-0.2093793,0.08080713,-0.03561296,-0.01941916,1.013869,22.92778,30.717596130592504
2,-0.08996582,0.05644226,0.994339,1.0,-0.08996582,0.05644226,0.994339,-28.51674,-1.362885,-31.55077,3.888092,0.4004706,0.6494278,1.0,0.0,0.0,0.0,31.74107,-0.4515686,-33.23036,-1.0,0.547784,0.6208895,0.2313403,1.161337,-0.2087202,0.08382694,-0.01542391,-0.0211104,1.013869,22.92778,30.717596130592504
2,-0.1864471,0.05244446,0.9810486,1.0,-0.1864471,0.05244446,0.9810486,-29.1338,-1.877243,-30.63266,3.763901,0.4391608,0.6588251,1.0,0.0,0.0,0.0,31.04388,-0.8357391,-32.50922,-1.0,0.590481,0.6290619,0.241221,1.159504,-0.2076402,0.09281182,0.04554679,-0.0276467,1.021557,22.92778,30.717596130592504
2,-0.1864471,0.05244446,0.9810486,1.0,-0.1864471,0.05244446,0.9810486,-29.1338,-1.877243,-30.63266,3.763901,0.4391608,0.6588251,1.0,0.0,0.0,0.0,31.04388,-0.8357391,-32.50922,-1.0,0.590481,0.6290619,0.241221,1.159504,-0.2076402,0.09281182,0.04554679,-0.0276467,1.021557,22.92778,30.717596130592504
2,-0.1864471,0.05244446,0.9810486,1.0,-0.1864471,0.05244446,0.9810486,-29.1338,-1.877243,-30.63266,3.763901,0.4391608,0.6588251,1.0,0.0,0.0,0.0,31.04388,-0.8357391,-32.50922,-1.0,0.590481,0.6290619,0.241221,1.159504,-0.2076402,0.09281182,0.04554679,-0.0276467,1.021557,22.92778,30.717596130592504
3,-0.3271942,0.1163635,0.9377441,1.0,-0.3248138,0.05558777,0.9441376,-29.35449,-2.939804,-27.63232,3.916504,0.4710191,0.6649588,1.0,-0.3271942,0.1163635,0.9377441,30.62422,-1.66301,-30.8844,4.503403,0.6307695,0.6474912,0.2443358,1.158856,-0.2074087,0.09537654,0.06546065,-0.02979566,1.021557,22.92778,30.717596130592504
3,-0.3605042,0.1052246,0.9267883,1.0,-0.3038788,0.03074646,0.9522095,-29.87811,-1.377518,-32.78436,3.833984,0.4856429,0.6699418,1.0,-0.3605042,0.1052246,0.9267883,30.37639,-1.692337,-31.23727,4.45813,0.6462934,0.6549506,0.2505698,1.157636,-0.2075365,0.1000793,0.10432,-0.03423392,1.021557,22.92778,30.717596130592504
3,-0.3605042,0.1052246,0.9267883,1.0,-0.3038788,0.03074646,0.9522095,-29.87811,-1.377518,-32.78436,3.833984,0.4856429,0.6699418,1.0,-0.3605042,0.1052246,0.9267883,30.37639,-1.692337,-31.23727,4.45813,0.6462934,0.6549506,0.2535006,1.157069,-0.207824,0.1022635,0.1228778,-0.03620923,1.021557,22.92778,30.717596130592504
3,-0.3605042,0.1052246,0.9267883,1.0,-0.3038788,0.03074646,0.9522095,-29.87811,-1.377518,-32.78436,3.833984,0.4856429,0.6699418,1.0,-0.3605042,0.1052246,0.9267883,30.37639,-1.692337,-31.23727,4.45813,0.6462934,0.6549506,0.2535006,1.157069,-0.207824,0.1022635,0.1228778,-0.03620923,1.021557,22.92778,30.717596130592504
3,-0.3605042,0.1052246,0.9267883,1.0,-0.3038788,0.03074646,0.9522095,-29.87811,-1.377518,-32.78436,3.833984,0.4856429,0.6699418,1.0,-0.3605042,0.1052246,0.9267883,30.37639,-1.692337,-31.23727,4.45813,0.6462934,0.6549506,0.2587432,1.156036,-0.208618,0.1060755,0.1578158,-0.03933468,1.021557,37.84454,30.717596130592504
3,-0.3605042,0.1052246,0.9267883,1.0,-0.3038788,0.03074646,0.9522095,-29.87811,-1.377518,-32.78436,3.833984,0.4856429,0.6699418,1.0,-0.3605042,0.1052246,0.9267883,30.37639,-1.692337,-31.23727,4.45813,0.6462934,0.6549506,0.2587432,1.156036,-0.208618,0.1060755,0.1578158,-0.03933468,1.021557,37.84454,30.717596130592504
3,-0.3605042,0.1052246,0.9267883,1.0,-0.3038788,0.03074646,0.9522095,-29.87811,-1.377518,-32.78436,3.833984,0.4856429,0.6699418,1.0,-0.3605042,0.1052246,0.9267883,30.37639,-1.692337,-31.23727,4.45813,0.6462934,0.6549506,0.2587432,1.156036,-0.208618,0.1060755,0.1578158,-0.03933468,1.021557,37.84454,30.717596130592504
3,-0.3831482,0.08638,0.919632,1.0,-0.3229065,0.02467346,0.946106,-29.98825,-1.460114,-33.04359,3.798477,0.4930069,0.6773232,1.0,-0.3831482,0.08638,0.919632,30.20474,-1.75592,-31.32265,4.468216,0.6567764,0.6620603,0.2632936,1.15546,-0.2095233,0.1095876,0.1890699,-0.0419176,1.021557,37.84454,31.89
3,-0.3831482,0.08638,0.919632,1.0,-0.3229065,0.02467346,0.946106,-29.98825,-1.460114,-33.04359,3.798477,0.4930069,0.6773232,1.0,-0.3831482,0.08638,0.919632,30.20474,-1.75592,-31.32265,4.468216,0.6567764,0.6620603,0.2632936,1.15546,-0.2095233,0.1095876,0.1890699,-0.0419176,1.021557,37.84454,31.89
3,-0.3831482,0.08638,0.919632,1.0,-0.3229065,0.02467346,0.946106,-29.98825,-1.460114,-33.04359,3.798477,0.4930069,0.6773232,1.0,-0.3831482,0.08638,0.919632,30.20474,-1.75592,-31.32265,4.468216,0.6567764,0.6620603,0.2669107,1.154698,-0.2107728,0.1122025,0.2172428,-0.04457589,1.021557,37.84454,31.89
3,-0.3831482,0.08638,0.919632,1.0,-0.3229065,0.02467346,0.946106,-29.98825,-1.460114,-33.04359,3.798477,0.4930069,0.6773232,1.0,-0.3831482,0.08638,0.919632,30.20474,-1.75592,-31.32265,4.468216,0.6567764,0.6620603,0.2699553,1.154238,-0.2119265,0.1145539,0.2422863,-0.04682872,1.021557,37.84454,31.89
3,-0.2526245,0.08239746,0.964035,1.0,-0.2709045,0.0763855,0.9595642,-28.90001,-3.135422,-27.07947,3.942764,0.4465727,0.6613439,1.0,-0.2526245,0.08239746,0.964035,31.05965,-1.615189,-31.89978,4.399979,0.6027318,0.6614453,0.2721887,1.153917,-0.2132833,0.1163239,0.2648834,-0.04863625,1.021557,37.84454,31.89
3,-0.2526245,0.08239746,0.964035,1.0,-0.2709045,0.0763855,0.9595642,-28.90001,-3.135422,-27.07947,3.942764,0.4465727,0.6613439,1.0,-0.2526245,0.08239746,0.964035,31.05965,-1.615189,-31.89978,4.399979,0.6027318,0.6614453,0.2721887,1.153917,-0.2132833,0.1163239,0.2648834,-0.04863625,1.021557,37.84454,31.89
3,-0.03570557,0.0798645,0.9961548,1.0,-0.0871582,0.07116699,0.9936371,-27.62643,-2.450287,-28.73434,4.135391,0.3710811,0.6548126,1.0,-0.03570557,0.0798645,0.9961548,32.25923,-0.989502,-32.93755,4.235031,0.5215851,0.6486586,0.2739571,1.153725,-0.2146118,0.1178967,0.2860445,-0.0498497,1.021557,37.84454,31.89
3,-0.03570557,0.0798645,0.9961548,1.0,-0.0871582,0.07116699,0.9936371,-27.62643,-2.450287,-28.73434,4.135391,0.3710811,0.6548126,1.0,-0.03570557,0.0798645,0.9961548,32.25923,-0.989502,-32.93755,4.235031,0.5215851,0.6486586,0.2739571,1.153725,-0.2146118,0.1178967,0.2860445,-0.0498497,1.021557,37.84454,31.89
3,0.02287292,0.08044434,0.9964905,1.0,-0.02552795,0.09953308,0.9946899,-27.00417,-2.140152,-29.58875,4.118378,0.3382811,0.6480272,1.0,0.02287292,0.08044434,0.9964905,32.88692,-0.3194427,-34.5513,4.316162,0.4889091,0.6419429,0.2753747,1.153648,-0.215881,0.1194543,0.3062428,-0.05062019,1.021557,37.84454,31.89
3,0.02287292,0.08044434,0.9964905,1.0,-0.02552795,0.09953308,0.9946899,-27.00417,-2.140152,-29.58875,4.118378,0.3382811,0.6480272,1.0,0.02287292,0.08044434,0.9964905,32.88692,-0.3194427,-34.5513,4.316162,0.4889091,0.6419429,0.2753747,1.153648,-0.215881,0.1194543,0.3062428,-0.05062019,1.021557,37.84454,31.89
3,0.02537537,0.08908081,0.995697,1.0,0.008514404,0.09159851,0.9957581,-26.76163,-1.930527,-30.09886,4.128738,0.3233282,0.6474985,1.0,0.04977417,0.08537292,0.9951019,33.1291,-0.2800293,-34.4713,4.231796,0.4752604,0.6385922,0.2765212,1.15353,-0.2171669,0.1207801,0.3257814,-0.05161958,1.021557,37.84454,31.89
3,0.02537537,0.08908081,0.995697,1.0,0.008514404,0.09159851,0.9957581,-26.76163,-1.930527,-30.09886,4.128738,0.3233282,0.6474985,1.0,0.04977417,0.08537292,0.9951019,33.1291,-0.2800293,-34.4713,4.231796,0.4752604,0.6385922,0.2765212,1.15353,-0.2171669,0.1207801,0.3257814,-0.05161958,1.021557,37.84454,31.89
3,0.1022644,0.09761047,0.9899445,1.0,0.05981445,0.08303833,0.9947357,-26.48305,-1.529221,-31.30347,4.206757,0.302571,0.6479914,1.0,0.1041718,0.0982666,0.9896851,33.36632,-0.8742523,-32.37329,4.33049,0.4570626,0.6350752,0.2775255,1.153288,-0.2183549,0.122482,0.344887,-0.05246979,1.021557,22.21075,31.89
3,0.1022644,0.09761047,0.9899445,1.0,0.05981445,0.08303833,0.9947357,-26.48305,-1.529221,-31.30347,4.206757,0.302571,0.6479914,1.0,0.1041718,0.0982666,0.9896851,33.36632,-0.8742523,-32.37329,4.33049,0.4570626,0.6350752,0.2775255,1.153288,-0.2183549,0.122482,0.344887,-0.05246979,1.021557,22.21075,31.89
3,-0.03196716,0.07574463,0.9966125,1.0,-0.03747559,0.07421875,0.9965363,-27.15617,-2.351639,-29.11452,4.260895,0.3458726,0.6549199,1.0,0.01872253,0.08963013,0.9957886,32.70091,-0.6840973,-33.03847,4.454056,0.4961393,0.6371858,0.2782931,1.152835,-0.2198696,0.123786,0.3639715,-0.05321916,1.021557,22.21075,31.89
3,-0.03196716,0.07574463,0.9966125,1.0,-0.03747559,0.07421875,0.9965363,-27.15617,-2.351639,-29.11452,4.260895,0.3458726,0.6549199,1.0,0.01872253,0.08963013,0.9957886,32.70091,-0.6840973,-33.03847,4.454056,0.4961393,0.6371858,0.2782931,1.152835,-0.2198696,0.123786,0.3639715,-0.05321916,1.021557,22.21075,31.89
3,-0.05027771,0.06748962,0.9964447,1.0,-0.1073761,0.05502319,0.992691,-28.02278,-2.674072,-28.23903,4.350449,0.3882394,0.6604151,1.0,-0.04948425,0.06765747,0.9964752,31.84398,-0.7572327,-33.15471,4.445953,0.5390481,0.6453016,0.2786974,1.152249,-0.2214615,0.1250454,0.3822912,-0.05333006,1.021557,22.21075,31.89
3,-0.05027771,0.06748962,0.9964447,1.0,-0.1073761,0.05502319,0.992691,-28.02278,-2.674072,-28.23903,4.350449,0.3882394,0.6604151,1.0,-0.04948425,0.06765747,0.9964752,31.84398,-0.7572327,-33.15471,4.445953,0.5390481,0.6453016,0.2786974,1.152249,-0.2214615,0.1250454,0.3822912,-0.05333006,1.021557,22.21075,31.89
3,-0.1608429,0.05697632,0.985321,1.0,-0.2000122,0.02723694,0.9794006,-28.6828,-2.77713,-28.38451,4.336227,0.4262363,0.6709413,1.0,-0.1608429,0.05697632,0.985321,31.23509,-0.786499,-33.47258,4.433578,0.58123,0.6525766,0.2786758,1.151478,-0.2231532,0.1255901,0.3984973,-0.05303923,1.021557,22.21075,31.89
3,-0.1608429,0.05697632,0.985321,1.0,-0.2000122,0.02723694,0.9794006,-28.6828,-2.77713,-28.38451,4.336227,0.4262363,0.6709413,1.0,-0.1608429,0.05697632,0.985321,31.23509,-0.786499,-33.47258,4.433578,0.58123,0.6525766,0.2786758,1.151478,-0.2231532,0.1255901,0.3984973,-0.05303923,1.021557,22.21075,31.89
3,-0.1187592,0.05363464,0.9914703,1.0,-0.1654205,0.0436554,0.9852448,-28.47287,-2.814178,-28.1683,4.416809,0.4133421,0.6668503,1.0,-0.09660339,0.05830383,0.9936066,31.55949,-0.993988,-32.84413,4.397842,0.557474,0.6523163,0.2785534,1.151062,-0.2243834,0.1258062,0.4119415,-0.05214332,1.021557,22.21075,31.89
3,-0.1187592,0.05363464,0.9914703,1.0,-0.1654205,0.0436554,0.9852448,-28.47287,-2.814178,-28.1683,4.416809,0.4133421,0.6668503,1.0,-0.09660339,0.05830383,0.9936066,31.55949,-0.993988,-32.84413,4.397842,0.557474,0.6523163,0.2785534,1.151062,-0.2243834,0.1258062,0.4119415,-0.05214332,1.021557,22.21075,31.89
3,-0.127655,0.01403809,0.9917145,1.0,-0.1304779,0.01231384,0.9913635,-28.2767,-2.830627,-27.73131,4.321579,0.4009492,0.6678388,1.0,-0.07322693,0.04714966,0.9961853,31.80742,-0.996582,-32.78249,4.468964,0.544338,0.6536374,0.2780344,1.150673,-0.225226,0.1256775,0.4222208,-0.05150499,1.021557,22.21075,31.89
3,-0.127655,0.01403809,0.9917145,1.0,-0.1304779,0.01231384,0.9913635,-28.2767,-2.830627,-27.73131,4.321579,0.4009492,0.6678388,1.0,-0.07322693,0.04714966,0.9961853,31.80742,-0.996582,-32.78249,4.468964,0.544338,0.6536374,0.2780344,1.150673,-0.225226,0.1256775,0.4222208,-0.05150499,1.021557,22.21075,31.89
3,-0.1059875,0.01712036,0.9942169,1.0,-0.106308,0.01686096,0.9941864,-28.13329,-2.877228,-27.56381,4.308151,0.392138,0.6667203,1.0,-0.06288147,0.05238342,0.9966431,31.95848,-1.323853,-31.89349,4.511337,0.5365959,0.6546402,0.2771766,1.150033,-0.2257453,0.1258017,0.4293481,-0.0516793,1.021557,22.21075,31.89
3,-0.1059875,0.01712036,0.9942169,1.0,-0.106308,0.01686096,0.9941864,-28.13329,-2.877228,-27.56381,4.308151,0.392138,0.6667203,1.0,-0.06288147,0.05238342,0.9966431,31.95848,-1.323853,-31.89349,4.511337,0.5365959,0.6546402,0.2771766,1.150033,-0.2257453,0.1258017,0.4293481,-0.0516793,1.021557,22.21075,31.89
3,-0.09294128,0.01699829,0.9955139,1.0,-0.09403992,0.0166626,0.9954224,-27.93173,-2.9534,-27.62962,4.339294,0.3832169,0.6699278,1.0,-0.03486633,0.03453064,0.9987793,32.11856,-1.18605,-32.24008,4.476959,0.526092,0.6565181,0.275755,1.14937,-0.2259105,0.1263592,0.4326954,-0.05221942,1.021557,22.21075,31.89
3,-0.09294128,0.01699829,0.9955139,1.0,-0.09403992,0.0166626,0.9954224,-27.93173,-2.9534,-27.62962,4.339294,0.3832169,0.6699278,1.0,-0.03486633,0.03453064,0.9987793,32.11856,-1.18605,-32.24008,4.476959,0.526092,0.6565181,0.275755,1.14937,-0.2259105,0.1263592,0.4326954,-0.05221942,1.021557,22.21075,31.89
3,-0.07469177,0.02294922,0.996933,1.0,-0.07489014,0.02285767,0.9969177,-27.81638,-2.979935,-27.68251,4.511902,0.375924,0.6704671,1.0,-0.02366638,0.04660034,0.9986267,32.26131,-1.376083,-31.68692,4.509933,0.5188134,0.6550664,0.2743551,1.148883,-0.2255162,0.1268086,0.4328962,-0.05279693,1.021557,3.301773,31.89
3,-0.07469177,0.02294922,0.996933,1.0,-0.07489014,0.02285767,0.9969177,-27.81638,-2.979935,-27.68251,4.511902,0.375924,0.6704671,1.0,-0.02366638,0.04660034,0.9986267,32.26131,-1.376083,-31.68692,4.509933,0.5188134,0.6550664,0.2743551,1.148883,-0.2255162,0.1268086,0.4328962,-0.05279693,1.021557,3.301773,31.89
3,-0.05932617,0.01818848,0.9980621,1.0,-0.0620575,0.01730347,0.9979095,-27.80255,-2.947159,-27.73219,4.435577,0.3732661,0.6707047,1.0,-0.01611328,0.03199768,0.9993439,32.28189,-1.343506,-31.70981,4.332733,0.51675,0.6565383,0.2727696,1.14841,-0.2246318,0.1271024,0.4295011,-0.05354366,1.021557,3.301773,31.89
3,-0.05932617,0.01818848,0.9980621,1.0,-0.0620575,0.01730347,0.9979095,-27.80255,-2.947159,-27.73219,4.435577,0.3732661,0.6707047,1.0,-0.01611328,0.03199768,0.9993439,32.28189,-1.343506,-31.70981,4.332733,0.51675,0.6565383,0.2727696,1.14841,-0.2246318,0.1271024,0.4295011,-0.05354366,1.021557,3.301773,31.89
3,-0.05787659,0.02105713,0.9980927,1.0,-0.06608582,0.01699829,0.9976654,-27.8051,-2.946854,-27.72168,4.451782,0.3740339,0.6706726,1.0,-0.00769043,0.04577637,0.9989166,32.28665,-1.327866,-31.70605,4.48793,0.5151155,0.6536514,0.2708025,1.147743,-0.2233715,0.1271376,0.4232156,-0.05445335,1.021557,3.301773,31.89
3,-0.05787659,0.02105713,0.9980927,1.0,-0.06608582,0.01699829,0.9976654,-27.8051,-2.946854,-27.72168,4.451782,0.3740339,0.6706726,1.0,-0.00769043,0.04577637,0.9989166,32.28665,-1.327866,-31.70605,4.48793,0.5151155,0.6536514,0.2708025,1.147743,-0.2233715,0.1271376,0.4232156,-0.05445335,1.021557,3.301773,31.89
3,-0.05787659,0.02105713,0.9980927,1.0,-0.06608582,0.01699829,0.9976654,-27.8051,-2.946854,-27.72168,4.451782,0.3740339,0.6706726,1.0,-0.00769043,0.04577637,0.9989166,32.28665,-1.327866,-31.70605,4.48793,0.5151155,0.6536514,0.2684556,1.14716,-0.221682,0.1277516,0.4136678,-0.05472046,1.021557,3.301773,31.89
3,-0.05787659,0.02105713,0.9980927,1.0,-0.06608582,0.01699829,0.9976654,-27.8051,-2.946854,-27.72168,4.451782,0.3740339,0.6706726,1.0,-0.00769043,0.04577637,0.9989166,32.28665,-1.327866,-31.70605,4.48793,0.5151155,0.6536514,0.2684556,1.14716,-0.221682,0.1277516,0.4136678,-0.05472046,1.021557,3.301773,31.89
3,-0.05308533,0.01638794,0.9984436,1.0,-0.06246948,0.01194763,0.9979706,-27.8391,-2.989166,-27.55547,4.433868,0.3746995,0.6711991,1.0,-0.007644653,0.03785706,0.9992523,32.26173,-1.354797,-31.56061,4.506912,0.5159356,0.6544653,0.2658876,1.146258,-0.2197201,0.1285709,0.4006942,-0.05516255,1.021557,3.301773,31.89
3,-0.05308533,0.01638794,0.9984436,1.0,-0.06246948,0.01194763,0.9979706,-27.8391,-2.989166,-27.55547,4.433868,0.3746995,0.6711991,1.0,-0.007644653,0.03785706,0.9992523,32.26173,-1.354797,-31.56061,4.506912,0.5159356,0.6544653,0.2658876,1.146258,-0.2197201,0.1285709,0.4006942,-0.05516255,1.021557,3.301773,31.89
3,-0.07614136,-0.0002593994,0.9970856,1.0,-0.07632446,-0.0003204346,0.9970703,-28.24925,-2.868118,-27.79007,4.419937,0.3907859,0.6717194,1.0,-0.0151825,0.02177429,0.9996338,31.91742,-0.885849,-32.7713,4.538971,0.5300518,0.6539633,0.2631687,1.145341,-0.2172524,0.1302204,0.3850622,-0.05559804,1.021557,3.301773,31.89
3,-0.07614136,-0.0002593994,0.9970856,1.0,-0.07632446,-0.0003204346,0.9970703,-28.24925,-2.868118,-27.79007,4.419937,0.3907859,0.6717194,1.0,-0.0151825,0.02177429,0.9996338,31.91742,-0.885849,-32.7713,4.538971,0.5300518,0.6539633,0.2631687,1.145341,-0.2172524,0.1302204,0.3850622,-0.05559804,1.021557,3.301773,31.89
3,-0.0914917,0.004699707,0.9957886,1.0,-0.0914917,0.004699707,0.9957886,-28.4066,-2.864227,-27.83151,4.403168,0.3986744,0.6712083,1.0,-0.03356934,0.01330566,0.9993439,31.77306,-0.9203796,-32.60316,4.559616,0.538388,0.6549996,0.2602069,1.144247,-0.2145901,0.1328831,0.367439,-0.05589088,1.021557,3.301773,31.89
3,-0.0914917,0.004699707,0.9957886,1.0,-0.0914917,0.004699707,0.9957886,-28.4066,-2.864227,-27.83151,4.403168,0.3986744,0.6712083,1.0,-0.03356934,0.01330566,0.9993439,31.77306,-0.9203796,-32.60316,4.559616,0.538388,0.6549996,0.2602069,1.144247,-0.2145901,0.1328831,0.367439,-0.05589088,1.021557,3.301773,31.89
3,-0.1252289,-0.0001068115,0.9921112,1.0,-0.1262207,-0.0002746582,0.9919891,-28.80927,-2.768814,-28.19716,4.431885,0.4179587,0.6729715,1.0,-0.063797,0.01054382,0.9978943,31.39677,-0.7286682,-32.90308,4.586685,0.5574366,0.6521477,0.2587674,1.143689,-0.2131667,0.1348647,0.3580012,-0.05587034,1.021557,3.301773,31.89
3,-0.1252289,-0.0001068115,0.9921112,1.0,-0.1262207,-0.0002746582,0.9919891,-28.80927,-2.768814,-28.19716,4.431885,0.4179587,0.6729715,1.0,-0.063797,0.01054382,0.9978943,31.39677,-0.7286682,-32.90308,4.586685,0.5574366,0.6521477,0.2587674,1.143689,-0.2131667,0.1348647,0.3580012,-0.05587034,1.021557,3.301773,31.89
3,-0.1075745,0.01773071,0.9940338,1.0,-0.1299286,0.00932312,0.9914703,-28.92482,-2.674561,-28.4664,4.464218,0.4224362,0.6710091,1.0,-0.08563232,0.02593994,0.9959869,31.29346,-0.766922,-32.74358,4.628754,0.5649235,0.649186,0.2555199,1.142327,-0.2103217,0.1395158,0.3385243,-0.05618485,1.021557,3.301773,31.89
3,-0.1075745,0.01773071,0.9940338,1.0,-0.1299286,0.00932312,0.9914703,-28.92482,-2.674561,-28.4664,4.464218,0.4224362,0.6710091,1.0,-0.08563232,0.02593994,0.9959869,31.29346,-0.766922,-32.74358,4.628754,0.5649235,0.649186,0.2538195,1.141434,-0.2089024,0.1424049,0.3285668,-0.05631703,1.021557,8.358047,31.89
3,-0.1075745,0.01773071,0.9940338,1.0,-0.1299286,0.00932312,0.9914703,-28.92482,-2.674561,-28.4664,4.464218,0.4224362,0.6710091,1.0,-0.08563232,0.02593994,0.9959869,31.29346,-0.766922,-32.74358,4.628754,0.5649235,0.649186,0.2538195,1.141434,-0.2089024,0.1424049,0.3285668,-0.05631703,1.021557,8.358047,31.89
3,-0.1025391,0.006576538,0.9947052,1.0,-0.1339569,-0.006210327,0.9909515,-28.92279,-2.774841,-28.36037,4.407288,0.4230298,0.675983,1.0,-0.08601379,0.01327515,0.9962006,31.28557,-0.626236,-33.25241,4.650986,0.5656521,0.6520135,0.250634,1.139637,-0.206005,0.1498852,0.3088746,-0.05611571,1.021557,8.358047,31.89
3,-0.1025391,0.006576538,0.9947052,1.0,-0.1339569,-0.006210327,0.9909515,-28.92279,-2.774841,-28.36037,4.407288,0.4230298,0.675983,1.0,-0.08601379,0.01327515,0.9962006,31.28557,-0.626236,-33.25241,4.650986,0.5656521,0.6520135,0.250634,1.139637,-0.206005,0.1498852,0.3088746,-0.05611571,1.021557,8.358047,31.89
3,-0.1025391,0.006576538,0.9947052,1.0,-0.1339569,-0.006210327,0.9909515,-28.92279,-2.774841,-28.36037,4.407288,0.4230298,0.675983,1.0,-0.08601379,0.01327515,0.9962006,31.28557,-0.626236,-33.25241,4.650986,0.5656521,0.6520135,0.247362,1.137398,-0.2031185,0.1588002,0.2896136,-0.05577625,1.021557,8.358047,31.89
3,-0.1025391,0.006576538,0.9947052,1.0,-0.1339569,-0.006210327,0.9909515,-28.92279,-2.774841,-28.36037,4.407288,0.4230298,0.675983,1.0,-0.08601379,0.01327515,0.9962006,31.28557,-0.626236,-33.25241,4.650986,0.5656521,0.6520135,0.2457602,1.136093,-0.2016815,0.1640353,0.2801629,-0.05541334,1.021557,8.358047,31.89
3,-0.1025391,0.006576538,0.9947052,1.0,-0.1339569,-0.006210327,0.9909515,-28.92279,-2.774841,-28.36037,4.407288,0.4230298,0.675983,1.0,-0.08601379,0.01327515,0.9962006,31.28557,-0.626236,-33.25241,4.650986,0.5656521,0.6520135,0.2457602,1.136093,-0.2016815,0.1640353,0.2801629,-0.05541334,1.021557,8.358047,31.89
3,-0.0559082,-0.08615112,0.9947052,1.0,-0.09634399,-0.09317017,0.9909668,-28.47505,-3.651886,-27.12502,4.401535,0.4016061,0.7075293,1.0,-0.05073547,-0.08525085,0.9950562,31.36949,-1.463242,-31.99664,4.710999,0.5553733,0.6859337,0.2441906,1.134733,-0.2002344,0.1694521,0.2707914,-0.05514674,1.021557,8.358047,31.89
3,0.1621246,-0.3314667,0.9294281,1.0,0.132782,-0.351181,0.9268341,-26.79573,-4.391129,-28.69281,4.716309,0.2993173,0.8022984,1.0,0.1627045,-0.3310699,0.9294586,32.66589,-2.287399,-32.56284,4.627853,0.4709297,0.7700036,0.2410651,1.131452,-0.1974075,0.1825678,0.252517,-0.05483593,1.021557,8.358047,31.89
3,0.1351624,-0.3095093,0.9412384,1.0,0.1133118,-0.3277588,0.9379272,-26.91878,-4.42485,-28.67654,4.869125,0.3073654,0.7983435,1.0,0.1355743,-0.3091583,0.9412842,32.6225,-2.28035,-32.54791,4.546143,0.4773253,0.7648196,0.2395364,1.129449,-0.1960551,0.1904157,0.2436244,-0.05524757,1.021557,8.358047,31.89
3,0.1351624,-0.3095093,0.9412384,1.0,0.1133118,-0.3277588,0.9379272,-26.91878,-4.42485,-28.67654,4.869125,0.3073654,0.7983435,1.0,0.1355743,-0.3091583,0.9412842,32.6225,-2.28035,-32.54791,4.546143,0.4773253,0.7648196,0.2395364,1.129449,-0.1960551,0.1904157,0.2436244,-0.05524757,1.021557,8.358047,31.89
3,0.1351624,-0.3095093,0.9412384,1.0,0.1133118,-0.3277588,0.9379272,-26.91878,-4.42485,-28.67654,4.869125,0.3073654,0.7983435,1.0,0.1355743,-0.3091583,0.9412842,32.6225,-2.28035,-32.54791,4.546143,0.4773253,0.7648196,0.236562,1.124822,-0.1934355,0.2081782,0.2261569,-0.05698762,1.021557,8.358047,31.89
3,0.1351624,-0.3095093,0.9412384,1.0,0.1133118,-0.3277588,0.9379272,-26.91878,-4.42485,-28.67654,4.869125,0.3073654,0.7983435,1.0,0.1355743,-0.3091583,0.9412842,32.6225,-2.28035,-32.54791,4.546143,0.4773253,0.7648196,0.2353804,1.121893,-0.1919535,0.2183395,0.2177552,-0.05821743,1.021557,8.358047,31.89
3,0.1351624,-0.3095093,0.9412384,1.0,0.1133118,-0.3277588,0.9379272,-26.91878,-4.42485,-28.67654,4.869125,0.3073654,0.7983435,1.0,0.1355743,-0.3091583,0.9412842,32.6225,-2.28035,-32.54791,4.546143,0.4773253,0.7648196,0.2340013,1.118858,-0.1907665,0.2294757,0.2097858,-0.0594016,1.021557,0.5596542,31.89
3,0.1351624,-0.3095093,0.9412384,1.0,0.1133118,-0.3277588,0.9379272,-26.91878,-4.42485,-28.67654,4.869125,0.3073654,0.7983435,1.0,0.1355743,-0.3091583,0.9412842,32.6225,-2.28035,-32.54791,4.546143,0.4773253,0.7648196,0.2340013,1.118858,-0.1907665,0.2294757,0.2097858,-0.0594016,1.021557,0.5596542,31.89
3,0.1226654,-0.3094788,0.9429474,1.0,0.09962463,-0.3221741,0.9414063,-27.11742,-4.390549,-28.63211,4.758972,0.3172076,0.7949156,1.0,0.122757,-0.309433,0.9429474,32.51871,-2.257141,-32.51785,4.607941,0.4834009,0.7635961,0.2323402,1.112362,-0.1881174,0.2546004,0.1948915,-0.06209229,1.021557,0.5596542,31.89
3,0.02565002,-0.255661,0.9664154,1.0,0.009368896,-0.2383575,0.9711151,-27.8597,-4.183777,-28.48573,4.739502,0.3601968,0.768258,1.0,0.02581787,-0.2558289,0.9663696,31.93365,-1.991241,-32.36995,4.324829,0.521725,0.7409714,0.2366881,1.1127,-0.1837046,0.2693892,0.1880308,-0.06440815,1.021557,0.5596542,31.89
3,0.02565002,-0.255661,0.9664154,1.0,0.009368896,-0.2383575,0.9711151,-27.8597,-4.183777,-28.48573,4.739502,0.3601968,0.768258,1.0,0.02581787,-0.2558289,0.9663696,31.93365,-1.991241,-32.36995,4.324829,0.521725,0.7409714,0.2366881,1.1127,-0.1837046,0.2693892,0.1880308,-0.06440815,1.021557,0.5596542,31.89
3,-0.002609253,-0.1810303,0.9834595,1.0,-0.005111694,-0.1863556,0.9824677,-27.98898,-4.07872,-28.45546,4.695267,0.3676108,0.7543167,1.0,0.009460449,-0.1552277,0.9878235,31.76764,-1.958572,-31.9706,4.772858,0.5304971,0.7161968,0.2355191,1.104394,-0.1825112,0.3004004,0.1773245,-0.06843323,1.021557,0.5596542,31.89
3,-0.04640198,-0.1702881,0.9842987,1.0,-0.04682922,-0.1700592,0.984314,-28.14403,-4.277405,-28.52032,4.749695,0.3799014,0.7591162,1.0,-0.03187561,-0.177887,0.9835205,31.49446,-2.061844,-32.30399,4.501694,0.5476992,0.7280349,0.2349012,1.09979,-0.1827458,0.3165268,0.1727508,-0.07056519,1.021557,0.5596542,31.89
3,-0.04640198,-0.1702881,0.9842987,1.0,-0.04682922,-0.1700592,0.984314,-28.14403,-4.277405,-28.52032,4.749695,0.3799014,0.7591162,1.0,-0.03187561,-0.177887,0.9835205,31.49446,-2.061844,-32.30399,4.501694,0.5476992,0.7280349,0.2346076,1.09532,-0.1832902,0.3327568,0.1704211,-0.07212042,1.021557,0.5596542,31.89
3,-0.04640198,-0.1702881,0.9842987,1.0,-0.04682922,-0.1700592,0.984314,-28.14403,-4.277405,-28.52032,4.749695,0.3799014,0.7591162,1.0,-0.03187561,-0.177887,0.9835205,31.49446,-2.061844,-32.30399,4.501694,0.5476992,0.7280349,0.2346076,1.09532,-0.1832902,0.3327568,0.1704211,-0.07212042,1.021557,0.5596542,31.89
3,-0.04640198,-0.1702881,0.9842987,1.0,-0.04682922,-0.1700592,0.984314,-28.14403,-4.277405,-28.52032,4.749695,0.3799014,0.7591162,1.0,-0.03187561,-0.177887,0.9835205,31.49446,-2.061844,-32.30399,4.501694,0.5476992,0.7280349,0.2344588,1.08725,-0.1841266,0.3591535,0.1699345,-0.07395466,1.021557,0.5596542,31.89
3,-0.04640198,-0.1702881,0.9842987,1.0,-0.04682922,-0.1700592,0.984314,-28.14403,-4.277405,-28.52032,4.749695,0.3799014,0.7591162,1.0,-0.03187561,-0.177887,0.9835205,31.49446,-2.061844,-32.30399,4.501694,0.5476992,0.7280349,0.2349671,1.083698,-0.1843374,0.3694502,0.1715271,-0.07378755,1.021557,0.5596542,31.89
3,-0.04640198,-0.1702881,0.9842987,1.0,-0.04682922,-0.1700592,0.984314,-28.14403,-4.277405,-28.52032,4.749695,0.3799014,0.7591162,1.0,-0.03187561,-0.177887,0.9835205,31.49446,-2.061844,-32.30399,4.501694,0.5476992,0.7280349,0.2355338,1.08018,-0.1841976,0.379115,0.1728623,-0.07361144,1.021557,0.5596542,31.89
3,-0.04640198,-0.1702881,0.9842987,1.0,-0.04682922,-0.1700592,0.984314,-28.14403,-4.277405,-28.52032,4.749695,0.3799014,0.7591162,1.0,-0.03187561,-0.177887,0.9835205,31.49446,-2.061844,-32.30399,4.501694,0.5476992,0.7280349,0.2355338,1.08018,-0.1841976,0.379115,0.1728623,-0.07361144,1.021557,0.5596542,31.89
3,-0.1290436,-0.2968597,0.9461517,1.0,-0.129715,-0.2971191,0.9459839,-28.43365,-4.836609,-28.7614,4.728149,0.4028402,0.8066835,1.0,-0.1137543,-0.290802,0.9499817,30.87122,-2.572052,-32.58334,4.671753,0.585286,0.7733607,0.2367922,1.073563,-0.1839499,0.3944132,0.1780435,-0.07528543,1.021557,0.5596542,31.89
3,-0.2754974,-0.4030457,0.8727112,1.0,-0.2766876,-0.4045715,0.8716278,-29.34993,-4.202499,-28.76436,4.724701,0.4597473,0.8072667,1.0,-0.253952,-0.3755646,0.8913116,30.13344,-2.050415,-32.60345,4.830139,0.6378447,0.7743771,0.2378747,1.070383,-0.1840094,0.4029564,0.1776142,-0.07721012,1.021557,0.5596542,31.89
3,-0.2754974,-0.4030457,0.8727112,1.0,-0.2766876,-0.4045715,0.8716278,-29.34993,-4.202499,-28.76436,4.724701,0.4597473,0.8072667,1.0,-0.253952,-0.3755646,0.8913116,30.13344,-2.050415,-32.60345,4.830139,0.6378447,0.7743771,0.2378747,1.070383,-0.1840094,0.4029564,0.1776142,-0.07721012,1.021557,0.5596542,31.89
3,-0.2754974,-0.4030457,0.8727112,1.0,-0.2766876,-0.4045715,0.8716278,-29.34993,-4.202499,-28.76436,4.724701,0.4597473,0.8072667,1.0,-0.253952,-0.3755646,0.8913116,30.13344,-2.050415,-32.60345,4.830139,0.6378447,0.7743771,0.2391869,1.065623,-0.1848698,0.4159721,0.1873472,-0.07802031,1.021557,-30.26448,31.89
3,-0.2754974,-0.4030457,0.8727112,1.0,-0.2766876,-0.4045715,0.8716278,-29.34993,-4.202499,-28.76436,4.724701,0.4597473,0.8072667,1.0,-0.253952,-0.3755646,0.8913116,30.13344,-2.050415,-32.60345,4.830139,0.6378447,0.7743771,0.2391869,1.065623,-0.1848698,0.4159721,0.1873472,-0.07802031,1.021557,-30.26448,31.89
3,-0.2754974,-0.4030457,0.8727112,1.0,-0.2766876,-0.4045715,0.8716278,-29.34993,-4.202499,-28.76436,4.724701,0.4597473,0.8072667,1.0,-0.253952,-0.3755646,0.8913116,30.13344,-2.050415,-32.60345,4.830139,0.6378447,0.7743771,0.240967,1.061646,-0.1848489,0.423345,0.1955257,-0.07906228,1.021557,-30.26448,31.89
3,-0.2754974,-0.4030457,0.8727112,1.0,-0.2766876,-0.4045715,0.8716278,-29.34993,-4.202499,-28.76436,4.724701,0.4597473,0.8072667,1.0,-0.253952,-0.3755646,0.8913116,30.13344,-2.050415,-32.60345,4.830139,0.6378447,0.7743771,0.240967,1.061646,-0.1848489,0.423345,0.1955257,-0.07906228,1.021557,-30.26448,31.89
3,-0.2237549,-0.207016,0.9523926,1.0,-0.2251129,-0.2079468,0.9518738,-29.16858,-3.237259,-28.42726,4.625244,0.445881,0.7296271,1.0,-0.2072906,-0.195694,0.9584961,30.59068,-1.066864,-32.291,4.772171,0.6113698,0.6971881,0.2426727,1.058379,-0.1847242,0.4283588,0.2034576,-0.08028265,1.021557,-30.26448,31.89
3,-0.2237549,-0.207016,0.9523926,1.0,-0.2251129,-0.2079468,0.9518738,-29.16858,-3.237259,-28.42726,4.625244,0.445881,0.7296271,1.0,-0.2072906,-0.195694,0.9584961,30.59068,-1.066864,-32.291,4.772171,0.6113698,0.6971881,0.2426727,1.058379,-0.1847242,0.4283588,0.2034576,-0.08028265,1.021557,-30.26448,31.89
3,-0.2135925,-0.1940918,0.957428,1.0,-0.2205048,-0.2141266,0.9515839,-29.0648,-3.223587,-28.40929,4.520203,0.4416058,0.7299492,1.0,-0.2084198,-0.1792297,0.9614716,30.70174,-0.9900513,-32.27519,4.757233,0.6075103,0.6910526,0.2426727,1.058379,-0.1847242,0.4283588,0.2034576,-0.08028265,1.021557,-30.26448,31.89
3,-0.1840515,-0.1585693,0.9700317,1.0,-0.1929932,-0.2042542,0.9596863,-29.0175,-3.33548,-28.41331,4.508026,0.4353288,0.7317281,1.0,-0.1792755,-0.1348267,0.9745026,30.76385,-1.076492,-32.31174,4.730652,0.6001046,0.6858505,0.2444327,1.055258,-0.185191,0.4351138,0.2118274,-0.08291675,1.021557,-30.26448,31.89
4,-0.1840515,-0.1585693,0.9700317,1.0,-0.1929932,-0.2042542,0.9596863,-29.0175,-3.33548,-28.41331,4.508026,0.4353288,0.7317281,1.0,-0.1792755,-0.1348267,0.9745026,30.76385,-1.076492,-32.31174,4.730652,0.6001046,0.6858505,0.2455999,1.052823,-0.1860633,0.4422744,0.2203764,-0.08626952,1.021557,-30.26448,31.89
4,-0.1840515,-0.1585693,0.9700317,1.0,-0.1929932,-0.2042542,0.9596863,-29.0175,-3.33548,-28.41331,4.508026,0.4353288,0.7317281,1.0,-0.1792755,-0.1348267,0.9745026,30.76385,-1.076492,-32.31174,4.730652,0.6001046,0.6858505,0.2455999,1.052823,-0.1860633,0.4422744,0.2203764,-0.08626952,1.021557,-30.26448,31.89
4,-0.1934509,-0.1588898,0.9681549,1.0,-0.1935425,-0.1792755,0.9645538,-28.98228,-3.395309,-28.42545,4.470367,0.4342937,0.729338,1.0,-0.1929779,-0.1167755,0.9742279,30.79895,-1.114151,-32.32707,4.899582,0.601262,0.6843008,0.2468092,1.051109,-0.1868662,0.4468391,0.228056,-0.08929216,1.021557,-30.26448,31.89
4,-0.1934509,-0.1588898,0.9681549,1.0,-0.1935425,-0.1792755,0.9645538,-28.98228,-3.395309,-28.42545,4.470367,0.4342937,0.729338,1.0,-0.1929779,-0.1167755,0.9742279,30.79895,-1.114151,-32.32707,4.899582,0.601262,0.6843008,0.2479255,1.049799,-0.1870682,0.4486817,0.2349261,-0.09187658,1.021557,-30.26448,31.89
4,-0.1934509,-0.1588898,0.9681549,1.0,-0.1935425,-0.1792755,0.9645538,-28.98228,-3.395309,-28.42545,4.470367,0.4342937,0.729338,1.0,-0.1929779,-0.1167755,0.9742279,30.79895,-1.114151,-32.32707,4.899582,0.601262,0.6843008,0.2479255,1.049799,-0.1870682,0.4486817,0.2349261,-0.09187658,1.021557,-30.26448,31.89
4,-0.1934509,-0.1588898,0.9681549,1.0,-0.1935425,-0.1792755,0.9645538,-28.98228,-3.395309,-28.42545,4.470367,0.4342937,0.729338,1.0,-0.1929779,-0.1167755,0.9742279,30.79895,-1.114151,-32.32707,4.899582,0.601262,0.6843008,0.2490308,1.048716,-0.1872792,0.4491055,0.2409851,-0.09497831,1.021557,-30.26448,31.89
4,-0.1934509,-0.1588898,0.9681549,1.0,-0.1935425,-0.1792755,0.9645538,-28.98228,-3.395309,-28.42545,4.470367,0.4342937,0.729338,1.0,-0.1929779,-0.1167755,0.9742279,30.79895,-1.114151,-32.32707,4.899582,0.601262,0.6843008,0.2490308,1.048716,-0.1872792,0.4491055,0.2409851,-0.09497831,1.021557,-30.26448,31.89
4,-0.1545563,-0.1127625,0.9815216,1.0,-0.1545868,-0.1128082,0.9815063,-28.76753,-3.113312,-28.35384,4.471542,0.4207064,0.7064144,1.0,-0.1389771,-0.08181763,0.986908,31.12146,-0.5065002,-33.67218,4.678116,0.5813098,0.6701424,0.250012,1.047557,-0.1878105,0.4501382,0.2468872,-0.09828954,1.021557,29.96483,31.89
4,-0.1545563,-0.1127625,0.9815216,1.0,-0.1545868,-0.1128082,0.9815063,-28.76753,-3.113312,-28.35384,4.471542,0.4207064,0.7064144,1.0,-0.1389771,-0.08181763,0.986908,31.12146,-0.5065002,-33.67218,4.678116,0.5813098,0.6701424,0.250012,1.047557,-0.1878105,0.4501382,0.2468872,-0.09828954,1.021557,29.96483,31.89
4,-0.1378021,-0.09599304,0.9857941,1.0,-0.1378021,-0.09599304,0.9857941,-28.65538,-3.173492,-28.30673,4.552582,0.4140604,0.7049143,1.0,-0.08805847,-0.04714966,0.9949951,31.24529,-0.7604065,-33.19873,4.760208,0.5673496,0.6673701,0.2510562,1.046327,-0.1885284,0.4513779,0.2529329,-0.1016083,1.021557,29.96483,31.89
4,-0.1378021,-0.09599304,0.9857941,1.0,-0.1378021,-0.09599304,0.9857941,-28.65538,-3.173492,-28.30673,4.552582,0.4140604,0.7049143,1.0,-0.08805847,-0.04714966,0.9949951,31.24529,-0.7604065,-33.19873,4.760208,0.5673496,0.6673701,0.2510562,1.046327,-0.1885284,0.4513779,0.2529329,-0.1016083,1.021557,29.96483,31.89
4,-0.1426697,-0.0682373,0.9874115,1.0,-0.1426697,-0.0682373,0.9874115,-28.55493,-3.284164,-28.25574,4.566971,0.4115292,0.70332,1.0,-0.1022186,-0.03140259,0.9942627,31.32896,-0.8468933,-33.18736,4.87915,0.5668362,0.6676845,0.2519157,1.045234,-0.1894656,0.4524542,0.2597532,-0.1049868,1.021557,29.96483,31.89
4,-0.1426697,-0.0682373,0.9874115,1.0,-0.1426697,-0.0682373,0.9874115,-28.55493,-3.284164,-28.25574,4.566971,0.4115292,0.70332,1.0,-0.1022186,-0.03140259,0.9942627,31.32896,-0.8468933,-33.18736,4.87915,0.5668362,0.6676845,0.2519157,1.045234,-0.1894656,0.4524542,0.2597532,-0.1049868,1.021557,29.96483,31.89
4,-0.2330475,-0.1394501,0.9624023,1.0,-0.2346649,-0.1428833,0.9615021,-29.06586,-3.720215,-28.55348,4.583466,0.4440423,0.7360371,1.0,-0.209198,-0.08940125,0.9737701,30.5843,-1.438919,-32.86963,4.843826,0.6127015,0.6974103,0.2525816,1.044223,-0.190696,0.4532933,0.2675831,-0.1082119,1.021557,29.96483,31.89
4,-0.2330475,-0.1394501,0.9624023,1.0,-0.2346649,-0.1428833,0.9615021,-29.06586,-3.720215,-28.55348,4.583466,0.4440423,0.7360371,1.0,-0.209198,-0.08940125,0.9737701,30.5843,-1.438919,-32.86963,4.843826,0.6127015,0.6974103,0.2525816,1.044223,-0.190696,0.4532933,0.2675831,-0.1082119,1.021557,29.96483,31.89
4,-0.3467712,-0.1780243,0.9208832,1.0,-0.3735352,-0.2101746,0.9034729,-29.65009,-4.16153,-28.87759,4.690125,0.4876688,0.7706214,1.0,-0.3370056,-0.1664124,0.9266663,29.84184,-1.803177,-33.14703,4.786301,0.6643145,0.7315174,0.2531418,1.043392,-0.192202,0.4539346,0.2767425,-0.1109416,1.021557,29.96483,31.89
4,-0.3467712,-0.1780243,0.9208832,1.0,-0.3735352,-0.2101746,0.9034729,-29.65009,-4.16153,-28.87759,4.690125,0.4876688,0.7706214,1.0,-0.3370056,-0.1664124,0.9266663,29.84184,-1.803177,-33.14703,4.786301,0.6643145,0.7315174,0.2531418,1.043392,-0.192202,0.4539346,0.2767425,-0.1109416,1.021557,29.96483,31.89
4,-0.3467712,-0.1780243,0.9208832,1.0,-0.3735352,-0.2101746,0.9034729,-29.65009,-4.16153,-28.87759,4.690125,0.4876688,0.7706214,1.0,-0.3370056,-0.1664124,0.9266663,29.84184,-1.803177,-33.14703,4.786301,0.6643145,0.7315174,0.2539456,1.042798,-0.1939033,0.4537748,0.2871037,-0.1136432,1.021557,29.96483,31.89
4,-0.3467712,-0.1780243,0.9208832,1.0,-0.3735352,-0.2101746,0.9034729,-29.65009,-4.16153,-28.87759,4.690125,0.4876688,0.7706214,1.0,-0.3370056,-0.1664124,0.9266663,29.84184,-1.803177,-33.14703,4.786301,0.6643145,0.7315174,0.2539456,1.042798,-0.1939033,0.4537748,0.2871037,-0.1136432,1.021557,29.96483,31.89
4,-0.3467712,-0.1780243,0.9208832,1.0,-0.3735352,-0.2101746,0.9034729,-29.65009,-4.16153,-28.87759,4.690125,0.4876688,0.7706214,1.0,-0.3370056,-0.1664124,0.9266663,29.84184,-1.803177,-33.14703,4.786301,0.6643145,0.7315174,0.2544609,1.042594,-0.195926,0.4526728,0.298795,-0.1165486,1.021557,29.96483,31.89
4,-0.3467712,-0.1780243,0.9208832,1.0,-0.3735352,-0.2101746,0.9034729,-29.65009,-4.16153,-28.87759,4.690125,0.4876688,0.7706214,1.0,-0.3370056,-0.1664124,0.9266663,29.84184,-1.803177,-33.14703,4.786301,0.6643145,0.7315174,0.2544609,1.042594,-0.195926,0.4526728,0.298795,-0.1165486,1.021557,29.96483,31.89
4,-0.3467712,-0.1780243,0.9208832,1.0,-0.3735352,-0.2101746,0.9034729,-29.65009,-4.16153,-28.87759,4.690125,0.4876688,0.7706214,1.0,-0.3370056,-0.1664124,0.9266663,29.84184,-1.803177,-33.14703,4.786301,0.6643145,0.7315174,0.2544609,1.042594,-0.195926,0.4526728,0.298795,-0.1165486,1.021557,29.96483,31.89
4,-0.3543243,-0.161499,0.9210663,1.0,-0.4026794,-0.2070313,0.8916016,-29.8383,-4.230408,-28.9686,4.764771,0.4992628,0.7744288,1.0,-0.3507385,-0.1581726,0.9230042,29.72406,-1.895401,-33.21286,4.836975,0.6714906,0.7346218,0.254977,1.043022,-0.1982477,0.4492632,0.3138466,-0.119872,1.021557,29.96483,31.89
4,-0.3411865,-0.1453247,0.9286804,1.0,-0.3795624,-0.179245,0.9076233,-29.76021,-4.150452,-28.90436,4.839279,0.4925025,0.7649727,1.0,-0.3346405,-0.1395721,0.9319458,30.0439,-1.814804,-33.11765,4.747894,0.6562732,0.7261123,0.2557702,1.044161,-0.2007791,0.4440224,0.3325117,-0.1228024,1.021557,22.98734,31.89
4,-0.3411865,-0.1453247,0.9286804,1.0,-0.3795624,-0.179245,0.9076233,-29.76021,-4.150452,-28.90436,4.839279,0.4925025,0.7649727,1.0,-0.3346405,-0.1395721,0.9319458,30.0439,-1.814804,-33.11765,4.747894,0.6562732,0.7261123,0.2557702,1.044161,-0.2007791,0.4440224,0.3325117,-0.1228024,1.021557,22.98734,31.89
4,-0.3392334,-0.1434326,0.9296875,1.0,-0.3564453,-0.1723328,0.9182739,-29.73393,-4.159073,-28.87823,4.906586,0.4875161,0.7631969,1.0,-0.3310089,-0.1297913,0.9346466,30.0778,-1.803299,-33.11029,4.925644,0.6542388,0.7237737,0.2567952,1.045826,-0.2035823,0.4375337,0.3551191,-0.1252353,1.021557,22.98734,31.89
4,-0.3392334,-0.1434326,0.9296875,1.0,-0.3564453,-0.1723328,0.9182739,-29.73393,-4.159073,-28.87823,4.906586,0.4875161,0.7631969,1.0,-0.3310089,-0.1297913,0.9346466,30.0778,-1.803299,-33.11029,4.925644,0.6542388,0.7237737,0.2567952,1.045826,-0.2035823,0.4375337,0.3551191,-0.1252353,1.021557,22.98734,31.89
4,-0.3392334,-0.1434326,0.9296875,1.0,-0.3564453,-0.1723328,0.9182739,-29.73393,-4.159073,-28.87823,4.906586,0.4875161,0.7631969,1.0,-0.3310089,-0.1297913,0.9346466,30.0778,-1.803299,-33.11029,4.925644,0.6542388,0.7237737,0.2577864,1.048044,-0.2069705,0.4310909,0.380397,-0.1267548,1.021557,22.98734,31.89
4,-0.3392334,-0.1434326,0.9296875,1.0,-0.3564453,-0.1723328,0.9182739,-29.73393,-4.159073,-28.87823,4.906586,0.4875161,0.7631969,1.0,-0.3310089,-0.1297913,0.9346466,30.0778,-1.803299,-33.11029,4.925644,0.6542388,0.7237737,0.2577864,1.048044,-0.2069705,0.4310909,0.380397,-0.1267548,1.021557,22.98734,31.89
4,-0.3392334,-0.1434326,0.9296875,1.0,-0.3564453,-0.1723328,0.9182739,-29.73393,-4.159073,-28.87823,4.906586,0.4875161,0.7631969,1.0,-0.3310089,-0.1297913,0.9346466,30.0778,-1.803299,-33.11029,4.925644,0.6542388,0.7237737,0.2586445,1.050826,-0.2110083,0.424165,0.4081306,-0.1272499,1.021557,22.98734,31.89
4,-0.3392334,-0.1434326,0.9296875,1.0,-0.3564453,-0.1723328,0.9182739,-29.73393,-4.159073,-28.87823,4.906586,0.4875161,0.7631969,1.0,-0.3310089,-0.1297913,0.9346466,30.0778,-1.803299,-33.11029,4.925644,0.6542388,0.7237737,0.2586445,1.050826,-0.2110083,0.424165,0.4081306,-0.1272499,1.021557,22.98734,31.89
4,-0.2658386,-0.1097565,0.9577332,1.0,-0.2860107,-0.1266937,0.9497986,-29.42647,-4.409744,-28.85168,4.772385,0.464915,0.7617763,1.0,-0.241806,-0.08969116,0.966156,30.34627,-1.919769,-33.05511,4.707245,0.6277837,0.7176477,0.25966,1.054263,-0.2151244,0.4151131,0.4376426,-0.1266882,1.021557,22.98734,31.89
4,-0.2658386,-0.1097565,0.9577332,1.0,-0.2860107,-0.1266937,0.9497986,-29.42647,-4.409744,-28.85168,4.772385,0.464915,0.7617763,1.0,-0.241806,-0.08969116,0.966156,30.34627,-1.919769,-33.05511,4.707245,0.6277837,0.7176477,0.25966,1.054263,-0.2151244,0.4151131,0.4376426,-0.1266882,1.021557,22.98734,31.89
4,-0.2499542,-0.05654907,0.9665985,1.0,-0.2642059,-0.06654358,0.9621582,-29.31209,-4.373657,-28.83162,4.778076,0.4574397,0.7489547,1.0,-0.2358704,-0.04670715,0.9706573,30.31717,-1.855286,-33.06615,4.798431,0.6277163,0.7073861,0.2604016,1.058203,-0.2194518,0.4024263,0.4686079,-0.1254923,1.021557,22.98734,31.89
4,-0.2499542,-0.05654907,0.9665985,1.0,-0.2642059,-0.06654358,0.9621582,-29.31209,-4.373657,-28.83162,4.778076,0.4574397,0.7489547,1.0,-0.2358704,-0.04670715,0.9706573,30.31717,-1.855286,-33.06615,4.798431,0.6277163,0.7073861,0.2604016,1.058203,-0.2194518,0.4024263,0.4686079,-0.1254923,1.021557,22.98734,31.89
4,-0.2704163,-0.03390503,0.9621277,1.0,-0.2910919,-0.06394958,0.9545441,-29.44737,-4.237198,-28.83476,4.744156,0.4668065,0.7441077,1.0,-0.2465668,0.0001373291,0.9691162,30.09763,-1.636032,-33.07791,4.825668,0.637682,0.6911443,0.2607538,1.062145,-0.2239988,0.3880998,0.4990879,-0.1239538,1.021557,22.98734,31.89
4,-0.2704163,-0.03390503,0.9621277,1.0,-0.2910919,-0.06394958,0.9545441,-29.44737,-4.237198,-28.83476,4.744156,0.4668065,0.7441077,1.0,-0.2465668,0.0001373291,0.9691162,30.09763,-1.636032,-33.07791,4.825668,0.637682,0.6911443,0.2607538,1.062145,-0.2239988,0.3880998,0.4990879,-0.1239538,1.021557,22.98734,31.89
4,-0.2878418,0.03883362,0.9568787,1.0,-0.296814,0.01791382,0.9547577,-29.46118,-4.141434,-28.8492,4.775726,0.4686197,0.7264965,1.0,-0.2697144,0.08007813,0.9595947,30.03677,-1.46756,-33.11148,5.095718,0.6442468,0.6715726,0.2610301,1.066429,-0.2286214,0.3729437,0.5290737,-0.121571,1.021557,22.98734,31.89
4,-0.2878418,0.03883362,0.9568787,1.0,-0.296814,0.01791382,0.9547577,-29.46118,-4.141434,-28.8492,4.775726,0.4686197,0.7264965,1.0,-0.2697144,0.08007813,0.9595947,30.03677,-1.46756,-33.11148,5.095718,0.6442468,0.6715726,0.2610301,1.066429,-0.2286214,0.3729437,0.5290737,-0.121571,1.021557,22.98734,31.89
4,-0.278183,0.05996704,0.9586487,1.0,-0.2829895,0.02909851,0.9586792,-29.42935,-4.162689,-28.84648,4.522034,0.4653779,0.7247158,1.0,-0.2662201,0.1301117,0.9550781,30.05457,-1.455032,-33.14066,5.06691,0.6431463,0.662362,0.2606908,1.070888,-0.2334618,0.3573699,0.5576633,-0.1186689,1.021557,-24.50646,31.89
4,-0.278183,0.05996704,0.9586487,1.0,-0.2829895,0.02909851,0.9586792,-29.42935,-4.162689,-28.84648,4.522034,0.4653779,0.7247158,1.0,-0.2662201,0.1301117,0.9550781,30.05457,-1.455032,-33.14066,5.06691,0.6431463,0.662362,0.2606908,1.070888,-0.2334618,0.3573699,0.5576633,-0.1186689,1.021557,-24.50646,31.89
4,-0.2788391,0.1073303,0.9543152,1.0,-0.2891083,0.08924866,0.953125,-29.41736,-4.200882,-28.88849,4.480453,0.4663548,0.716038,1.0,-0.2601929,0.1394958,0.9554138,30.08047,-1.471146,-33.13853,4.910995,0.6411568,0.6609191,0.2600561,1.075569,-0.2380487,0.3415605,0.5840569,-0.1157095,1.021557,-24.50646,31.89
4,-0.2788391,0.1073303,0.9543152,1.0,-0.2891083,0.08924866,0.953125,-29.41736,-4.200882,-28.88849,4.480453,0.4663548,0.716038,1.0,-0.2601929,0.1394958,0.9554138,30.08047,-1.471146,-33.13853,4.910995,0.6411568,0.6609191,0.2600561,1.075569,-0.2380487,0.3415605,0.5840569,-0.1157095,1.011306,-24.50646,31.89
4,-0.2469788,0.1573029,0.9561615,1.0,-0.2711334,0.1353912,0.9529572,-29.3017,-4.161728,-28.88205,4.790756,0.4592815,0.7068121,1.0,-0.2201691,0.1811523,0.9584808,30.21272,-1.468918,-33.13055,4.954514,0.6290364,0.6528435,0.2596096,1.078238,-0.2400554,0.3338522,0.5959442,-0.1139431,0.9908049,-24.50646,31.89
4,-0.2099762,0.1296997,0.9690552,1.0,-0.2265625,0.08604431,0.9701843,-29.10156,-4.244308,-28.77365,4.493164,0.4446519,0.7160193,1.0,-0.1872101,0.1873779,0.9642792,30.53156,-1.606277,-33.1436,4.815155,0.6114744,0.6561677,0.2590379,1.080351,-0.2422146,0.3260743,0.6074684,-0.112544,0.9908049,-24.50646,31.89
4,-0.2099762,0.1296997,0.9690552,1.0,-0.2265625,0.08604431,0.9701843,-29.10156,-4.244308,-28.77365,4.493164,0.4446519,0.7160193,1.0,-0.1872101,0.1873779,0.9642792,30.53156,-1.606277,-33.1436,4.815155,0.6114744,0.6561677,0.2590379,1.080351,-0.2422146,0.3260743,0.6074684,-0.112544,0.9908049,-24.50646,31.89
4,-0.193512,0.1415863,0.9708099,1.0,-0.2059021,0.115509,0.9717255,-28.98558,-4.311386,-28.76378,4.591263,0.4371711,0.7130514,1.0,-0.1743927,0.1809998,0.9678955,30.69298,-1.591583,-33.39568,4.896973,0.6035161,0.6595137,0.2573463,1.085012,-0.2458778,0.3118442,0.626809,-0.1097528,0.9908049,-24.50646,31.89
4,-0.193512,0.1415863,0.9708099,1.0,-0.2059021,0.115509,0.9717255,-28.98558,-4.311386,-28.76378,4.591263,0.4371711,0.7130514,1.0,-0.1743927,0.1809998,0.9678955,30.69298,-1.591583,-33.39568,4.896973,0.6035161,0.6595137,0.2573463,1.085012,-0.2458778,0.3118442,0.626809,-0.1097528,0.9908049,-24.50646,31.89
4,-0.15979,0.1188049,0.9799652,1.0,-0.1761322,0.1062317,0.9786072,-28.75244,-4.392365,-28.57582,4.588226,0.4240682,0.7150887,1.0,-0.1176453,0.1507721,0.9815369,30.97578,-1.932922,-32.83382,4.6548,0.5823575,0.6700375,0.2562453,1.087164,-0.2477088,0.3050031,0.6357327,-0.1086089,0.9908049,-24.50646,31.89
4,-0.15979,0.1188049,0.9799652,1.0,-0.1761322,0.1062317,0.9786072,-28.75244,-4.392365,-28.57582,4.588226,0.4240682,0.7150887,1.0,-0.1176453,0.1507721,0.9815369,30.97578,-1.932922,-32.83382,4.6548,0.5823575,0.6700375,0.2618805,1.102126,-0.2439079,0.2887536,0.6559514,-0.1053489,0.9908049,-24.50646,31.89
4,-0.15979,0.1188049,0.9799652,1.0,-0.1761322,0.1062317,0.9786072,-28.75244,-4.392365,-28.57582,4.588226,0.4240682,0.7150887,1.0,-0.1176453,0.1507721,0.9815369,30.97578,-1.932922,-32.83382,4.6548,0.5823575,0.6700375,0.2618805,1.102126,-0.2439079,0.2887536,0.6559514,-0.1053489,0.9908049,-24.50646,31.89
4,-0.15979,0.1188049,0.9799652,1.0,-0.1761322,0.1062317,0.9786072,-28.75244,-4.392365,-28.57582,4.588226,0.4240682,0.7150887,1.0,-0.1176453,0.1507721,0.9815369,30.97578,-1.932922,-32.83382,4.6548,0.5823575,0.6700375,0.2611946,1.104643,-0.2444221,0.2822509,0.6618223,-0.1040318,0.9908049,-24.50646,31.89
4,-0.15979,0.1188049,0.9799652,1.0,-0.1761322,0.1062317,0.9786072,-28.75244,-4.392365,-28.57582,4.588226,0.4240682,0.7150887,1.0,-0.1176453,0.1507721,0.9815369,30.97578,-1.932922,-32.83382,4.6548,0.5823575,0.6700375,0.2611946,1.104643,-0.2444221,0.2822509,0.6618223,-0.1040318,0.9908049,-24.50646,31.89
4,-0.15979,0.1188049,0.9799652,1.0,-0.1761322,0.1062317,0.9786072,-28.75244,-4.392365,-28.57582,4.588226,0.4240682,0.7150887,1.0,-0.1176453,0.1507721,0.9815369,30.97578,-1.932922,-32.83382,4.6548,0.5823575,0.6700375,0.2590854,1.108832,-0.2454206,0.269429,0.6709007,-0.1007531,0.9908049,-36.64919,31.89
4,-0.07835388,0.08883667,0.9929504,1.0,-0.0790863,0.08886719,0.9928894,-27.81049,-4.754288,-27.88873,4.681549,0.3753799,0.7225778,1.0,-0.009063721,0.08670044,0.9961853,31.90515,-2.478729,-31.77701,4.675674,0.5287933,0.6885161,0.2579327,1.110885,-0.2456774,0.2628301,0.6747438,-0.09895476,0.9908049,-64.02509,31.89
4,-0.07835388,0.08883667,0.9929504,1.0,-0.0790863,0.08886719,0.9928894,-27.81049,-4.754288,-27.88873,4.681549,0.3753799,0.7225778,1.0,-0.009063721,0.08670044,0.9961853,31.90515,-2.478729,-31.77701,4.675674,0.5287933,0.6885161,0.2579327,1.110885,-0.2456774,0.2628301,0.6747438,-0.09895476,0.9908049,-64.02509,31.89
4,-0.06533813,0.05734253,0.9962006,1.0,-0.06535339,0.05734253,0.9962006,-27.65941,-4.593628,-28.15611,4.68277,0.3676471,0.7253167,1.0,-0.001083374,0.07450867,0.9972076,32.0845,-2.467316,-31.5397,4.66626,0.5208876,0.6875033,0.256826,1.112801,-0.2457064,0.2563534,0.6775799,-0.09674232,0.9908049,-64.02509,31.89
4,-0.04867554,0.0425415,0.9978943,1.0,-0.0486908,0.0425415,0.9978943,-27.5692,-4.528748,-28.30937,4.761917,0.3613438,0.7275844,1.0,0.01954651,0.03575134,0.9991608,32.18187,-2.217499,-32.01559,4.584808,0.513941,0.6907052,0.2546506,1.116832,-0.245591,0.243168,0.6831132,-0.09288548,0.9908049,-64.02509,31.89
4,-0.04867554,0.0425415,0.9978943,1.0,-0.0486908,0.0425415,0.9978943,-27.5692,-4.528748,-28.30937,4.761917,0.3613438,0.7275844,1.0,0.01954651,0.03575134,0.9991608,32.18187,-2.217499,-32.01559,4.584808,0.513941,0.6907052,0.2546506,1.116832,-0.245591,0.243168,0.6831132,-0.09288548,0.9908049,-64.02509,31.89
4,-0.01454163,-0.002365112,0.9998779,1.0,-0.01544189,-0.002593994,0.9998627,-27.54765,-4.496719,-28.07491,4.745895,0.3550791,0.7316229,1.0,0.0330658,0.00970459,0.9994049,32.29819,-2.109604,-32.09091,4.544632,0.5074176,0.6923084,0.2525696,1.120894,-0.2448756,0.2298445,0.6875259,-0.08802171,0.9908049,-64.02509,31.89
4,-0.006622314,0.004852295,0.9999542,1.0,-0.007522583,0.004638672,0.9999542,-27.59718,-4.097702,-28.56036,4.528473,0.3553257,0.721581,1.0,0.0378418,0.01548767,0.9991608,32.28889,-1.747162,-32.57129,4.423737,0.5070854,0.6835011,0.2513399,1.122666,-0.2447065,0.2227418,0.6893241,-0.08497076,0.9908049,-64.02509,31.89
4,-0.006622314,0.004852295,0.9999542,1.0,-0.007522583,0.004638672,0.9999542,-27.59718,-4.097702,-28.56036,4.528473,0.3553257,0.721581,1.0,0.0378418,0.01548767,0.9991608,32.28889,-1.747162,-32.57129,4.423737,0.5070854,0.6835011,0.25046,1.124863,-0.244139,0.2153997,0.6907551,-0.08164675,0.9908049,-64.02509,31.89
4,-0.006622314,0.004852295,0.9999542,1.0,-0.007522583,0.004638672,0.9999542,-27.59718,-4.097702,-28.56036,4.528473,0.3553257,0.721581,1.0,0.0378418,0.01548767,0.9991608,32.28889,-1.747162,-32.57129,4.423737,0.5070854,0.6835011,0.25046,1.124863,-0.244139,0.2153997,0.6907551,-0.08164675,0.9908049,-64.02509,31.89
4,-0.006622314,0.004852295,0.9999542,1.0,-0.007522583,0.004638672,0.9999542,-27.59718,-4.097702,-28.56036,4.528473,0.3553257,0.721581,1.0,0.0378418,0.01548767,0.9991608,32.28889,-1.747162,-32.57129,4.423737,0.5070854,0.6835011,0.248565,1.129006,-0.2431192,0.2005927,0.6941155,-0.07406913,0.9908049,-64.02509,31.89
4,-0.01660156,0.03236389,0.9993286,1.0,-0.01727295,0.03256226,0.9993134,-27.60123,-3.746765,-28.86026,4.658981,0.3570317,0.7080457,1.0,0.03033447,0.01864624,0.9993591,32.28822,-1.279617,-33.14691,4.279785,0.508673,0.672382,0.2476393,1.130959,-0.2426273,0.1933275,0.6956937,-0.06986065,0.9908049,-64.02509,31.89
4,-0.01660156,0.03236389,0.9993286,1.0,-0.01727295,0.03256226,0.9993134,-27.60123,-3.746765,-28.86026,4.658981,0.3570317,0.7080457,1.0,0.03033447,0.01864624,0.9993591,32.28822,-1.279617,-33.14691,4.279785,0.508673,0.672382,0.2476393,1.130959,-0.2426273,0.1933275,0.6956937,-0.06986065,0.9908049,-64.02509,31.89
4,-0.02656555,0.1901398,0.9813843,1.0,-0.02656555,0.1901398,0.9813843,-27.57941,-2.681885,-29.37094,4.473419,0.3585275,0.6494135,1.0,0.0,0.0,0.0,31.98697,0.06587219,-32.73039,-1.0,0.5226398,0.5854239,0.245644,1.134887,-0.2415289,0.1796053,0.6981081,-0.06148843,0.9908049,-64.02509,31.89
4,-0.02098083,0.2308807,0.9727478,1.0,-0.02098083,0.2308807,0.9727478,-27.59741,-2.856247,-28.79578,4.624466,0.3587545,0.6427436,1.0,0.0,0.0,0.0,31.95042,0.02346802,-32.81012,-1.0,0.5214779,0.5782511,0.2446588,1.136733,-0.2408674,0.1731508,0.698837,-0.05711058,0.9908049,-64.02509,31.89
4,-0.02098083,0.2308807,0.9727478,1.0,-0.02098083,0.2308807,0.9727478,-27.59741,-2.856247,-28.79578,4.624466,0.3587545,0.6427436,1.0,0.0,0.0,0.0,31.95042,0.02346802,-32.81012,-1.0,0.5214779,0.5782511,0.2446588,1.136733,-0.2408674,0.1731508,0.698837,-0.05711058,0.9908049,-64.02509,31.89
4,-0.007873535,0.2519989,0.9676819,1.0,-0.01251221,0.2508545,0.967926,-27.60938,-2.894699,-28.69717,4.524231,0.3578675,0.6394932,1.0,0.04420471,0.2644196,0.9633789,31.98891,-0.07653809,-32.80548,4.322281,0.5172065,0.5823144,0.243032,1.140471,-0.2392132,0.160633,0.6988335,-0.04836288,0.9908049,-64.02509,31.89
4,-0.008102417,0.2566986,0.9664459,1.0,-0.01402283,0.253067,0.9673309,-27.59779,-2.886993,-28.69986,4.535721,0.3577344,0.6389101,1.0,0.04243469,0.2870789,0.956955,32.01801,-0.08554077,-32.8389,4.444885,0.5165269,0.5792072,0.242272,1.142351,-0.2381985,0.1548223,0.6983558,-0.04410085,0.9908049,-18.20277,31.89
4,0.03146362,0.2633057,0.9641876,1.0,-0.01017761,0.2421112,0.9701843,-27.63306,-3.136932,-28.73073,4.529495,0.3580746,0.6496075,1.0,0.03445435,0.2648163,0.9636688,32.20667,-0.5272369,-32.81758,4.306793,0.5111083,0.5982615,0.2413281,1.144028,-0.2373247,0.1489046,0.6973019,-0.04003469,0.9908049,-18.20277,31.89
4,0.03146362,0.2633057,0.9641876,1.0,-0.01017761,0.2421112,0.9701843,-27.63306,-3.136932,-28.73073,4.529495,0.3580746,0.6496075,1.0,0.03445435,0.2648163,0.9636688,32.20667,-0.5272369,-32.81758,4.306793,0.5111083,0.5982615,0.2413281,1.144028,-0.2373247,0.1489046,0.6973019,-0.04003469,0.9908049,-18.20277,31.89
4,0.03146362,0.2633057,0.9641876,1.0,-0.01017761,0.2421112,0.9701843,-27.63306,-3.136932,-28.73073,4.529495,0.3580746,0.6496075,1.0,0.03445435,0.2648163,0.9636688,32.20667,-0.5272369,-32.81758,4.306793,0.5111083,0.5982615,0.239864,1.147504,-0.2349839,0.1374043,0.6941723,-0.03200966,0.9908049,-18.20277,31.89
4,0.03146362,0.2633057,0.9641876,1.0,-0.01017761,0.2421112,0.9701843,-27.63306,-3.136932,-28.73073,4.529495,0.3580746,0.6496075,1.0,0.03445435,0.2648163,0.9636688,32.20667,-0.5272369,-32.81758,4.306793,0.5111083,0.5982615,0.2389261,1.149281,-0.2338513,0.1314326,0.6924957,-0.02845496,0.9908049,-18.20277,31.89
4,0.03146362,0.2633057,0.9641876,1.0,-0.01017761,0.2421112,0.9701843,-27.63306,-3.136932,-28.73073,4.529495,0.3580746,0.6496075,1.0,0.03445435,0.2648163,0.9636688,32.20667,-0.5272369,-32.81758,4.306793,0.5111083,0.5982615,0.238291,1.15094,-0.2326274,0.1252622,0.6901512,-0.02477772,0.9908049,-18.20277,31.89
4,0.03146362,0.2633057,0.9641876,1.0,-0.01017761,0.2421112,0.9701843,-27.63306,-3.136932,-28.73073,4.529495,0.3580746,0.6496075,1.0,0.03445435,0.2648163,0.9636688,32.20667,-0.5272369,-32.81758,4.306793,0.5111083,0.5982615,0.238291,1.15094,-0.2326274,0.1252622,0.6901512,-0.02477772,0.9908049,-18.20277,31.89
4,0.03640747,0.2257996,0.9734802,1.0,-0.01347351,0.2192535,0.9755707,-27.6398,-3.31926,-28.70116,4.459946,0.3586964,0.6593168,1.0,0.03686523,0.2258606,0.9734497,32.27115,-0.6925354,-32.99471,4.404541,0.5083615,0.6129549,0.238291,1.15094,-0.2326274,0.1252622,0.6901512,-0.02477772,0.9908049,-18.20277,31.89
4,-0.02937317,0.1577759,0.98703,1.0,-0.03048706,0.1574402,0.9870453,-27.73,-4.112869,-27.66275,4.394409,0.3653837,0.6857144,1.0,0.0317688,0.1753845,0.9839783,32.20384,-1.778793,-31.19244,4.362015,0.5109404,0.6410738,0.2365296,1.154101,-0.2304748,0.1120478,0.685497,-0.0174488,0.9908049,-18.20277,31.89
4,-0.02255249,0.1163483,0.9929504,1.0,-0.02482605,0.117157,0.9927979,-27.84534,-4.280045,-27.44104,4.496674,0.3683306,0.696008,1.0,0.01394653,0.1031952,0.9945526,32.16772,-1.516327,-32.0336,4.301086,0.5156145,0.653456,0.2350208,1.157342,-0.2281415,0.09780807,0.6803024,-0.01094999,0.9908049,-18.20277,31.89
4,-0.02255249,0.1163483,0.9929504,1.0,-0.02482605,0.117157,0.9927979,-27.84534,-4.280045,-27.44104,4.496674,0.3683306,0.696008,1.0,0.01394653,0.1031952,0.9945526,32.16772,-1.516327,-32.0336,4.301086,0.5156145,0.653456,0.2350208,1.157342,-0.2281415,0.09780807,0.6803024,-0.01094999,0.9908049,-18.20277,31.89
4,-0.04722595,0.08552551,0.9952087,1.0,-0.05636597,0.08538818,0.9947357,-27.97691,-4.30899,-27.7383,4.348892,0.3778918,0.7054351,1.0,0.0008544922,0.08607483,0.9962769,32.03128,-1.799026,-31.36591,4.383987,0.5224917,0.659427,0.2335639,1.160402,-0.225986,0.08350854,0.67468,-0.00589803,0.9908049,-18.20277,31.89
4,-0.04722595,0.08552551,0.9952087,1.0,-0.05636597,0.08538818,0.9947357,-27.97691,-4.30899,-27.7383,4.348892,0.3778918,0.7054351,1.0,0.0008544922,0.08607483,0.9962769,32.03128,-1.799026,-31.36591,4.383987,0.5224917,0.659427,0.2335639,1.160402,-0.225986,0.08350854,0.67468,-0.00589803,0.9908049,-18.20277,31.89
4,-0.06307983,0.04336548,0.9970551,1.0,-0.06425476,0.04260254,0.9970093,-28.11507,-4.260376,-27.9579,4.324875,0.3836332,0.7135465,1.0,-0.00630188,0.07987976,0.9967804,31.88986,-2.004898,-30.895,4.471161,0.5285317,0.6628318,0.2320496,1.163026,-0.2239185,0.06964184,0.6688784,-0.002432234,0.9908049,-18.20277,31.89
4,-0.05557251,0.06422424,0.9963837,1.0,-0.05593872,0.06404114,0.9963684,-28.08578,-4.07991,-27.75473,4.452911,0.3814476,0.7016479,1.0,0.01268005,0.0983429,0.9950562,31.84232,-1.363785,-31.80522,4.481628,0.5273682,0.6467618,0.2305601,1.165644,-0.2223349,0.05579161,0.6632131,0.0005725605,0.9908049,-18.20277,31.89
4,-0.05557251,0.06422424,0.9963837,1.0,-0.05593872,0.06404114,0.9963684,-28.08578,-4.07991,-27.75473,4.452911,0.3814476,0.7016479,1.0,0.01268005,0.0983429,0.9950562,31.84232,-1.363785,-31.80522,4.481628,0.5273682,0.6467618,0.2305601,1.165644,-0.2223349,0.05579161,0.6632131,0.0005725605,0.9908049,-18.20277,31.89
4,-0.05476379,0.1172485,0.9915771,1.0,-0.05491638,0.117218,0.9915771,-28.1208,-3.720581,-27.97066,4.382996,0.3826727,0.6824818,1.0,0.01239014,0.1298065,0.9914551,31.73102,-0.5675507,-32.77583,4.340317,0.5319467,0.623154,0.2292914,1.168428,-0.2208234,0.04470583,0.6578079,0.005896767,0.9908049,5.379364,31.89
4,-0.05476379,0.1172485,0.9915771,1.0,-0.05491638,0.117218,0.9915771,-28.1208,-3.720581,-27.97066,4.382996,0.3826727,0.6824818,1.0,0.01239014,0.1298065,0.9914551,31.73102,-0.5675507,-32.77583,4.340317,0.5319467,0.623154,0.2292914,1.168428,-0.2208234,0.04470583,0.6578079,0.005896767,0.9908049,5.379364,31.89
4,-0.06201172,0.1442108,0.9875946,1.0,-0.06201172,0.1442108,0.9875946,-28.27554,-3.442245,-27.94724,4.341354,0.3893605,0.6681557,1.0,-0.0007171631,0.1565704,0.9876556,31.59351,-0.4031677,-32.47415,4.458649,0.5391141,0.6096322,0.2281555,1.17081,-0.2191878,0.0363577,0.651496,0.01251682,0.9908049,5.379364,31.89
4,-0.06201172,0.1442108,0.9875946,1.0,-0.06201172,0.1442108,0.9875946,-28.27554,-3.442245,-27.94724,4.341354,0.3893605,0.6681557,1.0,-0.0007171631,0.1565704,0.9876556,31.59351,-0.4031677,-32.47415,4.458649,0.5391141,0.6096322,0.2281555,1.17081,-0.2191878,0.0363577,0.651496,0.01251682,0.9908049,5.379364,31.89
5,-0.06643677,0.1002655,0.9927368,1.0,-0.06747437,0.09944153,0.9927368,-28.44415,-3.109329,-28.75845,4.314209,0.3954063,0.6730225,1.0,-0.007659912,0.1463013,0.9891968,31.543,-0.6526184,-32.28015,4.407669,0.5419995,0.6181864,0.227296,1.172643,-0.2177351,0.03120741,0.6456636,0.01884732,0.9908049,5.379364,31.89
5,-0.06643677,0.1002655,0.9927368,1.0,-0.06747437,0.09944153,0.9927368,-28.44415,-3.109329,-28.75845,4.314209,0.3954063,0.6730225,1.0,-0.007659912,0.1463013,0.9891968,31.543,-0.6526184,-32.28015,4.407669,0.5419995,0.6181864,0.227296,1.172643,-0.2177351,0.03120741,0.6456636,0.01884732,0.9908049,5.379364,31.89
5,-0.02827454,0.120575,0.9922943,1.0,-0.0846405,0.08351135,0.9928894,-28.58379,-3.170959,-29.23824,4.397095,0.4026728,0.6832363,1.0,-0.0282135,0.1206055,0.9922943,31.46948,-1.226517,-31.63083,4.509766,0.5477932,0.6363094,0.2265776,1.173692,-0.2165828,0.02854854,0.6406853,0.02360696,0.9908049,5.379364,31.89
5,-0.02827454,0.120575,0.9922943,1.0,-0.0846405,0.08351135,0.9928894,-28.58379,-3.170959,-29.23824,4.397095,0.4026728,0.6832363,1.0,-0.0282135,0.1206055,0.9922943,31.46948,-1.226517,-31.63083,4.509766,0.5477932,0.6363094,0.2265776,1.173692,-0.2165828,0.02854854,0.6406853,0.02360696,0.9908049,5.379364,31.89
5,-0.09207153,0.05360413,0.9942932,1.0,-0.09474182,0.05241394,0.9941101,-28.74432,-3.546814,-28.64952,4.26915,0.4100889,0.6950615,1.0,-0.02810669,0.08183289,0.9962463,31.3446,-1.178833,-32.44427,4.489471,0.5526912,0.6502492,0.2261195,1.174152,-0.2158133,0.02666573,0.6368001,0.02615426,0.9908049,5.379364,31.89
5,-0.09207153,0.05360413,0.9942932,1.0,-0.09474182,0.05241394,0.9941101,-28.74432,-3.546814,-28.64952,4.26915,0.4100889,0.6950615,1.0,-0.02810669,0.08183289,0.9962463,31.3446,-1.178833,-32.44427,4.489471,0.5526912,0.6502492,0.2261195,1.174152,-0.2158133,0.02666573,0.6368001,0.02615426,0.9908049,5.379364,31.89
5,-0.1071777,0.02888489,0.9938049,1.0,-0.1073761,0.02867126,0.9937897,-28.87215,-3.798004,-28.33504,4.379059,0.4165641,0.7045996,1.0,-0.04905701,0.08920288,0.9947968,31.22714,-1.618774,-31.44197,4.508575,0.559876,0.6538006,0.226175,1.174146,-0.2152383,0.0254532,0.6342737,0.02691547,0.9908049,5.379364,31.89
5,-0.1071777,0.02888489,0.9938049,1.0,-0.1073761,0.02867126,0.9937897,-28.87215,-3.798004,-28.33504,4.379059,0.4165641,0.7045996,1.0,-0.04905701,0.08920288,0.9947968,31.22714,-1.618774,-31.44197,4.508575,0.559876,0.6538006,0.226175,1.174146,-0.2152383,0.0254532,0.6342737,0.02691547,0.9908049,5.379364,31.89
5,-0.108078,0.02757263,0.9937439,1.0,-0.1113586,0.02386475,0.9934845,-28.99756,-3.557785,-29.08383,4.340134,0.4212599,0.7053053,1.0,-0.06018066,0.08140564,0.9948578,31.16183,-1.634857,-31.27869,4.473419,0.5640283,0.6539884,0.2265562,1.174167,-0.2149973,0.02486162,0.6324973,0.02744764,0.9908049,5.379364,31.89
5,-0.108078,0.02757263,0.9937439,1.0,-0.1113586,0.02386475,0.9934845,-28.99756,-3.557785,-29.08383,4.340134,0.4212599,0.7053053,1.0,-0.06018066,0.08140564,0.9948578,31.16183,-1.634857,-31.27869,4.473419,0.5640283,0.6539884,0.2265562,1.174167,-0.2149973,0.02486162,0.6324973,0.02744764,0.9908049,5.379364,31.89
5,-0.1281433,0.02067566,0.9915314,1.0,-0.1281738,0.0206604,0.9915314,-29.01619,-3.701279,-28.62033,4.352066,0.4248999,0.7058841,1.0,-0.06739807,0.05728149,0.9960785,31.12036,-1.273575,-32.08484,4.490509,0.5673772,0.6542609,0.2273639,1.174152,-0.2149682,0.02496435,0.631232,0.02780431,0.9908049,15.74754,31.87
5,-0.1281433,0.02067566,0.9915314,1.0,-0.1281738,0.0206604,0.9915314,-29.01619,-3.701279,-28.62033,4.352066,0.4248999,0.7058841,1.0,-0.06739807,0.05728149,0.9960785,31.12036,-1.273575,-32.08484,4.490509,0.5673772,0.6542609,0.2273639,1.174152,-0.2149682,0.02496435,0.631232,0.02780431,0.9908049,15.74754,31.87
5,-0.1363678,0.01794434,0.9904938,1.0,-0.1365814,0.01785278,0.9904633,-29.04773,-3.612213,-28.62331,4.257156,0.4274861,0.7032594,1.0,-0.07206726,0.04893494,0.9961853,31.134,-1.11586,-32.34189,4.360123,0.5679406,0.6528062,0.2282265,1.173946,-0.2153685,0.02544471,0.6303782,0.02720156,0.9908049,15.74754,31.87
5,-0.1363678,0.01794434,0.9904938,1.0,-0.1365814,0.01785278,0.9904633,-29.04773,-3.612213,-28.62331,4.257156,0.4274861,0.7032594,1.0,-0.07206726,0.04893494,0.9961853,31.134,-1.11586,-32.34189,4.360123,0.5679406,0.6528062,0.2282265,1.173946,-0.2153685,0.02544471,0.6303782,0.02720156,0.9908049,15.74754,31.87
5,-0.1461792,0.01019287,0.9891968,1.0,-0.1461792,0.01019287,0.9891968,-29.06044,-3.528427,-28.63675,4.187408,0.4295939,0.7018356,1.0,-0.07185364,0.04682922,0.9963074,31.14125,-1.033157,-32.42918,4.349564,0.5677193,0.651167,0.2292868,1.173601,-0.2161853,0.02593283,0.630217,0.02558312,0.9908049,15.74754,31.87
5,-0.1461792,0.01019287,0.9891968,1.0,-0.1461792,0.01019287,0.9891968,-29.06044,-3.528427,-28.63675,4.187408,0.4295939,0.7018356,1.0,-0.07185364,0.04682922,0.9963074,31.14125,-1.033157,-32.42918,4.349564,0.5677193,0.651167,0.2292868,1.173601,-0.2161853,0.02593283,0.630217,0.02558312,0.9908049,15.74754,31.87
5,-0.1487732,0.003936768,0.9888611,1.0,-0.1494598,0.003570557,0.9887543,-29.11522,-3.409958,-28.78236,4.249756,0.4319494,0.7005925,1.0,-0.08988953,0.03367615,0.9953766,31.10281,-0.973938,-32.29303,4.383484,0.5721808,0.6500717,0.2305104,1.173205,-0.2173756,0.02632901,0.6307071,0.0230228,0.9908049,15.74754,31.87
5,-0.1487732,0.003936768,0.9888611,1.0,-0.1494598,0.003570557,0.9887543,-29.11522,-3.409958,-28.78236,4.249756,0.4319494,0.7005925,1.0,-0.08988953,0.03367615,0.9953766,31.10281,-0.973938,-32.29303,4.383484,0.5721808,0.6500717,0.2305104,1.173205,-0.2173756,0.02632901,0.6307071,0.0230228,0.9908049,15.74754,31.87
5,-0.09846497,0.03614807,0.9944763,1.0,-0.1449738,0.01257324,0.9893494,-29.16122,-3.202408,-29.04915,4.131836,0.4327935,0.6946337,1.0,-0.09700012,0.03689575,0.9945984,31.09674,-0.808197,-32.42632,4.393402,0.573782,0.6450882,0.2320725,1.172767,-0.2189002,0.02683868,0.6314984,0.01944121,0.9908049,15.74754,31.87
5,-0.09846497,0.03614807,0.9944763,1.0,-0.1449738,0.01257324,0.9893494,-29.16122,-3.202408,-29.04915,4.131836,0.4327935,0.6946337,1.0,-0.09700012,0.03689575,0.9945984,31.09674,-0.808197,-32.42632,4.393402,0.573782,0.6450882,0.2320725,1.172767,-0.2189002,0.02683868,0.6314984,0.01944121,0.9908049,15.74754,31.87
5,-0.1007843,0.02481079,0.9945984,1.0,-0.1558228,0.006072998,0.9877625,-29.17395,-3.08577,-29.17719,4.202759,0.4350176,0.6932994,1.0,-0.1002655,0.02497864,0.9946442,31.09256,-0.7145233,-32.46147,4.332611,0.5745425,0.6442152,0.2338263,1.172417,-0.2205365,0.02698306,0.6323222,0.01494801,0.9908049,15.74754,31.87
5,-0.1007843,0.02481079,0.9945984,1.0,-0.1558228,0.006072998,0.9877625,-29.17395,-3.08577,-29.17719,4.202759,0.4350176,0.6932994,1.0,-0.1002655,0.02497864,0.9946442,31.09256,-0.7145233,-32.46147,4.332611,0.5745425,0.6442152,0.2338263,1.172417,-0.2205365,0.02698306,0.6323222,0.01494801,0.9908049,15.74754,31.87
5,-0.09344482,0.03515625,0.9949951,1.0,-0.1538696,0.005218506,0.9880676,-29.17384,-3.067703,-29.19534,4.224045,0.4346599,0.6930368,1.0,-0.09286499,0.03544617,0.9950409,31.0869,-0.6875458,-32.42169,4.386063,0.5734004,0.6409683,0.2356149,1.172005,-0.2224067,0.02705806,0.6332963,0.01004617,0.9908049,15.74754,31.87
5,-0.09344482,0.03515625,0.9949951,1.0,-0.1538696,0.005218506,0.9880676,-29.17384,-3.067703,-29.19534,4.224045,0.4346599,0.6930368,1.0,-0.09286499,0.03544617,0.9950409,31.0869,-0.6875458,-32.42169,4.386063,0.5734004,0.6409683,0.2356149,1.172005,-0.2224067,0.02705806,0.6332963,0.01004617,0.9908049,15.74754,31.87
5,-0.09344482,0.03515625,0.9949951,1.0,-0.1538696,0.005218506,0.9880676,-29.17384,-3.067703,-29.19534,4.224045,0.4346599,0.6930368,1.0,-0.09286499,0.03544617,0.9950409,31.0869,-0.6875458,-32.42169,4.386063,0.5734004,0.6409683,0.2373596,1.171449,-0.224418,0.02723823,0.6343792,0.005324421,0.9908049,15.74754,31.87
5,-0.09344482,0.03515625,0.9949951,1.0,-0.1538696,0.005218506,0.9880676,-29.17384,-3.067703,-29.19534,4.224045,0.4346599,0.6930368,1.0,-0.09286499,0.03544617,0.9950409,31.0869,-0.6875458,-32.42169,4.386063,0.5734004,0.6409683,0.2373596,1.171449,-0.224418,0.02723823,0.6343792,0.005324421,0.9908049,15.74754,31.87
5,-0.09344482,0.03515625,0.9949951,1.0,-0.1538696,0.005218506,0.9880676,-29.17384,-3.067703,-29.19534,4.224045,0.4346599,0.6930368,1.0,-0.09286499,0.03544617,0.9950409,31.0869,-0.6875458,-32.42169,4.386063,0.5734004,0.6409683,0.2390763,1.170887,-0.2265843,0.02729876,0.6357623,0.0009216107,0.9908049,14.59687,31.87
5,-0.09344482,0.03515625,0.9949951,1.0,-0.1538696,0.005218506,0.9880676,-29.17384,-3.067703,-29.19534,4.224045,0.4346599,0.6930368,1.0,-0.09286499,0.03544617,0.9950409,31.0869,-0.6875458,-32.42169,4.386063,0.5734004,0.6409683,0.2390763,1.170887,-0.2265843,0.02729876,0.6357623,0.0009216107,0.9908049,14.59687,31.87
5,-0.1026306,0.03851318,0.9939575,1.0,-0.147644,0.02105713,0.9888153,-29.15627,-2.897858,-29.14177,4.093094,0.4331847,0.6836358,1.0,-0.08969116,0.04350281,0.9950104,31.09225,-0.6102905,-32.2831,4.317703,0.5725531,0.6351804,0.2409501,1.170446,-0.2289512,0.02740472,0.6374195,-0.00317852,0.9908049,14.59687,31.87
5,-0.1026306,0.03851318,0.9939575,1.0,-0.147644,0.02105713,0.9888153,-29.15627,-2.897858,-29.14177,4.093094,0.4331847,0.6836358,1.0,-0.08969116,0.04350281,0.9950104,31.09225,-0.6102905,-32.2831,4.317703,0.5725531,0.6351804,0.2409501,1.170446,-0.2289512,0.02740472,0.6374195,-0.00317852,0.9908049,14.59687,31.87
5,-0.1026306,0.03851318,0.9939575,1.0,-0.147644,0.02105713,0.9888153,-29.15627,-2.897858,-29.14177,4.093094,0.4331847,0.6836358,1.0,-0.08969116,0.04350281,0.9950104,31.09225,-0.6102905,-32.2831,4.317703,0.5725531,0.6351804,0.2426833,1.170095,-0.2312902,0.02751935,0.639668,-0.006811371,0.9908049,14.59687,31.87
5,-0.1026306,0.03851318,0.9939575,1.0,-0.147644,0.02105713,0.9888153,-29.15627,-2.897858,-29.14177,4.093094,0.4331847,0.6836358,1.0,-0.08969116,0.04350281,0.9950104,31.09225,-0.6102905,-32.2831,4.317703,0.5725531,0.6351804,0.2426833,1.170095,-0.2312902,0.02751935,0.639668,-0.006811371,0.9908049,14.59687,31.87
5,-0.1212006,0.03977966,0.9918213,1.0,-0.1533203,0.02035522,0.9879608,-29.14973,-2.87384,-29.10748,3.955261,0.4340254,0.6824518,1.0,-0.09831238,0.05354309,0.9936981,31.09189,-0.6000366,-32.28258,4.294037,0.5741184,0.6330422,0.2436243,1.169909,-0.2325166,0.02763632,0.6409696,-0.008531396,0.9908049,14.59687,31.87
5,-0.1196747,0.02830505,0.9924011,1.0,-0.1482849,0.0125885,0.9888611,-29.12801,-2.715942,-29.06726,4.058945,0.4324012,0.6780128,1.0,-0.09208679,0.04336548,0.9947968,31.12643,-0.4503479,-32.44032,4.347809,0.5718874,0.6312465,0.2451738,1.169598,-0.2351345,0.02812403,0.6439621,-0.01217617,0.9908049,14.59687,31.87
5,-0.1196747,0.02830505,0.9924011,1.0,-0.1482849,0.0125885,0.9888611,-29.12801,-2.715942,-29.06726,4.058945,0.4324012,0.6780128,1.0,-0.09208679,0.04336548,0.9947968,31.12643,-0.4503479,-32.44032,4.347809,0.5718874,0.6312465,0.2451738,1.169598,-0.2351345,0.02812403,0.6439621,-0.01217617,0.9908049,14.59687,31.87
5,-0.1196747,0.02830505,0.9924011,1.0,-0.1482849,0.0125885,0.9888611,-29.12801,-2.715942,-29.06726,4.058945,0.4324012,0.6780128,1.0,-0.09208679,0.04336548,0.9947968,31.12643,-0.4503479,-32.44032,4.347809,0.5718874,0.6312465,0.2459327,1.169467,-0.2365053,0.02850009,0.6455426,-0.01408974,0.9908049,14.59687,31.87
5,-0.1196747,0.02830505,0.9924011,1.0,-0.1482849,0.0125885,0.9888611,-29.12801,-2.715942,-29.06726,4.058945,0.4324012,0.6780128,1.0,-0.09208679,0.04336548,0.9947968,31.12643,-0.4503479,-32.44032,4.347809,0.5718874,0.6312465,0.2459327,1.169467,-0.2365053,0.02850009,0.6455426,-0.01408974,0.9908049,14.59687,31.87
5,-0.1196747,0.02830505,0.9924011,1.0,-0.1482849,0.0125885,0.9888611,-29.12801,-2.715942,-29.06726,4.058945,0.4324012,0.6780128,1.0,-0.09208679,0.04336548,0.9947968,31.12643,-0.4503479,-32.44032,4.347809,0.5718874,0.6312465,0.2466542,1.169287,-0.2378187,0.02909707,0.6473538,-0.01573571,0.9908049,14.59687,31.87
5,-0.1196747,0.02830505,0.9924011,1.0,-0.1482849,0.0125885,0.9888611,-29.12801,-2.715942,-29.06726,4.058945,0.4324012,0.6780128,1.0,-0.09208679,0.04336548,0.9947968,31.12643,-0.4503479,-32.44032,4.347809,0.5718874,0.6312465,0.248005,1.169111,-0.2405275,0.03020839,0.6509641,-0.01885502,0.9908049,14.59687,31.87
5,-0.02233887,-0.01118469,0.9996796,1.0,-0.08879089,-0.0246582,0.9957428,-28.35054,-3.581436,-27.60405,4.245819,0.3960456,0.6982348,1.0,-0.0206604,-0.010849,0.9997253,31.59279,-1.1987,-31.64694,4.297256,0.54198,0.6585507,0.2486562,1.169042,-0.2418385,0.03059646,0.6529765,-0.01999887,0.9908049,14.59687,31.87
5,-0.02233887,-0.01118469,0.9996796,1.0,-0.08879089,-0.0246582,0.9957428,-28.35054,-3.581436,-27.60405,4.245819,0.3960456,0.6982348,1.0,-0.0206604,-0.010849,0.9997253,31.59279,-1.1987,-31.64694,4.297256,0.54198,0.6585507,0.2486562,1.169042,-0.2418385,0.03059646,0.6529765,-0.01999887,0.9908049,14.59687,31.87
5,-0.01664734,-0.001342773,0.9998474,1.0,-0.08000183,-0.01901245,0.9966125,-28.284,-3.615936,-27.48119,4.314041,0.3924893,0.6970093,1.0,-0.01664734,-0.001342773,0.9998474,31.68327,-1.286148,-31.50842,4.327408,0.5379803,0.6584249,0.2498615,1.168883,-0.2444509,0.03116178,0.6571447,-0.02205439,0.9908049,-12.83508,31.87
5,-0.01243591,-0.006362915,0.9998932,1.0,-0.0790863,-0.02554321,0.9965363,-28.23784,-3.621719,-27.44307,4.294464,0.3907762,0.6979075,1.0,-0.01243591,-0.006362915,0.9998932,31.73032,-1.373566,-31.27635,4.406113,0.5354459,0.6599591,0.2503272,1.168835,-0.2457534,0.03127169,0.6592335,-0.02291055,0.9908049,-12.83508,31.87
5,-0.01243591,-0.006362915,0.9998932,1.0,-0.0790863,-0.02554321,0.9965363,-28.23784,-3.621719,-27.44307,4.294464,0.3907762,0.6979075,1.0,-0.01243591,-0.006362915,0.9998932,31.73032,-1.373566,-31.27635,4.406113,0.5354459,0.6599591,0.2503272,1.168835,-0.2457534,0.03127169,0.6592335,-0.02291055,0.9908049,-12.83508,31.87
5,-0.01243591,-0.006362915,0.9998932,1.0,-0.0790863,-0.02554321,0.9965363,-28.23784,-3.621719,-27.44307,4.294464,0.3907762,0.6979075,1.0,-0.01243591,-0.006362915,0.9998932,31.73032,-1.373566,-31.27635,4.406113,0.5354459,0.6599591,0.2514952,1.16872,-0.2480878,0.03145733,0.6632288,-0.02490279,0.9908049,-12.83508,31.87
5,-0.01243591,-0.006362915,0.9998932,1.0,-0.0790863,-0.02554321,0.9965363,-28.23784,-3.621719,-27.44307,4.294464,0.3907762,0.6979075,1.0,-0.01243591,-0.006362915,0.9998932,31.73032,-1.373566,-31.27635,4.406113,0.5354459,0.6599591,0.2514952,1.16872,-0.2480878,0.03145733,0.6632288,-0.02490279,0.9908049,-12.83508,31.87
5,-0.01243591,-0.006362915,0.9998932,1.0,-0.0790863,-0.02554321,0.9965363,-28.23784,-3.621719,-27.44307,4.294464,0.3907762,0.6979075,1.0,-0.01243591,-0.006362915,0.9998932,31.73032,-1.373566,-31.27635,4.406113,0.5354459,0.6599591,0.252021,1.168625,-0.2492,0.03167166,0.6652368,-0.02586263,0.9908049,-12.83508,31.87
5,-0.0113678,-0.001083374,0.9999237,1.0,-0.07102966,-0.02174377,0.9972229,-28.19002,-3.631302,-27.42952,4.374634,0.3877896,0.6974872,1.0,-0.0113678,-0.001083374,0.9999237,31.77374,-1.276672,-31.5965,4.336807,0.5338826,0.65896,0.2529312,1.168331,-0.251323,0.0323385,0.6689048,-0.02753355,0.9908049,-12.83508,31.87
5,0.00819397,0.003738403,0.9999542,1.0,-0.04440308,-0.01954651,0.9988098,-27.8604,-3.541473,-27.86383,4.37735,0.371723,0.6986859,1.0,0.01675415,0.007522583,0.9998169,32.17984,-1.567123,-31.20607,4.370834,0.5143657,0.6633464,0.2533739,1.168205,-0.2522822,0.03270118,0.6705135,-0.0284222,0.9908049,-12.83508,31.87
5,0.00819397,0.003738403,0.9999542,1.0,-0.04440308,-0.01954651,0.9988098,-27.8604,-3.541473,-27.86383,4.37735,0.371723,0.6986859,1.0,0.01675415,0.007522583,0.9998169,32.17984,-1.567123,-31.20607,4.370834,0.5143657,0.6633464,0.2533739,1.168205,-0.2522822,0.03270118,0.6705135,-0.0284222,0.9908049,-12.83508,31.87
5,0.0002593994,-0.008148193,0.9999542,1.0,-0.02850342,-0.0196228,0.9993896,-27.7394,-3.515411,-27.91005,4.459091,0.3648435,0.6983814,1.0,0.02026367,-0.0001525879,0.9997864,32.32301,-1.496811,-31.50345,4.399857,0.5087712,0.6654974,0.2541519,1.167859,-0.2540671,0.0333157,0.6734229,-0.03010698,0.9908049,-12.83508,31.87
5,0.01661682,-0.002151489,0.9998474,1.0,-0.02960205,-0.02330017,0.9992828,-27.67012,-3.477676,-27.94547,4.373291,0.3626205,0.6980394,1.0,0.03059387,0.004226685,0.9995117,32.40247,-1.504105,-31.48259,4.352356,0.5041324,0.6646559,0.2546214,1.1677,-0.2547731,0.03371683,0.674697,-0.03097436,0.9908049,-12.83508,31.87
5,0.01661682,-0.002151489,0.9998474,1.0,-0.02960205,-0.02330017,0.9992828,-27.67012,-3.477676,-27.94547,4.373291,0.3626205,0.6980394,1.0,0.03059387,0.004226685,0.9995117,32.40247,-1.504105,-31.48259,4.352356,0.5041324,0.6646559,0.2546214,1.1677,-0.2547731,0.03371683,0.674697,-0.03097436,0.9908049,-12.83508,31.87
5,-0.01448059,-0.01158142,0.9998169,1.0,-0.01850891,-0.01254272,0.9997406,-27.59351,-3.482224,-27.90022,4.479599,0.3581884,0.6959273,1.0,0.02700806,-0.001678467,0.9996185,32.47948,-1.381714,-31.88918,4.38472,0.5021317,0.6658533,0.2550631,1.167571,-0.2555027,0.03415668,0.67576,-0.03178274,0.9908049,-12.83508,31.87
5,-0.01809692,-0.01197815,0.9997559,1.0,-0.01899719,-0.01216125,0.9997406,-27.56314,-3.427292,-28.05186,4.451538,0.3571072,0.6955972,1.0,0.04104614,0.0007324219,0.9991455,32.51077,-1.367752,-31.92496,4.330551,0.4985499,0.6652554,0.25583,1.167259,-0.2566876,0.03489621,0.677528,-0.03354436,0.9908049,-12.83508,31.87
5,-0.007827759,-0.008544922,0.9999237,1.0,-0.01391602,-0.00970459,0.9998474,-27.51743,-3.42981,-28.01636,4.415985,0.3547101,0.6948426,1.0,0.03431702,-0.0004730225,0.9994049,32.56554,-1.471298,-31.59354,4.381165,0.4977211,0.665553,0.2562195,1.167168,-0.2571613,0.0354228,0.6781573,-0.03442415,0.9908049,-12.83508,31.87
5,-0.007827759,-0.008544922,0.9999237,1.0,-0.01391602,-0.00970459,0.9998474,-27.51743,-3.42981,-28.01636,4.415985,0.3547101,0.6948426,1.0,0.03431702,-0.0004730225,0.9994049,32.56554,-1.471298,-31.59354,4.381165,0.4977211,0.665553,0.2562195,1.167168,-0.2571613,0.0354228,0.6781573,-0.03442415,0.9908049,-12.83508,31.87
5,-0.007583618,-0.001876831,0.9999542,1.0,-0.01298523,-0.002151489,0.9999084,-27.47078,-3.418594,-28.04478,4.406631,0.3529544,0.6934469,1.0,0.04789734,0.0009613037,0.9988403,32.6082,-1.399124,-31.80721,4.332382,0.4938549,0.6650121,0.2565751,1.167011,-0.2577788,0.03585399,0.6787902,-0.03508476,0.9908049,-18.10635,31.87
5,0.006286621,0.000213623,0.9999695,1.0,-0.004577637,0.0003662109,0.9999847,-27.4229,-3.434143,-28.00742,4.442581,0.3499285,0.6931648,1.0,0.04873657,-0.0003662109,0.9988098,32.65358,-1.403244,-31.79565,4.385468,0.4920977,0.6653278,0.2572525,1.166675,-0.2584423,0.03692359,0.6793121,-0.03629103,0.9908049,-18.10635,31.87
5,0.01266479,-0.002670288,0.9999084,1.0,-0.008300781,-0.000793457,0.9999542,-27.40387,-3.434143,-27.99236,4.419235,0.3499285,0.6931727,1.0,0.0511322,-0.006072998,0.9986725,32.70744,-1.409744,-31.83263,4.452835,0.4897667,0.6670575,0.2576069,1.166535,-0.2587337,0.03738941,0.6795328,-0.03682924,0.9908049,-18.10635,31.87
5,0.01266479,-0.002670288,0.9999084,1.0,-0.008300781,-0.000793457,0.9999542,-27.40387,-3.434143,-27.99236,4.419235,0.3499285,0.6931727,1.0,0.0511322,-0.006072998,0.9986725,32.70744,-1.409744,-31.83263,4.452835,0.4897667,0.6670575,0.2576069,1.166535,-0.2587337,0.03738941,0.6795328,-0.03682924,0.9908049,-18.10635,31.87
5,0.009689331,-0.006271362,0.9999237,1.0,-0.001602173,-0.007965088,0.9999542,-27.33644,-3.537872,-27.80565,4.392548,0.3466232,0.6959327,1.0,0.04547119,-0.0009155273,0.9989624,32.75108,-1.33812,-32.11728,4.347321,0.4892366,0.6665764,0.2582366,1.166184,-0.2591313,0.0385776,0.6794977,-0.0380324,0.9908049,-18.10635,31.87
5,0.006774902,-0.02084351,0.9997559,1.0,0.00227356,-0.02301025,0.9997253,-27.34943,-3.389847,-28.1389,4.372894,0.3460764,0.697048,1.0,0.05612183,0.003005981,0.9984131,32.76678,-1.320084,-32.20898,4.384445,0.4868144,0.6662876,0.2584927,1.165982,-0.259254,0.03924916,0.6793166,-0.0386026,0.9908049,-18.10635,31.87
5,0.006835938,-0.01370239,0.9998779,1.0,0.00567627,-0.01387024,0.9998779,-27.3044,-3.563797,-27.92767,4.489258,0.3440606,0.6992915,1.0,0.05888367,-0.006546021,0.99823,32.78986,-1.278763,-32.40758,4.465225,0.4855239,0.6688185,0.2586374,1.165674,-0.2594347,0.03995598,0.6791213,-0.03921897,0.9908049,-18.10635,31.87
5,0.006835938,-0.01370239,0.9998779,1.0,0.00567627,-0.01387024,0.9998779,-27.3044,-3.563797,-27.92767,4.489258,0.3440606,0.6992915,1.0,0.05888367,-0.006546021,0.99823,32.78986,-1.278763,-32.40758,4.465225,0.4855239,0.6688185,0.2586374,1.165674,-0.2594347,0.03995598,0.6791213,-0.03921897,0.9908049,-18.10635,31.87
5,-0.0539856,-0.02474976,0.99823,1.0,-0.05693054,-0.02497864,0.9980621,-27.59087,-3.941559,-27.47958,4.678604,0.3646391,0.7095485,1.0,0.01161194,-0.01972961,0.9997253,32.36005,-1.848511,-31.20348,4.521027,0.5088171,0.6783293,0.2588874,1.165429,-0.2595023,0.04079651,0.67892,-0.03986844,0.9908049,-18.10635,31.87
5,-0.0539856,-0.02474976,0.99823,1.0,-0.05693054,-0.02497864,0.9980621,-27.59087,-3.941559,-27.47958,4.678604,0.3646391,0.7095485,1.0,0.01161194,-0.01972961,0.9997253,32.36005,-1.848511,-31.20348,4.521027,0.5088171,0.6783293,0.2588874,1.165429,-0.2595023,0.04079651,0.67892,-0.03986844,0.9908049,-18.10635,31.87
