Second,eye_comb_direction_x,eye_comb_direction_y,eye_comb_direction_z,eye_r_openness,eye_r_direction_x,eye_r_direction_y,eye_r_direction_z,eye_r_origin_x,eye_r_origin_y,eye_r_origin_z,eye_r_pupil_diameter,eye_r_pupil_position_x,eye_r_pupil_position_y,eye_l_openness,eye_l_direction_x,eye_l_direction_y,eye_l_direction_z,eye_l_origin_x,eye_l_origin_y,eye_l_origin_z,eye_l_pupil_diameter,eye_l_pupil_position_x,eye_l_pupil_position_y,head_position_x,head_position_y,head_position_z,head_rotation_roll,head_rotation_pitch,head_rotation_yaw,EDA,BVP,TMP
0,0.2582092,0.1837616,0.9484406,1.0,0.2172241,0.1586914,0.9631195,-26.98108,-7.577164,-18.972520000000003,6.257111,0.3097502,0.7113979,1.0,0.2936249,0.205368,0.9335938,39.59232,-7.044417999999999,-20.92563,6.658737,0.2186174,0.7115511,-0.1299205,1.156641,-0.0614399,0.2168049,0.6484418000000001,-0.2080532,3.77417,-0.4872139949636679,32.91759709346029
0,0.2582092,0.1837616,0.9484406,1.0,0.2172241,0.1586914,0.9631195,-26.98108,-7.577164,-18.972520000000003,6.257111,0.3097502,0.7113979,1.0,0.2936249,0.205368,0.9335938,39.59232,-7.044417999999999,-20.92563,6.658737,0.2186174,0.7115511,-0.1299205,1.156641,-0.0614399,0.2168049,0.6484418000000001,-0.2080532,3.77417,-0.4872139949636679,32.91759709346029
0,0.2582092,0.1837616,0.9484406,1.0,0.2172241,0.1586914,0.9631195,-26.98108,-7.577164,-18.972520000000003,6.257111,0.3097502,0.7113979,1.0,0.2936249,0.205368,0.9335938,39.59232,-7.044417999999999,-20.92563,6.658737,0.2186174,0.7115511,-0.1299205,1.156641,-0.0614399,0.2168049,0.6484418000000001,-0.2080532,3.77417,-0.4872139949636679,32.91759709346029
0,0.2582092,0.1837616,0.9484406,1.0,0.2172241,0.1586914,0.9631195,-26.98108,-7.577164,-18.972520000000003,6.257111,0.3097502,0.7113979,1.0,0.2936249,0.205368,0.9335938,39.59232,-7.044417999999999,-20.92563,6.658737,0.2186174,0.7115511,-0.1299205,1.156641,-0.0614399,0.2168049,0.6484418000000001,-0.2080532,3.77417,-0.4872139949636679,32.91759709346029
0,0.2479857999999999,0.201004,0.9476776,1.0,0.2046051,0.1672821,0.9644318,-27.05356,-7.497238,-18.93858,6.131546,0.3141883,0.7068342,1.0,0.2805939,0.2263336,0.9327545,39.53622,-6.946486999999999,-20.923070000000003,6.316757,0.2232411,0.7039506,-0.1297731,1.156213,-0.060848,0.2185369999999999,0.6449863,-0.2103384,3.77417,-0.4872139949636679,32.91759709346029
0,0.2479857999999999,0.201004,0.9476776,1.0,0.2046051,0.1672821,0.9644318,-27.05356,-7.497238,-18.93858,6.131546,0.3141883,0.7068342,1.0,0.2805939,0.2263336,0.9327545,39.53622,-6.946486999999999,-20.923070000000003,6.316757,0.2232411,0.7039506,-0.1297731,1.156213,-0.060848,0.2185369999999999,0.6449863,-0.2103384,3.77417,-0.4872139949636679,32.91759709346029
0,0.2479857999999999,0.201004,0.9476776,1.0,0.2046051,0.1672821,0.9644318,-27.05356,-7.497238,-18.93858,6.131546,0.3141883,0.7068342,1.0,0.2805939,0.2263336,0.9327545,39.53622,-6.946486999999999,-20.923070000000003,6.316757,0.2232411,0.7039506,-0.1297731,1.156213,-0.060848,0.2185369999999999,0.6449863,-0.2103384,3.77417,-0.4872139949636679,32.91759709346029
0,0.2229767,0.1903992,0.9560394,1.0,0.1984711,0.1688232,0.9654541,-27.12901,-7.417953,-18.89799,6.043426999999999,0.3176873,0.7034331,1.0,0.2478027,0.212265,0.9452667,39.52211,-6.860442999999999,-20.85281,6.288742,0.2298452,0.7021411999999999,-0.1295445,1.155831,-0.06041268,0.2202404,0.6426546,-0.2119372,3.77417,-0.4872139949636679,32.91759709346029
0,0.2229767,0.1903992,0.9560394,1.0,0.1984711,0.1688232,0.9654541,-27.12901,-7.417953,-18.89799,6.043426999999999,0.3176873,0.7034331,1.0,0.2478027,0.212265,0.9452667,39.52211,-6.860442999999999,-20.85281,6.288742,0.2298452,0.7021411999999999,-0.1295445,1.155831,-0.06041268,0.2202404,0.6426546,-0.2119372,3.77417,-0.4872139949636679,32.91759709346029
0,0.2229767,0.1903992,0.9560394,1.0,0.1984711,0.1688232,0.9654541,-27.12901,-7.417953,-18.89799,6.043426999999999,0.3176873,0.7034331,1.0,0.2478027,0.212265,0.9452667,39.52211,-6.860442999999999,-20.85281,6.288742,0.2298452,0.7021411999999999,-0.1295445,1.155831,-0.06041268,0.2202404,0.6426546,-0.2119372,3.77417,-0.4872139949636679,32.91759709346029
0,0.2201538,0.1932372999999999,0.956131,1.0,0.2006378,0.1755066,0.9638062,-27.139540000000004,-7.406647,-18.89937,6.041489,0.3176835999999999,0.7020541,1.0,0.2396239999999999,0.2109222,0.9476624,39.51591,-6.856094000000001,-20.85329,6.232254,0.2315331,0.7020151,-0.1298395,1.155455,-0.05975831,0.2222034,0.6402404,-0.2131852,3.77417,-0.4872139949636679,32.91759709346029
0,0.2201538,0.1932372999999999,0.956131,1.0,0.2006378,0.1755066,0.9638062,-27.139540000000004,-7.406647,-18.89937,6.041489,0.3176835999999999,0.7020541,1.0,0.2396239999999999,0.2109222,0.9476624,39.51591,-6.856094000000001,-20.85329,6.232254,0.2315331,0.7020151,-0.1298395,1.155455,-0.05975831,0.2222034,0.6402404,-0.2131852,3.77417,-0.4872139949636679,32.91759709346029
0,0.2201538,0.1932372999999999,0.956131,1.0,0.2006378,0.1755066,0.9638062,-27.139540000000004,-7.406647,-18.89937,6.041489,0.3176835999999999,0.7020541,1.0,0.2396239999999999,0.2109222,0.9476624,39.51591,-6.856094000000001,-20.85329,6.232254,0.2315331,0.7020151,-0.1298395,1.155455,-0.05975831,0.2222034,0.6402404,-0.2131852,3.77417,-0.4872139949636679,32.91759709346029
0,0.2208099,0.1820678999999999,0.9581604,1.0,0.198288,0.1527405,0.9681549,-27.165440000000004,-7.330292,-18.84705,5.9523470000000005,0.3190162,0.7024667,1.0,0.2450867,0.2138672,0.9456024,39.481190000000005,-6.875931,-20.88565,6.170822,0.231708,0.702477,-0.1299697,1.1549049999999998,-0.05865589,0.2235984,0.637428,-0.2138328999999999,3.77417,-0.4872139949636679,32.91759709346029
0,0.2208099,0.1820678999999999,0.9581604,1.0,0.198288,0.1527405,0.9681549,-27.165440000000004,-7.330292,-18.84705,5.9523470000000005,0.3190162,0.7024667,1.0,0.2450867,0.2138672,0.9456024,39.481190000000005,-6.875931,-20.88565,6.170822,0.231708,0.702477,-0.1299697,1.1549049999999998,-0.05865589,0.2235984,0.637428,-0.2138328999999999,3.77417,-0.4872139949636679,32.91759709346029
0,0.2208099,0.1820678999999999,0.9581604,1.0,0.198288,0.1527405,0.9681549,-27.165440000000004,-7.330292,-18.84705,5.9523470000000005,0.3190162,0.7024667,1.0,0.2450867,0.2138672,0.9456024,39.481190000000005,-6.875931,-20.88565,6.170822,0.231708,0.702477,-0.1299697,1.1549049999999998,-0.05865589,0.2235984,0.637428,-0.2138328999999999,3.77417,-0.4872139949636679,32.91759709346029
0,0.2090607,0.2082672,0.9554596,1.0,0.195343,0.177887,0.9644623,-27.27174,-7.224747,-18.8504,5.748611,0.3228967,0.6948804,1.0,0.2229309,0.2392882999999999,0.9450073,39.39146,-6.705734,-20.89294,5.943893,0.238951,0.6920909000000001,-0.1302639,1.154464,-0.05783117,0.224405,0.6359479,-0.2145138,3.77417,-0.4872139949636679,32.91759709346029
0,0.2090607,0.2082672,0.9554596,1.0,0.195343,0.177887,0.9644623,-27.27174,-7.224747,-18.8504,5.748611,0.3228967,0.6948804,1.0,0.2229309,0.2392882999999999,0.9450073,39.39146,-6.705734,-20.89294,5.943893,0.238951,0.6920909000000001,-0.1302639,1.154464,-0.05783117,0.224405,0.6359479,-0.2145138,3.77417,-0.4872139949636679,32.91759709346029
0,0.2090607,0.2082672,0.9554596,1.0,0.195343,0.177887,0.9644623,-27.27174,-7.224747,-18.8504,5.748611,0.3228967,0.6948804,1.0,0.2229309,0.2392882999999999,0.9450073,39.39146,-6.705734,-20.89294,5.943893,0.238951,0.6920909000000001,-0.1302639,1.154464,-0.05783117,0.224405,0.6359479,-0.2145138,3.77417,-0.4872139949636679,32.91759709346029
0,0.2010345,0.2103882,0.9567108,1.0,0.1845856,0.1855621,0.9651337,-27.29535,-7.197083,-18.85176,5.686249,0.3253539,0.6926640000000001,1.0,0.2181548999999999,0.2363586,0.9468536,39.37599,-6.640686,-20.87346,5.910049,0.2404701,0.6900773,-0.1307723999999999,1.153868,-0.0569306,0.2267126,0.6338699000000001,-0.2162292999999999,3.77417,-0.4872139949636679,32.91759709346029
0,0.2010345,0.2103882,0.9567108,1.0,0.1845856,0.1855621,0.9651337,-27.29535,-7.197083,-18.85176,5.686249,0.3253539,0.6926640000000001,1.0,0.2181548999999999,0.2363586,0.9468536,39.37599,-6.640686,-20.87346,5.910049,0.2404701,0.6900773,-0.1307723999999999,1.153868,-0.0569306,0.2267126,0.6338699000000001,-0.2162292999999999,3.77417,-0.4872139949636679,32.91759709346029
0,0.2010345,0.2103882,0.9567108,1.0,0.1845856,0.1855621,0.9651337,-27.29535,-7.197083,-18.85176,5.686249,0.3253539,0.6926640000000001,1.0,0.2181548999999999,0.2363586,0.9468536,39.37599,-6.640686,-20.87346,5.910049,0.2404701,0.6900773,-0.1307723999999999,1.153868,-0.0569306,0.2267126,0.6338699000000001,-0.2162292999999999,3.77417,-0.4872139949636679,32.91759709346029
0,0.1986542,0.2109833,0.957077,1.0,0.1824341,0.1849517999999999,0.9656525,-27.30191,-7.199875,-18.84883,5.608124,0.3259013,0.692682,1.0,0.214859,0.2371367999999999,0.947403,39.36858,-6.6423190000000005,-20.87462,5.863174,0.2413107999999999,0.6899010999999999,-0.1309989,1.153777,-0.0564695,0.2280203999999999,0.6323307,-0.2168885,3.77417,-0.4872139949636679,32.91759709346029
0,0.1986542,0.2109833,0.957077,1.0,0.1824341,0.1849517999999999,0.9656525,-27.30191,-7.199875,-18.84883,5.608124,0.3259013,0.692682,1.0,0.214859,0.2371367999999999,0.947403,39.36858,-6.6423190000000005,-20.87462,5.863174,0.2413107999999999,0.6899010999999999,-0.1309989,1.153777,-0.0564695,0.2280203999999999,0.6323307,-0.2168885,3.77417,-0.4872139949636679,32.91759709346029
0,0.1986542,0.2109833,0.957077,1.0,0.1824341,0.1849517999999999,0.9656525,-27.30191,-7.199875,-18.84883,5.608124,0.3259013,0.692682,1.0,0.214859,0.2371367999999999,0.947403,39.36858,-6.6423190000000005,-20.87462,5.863174,0.2413107999999999,0.6899010999999999,-0.1309989,1.153777,-0.0564695,0.2280203999999999,0.6323307,-0.2168885,3.77417,-0.4872139949636679,32.91759709346029
0,0.1907196,0.2173462,0.9572754,1.0,0.1712494,0.1912384,0.9664764,-27.34171,-7.076172,-18.83905,5.324814,0.3289667,0.6872186,1.0,0.2074585,0.2398071,0.9483795,39.30209,-6.516464,-20.86726,5.77861,0.2450467999999999,0.6849919,-0.1311095,1.153319,-0.05562291,0.2287268,0.6313521,-0.2173783,3.77417,-0.4872139949636679,32.91759709346029
0,0.1907196,0.2173462,0.9572754,1.0,0.1712494,0.1912384,0.9664764,-27.34171,-7.076172,-18.83905,5.324814,0.3289667,0.6872186,1.0,0.2074585,0.2398071,0.9483795,39.30209,-6.516464,-20.86726,5.77861,0.2450467999999999,0.6849919,-0.1311095,1.153319,-0.05562291,0.2287268,0.6313521,-0.2173783,3.77417,-0.4872139949636679,32.91759709346029
0,0.1907196,0.2173462,0.9572754,1.0,0.1712494,0.1912384,0.9664764,-27.34171,-7.076172,-18.83905,5.324814,0.3289667,0.6872186,1.0,0.2074585,0.2398071,0.9483795,39.30209,-6.516464,-20.86726,5.77861,0.2450467999999999,0.6849919,-0.1311095,1.153319,-0.05562291,0.2287268,0.6313521,-0.2173783,3.77417,-0.4872139949636679,32.91759709346029
0,0.1852722,0.2224426,0.9571686,1.0,0.1604767,0.201416,0.9662628,-27.32733,-7.057755,-18.84753,5.411835,0.3302334,0.6851887,1.0,0.209198,0.2426453,0.9472809,39.278490000000005,-6.475357,-20.87968,5.659408999999999,0.2456171,0.6831049,-0.1314924999999999,1.152725,-0.05516577,0.229567,0.6309007,-0.2181873999999999,3.77417,-0.4872139949636679,32.91759709346029
0,0.1852722,0.2224426,0.9571686,1.0,0.1604767,0.201416,0.9662628,-27.32733,-7.057755,-18.84753,5.411835,0.3302334,0.6851887,1.0,0.209198,0.2426453,0.9472809,39.278490000000005,-6.475357,-20.87968,5.659408999999999,0.2456171,0.6831049,-0.1314924999999999,1.152725,-0.05516577,0.229567,0.6309007,-0.2181873999999999,3.77417,-0.4872139949636679,32.91759709346029
0,0.1852722,0.2224426,0.9571686,1.0,0.1604767,0.201416,0.9662628,-27.32733,-7.057755,-18.84753,5.411835,0.3302334,0.6851887,1.0,0.209198,0.2426453,0.9472809,39.278490000000005,-6.475357,-20.87968,5.659408999999999,0.2456171,0.6831049,-0.1314924999999999,1.152725,-0.05516577,0.229567,0.6309007,-0.2181873999999999,3.77417,-0.4872139949636679,32.91759709346029
0,0.007797241,0.1594237999999999,0.9871674,1.0,-0.005432129,0.09326172,0.9956207,-28.98224,-7.335236,-18.15225,5.076553,0.4087605,0.7029114000000001,1.0,0.007797241,0.1594237999999999,0.9871674,37.57672,-6.564528999999999,-20.48042,5.135941000000001,0.3363172,0.6935053000000001,-0.1315473,1.152455,-0.05486262,0.2300054,0.6313310999999999,-0.2182839,3.77417,-0.7153091,32.91759709346029
0,0.007797241,0.1594237999999999,0.9871674,1.0,-0.005432129,0.09326172,0.9956207,-28.98224,-7.335236,-18.15225,5.076553,0.4087605,0.7029114000000001,1.0,0.007797241,0.1594237999999999,0.9871674,37.57672,-6.564528999999999,-20.48042,5.135941000000001,0.3363172,0.6935053000000001,-0.1315473,1.152455,-0.05486262,0.2300054,0.6313310999999999,-0.2182839,3.77417,-0.7153091,32.91759709346029
0,0.007797241,0.1594237999999999,0.9871674,1.0,-0.005432129,0.09326172,0.9956207,-28.98224,-7.335236,-18.15225,5.076553,0.4087605,0.7029114000000001,1.0,0.007797241,0.1594237999999999,0.9871674,37.57672,-6.564528999999999,-20.48042,5.135941000000001,0.3363172,0.6935053000000001,-0.1315473,1.152455,-0.05486262,0.2300054,0.6313310999999999,-0.2182839,3.77417,-0.7153091,32.91759709346029
1,-0.06481934,0.1242523,0.9901276,1.0,-0.03036499,0.09117126,0.9953613,-29.36536,-6.775131,-19.85591,4.908875,0.4240644,0.7024807,1.0,-0.06481934,0.1242523,0.9901276,37.35562,-6.26976,-20.75714,5.092712000000001,0.3553889,0.6921656,-0.1316747999999999,1.152338,-0.05466992,0.2296189,0.6322804,-0.2181271,3.77417,-0.7153091,32.91759709346029
1,-0.06481934,0.1242523,0.9901276,1.0,-0.03036499,0.09117126,0.9953613,-29.36536,-6.775131,-19.85591,4.908875,0.4240644,0.7024807,1.0,-0.06481934,0.1242523,0.9901276,37.35562,-6.26976,-20.75714,5.092712000000001,0.3553889,0.6921656,-0.1316747999999999,1.152338,-0.05466992,0.2296189,0.6322804,-0.2181271,3.77417,-0.7153091,32.91759709346029
1,-0.06481934,0.1242523,0.9901276,1.0,-0.03036499,0.09117126,0.9953613,-29.36536,-6.775131,-19.85591,4.908875,0.4240644,0.7024807,1.0,-0.06481934,0.1242523,0.9901276,37.35562,-6.26976,-20.75714,5.092712000000001,0.3553889,0.6921656,-0.1316747999999999,1.152338,-0.05466992,0.2296189,0.6322804,-0.2181271,3.77417,-0.7153091,32.91759709346029
1,-0.07788086,0.1150359999999999,0.9902954,1.0,-0.03277588,0.09884644,0.9945526,-29.54817,-6.694412,-19.74713,4.693161,0.4302313,0.6976842,1.0,-0.07788086,0.1150359999999999,0.9902954,37.26285,-6.1824650000000005,-20.89302,5.028091000000001,0.3603762,0.6922289,-0.1316112,1.152305,-0.05473411,0.2285241,0.6335745,-0.2174904,3.77417,-0.7153091,32.91759709346029
1,-0.07788086,0.1150359999999999,0.9902954,1.0,-0.03277588,0.09884644,0.9945526,-29.54817,-6.694412,-19.74713,4.693161,0.4302313,0.6976842,1.0,-0.07788086,0.1150359999999999,0.9902954,37.26285,-6.1824650000000005,-20.89302,5.028091000000001,0.3603762,0.6922289,-0.1316112,1.152305,-0.05473411,0.2285241,0.6335745,-0.2174904,3.77417,-0.7153091,32.91759709346029
1,-0.07788086,0.1150359999999999,0.9902954,1.0,-0.03277588,0.09884644,0.9945526,-29.54817,-6.694412,-19.74713,4.693161,0.4302313,0.6976842,1.0,-0.07788086,0.1150359999999999,0.9902954,37.26285,-6.1824650000000005,-20.89302,5.028091000000001,0.3603762,0.6922289,-0.1316112,1.152305,-0.05473411,0.2285241,0.6335745,-0.2174904,3.77417,-0.7153091,32.91759709346029
1,-0.06887817,0.1173706,0.9906921,1.0,-0.02845764,0.100647,0.9945068,-29.54651,-6.698592999999999,-19.71764,4.720154,0.4295109,0.6972581999999999,1.0,-0.06904602,0.1174469,0.9906616,37.27065,-6.111649,-21.07333,5.022781,0.3585261,0.6913756999999999,-0.1316953,1.152297,-0.0547021,0.2270823,0.6352215,-0.2167026,3.77417,-0.7153091,32.91759709346029
1,-0.06887817,0.1173706,0.9906921,1.0,-0.02845764,0.100647,0.9945068,-29.54651,-6.698592999999999,-19.71764,4.720154,0.4295109,0.6972581999999999,1.0,-0.06904602,0.1174469,0.9906616,37.27065,-6.111649,-21.07333,5.022781,0.3585261,0.6913756999999999,-0.1316953,1.152297,-0.0547021,0.2270823,0.6352215,-0.2167026,3.77417,-0.7153091,32.91759709346029
1,-0.06887817,0.1173706,0.9906921,1.0,-0.02845764,0.100647,0.9945068,-29.54651,-6.698592999999999,-19.71764,4.720154,0.4295109,0.6972581999999999,1.0,-0.06904602,0.1174469,0.9906616,37.27065,-6.111649,-21.07333,5.022781,0.3585261,0.6913756999999999,-0.1316953,1.152297,-0.0547021,0.2270823,0.6352215,-0.2167026,3.77417,-0.7153091,32.91759709346029
1,-0.04597473,0.1131896999999999,0.9924927,1.0,-0.02815247,0.1044769,0.9941254,-29.520390000000003,-6.761887,-19.47545,4.723433999999999,0.4287357,0.6961685000000001,1.0,-0.0700531,0.1248932,0.9896851,37.28294,-6.111649,-21.09451,5.0115050000000005,0.3582764,0.6903974,-0.1314484,1.152466,-0.05484003,0.2259477,0.6368679,-0.2158567,3.77417,-0.7153091,32.91759709346029
1,-0.04597473,0.1131896999999999,0.9924927,1.0,-0.02815247,0.1044769,0.9941254,-29.520390000000003,-6.761887,-19.47545,4.723433999999999,0.4287357,0.6961685000000001,1.0,-0.0700531,0.1248932,0.9896851,37.28294,-6.111649,-21.09451,5.0115050000000005,0.3582764,0.6903974,-0.1314484,1.152466,-0.05484003,0.2259477,0.6368679,-0.2158567,3.77417,-0.7153091,32.91759709346029
1,-0.04597473,0.1131896999999999,0.9924927,1.0,-0.02815247,0.1044769,0.9941254,-29.520390000000003,-6.761887,-19.47545,4.723433999999999,0.4287357,0.6961685000000001,1.0,-0.0700531,0.1248932,0.9896851,37.28294,-6.111649,-21.09451,5.0115050000000005,0.3582764,0.6903974,-0.1314484,1.152466,-0.05484003,0.2259477,0.6368679,-0.2158567,3.77417,-0.7153091,32.91759709346029
1,-0.05592346,0.1191253999999999,0.9912872,1.0,-0.0272522,0.1049346999999999,0.9940948,-29.519040000000004,-6.765717,-19.45767,4.7152400000000005,0.4285622,0.6960223000000001,1.0,-0.06309509,0.1226654,0.9904327,37.27299,-6.092987,-21.12468,4.989532,0.3574526,0.6903974,-0.1311674,1.152743,-0.05513304,0.2230654,0.6396861999999999,-0.2141328999999999,3.77417,-0.7153091,32.91759709346029
1,-0.05592346,0.1191253999999999,0.9912872,1.0,-0.0272522,0.1049346999999999,0.9940948,-29.519040000000004,-6.765717,-19.45767,4.7152400000000005,0.4285622,0.6960223000000001,1.0,-0.06309509,0.1226654,0.9904327,37.27299,-6.092987,-21.12468,4.989532,0.3574526,0.6903974,-0.1311674,1.152743,-0.05513304,0.2230654,0.6396861999999999,-0.2141328999999999,3.77417,-0.7153091,32.91759709346029
1,-0.05592346,0.1191253999999999,0.9912872,1.0,-0.0272522,0.1049346999999999,0.9940948,-29.519040000000004,-6.765717,-19.45767,4.7152400000000005,0.4285622,0.6960223000000001,1.0,-0.06309509,0.1226654,0.9904327,37.27299,-6.092987,-21.12468,4.989532,0.3574526,0.6903974,-0.1311674,1.152743,-0.05513304,0.2230654,0.6396861999999999,-0.2141328999999999,3.77417,-0.7153091,32.91759709346029
1,-0.05223083,0.1174469,0.9916992,1.0,-0.02705383,0.103363,0.9942627,-29.51192,-6.769348,-19.42772,4.709366,0.4283175999999999,0.6960773,1.0,-0.05731201,0.1202849999999999,0.9910736,37.27065,-6.0816040000000005,-21.14305,4.896774,0.3566014999999999,0.6904675,-0.130631,1.153511,-0.05582702,0.2186916,0.6428977,-0.211558,3.77417,41.78086,32.91759709346029
1,-0.05223083,0.1174469,0.9916992,1.0,-0.02705383,0.103363,0.9942627,-29.51192,-6.769348,-19.42772,4.709366,0.4283175999999999,0.6960773,1.0,-0.05731201,0.1202849999999999,0.9910736,37.27065,-6.0816040000000005,-21.14305,4.896774,0.3566014999999999,0.6904675,-0.130631,1.153511,-0.05582702,0.2186916,0.6428977,-0.211558,3.77417,41.78086,32.91759709346029
1,-0.05223083,0.1174469,0.9916992,1.0,-0.02705383,0.103363,0.9942627,-29.51192,-6.769348,-19.42772,4.709366,0.4283175999999999,0.6960773,1.0,-0.05731201,0.1202849999999999,0.9910736,37.27065,-6.0816040000000005,-21.14305,4.896774,0.3566014999999999,0.6904675,-0.130631,1.153511,-0.05582702,0.2186916,0.6428977,-0.211558,3.77417,41.78086,32.91759709346029
1,-0.06085205,0.2243652,0.9725952,1.0,-0.0670929,0.2121735,0.9749146,-29.578840000000003,-6.182053,-19.21637,4.461655,0.4371113,0.6583566999999999,1.0,-0.04997253,0.2454987,0.9680939,36.88176,-5.430466,-21.03584,4.583008,0.3690038,0.6476126999999999,-0.1302976,1.154363,-0.05699113,0.2162349999999999,0.644875,-0.2095569,3.77417,41.78086,32.91759709346029
1,-0.06085205,0.2243652,0.9725952,1.0,-0.0670929,0.2121735,0.9749146,-29.578840000000003,-6.182053,-19.21637,4.461655,0.4371113,0.6583566999999999,1.0,-0.04997253,0.2454987,0.9680939,36.88176,-5.430466,-21.03584,4.583008,0.3690038,0.6476126999999999,-0.1302976,1.154363,-0.05699113,0.2162349999999999,0.644875,-0.2095569,3.77417,41.78086,32.91759709346029
1,-0.06085205,0.2243652,0.9725952,1.0,-0.0670929,0.2121735,0.9749146,-29.578840000000003,-6.182053,-19.21637,4.461655,0.4371113,0.6583566999999999,1.0,-0.04997253,0.2454987,0.9680939,36.88176,-5.430466,-21.03584,4.583008,0.3690038,0.6476126999999999,-0.1302976,1.154363,-0.05699113,0.2162349999999999,0.644875,-0.2095569,3.77417,41.78086,32.91759709346029
1,-0.07130432,0.280014,0.9573364,1.0,-0.07154846,0.2760468,0.9584656,-29.63667,-5.888701999999999,-19.3045,4.412354,0.4398104,0.6400064999999999,1.0,-0.06948853,0.30896,0.9485168,36.82849,-5.282013,-21.1489,4.529846,0.3740774,0.6338001,-0.1305226,1.154483,-0.05748945,0.2153482,0.6457348,-0.2088642,3.77417,41.78086,32.91759709346029
1,-0.07130432,0.280014,0.9573364,1.0,-0.07154846,0.2760468,0.9584656,-29.63667,-5.888701999999999,-19.3045,4.412354,0.4398104,0.6400064999999999,1.0,-0.06948853,0.30896,0.9485168,36.82849,-5.282013,-21.1489,4.529846,0.3740774,0.6338001,-0.1305226,1.154483,-0.05748945,0.2153482,0.6457348,-0.2088642,3.77417,41.78086,32.91759709346029
1,-0.07130432,0.280014,0.9573364,1.0,-0.07154846,0.2760468,0.9584656,-29.63667,-5.888701999999999,-19.3045,4.412354,0.4398104,0.6400064999999999,1.0,-0.06948853,0.30896,0.9485168,36.82849,-5.282013,-21.1489,4.529846,0.3740774,0.6338001,-0.1305226,1.154483,-0.05748945,0.2153482,0.6457348,-0.2088642,3.77417,41.78086,32.91759709346029
1,-0.07411194,0.275238,0.9585114,1.0,-0.0655365,0.2575836,0.9640198,-29.64429,-5.904785,-19.28098,4.308426,0.4390775999999999,0.6429793,1.0,-0.08329773,0.2940674,0.9521332,36.95811,-5.305893,-21.10736,4.45578,0.3721552,0.6364501,-0.1304891,1.154635,-0.05875668,0.2144483999999999,0.6464982,-0.2088737999999999,3.77417,41.78086,32.91759709346029
1,-0.07411194,0.275238,0.9585114,1.0,-0.0655365,0.2575836,0.9640198,-29.64429,-5.904785,-19.28098,4.308426,0.4390775999999999,0.6429793,1.0,-0.08329773,0.2940674,0.9521332,36.95811,-5.305893,-21.10736,4.45578,0.3721552,0.6364501,-0.1304891,1.154635,-0.05875668,0.2144483999999999,0.6464982,-0.2088737999999999,3.77417,41.78086,32.91759709346029
1,-0.07411194,0.275238,0.9585114,1.0,-0.0655365,0.2575836,0.9640198,-29.64429,-5.904785,-19.28098,4.308426,0.4390775999999999,0.6429793,1.0,-0.08329773,0.2940674,0.9521332,36.95811,-5.305893,-21.10736,4.45578,0.3721552,0.6364501,-0.1304891,1.154635,-0.05875668,0.2144483999999999,0.6464982,-0.2088737999999999,3.77417,41.78086,32.91759709346029
1,-0.07385254,0.2736053,0.9589996,1.0,-0.06448364,0.2548065,0.9648285,-29.64156,-5.909286,-19.27618,4.26593,0.4388278,0.6434326,1.0,-0.08357239,0.2930145,0.9524384,36.9726,-5.301819,-21.09995,4.447006,0.3717366,0.6363977,-0.1304687,1.155137,-0.05926684,0.2137235999999999,0.6469079000000001,-0.2084306,3.77417,41.78086,32.91759709346029
1,-0.07385254,0.2736053,0.9589996,1.0,-0.06448364,0.2548065,0.9648285,-29.64156,-5.909286,-19.27618,4.26593,0.4388278,0.6434326,1.0,-0.08357239,0.2930145,0.9524384,36.9726,-5.301819,-21.09995,4.447006,0.3717366,0.6363977,-0.1304687,1.155137,-0.05926684,0.2137235999999999,0.6469079000000001,-0.2084306,3.77417,41.78086,32.91759709346029
1,-0.07385254,0.2736053,0.9589996,1.0,-0.06448364,0.2548065,0.9648285,-29.64156,-5.909286,-19.27618,4.26593,0.4388278,0.6434326,1.0,-0.08357239,0.2930145,0.9524384,36.9726,-5.301819,-21.09995,4.447006,0.3717366,0.6363977,-0.1304687,1.155137,-0.05926684,0.2137235999999999,0.6469079000000001,-0.2084306,3.77417,41.78086,32.91759709346029
1,-0.07875061,0.278595,0.9571686,1.0,-0.07246399,0.2621155,0.9622955,-29.595,-5.96994,-19.2524,4.263808999999999,0.4386534000000001,0.6439958,1.0,-0.08502197,0.2950592,0.9516754,36.98308,-5.30368,-21.09554,4.410812,0.3716594,0.6360311,-0.1301486,1.156039,-0.0600841,0.2114807,0.6482779000000001,-0.2069592,3.77417,14.85342,32.91759709346029
1,-0.07875061,0.278595,0.9571686,1.0,-0.07246399,0.2621155,0.9622955,-29.595,-5.96994,-19.2524,4.263808999999999,0.4386534000000001,0.6439958,1.0,-0.08502197,0.2950592,0.9516754,36.98308,-5.30368,-21.09554,4.410812,0.3716594,0.6360311,-0.1301486,1.156039,-0.0600841,0.2114807,0.6482779000000001,-0.2069592,3.77417,14.85342,32.91759709346029
1,-0.07875061,0.278595,0.9571686,1.0,-0.07246399,0.2621155,0.9622955,-29.595,-5.96994,-19.2524,4.263808999999999,0.4386534000000001,0.6439958,1.0,-0.08502197,0.2950592,0.9516754,36.98308,-5.30368,-21.09554,4.410812,0.3716594,0.6360311,-0.1301486,1.156039,-0.0600841,0.2114807,0.6482779000000001,-0.2069592,3.77417,14.85342,32.91759709346029
1,-0.07575989,0.2770081,0.9578705,1.0,-0.07174683,0.2610931,0.9626312,-29.59433,-5.9770970000000005,-19.2428,4.2409360000000005,0.438522,0.6442403,1.0,-0.07940674,0.2915344,0.9532471,36.98741,-5.305893,-21.09424,4.289459,0.3706127999999999,0.6364501,-0.1299398,1.156844,-0.06043306,0.2071077,0.6510505999999999,-0.2045705,3.77417,14.85342,32.91759709346029
1,-0.07575989,0.2770081,0.9578705,1.0,-0.07174683,0.2610931,0.9626312,-29.59433,-5.9770970000000005,-19.2428,4.2409360000000005,0.438522,0.6442403,1.0,-0.07940674,0.2915344,0.9532471,36.98741,-5.305893,-21.09424,4.289459,0.3706127999999999,0.6364501,-0.1299398,1.156844,-0.06043306,0.2071077,0.6510505999999999,-0.2045705,3.77417,14.85342,32.91759709346029
1,-0.07575989,0.2770081,0.9578705,1.0,-0.07174683,0.2610931,0.9626312,-29.59433,-5.9770970000000005,-19.2428,4.2409360000000005,0.438522,0.6442403,1.0,-0.07940674,0.2915344,0.9532471,36.98741,-5.305893,-21.09424,4.289459,0.3706127999999999,0.6364501,-0.1299398,1.156844,-0.06043306,0.2071077,0.6510505999999999,-0.2045705,3.77417,14.85342,32.91759709346029
1,-0.07575989,0.2770081,0.9578705,1.0,-0.07174683,0.2610931,0.9626312,-29.59433,-5.9770970000000005,-19.2428,4.2409360000000005,0.438522,0.6442403,1.0,-0.07940674,0.2915344,0.9532471,36.98741,-5.305893,-21.09424,4.289459,0.3706127999999999,0.6364501,-0.1303279,1.158066,-0.06065851,0.2011654,0.6545215,-0.2012352999999999,3.77417,14.85342,32.91759709346029
1,-0.07575989,0.2770081,0.9578705,1.0,-0.07174683,0.2610931,0.9626312,-29.59433,-5.9770970000000005,-19.2428,4.2409360000000005,0.438522,0.6442403,1.0,-0.07940674,0.2915344,0.9532471,36.98741,-5.305893,-21.09424,4.289459,0.3706127999999999,0.6364501,-0.1303279,1.158066,-0.06065851,0.2011654,0.6545215,-0.2012352999999999,3.77417,14.85342,32.91759709346029
1,-0.07575989,0.2770081,0.9578705,1.0,-0.07174683,0.2610931,0.9626312,-29.59433,-5.9770970000000005,-19.2428,4.2409360000000005,0.438522,0.6442403,1.0,-0.07940674,0.2915344,0.9532471,36.98741,-5.305893,-21.09424,4.289459,0.3706127999999999,0.6364501,-0.1303279,1.158066,-0.06065851,0.2011654,0.6545215,-0.2012352999999999,3.77417,14.85342,32.91759709346029
1,-0.06782532,0.4057922,0.911438,1.0,-0.06924438,0.3874817,0.9192657,-29.62897,-5.215637,-19.47916,3.927612,0.4395388,0.6025748000000001,1.0,-0.06596375,0.4290161,0.9008789,36.90257,-4.465256,-21.38622,3.929443,0.3715803,0.5894335999999999,-0.1295693,1.160684,-0.06213635,0.1931,0.6587955,-0.1950773999999999,3.77417,14.85342,32.91759709346029
1,-0.06782532,0.4057922,0.911438,1.0,-0.06924438,0.3874817,0.9192657,-29.62897,-5.215637,-19.47916,3.927612,0.4395388,0.6025748000000001,1.0,-0.06596375,0.4290161,0.9008789,36.90257,-4.465256,-21.38622,3.929443,0.3715803,0.5894335999999999,-0.1295693,1.160684,-0.06213635,0.1931,0.6587955,-0.1950773999999999,3.77417,14.85342,32.91759709346029
1,-0.06782532,0.4057922,0.911438,1.0,-0.06924438,0.3874817,0.9192657,-29.62897,-5.215637,-19.47916,3.927612,0.4395388,0.6025748000000001,1.0,-0.06596375,0.4290161,0.9008789,36.90257,-4.465256,-21.38622,3.929443,0.3715803,0.5894335999999999,-0.1295693,1.160684,-0.06213635,0.1931,0.6587955,-0.1950773999999999,3.77417,14.85342,32.91759709346029
1,-0.07000732,0.4080811,0.9102478,1.0,-0.07237244,0.3955841,0.9155579,-29.59883,-5.149872,-19.50613,3.847504,0.4391319,0.5993831000000001,1.0,-0.06556702,0.4311523,0.8998870999999999,36.93687,-4.466049,-21.39684,3.867706,0.370399,0.5891144,-0.1288509,1.163851,-0.06412688,0.1855827,0.6636019000000001,-0.1891378,3.77417,17.29031,32.91759709346029
1,-0.07000732,0.4080811,0.9102478,1.0,-0.07237244,0.3955841,0.9155579,-29.59883,-5.149872,-19.50613,3.847504,0.4391319,0.5993831000000001,1.0,-0.06556702,0.4311523,0.8998870999999999,36.93687,-4.466049,-21.39684,3.867706,0.370399,0.5891144,-0.1288509,1.163851,-0.06412688,0.1855827,0.6636019000000001,-0.1891378,3.77417,17.29031,32.91759709346029
1,-0.07000732,0.4080811,0.9102478,1.0,-0.07237244,0.3955841,0.9155579,-29.59883,-5.149872,-19.50613,3.847504,0.4391319,0.5993831000000001,1.0,-0.06556702,0.4311523,0.8998870999999999,36.93687,-4.466049,-21.39684,3.867706,0.370399,0.5891144,-0.1288509,1.163851,-0.06412688,0.1855827,0.6636019000000001,-0.1891378,3.77417,17.29031,32.91759709346029
1,-0.0690918,0.386673,0.9196167,1.0,-0.06904602,0.3674927,0.9274445,-29.49442,-5.365036,-19.40788,3.775269,0.4352544,0.6094321999999999,1.0,-0.06910706,0.4042969,0.9120026,37.14302,-4.726593,-21.29417,3.903915,0.364217,0.600913,-0.1295314,1.170433,-0.06737876,0.1669477999999999,0.6750712,-0.1687096,3.77417,17.29031,32.91759709346029
1,-0.0690918,0.386673,0.9196167,1.0,-0.06904602,0.3674927,0.9274445,-29.49442,-5.365036,-19.40788,3.775269,0.4352544,0.6094321999999999,1.0,-0.06910706,0.4042969,0.9120026,37.14302,-4.726593,-21.29417,3.903915,0.364217,0.600913,-0.1295314,1.170433,-0.06737876,0.1669477999999999,0.6750712,-0.1687096,3.77417,17.29031,32.91759709346029
1,-0.0690918,0.386673,0.9196167,1.0,-0.06904602,0.3674927,0.9274445,-29.49442,-5.365036,-19.40788,3.775269,0.4352544,0.6094321999999999,1.0,-0.06910706,0.4042969,0.9120026,37.14302,-4.726593,-21.29417,3.903915,0.364217,0.600913,-0.1295314,1.170433,-0.06737876,0.1669477999999999,0.6750712,-0.1687096,3.77417,17.29031,32.91759709346029
1,-0.05326843,0.3674164,0.9285126,1.0,-0.04536438,0.3281555,0.9435272,-29.42671,-5.489349,-19.31828,3.644119,0.4292286,0.6183166999999999,1.0,-0.05952454,0.3983612,0.9152832,37.1757,-4.761215,-21.29417,3.753311,0.3615355,0.6027104999999999,-0.1303408999999999,1.174824,-0.07000583,0.1598594,0.6798812,-0.1596642,3.77417,17.29031,32.91759709346029
1,-0.05326843,0.3674164,0.9285126,1.0,-0.04536438,0.3281555,0.9435272,-29.42671,-5.489349,-19.31828,3.644119,0.4292286,0.6183166999999999,1.0,-0.05952454,0.3983612,0.9152832,37.1757,-4.761215,-21.29417,3.753311,0.3615355,0.6027104999999999,-0.1303408999999999,1.174824,-0.07000583,0.1598594,0.6798812,-0.1596642,3.77417,17.29031,32.91759709346029
1,-0.05326843,0.3674164,0.9285126,1.0,-0.04536438,0.3281555,0.9435272,-29.42671,-5.489349,-19.31828,3.644119,0.4292286,0.6183166999999999,1.0,-0.05952454,0.3983612,0.9152832,37.1757,-4.761215,-21.29417,3.753311,0.3615355,0.6027104999999999,-0.1303408999999999,1.174824,-0.07000583,0.1598594,0.6798812,-0.1596642,3.77417,17.29031,32.91759709346029
1,-0.04905701,0.3507232999999999,0.9351807,1.0,-0.04460144,0.3029938,0.9519348,-29.31522,-5.585983000000001,-19.26727,3.791946,0.4255528,0.6249547,1.0,-0.05149841,0.3772125,0.9246826,37.20918,-4.836365,-21.29117,3.795959,0.3590070999999999,0.6085343000000001,-0.1334932,1.178942,-0.07141757,0.1520741,0.6855502,-0.1517875,3.77417,17.29031,32.91759709346029
1,-0.04905701,0.3507232999999999,0.9351807,1.0,-0.04460144,0.3029938,0.9519348,-29.31522,-5.585983000000001,-19.26727,3.791946,0.4255528,0.6249547,1.0,-0.05149841,0.3772125,0.9246826,37.20918,-4.836365,-21.29117,3.795959,0.3590070999999999,0.6085343000000001,-0.1334932,1.178942,-0.07141757,0.1520741,0.6855502,-0.1517875,3.77417,17.29031,32.91759709346029
1,-0.04905701,0.3507232999999999,0.9351807,1.0,-0.04460144,0.3029938,0.9519348,-29.31522,-5.585983000000001,-19.26727,3.791946,0.4255528,0.6249547,1.0,-0.05149841,0.3772125,0.9246826,37.20918,-4.836365,-21.29117,3.795959,0.3590070999999999,0.6085343000000001,-0.1334932,1.178942,-0.07141757,0.1520741,0.6855502,-0.1517875,3.77417,17.29031,32.91759709346029
1,-0.06211853,0.4476013,0.8920593000000001,1.0,-0.1018677,0.45047,0.8869476000000001,-29.08069,-5.190948000000001,-19.56485,3.705475,0.4278089,0.5924446999999999,1.0,-0.04512024,0.4461517,0.8937988000000001,37.24498,-4.267899,-21.40231,3.778305000000001,0.3569663,0.5800576999999999,-0.1370607,1.183713,-0.07239592,0.1422659,0.6900149,-0.1400573999999999,3.77417,-17.18631,32.91759709346029
1,-0.06211853,0.4476013,0.8920593000000001,1.0,-0.1018677,0.45047,0.8869476000000001,-29.08069,-5.190948000000001,-19.56485,3.705475,0.4278089,0.5924446999999999,1.0,-0.04512024,0.4461517,0.8937988000000001,37.24498,-4.267899,-21.40231,3.778305000000001,0.3569663,0.5800576999999999,-0.1370607,1.183713,-0.07239592,0.1422659,0.6900149,-0.1400573999999999,3.77417,-17.18631,32.91759709346029
1,-0.06211853,0.4476013,0.8920593000000001,1.0,-0.1018677,0.45047,0.8869476000000001,-29.08069,-5.190948000000001,-19.56485,3.705475,0.4278089,0.5924446999999999,1.0,-0.04512024,0.4461517,0.8937988000000001,37.24498,-4.267899,-21.40231,3.778305000000001,0.3569663,0.5800576999999999,-0.1370607,1.183713,-0.07239592,0.1422659,0.6900149,-0.1400573999999999,3.77417,-17.18631,32.91759709346029
1,-0.04922485,0.4072265999999999,0.9119873,1.0,-0.0511321999999999,0.3765410999999999,0.9249725,-29.28435,-5.256133999999999,-19.40051,3.667297,0.4257488,0.6042784000000001,1.0,-0.04814148,0.4241332999999999,0.9043121,37.28876,-4.476135,-21.32466,3.789032,0.3560174,0.5896276999999999,-0.1405524,1.189715,-0.07368112,0.1310411,0.6918771,-0.1298509,3.77417,-17.18631,32.91759709346029
1,-0.04922485,0.4072265999999999,0.9119873,1.0,-0.0511321999999999,0.3765410999999999,0.9249725,-29.28435,-5.256133999999999,-19.40051,3.667297,0.4257488,0.6042784000000001,1.0,-0.04814148,0.4241332999999999,0.9043121,37.28876,-4.476135,-21.32466,3.789032,0.3560174,0.5896276999999999,-0.1405524,1.189715,-0.07368112,0.1310411,0.6918771,-0.1298509,3.77417,-17.18631,32.91759709346029
1,-0.04922485,0.4072265999999999,0.9119873,1.0,-0.0511321999999999,0.3765410999999999,0.9249725,-29.28435,-5.256133999999999,-19.40051,3.667297,0.4257488,0.6042784000000001,1.0,-0.04814148,0.4241332999999999,0.9043121,37.28876,-4.476135,-21.32466,3.789032,0.3560174,0.5896276999999999,-0.1405524,1.189715,-0.07368112,0.1310411,0.6918771,-0.1298509,3.77417,-17.18631,32.91759709346029
1,-0.04246521,0.3747864,0.9261322,1.0,-0.04069519,0.3534546,0.9345551,-29.3217,-5.432632,-19.36998,3.62883,0.4251805,0.6130431,1.0,-0.04426575,0.3965149,0.9169464,37.28757,-4.651428,-21.29453,3.703339,0.3553436,0.5992921999999999,-0.150315,1.202885,-0.07479376,0.1060849999999999,0.6929571999999999,-0.1142057,3.77417,-17.18631,32.91759709346029
1,-0.04246521,0.3747864,0.9261322,1.0,-0.04069519,0.3534546,0.9345551,-29.3217,-5.432632,-19.36998,3.62883,0.4251805,0.6130431,1.0,-0.04426575,0.3965149,0.9169464,37.28757,-4.651428,-21.29453,3.703339,0.3553436,0.5992921999999999,-0.150315,1.202885,-0.07479376,0.1060849999999999,0.6929571999999999,-0.1142057,3.77417,-17.18631,32.91759709346029
1,-0.04246521,0.3747864,0.9261322,1.0,-0.04069519,0.3534546,0.9345551,-29.3217,-5.432632,-19.36998,3.62883,0.4251805,0.6130431,1.0,-0.04426575,0.3965149,0.9169464,37.28757,-4.651428,-21.29453,3.703339,0.3553436,0.5992921999999999,-0.150315,1.202885,-0.07479376,0.1060849999999999,0.6929571999999999,-0.1142057,3.77417,-17.18631,32.91759709346029
1,-0.04154968,0.3577575999999999,0.9328766,1.0,-0.03761292,0.3341522,0.9417572,-29.34206,-5.453186,-19.35799,3.61142,0.4253009,0.6165448,1.0,-0.04597473,0.3841248,0.9221191,37.28821,-4.703918,-21.28688,3.649811,0.3555923,0.6028214,-0.1563092999999999,1.208874,-0.07532245,0.09409297,0.6924363,-0.1066928,3.77417,-17.18631,32.91759709346029
1,-0.04154968,0.3577575999999999,0.9328766,1.0,-0.03761292,0.3341522,0.9417572,-29.34206,-5.453186,-19.35799,3.61142,0.4253009,0.6165448,1.0,-0.04597473,0.3841248,0.9221191,37.28821,-4.703918,-21.28688,3.649811,0.3555923,0.6028214,-0.1563092999999999,1.208874,-0.07532245,0.09409297,0.6924363,-0.1066928,3.77417,-17.18631,33.77
1,-0.04154968,0.3577575999999999,0.9328766,1.0,-0.03761292,0.3341522,0.9417572,-29.34206,-5.453186,-19.35799,3.61142,0.4253009,0.6165448,1.0,-0.04597473,0.3841248,0.9221191,37.28821,-4.703918,-21.28688,3.649811,0.3555923,0.6028214,-0.1563092999999999,1.208874,-0.07532245,0.09409297,0.6924363,-0.1066928,3.77417,-17.18631,33.75
1,-0.03843689,0.3405609,0.9394226,1.0,-0.02992249,0.3154297,0.9484711,-29.39824,-5.502669999999999,-19.34746,3.606369,0.4257975999999999,0.6208911,1.0,-0.04653931,0.3643188,0.9300995,37.28938,-4.797592,-21.281270000000003,3.631516,0.3555923,0.6089515999999999,-0.1636693,1.214099,-0.07519692,0.08225995,0.6918485,-0.099214,3.77417,-17.18631,33.75
1,-0.03843689,0.3405609,0.9394226,1.0,-0.02992249,0.3154297,0.9484711,-29.39824,-5.502669999999999,-19.34746,3.606369,0.4257975999999999,0.6208911,1.0,-0.04653931,0.3643188,0.9300995,37.28938,-4.797592,-21.281270000000003,3.631516,0.3555923,0.6089515999999999,-0.1636693,1.214099,-0.07519692,0.08225995,0.6918485,-0.099214,3.77417,-17.18631,33.75
1,-0.03843689,0.3405609,0.9394226,1.0,-0.02992249,0.3154297,0.9484711,-29.39824,-5.502669999999999,-19.34746,3.606369,0.4257975999999999,0.6208911,1.0,-0.04653931,0.3643188,0.9300995,37.28938,-4.797592,-21.281270000000003,3.631516,0.3555923,0.6089515999999999,-0.1636693,1.214099,-0.07519692,0.08225995,0.6918485,-0.099214,3.77417,-17.18631,33.75
1,-0.03829956,0.324295,0.9451752,1.0,-0.02897644,0.2956696,0.9548492,-29.43973,-5.548309,-19.34569,3.624603,0.4269228,0.6254112,1.0,-0.04800415,0.3538970999999999,0.9340363000000002,37.29301,-4.92955,-21.26585,3.622238,0.3556739,0.6147363,-0.1715438,1.219036,-0.07487524,0.07009061,0.6910887,-0.09094351,3.77417,0.2955627,33.75
1,-0.03829956,0.324295,0.9451752,1.0,-0.02897644,0.2956696,0.9548492,-29.43973,-5.548309,-19.34569,3.624603,0.4269228,0.6254112,1.0,-0.04800415,0.3538970999999999,0.9340363000000002,37.29301,-4.92955,-21.26585,3.622238,0.3556739,0.6147363,-0.1715438,1.219036,-0.07487524,0.07009061,0.6910887,-0.09094351,3.77417,0.2955627,33.75
1,-0.03829956,0.324295,0.9451752,1.0,-0.02897644,0.2956696,0.9548492,-29.43973,-5.548309,-19.34569,3.624603,0.4269228,0.6254112,1.0,-0.04800415,0.3538970999999999,0.9340363000000002,37.29301,-4.92955,-21.26585,3.622238,0.3556739,0.6147363,-0.1715438,1.219036,-0.07487524,0.07009061,0.6910887,-0.09094351,3.77417,0.2955627,33.75
1,-0.03921509,0.2970428,0.9540558,1.0,-0.02897644,0.2706909,0.9622192,-29.46194,-5.629333,-19.3237,3.647797,0.4275952999999999,0.6316596,1.0,-0.05117798,0.3275757,0.9434357,37.29535,-4.991653,-21.23424,3.626297,0.3560910999999999,0.6206843000000001,-0.179613,1.2239799999999998,-0.075028,0.05841559,0.6912235,-0.08226733,3.77417,0.2955627,33.75
1,-0.03921509,0.2970428,0.9540558,1.0,-0.02897644,0.2706909,0.9622192,-29.46194,-5.629333,-19.3237,3.647797,0.4275952999999999,0.6316596,1.0,-0.05117798,0.3275757,0.9434357,37.29535,-4.991653,-21.23424,3.626297,0.3560910999999999,0.6206843000000001,-0.179613,1.2239799999999998,-0.075028,0.05841559,0.6912235,-0.08226733,3.77417,0.2955627,33.75
1,-0.03921509,0.2970428,0.9540558,1.0,-0.02897644,0.2706909,0.9622192,-29.46194,-5.629333,-19.3237,3.647797,0.4275952999999999,0.6316596,1.0,-0.05117798,0.3275757,0.9434357,37.29535,-4.991653,-21.23424,3.626297,0.3560910999999999,0.6206843000000001,-0.179613,1.2239799999999998,-0.075028,0.05841559,0.6912235,-0.08226733,3.77417,0.2955627,33.75
1,-0.04660034,0.2557526,0.9656067,1.0,-0.02891541,0.2335663,0.9719086,-29.51768,-5.826782,-19.30544,3.643265,0.4292822,0.6434692,1.0,-0.06538391,0.2791442999999999,0.9580078000000002,37.28197,-5.2123870000000005,-21.19516,3.653214,0.3587607,0.6353313,-0.1885209,1.228305,-0.07497817,0.04934657,0.6919535,-0.07417741,3.77417,0.2955627,33.75
1,-0.04660034,0.2557526,0.9656067,1.0,-0.02891541,0.2335663,0.9719086,-29.51768,-5.826782,-19.30544,3.643265,0.4292822,0.6434692,1.0,-0.06538391,0.2791442999999999,0.9580078000000002,37.28197,-5.2123870000000005,-21.19516,3.653214,0.3587607,0.6353313,-0.1885209,1.228305,-0.07497817,0.04934657,0.6919535,-0.07417741,3.77417,0.2955627,33.75
1,-0.04660034,0.2557526,0.9656067,1.0,-0.02891541,0.2335663,0.9719086,-29.51768,-5.826782,-19.30544,3.643265,0.4292822,0.6434692,1.0,-0.06538391,0.2791442999999999,0.9580078000000002,37.28197,-5.2123870000000005,-21.19516,3.653214,0.3587607,0.6353313,-0.1885209,1.228305,-0.07497817,0.04934657,0.6919535,-0.07417741,3.77417,0.2955627,33.75
1,-0.03764343,0.2202147999999999,0.9747162,1.0,-0.03733826,0.2201842999999999,0.9747314,-29.60503,-5.956696,-19.26337,3.651138,0.4333679,0.6492581999999999,1.0,-0.0655365,0.2218322999999999,0.9728699,37.11955,-5.699646,-20.69728,3.5973050000000004,0.3642869999999999,0.655339,-0.1972505,1.232446,-0.07509941,0.04021142,0.6931125,-0.06621296,3.77417,0.2955627,33.75
1,-0.03764343,0.2202147999999999,0.9747162,1.0,-0.03733826,0.2201842999999999,0.9747314,-29.60503,-5.956696,-19.26337,3.651138,0.4333679,0.6492581999999999,1.0,-0.0655365,0.2218322999999999,0.9728699,37.11955,-5.699646,-20.69728,3.5973050000000004,0.3642869999999999,0.655339,-0.1972505,1.232446,-0.07509941,0.04021142,0.6931125,-0.06621296,3.77417,0.2955627,33.75
1,-0.03764343,0.2202147999999999,0.9747162,1.0,-0.03733826,0.2201842999999999,0.9747314,-29.60503,-5.956696,-19.26337,3.651138,0.4333679,0.6492581999999999,1.0,-0.0655365,0.2218322999999999,0.9728699,37.11955,-5.699646,-20.69728,3.5973050000000004,0.3642869999999999,0.655339,-0.1972505,1.232446,-0.07509941,0.04021142,0.6931125,-0.06621296,3.77417,0.2955627,33.75
1,-0.03279114,0.2106323,0.977005,1.0,-0.0327301,0.2106476,0.977005,-29.64075,-6.105087,-19.23477,3.673233,0.433726,0.6551551,1.0,-0.06800842,0.2041016,0.9765778,37.12108,-5.781342,-20.56664,3.628433,0.3646973,0.6595773,-0.2049574,1.2365540000000002,-0.07610106,0.03267879,0.6946788,-0.05947772,3.77417,0.2955627,33.75
1,-0.03279114,0.2106323,0.977005,1.0,-0.0327301,0.2106476,0.977005,-29.64075,-6.105087,-19.23477,3.673233,0.433726,0.6551551,1.0,-0.06800842,0.2041016,0.9765778,37.12108,-5.781342,-20.56664,3.628433,0.3646973,0.6595773,-0.2049574,1.2365540000000002,-0.07610106,0.03267879,0.6946788,-0.05947772,3.77417,0.2955627,33.75
1,-0.03279114,0.2106323,0.977005,1.0,-0.0327301,0.2106476,0.977005,-29.64075,-6.105087,-19.23477,3.673233,0.433726,0.6551551,1.0,-0.06800842,0.2041016,0.9765778,37.12108,-5.781342,-20.56664,3.628433,0.3646973,0.6595773,-0.2049574,1.2365540000000002,-0.07610106,0.03267879,0.6946788,-0.05947772,3.77417,0.2955627,33.75
2,-0.06802368,0.1876221,0.9798737,1.0,-0.06495667,0.1856689,0.9804535,-29.849870000000003,-6.031021,-19.4574,3.614151,0.4453952999999999,0.6589813,1.0,-0.07777405,0.1938628999999999,0.9779358,36.82967,-5.421906,-20.87161,3.774109,0.3755394,0.6529486,-0.2128174,1.239853,-0.07662687,0.02680166,0.6964844,-0.05373725,3.77417,-0.8091049,33.75
2,-0.06802368,0.1876221,0.9798737,1.0,-0.06495667,0.1856689,0.9804535,-29.849870000000003,-6.031021,-19.4574,3.614151,0.4453952999999999,0.6589813,1.0,-0.07777405,0.1938628999999999,0.9779358,36.82967,-5.421906,-20.87161,3.774109,0.3755394,0.6529486,-0.2128174,1.239853,-0.07662687,0.02680166,0.6964844,-0.05373725,3.77417,-0.8091049,33.75
2,-0.06802368,0.1876221,0.9798737,1.0,-0.06495667,0.1856689,0.9804535,-29.849870000000003,-6.031021,-19.4574,3.614151,0.4453952999999999,0.6589813,1.0,-0.07777405,0.1938628999999999,0.9779358,36.82967,-5.421906,-20.87161,3.774109,0.3755394,0.6529486,-0.2128174,1.239853,-0.07662687,0.02680166,0.6964844,-0.05373725,3.77417,-0.8091049,33.75
2,-0.08273315,0.1978454999999999,0.9767303,1.0,-0.06295776,0.1859436,0.9805298,-29.85905,-6.097580000000001,-19.4483,3.733902,0.4453352,0.6610909,1.0,-0.08865356,0.2014008,0.9754791,36.85509,-5.539536,-20.92104,3.727814,0.3764618,0.6560111999999999,-0.2206563999999999,1.242782,-0.07671136,0.02114478,0.6977871999999999,-0.04789817,3.77417,-0.8091049,33.75
2,-0.08273315,0.1978454999999999,0.9767303,1.0,-0.06295776,0.1859436,0.9805298,-29.85905,-6.097580000000001,-19.4483,3.733902,0.4453352,0.6610909,1.0,-0.08865356,0.2014008,0.9754791,36.85509,-5.539536,-20.92104,3.727814,0.3764618,0.6560111999999999,-0.2206563999999999,1.242782,-0.07671136,0.02114478,0.6977871999999999,-0.04789817,3.77417,-0.8091049,33.75
2,-0.08273315,0.1978454999999999,0.9767303,1.0,-0.06295776,0.1859436,0.9805298,-29.85905,-6.097580000000001,-19.4483,3.733902,0.4453352,0.6610909,1.0,-0.08865356,0.2014008,0.9754791,36.85509,-5.539536,-20.92104,3.727814,0.3764618,0.6560111999999999,-0.2206563999999999,1.242782,-0.07671136,0.02114478,0.6977871999999999,-0.04789817,3.77417,-0.8091049,33.75
2,-0.07550049,0.1865692,0.9795227,1.0,-0.06211853,0.1746674,0.9826508,-29.85905,-6.138351,-19.42276,3.751038,0.4451795,0.663909,1.0,-0.0872345,0.196991,0.9765015,36.86758,-5.554718,-20.92747,3.738632,0.3757935,0.657289,-0.2206563999999999,1.242782,-0.07671136,0.02114478,0.6977871999999999,-0.04789817,3.77417,-0.8091049,33.75
2,-0.07550049,0.1865692,0.9795227,1.0,-0.06211853,0.1746674,0.9826508,-29.85905,-6.138351,-19.42276,3.751038,0.4451795,0.663909,1.0,-0.0872345,0.196991,0.9765015,36.86758,-5.554718,-20.92747,3.738632,0.3757935,0.657289,-0.2206563999999999,1.242782,-0.07671136,0.02114478,0.6977871999999999,-0.04789817,3.77417,-0.8091049,33.75
2,-0.07550049,0.1865692,0.9795227,1.0,-0.06211853,0.1746674,0.9826508,-29.85905,-6.138351,-19.42276,3.751038,0.4451795,0.663909,1.0,-0.0872345,0.196991,0.9765015,36.86758,-5.554718,-20.92747,3.738632,0.3757935,0.657289,-0.2206563999999999,1.242782,-0.07671136,0.02114478,0.6977871999999999,-0.04789817,3.77417,-0.8091049,33.75
2,-0.07202148,0.1691437,0.9829407,1.0,-0.06152344,0.1632843,0.9846497,-29.85866,-6.193771,-19.36604,3.761032,0.4450601999999999,0.6668851,1.0,-0.07998657,0.173584,0.9815521,36.87773,-5.579483,-20.92104,3.790039,0.3741747,0.6618516,-0.2280035,1.245055,-0.0769664,0.01673977,0.6990328,-0.04333217,3.77417,-0.8091049,33.75
2,-0.07202148,0.1691437,0.9829407,1.0,-0.06152344,0.1632843,0.9846497,-29.85866,-6.193771,-19.36604,3.761032,0.4450601999999999,0.6668851,1.0,-0.07998657,0.173584,0.9815521,36.87773,-5.579483,-20.92104,3.790039,0.3741747,0.6618516,-0.2280035,1.245055,-0.0769664,0.01673977,0.6990328,-0.04333217,3.77417,-0.8091049,33.75
2,-0.07202148,0.1691437,0.9829407,1.0,-0.06152344,0.1632843,0.9846497,-29.85866,-6.193771,-19.36604,3.761032,0.4450601999999999,0.6668851,1.0,-0.07998657,0.173584,0.9815521,36.87773,-5.579483,-20.92104,3.790039,0.3741747,0.6618516,-0.2280035,1.245055,-0.0769664,0.01673977,0.6990328,-0.04333217,3.77417,-0.8091049,33.75
2,-0.07189941,0.1478729,0.9863739,1.0,-0.05950928,0.168396,0.9839171999999998,-29.84431,-6.411163,-19.19331,3.792267,0.4443095,0.6712236,1.0,-0.07527161,0.1422424,0.9869537,36.8815,-5.583664,-20.92787,3.843933,0.373159,0.6671795,-0.2351078999999999,1.247016,-0.07702005,0.01113168,0.7004819999999999,-0.03793938,3.77417,-0.8091049,33.75
2,-0.07189941,0.1478729,0.9863739,1.0,-0.05950928,0.168396,0.9839171999999998,-29.84431,-6.411163,-19.19331,3.792267,0.4443095,0.6712236,1.0,-0.07527161,0.1422424,0.9869537,36.8815,-5.583664,-20.92787,3.843933,0.373159,0.6671795,-0.2351078999999999,1.247016,-0.07702005,0.01113168,0.7004819999999999,-0.03793938,3.77417,-0.8091049,33.75
2,-0.07189941,0.1478729,0.9863739,1.0,-0.05950928,0.168396,0.9839171999999998,-29.84431,-6.411163,-19.19331,3.792267,0.4443095,0.6712236,1.0,-0.07527161,0.1422424,0.9869537,36.8815,-5.583664,-20.92787,3.843933,0.373159,0.6671795,-0.2351078999999999,1.247016,-0.07702005,0.01113168,0.7004819999999999,-0.03793938,3.77417,-0.8091049,33.75
2,-0.07102966,0.1525573999999999,0.985733,1.0,-0.06289673,0.1596527,0.9851532,-29.82129,-6.436127,-19.14102,3.793533,0.4441205,0.6728685000000001,1.0,-0.07411194,0.1498566,0.9859161,36.89206,-5.598526000000001,-21.20715,3.843689,0.3723999,0.6692339,-0.2419516,1.249182,-0.07689205,0.004668691,0.7017456999999999,-0.03200367,3.749824,-0.8091049,33.75
2,-0.07102966,0.1525573999999999,0.985733,1.0,-0.06289673,0.1596527,0.9851532,-29.82129,-6.436127,-19.14102,3.793533,0.4441205,0.6728685000000001,1.0,-0.07411194,0.1498566,0.9859161,36.89206,-5.598526000000001,-21.20715,3.843689,0.3723999,0.6692339,-0.2419516,1.249182,-0.07689205,0.004668691,0.7017456999999999,-0.03200367,3.749824,-0.8091049,33.75
2,-0.07102966,0.1525573999999999,0.985733,1.0,-0.06289673,0.1596527,0.9851532,-29.82129,-6.436127,-19.14102,3.793533,0.4441205,0.6728685000000001,1.0,-0.07411194,0.1498566,0.9859161,36.89206,-5.598526000000001,-21.20715,3.843689,0.3723999,0.6692339,-0.2419516,1.249182,-0.07689205,0.004668691,0.7017456999999999,-0.03200367,3.749824,-0.8091049,33.75
2,-0.05754089,0.1347197999999999,0.9891968,1.0,-0.05545044,0.1347197999999999,0.9893188,-29.809890000000003,-6.453125,-19.14102,3.915039,0.4425174,0.6774241999999999,1.0,-0.07113647,0.1346892999999999,0.988327,36.92628,-5.66214,-21.20715,3.912598000000001,0.3706652,0.6738803000000001,-0.2532218,1.253022,-0.07716256,-0.00590592,0.7042133,-0.02061263,3.749824,-54.44313,33.75
2,-0.05754089,0.1347197999999999,0.9891968,1.0,-0.05545044,0.1347197999999999,0.9893188,-29.809890000000003,-6.453125,-19.14102,3.915039,0.4425174,0.6774241999999999,1.0,-0.07113647,0.1346892999999999,0.988327,36.92628,-5.66214,-21.20715,3.912598000000001,0.3706652,0.6738803000000001,-0.2532218,1.253022,-0.07716256,-0.00590592,0.7042133,-0.02061263,3.749824,-54.44313,33.75
2,-0.05754089,0.1347197999999999,0.9891968,1.0,-0.05545044,0.1347197999999999,0.9893188,-29.809890000000003,-6.453125,-19.14102,3.915039,0.4425174,0.6774241999999999,1.0,-0.07113647,0.1346892999999999,0.988327,36.92628,-5.66214,-21.20715,3.912598000000001,0.3706652,0.6738803000000001,-0.2532218,1.253022,-0.07716256,-0.00590592,0.7042133,-0.02061263,3.749824,-54.44313,33.75
2,-0.06588745,0.1243134,0.9900513,1.0,-0.054245,0.122406,0.9909821,-29.795790000000004,-6.4568330000000005,-19.16066,3.945999,0.4418491,0.6797137,1.0,-0.07617188,0.1259918,0.98909,36.95963,-5.718414,-21.0799,3.952637,0.3704567,0.6759058000000001,-0.2532218,1.253022,-0.07716256,-0.00590592,0.7042133,-0.02061263,3.749824,-54.44313,33.75
2,-0.06588745,0.1243134,0.9900513,1.0,-0.054245,0.122406,0.9909821,-29.795790000000004,-6.4568330000000005,-19.16066,3.945999,0.4418491,0.6797137,1.0,-0.07617188,0.1259918,0.98909,36.95963,-5.718414,-21.0799,3.952637,0.3704567,0.6759058000000001,-0.2532218,1.253022,-0.07716256,-0.00590592,0.7042133,-0.02061263,3.749824,-54.44313,33.75
2,-0.06588745,0.1243134,0.9900513,1.0,-0.054245,0.122406,0.9909821,-29.795790000000004,-6.4568330000000005,-19.16066,3.945999,0.4418491,0.6797137,1.0,-0.07617188,0.1259918,0.98909,36.95963,-5.718414,-21.0799,3.952637,0.3704567,0.6759058000000001,-0.2532218,1.253022,-0.07716256,-0.00590592,0.7042133,-0.02061263,3.749824,-54.44313,33.75
2,-0.05055237,0.1004028,0.9936523000000002,1.0,-0.04016113,0.1005248999999999,0.9941101,-29.78787,-6.493729,-19.19933,3.968002,0.4393179,0.6846964,1.0,-0.08247375,0.09996033,0.9915619,37.12921,-5.996429,-20.90176,4.173369999999999,0.3658374,0.6876523,-0.2629000999999999,1.2567959999999998,-0.07735783,-0.01411945,0.7067032,-0.01077629,3.749824,-54.44313,33.75
2,-0.05055237,0.1004028,0.9936523000000002,1.0,-0.04016113,0.1005248999999999,0.9941101,-29.78787,-6.493729,-19.19933,3.968002,0.4393179,0.6846964,1.0,-0.08247375,0.09996033,0.9915619,37.12921,-5.996429,-20.90176,4.173369999999999,0.3658374,0.6876523,-0.2629000999999999,1.2567959999999998,-0.07735783,-0.01411945,0.7067032,-0.01077629,3.749824,-54.44313,33.75
2,-0.05055237,0.1004028,0.9936523000000002,1.0,-0.04016113,0.1005248999999999,0.9941101,-29.78787,-6.493729,-19.19933,3.968002,0.4393179,0.6846964,1.0,-0.08247375,0.09996033,0.9915619,37.12921,-5.996429,-20.90176,4.173369999999999,0.3658374,0.6876523,-0.2629000999999999,1.2567959999999998,-0.07735783,-0.01411945,0.7067032,-0.01077629,3.749824,-54.44313,33.75
2,-0.05331421,0.1035003999999999,0.9931946,1.0,-0.04032898,0.09819031,0.994339,-29.78233,-6.498322,-19.19933,3.974121,0.4391645,0.6852174,1.0,-0.095047,0.1204681,0.9881439,37.21169,-6.124817,-20.857570000000003,4.19751,0.3652795,0.6880844,-0.2629000999999999,1.2567959999999998,-0.07735783,-0.01411945,0.7067032,-0.01077629,3.749824,-54.44313,33.75
2,-0.05331421,0.1035003999999999,0.9931946,1.0,-0.04032898,0.09819031,0.994339,-29.78233,-6.498322,-19.19933,3.974121,0.4391645,0.6852174,1.0,-0.095047,0.1204681,0.9881439,37.21169,-6.124817,-20.857570000000003,4.19751,0.3652795,0.6880844,-0.2629000999999999,1.2567959999999998,-0.07735783,-0.01411945,0.7067032,-0.01077629,3.749824,-54.44313,33.75
2,-0.05331421,0.1035003999999999,0.9931946,1.0,-0.04032898,0.09819031,0.994339,-29.78233,-6.498322,-19.19933,3.974121,0.4391645,0.6852174,1.0,-0.095047,0.1204681,0.9881439,37.21169,-6.124817,-20.857570000000003,4.19751,0.3652795,0.6880844,-0.2629000999999999,1.2567959999999998,-0.07735783,-0.01411945,0.7067032,-0.01077629,3.749824,-54.44313,33.75
2,-0.0851593,0.1053313999999999,0.9907684,1.0,-0.03677368,0.08097839,0.9960327,-29.76216,-6.762741,-18.6673,4.013962,0.4380859,0.6908877,1.0,-0.0944518999999999,0.1099854,0.9894257,37.244690000000006,-6.183212,-20.70601,4.20166,0.3642106,0.69011,-0.2705735999999999,1.258131,-0.07674101,-0.008017241,0.7076185,-0.01405479,3.749824,-54.44313,33.75
2,-0.0851593,0.1053313999999999,0.9907684,1.0,-0.03677368,0.08097839,0.9960327,-29.76216,-6.762741,-18.6673,4.013962,0.4380859,0.6908877,1.0,-0.0944518999999999,0.1099854,0.9894257,37.244690000000006,-6.183212,-20.70601,4.20166,0.3642106,0.69011,-0.2705735999999999,1.258131,-0.07674101,-0.008017241,0.7076185,-0.01405479,3.749824,-54.44313,33.75
2,-0.0851593,0.1053313999999999,0.9907684,1.0,-0.03677368,0.08097839,0.9960327,-29.76216,-6.762741,-18.6673,4.013962,0.4380859,0.6908877,1.0,-0.0944518999999999,0.1099854,0.9894257,37.244690000000006,-6.183212,-20.70601,4.20166,0.3642106,0.69011,-0.2705735999999999,1.258131,-0.07674101,-0.008017241,0.7076185,-0.01405479,3.749824,-54.44313,33.75
2,-0.08874512,0.1039581,0.9906006,1.0,-0.0252533,0.04522705,0.998642,-29.76208,-6.771178999999999,-18.65843,4.025253,0.4362304,0.6967,1.0,-0.08895874,0.1041565,0.9905701,37.22867,-6.202483999999999,-20.67995,4.197327,0.3638374,0.6913743,-0.2705735999999999,1.258131,-0.07674101,-0.008017241,0.7076185,-0.01405479,3.749824,-54.44313,33.75
2,-0.08874512,0.1039581,0.9906006,1.0,-0.0252533,0.04522705,0.998642,-29.76208,-6.771178999999999,-18.65843,4.025253,0.4362304,0.6967,1.0,-0.08895874,0.1041565,0.9905701,37.22867,-6.202483999999999,-20.67995,4.197327,0.3638374,0.6913743,-0.2705735999999999,1.258131,-0.07674101,-0.008017241,0.7076185,-0.01405479,3.749824,-54.44313,33.75
2,-0.08874512,0.1039581,0.9906006,1.0,-0.0252533,0.04522705,0.998642,-29.76208,-6.771178999999999,-18.65843,4.025253,0.4362304,0.6967,1.0,-0.08895874,0.1041565,0.9905701,37.22867,-6.202483999999999,-20.67995,4.197327,0.3638374,0.6913743,-0.2705735999999999,1.258131,-0.07674101,-0.008017241,0.7076185,-0.01405479,3.749824,-54.44313,33.75
2,-0.05439758,0.0688324,0.9961395,1.0,-0.02470398,0.03849792,0.9989471,-29.73521,-6.771178999999999,-18.66866,4.083435,0.4352849,0.6979226,1.0,-0.08883667,0.1039886,0.9906006,37.242340000000006,-6.1940610000000005,-20.6505,4.2269440000000005,0.3633942999999999,0.6908635000000001,-0.2757424,1.251121,-0.07503462,0.03024697,0.7045857,-0.04341372,3.749824,-102.3516,33.75
2,-0.05439758,0.0688324,0.9961395,1.0,-0.02470398,0.03849792,0.9989471,-29.73521,-6.771178999999999,-18.66866,4.083435,0.4352849,0.6979226,1.0,-0.08883667,0.1039886,0.9906006,37.242340000000006,-6.1940610000000005,-20.6505,4.2269440000000005,0.3633942999999999,0.6908635000000001,-0.2757424,1.251121,-0.07503462,0.03024697,0.7045857,-0.04341372,3.749824,-102.3516,33.75
2,-0.05439758,0.0688324,0.9961395,1.0,-0.02470398,0.03849792,0.9989471,-29.73521,-6.771178999999999,-18.66866,4.083435,0.4352849,0.6979226,1.0,-0.08883667,0.1039886,0.9906006,37.242340000000006,-6.1940610000000005,-20.6505,4.2269440000000005,0.3633942999999999,0.6908635000000001,-0.2757424,1.251121,-0.07503462,0.03024697,0.7045857,-0.04341372,3.749824,-102.3516,33.75
2,-0.06045532,0.09394836,0.9937286,1.0,-0.03355408,0.04930115,0.9982147,-29.67183,-6.735229,-18.94725,4.084213,0.4345988,0.6979226,1.0,-0.0670929,0.1049805,0.9922028,37.193940000000005,-5.775436,-20.87688,4.201981,0.3613844,0.6793077,-0.2772789,1.243634,-0.07381201,0.06270034,0.6998864,-0.06728242,3.749824,-102.3516,33.75
2,-0.06045532,0.09394836,0.9937286,1.0,-0.03355408,0.04930115,0.9982147,-29.67183,-6.735229,-18.94725,4.084213,0.4345988,0.6979226,1.0,-0.0670929,0.1049805,0.9922028,37.193940000000005,-5.775436,-20.87688,4.201981,0.3613844,0.6793077,-0.2772789,1.243634,-0.07381201,0.06270034,0.6998864,-0.06728242,3.749824,-102.3516,33.75
2,-0.06045532,0.09394836,0.9937286,1.0,-0.03355408,0.04930115,0.9982147,-29.67183,-6.735229,-18.94725,4.084213,0.4345988,0.6979226,1.0,-0.0670929,0.1049805,0.9922028,37.193940000000005,-5.775436,-20.87688,4.201981,0.3613844,0.6793077,-0.2772789,1.243634,-0.07381201,0.06270034,0.6998864,-0.06728242,3.749824,-102.3516,33.75
2,-0.06414795,0.1585541,0.98526,1.0,-0.02554321,0.1425934,0.9894409,-29.59441,-6.716385000000001,-18.2821,4.223999,0.4312111,0.6763442,1.0,-0.07478333,0.1629181,0.9837952,37.17177,-5.628616,-20.58539,4.215758999999999,0.3638225,0.662335,-0.2782542,1.23373,-0.07218578,0.1012046,0.6925991,-0.09769269,3.749824,-102.3516,33.75
2,-0.06414795,0.1585541,0.98526,1.0,-0.02554321,0.1425934,0.9894409,-29.59441,-6.716385000000001,-18.2821,4.223999,0.4312111,0.6763442,1.0,-0.07478333,0.1629181,0.9837952,37.17177,-5.628616,-20.58539,4.215758999999999,0.3638225,0.662335,-0.2782542,1.23373,-0.07218578,0.1012046,0.6925991,-0.09769269,3.749824,-102.3516,33.75
2,-0.06414795,0.1585541,0.98526,1.0,-0.02554321,0.1425934,0.9894409,-29.59441,-6.716385000000001,-18.2821,4.223999,0.4312111,0.6763442,1.0,-0.07478333,0.1629181,0.9837952,37.17177,-5.628616,-20.58539,4.215758999999999,0.3638225,0.662335,-0.2782542,1.23373,-0.07218578,0.1012046,0.6925991,-0.09769269,3.749824,-102.3516,33.75
2,-0.07322693,0.2262877999999999,0.9712982,1.0,-0.04981995,0.1865997,0.9811554,-29.47789,-6.123154,-18.96793,4.215363,0.4313397,0.6575472,1.0,-0.07325745,0.2263489,0.971283,37.05605,-5.164626999999999,-20.81355,4.270584,0.367534,0.6394337,-0.279263,1.222773,-0.07026073,0.1438867,0.6819903,-0.1314079,3.749824,-102.3516,33.75
2,-0.07322693,0.2262877999999999,0.9712982,1.0,-0.04981995,0.1865997,0.9811554,-29.47789,-6.123154,-18.96793,4.215363,0.4313397,0.6575472,1.0,-0.07325745,0.2263489,0.971283,37.05605,-5.164626999999999,-20.81355,4.270584,0.367534,0.6394337,-0.279263,1.222773,-0.07026073,0.1438867,0.6819903,-0.1314079,3.749824,-102.3516,33.75
2,-0.07322693,0.2262877999999999,0.9712982,1.0,-0.04981995,0.1865997,0.9811554,-29.47789,-6.123154,-18.96793,4.215363,0.4313397,0.6575472,1.0,-0.07325745,0.2263489,0.971283,37.05605,-5.164626999999999,-20.81355,4.270584,0.367534,0.6394337,-0.279263,1.222773,-0.07026073,0.1438867,0.6819903,-0.1314079,3.749824,-102.3516,33.75
2,-0.1027527,0.3327789,0.9373779,1.0,-0.07122803,0.309967,0.9480591,-29.60416,-5.270432,-19.17403,4.190643,0.4389685,0.6138123000000001,1.0,-0.1028137,0.3328094,0.9373627,36.90036,-4.152191,-21.08929,4.374283,0.37784,0.5927226999999999,-0.2798837999999999,1.211812,-0.0678646,0.1783897,0.6721548,-0.1555172,3.749824,-72.79375,33.75
2,-0.1027527,0.3327789,0.9373779,1.0,-0.07122803,0.309967,0.9480591,-29.60416,-5.270432,-19.17403,4.190643,0.4389685,0.6138123000000001,1.0,-0.1028137,0.3328094,0.9373627,36.90036,-4.152191,-21.08929,4.374283,0.37784,0.5927226999999999,-0.2798837999999999,1.211812,-0.0678646,0.1783897,0.6721548,-0.1555172,3.749824,-72.79375,33.75
2,-0.1027527,0.3327789,0.9373779,1.0,-0.07122803,0.309967,0.9480591,-29.60416,-5.270432,-19.17403,4.190643,0.4389685,0.6138123000000001,1.0,-0.1028137,0.3328094,0.9373627,36.90036,-4.152191,-21.08929,4.374283,0.37784,0.5927226999999999,-0.2798837999999999,1.211812,-0.0678646,0.1783897,0.6721548,-0.1555172,3.749824,-72.79375,33.75
2,-0.09667969,0.3469543,0.9328766,1.0,-0.08222961,0.3332825,0.9392242,-29.62683,-5.053085,-19.22769,4.0115050000000005,0.4415553,0.6036842,1.0,-0.09759521,0.3478088,0.9324646,36.87746,-3.962952,-21.13121,4.3164370000000005,0.3778071,0.5845003000000001,-0.2798837999999999,1.211812,-0.0678646,0.1783897,0.6721548,-0.1555172,3.749824,-72.79375,33.75
2,-0.09667969,0.3469543,0.9328766,1.0,-0.08222961,0.3332825,0.9392242,-29.62683,-5.053085,-19.22769,4.0115050000000005,0.4415553,0.6036842,1.0,-0.09759521,0.3478088,0.9324646,36.87746,-3.962952,-21.13121,4.3164370000000005,0.3778071,0.5845003000000001,-0.2798837999999999,1.211812,-0.0678646,0.1783897,0.6721548,-0.1555172,3.749824,-72.79375,33.75
2,-0.09667969,0.3469543,0.9328766,1.0,-0.08222961,0.3332825,0.9392242,-29.62683,-5.053085,-19.22769,4.0115050000000005,0.4415553,0.6036842,1.0,-0.09759521,0.3478088,0.9324646,36.87746,-3.962952,-21.13121,4.3164370000000005,0.3778071,0.5845003000000001,-0.2798837999999999,1.211812,-0.0678646,0.1783897,0.6721548,-0.1555172,3.749824,-72.79375,33.75
2,-0.08230591,0.1880035,0.9786987,1.0,-0.02941895,0.180191,0.9831848,-29.13884,-5.859573,-19.56076,4.31871,0.4171571,0.6561607,1.0,-0.08995056,0.1890869,0.977829,36.95515,-4.795349,-20.89841,4.37413,0.3734441,0.6345333000000001,-0.2806659,1.201743,-0.0651876,0.2069465,0.6604533,-0.1791019,3.749824,-72.79375,33.75
2,-0.08230591,0.1880035,0.9786987,1.0,-0.02941895,0.180191,0.9831848,-29.13884,-5.859573,-19.56076,4.31871,0.4171571,0.6561607,1.0,-0.08995056,0.1890869,0.977829,36.95515,-4.795349,-20.89841,4.37413,0.3734441,0.6345333000000001,-0.2806659,1.201743,-0.0651876,0.2069465,0.6604533,-0.1791019,3.749824,-72.79375,33.75
2,-0.08230591,0.1880035,0.9786987,1.0,-0.02941895,0.180191,0.9831848,-29.13884,-5.859573,-19.56076,4.31871,0.4171571,0.6561607,1.0,-0.08995056,0.1890869,0.977829,36.95515,-4.795349,-20.89841,4.37413,0.3734441,0.6345333000000001,-0.2806659,1.201743,-0.0651876,0.2069465,0.6604533,-0.1791019,3.749824,-72.79375,33.75
2,-0.05949402,0.03927612,0.9974518,1.0,-0.04069519,0.06054688,0.9973297,-28.74095,-6.5499730000000005,-19.68008,4.238281,0.4059920999999999,0.6979069,1.0,-0.05953979,0.03923035,0.9974518,36.98572,-5.311584,-21.18886,4.378952,0.3665269,0.6783974,-0.280265,1.183368,-0.06016159,0.2534896,0.6370875,-0.209181,3.749824,-72.79375,33.75
2,-0.05949402,0.03927612,0.9974518,1.0,-0.04069519,0.06054688,0.9973297,-28.74095,-6.5499730000000005,-19.68008,4.238281,0.4059920999999999,0.6979069,1.0,-0.05953979,0.03923035,0.9974518,36.98572,-5.311584,-21.18886,4.378952,0.3665269,0.6783974,-0.280265,1.183368,-0.06016159,0.2534896,0.6370875,-0.209181,3.749824,-72.79375,33.75
2,-0.05949402,0.03927612,0.9974518,1.0,-0.04069519,0.06054688,0.9973297,-28.74095,-6.5499730000000005,-19.68008,4.238281,0.4059920999999999,0.6979069,1.0,-0.05953979,0.03923035,0.9974518,36.98572,-5.311584,-21.18886,4.378952,0.3665269,0.6783974,-0.280265,1.183368,-0.06016159,0.2534896,0.6370875,-0.209181,3.749824,-72.79375,33.75
2,-0.05282593,0.06088257,0.9967346,1.0,-0.0383606,0.02069092,0.9990386999999998,-28.98447,-6.207474,-19.66513,4.304169,0.4133227,0.6933876999999999,1.0,-0.05409241,0.06442261,0.9964447,37.16072,-4.902603,-21.59766,4.483292,0.3597296,0.6651333,-0.2786573,1.175531,-0.05923128,0.2764859,0.6303738,-0.2197875,3.749824,-72.79375,33.75
2,-0.05282593,0.06088257,0.9967346,1.0,-0.0383606,0.02069092,0.9990386999999998,-28.98447,-6.207474,-19.66513,4.304169,0.4133227,0.6933876999999999,1.0,-0.05409241,0.06442261,0.9964447,37.16072,-4.902603,-21.59766,4.483292,0.3597296,0.6651333,-0.2786573,1.175531,-0.05923128,0.2764859,0.6303738,-0.2197875,3.749824,-72.79375,33.75
2,-0.05282593,0.06088257,0.9967346,1.0,-0.0383606,0.02069092,0.9990386999999998,-28.98447,-6.207474,-19.66513,4.304169,0.4133227,0.6933876999999999,1.0,-0.05409241,0.06442261,0.9964447,37.16072,-4.902603,-21.59766,4.483292,0.3597296,0.6651333,-0.2786573,1.175531,-0.05923128,0.2764859,0.6303738,-0.2197875,3.749824,-72.79375,33.75
2,-0.08650208,0.1371765,0.9867554,1.0,-0.02622986,0.1052094,0.9940948,-29.10666,-5.413406,-19.91507,4.189102,0.4154102,0.6572368000000001,1.0,-0.08650208,0.1371765,0.9867554,37.33791,-4.060028,-21.20158,4.365982,0.3601980999999999,0.6219431,-0.2752107,1.168268,-0.05844992,0.2921681,0.6272052,-0.235102,3.749824,11.80203,33.75
2,-0.08650208,0.1371765,0.9867554,1.0,-0.02622986,0.1052094,0.9940948,-29.10666,-5.413406,-19.91507,4.189102,0.4154102,0.6572368000000001,1.0,-0.08650208,0.1371765,0.9867554,37.33791,-4.060028,-21.20158,4.365982,0.3601980999999999,0.6219431,-0.2752107,1.168268,-0.05844992,0.2921681,0.6272052,-0.235102,3.749824,11.80203,33.75
2,-0.08650208,0.1371765,0.9867554,1.0,-0.02622986,0.1052094,0.9940948,-29.10666,-5.413406,-19.91507,4.189102,0.4154102,0.6572368000000001,1.0,-0.08650208,0.1371765,0.9867554,37.33791,-4.060028,-21.20158,4.365982,0.3601980999999999,0.6219431,-0.2752107,1.168268,-0.05844992,0.2921681,0.6272052,-0.235102,3.749824,11.80203,33.75
2,-0.09315491,0.1698303,0.9810486,1.0,-0.04173279,0.09516907,0.9945831,-29.119020000000003,-4.753662,-20.91667,4.057526,0.417887,0.6476198000000001,1.0,-0.09315491,0.1698456,0.9810486,37.37187,-3.787476,-21.11476,4.437851,0.3604792,0.6071075,-0.2732949999999999,1.159553,-0.0568355,0.3102862999999999,0.6166301,-0.2665972,3.749824,11.80203,33.75
2,-0.09315491,0.1698303,0.9810486,1.0,-0.04173279,0.09516907,0.9945831,-29.119020000000003,-4.753662,-20.91667,4.057526,0.417887,0.6476198000000001,1.0,-0.09315491,0.1698456,0.9810486,37.37187,-3.787476,-21.11476,4.437851,0.3604792,0.6071075,-0.2732949999999999,1.159553,-0.0568355,0.3102862999999999,0.6166301,-0.2665972,3.749824,11.80203,33.75
2,-0.09315491,0.1698303,0.9810486,1.0,-0.04173279,0.09516907,0.9945831,-29.119020000000003,-4.753662,-20.91667,4.057526,0.417887,0.6476198000000001,1.0,-0.09315491,0.1698456,0.9810486,37.37187,-3.787476,-21.11476,4.437851,0.3604792,0.6071075,-0.2732949999999999,1.159553,-0.0568355,0.3102862999999999,0.6166301,-0.2665972,3.749824,11.80203,33.75
2,-1.0,-1.0,-1.0,0.8381563,0.0,0.0,0.0,-29.50052,-4.602448000000001,-20.72258,-1.0,0.4208742,0.7273464,0.7924432,0.0,0.0,0.0,37.04251,-1.78978,-29.58553,-1.0,0.3786434,0.6477944,-0.2692789,1.152913,-0.05539158,0.3165768,0.6098905,-0.2755425999999999,3.749824,11.80203,33.75
2,-1.0,-1.0,-1.0,0.8381563,0.0,0.0,0.0,-29.50052,-4.602448000000001,-20.72258,-1.0,0.4208742,0.7273464,0.7924432,0.0,0.0,0.0,37.04251,-1.78978,-29.58553,-1.0,0.3786434,0.6477944,-0.2692789,1.152913,-0.05539158,0.3165768,0.6098905,-0.2755425999999999,3.749824,11.80203,33.75
2,-1.0,-1.0,-1.0,0.8381563,0.0,0.0,0.0,-29.50052,-4.602448000000001,-20.72258,-1.0,0.4208742,0.7273464,0.7924432,0.0,0.0,0.0,37.04251,-1.78978,-29.58553,-1.0,0.3786434,0.6477944,-0.2692789,1.152913,-0.05539158,0.3165768,0.6098905,-0.2755425999999999,3.749824,11.80203,33.75
2,-1.0,-1.0,-1.0,0.06750569,0.0,0.0,0.0,-29.50052,-4.602448000000001,-20.72258,-1.0,-1.0,-1.0,0.1386406,0.0,0.0,0.0,36.45415,-5.883987,-21.2179,-1.0,-1.0,-1.0,-0.2630966,1.147428,-0.05396593,0.3185165,0.6030745,-0.2813948,3.749824,11.80203,33.75
2,-1.0,-1.0,-1.0,0.06750569,0.0,0.0,0.0,-29.50052,-4.602448000000001,-20.72258,-1.0,-1.0,-1.0,0.1386406,0.0,0.0,0.0,36.45415,-5.883987,-21.2179,-1.0,-1.0,-1.0,-0.2630966,1.147428,-0.05396593,0.3185165,0.6030745,-0.2813948,3.749824,11.80203,33.75
2,-1.0,-1.0,-1.0,0.06750569,0.0,0.0,0.0,-29.50052,-4.602448000000001,-20.72258,-1.0,-1.0,-1.0,0.1386406,0.0,0.0,0.0,36.45415,-5.883987,-21.2179,-1.0,-1.0,-1.0,-0.2630966,1.147428,-0.05396593,0.3185165,0.6030745,-0.2813948,3.749824,11.80203,33.75
2,-1.0,-1.0,-1.0,0.09743282,0.0,0.0,0.0,-29.45007,-8.656616,-20.47696,-1.0,0.4342827,0.855369,0.005432902,0.0,0.0,0.0,36.67088,-6.791214,-21.34961,-1.0,0.3940442999999999,0.7732865,-0.2584248,1.142323,-0.05231333,0.3261787,0.5947643,-0.2941674,3.749824,11.80203,33.75
2,-1.0,-1.0,-1.0,0.09743282,0.0,0.0,0.0,-29.45007,-8.656616,-20.47696,-1.0,0.4342827,0.855369,0.005432902,0.0,0.0,0.0,36.67088,-6.791214,-21.34961,-1.0,0.3940442999999999,0.7732865,-0.2584248,1.142323,-0.05231333,0.3261787,0.5947643,-0.2941674,3.749824,11.80203,33.75
2,-1.0,-1.0,-1.0,0.09743282,0.0,0.0,0.0,-29.45007,-8.656616,-20.47696,-1.0,0.4342827,0.855369,0.005432902,0.0,0.0,0.0,36.67088,-6.791214,-21.34961,-1.0,0.3940442999999999,0.7732865,-0.2584248,1.142323,-0.05231333,0.3261787,0.5947643,-0.2941674,3.749824,11.80203,33.75
2,-1.0,-1.0,-1.0,0.1799832,0.0,0.0,0.0,-29.45007,-8.656616,-20.47696,-1.0,0.4280819,0.8869071,0.3018881,0.0,0.0,0.0,36.55727,-5.769348,-20.41943,-1.0,0.3773194,0.7128386,-0.2528462,1.138149,-0.05104002,0.3303415,0.5907939,-0.2992259,3.749824,137.1158,33.75
2,-1.0,-1.0,-1.0,0.1799832,0.0,0.0,0.0,-29.45007,-8.656616,-20.47696,-1.0,0.4280819,0.8869071,0.3018881,0.0,0.0,0.0,36.55727,-5.769348,-20.41943,-1.0,0.3773194,0.7128386,-0.2528462,1.138149,-0.05104002,0.3303415,0.5907939,-0.2992259,3.749824,137.1158,33.75
2,-1.0,-1.0,-1.0,0.1799832,0.0,0.0,0.0,-29.45007,-8.656616,-20.47696,-1.0,0.4280819,0.8869071,0.3018881,0.0,0.0,0.0,36.55727,-5.769348,-20.41943,-1.0,0.3773194,0.7128386,-0.2528462,1.138149,-0.05104002,0.3303415,0.5907939,-0.2992259,3.749824,137.1158,33.75
2,-1.0,-1.0,-1.0,0.1799832,0.0,0.0,0.0,-29.45007,-8.656616,-20.47696,-1.0,0.4280819,0.8869071,0.3018881,0.0,0.0,0.0,36.55727,-5.769348,-20.41943,-1.0,0.3773194,0.7128386,-0.2470465,1.133938,-0.05001903,0.3370987,0.586516,-0.3039413,3.749824,137.1158,33.75
2,-1.0,-1.0,-1.0,0.1799832,0.0,0.0,0.0,-29.45007,-8.656616,-20.47696,-1.0,0.4280819,0.8869071,0.3018881,0.0,0.0,0.0,36.55727,-5.769348,-20.41943,-1.0,0.3773194,0.7128386,-0.2470465,1.133938,-0.05001903,0.3370987,0.586516,-0.3039413,3.749824,137.1158,33.75
2,-1.0,-1.0,-1.0,0.1799832,0.0,0.0,0.0,-29.45007,-8.656616,-20.47696,-1.0,0.4280819,0.8869071,0.3018881,0.0,0.0,0.0,36.55727,-5.769348,-20.41943,-1.0,0.3773194,0.7128386,-0.2470465,1.133938,-0.05001903,0.3370987,0.586516,-0.3039413,3.749824,137.1158,33.75
2,-0.0629425,-0.09886169,0.993103,1.0,-0.06292725,-0.09887695,0.993103,-29.52177,-7.609756,-18.72383,4.431549,0.4340464,0.7474681,1.0,-0.08581543,-0.07299805,0.9936218,36.67847,-6.423325,-20.76611,4.545639,0.3802660999999999,0.729223,-0.2422311999999999,1.130515,-0.04954633,0.3464237,0.5814286,-0.3129245,3.749824,137.1158,33.75
2,-0.0629425,-0.09886169,0.993103,1.0,-0.06292725,-0.09887695,0.993103,-29.52177,-7.609756,-18.72383,4.431549,0.4340464,0.7474681,1.0,-0.08581543,-0.07299805,0.9936218,36.67847,-6.423325,-20.76611,4.545639,0.3802660999999999,0.729223,-0.2422311999999999,1.130515,-0.04954633,0.3464237,0.5814286,-0.3129245,3.749824,137.1158,33.75
2,-0.0629425,-0.09886169,0.993103,1.0,-0.06292725,-0.09887695,0.993103,-29.52177,-7.609756,-18.72383,4.431549,0.4340464,0.7474681,1.0,-0.08581543,-0.07299805,0.9936218,36.67847,-6.423325,-20.76611,4.545639,0.3802660999999999,0.729223,-0.2422311999999999,1.130515,-0.04954633,0.3464237,0.5814286,-0.3129245,3.749824,137.1158,33.75
2,-0.0900116,-0.06658936,0.9936981,1.0,-0.06486511,-0.08050537,0.9946289,-29.5997,-7.545441,-19.04012,4.457962,0.4367218,0.7458435999999999,1.0,-0.09162903,-0.06568909,0.9936218,36.680620000000005,-6.5891720000000005,-20.22659,4.630234,0.3815497,0.7277326,-0.2354822999999999,1.128261,-0.04875457,0.3482289,0.5806271,-0.3156224,3.749824,137.1158,33.75
2,-0.0900116,-0.06658936,0.9936981,1.0,-0.06486511,-0.08050537,0.9946289,-29.5997,-7.545441,-19.04012,4.457962,0.4367218,0.7458435999999999,1.0,-0.09162903,-0.06568909,0.9936218,36.680620000000005,-6.5891720000000005,-20.22659,4.630234,0.3815497,0.7277326,-0.2354822999999999,1.128261,-0.04875457,0.3482289,0.5806271,-0.3156224,3.749824,137.1158,33.75
2,-0.0900116,-0.06658936,0.9936981,1.0,-0.06486511,-0.08050537,0.9946289,-29.5997,-7.545441,-19.04012,4.457962,0.4367218,0.7458435999999999,1.0,-0.09162903,-0.06568909,0.9936218,36.680620000000005,-6.5891720000000005,-20.22659,4.630234,0.3815497,0.7277326,-0.2354822999999999,1.128261,-0.04875457,0.3482289,0.5806271,-0.3156224,3.749824,137.1158,33.75
3,-0.06422424,-0.06729126,0.9956511999999998,1.0,-0.0640564,-0.06733704,0.9956665,-29.65977,-7.368149000000001,-19.06665,4.541153,0.4385165,0.7384531,1.0,-0.0894165,-0.06065369,0.9941406,36.65999,-6.399139,-20.10057,4.546997,0.3821826,0.7191797,-0.2280009,1.125753,-0.04817051,0.3489674,0.5804064999999999,-0.3171724999999999,3.749824,137.1158,33.75
3,-0.06422424,-0.06729126,0.9956511999999998,1.0,-0.0640564,-0.06733704,0.9956665,-29.65977,-7.368149000000001,-19.06665,4.541153,0.4385165,0.7384531,1.0,-0.0894165,-0.06065369,0.9941406,36.65999,-6.399139,-20.10057,4.546997,0.3821826,0.7191797,-0.2280009,1.125753,-0.04817051,0.3489674,0.5804064999999999,-0.3171724999999999,3.749824,137.1158,33.75
3,-0.06422424,-0.06729126,0.9956511999999998,1.0,-0.0640564,-0.06733704,0.9956665,-29.65977,-7.368149000000001,-19.06665,4.541153,0.4385165,0.7384531,1.0,-0.0894165,-0.06065369,0.9941406,36.65999,-6.399139,-20.10057,4.546997,0.3821826,0.7191797,-0.2280009,1.125753,-0.04817051,0.3489674,0.5804064999999999,-0.3171724999999999,3.749824,137.1158,33.75
3,-0.08317566,-0.05819702,0.9948273,1.0,-0.05941772,-0.07563782,0.9953613,-29.716140000000003,-7.374115,-18.72295,4.568115,0.4396824,0.7363191,1.0,-0.09082031,-0.05255127,0.9944763,36.68033,-6.46199,-20.02528,4.63324,0.3817738,0.7191797,-0.2205239999999999,1.123932,-0.04761988,0.3474804,0.5824655,-0.3174844,3.749824,137.1158,33.75
3,-0.08317566,-0.05819702,0.9948273,1.0,-0.05941772,-0.07563782,0.9953613,-29.716140000000003,-7.374115,-18.72295,4.568115,0.4396824,0.7363191,1.0,-0.09082031,-0.05255127,0.9944763,36.68033,-6.46199,-20.02528,4.63324,0.3817738,0.7191797,-0.2205239999999999,1.123932,-0.04761988,0.3474804,0.5824655,-0.3174844,3.749824,137.1158,33.75
3,-0.08317566,-0.05819702,0.9948273,1.0,-0.05941772,-0.07563782,0.9953613,-29.716140000000003,-7.374115,-18.72295,4.568115,0.4396824,0.7363191,1.0,-0.09082031,-0.05255127,0.9944763,36.68033,-6.46199,-20.02528,4.63324,0.3817738,0.7191797,-0.2205239999999999,1.123932,-0.04761988,0.3474804,0.5824655,-0.3174844,3.749824,65.70285,33.75
3,-0.0904541,-0.05609131,0.9943085,1.0,-0.06030273,-0.07192993,0.995575,-29.71895,-7.400345,-18.70447,4.581909,0.4399132,0.7363579,1.0,-0.09150696,-0.05554199,0.9942474,36.69197,-6.526382,-19.90773,4.665268,0.3815691,0.720535,-0.2120409999999999,1.123441,-0.04744956,0.3411714,0.5879611,-0.3135098,3.749824,65.70285,33.75
3,-0.0904541,-0.05609131,0.9943085,1.0,-0.06030273,-0.07192993,0.995575,-29.71895,-7.400345,-18.70447,4.581909,0.4399132,0.7363579,1.0,-0.09150696,-0.05554199,0.9942474,36.69197,-6.526382,-19.90773,4.665268,0.3815691,0.720535,-0.2120409999999999,1.123441,-0.04744956,0.3411714,0.5879611,-0.3135098,3.749824,65.70285,33.75
3,-0.0904541,-0.05609131,0.9943085,1.0,-0.06030273,-0.07192993,0.995575,-29.71895,-7.400345,-18.70447,4.581909,0.4399132,0.7363579,1.0,-0.09150696,-0.05554199,0.9942474,36.69197,-6.526382,-19.90773,4.665268,0.3815691,0.720535,-0.2120409999999999,1.123441,-0.04744956,0.3411714,0.5879611,-0.3135098,3.749824,65.70285,33.75
3,-0.1335297,0.2190857,0.9665222,1.0,-0.1338348,0.2072906,0.9690704,-30.01736,-5.076096,-19.44981,4.655884,0.4615785,0.6271814,1.0,-0.1327208999999999,0.2465973,0.9599761999999998,36.19377,-4.065994,-20.7363,4.775879,0.4055859,0.6011545,-0.2025017,1.124322,-0.04765144,0.3297922,0.5973305999999999,-0.3048438,3.749824,65.70285,33.75
3,-0.1335297,0.2190857,0.9665222,1.0,-0.1338348,0.2072906,0.9690704,-30.01736,-5.076096,-19.44981,4.655884,0.4615785,0.6271814,1.0,-0.1327208999999999,0.2465973,0.9599761999999998,36.19377,-4.065994,-20.7363,4.775879,0.4055859,0.6011545,-0.2025017,1.124322,-0.04765144,0.3297922,0.5973305999999999,-0.3048438,3.749824,65.70285,33.75
3,-0.1335297,0.2190857,0.9665222,1.0,-0.1338348,0.2072906,0.9690704,-30.01736,-5.076096,-19.44981,4.655884,0.4615785,0.6271814,1.0,-0.1327208999999999,0.2465973,0.9599761999999998,36.19377,-4.065994,-20.7363,4.775879,0.4055859,0.6011545,-0.2025017,1.124322,-0.04765144,0.3297922,0.5973305999999999,-0.3048438,3.749824,65.70285,33.75
3,-0.1626434,0.2993011,0.9401855,1.0,-0.1628571,0.2973022,0.9407806,-30.30396,-4.754044,-19.63222,4.531998000000001,0.475655,0.6049346,1.0,-0.1597137,0.3271637,0.931366,35.90833,-3.817856,-20.9165,4.782272,0.4195937,0.5823289,-0.1940652,1.125748,-0.04857576,0.3189737,0.6066822,-0.2951829,3.749824,65.70285,33.75
3,-0.1626434,0.2993011,0.9401855,1.0,-0.1628571,0.2973022,0.9407806,-30.30396,-4.754044,-19.63222,4.531998000000001,0.475655,0.6049346,1.0,-0.1597137,0.3271637,0.931366,35.90833,-3.817856,-20.9165,4.782272,0.4195937,0.5823289,-0.1940652,1.125748,-0.04857576,0.3189737,0.6066822,-0.2951829,3.749824,65.70285,33.75
3,-0.1626434,0.2993011,0.9401855,1.0,-0.1628571,0.2973022,0.9407806,-30.30396,-4.754044,-19.63222,4.531998000000001,0.475655,0.6049346,1.0,-0.1597137,0.3271637,0.931366,35.90833,-3.817856,-20.9165,4.782272,0.4195937,0.5823289,-0.1940652,1.125748,-0.04857576,0.3189737,0.6066822,-0.2951829,3.749824,65.70285,33.75
3,-0.1427002,0.3098907,0.9399872,1.0,-0.1521606,0.2816772,0.9473572,-30.35631,-5.218491,-19.60309,4.539413,0.4754628999999999,0.6216378,1.0,-0.1397552,0.3185119999999999,0.9375458,35.98245,-4.516205,-20.84738,4.727356,0.4136975,0.6053795999999999,-0.1871184,1.126796,-0.04941702,0.3098422,0.6142305,-0.2848348,3.749824,65.70285,33.75
3,-0.1427002,0.3098907,0.9399872,1.0,-0.1521606,0.2816772,0.9473572,-30.35631,-5.218491,-19.60309,4.539413,0.4754628999999999,0.6216378,1.0,-0.1397552,0.3185119999999999,0.9375458,35.98245,-4.516205,-20.84738,4.727356,0.4136975,0.6053795999999999,-0.1871184,1.126796,-0.04941702,0.3098422,0.6142305,-0.2848348,3.749824,65.70285,33.75
3,-0.1427002,0.3098907,0.9399872,1.0,-0.1521606,0.2816772,0.9473572,-30.35631,-5.218491,-19.60309,4.539413,0.4754628999999999,0.6216378,1.0,-0.1397552,0.3185119999999999,0.9375458,35.98245,-4.516205,-20.84738,4.727356,0.4136975,0.6053795999999999,-0.1871184,1.126796,-0.04941702,0.3098422,0.6142305,-0.2848348,3.749824,65.70285,33.75
3,-0.1413269,0.2470093,0.9586487,1.0,-0.1431122,0.2321625,0.9620819,-30.280590000000004,-5.566086,-19.53656,4.45903,0.4714352,0.6394331,1.0,-0.1378632,0.2749939,0.9514923,36.17195,-4.899216,-20.79897,4.741257,0.4069720999999999,0.6241434,-0.1799973,1.128818,-0.0508098,0.3004866,0.6213185999999999,-0.2735690999999999,3.749824,-5.923294,33.75
3,-0.1413269,0.2470093,0.9586487,1.0,-0.1431122,0.2321625,0.9620819,-30.280590000000004,-5.566086,-19.53656,4.45903,0.4714352,0.6394331,1.0,-0.1378632,0.2749939,0.9514923,36.17195,-4.899216,-20.79897,4.741257,0.4069720999999999,0.6241434,-0.1799973,1.128818,-0.0508098,0.3004866,0.6213185999999999,-0.2735690999999999,3.749824,-5.923294,33.75
3,-0.1413269,0.2470093,0.9586487,1.0,-0.1431122,0.2321625,0.9620819,-30.280590000000004,-5.566086,-19.53656,4.45903,0.4714352,0.6394331,1.0,-0.1378632,0.2749939,0.9514923,36.17195,-4.899216,-20.79897,4.741257,0.4069720999999999,0.6241434,-0.1799973,1.128818,-0.0508098,0.3004866,0.6213185999999999,-0.2735690999999999,3.749824,-5.923294,33.75
3,-0.132843,0.3285217,0.9350891,1.0,-0.1426239,0.3077393,0.9407196,-30.196620000000003,-5.123901,-19.61586,4.636185,0.4689582999999999,0.6147984999999999,1.0,-0.1179351999999999,0.3595886,0.9256134,36.25648,-4.257843,-20.89005,4.856781,0.4013479,0.5909386,-0.1730087,1.131857,-0.0516813999999999,0.2877191,0.6292441999999999,-0.2621748,3.749824,-5.923294,33.75
3,-0.132843,0.3285217,0.9350891,1.0,-0.1426239,0.3077393,0.9407196,-30.196620000000003,-5.123901,-19.61586,4.636185,0.4689582999999999,0.6147984999999999,1.0,-0.1179351999999999,0.3595886,0.9256134,36.25648,-4.257843,-20.89005,4.856781,0.4013479,0.5909386,-0.1730087,1.131857,-0.0516813999999999,0.2877191,0.6292441999999999,-0.2621748,3.749824,-5.923294,33.75
3,-0.132843,0.3285217,0.9350891,1.0,-0.1426239,0.3077393,0.9407196,-30.196620000000003,-5.123901,-19.61586,4.636185,0.4689582999999999,0.6147984999999999,1.0,-0.1179351999999999,0.3595886,0.9256134,36.25648,-4.257843,-20.89005,4.856781,0.4013479,0.5909386,-0.1730087,1.131857,-0.0516813999999999,0.2877191,0.6292441999999999,-0.2621748,3.749824,-5.923294,33.75
3,-0.1401672,0.4263763,0.8936004999999999,1.0,-0.1529236,0.4040985,0.901825,-30.15616,-4.463181,-19.82623,4.49147,0.469872,0.5808909000000001,1.0,-0.1123198999999999,0.4733582,0.8736725000000001,36.23232,-3.557129,-21.17354,4.957016,0.4016299,0.5529683000000001,-0.1667338,1.135689,-0.05266976,0.2714455999999999,0.6395571999999999,-0.2491913,3.749824,-5.923294,33.75
3,-0.1401672,0.4263763,0.8936004999999999,1.0,-0.1529236,0.4040985,0.901825,-30.15616,-4.463181,-19.82623,4.49147,0.469872,0.5808909000000001,1.0,-0.1123198999999999,0.4733582,0.8736725000000001,36.23232,-3.557129,-21.17354,4.957016,0.4016299,0.5529683000000001,-0.1667338,1.135689,-0.05266976,0.2714455999999999,0.6395571999999999,-0.2491913,3.749824,-5.923294,33.75
3,-0.1401672,0.4263763,0.8936004999999999,1.0,-0.1529236,0.4040985,0.901825,-30.15616,-4.463181,-19.82623,4.49147,0.469872,0.5808909000000001,1.0,-0.1123198999999999,0.4733582,0.8736725000000001,36.23232,-3.557129,-21.17354,4.957016,0.4016299,0.5529683000000001,-0.1667338,1.135689,-0.05266976,0.2714455999999999,0.6395571999999999,-0.2491913,3.749824,-5.923294,33.75
3,-0.1226043999999999,0.3974457,0.9093933,1.0,-0.122879,0.379776,0.9168701,-30.0218,-4.981598,-19.69795,4.534973,0.4605366,0.5996744,1.0,-0.1221161,0.4231415,0.8977814000000001,36.54251,-4.375488,-20.97552,4.757248000000001,0.3929309,0.5852531,-0.1618523999999999,1.1391209999999998,-0.05412894,0.2593293,0.6468709,-0.2367529,3.749824,-5.923294,33.75
3,-0.1226043999999999,0.3974457,0.9093933,1.0,-0.122879,0.379776,0.9168701,-30.0218,-4.981598,-19.69795,4.534973,0.4605366,0.5996744,1.0,-0.1221161,0.4231415,0.8977814000000001,36.54251,-4.375488,-20.97552,4.757248000000001,0.3929309,0.5852531,-0.1618523999999999,1.1391209999999998,-0.05412894,0.2593293,0.6468709,-0.2367529,3.749824,-5.923294,33.75
3,-0.1226043999999999,0.3974457,0.9093933,1.0,-0.122879,0.379776,0.9168701,-30.0218,-4.981598,-19.69795,4.534973,0.4605366,0.5996744,1.0,-0.1221161,0.4231415,0.8977814000000001,36.54251,-4.375488,-20.97552,4.757248000000001,0.3929309,0.5852531,-0.1618523999999999,1.1391209999999998,-0.05412894,0.2593293,0.6468709,-0.2367529,3.749824,-5.923294,33.75
3,-0.1096039,0.3639525999999999,0.924942,1.0,-0.1052551,0.3423004,0.93367,-30.061940000000003,-5.253357,-19.63907,4.476318,0.458802,0.6133135000000001,1.0,-0.1159363,0.3955994,0.9110718,36.64719,-4.670425,-20.89749,4.747314,0.388354,0.5983453000000001,-0.1552204,1.147062,-0.05701536,0.2375400999999999,0.6558010999999999,-0.2158043999999999,3.749824,-5.923294,33.75
3,-0.1096039,0.3639525999999999,0.924942,1.0,-0.1052551,0.3423004,0.93367,-30.061940000000003,-5.253357,-19.63907,4.476318,0.458802,0.6133135000000001,1.0,-0.1159363,0.3955994,0.9110718,36.64719,-4.670425,-20.89749,4.747314,0.388354,0.5983453000000001,-0.1552204,1.147062,-0.05701536,0.2375400999999999,0.6558010999999999,-0.2158043999999999,3.749824,-5.923294,33.75
3,-0.1096039,0.3639525999999999,0.924942,1.0,-0.1052551,0.3423004,0.93367,-30.061940000000003,-5.253357,-19.63907,4.476318,0.458802,0.6133135000000001,1.0,-0.1159363,0.3955994,0.9110718,36.64719,-4.670425,-20.89749,4.747314,0.388354,0.5983453000000001,-0.1552204,1.147062,-0.05701536,0.2375400999999999,0.6558010999999999,-0.2158043999999999,3.749824,-5.923294,33.75
3,-0.1075592,0.3329163,0.9367981,1.0,-0.1102752999999999,0.3144684,0.9428253,-29.96597,-5.551880000000001,-19.57144,4.377045,0.456504,0.6262164000000001,1.0,-0.1046599999999999,0.3522339,0.9300232,36.7075,-5.036087,-20.80434,4.753158999999999,0.3843134,0.6160969000000001,-0.1534926,1.151068,-0.05824703,0.2257733999999999,0.6591703000000001,-0.2071547999999999,3.749824,-1.774994,33.75
3,-0.1075592,0.3329163,0.9367981,1.0,-0.1102752999999999,0.3144684,0.9428253,-29.96597,-5.551880000000001,-19.57144,4.377045,0.456504,0.6262164000000001,1.0,-0.1046599999999999,0.3522339,0.9300232,36.7075,-5.036087,-20.80434,4.753158999999999,0.3843134,0.6160969000000001,-0.1534926,1.151068,-0.05824703,0.2257733999999999,0.6591703000000001,-0.2071547999999999,3.749824,-1.774994,33.75
3,-0.1075592,0.3329163,0.9367981,1.0,-0.1102752999999999,0.3144684,0.9428253,-29.96597,-5.551880000000001,-19.57144,4.377045,0.456504,0.6262164000000001,1.0,-0.1046599999999999,0.3522339,0.9300232,36.7075,-5.036087,-20.80434,4.753158999999999,0.3843134,0.6160969000000001,-0.1534926,1.151068,-0.05824703,0.2257733999999999,0.6591703000000001,-0.2071547999999999,3.749824,-1.774994,33.75
3,-0.1071625,0.3113555999999999,0.9442139,1.0,-0.1057892,0.2851715,0.9526062,-29.94983,-5.712753,-19.50952,4.413574,0.4551691,0.6352416,1.0,-0.1085663,0.3396454,0.9342651,36.73007,-5.1353,-20.78374,4.669189,0.3841985,0.6209861,-0.152272,1.155699,-0.05948228,0.2130311999999999,0.6627215999999999,-0.1976484999999999,3.749824,-1.774994,33.75
3,-0.1071625,0.3113555999999999,0.9442139,1.0,-0.1057892,0.2851715,0.9526062,-29.94983,-5.712753,-19.50952,4.413574,0.4551691,0.6352416,1.0,-0.1085663,0.3396454,0.9342651,36.73007,-5.1353,-20.78374,4.669189,0.3841985,0.6209861,-0.152272,1.155699,-0.05948228,0.2130311999999999,0.6627215999999999,-0.1976484999999999,3.749824,-1.774994,33.75
3,-0.1071625,0.3113555999999999,0.9442139,1.0,-0.1057892,0.2851715,0.9526062,-29.94983,-5.712753,-19.50952,4.413574,0.4551691,0.6352416,1.0,-0.1085663,0.3396454,0.9342651,36.73007,-5.1353,-20.78374,4.669189,0.3841985,0.6209861,-0.152272,1.155699,-0.05948228,0.2130311999999999,0.6627215999999999,-0.1976484999999999,3.749824,-1.774994,33.75
3,-0.102005,0.3120117,0.9445801,1.0,-0.107254,0.2885132,0.9514313,-29.93924,-5.588486,-19.50867,4.486954,0.4550774999999999,0.6309255,1.0,-0.09738159,0.3323212,0.9381104,36.771,-4.991301999999999,-20.76765,4.618347,0.3810635,0.6172095000000001,-0.1521082999999999,1.1602709999999998,-0.06090638,0.2001087,0.6670811,-0.1872184,3.749824,-1.774994,33.75
3,-0.102005,0.3120117,0.9445801,1.0,-0.107254,0.2885132,0.9514313,-29.93924,-5.588486,-19.50867,4.486954,0.4550774999999999,0.6309255,1.0,-0.09738159,0.3323212,0.9381104,36.771,-4.991301999999999,-20.76765,4.618347,0.3810635,0.6172095000000001,-0.1521082999999999,1.1602709999999998,-0.06090638,0.2001087,0.6670811,-0.1872184,3.749824,-1.774994,33.75
3,-0.102005,0.3120117,0.9445801,1.0,-0.107254,0.2885132,0.9514313,-29.93924,-5.588486,-19.50867,4.486954,0.4550774999999999,0.6309255,1.0,-0.09738159,0.3323212,0.9381104,36.771,-4.991301999999999,-20.76765,4.618347,0.3810635,0.6172095000000001,-0.1521082999999999,1.1602709999999998,-0.06090638,0.2001087,0.6670811,-0.1872184,3.749824,-1.774994,33.75
3,-0.08682251,0.3977814,0.9133453,1.0,-0.09796143,0.3619385,0.9270325,-29.914790000000004,-5.204987,-19.65286,4.277298,0.4530829,0.6085086,1.0,-0.07675171,0.4292908,0.8998870999999999,36.76178,-4.665833,-20.925,4.675278,0.3781627999999999,0.5927941,-0.1519471,1.165591,-0.06292081,0.185392,0.6729546999999999,-0.1765086,3.749824,-1.774994,33.75
3,-0.08682251,0.3977814,0.9133453,1.0,-0.09796143,0.3619385,0.9270325,-29.914790000000004,-5.204987,-19.65286,4.277298,0.4530829,0.6085086,1.0,-0.07675171,0.4292908,0.8998870999999999,36.76178,-4.665833,-20.925,4.675278,0.3781627999999999,0.5927941,-0.1519471,1.165591,-0.06292081,0.185392,0.6729546999999999,-0.1765086,3.749824,-1.774994,33.75
3,-0.08682251,0.3977814,0.9133453,1.0,-0.09796143,0.3619385,0.9270325,-29.914790000000004,-5.204987,-19.65286,4.277298,0.4530829,0.6085086,1.0,-0.07675171,0.4292908,0.8998870999999999,36.76178,-4.665833,-20.925,4.675278,0.3781627999999999,0.5927941,-0.1519471,1.165591,-0.06292081,0.185392,0.6729546999999999,-0.1765086,3.749824,-1.774994,33.75
3,-0.08682251,0.3977814,0.9133453,1.0,-0.09796143,0.3619385,0.9270325,-29.914790000000004,-5.204987,-19.65286,4.277298,0.4530829,0.6085086,1.0,-0.07675171,0.4292908,0.8998870999999999,36.76178,-4.665833,-20.925,4.675278,0.3781627999999999,0.5927941,-0.1532924,1.17026,-0.06470081,0.1755376,0.6768881999999999,-0.1679404,3.749824,-1.774994,33.75
3,-0.08682251,0.3977814,0.9133453,1.0,-0.09796143,0.3619385,0.9270325,-29.914790000000004,-5.204987,-19.65286,4.277298,0.4530829,0.6085086,1.0,-0.07675171,0.4292908,0.8998870999999999,36.76178,-4.665833,-20.925,4.675278,0.3781627999999999,0.5927941,-0.1532924,1.17026,-0.06470081,0.1755376,0.6768881999999999,-0.1679404,3.749824,-1.774994,33.75
3,-0.08682251,0.3977814,0.9133453,1.0,-0.09796143,0.3619385,0.9270325,-29.914790000000004,-5.204987,-19.65286,4.277298,0.4530829,0.6085086,1.0,-0.07675171,0.4292908,0.8998870999999999,36.76178,-4.665833,-20.925,4.675278,0.3781627999999999,0.5927941,-0.1532924,1.17026,-0.06470081,0.1755376,0.6768881999999999,-0.1679404,3.749824,-1.774994,33.75
3,-0.1027374,0.3951111,0.9128571,1.0,-0.1028442,0.3783875,0.9199066,-30.0298,-5.146591,-19.69106,4.104843,0.4575984999999999,0.6042809,1.0,-0.1025696,0.4154358,0.9038086,36.73456,-4.569763,-20.91972,4.584625,0.3834005,0.5918183000000001,-0.1550406,1.175323,-0.06599388,0.1646986,0.6799192,-0.1583407,3.749824,-14.74229,33.75
3,-0.1027374,0.3951111,0.9128571,1.0,-0.1028442,0.3783875,0.9199066,-30.0298,-5.146591,-19.69106,4.104843,0.4575984999999999,0.6042809,1.0,-0.1025696,0.4154358,0.9038086,36.73456,-4.569763,-20.91972,4.584625,0.3834005,0.5918183000000001,-0.1550406,1.175323,-0.06599388,0.1646986,0.6799192,-0.1583407,3.749824,-14.74229,33.75
3,-0.1027374,0.3951111,0.9128571,1.0,-0.1028442,0.3783875,0.9199066,-30.0298,-5.146591,-19.69106,4.104843,0.4575984999999999,0.6042809,1.0,-0.1025696,0.4154358,0.9038086,36.73456,-4.569763,-20.91972,4.584625,0.3834005,0.5918183000000001,-0.1550406,1.175323,-0.06599388,0.1646986,0.6799192,-0.1583407,3.749824,-14.74229,33.75
3,-0.1046753,0.3902739999999999,0.9147186,1.0,-0.1043091,0.3773192999999999,0.9201813,-30.02232,-5.162735,-19.69324,4.103943,0.4575984999999999,0.6049800000000001,1.0,-0.1052398999999999,0.4113159,0.9053802,36.7545,-4.622223,-20.90811,4.607787999999999,0.3831789,0.5940886,-0.1550406,1.175323,-0.06599388,0.1646986,0.6799192,-0.1583407,3.749824,-14.74229,33.75
3,-0.1046753,0.3902739999999999,0.9147186,1.0,-0.1043091,0.3773192999999999,0.9201813,-30.02232,-5.162735,-19.69324,4.103943,0.4575984999999999,0.6049800000000001,1.0,-0.1052398999999999,0.4113159,0.9053802,36.7545,-4.622223,-20.90811,4.607787999999999,0.3831789,0.5940886,-0.1550406,1.175323,-0.06599388,0.1646986,0.6799192,-0.1583407,3.749824,-14.74229,33.75
3,-0.1046753,0.3902739999999999,0.9147186,1.0,-0.1043091,0.3773192999999999,0.9201813,-30.02232,-5.162735,-19.69324,4.103943,0.4575984999999999,0.6049800000000001,1.0,-0.1052398999999999,0.4113159,0.9053802,36.7545,-4.622223,-20.90811,4.607787999999999,0.3831789,0.5940886,-0.1550406,1.175323,-0.06599388,0.1646986,0.6799192,-0.1583407,3.749824,-14.74229,33.75
3,-0.09858704,0.3826904,0.9185944,1.0,-0.09155273,0.3689728,0.9249115,-30.0033,-5.216904,-19.66583,4.085815,0.4548856,0.6076244000000001,1.0,-0.1104126,0.4055785999999999,0.9073486,36.75705,-4.64502,-20.89874,4.571091,0.3839542999999999,0.5956243,-0.1590427999999999,1.18546,-0.06863868,0.1410426,0.683457,-0.1408,3.749824,-14.74229,33.75
3,-0.09858704,0.3826904,0.9185944,1.0,-0.09155273,0.3689728,0.9249115,-30.0033,-5.216904,-19.66583,4.085815,0.4548856,0.6076244000000001,1.0,-0.1104126,0.4055785999999999,0.9073486,36.75705,-4.64502,-20.89874,4.571091,0.3839542999999999,0.5956243,-0.1590427999999999,1.18546,-0.06863868,0.1410426,0.683457,-0.1408,3.749824,-14.74229,33.75
3,-0.09858704,0.3826904,0.9185944,1.0,-0.09155273,0.3689728,0.9249115,-30.0033,-5.216904,-19.66583,4.085815,0.4548856,0.6076244000000001,1.0,-0.1104126,0.4055785999999999,0.9073486,36.75705,-4.64502,-20.89874,4.571091,0.3839542999999999,0.5956243,-0.1590427999999999,1.18546,-0.06863868,0.1410426,0.683457,-0.1408,3.749824,-14.74229,33.75
3,-0.07835388,0.4064940999999999,0.9102783,1.0,-0.07597351,0.3825073,0.9208069,-29.89412,-5.022766000000001,-19.68436,4.262176999999999,0.448908,0.5997851,1.0,-0.08132935,0.4365997,0.8959655999999999,36.85487,-4.460693,-20.95126,4.504562,0.3760040999999999,0.5849759,-0.1590427999999999,1.18546,-0.06863868,0.1410426,0.683457,-0.1408,3.789546,-14.74229,33.75
3,-0.07835388,0.4064940999999999,0.9102783,1.0,-0.07597351,0.3825073,0.9208069,-29.89412,-5.022766000000001,-19.68436,4.262176999999999,0.448908,0.5997851,1.0,-0.08132935,0.4365997,0.8959655999999999,36.85487,-4.460693,-20.95126,4.504562,0.3760040999999999,0.5849759,-0.1590427999999999,1.18546,-0.06863868,0.1410426,0.683457,-0.1408,3.789546,-14.74229,33.75
3,-0.07835388,0.4064940999999999,0.9102783,1.0,-0.07597351,0.3825073,0.9208069,-29.89412,-5.022766000000001,-19.68436,4.262176999999999,0.448908,0.5997851,1.0,-0.08132935,0.4365997,0.8959655999999999,36.85487,-4.460693,-20.95126,4.504562,0.3760040999999999,0.5849759,-0.1590427999999999,1.18546,-0.06863868,0.1410426,0.683457,-0.1408,3.789546,-14.74229,33.75
3,-0.08218384,0.3754272,0.9231873,1.0,-0.08491516,0.3530120999999999,0.9317474,-29.79951,-5.271271,-19.59482,4.187561,0.4473114,0.6112393,1.0,-0.07870483,0.4032745,0.9116821,36.89792,-4.704498,-20.8595,4.454376,0.3740895,0.5971913000000001,-0.1644869,1.194978,-0.07093439,0.1201013,0.6834766,-0.1256251,3.789546,-14.74229,33.75
3,-0.08218384,0.3754272,0.9231873,1.0,-0.08491516,0.3530120999999999,0.9317474,-29.79951,-5.271271,-19.59482,4.187561,0.4473114,0.6112393,1.0,-0.07870483,0.4032745,0.9116821,36.89792,-4.704498,-20.8595,4.454376,0.3740895,0.5971913000000001,-0.1644869,1.194978,-0.07093439,0.1201013,0.6834766,-0.1256251,3.789546,-14.74229,33.75
3,-0.08218384,0.3754272,0.9231873,1.0,-0.08491516,0.3530120999999999,0.9317474,-29.79951,-5.271271,-19.59482,4.187561,0.4473114,0.6112393,1.0,-0.07870483,0.4032745,0.9116821,36.89792,-4.704498,-20.8595,4.454376,0.3740895,0.5971913000000001,-0.1644869,1.194978,-0.07093439,0.1201013,0.6834766,-0.1256251,3.789546,-14.74229,33.75
3,-0.06776428,0.3350525,0.939743,1.0,-0.05819702,0.317627,0.9464264,-29.884120000000003,-5.385544,-19.55145,4.118835,0.4455808,0.619725,1.0,-0.07858276,0.35466,0.9316711,36.92007,-4.827744,-20.76337,4.621551999999999,0.3732223,0.608237,-0.1644869,1.194978,-0.07093439,0.1201013,0.6834766,-0.1256251,3.789546,25.78969,33.75
3,-0.06776428,0.3350525,0.939743,1.0,-0.05819702,0.317627,0.9464264,-29.884120000000003,-5.385544,-19.55145,4.118835,0.4455808,0.619725,1.0,-0.07858276,0.35466,0.9316711,36.92007,-4.827744,-20.76337,4.621551999999999,0.3732223,0.608237,-0.1644869,1.194978,-0.07093439,0.1201013,0.6834766,-0.1256251,3.789546,25.78969,33.75
3,-0.06776428,0.3350525,0.939743,1.0,-0.05819702,0.317627,0.9464264,-29.884120000000003,-5.385544,-19.55145,4.118835,0.4455808,0.619725,1.0,-0.07858276,0.35466,0.9316711,36.92007,-4.827744,-20.76337,4.621551999999999,0.3732223,0.608237,-0.1644869,1.194978,-0.07093439,0.1201013,0.6834766,-0.1256251,3.789546,25.78969,33.75
3,-0.07926941,0.3217926,0.9434814,1.0,-0.07287598,0.3058624,0.9492798,-29.884120000000003,-5.426544,-19.54929,4.163147,0.4479219,0.6229232,1.0,-0.08747864,0.3421783,0.9355469,36.87369,-4.971298,-20.735570000000003,4.596222,0.3761559,0.6145866,-0.1701154,1.203356,-0.07317978,0.105379,0.6818029000000001,-0.1141681,3.789546,25.78969,33.75
3,-0.07926941,0.3217926,0.9434814,1.0,-0.07287598,0.3058624,0.9492798,-29.884120000000003,-5.426544,-19.54929,4.163147,0.4479219,0.6229232,1.0,-0.08747864,0.3421783,0.9355469,36.87369,-4.971298,-20.735570000000003,4.596222,0.3761559,0.6145866,-0.1701154,1.203356,-0.07317978,0.105379,0.6818029000000001,-0.1141681,3.789546,25.78969,33.75
3,-0.07926941,0.3217926,0.9434814,1.0,-0.07287598,0.3058624,0.9492798,-29.884120000000003,-5.426544,-19.54929,4.163147,0.4479219,0.6229232,1.0,-0.08747864,0.3421783,0.9355469,36.87369,-4.971298,-20.735570000000003,4.596222,0.3761559,0.6145866,-0.1701154,1.203356,-0.07317978,0.105379,0.6818029000000001,-0.1141681,3.789546,25.78969,33.75
3,-0.08694458,0.3119812,0.9460907,1.0,-0.08335876,0.2903442,0.9532776,-29.855590000000003,-5.494324,-19.53261,4.153564,0.4486794,0.6273167,1.0,-0.09075928,0.3350982999999999,0.9377899,36.86363,-5.010544,-20.72997,4.589523000000001,0.377001,0.6169279999999999,-0.1701154,1.203356,-0.07317978,0.105379,0.6818029000000001,-0.1141681,3.789546,25.78969,33.73
3,-0.08694458,0.3119812,0.9460907,1.0,-0.08335876,0.2903442,0.9532776,-29.855590000000003,-5.494324,-19.53261,4.153564,0.4486794,0.6273167,1.0,-0.09075928,0.3350982999999999,0.9377899,36.86363,-5.010544,-20.72997,4.589523000000001,0.377001,0.6169279999999999,-0.1701154,1.203356,-0.07317978,0.105379,0.6818029000000001,-0.1141681,3.789546,25.78969,33.73
3,-0.08694458,0.3119812,0.9460907,1.0,-0.08335876,0.2903442,0.9532776,-29.855590000000003,-5.494324,-19.53261,4.153564,0.4486794,0.6273167,1.0,-0.09075928,0.3350982999999999,0.9377899,36.86363,-5.010544,-20.72997,4.589523000000001,0.377001,0.6169279999999999,-0.1701154,1.203356,-0.07317978,0.105379,0.6818029000000001,-0.1141681,3.789546,25.78969,33.73
3,-0.08732605,0.3104095,0.9465637,1.0,-0.08378601,0.2878571,0.9539948,-29.85852,-5.505173,-19.51544,4.151031,0.4488389,0.6278729999999999,1.0,-0.09068298,0.3320007,0.9388885,36.86063,-5.031569999999999,-20.72954,4.562683,0.3770801,0.6180488000000001,-0.1735121,1.207186,-0.07388762,0.09917261,0.6807745,-0.1080503999999999,3.789546,25.78969,33.73
3,-0.08732605,0.3104095,0.9465637,1.0,-0.08378601,0.2878571,0.9539948,-29.85852,-5.505173,-19.51544,4.151031,0.4488389,0.6278729999999999,1.0,-0.09068298,0.3320007,0.9388885,36.86063,-5.031569999999999,-20.72954,4.562683,0.3770801,0.6180488000000001,-0.1735121,1.207186,-0.07388762,0.09917261,0.6807745,-0.1080503999999999,3.789546,25.78969,33.73
3,-0.08732605,0.3104095,0.9465637,1.0,-0.08378601,0.2878571,0.9539948,-29.85852,-5.505173,-19.51544,4.151031,0.4488389,0.6278729999999999,1.0,-0.09068298,0.3320007,0.9388885,36.86063,-5.031569999999999,-20.72954,4.562683,0.3770801,0.6180488000000001,-0.1735121,1.207186,-0.07388762,0.09917261,0.6807745,-0.1080503999999999,3.789546,25.78969,33.73
3,-0.08657837,0.2774047999999999,0.9568329,1.0,-0.08473206,0.2750397,0.9576874,-29.88837,-5.568619,-19.48787,4.20845,0.4498895,0.6316811,1.0,-0.08912659,0.2806702,0.9556427,36.80632,-5.196808,-20.61673,4.55925,0.3784765,0.6304367,-0.1805757999999999,1.21323,-0.07485023,0.0927022,0.6789408,-0.1007215,3.789546,25.78969,33.73
3,-0.08657837,0.2774047999999999,0.9568329,1.0,-0.08473206,0.2750397,0.9576874,-29.88837,-5.568619,-19.48787,4.20845,0.4498895,0.6316811,1.0,-0.08912659,0.2806702,0.9556427,36.80632,-5.196808,-20.61673,4.55925,0.3784765,0.6304367,-0.1805757999999999,1.21323,-0.07485023,0.0927022,0.6789408,-0.1007215,3.789546,25.78969,33.73
3,-0.08657837,0.2774047999999999,0.9568329,1.0,-0.08473206,0.2750397,0.9576874,-29.88837,-5.568619,-19.48787,4.20845,0.4498895,0.6316811,1.0,-0.08912659,0.2806702,0.9556427,36.80632,-5.196808,-20.61673,4.55925,0.3784765,0.6304367,-0.1805757999999999,1.21323,-0.07485023,0.0927022,0.6789408,-0.1007215,3.789546,25.78969,33.73
3,-0.09710693,0.2471924,0.9640808,1.0,-0.09309387,0.2211150999999999,0.9707794,-30.16733,-5.782104,-19.45226,4.085449,0.4599137,0.6463368,1.0,-0.09996033,0.2659454,0.958786,36.89003,-5.068039,-20.63205,4.484222,0.3775579,0.6286789,-0.1805757999999999,1.21323,-0.07485023,0.0927022,0.6789408,-0.1007215,3.789546,-102.3405,33.73
3,-0.09710693,0.2471924,0.9640808,1.0,-0.09309387,0.2211150999999999,0.9707794,-30.16733,-5.782104,-19.45226,4.085449,0.4599137,0.6463368,1.0,-0.09996033,0.2659454,0.958786,36.89003,-5.068039,-20.63205,4.484222,0.3775579,0.6286789,-0.1805757999999999,1.21323,-0.07485023,0.0927022,0.6789408,-0.1007215,3.789546,-102.3405,33.73
3,-0.09710693,0.2471924,0.9640808,1.0,-0.09309387,0.2211150999999999,0.9707794,-30.16733,-5.782104,-19.45226,4.085449,0.4599137,0.6463368,1.0,-0.09996033,0.2659454,0.958786,36.89003,-5.068039,-20.63205,4.484222,0.3775579,0.6286789,-0.1805757999999999,1.21323,-0.07485023,0.0927022,0.6789408,-0.1007215,3.789546,-102.3405,33.73
3,-1.0,-1.0,-1.0,0.1980852,0.0,0.0,0.0,-29.86755,-8.978546000000001,-19.81117,-1.0,-1.0,-1.0,0.4201364999999999,0.0,0.0,0.0,36.48311,-8.180359,-20.77046,-1.0,0.3975078,0.8176154,-0.1843235,1.215989,-0.0755226,0.08876698,0.6791599,-0.09651204,3.789546,-102.3405,33.73
3,-1.0,-1.0,-1.0,0.1980852,0.0,0.0,0.0,-29.86755,-8.978546000000001,-19.81117,-1.0,-1.0,-1.0,0.4201364999999999,0.0,0.0,0.0,36.48311,-8.180359,-20.77046,-1.0,0.3975078,0.8176154,-0.1843235,1.215989,-0.0755226,0.08876698,0.6791599,-0.09651204,3.789546,-102.3405,33.73
3,-1.0,-1.0,-1.0,0.1980852,0.0,0.0,0.0,-29.86755,-8.978546000000001,-19.81117,-1.0,-1.0,-1.0,0.4201364999999999,0.0,0.0,0.0,36.48311,-8.180359,-20.77046,-1.0,0.3975078,0.8176154,-0.1843235,1.215989,-0.0755226,0.08876698,0.6791599,-0.09651204,3.789546,-102.3405,33.73
3,-1.0,-1.0,-1.0,0.1769463,0.0,0.0,0.0,-29.86755,-8.978546000000001,-19.81117,-1.0,-1.0,-1.0,0.0,0.0,0.0,0.0,36.48311,-8.180359,-20.77046,-1.0,-1.0,-1.0,-0.1884172,1.218487,-0.07590884,0.08564922,0.6791868000000001,-0.09267344,3.789546,-102.3405,33.73
3,-1.0,-1.0,-1.0,0.1769463,0.0,0.0,0.0,-29.86755,-8.978546000000001,-19.81117,-1.0,-1.0,-1.0,0.0,0.0,0.0,0.0,36.48311,-8.180359,-20.77046,-1.0,-1.0,-1.0,-0.1884172,1.218487,-0.07590884,0.08564922,0.6791868000000001,-0.09267344,3.789546,-102.3405,33.73
3,-1.0,-1.0,-1.0,0.1769463,0.0,0.0,0.0,-29.86755,-8.978546000000001,-19.81117,-1.0,-1.0,-1.0,0.0,0.0,0.0,0.0,36.48311,-8.180359,-20.77046,-1.0,-1.0,-1.0,-0.1884172,1.218487,-0.07590884,0.08564922,0.6791868000000001,-0.09267344,3.789546,-102.3405,33.73
4,-1.0,-1.0,-1.0,0.1119456,0.0,0.0,0.0,-29.86755,-8.978546000000001,-19.81117,-1.0,-1.0,-1.0,0.0,0.0,0.0,0.0,36.17186,-7.361099,-20.641820000000003,-1.0,0.4175704,0.7638168000000001,-0.1920156,1.221527,-0.07640737,0.08095494,0.6798926,-0.08864243,3.789546,-102.3405,33.73
4,-1.0,-1.0,-1.0,0.1119456,0.0,0.0,0.0,-29.86755,-8.978546000000001,-19.81117,-1.0,-1.0,-1.0,0.0,0.0,0.0,0.0,36.17186,-7.361099,-20.641820000000003,-1.0,0.4175704,0.7638168000000001,-0.1920156,1.221527,-0.07640737,0.08095494,0.6798926,-0.08864243,3.789546,-102.3405,33.73
4,-1.0,-1.0,-1.0,0.1119456,0.0,0.0,0.0,-29.86755,-8.978546000000001,-19.81117,-1.0,-1.0,-1.0,0.0,0.0,0.0,0.0,36.17186,-7.361099,-20.641820000000003,-1.0,0.4175704,0.7638168000000001,-0.1920156,1.221527,-0.07640737,0.08095494,0.6798926,-0.08864243,3.789546,-102.3405,33.73
4,-0.1918793,0.2282409999999999,0.9544983,0.4513326,-0.1918793,0.2282409999999999,0.9544983,-30.43378,-5.582351999999999,-19.54207,4.209091,0.4841972,0.6406421,0.7459733000000001,0.0,0.0,0.0,36.48393,-5.051544,-20.69455,-1.0,0.4035616,0.6297823,-0.2002683,1.226232,-0.07686684,0.07398209,0.6803992,-0.08135634,3.789546,-102.3405,33.73
4,-0.1918793,0.2282409999999999,0.9544983,0.4513326,-0.1918793,0.2282409999999999,0.9544983,-30.43378,-5.582351999999999,-19.54207,4.209091,0.4841972,0.6406421,0.7459733000000001,0.0,0.0,0.0,36.48393,-5.051544,-20.69455,-1.0,0.4035616,0.6297823,-0.2002683,1.226232,-0.07686684,0.07398209,0.6803992,-0.08135634,3.789546,-102.3405,33.73
4,-0.1918793,0.2282409999999999,0.9544983,0.4513326,-0.1918793,0.2282409999999999,0.9544983,-30.43378,-5.582351999999999,-19.54207,4.209091,0.4841972,0.6406421,0.7459733000000001,0.0,0.0,0.0,36.48393,-5.051544,-20.69455,-1.0,0.4035616,0.6297823,-0.2002683,1.226232,-0.07686684,0.07398209,0.6803992,-0.08135634,3.789546,-102.3405,33.73
4,-0.1516418,0.2234344,0.9628448,1.0,-0.1427765,0.2028961,0.9687195,-30.54181,-5.64798,-19.50708,3.884995,0.4797214,0.6455805,1.0,-0.1516418,0.2234344,0.9628448,36.36475,-5.141235,-20.63022,4.103958,0.4030872,0.6376763000000001,-0.2002683,1.226232,-0.07686684,0.07398209,0.6803992,-0.08135634,3.789546,47.95169,33.73
4,-0.1516418,0.2234344,0.9628448,1.0,-0.1427765,0.2028961,0.9687195,-30.54181,-5.64798,-19.50708,3.884995,0.4797214,0.6455805,1.0,-0.1516418,0.2234344,0.9628448,36.36475,-5.141235,-20.63022,4.103958,0.4030872,0.6376763000000001,-0.2002683,1.226232,-0.07686684,0.07398209,0.6803992,-0.08135634,3.789546,47.95169,33.73
4,-0.1516418,0.2234344,0.9628448,1.0,-0.1427765,0.2028961,0.9687195,-30.54181,-5.64798,-19.50708,3.884995,0.4797214,0.6455805,1.0,-0.1516418,0.2234344,0.9628448,36.36475,-5.141235,-20.63022,4.103958,0.4030872,0.6376763000000001,-0.2002683,1.226232,-0.07686684,0.07398209,0.6803992,-0.08135634,3.789546,47.95169,33.73
4,-1.0,-1.0,-1.0,0.9048266,0.0,0.0,0.0,-30.51572,-5.659058,-19.49368,-1.0,0.4856962,0.6496605,0.7995833000000001,0.0,0.0,0.0,36.56973,-5.329025,-20.58032,-1.0,0.4006317,0.6494641999999999,-0.2043999,1.228646,-0.07684737,0.07093713,0.6806736,-0.07691776,3.789546,47.95169,33.73
4,-1.0,-1.0,-1.0,0.9048266,0.0,0.0,0.0,-30.51572,-5.659058,-19.49368,-1.0,0.4856962,0.6496605,0.7995833000000001,0.0,0.0,0.0,36.56973,-5.329025,-20.58032,-1.0,0.4006317,0.6494641999999999,-0.2043999,1.228646,-0.07684737,0.07093713,0.6806736,-0.07691776,3.789546,47.95169,33.73
4,-1.0,-1.0,-1.0,0.9048266,0.0,0.0,0.0,-30.51572,-5.659058,-19.49368,-1.0,0.4856962,0.6496605,0.7995833000000001,0.0,0.0,0.0,36.56973,-5.329025,-20.58032,-1.0,0.4006317,0.6494641999999999,-0.2043999,1.228646,-0.07684737,0.07093713,0.6806736,-0.07691776,3.789546,47.95169,33.73
4,-1.0,-1.0,-1.0,0.3291088,0.0,0.0,0.0,-30.432270000000003,-7.609299000000001,-19.50395,-1.0,-1.0,-1.0,0.0,0.0,0.0,0.0,36.07346,-7.1923520000000005,-20.64684,-1.0,-1.0,-1.0,-0.2087227,1.230659,-0.07685632,0.06935737,0.6809432,-0.07227537,3.789546,47.95169,33.73
4,-1.0,-1.0,-1.0,0.3291088,0.0,0.0,0.0,-30.432270000000003,-7.609299000000001,-19.50395,-1.0,-1.0,-1.0,0.0,0.0,0.0,0.0,36.07346,-7.1923520000000005,-20.64684,-1.0,-1.0,-1.0,-0.2087227,1.230659,-0.07685632,0.06935737,0.6809432,-0.07227537,3.789546,47.95169,33.73
4,-1.0,-1.0,-1.0,0.3291088,0.0,0.0,0.0,-30.432270000000003,-7.609299000000001,-19.50395,-1.0,-1.0,-1.0,0.0,0.0,0.0,0.0,36.07346,-7.1923520000000005,-20.64684,-1.0,-1.0,-1.0,-0.2087227,1.230659,-0.07685632,0.06935737,0.6809432,-0.07227537,3.789546,47.95169,33.73
4,-1.0,-1.0,-1.0,0.3165188,0.0,0.0,0.0,-30.432270000000003,-7.609299000000001,-19.50395,-1.0,-1.0,-1.0,0.0,0.0,0.0,0.0,36.07346,-7.1923520000000005,-20.64684,-1.0,-1.0,-1.0,-0.2129498,1.233214,-0.0767231,0.06669663,0.681371,-0.067509,3.789546,47.95169,33.73
4,-1.0,-1.0,-1.0,0.3165188,0.0,0.0,0.0,-30.432270000000003,-7.609299000000001,-19.50395,-1.0,-1.0,-1.0,0.0,0.0,0.0,0.0,36.07346,-7.1923520000000005,-20.64684,-1.0,-1.0,-1.0,-0.2129498,1.233214,-0.0767231,0.06669663,0.681371,-0.067509,3.789546,47.95169,33.73
4,-1.0,-1.0,-1.0,0.3165188,0.0,0.0,0.0,-30.432270000000003,-7.609299000000001,-19.50395,-1.0,-1.0,-1.0,0.0,0.0,0.0,0.0,36.07346,-7.1923520000000005,-20.64684,-1.0,-1.0,-1.0,-0.2129498,1.233214,-0.0767231,0.06669663,0.681371,-0.067509,3.789546,47.95169,33.73
4,-1.0,-1.0,-1.0,0.3165188,0.0,0.0,0.0,-30.32436,-5.4747010000000005,-19.41924,-1.0,0.4800064999999999,0.6514563,0.0,0.0,0.0,0.0,36.81166,-3.975723,-26.75401,-1.0,0.3911145,0.6804131999999999,-0.2171689,1.235591,-0.0762668,0.06320687,0.6824899999999999,-0.06124242,3.789546,47.95169,33.73
4,-1.0,-1.0,-1.0,0.3165188,0.0,0.0,0.0,-30.32436,-5.4747010000000005,-19.41924,-1.0,0.4800064999999999,0.6514563,0.0,0.0,0.0,0.0,36.81166,-3.975723,-26.75401,-1.0,0.3911145,0.6804131999999999,-0.2171689,1.235591,-0.0762668,0.06320687,0.6824899999999999,-0.06124242,3.789546,47.95169,33.73
4,-1.0,-1.0,-1.0,0.3165188,0.0,0.0,0.0,-30.32436,-5.4747010000000005,-19.41924,-1.0,0.4800064999999999,0.6514563,0.0,0.0,0.0,0.0,36.81166,-3.975723,-26.75401,-1.0,0.3911145,0.6804131999999999,-0.2171689,1.235591,-0.0762668,0.06320687,0.6824899999999999,-0.06124242,3.789546,47.95169,33.73
4,-1.0,-1.0,-1.0,0.8982754000000001,0.0,0.0,0.0,-30.38705,-5.785324,-19.46188,-1.0,0.4748298999999999,0.6517086999999999,0.8579515999999999,0.0,0.0,0.0,36.64911,-5.31366,-20.62317,-1.0,0.3996234,0.6450159000000001,-0.2213787,1.237564,-0.07567421,0.06094812,0.6836388000000001,-0.05506339,3.789546,47.95169,33.73
4,-1.0,-1.0,-1.0,0.8982754000000001,0.0,0.0,0.0,-30.38705,-5.785324,-19.46188,-1.0,0.4748298999999999,0.6517086999999999,0.8579515999999999,0.0,0.0,0.0,36.64911,-5.31366,-20.62317,-1.0,0.3996234,0.6450159000000001,-0.2213787,1.237564,-0.07567421,0.06094812,0.6836388000000001,-0.05506339,3.789546,47.95169,33.73
4,-1.0,-1.0,-1.0,0.8982754000000001,0.0,0.0,0.0,-30.38705,-5.785324,-19.46188,-1.0,0.4748298999999999,0.6517086999999999,0.8579515999999999,0.0,0.0,0.0,36.64911,-5.31366,-20.62317,-1.0,0.3996234,0.6450159000000001,-0.2213787,1.237564,-0.07567421,0.06094812,0.6836388000000001,-0.05506339,3.789546,47.95169,33.73
4,-0.1174773999999999,0.1638793999999999,0.9794464,1.0,-0.1174773999999999,0.1638793999999999,0.9794464,-30.42915,-5.840225,-19.53717,3.630997,0.4720541,0.6575380999999999,1.0,-0.1685791,0.2056427,0.9639893,36.59253,-5.472351000000001,-20.66873,3.97821,0.3983604,0.6515055999999999,-0.2257927,1.239407,-0.07502341,0.05858641,0.6847572,-0.05029441,3.789546,86.70256,33.73
4,-0.1174773999999999,0.1638793999999999,0.9794464,1.0,-0.1174773999999999,0.1638793999999999,0.9794464,-30.42915,-5.840225,-19.53717,3.630997,0.4720541,0.6575380999999999,1.0,-0.1685791,0.2056427,0.9639893,36.59253,-5.472351000000001,-20.66873,3.97821,0.3983604,0.6515055999999999,-0.2257927,1.239407,-0.07502341,0.05858641,0.6847572,-0.05029441,3.789546,86.70256,33.73
4,-0.1174773999999999,0.1638793999999999,0.9794464,1.0,-0.1174773999999999,0.1638793999999999,0.9794464,-30.42915,-5.840225,-19.53717,3.630997,0.4720541,0.6575380999999999,1.0,-0.1685791,0.2056427,0.9639893,36.59253,-5.472351000000001,-20.66873,3.97821,0.3983604,0.6515055999999999,-0.2257927,1.239407,-0.07502341,0.05858641,0.6847572,-0.05029441,3.789546,86.70256,33.73
4,-0.1377869,0.1492615,0.9791412,1.0,-0.1247864,0.1288605,0.9837646,-30.3802,-6.0302430000000005,-19.64441,3.690247,0.4715485,0.67023,1.0,-0.1407928,0.154007,0.9779816,36.473040000000005,-5.536118,-20.7168,3.890732,0.3974380999999999,0.6620824000000001,-0.2395197,1.24411,-0.07160962,0.05606198,0.6879085,-0.03504896,3.789546,86.70256,33.73
4,-0.1377869,0.1492615,0.9791412,1.0,-0.1247864,0.1288605,0.9837646,-30.3802,-6.0302430000000005,-19.64441,3.690247,0.4715485,0.67023,1.0,-0.1407928,0.154007,0.9779816,36.473040000000005,-5.536118,-20.7168,3.890732,0.3974380999999999,0.6620824000000001,-0.2395197,1.24411,-0.07160962,0.05606198,0.6879085,-0.03504896,3.789546,86.70256,33.73
4,-0.1377869,0.1492615,0.9791412,1.0,-0.1247864,0.1288605,0.9837646,-30.3802,-6.0302430000000005,-19.64441,3.690247,0.4715485,0.67023,1.0,-0.1407928,0.154007,0.9779816,36.473040000000005,-5.536118,-20.7168,3.890732,0.3974380999999999,0.6620824000000001,-0.2395197,1.24411,-0.07160962,0.05606198,0.6879085,-0.03504896,3.789546,86.70256,33.73
4,-0.1365662,0.1448364,0.9799805,1.0,-0.1229095,0.1289063,0.9839935,-30.37964,-6.071777,-19.59569,3.693329,0.4712264,0.6710404000000001,1.0,-0.1402588,0.1491547,0.9788055,36.47,-5.530289,-20.71014,3.888275,0.3974380999999999,0.6626145,-0.2422208,1.2445469999999998,-0.07084107,0.05669814,0.6889831999999999,-0.03331927,3.789546,86.70256,33.73
4,-0.1365662,0.1448364,0.9799805,1.0,-0.1229095,0.1289063,0.9839935,-30.37964,-6.071777,-19.59569,3.693329,0.4712264,0.6710404000000001,1.0,-0.1402588,0.1491547,0.9788055,36.47,-5.530289,-20.71014,3.888275,0.3974380999999999,0.6626145,-0.2422208,1.2445469999999998,-0.07084107,0.05669814,0.6889831999999999,-0.03331927,3.789546,86.70256,33.73
4,-0.1365662,0.1448364,0.9799805,1.0,-0.1229095,0.1289063,0.9839935,-30.37964,-6.071777,-19.59569,3.693329,0.4712264,0.6710404000000001,1.0,-0.1402588,0.1491547,0.9788055,36.47,-5.530289,-20.71014,3.888275,0.3974380999999999,0.6626145,-0.2422208,1.2445469999999998,-0.07084107,0.05669814,0.6889831999999999,-0.03331927,3.789546,86.70256,33.73
4,-0.1340027,0.138092,0.981308,1.0,-0.1208954,0.1257324,0.9846649,-30.37775,-6.138443,-19.43477,3.695221,0.4708327,0.6720577,1.0,-0.1405182,0.1442413,0.9795074,36.47153,-5.520874,-20.718020000000003,3.892349,0.3974089,0.6631863,-0.244635,1.245267,-0.069731,0.05642426,0.6903577,-0.03157772,3.789546,14.62056,33.73
4,-0.1340027,0.138092,0.981308,1.0,-0.1208954,0.1257324,0.9846649,-30.37775,-6.138443,-19.43477,3.695221,0.4708327,0.6720577,1.0,-0.1405182,0.1442413,0.9795074,36.47153,-5.520874,-20.718020000000003,3.892349,0.3974089,0.6631863,-0.244635,1.245267,-0.069731,0.05642426,0.6903577,-0.03157772,3.789546,14.62056,33.73
4,-0.1340027,0.138092,0.981308,1.0,-0.1208954,0.1257324,0.9846649,-30.37775,-6.138443,-19.43477,3.695221,0.4708327,0.6720577,1.0,-0.1405182,0.1442413,0.9795074,36.47153,-5.520874,-20.718020000000003,3.892349,0.3974089,0.6631863,-0.244635,1.245267,-0.069731,0.05642426,0.6903577,-0.03157772,3.789546,14.62056,33.73
4,-0.1390686,0.1342467999999999,0.9811401,1.0,-0.1284485,0.1437072999999999,0.9812317,-30.33548,-6.36586,-19.07535,3.722321,0.4707436,0.6728184,1.0,-0.1391602,0.1341552999999999,0.9811249,36.473040000000005,-5.520874,-20.7168,3.918732,0.3970885,0.6648295,-0.244635,1.245267,-0.069731,0.05642426,0.6903577,-0.03157772,3.789546,14.62056,33.73
4,-0.1390686,0.1342467999999999,0.9811401,1.0,-0.1284485,0.1437072999999999,0.9812317,-30.33548,-6.36586,-19.07535,3.722321,0.4707436,0.6728184,1.0,-0.1391602,0.1341552999999999,0.9811249,36.473040000000005,-5.520874,-20.7168,3.918732,0.3970885,0.6648295,-0.244635,1.245267,-0.069731,0.05642426,0.6903577,-0.03157772,3.789546,14.62056,33.73
4,-0.1390686,0.1342467999999999,0.9811401,1.0,-0.1284485,0.1437072999999999,0.9812317,-30.33548,-6.36586,-19.07535,3.722321,0.4707436,0.6728184,1.0,-0.1391602,0.1341552999999999,0.9811249,36.473040000000005,-5.520874,-20.7168,3.918732,0.3970885,0.6648295,-0.244635,1.245267,-0.069731,0.05642426,0.6903577,-0.03157772,3.789546,14.62056,33.73
4,-0.1490784,0.1403656,0.9788055,1.0,-0.1222229,0.1469421,0.9815521,-30.318240000000003,-6.394591999999999,-19.07535,3.783524,0.4691919,0.6732461,1.0,-0.1500549,0.1401214999999999,0.9786835,36.55275,-5.6147160000000005,-20.57947,3.934433,0.3963763,0.6655949000000001,-0.2463692,1.245806,-0.06900224,0.05717059,0.691559,-0.02998069,3.789546,14.62056,33.73
4,-0.1490784,0.1403656,0.9788055,1.0,-0.1222229,0.1469421,0.9815521,-30.318240000000003,-6.394591999999999,-19.07535,3.783524,0.4691919,0.6732461,1.0,-0.1500549,0.1401214999999999,0.9786835,36.55275,-5.6147160000000005,-20.57947,3.934433,0.3963763,0.6655949000000001,-0.2463692,1.245806,-0.06900224,0.05717059,0.691559,-0.02998069,3.789546,14.62056,33.73
4,-0.1490784,0.1403656,0.9788055,1.0,-0.1222229,0.1469421,0.9815521,-30.318240000000003,-6.394591999999999,-19.07535,3.783524,0.4691919,0.6732461,1.0,-0.1500549,0.1401214999999999,0.9786835,36.55275,-5.6147160000000005,-20.57947,3.934433,0.3963763,0.6655949000000001,-0.2463692,1.245806,-0.06900224,0.05717059,0.691559,-0.02998069,3.789546,14.62056,33.73
4,-0.1339111,0.1421813999999999,0.9807281,1.0,-0.1204071,0.14505,0.9820557,-30.31403,-6.402863,-19.07535,3.80101,0.4687593,0.6738156999999999,1.0,-0.1494751,0.1388245,0.9789581,36.55559,-5.62587,-20.53094,3.961365,0.396204,0.665693,-0.2483827,1.246484,-0.06803408,0.05812474,0.6928634,-0.02814767,3.789546,14.62056,33.73
4,-0.1339111,0.1421813999999999,0.9807281,1.0,-0.1204071,0.14505,0.9820557,-30.31403,-6.402863,-19.07535,3.80101,0.4687593,0.6738156999999999,1.0,-0.1494751,0.1388245,0.9789581,36.55559,-5.62587,-20.53094,3.961365,0.396204,0.665693,-0.2483827,1.246484,-0.06803408,0.05812474,0.6928634,-0.02814767,3.789546,14.62056,33.73
4,-0.1339111,0.1421813999999999,0.9807281,1.0,-0.1204071,0.14505,0.9820557,-30.31403,-6.402863,-19.07535,3.80101,0.4687593,0.6738156999999999,1.0,-0.1494751,0.1388245,0.9789581,36.55559,-5.62587,-20.53094,3.961365,0.396204,0.665693,-0.2483827,1.246484,-0.06803408,0.05812474,0.6928634,-0.02814767,3.789546,14.62056,33.73
4,-0.1339111,0.1421813999999999,0.9807281,1.0,-0.1204071,0.14505,0.9820557,-30.31403,-6.402863,-19.07535,3.80101,0.4687593,0.6738156999999999,1.0,-0.1494751,0.1388245,0.9789581,36.55559,-5.62587,-20.53094,3.961365,0.396204,0.665693,-0.2502385,1.247167,-0.06675798,0.05906646,0.6944274,-0.02586955,3.789546,14.62056,33.73
4,-0.1339111,0.1421813999999999,0.9807281,1.0,-0.1204071,0.14505,0.9820557,-30.31403,-6.402863,-19.07535,3.80101,0.4687593,0.6738156999999999,1.0,-0.1494751,0.1388245,0.9789581,36.55559,-5.62587,-20.53094,3.961365,0.396204,0.665693,-0.2502385,1.247167,-0.06675798,0.05906646,0.6944274,-0.02586955,3.789546,14.62056,33.73
4,-0.1339111,0.1421813999999999,0.9807281,1.0,-0.1204071,0.14505,0.9820557,-30.31403,-6.402863,-19.07535,3.80101,0.4687593,0.6738156999999999,1.0,-0.1494751,0.1388245,0.9789581,36.55559,-5.62587,-20.53094,3.961365,0.396204,0.665693,-0.2502385,1.247167,-0.06675798,0.05906646,0.6944274,-0.02586955,3.789546,14.62056,33.73
4,-0.1116791,0.1313324,0.9850159,1.0,-0.1116791,0.1313934,0.9850159,-30.29239,-6.392288,-19.1203,3.858765,0.4666350999999999,0.676096,1.0,-0.1131287,0.1182556,0.9865112,36.55235,-5.431396,-21.23187,4.100754,0.3897247,0.6697825,-0.2521107,1.247791,-0.0650781999999999,0.06087889,0.6958674,-0.02231267,3.789546,-45.76564,33.73
4,-0.1116791,0.1313324,0.9850159,1.0,-0.1116791,0.1313934,0.9850159,-30.29239,-6.392288,-19.1203,3.858765,0.4666350999999999,0.676096,1.0,-0.1131287,0.1182556,0.9865112,36.55235,-5.431396,-21.23187,4.100754,0.3897247,0.6697825,-0.2521107,1.247791,-0.0650781999999999,0.06087889,0.6958674,-0.02231267,3.789546,-45.76564,33.73
4,-0.1116791,0.1313324,0.9850159,1.0,-0.1116791,0.1313934,0.9850159,-30.29239,-6.392288,-19.1203,3.858765,0.4666350999999999,0.676096,1.0,-0.1131287,0.1182556,0.9865112,36.55235,-5.431396,-21.23187,4.100754,0.3897247,0.6697825,-0.2521107,1.247791,-0.0650781999999999,0.06087889,0.6958674,-0.02231267,3.789546,-45.76564,33.73
4,-0.1058501999999999,0.1293182,0.9859314,1.0,-0.1058501999999999,0.1293335,0.9859314,-30.27153,-6.400314,-19.1203,3.93399,0.4650253,0.676722,1.0,-0.1126404,0.1192473999999999,0.9864502,36.5618,-5.488068,-21.19882,4.124542,0.389334,0.6711604999999999,-0.2536883,1.248358,-0.0634146,0.06437036,0.6971741,-0.01892976,3.789546,-45.76564,33.73
4,-0.1058501999999999,0.1293182,0.9859314,1.0,-0.1058501999999999,0.1293335,0.9859314,-30.27153,-6.400314,-19.1203,3.93399,0.4650253,0.676722,1.0,-0.1126404,0.1192473999999999,0.9864502,36.5618,-5.488068,-21.19882,4.124542,0.389334,0.6711604999999999,-0.2536883,1.248358,-0.0634146,0.06437036,0.6971741,-0.01892976,3.789546,-45.76564,33.73
4,-0.1058501999999999,0.1293182,0.9859314,1.0,-0.1058501999999999,0.1293335,0.9859314,-30.27153,-6.400314,-19.1203,3.93399,0.4650253,0.676722,1.0,-0.1126404,0.1192473999999999,0.9864502,36.5618,-5.488068,-21.19882,4.124542,0.389334,0.6711604999999999,-0.2536883,1.248358,-0.0634146,0.06437036,0.6971741,-0.01892976,3.789546,-45.76564,33.73
4,-0.1098938,0.1288757,0.9855499,1.0,-0.1040344,0.127243,0.9863892,-30.2121,-6.544022,-18.85114,3.968445,0.4628609999999999,0.6789518,1.0,-0.1216736,0.1321563999999999,0.9837189,36.65916,-5.707382,-20.77214,4.129669,0.3879184,0.6719295999999999,-0.2554839,1.248444,-0.06119108,0.06904156,0.6982418,-0.01532931,3.789546,-45.76564,33.73
4,-0.1098938,0.1288757,0.9855499,1.0,-0.1040344,0.127243,0.9863892,-30.2121,-6.544022,-18.85114,3.968445,0.4628609999999999,0.6789518,1.0,-0.1216736,0.1321563999999999,0.9837189,36.65916,-5.707382,-20.77214,4.129669,0.3879184,0.6719295999999999,-0.2554839,1.248444,-0.06119108,0.06904156,0.6982418,-0.01532931,3.789546,-45.76564,33.73
4,-0.1098938,0.1288757,0.9855499,1.0,-0.1040344,0.127243,0.9863892,-30.2121,-6.544022,-18.85114,3.968445,0.4628609999999999,0.6789518,1.0,-0.1216736,0.1321563999999999,0.9837189,36.65916,-5.707382,-20.77214,4.129669,0.3879184,0.6719295999999999,-0.2554839,1.248444,-0.06119108,0.06904156,0.6982418,-0.01532931,3.789546,-45.76564,33.73
4,-0.1033783,0.1231842,0.986969,1.0,-0.1022949,0.1234131,0.9870605,-30.17528,-6.694412,-18.61224,3.991196,0.4614377999999999,0.6818249,1.0,-0.1092529,0.1219635,0.986496,36.60571,-5.569565,-21.12375,4.112778,0.3873942999999999,0.6725571,-0.2581826,1.247814,-0.05680978,0.07919751,0.6996621000000001,-0.00923932,3.789546,-45.76564,33.73
4,-0.1033783,0.1231842,0.986969,1.0,-0.1022949,0.1234131,0.9870605,-30.17528,-6.694412,-18.61224,3.991196,0.4614377999999999,0.6818249,1.0,-0.1092529,0.1219635,0.986496,36.60571,-5.569565,-21.12375,4.112778,0.3873942999999999,0.6725571,-0.2581826,1.247814,-0.05680978,0.07919751,0.6996621000000001,-0.00923932,3.789546,-45.76564,33.73
