Second,eye_comb_direction_x,eye_comb_direction_y,eye_comb_direction_z,eye_r_openness,eye_r_direction_x,eye_r_direction_y,eye_r_direction_z,eye_r_origin_x,eye_r_origin_y,eye_r_origin_z,eye_r_pupil_diameter,eye_r_pupil_position_x,eye_r_pupil_position_y,eye_l_openness,eye_l_direction_x,eye_l_direction_y,eye_l_direction_z,eye_l_origin_x,eye_l_origin_y,eye_l_origin_z,eye_l_pupil_diameter,eye_l_pupil_position_x,eye_l_pupil_position_y,head_position_x,head_position_y,head_position_z,head_rotation_roll,head_rotation_pitch,head_rotation_yaw,EDA,BVP,TMP
0,-0.07121277,0.2514496,0.9652405,1.0,-0.05458069,0.2522125,0.9661255,-29.77928,-6.450439,-18.77058,5.162552,0.4415128,0.6571021,1.0,-0.08888245,0.2505797999999999,0.9640045,36.83456,-5.995819,-20.29706,5.168671,0.3772341,0.6587238000000001,-0.1739397999999999,1.1929379999999998,-0.08806577,0.07124837,0.7128291,-0.08074185,4.211517,1.7029457631901843,32.163496932515336
0,-0.07121277,0.2514496,0.9652405,1.0,-0.05458069,0.2522125,0.9661255,-29.77928,-6.450439,-18.77058,5.162552,0.4415128,0.6571021,1.0,-0.08888245,0.2505797999999999,0.9640045,36.83456,-5.995819,-20.29706,5.168671,0.3772341,0.6587238000000001,-0.1739397999999999,1.1929379999999998,-0.08806577,0.07124837,0.7128291,-0.08074185,4.211517,1.7029457631901843,32.163496932515336
0,-0.07121277,0.2514496,0.9652405,1.0,-0.05458069,0.2522125,0.9661255,-29.77928,-6.450439,-18.77058,5.162552,0.4415128,0.6571021,1.0,-0.08888245,0.2505797999999999,0.9640045,36.83456,-5.995819,-20.29706,5.168671,0.3772341,0.6587238000000001,-0.1739397999999999,1.1929379999999998,-0.08806577,0.07124837,0.7128291,-0.08074185,4.211517,1.7029457631901843,32.163496932515336
0,-0.07121277,0.2514496,0.9652405,1.0,-0.05458069,0.2522125,0.9661255,-29.77928,-6.450439,-18.77058,5.162552,0.4415128,0.6571021,1.0,-0.08888245,0.2505797999999999,0.9640045,36.83456,-5.995819,-20.29706,5.168671,0.3772341,0.6587238000000001,-0.1739397999999999,1.1929379999999998,-0.08806577,0.07124837,0.7128291,-0.08074185,4.211517,1.7029457631901843,32.163496932515336
0,-0.07507324,0.2453308,0.9665222,1.0,-0.06329346,0.2446899,0.9675293,-29.75829,-6.500412,-18.6485,5.094009,0.4422475,0.658569,1.0,-0.08483887,0.2458191,0.9655914,36.84348,-6.000076,-20.29884,5.128571,0.3762827,0.6595439999999999,-0.1738629,1.192972,-0.08807468,0.07112285,0.7128249,-0.08060473,4.211517,1.7029457631901843,32.163496932515336
0,-0.07507324,0.2453308,0.9665222,1.0,-0.06329346,0.2446899,0.9675293,-29.75829,-6.500412,-18.6485,5.094009,0.4422475,0.658569,1.0,-0.08483887,0.2458191,0.9655914,36.84348,-6.000076,-20.29884,5.128571,0.3762827,0.6595439999999999,-0.1738629,1.192972,-0.08807468,0.07112285,0.7128249,-0.08060473,4.211517,1.7029457631901843,32.163496932515336
0,-0.07507324,0.2453308,0.9665222,1.0,-0.06329346,0.2446899,0.9675293,-29.75829,-6.500412,-18.6485,5.094009,0.4422475,0.658569,1.0,-0.08483887,0.2458191,0.9655914,36.84348,-6.000076,-20.29884,5.128571,0.3762827,0.6595439999999999,-0.1738629,1.192972,-0.08807468,0.07112285,0.7128249,-0.08060473,4.211517,1.7029457631901843,32.163496932515336
0,-0.07685852,0.2453612999999999,0.9663696,1.0,-0.06359863,0.2459717,0.9671783000000002,-29.75829,-6.507675,-18.64722,5.088744999999999,0.4423018,0.658569,1.0,-0.08505249,0.2449492999999999,0.9657898,36.853,-6.000076,-20.29884,5.101364,0.3760153,0.659644,-0.1739013999999999,1.19295,-0.08806181,0.07105514,0.7128455,-0.08055591,4.211517,1.7029457631901843,32.163496932515336
0,-0.07685852,0.2453612999999999,0.9663696,1.0,-0.06359863,0.2459717,0.9671783000000002,-29.75829,-6.507675,-18.64722,5.088744999999999,0.4423018,0.658569,1.0,-0.08505249,0.2449492999999999,0.9657898,36.853,-6.000076,-20.29884,5.101364,0.3760153,0.659644,-0.1739013999999999,1.19295,-0.08806181,0.07105514,0.7128455,-0.08055591,4.211517,1.7029457631901843,32.163496932515336
0,-0.07685852,0.2453612999999999,0.9663696,1.0,-0.06359863,0.2459717,0.9671783000000002,-29.75829,-6.507675,-18.64722,5.088744999999999,0.4423018,0.658569,1.0,-0.08505249,0.2449492999999999,0.9657898,36.853,-6.000076,-20.29884,5.101364,0.3760153,0.659644,-0.1739013999999999,1.19295,-0.08806181,0.07105514,0.7128455,-0.08055591,4.211517,1.7029457631901843,32.163496932515336
0,-0.07975769,0.2419586,0.9669952,1.0,-0.06678772,0.2515259,0.9655304,-29.75829,-6.543518,-18.64175,5.029022,0.4428207,0.6587081,1.0,-0.08482361,0.2381897,0.9674988,36.86908,-6.000076,-20.29898,5.0851440000000006,0.3754402,0.6606877,-0.1739155,1.192935,-0.08801371,0.07107559,0.7128336999999999,-0.08065805,4.211517,1.7029457631901843,32.163496932515336
0,-0.07975769,0.2419586,0.9669952,1.0,-0.06678772,0.2515259,0.9655304,-29.75829,-6.543518,-18.64175,5.029022,0.4428207,0.6587081,1.0,-0.08482361,0.2381897,0.9674988,36.86908,-6.000076,-20.29898,5.0851440000000006,0.3754402,0.6606877,-0.1739155,1.192935,-0.08801371,0.07107559,0.7128336999999999,-0.08065805,4.211517,1.7029457631901843,32.163496932515336
0,-0.07975769,0.2419586,0.9669952,1.0,-0.06678772,0.2515259,0.9655304,-29.75829,-6.543518,-18.64175,5.029022,0.4428207,0.6587081,1.0,-0.08482361,0.2381897,0.9674988,36.86908,-6.000076,-20.29898,5.0851440000000006,0.3754402,0.6606877,-0.1739155,1.192935,-0.08801371,0.07107559,0.7128336999999999,-0.08065805,4.211517,1.7029457631901843,32.163496932515336
1,-0.08003235,0.2414703,0.9670868,1.0,-0.0716095,0.2484131,0.9660034,-29.74661,-6.560561999999999,-18.57391,4.990601,0.4432276,0.6590289,1.0,-0.0843811,0.2378844999999999,0.9676056,36.88216,-6.006042,-20.29898,5.038574,0.3749571,0.6608539999999999,-0.1738987,1.192976,-0.08795333,0.07110889,0.7128614000000001,-0.08067192,4.211517,1.7029457631901843,32.163496932515336
1,-0.08003235,0.2414703,0.9670868,1.0,-0.0716095,0.2484131,0.9660034,-29.74661,-6.560561999999999,-18.57391,4.990601,0.4432276,0.6590289,1.0,-0.0843811,0.2378844999999999,0.9676056,36.88216,-6.006042,-20.29898,5.038574,0.3749571,0.6608539999999999,-0.1738987,1.192976,-0.08795333,0.07110889,0.7128614000000001,-0.08067192,4.211517,1.7029457631901843,32.163496932515336
1,-0.08003235,0.2414703,0.9670868,1.0,-0.0716095,0.2484131,0.9660034,-29.74661,-6.560561999999999,-18.57391,4.990601,0.4432276,0.6590289,1.0,-0.0843811,0.2378844999999999,0.9676056,36.88216,-6.006042,-20.29898,5.038574,0.3749571,0.6608539999999999,-0.1738987,1.192976,-0.08795333,0.07110889,0.7128614000000001,-0.08067192,4.211517,1.7029457631901843,32.163496932515336
1,-0.08131409,0.2522583,0.9642334,1.0,-0.07121277,0.2476043999999999,0.9662323,-29.7507,-6.560561999999999,-18.56799,4.946167,0.4433036,0.6590289,1.0,-0.08895874,0.2557831,0.9626312,36.916140000000006,-6.111862,-20.25183,5.028748,0.3746590999999999,0.6609804,-0.173957,1.192891,-0.0879751999999999,0.07115367,0.7128485,-0.0807353,4.211517,1.7029457631901843,32.163496932515336
1,-0.08131409,0.2522583,0.9642334,1.0,-0.07121277,0.2476043999999999,0.9662323,-29.7507,-6.560561999999999,-18.56799,4.946167,0.4433036,0.6590289,1.0,-0.08895874,0.2557831,0.9626312,36.916140000000006,-6.111862,-20.25183,5.028748,0.3746590999999999,0.6609804,-0.173957,1.192891,-0.0879751999999999,0.07115367,0.7128485,-0.0807353,4.211517,1.7029457631901843,32.163496932515336
1,-0.08131409,0.2522583,0.9642334,1.0,-0.07121277,0.2476043999999999,0.9662323,-29.7507,-6.560561999999999,-18.56799,4.946167,0.4433036,0.6590289,1.0,-0.08895874,0.2557831,0.9626312,36.916140000000006,-6.111862,-20.25183,5.028748,0.3746590999999999,0.6609804,-0.173957,1.192891,-0.0879751999999999,0.07115367,0.7128485,-0.0807353,4.211517,1.7029457631901843,32.163496932515336
1,-0.07904053,0.2501984,0.9649506,1.0,-0.07138062,0.2448882999999999,0.9669037,-29.75072,-6.559586,-18.56134,4.943832,0.4433273,0.6593542,1.0,-0.08914185,0.2571869,0.9622345,36.93933,-6.144165,-20.2171,5.008865,0.3739763,0.661405,-0.1739553999999999,1.192872,-0.0880329,0.07119871,0.712829,-0.08070666,4.211517,9.671509,32.163496932515336
1,-0.07904053,0.2501984,0.9649506,1.0,-0.07138062,0.2448882999999999,0.9669037,-29.75072,-6.559586,-18.56134,4.943832,0.4433273,0.6593542,1.0,-0.08914185,0.2571869,0.9622345,36.93933,-6.144165,-20.2171,5.008865,0.3739763,0.661405,-0.1739553999999999,1.192872,-0.0880329,0.07119871,0.712829,-0.08070666,4.211517,9.671509,32.163496932515336
1,-0.07904053,0.2501984,0.9649506,1.0,-0.07138062,0.2448882999999999,0.9669037,-29.75072,-6.559586,-18.56134,4.943832,0.4433273,0.6593542,1.0,-0.08914185,0.2571869,0.9622345,36.93933,-6.144165,-20.2171,5.008865,0.3739763,0.661405,-0.1739553999999999,1.192872,-0.0880329,0.07119871,0.712829,-0.08070666,4.211517,9.671509,32.163496932515336
1,-0.07905579,0.2475739,0.9656372,1.0,-0.07261658,0.2408447,0.9678345,-29.74896,-6.559586,-18.55415,4.912094000000001,0.4434665,0.6598546999999999,1.0,-0.087677,0.256546,0.9625397,36.94818,-6.156723,-20.20001,5.003464,0.3734616,0.6617283,-0.1739391,1.192976,-0.08799356,0.07109435,0.7128849,-0.08060879,4.211517,9.671509,32.163496932515336
1,-0.07905579,0.2475739,0.9656372,1.0,-0.07261658,0.2408447,0.9678345,-29.74896,-6.559586,-18.55415,4.912094000000001,0.4434665,0.6598546999999999,1.0,-0.087677,0.256546,0.9625397,36.94818,-6.156723,-20.20001,5.003464,0.3734616,0.6617283,-0.1739391,1.192976,-0.08799356,0.07109435,0.7128849,-0.08060879,4.211517,9.671509,32.163496932515336
1,-0.07905579,0.2475739,0.9656372,1.0,-0.07261658,0.2408447,0.9678345,-29.74896,-6.559586,-18.55415,4.912094000000001,0.4434665,0.6598546999999999,1.0,-0.087677,0.256546,0.9625397,36.94818,-6.156723,-20.20001,5.003464,0.3734616,0.6617283,-0.1739391,1.192976,-0.08799356,0.07109435,0.7128849,-0.08060879,4.211517,9.671509,32.163496932515336
1,-0.07952881,0.2487183,0.9652863000000002,1.0,-0.07261658,0.2404021999999999,0.9679413,-29.74896,-6.559586,-18.54834,4.912003,0.4434665,0.6598713,1.0,-0.08711243,0.2578278,0.9622498,36.95284,-6.165314,-20.1958,5.004791,0.3732241,0.6617619,-0.1739744999999999,1.192933,-0.0879792,0.07094381,0.7129318,-0.08067448,4.211517,9.671509,32.163496932515336
1,-0.07952881,0.2487183,0.9652863000000002,1.0,-0.07261658,0.2404021999999999,0.9679413,-29.74896,-6.559586,-18.54834,4.912003,0.4434665,0.6598713,1.0,-0.08711243,0.2578278,0.9622498,36.95284,-6.165314,-20.1958,5.004791,0.3732241,0.6617619,-0.1739744999999999,1.192933,-0.0879792,0.07094381,0.7129318,-0.08067448,4.211517,9.671509,32.163496932515336
1,-0.07952881,0.2487183,0.9652863000000002,1.0,-0.07261658,0.2404021999999999,0.9679413,-29.74896,-6.559586,-18.54834,4.912003,0.4434665,0.6598713,1.0,-0.08711243,0.2578278,0.9622498,36.95284,-6.165314,-20.1958,5.004791,0.3732241,0.6617619,-0.1739744999999999,1.192933,-0.0879792,0.07094381,0.7129318,-0.08067448,4.211517,9.671509,32.163496932515336
1,-0.08135986,0.2477416999999999,0.9653931,1.0,-0.07461548,0.2392731,0.9680786,-29.7507,-6.559769,-18.53708,4.912216,0.4438368,0.6599510000000001,1.0,-0.08840942,0.2565918,0.9624634,36.961290000000005,-6.174728,-20.18338,4.987839,0.3731713,0.6621125,-0.1739765,1.192919,-0.08791608,0.07094263,0.7129175999999999,-0.08055816,4.211517,9.671509,32.163496932515336
1,-0.08135986,0.2477416999999999,0.9653931,1.0,-0.07461548,0.2392731,0.9680786,-29.7507,-6.559769,-18.53708,4.912216,0.4438368,0.6599510000000001,1.0,-0.08840942,0.2565918,0.9624634,36.961290000000005,-6.174728,-20.18338,4.987839,0.3731713,0.6621125,-0.1739765,1.192919,-0.08791608,0.07094263,0.7129175999999999,-0.08055816,4.211517,9.671509,32.163496932515336
1,-0.08135986,0.2477416999999999,0.9653931,1.0,-0.07461548,0.2392731,0.9680786,-29.7507,-6.559769,-18.53708,4.912216,0.4438368,0.6599510000000001,1.0,-0.08840942,0.2565918,0.9624634,36.961290000000005,-6.174728,-20.18338,4.987839,0.3731713,0.6621125,-0.1739765,1.192919,-0.08791608,0.07094263,0.7129175999999999,-0.08055816,4.211517,9.671509,32.163496932515336
1,-0.08135986,0.2477416999999999,0.9653931,1.0,-0.07461548,0.2392731,0.9680786,-29.7507,-6.559769,-18.53708,4.912216,0.4438368,0.6599510000000001,1.0,-0.08840942,0.2565918,0.9624634,36.961290000000005,-6.174728,-20.18338,4.987839,0.3731713,0.6621125,-0.1740139,1.192972,-0.08786607,0.07088439,0.7129025,-0.08048748,4.211517,9.671509,32.163496932515336
1,-0.08135986,0.2477416999999999,0.9653931,1.0,-0.07461548,0.2392731,0.9680786,-29.7507,-6.559769,-18.53708,4.912216,0.4438368,0.6599510000000001,1.0,-0.08840942,0.2565918,0.9624634,36.961290000000005,-6.174728,-20.18338,4.987839,0.3731713,0.6621125,-0.1740139,1.192972,-0.08786607,0.07088439,0.7129025,-0.08048748,4.211517,9.671509,32.163496932515336
1,-0.08135986,0.2477416999999999,0.9653931,1.0,-0.07461548,0.2392731,0.9680786,-29.7507,-6.559769,-18.53708,4.912216,0.4438368,0.6599510000000001,1.0,-0.08840942,0.2565918,0.9624634,36.961290000000005,-6.174728,-20.18338,4.987839,0.3731713,0.6621125,-0.1740139,1.192972,-0.08786607,0.07088439,0.7129025,-0.08048748,4.211517,9.671509,32.163496932515336
1,-0.08143616,0.2484283,0.96521,1.0,-0.07524109,0.2397918999999999,0.9678955,-29.75137,-6.5628660000000005,-18.53061,4.940872,0.4439515,0.6599510000000001,1.0,-0.08769226,0.2571259,0.9623871,36.96637,-6.184204,-20.17557,4.988754,0.372896,0.6622557,-0.1739594,1.193051,-0.08781803,0.07084686,0.7128029,-0.08060376,4.211517,9.671509,32.163496932515336
1,-0.08143616,0.2484283,0.96521,1.0,-0.07524109,0.2397918999999999,0.9678955,-29.75137,-6.5628660000000005,-18.53061,4.940872,0.4439515,0.6599510000000001,1.0,-0.08769226,0.2571259,0.9623871,36.96637,-6.184204,-20.17557,4.988754,0.372896,0.6622557,-0.1739594,1.193051,-0.08781803,0.07084686,0.7128029,-0.08060376,4.211517,9.671509,32.163496932515336
1,-0.08143616,0.2484283,0.96521,1.0,-0.07524109,0.2397918999999999,0.9678955,-29.75137,-6.5628660000000005,-18.53061,4.940872,0.4439515,0.6599510000000001,1.0,-0.08769226,0.2571259,0.9623871,36.96637,-6.184204,-20.17557,4.988754,0.372896,0.6622557,-0.1739594,1.193051,-0.08781803,0.07084686,0.7128029,-0.08060376,4.211517,9.671509,32.163496932515336
1,-0.08093262,0.2466431,0.9657135,1.0,-0.0776825,0.2391357,0.967865,-29.75381,-6.564636,-18.52812,4.948135,0.444409,0.6600949,1.0,-0.08442688,0.2546844,0.9633179,36.97894,-6.19101,-20.15176,5.031113,0.3719532,0.6626642,-0.1739752,1.193053,-0.0877451,0.07100412,0.7127414000000001,-0.0807123,4.211517,-21.8049,32.163496932515336
1,-0.08093262,0.2466431,0.9657135,1.0,-0.0776825,0.2391357,0.967865,-29.75381,-6.564636,-18.52812,4.948135,0.444409,0.6600949,1.0,-0.08442688,0.2546844,0.9633179,36.97894,-6.19101,-20.15176,5.031113,0.3719532,0.6626642,-0.1739752,1.193053,-0.0877451,0.07100412,0.7127414000000001,-0.0807123,4.211517,-21.8049,32.163496932515336
1,-0.08093262,0.2466431,0.9657135,1.0,-0.0776825,0.2391357,0.967865,-29.75381,-6.564636,-18.52812,4.948135,0.444409,0.6600949,1.0,-0.08442688,0.2546844,0.9633179,36.97894,-6.19101,-20.15176,5.031113,0.3719532,0.6626642,-0.1739752,1.193053,-0.0877451,0.07100412,0.7127414000000001,-0.0807123,4.211517,-21.8049,32.163496932515336
1,-0.08120728,0.2463379,0.9657593,1.0,-0.07878113,0.2397156,0.9676361,-29.75581,-6.564636,-18.52812,4.988525,0.4446377,0.660072,1.0,-0.08389282,0.2536316,0.9636383,36.98329,-6.193039,-20.14114,5.068954,0.3717185,0.6628395,-0.1739388,1.193064,-0.08773482,0.07113605,0.7125693000000001,-0.08073293,4.211517,-21.8049,32.163496932515336
1,-0.08120728,0.2463379,0.9657593,1.0,-0.07878113,0.2397156,0.9676361,-29.75581,-6.564636,-18.52812,4.988525,0.4446377,0.660072,1.0,-0.08389282,0.2536316,0.9636383,36.98329,-6.193039,-20.14114,5.068954,0.3717185,0.6628395,-0.1739388,1.193064,-0.08773482,0.07113605,0.7125693000000001,-0.08073293,4.211517,-21.8049,32.163496932515336
1,-0.08120728,0.2463379,0.9657593,1.0,-0.07878113,0.2397156,0.9676361,-29.75581,-6.564636,-18.52812,4.988525,0.4446377,0.660072,1.0,-0.08389282,0.2536316,0.9636383,36.98329,-6.193039,-20.14114,5.068954,0.3717185,0.6628395,-0.1739388,1.193064,-0.08773482,0.07113605,0.7125693000000001,-0.08073293,4.211517,-21.8049,32.163496932515336
1,-0.01722717,0.1682587,0.9855804,1.0,-0.008087158,0.177002,0.9841766,-28.972140000000003,-7.910247999999999,-17.40404,5.330521,0.4091727,0.7009373000000001,1.0,-0.0249175999999999,0.1608887,0.9866486,37.58972,-7.114853,-20.21561,5.240417,0.3416074,0.7082501999999999,-0.173751,1.193003,-0.08773178,0.07121984,0.7123798000000001,-0.08082401,4.211517,-21.8049,32.163496932515336
1,-0.01722717,0.1682587,0.9855804,1.0,-0.008087158,0.177002,0.9841766,-28.972140000000003,-7.910247999999999,-17.40404,5.330521,0.4091727,0.7009373000000001,1.0,-0.0249175999999999,0.1608887,0.9866486,37.58972,-7.114853,-20.21561,5.240417,0.3416074,0.7082501999999999,-0.173751,1.193003,-0.08773178,0.07121984,0.7123798000000001,-0.08082401,4.211517,-21.8049,32.163496932515336
1,-0.01722717,0.1682587,0.9855804,1.0,-0.008087158,0.177002,0.9841766,-28.972140000000003,-7.910247999999999,-17.40404,5.330521,0.4091727,0.7009373000000001,1.0,-0.0249175999999999,0.1608887,0.9866486,37.58972,-7.114853,-20.21561,5.240417,0.3416074,0.7082501999999999,-0.173751,1.193003,-0.08773178,0.07121984,0.7123798000000001,-0.08082401,4.211517,-21.8049,32.163496932515336
1,-0.02212524,0.1289825,0.991394,1.0,-0.03259277,0.107666,0.9936371,-28.6548,-7.720366999999999,-19.24673,5.245773000000001,0.4019564,0.7241274000000001,1.0,-0.01377869,0.1459198,0.9891968,37.72112,-7.511841,-20.56714,5.317627,0.3345198,0.7277149,-0.1736344,1.1930379999999998,-0.08759451,0.07127446,0.7122189999999999,-0.08097724,4.211517,-21.8049,32.163496932515336
1,-0.02212524,0.1289825,0.991394,1.0,-0.03259277,0.107666,0.9936371,-28.6548,-7.720366999999999,-19.24673,5.245773000000001,0.4019564,0.7241274000000001,1.0,-0.01377869,0.1459198,0.9891968,37.72112,-7.511841,-20.56714,5.317627,0.3345198,0.7277149,-0.1736344,1.1930379999999998,-0.08759451,0.07127446,0.7122189999999999,-0.08097724,4.211517,-21.8049,32.163496932515336
1,-0.02212524,0.1289825,0.991394,1.0,-0.03259277,0.107666,0.9936371,-28.6548,-7.720366999999999,-19.24673,5.245773000000001,0.4019564,0.7241274000000001,1.0,-0.01377869,0.1459198,0.9891968,37.72112,-7.511841,-20.56714,5.317627,0.3345198,0.7277149,-0.1736344,1.1930379999999998,-0.08759451,0.07127446,0.7122189999999999,-0.08097724,4.211517,-21.8049,32.163496932515336
1,-0.0222168,0.1099701,0.9936829,1.0,-0.02360535,0.1047516,0.9942017,-28.75621,-8.014892999999999,-18.32068,5.278503,0.4041925,0.7245069000000001,1.0,-0.008895874,0.1598358,0.9870911,37.76305,-7.654572,-20.57759,5.262497,0.3322748,0.7302215999999999,-0.1736469,1.192963,-0.08755934,0.07141384,0.7119714,-0.0810283,4.211517,-21.8049,32.163496932515336
1,-0.0222168,0.1099701,0.9936829,1.0,-0.02360535,0.1047516,0.9942017,-28.75621,-8.014892999999999,-18.32068,5.278503,0.4041925,0.7245069000000001,1.0,-0.008895874,0.1598358,0.9870911,37.76305,-7.654572,-20.57759,5.262497,0.3322748,0.7302215999999999,-0.1736469,1.192963,-0.08755934,0.07141384,0.7119714,-0.0810283,4.211517,-21.8049,32.163496932515336
1,-0.0222168,0.1099701,0.9936829,1.0,-0.02360535,0.1047516,0.9942017,-28.75621,-8.014892999999999,-18.32068,5.278503,0.4041925,0.7245069000000001,1.0,-0.008895874,0.1598358,0.9870911,37.76305,-7.654572,-20.57759,5.262497,0.3322748,0.7302215999999999,-0.1736469,1.192963,-0.08755934,0.07141384,0.7119714,-0.0810283,4.211517,-21.8049,32.163496932515336
1,-0.03018188,0.1119843,0.9932404,1.0,-0.03089905,0.1101226999999999,0.9934235,-28.76328,-8.013458,-18.32068,5.259018,0.4055577,0.7236085999999999,1.0,-0.0118866,0.1593475,0.9871368,37.76746,-7.652069,-20.57759,5.26239,0.3326177999999999,0.7302215999999999,-0.1736382999999999,1.192926,-0.08748695,0.07143823,0.7116829000000001,-0.08110057,4.211517,-21.8049,32.163496932515336
1,-0.03018188,0.1119843,0.9932404,1.0,-0.03089905,0.1101226999999999,0.9934235,-28.76328,-8.013458,-18.32068,5.259018,0.4055577,0.7236085999999999,1.0,-0.0118866,0.1593475,0.9871368,37.76746,-7.652069,-20.57759,5.26239,0.3326177999999999,0.7302215999999999,-0.1736382999999999,1.192926,-0.08748695,0.07143823,0.7116829000000001,-0.08110057,4.211517,-21.8049,32.163496932515336
1,-0.03018188,0.1119843,0.9932404,1.0,-0.03089905,0.1101226999999999,0.9934235,-28.76328,-8.013458,-18.32068,5.259018,0.4055577,0.7236085999999999,1.0,-0.0118866,0.1593475,0.9871368,37.76746,-7.652069,-20.57759,5.26239,0.3326177999999999,0.7302215999999999,-0.1736382999999999,1.192926,-0.08748695,0.07143823,0.7116829000000001,-0.08110057,4.211517,-21.8049,32.163496932515336
1,-0.0160675,0.1606445,0.9868774,1.0,-0.02806091,0.1112823,0.9933777,-28.77846,-7.960128999999999,-18.38954,5.199371,0.4055877,0.7223416,1.0,-0.01580811,0.1617279,0.9866943,37.77966,-7.622238,-20.6142,5.270844,0.3328377999999999,0.7292557,-0.1736666,1.192969,-0.08730572,0.07139704,0.7114315999999999,-0.08104862,4.211517,-21.8049,32.163496932515336
1,-0.0160675,0.1606445,0.9868774,1.0,-0.02806091,0.1112823,0.9933777,-28.77846,-7.960128999999999,-18.38954,5.199371,0.4055877,0.7223416,1.0,-0.01580811,0.1617279,0.9866943,37.77966,-7.622238,-20.6142,5.270844,0.3328377999999999,0.7292557,-0.1736666,1.192969,-0.08730572,0.07139704,0.7114315999999999,-0.08104862,4.211517,-21.8049,32.163496932515336
1,-0.0160675,0.1606445,0.9868774,1.0,-0.02806091,0.1112823,0.9933777,-28.77846,-7.960128999999999,-18.38954,5.199371,0.4055877,0.7223416,1.0,-0.01580811,0.1617279,0.9866943,37.77966,-7.622238,-20.6142,5.270844,0.3328377999999999,0.7292557,-0.1736666,1.192969,-0.08730572,0.07139704,0.7114315999999999,-0.08104862,4.211517,-21.8049,32.163496932515336
1,-0.02304077,0.1337433,0.9907379,1.0,-0.02857971,0.1158752,0.9928436,-28.795990000000003,-7.908981,-18.48004,5.156525,0.4061998,0.7208765,1.0,-0.01855469,0.1481171,0.9887848,37.79408,-7.528,-20.66846,5.221664,0.3327609,0.7288668,-0.1737404,1.192962,-0.0872336,0.07117118,0.7111920999999999,-0.08099703,4.211517,11.15384,32.163496932515336
1,-0.02304077,0.1337433,0.9907379,1.0,-0.02857971,0.1158752,0.9928436,-28.795990000000003,-7.908981,-18.48004,5.156525,0.4061998,0.7208765,1.0,-0.01855469,0.1481171,0.9887848,37.79408,-7.528,-20.66846,5.221664,0.3327609,0.7288668,-0.1737404,1.192962,-0.0872336,0.07117118,0.7111920999999999,-0.08099703,4.211517,11.15384,32.163496932515336
1,-0.02304077,0.1337433,0.9907379,1.0,-0.02857971,0.1158752,0.9928436,-28.795990000000003,-7.908981,-18.48004,5.156525,0.4061998,0.7208765,1.0,-0.01855469,0.1481171,0.9887848,37.79408,-7.528,-20.66846,5.221664,0.3327609,0.7288668,-0.1737404,1.192962,-0.0872336,0.07117118,0.7111920999999999,-0.08099703,4.211517,11.15384,32.163496932515336
1,-0.02131653,0.1310577,0.9911346,1.0,-0.02827454,0.1109313999999999,0.9934235,-28.823,-7.708419999999999,-19.01779,5.060272,0.4067583,0.720688,1.0,-0.02124023,0.1313019,0.9911041,37.80853,-7.427795,-20.70982,5.165314,0.3326892,0.7286617,-0.1738006,1.192962,-0.08711463,0.07127195,0.7109316999999999,-0.0810017,4.211517,11.15384,32.163496932515336
1,-0.02131653,0.1310577,0.9911346,1.0,-0.02827454,0.1109313999999999,0.9934235,-28.823,-7.708419999999999,-19.01779,5.060272,0.4067583,0.720688,1.0,-0.02124023,0.1313019,0.9911041,37.80853,-7.427795,-20.70982,5.165314,0.3326892,0.7286617,-0.1738006,1.192962,-0.08711463,0.07127195,0.7109316999999999,-0.0810017,4.211517,11.15384,32.163496932515336
1,-0.02131653,0.1310577,0.9911346,1.0,-0.02827454,0.1109313999999999,0.9934235,-28.823,-7.708419999999999,-19.01779,5.060272,0.4067583,0.720688,1.0,-0.02124023,0.1313019,0.9911041,37.80853,-7.427795,-20.70982,5.165314,0.3326892,0.7286617,-0.1738006,1.192962,-0.08711463,0.07127195,0.7109316999999999,-0.0810017,4.211517,11.15384,32.163496932515336
1,-0.02053833,0.1256409,0.9918518,1.0,-0.02815247,0.1095428,0.993576,-28.83765,-7.615203999999999,-19.13536,4.947266,0.4071438,0.7191015000000001,1.0,-0.02050781,0.1256714,0.9918518,37.81711,-7.378555,-20.77019,5.097214,0.3322459,0.7285010000000001,-0.1737892,1.192973,-0.08704001,0.0713448999999999,0.7106941999999999,-0.08117644,4.211517,11.15384,32.163496932515336
1,-0.02053833,0.1256409,0.9918518,1.0,-0.02815247,0.1095428,0.993576,-28.83765,-7.615203999999999,-19.13536,4.947266,0.4071438,0.7191015000000001,1.0,-0.02050781,0.1256714,0.9918518,37.81711,-7.378555,-20.77019,5.097214,0.3322459,0.7285010000000001,-0.1737892,1.192973,-0.08704001,0.0713448999999999,0.7106941999999999,-0.08117644,4.211517,11.15384,32.163496932515336
1,-0.02053833,0.1256409,0.9918518,1.0,-0.02815247,0.1095428,0.993576,-28.83765,-7.615203999999999,-19.13536,4.947266,0.4071438,0.7191015000000001,1.0,-0.02050781,0.1256714,0.9918518,37.81711,-7.378555,-20.77019,5.097214,0.3322459,0.7285010000000001,-0.1737892,1.192973,-0.08704001,0.0713448999999999,0.7106941999999999,-0.08117644,4.211517,11.15384,32.163496932515336
1,-0.02230835,0.1177673,0.9927826,1.0,-0.02706909,0.1124724999999999,0.9932709,-28.86597,-7.615203999999999,-19.13536,4.687393,0.4079234,0.7182994,1.0,-0.01683044,0.1238403,0.992157,37.8192,-7.324646,-20.82469,4.949523999999999,0.3315859,0.7273795999999999,-0.1737747999999999,1.192979,-0.08688992,0.07128729,0.7105688,-0.08124539,4.211517,11.15384,32.163496932515336
1,-0.02230835,0.1177673,0.9927826,1.0,-0.02706909,0.1124724999999999,0.9932709,-28.86597,-7.615203999999999,-19.13536,4.687393,0.4079234,0.7182994,1.0,-0.01683044,0.1238403,0.992157,37.8192,-7.324646,-20.82469,4.949523999999999,0.3315859,0.7273795999999999,-0.1737747999999999,1.192979,-0.08688992,0.07128729,0.7105688,-0.08124539,4.211517,11.15384,32.163496932515336
1,-0.02230835,0.1177673,0.9927826,1.0,-0.02706909,0.1124724999999999,0.9932709,-28.86597,-7.615203999999999,-19.13536,4.687393,0.4079234,0.7182994,1.0,-0.01683044,0.1238403,0.992157,37.8192,-7.324646,-20.82469,4.949523999999999,0.3315859,0.7273795999999999,-0.1737747999999999,1.192979,-0.08688992,0.07128729,0.7105688,-0.08124539,4.211517,11.15384,32.163496932515336
1,-0.02114868,0.1232147,0.9921417,1.0,-0.02275085,0.09922791,0.9947968,-28.88669,-7.682281,-18.74382,4.601013,0.4081344999999999,0.7182821999999999,1.0,-0.02110291,0.1237488,0.9920807,37.83887,-7.3069,-20.83109,4.801865,0.3317052,0.7266638000000001,-0.1738076,1.193022,-0.08675089,0.0713103,0.7103649999999999,-0.08122592,4.211517,11.15384,32.163496932515336
1,-0.02114868,0.1232147,0.9921417,1.0,-0.02275085,0.09922791,0.9947968,-28.88669,-7.682281,-18.74382,4.601013,0.4081344999999999,0.7182821999999999,1.0,-0.02110291,0.1237488,0.9920807,37.83887,-7.3069,-20.83109,4.801865,0.3317052,0.7266638000000001,-0.1738076,1.193022,-0.08675089,0.0713103,0.7103649999999999,-0.08122592,4.211517,11.15384,32.163496932515336
1,-0.02114868,0.1232147,0.9921417,1.0,-0.02275085,0.09922791,0.9947968,-28.88669,-7.682281,-18.74382,4.601013,0.4081344999999999,0.7182821999999999,1.0,-0.02110291,0.1237488,0.9920807,37.83887,-7.3069,-20.83109,4.801865,0.3317052,0.7266638000000001,-0.1738076,1.193022,-0.08675089,0.0713103,0.7103649999999999,-0.08122592,4.211517,11.15384,32.163496932515336
1,-0.0222168,0.125885,0.9917908,1.0,-0.02165222,0.09886169,0.9948578,-28.89613,-7.689346,-18.72778,4.536514,0.4082794,0.7182960999999999,1.0,-0.0222168,0.1261292,0.9917603000000002,37.83928,-7.301682,-20.82628,4.7570190000000006,0.3319135,0.725979,-0.1738185,1.19299,-0.08659312,0.07126188,0.7102879,-0.08129938,4.211517,10.29912,32.163496932515336
1,-0.0222168,0.125885,0.9917908,1.0,-0.02165222,0.09886169,0.9948578,-28.89613,-7.689346,-18.72778,4.536514,0.4082794,0.7182960999999999,1.0,-0.0222168,0.1261292,0.9917603000000002,37.83928,-7.301682,-20.82628,4.7570190000000006,0.3319135,0.725979,-0.1738185,1.19299,-0.08659312,0.07126188,0.7102879,-0.08129938,4.211517,10.29912,32.163496932515336
1,-0.0222168,0.125885,0.9917908,1.0,-0.02165222,0.09886169,0.9948578,-28.89613,-7.689346,-18.72778,4.536514,0.4082794,0.7182960999999999,1.0,-0.0222168,0.1261292,0.9917603000000002,37.83928,-7.301682,-20.82628,4.7570190000000006,0.3319135,0.725979,-0.1738185,1.19299,-0.08659312,0.07126188,0.7102879,-0.08129938,4.211517,10.29912,32.163496932515336
1,-0.02209473,0.1143646,0.9931793,1.0,-0.02159119,0.09666443,0.9950714,-28.898640000000004,-7.690262,-18.70959,4.511719,0.408361,0.718457,1.0,-0.02253723,0.1302948,0.9912109,37.83803,-7.301682,-20.82603,4.64624,0.3320739,0.7251258,-0.1737801,1.1929379999999998,-0.086537,0.07146242,0.7101959,-0.08146081,4.211517,10.29912,32.163496932515336
1,-0.02209473,0.1143646,0.9931793,1.0,-0.02159119,0.09666443,0.9950714,-28.898640000000004,-7.690262,-18.70959,4.511719,0.408361,0.718457,1.0,-0.02253723,0.1302948,0.9912109,37.83803,-7.301682,-20.82603,4.64624,0.3320739,0.7251258,-0.1737801,1.1929379999999998,-0.086537,0.07146242,0.7101959,-0.08146081,4.211517,10.29912,32.163496932515336
1,-0.02209473,0.1143646,0.9931793,1.0,-0.02159119,0.09666443,0.9950714,-28.898640000000004,-7.690262,-18.70959,4.511719,0.408361,0.718457,1.0,-0.02253723,0.1302948,0.9912109,37.83803,-7.301682,-20.82603,4.64624,0.3320739,0.7251258,-0.1737801,1.1929379999999998,-0.086537,0.07146242,0.7101959,-0.08146081,4.211517,10.29912,32.163496932515336
1,-0.02276611,0.1132507,0.9933014,1.0,-0.02087402,0.09620667,0.9951324,-28.90186,-7.68895,-18.69984,4.500092,0.4083564,0.7183704000000001,1.0,-0.02456665,0.129303,0.9912872,37.83792,-7.301682,-20.8027,4.633545,0.3324445,0.7250196,-0.1738765,1.192894,-0.0863921,0.07141395,0.7100615,-0.08140616,4.211517,10.29912,32.163496932515336
1,-0.02276611,0.1132507,0.9933014,1.0,-0.02087402,0.09620667,0.9951324,-28.90186,-7.68895,-18.69984,4.500092,0.4083564,0.7183704000000001,1.0,-0.02456665,0.129303,0.9912872,37.83792,-7.301682,-20.8027,4.633545,0.3324445,0.7250196,-0.1738765,1.192894,-0.0863921,0.07141395,0.7100615,-0.08140616,4.211517,10.29912,32.163496932515336
1,-0.02276611,0.1132507,0.9933014,1.0,-0.02087402,0.09620667,0.9951324,-28.90186,-7.68895,-18.69984,4.500092,0.4083564,0.7183704000000001,1.0,-0.02456665,0.129303,0.9912872,37.83792,-7.301682,-20.8027,4.633545,0.3324445,0.7250196,-0.1738765,1.192894,-0.0863921,0.07141395,0.7100615,-0.08140616,4.211517,10.29912,32.163496932515336
1,-0.02276611,0.1132507,0.9933014,1.0,-0.02087402,0.09620667,0.9951324,-28.90186,-7.68895,-18.69984,4.500092,0.4083564,0.7183704000000001,1.0,-0.02456665,0.129303,0.9912872,37.83792,-7.301682,-20.8027,4.633545,0.3324445,0.7250196,-0.1738799,1.1929040000000002,-0.08632183,0.07148986,0.709902,-0.08145027,4.211517,10.29912,32.163496932515336
1,-0.02276611,0.1132507,0.9933014,1.0,-0.02087402,0.09620667,0.9951324,-28.90186,-7.68895,-18.69984,4.500092,0.4083564,0.7183704000000001,1.0,-0.02456665,0.129303,0.9912872,37.83792,-7.301682,-20.8027,4.633545,0.3324445,0.7250196,-0.1738799,1.1929040000000002,-0.08632183,0.07148986,0.709902,-0.08145027,4.211517,10.29912,32.163496932515336
1,-0.02276611,0.1132507,0.9933014,1.0,-0.02087402,0.09620667,0.9951324,-28.90186,-7.68895,-18.69984,4.500092,0.4083564,0.7183704000000001,1.0,-0.02456665,0.129303,0.9912872,37.83792,-7.301682,-20.8027,4.633545,0.3324445,0.7250196,-0.1738799,1.1929040000000002,-0.08632183,0.07148986,0.709902,-0.08145027,4.211517,10.29912,32.163496932515336
1,-0.02296448,0.1111298,0.9935303,1.0,-0.02053833,0.09587097,0.9951782,-28.90347,-7.687302000000001,-18.69978,4.500214,0.4083564,0.7183704000000001,1.0,-0.02545166,0.1269379,0.9915771,37.83752,-7.302322,-20.76331,4.633087000000001,0.3326485,0.7249985,-0.1739012999999999,1.192828,-0.08625615,0.07158653,0.7097565,-0.08164138,4.211517,10.29912,32.163496932515336
1,-0.02296448,0.1111298,0.9935303,1.0,-0.02053833,0.09587097,0.9951782,-28.90347,-7.687302000000001,-18.69978,4.500214,0.4083564,0.7183704000000001,1.0,-0.02545166,0.1269379,0.9915771,37.83752,-7.302322,-20.76331,4.633087000000001,0.3326485,0.7249985,-0.1739012999999999,1.192828,-0.08625615,0.07158653,0.7097565,-0.08164138,4.211517,10.29912,32.163496932515336
1,-0.02296448,0.1111298,0.9935303,1.0,-0.02053833,0.09587097,0.9951782,-28.90347,-7.687302000000001,-18.69978,4.500214,0.4083564,0.7183704000000001,1.0,-0.02545166,0.1269379,0.9915771,37.83752,-7.302322,-20.76331,4.633087000000001,0.3326485,0.7249985,-0.1739012999999999,1.192828,-0.08625615,0.07158653,0.7097565,-0.08164138,4.211517,10.29912,32.163496932515336
1,-0.02296448,0.1111298,0.9935303,1.0,-0.02053833,0.09587097,0.9951782,-28.90347,-7.687302000000001,-18.69978,4.500214,0.4083564,0.7183704000000001,1.0,-0.02545166,0.1269379,0.9915771,37.83752,-7.302322,-20.76331,4.633087000000001,0.3326485,0.7249985,-0.1739395,1.192846,-0.0862238999999999,0.07138924,0.7097687,-0.08160643,4.211517,-1.239365,32.163496932515336
1,-0.02296448,0.1111298,0.9935303,1.0,-0.02053833,0.09587097,0.9951782,-28.90347,-7.687302000000001,-18.69978,4.500214,0.4083564,0.7183704000000001,1.0,-0.02545166,0.1269379,0.9915771,37.83752,-7.302322,-20.76331,4.633087000000001,0.3326485,0.7249985,-0.1739395,1.192846,-0.0862238999999999,0.07138924,0.7097687,-0.08160643,4.211517,-1.239365,32.163496932515336
1,-0.02296448,0.1111298,0.9935303,1.0,-0.02053833,0.09587097,0.9951782,-28.90347,-7.687302000000001,-18.69978,4.500214,0.4083564,0.7183704000000001,1.0,-0.02545166,0.1269379,0.9915771,37.83752,-7.302322,-20.76331,4.633087000000001,0.3326485,0.7249985,-0.1739395,1.192846,-0.0862238999999999,0.07138924,0.7097687,-0.08160643,4.211517,-1.239365,32.163496932515336
1,-0.02027893,0.1035156,0.9944153,1.0,-0.02027893,0.1035003999999999,0.9944153,-28.9133,-7.643402,-18.79477,4.236313,0.408627,0.7164371,1.0,-0.02308655,0.1122283999999999,0.9934082,37.7554,-7.379242,-20.13492,4.205566,0.3359614999999999,0.7224756,-0.1738655,1.1929040000000002,-0.08624554,0.07147238,0.7098134,-0.08158497,4.211517,-1.239365,32.163496932515336
1,-0.02027893,0.1035156,0.9944153,1.0,-0.02027893,0.1035003999999999,0.9944153,-28.9133,-7.643402,-18.79477,4.236313,0.408627,0.7164371,1.0,-0.02308655,0.1122283999999999,0.9934082,37.7554,-7.379242,-20.13492,4.205566,0.3359614999999999,0.7224756,-0.1738655,1.1929040000000002,-0.08624554,0.07147238,0.7098134,-0.08158497,4.211517,-1.239365,32.163496932515336
1,-0.02027893,0.1035156,0.9944153,1.0,-0.02027893,0.1035003999999999,0.9944153,-28.9133,-7.643402,-18.79477,4.236313,0.408627,0.7164371,1.0,-0.02308655,0.1122283999999999,0.9934082,37.7554,-7.379242,-20.13492,4.205566,0.3359614999999999,0.7224756,-0.1738655,1.1929040000000002,-0.08624554,0.07147238,0.7098134,-0.08158497,4.211517,-1.239365,32.163496932515336
1,-0.02345276,0.09564209,0.9951324,1.0,-0.000579834,0.07836914,0.9969177,-29.28781,-7.476608000000001,-18.58138,3.985062,0.4174357,0.7126893,1.0,-0.02833557,0.09931946,0.9946442,37.58066,-7.130737,-20.39703,4.097366,0.3423837999999999,0.7190671999999999,-0.1738465,1.192849,-0.08622152,0.07198834,0.7098429,-0.0815503,4.211517,-1.239365,32.163496932515336
1,-0.02345276,0.09564209,0.9951324,1.0,-0.000579834,0.07836914,0.9969177,-29.28781,-7.476608000000001,-18.58138,3.985062,0.4174357,0.7126893,1.0,-0.02833557,0.09931946,0.9946442,37.58066,-7.130737,-20.39703,4.097366,0.3423837999999999,0.7190671999999999,-0.1738465,1.192849,-0.08622152,0.07198834,0.7098429,-0.0815503,4.211517,-1.239365,32.163496932515336
1,-0.02345276,0.09564209,0.9951324,1.0,-0.000579834,0.07836914,0.9969177,-29.28781,-7.476608000000001,-18.58138,3.985062,0.4174357,0.7126893,1.0,-0.02833557,0.09931946,0.9946442,37.58066,-7.130737,-20.39703,4.097366,0.3423837999999999,0.7190671999999999,-0.1738465,1.192849,-0.08622152,0.07198834,0.7098429,-0.0815503,4.211517,-1.239365,32.163496932515336
1,-0.07588196,0.1433867999999999,0.9867401,1.0,-0.02215576,0.1363525,0.9904022,-29.56371,-7.149719,-18.68666,4.0631260000000005,0.4295584,0.6945059,1.0,-0.07749939,0.1436005,0.9865875,37.25874,-6.800033999999999,-20.30649,4.076416,0.3613185,0.7002866999999999,-0.1738983,1.192857,-0.08618641,0.07187672,0.7099017,-0.08148246,4.211517,-1.239365,32.163496932515336
1,-0.07588196,0.1433867999999999,0.9867401,1.0,-0.02215576,0.1363525,0.9904022,-29.56371,-7.149719,-18.68666,4.0631260000000005,0.4295584,0.6945059,1.0,-0.07749939,0.1436005,0.9865875,37.25874,-6.800033999999999,-20.30649,4.076416,0.3613185,0.7002866999999999,-0.1738983,1.192857,-0.08618641,0.07187672,0.7099017,-0.08148246,4.211517,-1.239365,32.163496932515336
1,-0.07588196,0.1433867999999999,0.9867401,1.0,-0.02215576,0.1363525,0.9904022,-29.56371,-7.149719,-18.68666,4.0631260000000005,0.4295584,0.6945059,1.0,-0.07749939,0.1436005,0.9865875,37.25874,-6.800033999999999,-20.30649,4.076416,0.3613185,0.7002866999999999,-0.1738983,1.192857,-0.08618641,0.07187672,0.7099017,-0.08148246,4.211517,-1.239365,32.163496932515336
1,-0.06846619,0.1430053999999999,0.9873505,1.0,-0.01600647,0.1386261,0.9902039,-29.58228,-7.330597,-18.23611,3.869431,0.4293157,0.6951271,1.0,-0.07678223,0.1436615,0.9866333,37.28195,-6.827667,-20.22816,3.998962,0.3605474,0.7002451,-0.1739214999999999,1.192828,-0.08618021,0.07193827,0.7101281,-0.08149564,4.211517,-1.239365,32.163496932515336
1,-0.06846619,0.1430053999999999,0.9873505,1.0,-0.01600647,0.1386261,0.9902039,-29.58228,-7.330597,-18.23611,3.869431,0.4293157,0.6951271,1.0,-0.07678223,0.1436615,0.9866333,37.28195,-6.827667,-20.22816,3.998962,0.3605474,0.7002451,-0.1739214999999999,1.192828,-0.08618021,0.07193827,0.7101281,-0.08149564,4.211517,-1.239365,32.163496932515336
1,-0.06846619,0.1430053999999999,0.9873505,1.0,-0.01600647,0.1386261,0.9902039,-29.58228,-7.330597,-18.23611,3.869431,0.4293157,0.6951271,1.0,-0.07678223,0.1436615,0.9866333,37.28195,-6.827667,-20.22816,3.998962,0.3605474,0.7002451,-0.1739214999999999,1.192828,-0.08618021,0.07193827,0.7101281,-0.08149564,4.211517,-1.239365,32.163496932515336
1,-0.06846619,0.1430053999999999,0.9873505,1.0,-0.01600647,0.1386261,0.9902039,-29.58228,-7.330597,-18.23611,3.869431,0.4293157,0.6951271,1.0,-0.07678223,0.1436615,0.9866333,37.28195,-6.827667,-20.22816,3.998962,0.3605474,0.7002451,-0.1739517,1.192828,-0.08610719,0.07194567,0.7101986,-0.08141957,4.211517,-1.239365,32.163496932515336
1,-0.06846619,0.1430053999999999,0.9873505,1.0,-0.01600647,0.1386261,0.9902039,-29.58228,-7.330597,-18.23611,3.869431,0.4293157,0.6951271,1.0,-0.07678223,0.1436615,0.9866333,37.28195,-6.827667,-20.22816,3.998962,0.3605474,0.7002451,-0.1739517,1.192828,-0.08610719,0.07194567,0.7101986,-0.08141957,4.211517,-16.07353,32.163496932515336
1,-0.06846619,0.1430053999999999,0.9873505,1.0,-0.01600647,0.1386261,0.9902039,-29.58228,-7.330597,-18.23611,3.869431,0.4293157,0.6951271,1.0,-0.07678223,0.1436615,0.9866333,37.28195,-6.827667,-20.22816,3.998962,0.3605474,0.7002451,-0.1739517,1.192828,-0.08610719,0.07194567,0.7101986,-0.08141957,4.211517,-16.07353,32.163496932515336
1,-0.06846619,0.1430053999999999,0.9873505,1.0,-0.01600647,0.1386261,0.9902039,-29.58228,-7.330597,-18.23611,3.869431,0.4293157,0.6951271,1.0,-0.07678223,0.1436615,0.9866333,37.28195,-6.827667,-20.22816,3.998962,0.3605474,0.7002451,-0.1738255,1.192755,-0.08619732,0.07193738,0.7102535,-0.08170111,4.211517,-16.07353,32.163496932515336
1,-0.06846619,0.1430053999999999,0.9873505,1.0,-0.01600647,0.1386261,0.9902039,-29.58228,-7.330597,-18.23611,3.869431,0.4293157,0.6951271,1.0,-0.07678223,0.1436615,0.9866333,37.28195,-6.827667,-20.22816,3.998962,0.3605474,0.7002451,-0.1738255,1.192755,-0.08619732,0.07193738,0.7102535,-0.08170111,4.211517,-16.07353,32.163496932515336
1,-0.06846619,0.1430053999999999,0.9873505,1.0,-0.01600647,0.1386261,0.9902039,-29.58228,-7.330597,-18.23611,3.869431,0.4293157,0.6951271,1.0,-0.07678223,0.1436615,0.9866333,37.28195,-6.827667,-20.22816,3.998962,0.3605474,0.7002451,-0.1738255,1.192755,-0.08619732,0.07193738,0.7102535,-0.08170111,4.211517,-16.07353,32.163496932515336
1,-0.05638123,0.1195831,0.9912109,1.0,-0.01533508,0.1382141,0.9902802,-29.582140000000003,-7.333557000000001,-18.20117,3.816223,0.4292223,0.6948652,1.0,-0.05905151,0.1183624,0.9912109,37.196,-6.640381,-20.4299,3.969528,0.3602392,0.7002866999999999,-0.173755,1.1926219999999998,-0.08631408,0.0719184,0.7102515,-0.08156889,4.211517,-16.07353,32.163496932515336
1,-0.05638123,0.1195831,0.9912109,1.0,-0.01533508,0.1382141,0.9902802,-29.582140000000003,-7.333557000000001,-18.20117,3.816223,0.4292223,0.6948652,1.0,-0.05905151,0.1183624,0.9912109,37.196,-6.640381,-20.4299,3.969528,0.3602392,0.7002866999999999,-0.173755,1.1926219999999998,-0.08631408,0.0719184,0.7102515,-0.08156889,4.211517,-16.07353,32.163496932515336
1,-0.05638123,0.1195831,0.9912109,1.0,-0.01533508,0.1382141,0.9902802,-29.582140000000003,-7.333557000000001,-18.20117,3.816223,0.4292223,0.6948652,1.0,-0.05905151,0.1183624,0.9912109,37.196,-6.640381,-20.4299,3.969528,0.3602392,0.7002866999999999,-0.173755,1.1926219999999998,-0.08631408,0.0719184,0.7102515,-0.08156889,4.211517,-16.07353,32.163496932515336
2,-0.02818298,0.1331023999999999,0.9906921,1.0,-0.01605225,0.1391602,0.9901276,-29.57872,-7.328811999999999,-18.24478,3.742325,0.4292223,0.6949049,1.0,-0.05871582,0.1177367999999999,0.9913025,37.196,-6.633102,-20.44354,3.864594,0.3601957,0.7001702,-0.173755,1.1926219999999998,-0.08631408,0.0719184,0.7102515,-0.08156889,4.211517,-16.07353,32.163496932515336
2,-0.02818298,0.1331023999999999,0.9906921,1.0,-0.01605225,0.1391602,0.9901276,-29.57872,-7.328811999999999,-18.24478,3.742325,0.4292223,0.6949049,1.0,-0.05871582,0.1177367999999999,0.9913025,37.196,-6.633102,-20.44354,3.864594,0.3601957,0.7001702,-0.173755,1.1926219999999998,-0.08631408,0.0719184,0.7102515,-0.08156889,4.211517,-16.07353,32.163496932515336
2,-0.02818298,0.1331023999999999,0.9906921,1.0,-0.01605225,0.1391602,0.9901276,-29.57872,-7.328811999999999,-18.24478,3.742325,0.4292223,0.6949049,1.0,-0.05871582,0.1177367999999999,0.9913025,37.196,-6.633102,-20.44354,3.864594,0.3601957,0.7001702,-0.173755,1.1926219999999998,-0.08631408,0.0719184,0.7102515,-0.08156889,4.211517,-16.07353,32.163496932515336
2,-0.0586853,0.1279602,0.990036,1.0,-0.03335571,0.1293182,0.9910278,-29.49947,-7.019104,-19.0634,3.651993,0.4292202999999999,0.69485,1.0,-0.0586853,0.1279602,0.990036,37.199940000000005,-6.633102,-20.44354,3.803741000000001,0.3601152,0.6984140999999999,-0.1738838,1.192558,-0.08650205,0.07309627,0.7097483,-0.08214498,4.211517,-16.07353,32.163496932515336
2,-0.0586853,0.1279602,0.990036,1.0,-0.03335571,0.1293182,0.9910278,-29.49947,-7.019104,-19.0634,3.651993,0.4292202999999999,0.69485,1.0,-0.0586853,0.1279602,0.990036,37.199940000000005,-6.633102,-20.44354,3.803741000000001,0.3601152,0.6984140999999999,-0.1738838,1.192558,-0.08650205,0.07309627,0.7097483,-0.08214498,4.211517,-16.07353,32.163496932515336
2,-0.0586853,0.1279602,0.990036,1.0,-0.03335571,0.1293182,0.9910278,-29.49947,-7.019104,-19.0634,3.651993,0.4292202999999999,0.69485,1.0,-0.0586853,0.1279602,0.990036,37.199940000000005,-6.633102,-20.44354,3.803741000000001,0.3601152,0.6984140999999999,-0.1738838,1.192558,-0.08650205,0.07309627,0.7097483,-0.08214498,4.211517,-16.07353,32.163496932515336
2,-0.05834961,0.1286621,0.9899597,1.0,-0.03335571,0.1288147,0.9911041,-29.49947,-7.016433999999999,-19.06551,3.638641,0.4292202999999999,0.69485,1.0,-0.05834961,0.1286621,0.9899597,37.199940000000005,-6.633102,-20.44354,3.801849,0.3600622,0.6982973000000001,-0.1739743,1.192565,-0.0865103,0.07485606,0.709403,-0.08390576,4.211517,-24.3638,32.163496932515336
2,-0.05834961,0.1286621,0.9899597,1.0,-0.03335571,0.1288147,0.9911041,-29.49947,-7.016433999999999,-19.06551,3.638641,0.4292202999999999,0.69485,1.0,-0.05834961,0.1286621,0.9899597,37.199940000000005,-6.633102,-20.44354,3.801849,0.3600622,0.6982973000000001,-0.1739743,1.192565,-0.0865103,0.07485606,0.709403,-0.08390576,4.211517,-24.3638,32.163496932515336
2,-0.05834961,0.1286621,0.9899597,1.0,-0.03335571,0.1288147,0.9911041,-29.49947,-7.016433999999999,-19.06551,3.638641,0.4292202999999999,0.69485,1.0,-0.05834961,0.1286621,0.9899597,37.199940000000005,-6.633102,-20.44354,3.801849,0.3600622,0.6982973000000001,-0.1739743,1.192565,-0.0865103,0.07485606,0.709403,-0.08390576,4.211517,-24.3638,32.163496932515336
2,-0.05834961,0.1286621,0.9899597,1.0,-0.03335571,0.1288147,0.9911041,-29.49947,-7.016433999999999,-19.06551,3.638641,0.4292202999999999,0.69485,1.0,-0.05834961,0.1286621,0.9899597,37.199940000000005,-6.633102,-20.44354,3.801849,0.3600622,0.6982973000000001,-0.174389,1.192579,-0.08616257,0.0784383,0.7084646,-0.0869098,4.211517,-24.3638,32.163496932515336
2,-0.05834961,0.1286621,0.9899597,1.0,-0.03335571,0.1288147,0.9911041,-29.49947,-7.016433999999999,-19.06551,3.638641,0.4292202999999999,0.69485,1.0,-0.05834961,0.1286621,0.9899597,37.199940000000005,-6.633102,-20.44354,3.801849,0.3600622,0.6982973000000001,-0.174389,1.192579,-0.08616257,0.0784383,0.7084646,-0.0869098,4.211517,-24.3638,32.163496932515336
2,-0.05834961,0.1286621,0.9899597,1.0,-0.03335571,0.1288147,0.9911041,-29.49947,-7.016433999999999,-19.06551,3.638641,0.4292202999999999,0.69485,1.0,-0.05834961,0.1286621,0.9899597,37.199940000000005,-6.633102,-20.44354,3.801849,0.3600622,0.6982973000000001,-0.174389,1.192579,-0.08616257,0.0784383,0.7084646,-0.0869098,4.211517,-24.3638,32.163496932515336
2,-0.0408783,0.1313019,0.9904938,1.0,-0.03317261,0.1284943,0.9911499,-29.49942,-7.010895,-19.08212,3.512939,0.4292007,0.6947416000000001,1.0,-0.0827179,0.1464691,0.9857483,37.33589,-6.774506,-20.21657,3.776382,0.35991,0.6976566,-0.174389,1.192579,-0.08616257,0.0784383,0.7084646,-0.0869098,4.211517,-24.3638,32.163496932515336
2,-0.0408783,0.1313019,0.9904938,1.0,-0.03317261,0.1284943,0.9911499,-29.49942,-7.010895,-19.08212,3.512939,0.4292007,0.6947416000000001,1.0,-0.0827179,0.1464691,0.9857483,37.33589,-6.774506,-20.21657,3.776382,0.35991,0.6976566,-0.174389,1.192579,-0.08616257,0.0784383,0.7084646,-0.0869098,4.211517,-24.3638,32.163496932515336
2,-0.0408783,0.1313019,0.9904938,1.0,-0.03317261,0.1284943,0.9911499,-29.49942,-7.010895,-19.08212,3.512939,0.4292007,0.6947416000000001,1.0,-0.0827179,0.1464691,0.9857483,37.33589,-6.774506,-20.21657,3.776382,0.35991,0.6976566,-0.174389,1.192579,-0.08616257,0.0784383,0.7084646,-0.0869098,4.211517,-24.3638,32.163496932515336
2,-0.03863525,0.1337433,0.9902496,1.0,-0.03103638,0.1307678,0.990921,-29.4998,-7.010895,-19.08212,3.51413,0.4288737,0.6943879,1.0,-0.08175659,0.1504669,0.9852142,37.34047,-6.774506,-20.21657,3.703079,0.3596477,0.6968963,-0.1768761,1.189893,-0.08500651,0.1099981999999999,0.7015189000000001,-0.1090872,4.129512,-24.3638,32.163496932515336
2,-0.03863525,0.1337433,0.9902496,1.0,-0.03103638,0.1307678,0.990921,-29.4998,-7.010895,-19.08212,3.51413,0.4288737,0.6943879,1.0,-0.08175659,0.1504669,0.9852142,37.34047,-6.774506,-20.21657,3.703079,0.3596477,0.6968963,-0.1768761,1.189893,-0.08500651,0.1099981999999999,0.7015189000000001,-0.1090872,4.129512,-24.3638,32.163496932515336
2,-0.03863525,0.1337433,0.9902496,1.0,-0.03103638,0.1307678,0.990921,-29.4998,-7.010895,-19.08212,3.51413,0.4288737,0.6943879,1.0,-0.08175659,0.1504669,0.9852142,37.34047,-6.774506,-20.21657,3.703079,0.3596477,0.6968963,-0.1768761,1.189893,-0.08500651,0.1099981999999999,0.7015189000000001,-0.1090872,4.129512,-24.3638,32.163496932515336
2,-0.07772827,0.1640777999999999,0.9833679,1.0,-0.01708984,0.150589,0.9884338,-29.3174,-7.339447,-18.39499,3.437469,0.421207,0.694504,1.0,-0.07772827,0.1640777999999999,0.9833679,37.4288,-6.750854,-20.38222,3.55835,0.3560258,0.6954393,-0.1768761,1.189893,-0.08500651,0.1099981999999999,0.7015189000000001,-0.1090872,4.129512,-24.3638,32.163496932515336
2,-0.07772827,0.1640777999999999,0.9833679,1.0,-0.01708984,0.150589,0.9884338,-29.3174,-7.339447,-18.39499,3.437469,0.421207,0.694504,1.0,-0.07772827,0.1640777999999999,0.9833679,37.4288,-6.750854,-20.38222,3.55835,0.3560258,0.6954393,-0.1768761,1.189893,-0.08500651,0.1099981999999999,0.7015189000000001,-0.1090872,4.129512,-24.3638,32.163496932515336
2,-0.07772827,0.1640777999999999,0.9833679,1.0,-0.01708984,0.150589,0.9884338,-29.3174,-7.339447,-18.39499,3.437469,0.421207,0.694504,1.0,-0.07772827,0.1640777999999999,0.9833679,37.4288,-6.750854,-20.38222,3.55835,0.3560258,0.6954393,-0.1768761,1.189893,-0.08500651,0.1099981999999999,0.7015189000000001,-0.1090872,4.129512,-24.3638,32.163496932515336
2,-0.05455017,0.09143066,0.9943085,1.0,-0.03974915,0.06465149,0.9971008,-28.59351,-8.237045,-18.99443,3.379608,0.4013832,0.742664,1.0,-0.05455017,0.09144592,0.9943085,37.39922,-7.691253999999999,-20.76138,3.606735,0.3519895999999999,0.7420511,-0.1810507999999999,1.18074,-0.08279639,0.1733071,0.6813722,-0.1516954999999999,4.129512,-24.3638,32.163496932515336
2,-0.05455017,0.09143066,0.9943085,1.0,-0.03974915,0.06465149,0.9971008,-28.59351,-8.237045,-18.99443,3.379608,0.4013832,0.742664,1.0,-0.05455017,0.09144592,0.9943085,37.39922,-7.691253999999999,-20.76138,3.606735,0.3519895999999999,0.7420511,-0.1810507999999999,1.18074,-0.08279639,0.1733071,0.6813722,-0.1516954999999999,4.129512,-24.3638,32.163496932515336
2,-0.05455017,0.09143066,0.9943085,1.0,-0.03974915,0.06465149,0.9971008,-28.59351,-8.237045,-18.99443,3.379608,0.4013832,0.742664,1.0,-0.05455017,0.09144592,0.9943085,37.39922,-7.691253999999999,-20.76138,3.606735,0.3519895999999999,0.7420511,-0.1810507999999999,1.18074,-0.08279639,0.1733071,0.6813722,-0.1516954999999999,4.129512,-24.3638,32.163496932515336
2,-0.01353455,-0.02758789,0.999527,1.0,-0.01776123,-0.0526885999999999,0.9984436,-28.36537,-8.999985,-18.77898,3.496368,0.3903380999999999,0.7839539000000001,1.0,-0.01329041,-0.02613831,0.9995575,37.38345,-8.350586,-20.894820000000003,3.436371,0.3444345,0.7852932,-0.1810507999999999,1.18074,-0.08279639,0.1733071,0.6813722,-0.1516954999999999,4.129512,11.63951,32.163496932515336
2,-0.01353455,-0.02758789,0.999527,1.0,-0.01776123,-0.0526885999999999,0.9984436,-28.36537,-8.999985,-18.77898,3.496368,0.3903380999999999,0.7839539000000001,1.0,-0.01329041,-0.02613831,0.9995575,37.38345,-8.350586,-20.894820000000003,3.436371,0.3444345,0.7852932,-0.1810507999999999,1.18074,-0.08279639,0.1733071,0.6813722,-0.1516954999999999,4.129512,11.63951,32.163496932515336
2,-0.01353455,-0.02758789,0.999527,1.0,-0.01776123,-0.0526885999999999,0.9984436,-28.36537,-8.999985,-18.77898,3.496368,0.3903380999999999,0.7839539000000001,1.0,-0.01329041,-0.02613831,0.9995575,37.38345,-8.350586,-20.894820000000003,3.436371,0.3444345,0.7852932,-0.1810507999999999,1.18074,-0.08279639,0.1733071,0.6813722,-0.1516954999999999,4.129512,11.63951,32.163496932515336
2,-0.02256775,0.01225281,0.9996643,1.0,-0.01152039,0.006607056,0.9999084,-28.58995,-8.415175999999999,-18.6962,3.554596,0.3968742,0.7545291999999999,1.0,-0.02381897,0.01289368,0.9996185,37.53674,-7.657242,-20.8329,3.481247,0.3419545,0.7548272,-0.1848173,1.17245,-0.07904997,0.224126,0.6602676,-0.1783674999999999,4.129512,11.63951,32.163496932515336
2,-0.02256775,0.01225281,0.9996643,1.0,-0.01152039,0.006607056,0.9999084,-28.58995,-8.415175999999999,-18.6962,3.554596,0.3968742,0.7545291999999999,1.0,-0.02381897,0.01289368,0.9996185,37.53674,-7.657242,-20.8329,3.481247,0.3419545,0.7548272,-0.1848173,1.17245,-0.07904997,0.224126,0.6602676,-0.1783674999999999,4.129512,11.63951,32.163496932515336
2,-0.02256775,0.01225281,0.9996643,1.0,-0.01152039,0.006607056,0.9999084,-28.58995,-8.415175999999999,-18.6962,3.554596,0.3968742,0.7545291999999999,1.0,-0.02381897,0.01289368,0.9996185,37.53674,-7.657242,-20.8329,3.481247,0.3419545,0.7548272,-0.1848173,1.17245,-0.07904997,0.224126,0.6602676,-0.1783674999999999,4.129512,11.63951,32.163496932515336
2,-0.04695129,0.05204773,0.9975281,1.0,-0.03167725,0.05525208,0.9979553,-28.58258,-7.724228,-19.41171,3.412811,0.3996623,0.7321196,1.0,-0.05116272,0.05116272,0.9973755,37.60223,-6.852814,-21.29893,3.3577730000000003,0.3444097,0.7268375,-0.1848173,1.17245,-0.07904997,0.224126,0.6602676,-0.1783674999999999,4.129512,11.63951,32.163496932515336
2,-0.04695129,0.05204773,0.9975281,1.0,-0.03167725,0.05525208,0.9979553,-28.58258,-7.724228,-19.41171,3.412811,0.3996623,0.7321196,1.0,-0.05116272,0.05116272,0.9973755,37.60223,-6.852814,-21.29893,3.3577730000000003,0.3444097,0.7268375,-0.1848173,1.17245,-0.07904997,0.224126,0.6602676,-0.1783674999999999,4.129512,11.63951,32.163496932515336
2,-0.04695129,0.05204773,0.9975281,1.0,-0.03167725,0.05525208,0.9979553,-28.58258,-7.724228,-19.41171,3.412811,0.3996623,0.7321196,1.0,-0.05116272,0.05116272,0.9973755,37.60223,-6.852814,-21.29893,3.3577730000000003,0.3444097,0.7268375,-0.1848173,1.17245,-0.07904997,0.224126,0.6602676,-0.1783674999999999,4.129512,11.63951,32.163496932515336
2,-0.07040405,0.1091003,0.9915314,1.0,-0.03338623,0.0958252,0.9948273,-28.77596,-7.466369999999999,-19.27003,3.367661,0.4063065,0.7158222,1.0,-0.07124329,0.1094055,0.9914398,37.52147,-6.45845,-20.74704,3.40918,0.3515032999999999,0.6984748000000001,-0.1889047999999999,1.16831,-0.07227248,0.2397377999999999,0.6391646,-0.1952389,4.129512,11.63951,32.163496932515336
2,-0.07040405,0.1091003,0.9915314,1.0,-0.03338623,0.0958252,0.9948273,-28.77596,-7.466369999999999,-19.27003,3.367661,0.4063065,0.7158222,1.0,-0.07124329,0.1094055,0.9914398,37.52147,-6.45845,-20.74704,3.40918,0.3515032999999999,0.6984748000000001,-0.1889047999999999,1.16831,-0.07227248,0.2397377999999999,0.6391646,-0.1952389,4.129512,11.63951,32.163496932515336
2,-0.07040405,0.1091003,0.9915314,1.0,-0.03338623,0.0958252,0.9948273,-28.77596,-7.466369999999999,-19.27003,3.367661,0.4063065,0.7158222,1.0,-0.07124329,0.1094055,0.9914398,37.52147,-6.45845,-20.74704,3.40918,0.3515032999999999,0.6984748000000001,-0.1889047999999999,1.16831,-0.07227248,0.2397377999999999,0.6391646,-0.1952389,4.129512,11.63951,32.163496932515336
2,-0.07220459,0.1207428,0.9900513,1.0,-0.0194397,0.1231078999999999,0.9921875,-29.09511,-7.151489,-19.26341,3.292755,0.4142563,0.7013444000000001,1.0,-0.07315063,0.120697,0.989975,37.37291,-6.288589,-20.84499,3.417221,0.356728,0.692076,-0.1914887,1.166426,-0.06886363,0.2467261,0.6278418,-0.2009421,4.129512,12.78748,32.163496932515336
2,-0.07220459,0.1207428,0.9900513,1.0,-0.0194397,0.1231078999999999,0.9921875,-29.09511,-7.151489,-19.26341,3.292755,0.4142563,0.7013444000000001,1.0,-0.07315063,0.120697,0.989975,37.37291,-6.288589,-20.84499,3.417221,0.356728,0.692076,-0.1914887,1.166426,-0.06886363,0.2467261,0.6278418,-0.2009421,4.129512,12.78748,32.163496932515336
2,-0.07220459,0.1207428,0.9900513,1.0,-0.0194397,0.1231078999999999,0.9921875,-29.09511,-7.151489,-19.26341,3.292755,0.4142563,0.7013444000000001,1.0,-0.07315063,0.120697,0.989975,37.37291,-6.288589,-20.84499,3.417221,0.356728,0.692076,-0.1914887,1.166426,-0.06886363,0.2467261,0.6278418,-0.2009421,4.129512,12.78748,32.163496932515336
2,-0.1011658,0.1457672,0.9841156,1.0,-0.02790833,0.151062,0.9881287,-29.37578,-6.873245,-18.89555,3.247421,0.4246260999999999,0.6846616,1.0,-0.1017761,0.1457214,0.9840698,37.19511,-6.026016,-20.74599,3.436417,0.3675036,0.6786509000000001,-0.1951931,1.164762,-0.06558943,0.255303,0.6165281,-0.2057273999999999,4.129512,12.78748,32.163496932515336
2,-0.1011658,0.1457672,0.9841156,1.0,-0.02790833,0.151062,0.9881287,-29.37578,-6.873245,-18.89555,3.247421,0.4246260999999999,0.6846616,1.0,-0.1017761,0.1457214,0.9840698,37.19511,-6.026016,-20.74599,3.436417,0.3675036,0.6786509000000001,-0.1951931,1.164762,-0.06558943,0.255303,0.6165281,-0.2057273999999999,4.129512,12.78748,32.163496932515336
2,-0.1011658,0.1457672,0.9841156,1.0,-0.02790833,0.151062,0.9881287,-29.37578,-6.873245,-18.89555,3.247421,0.4246260999999999,0.6846616,1.0,-0.1017761,0.1457214,0.9840698,37.19511,-6.026016,-20.74599,3.436417,0.3675036,0.6786509000000001,-0.1951931,1.164762,-0.06558943,0.255303,0.6165281,-0.2057273999999999,4.129512,12.78748,32.163496932515336
2,-0.1158142,0.1884154999999999,0.975235,1.0,-0.05462646,0.1595612,0.985672,-29.5475,-6.7310490000000005,-19.04118,3.231262,0.434256,0.6804709,1.0,-0.1160583,0.1885223,0.975174,37.00639,-5.952834999999999,-20.76163,3.362595,0.3762008,0.6694760000000001,-0.1951931,1.164762,-0.06558943,0.255303,0.6165281,-0.2057273999999999,4.129512,12.78748,32.163496932515336
2,-0.1158142,0.1884154999999999,0.975235,1.0,-0.05462646,0.1595612,0.985672,-29.5475,-6.7310490000000005,-19.04118,3.231262,0.434256,0.6804709,1.0,-0.1160583,0.1885223,0.975174,37.00639,-5.952834999999999,-20.76163,3.362595,0.3762008,0.6694760000000001,-0.1951931,1.164762,-0.06558943,0.255303,0.6165281,-0.2057273999999999,4.129512,12.78748,32.163496932515336
2,-0.1158142,0.1884154999999999,0.975235,1.0,-0.05462646,0.1595612,0.985672,-29.5475,-6.7310490000000005,-19.04118,3.231262,0.434256,0.6804709,1.0,-0.1160583,0.1885223,0.975174,37.00639,-5.952834999999999,-20.76163,3.362595,0.3762008,0.6694760000000001,-0.1951931,1.164762,-0.06558943,0.255303,0.6165281,-0.2057273999999999,4.129512,12.78748,32.163496932515336
2,-0.1226043999999999,0.1707153,0.9776459,1.0,-0.05491638,0.1688385,0.9841003,-29.40938,-6.797378999999999,-19.23975,3.312042,0.4299234,0.6829994,1.0,-0.1228484999999999,0.1707306,0.9776154,37.10721,-6.102585,-20.72829,3.518356,0.3738885,0.6771218000000001,-0.2037273,1.162937,-0.06049114,0.2719841,0.6019951,-0.2118063,4.129512,12.78748,32.163496932515336
2,-0.1226043999999999,0.1707153,0.9776459,1.0,-0.05491638,0.1688385,0.9841003,-29.40938,-6.797378999999999,-19.23975,3.312042,0.4299234,0.6829994,1.0,-0.1228484999999999,0.1707306,0.9776154,37.10721,-6.102585,-20.72829,3.518356,0.3738885,0.6771218000000001,-0.2037273,1.162937,-0.06049114,0.2719841,0.6019951,-0.2118063,4.129512,12.78748,32.163496932515336
2,-0.1226043999999999,0.1707153,0.9776459,1.0,-0.05491638,0.1688385,0.9841003,-29.40938,-6.797378999999999,-19.23975,3.312042,0.4299234,0.6829994,1.0,-0.1228484999999999,0.1707306,0.9776154,37.10721,-6.102585,-20.72829,3.518356,0.3738885,0.6771218000000001,-0.2037273,1.162937,-0.06049114,0.2719841,0.6019951,-0.2118063,4.129512,12.78748,32.163496932515336
2,-0.03652954,0.05953979,0.9975433,1.0,-0.02723694,0.03904724,0.9988556,-28.49921,-7.889908,-19.25444,3.335815,0.3963387,0.7383345,1.0,-0.03913879,0.06529236,0.9970856,37.71613,-7.153549000000001,-21.11479,3.523224,0.3387204,0.7325564,-0.2082432,1.162976,-0.05783582,0.2740804,0.5970270999999999,-0.2124511,4.129512,12.78748,32.163496932515336
2,-0.03652954,0.05953979,0.9975433,1.0,-0.02723694,0.03904724,0.9988556,-28.49921,-7.889908,-19.25444,3.335815,0.3963387,0.7383345,1.0,-0.03913879,0.06529236,0.9970856,37.71613,-7.153549000000001,-21.11479,3.523224,0.3387204,0.7325564,-0.2082432,1.162976,-0.05783582,0.2740804,0.5970270999999999,-0.2124511,4.129512,12.78748,32.163496932515336
2,-0.03652954,0.05953979,0.9975433,1.0,-0.02723694,0.03904724,0.9988556,-28.49921,-7.889908,-19.25444,3.335815,0.3963387,0.7383345,1.0,-0.03913879,0.06529236,0.9970856,37.71613,-7.153549000000001,-21.11479,3.523224,0.3387204,0.7325564,-0.2082432,1.162976,-0.05783582,0.2740804,0.5970270999999999,-0.2124511,4.129512,12.78748,32.163496932515336
2,-0.0627594,0.06933594,0.9956055,1.0,-0.0340271,0.06948853,0.996994,-28.68814,-7.587234,-19.53636,3.530289,0.4033155,0.7269654999999999,1.0,-0.06593323,0.06932068,0.9954071,37.58685,-6.79303,-21.01112,3.566574,0.34773,0.7190661,-0.2121027999999999,1.163606,-0.05514127,0.2734761,0.5928788,-0.2110554999999999,4.129512,12.78748,32.163496932515336
2,-0.0627594,0.06933594,0.9956055,1.0,-0.0340271,0.06948853,0.996994,-28.68814,-7.587234,-19.53636,3.530289,0.4033155,0.7269654999999999,1.0,-0.06593323,0.06932068,0.9954071,37.58685,-6.79303,-21.01112,3.566574,0.34773,0.7190661,-0.2121027999999999,1.163606,-0.05514127,0.2734761,0.5928788,-0.2110554999999999,4.129512,12.78748,32.163496932515336
2,-0.0627594,0.06933594,0.9956055,1.0,-0.0340271,0.06948853,0.996994,-28.68814,-7.587234,-19.53636,3.530289,0.4033155,0.7269654999999999,1.0,-0.06593323,0.06932068,0.9954071,37.58685,-6.79303,-21.01112,3.566574,0.34773,0.7190661,-0.2121027999999999,1.163606,-0.05514127,0.2734761,0.5928788,-0.2110554999999999,4.129512,12.78748,32.163496932515336
2,-0.03768921,0.07873535,0.99617,1.0,-0.03729248,0.07911682,0.9961548,-28.85683,-7.598433999999999,-19.23999,3.423065,0.4093865,0.7225628000000001,1.0,-0.05865479,0.05805969,0.996582,37.48309,-6.81076,-20.43918,3.626892,0.3506207,0.7153977,-0.2121027999999999,1.163606,-0.05514127,0.2734761,0.5928788,-0.2110554999999999,4.129512,-1.867523,32.163496932515336
2,-0.03768921,0.07873535,0.99617,1.0,-0.03729248,0.07911682,0.9961548,-28.85683,-7.598433999999999,-19.23999,3.423065,0.4093865,0.7225628000000001,1.0,-0.05865479,0.05805969,0.996582,37.48309,-6.81076,-20.43918,3.626892,0.3506207,0.7153977,-0.2121027999999999,1.163606,-0.05514127,0.2734761,0.5928788,-0.2110554999999999,4.129512,-1.867523,32.163496932515336
2,-0.03768921,0.07873535,0.99617,1.0,-0.03729248,0.07911682,0.9961548,-28.85683,-7.598433999999999,-19.23999,3.423065,0.4093865,0.7225628000000001,1.0,-0.05865479,0.05805969,0.996582,37.48309,-6.81076,-20.43918,3.626892,0.3506207,0.7153977,-0.2121027999999999,1.163606,-0.05514127,0.2734761,0.5928788,-0.2110554999999999,4.129512,-1.867523,32.163496932515336
2,-0.03443909,0.0708313,0.9968872,1.0,-0.03442383,0.07084656,0.9968872,-28.93196,-7.542191000000001,-19.207,3.420151,0.411296,0.7218108,1.0,-0.06401062,0.0615386999999999,0.996048,37.45967,-6.876221000000001,-20.28719,3.644516,0.3524384,0.7153592,-0.2164461,1.164139,-0.05285957,0.2741296,0.5884706000000001,-0.2106931,4.129512,-1.867523,32.163496932515336
2,-0.03443909,0.0708313,0.9968872,1.0,-0.03442383,0.07084656,0.9968872,-28.93196,-7.542191000000001,-19.207,3.420151,0.411296,0.7218108,1.0,-0.06401062,0.0615386999999999,0.996048,37.45967,-6.876221000000001,-20.28719,3.644516,0.3524384,0.7153592,-0.2164461,1.164139,-0.05285957,0.2741296,0.5884706000000001,-0.2106931,4.129512,-1.867523,32.163496932515336
2,-0.03443909,0.0708313,0.9968872,1.0,-0.03442383,0.07084656,0.9968872,-28.93196,-7.542191000000001,-19.207,3.420151,0.411296,0.7218108,1.0,-0.06401062,0.0615386999999999,0.996048,37.45967,-6.876221000000001,-20.28719,3.644516,0.3524384,0.7153592,-0.2164461,1.164139,-0.05285957,0.2741296,0.5884706000000001,-0.2106931,4.129512,-1.867523,32.163496932515336
2,-0.03443909,0.0708313,0.9968872,1.0,-0.03442383,0.07084656,0.9968872,-28.93196,-7.542191000000001,-19.207,3.420151,0.411296,0.7218108,1.0,-0.06401062,0.0615386999999999,0.996048,37.45967,-6.876221000000001,-20.28719,3.644516,0.3524384,0.7153592,-0.2204663,1.164783,-0.05069101,0.2723229,0.5849707,-0.2101336,4.129512,-1.867523,32.163496932515336
2,-0.03443909,0.0708313,0.9968872,1.0,-0.03442383,0.07084656,0.9968872,-28.93196,-7.542191000000001,-19.207,3.420151,0.411296,0.7218108,1.0,-0.06401062,0.0615386999999999,0.996048,37.45967,-6.876221000000001,-20.28719,3.644516,0.3524384,0.7153592,-0.2204663,1.164783,-0.05069101,0.2723229,0.5849707,-0.2101336,4.129512,-1.867523,32.163496932515336
2,-0.03443909,0.0708313,0.9968872,1.0,-0.03442383,0.07084656,0.9968872,-28.93196,-7.542191000000001,-19.207,3.420151,0.411296,0.7218108,1.0,-0.06401062,0.0615386999999999,0.996048,37.45967,-6.876221000000001,-20.28719,3.644516,0.3524384,0.7153592,-0.2204663,1.164783,-0.05069101,0.2723229,0.5849707,-0.2101336,4.129512,-1.867523,32.163496932515336
2,-0.03610229,0.07237244,0.9967194,1.0,-0.03538513,0.0725708,0.9967194,-28.97925,-7.542191000000001,-19.207,3.430984,0.4129409,0.7215604999999999,1.0,-0.06950378,0.06318665,0.995575,37.44952,-6.862839,-20.32008,3.641983,0.3536494,0.7150099,-0.2290866,1.164762,-0.04746062,0.2767000999999999,0.5767691,-0.2119451,4.129512,-1.867523,32.163496932515336
2,-0.03610229,0.07237244,0.9967194,1.0,-0.03538513,0.0725708,0.9967194,-28.97925,-7.542191000000001,-19.207,3.430984,0.4129409,0.7215604999999999,1.0,-0.06950378,0.06318665,0.995575,37.44952,-6.862839,-20.32008,3.641983,0.3536494,0.7150099,-0.2290866,1.164762,-0.04746062,0.2767000999999999,0.5767691,-0.2119451,4.129512,-1.867523,32.163496932515336
2,-0.03610229,0.07237244,0.9967194,1.0,-0.03538513,0.0725708,0.9967194,-28.97925,-7.542191000000001,-19.207,3.430984,0.4129409,0.7215604999999999,1.0,-0.06950378,0.06318665,0.995575,37.44952,-6.862839,-20.32008,3.641983,0.3536494,0.7150099,-0.2290866,1.164762,-0.04746062,0.2767000999999999,0.5767691,-0.2119451,4.129512,-1.867523,32.163496932515336
2,-0.03567505,0.07481384,0.9965515,1.0,-0.03520203,0.07485962,0.9965668,-29.378590000000003,-7.381088,-19.39442,3.527847,0.4254164000000001,0.7182318,1.0,-0.09483337,0.06842041,0.9931335,37.32547,-7.114334,-19.55949,3.721466,0.3625663,0.7144395,-0.2290866,1.164762,-0.04746062,0.2767000999999999,0.5767691,-0.2119451,4.129512,-1.867523,32.163496932515336
2,-0.03567505,0.07481384,0.9965515,1.0,-0.03520203,0.07485962,0.9965668,-29.378590000000003,-7.381088,-19.39442,3.527847,0.4254164000000001,0.7182318,1.0,-0.09483337,0.06842041,0.9931335,37.32547,-7.114334,-19.55949,3.721466,0.3625663,0.7144395,-0.2290866,1.164762,-0.04746062,0.2767000999999999,0.5767691,-0.2119451,4.129512,-1.867523,32.163496932515336
2,-0.03567505,0.07481384,0.9965515,1.0,-0.03520203,0.07485962,0.9965668,-29.378590000000003,-7.381088,-19.39442,3.527847,0.4254164000000001,0.7182318,1.0,-0.09483337,0.06842041,0.9931335,37.32547,-7.114334,-19.55949,3.721466,0.3625663,0.7144395,-0.2290866,1.164762,-0.04746062,0.2767000999999999,0.5767691,-0.2119451,4.129512,-1.867523,32.163496932515336
2,-0.03567505,0.07481384,0.9965515,1.0,-0.03520203,0.07485962,0.9965668,-29.378590000000003,-7.381088,-19.39442,3.527847,0.4254164000000001,0.7182318,1.0,-0.09483337,0.06842041,0.9931335,37.32547,-7.114334,-19.55949,3.721466,0.3625663,0.7144395,-0.2330675,1.164887,-0.04553926,0.27867,0.5724534,-0.2112206,4.129512,-1.867523,32.163496932515336
2,-0.03567505,0.07481384,0.9965515,1.0,-0.03520203,0.07485962,0.9965668,-29.378590000000003,-7.381088,-19.39442,3.527847,0.4254164000000001,0.7182318,1.0,-0.09483337,0.06842041,0.9931335,37.32547,-7.114334,-19.55949,3.721466,0.3625663,0.7144395,-0.2330675,1.164887,-0.04553926,0.27867,0.5724534,-0.2112206,4.129512,-1.867523,32.163496932515336
2,-0.03567505,0.07481384,0.9965515,1.0,-0.03520203,0.07485962,0.9965668,-29.378590000000003,-7.381088,-19.39442,3.527847,0.4254164000000001,0.7182318,1.0,-0.09483337,0.06842041,0.9931335,37.32547,-7.114334,-19.55949,3.721466,0.3625663,0.7144395,-0.2330675,1.164887,-0.04553926,0.27867,0.5724534,-0.2112206,4.129512,-1.867523,32.163496932515336
2,-0.04924011,0.07241821,0.9961548,1.0,-0.04914856,0.07240295,0.9961548,-29.608690000000003,-7.472046000000001,-18.78896,3.65831,0.4351122999999999,0.715324,1.0,-0.1078033,0.08677673,0.9903717,37.07262,-7.209335,-18.86519,3.759903,0.3735668,0.7073335,-0.2366512,1.164831,-0.04371661,0.2811611,0.5683524999999999,-0.2106840999999999,4.129512,-19.61763,33.71
2,-0.04924011,0.07241821,0.9961548,1.0,-0.04914856,0.07240295,0.9961548,-29.608690000000003,-7.472046000000001,-18.78896,3.65831,0.4351122999999999,0.715324,1.0,-0.1078033,0.08677673,0.9903717,37.07262,-7.209335,-18.86519,3.759903,0.3735668,0.7073335,-0.2366512,1.164831,-0.04371661,0.2811611,0.5683524999999999,-0.2106840999999999,4.129512,-19.61763,33.71
2,-0.04924011,0.07241821,0.9961548,1.0,-0.04914856,0.07240295,0.9961548,-29.608690000000003,-7.472046000000001,-18.78896,3.65831,0.4351122999999999,0.715324,1.0,-0.1078033,0.08677673,0.9903717,37.07262,-7.209335,-18.86519,3.759903,0.3735668,0.7073335,-0.2366512,1.164831,-0.04371661,0.2811611,0.5683524999999999,-0.2106840999999999,4.129512,-19.61763,33.71
2,-0.06585693,0.07603455,0.9949188,1.0,-0.06015015,0.07427979,0.9954071,-29.62276,-7.433594,-18.9088,3.6008910000000003,0.4372649,0.7150645,1.0,-0.1162567,0.09135437,0.9889984,37.05769,-7.243514999999999,-18.71149,3.751495,0.3755830999999999,0.7060941999999999,-0.239679,1.16465,-0.04214531,0.2841677,0.5639211,-0.2117695,4.129512,-19.61763,33.71
2,-0.06585693,0.07603455,0.9949188,1.0,-0.06015015,0.07427979,0.9954071,-29.62276,-7.433594,-18.9088,3.6008910000000003,0.4372649,0.7150645,1.0,-0.1162567,0.09135437,0.9889984,37.05769,-7.243514999999999,-18.71149,3.751495,0.3755830999999999,0.7060941999999999,-0.239679,1.16465,-0.04214531,0.2841677,0.5639211,-0.2117695,4.129512,-19.61763,33.71
2,-0.06585693,0.07603455,0.9949188,1.0,-0.06015015,0.07427979,0.9954071,-29.62276,-7.433594,-18.9088,3.6008910000000003,0.4372649,0.7150645,1.0,-0.1162567,0.09135437,0.9889984,37.05769,-7.243514999999999,-18.71149,3.751495,0.3755830999999999,0.7060941999999999,-0.239679,1.16465,-0.04214531,0.2841677,0.5639211,-0.2117695,4.129512,-19.61763,33.71
2,-0.04924011,0.1129303,0.9923706,1.0,-0.04924011,0.1129303,0.9923706,-28.69104,-6.564011,-20.11038,3.49527,0.4058222,0.6933686,1.0,-0.03778076,0.1557464999999999,0.9870605,37.86482,-6.113647,-20.94292,3.753159,0.3347049,0.6819946,-0.2422319,1.164753,-0.04019642,0.284762,0.5587494000000001,-0.2117199,4.129512,-19.61763,33.71
2,-0.04924011,0.1129303,0.9923706,1.0,-0.04924011,0.1129303,0.9923706,-28.69104,-6.564011,-20.11038,3.49527,0.4058222,0.6933686,1.0,-0.03778076,0.1557464999999999,0.9870605,37.86482,-6.113647,-20.94292,3.753159,0.3347049,0.6819946,-0.2422319,1.164753,-0.04019642,0.284762,0.5587494000000001,-0.2117199,4.129512,-19.61763,33.71
2,-0.04924011,0.1129303,0.9923706,1.0,-0.04924011,0.1129303,0.9923706,-28.69104,-6.564011,-20.11038,3.49527,0.4058222,0.6933686,1.0,-0.03778076,0.1557464999999999,0.9870605,37.86482,-6.113647,-20.94292,3.753159,0.3347049,0.6819946,-0.2422319,1.164753,-0.04019642,0.284762,0.5587494000000001,-0.2117199,4.129512,-19.61763,33.71
2,0.1167297,0.2563629,0.9595032,1.0,0.1167297,0.2563629,0.9595032,-27.56013,-6.389404,-19.37312,3.635757,0.3439209,0.6580285,1.0,0.154892,0.2842865,0.9461365,38.94377,-6.005661,-20.28235,3.77478,0.2682643,0.6513765,-0.2433232999999999,1.165938,-0.03775191,0.2799739,0.5532191,-0.2120288999999999,4.129512,-19.61763,33.71
2,0.1167297,0.2563629,0.9595032,1.0,0.1167297,0.2563629,0.9595032,-27.56013,-6.389404,-19.37312,3.635757,0.3439209,0.6580285,1.0,0.154892,0.2842865,0.9461365,38.94377,-6.005661,-20.28235,3.77478,0.2682643,0.6513765,-0.2433232999999999,1.165938,-0.03775191,0.2799739,0.5532191,-0.2120288999999999,4.129512,-19.61763,33.71
2,0.1167297,0.2563629,0.9595032,1.0,0.1167297,0.2563629,0.9595032,-27.56013,-6.389404,-19.37312,3.635757,0.3439209,0.6580285,1.0,0.154892,0.2842865,0.9461365,38.94377,-6.005661,-20.28235,3.77478,0.2682643,0.6513765,-0.2433232999999999,1.165938,-0.03775191,0.2799739,0.5532191,-0.2120288999999999,4.129512,-19.61763,33.71
2,0.1876221,0.3103027,0.9319305,0.9915651,0.1840515,0.3093719,0.9329529,-26.94458,-6.2342830000000005,-19.58009,3.691452,0.3130160999999999,0.6472671999999999,0.9144961,0.2391663,0.3232727,0.9155731,39.56627,-5.8890080000000005,-20.48074,3.817703,0.2324284,0.6440885999999999,-0.24483,1.16743,-0.03497705,0.2740127,0.5406333999999999,-0.2160873,4.129512,25.81616,33.71
2,0.1876221,0.3103027,0.9319305,0.9915651,0.1840515,0.3093719,0.9329529,-26.94458,-6.2342830000000005,-19.58009,3.691452,0.3130160999999999,0.6472671999999999,0.9144961,0.2391663,0.3232727,0.9155731,39.56627,-5.8890080000000005,-20.48074,3.817703,0.2324284,0.6440885999999999,-0.24483,1.16743,-0.03497705,0.2740127,0.5406333999999999,-0.2160873,4.129512,25.81616,33.71
2,0.1876221,0.3103027,0.9319305,0.9915651,0.1840515,0.3093719,0.9329529,-26.94458,-6.2342830000000005,-19.58009,3.691452,0.3130160999999999,0.6472671999999999,0.9144961,0.2391663,0.3232727,0.9155731,39.56627,-5.8890080000000005,-20.48074,3.817703,0.2324284,0.6440885999999999,-0.24483,1.16743,-0.03497705,0.2740127,0.5406333999999999,-0.2160873,4.129512,25.81616,33.71
2,0.1876221,0.3103027,0.9319305,0.9915651,0.1840515,0.3093719,0.9329529,-26.94458,-6.2342830000000005,-19.58009,3.691452,0.3130160999999999,0.6472671999999999,0.9144961,0.2391663,0.3232727,0.9155731,39.56627,-5.8890080000000005,-20.48074,3.817703,0.2324284,0.6440885999999999,-0.24634,1.16973,-0.03136969,0.2621363,0.5247514,-0.2160172999999999,4.129512,25.81616,33.71
2,0.1876221,0.3103027,0.9319305,0.9915651,0.1840515,0.3093719,0.9329529,-26.94458,-6.2342830000000005,-19.58009,3.691452,0.3130160999999999,0.6472671999999999,0.9144961,0.2391663,0.3232727,0.9155731,39.56627,-5.8890080000000005,-20.48074,3.817703,0.2324284,0.6440885999999999,-0.24634,1.16973,-0.03136969,0.2621363,0.5247514,-0.2160172999999999,4.129512,25.81616,33.71
2,0.1876221,0.3103027,0.9319305,0.9915651,0.1840515,0.3093719,0.9329529,-26.94458,-6.2342830000000005,-19.58009,3.691452,0.3130160999999999,0.6472671999999999,0.9144961,0.2391663,0.3232727,0.9155731,39.56627,-5.8890080000000005,-20.48074,3.817703,0.2324284,0.6440885999999999,-0.24634,1.16973,-0.03136969,0.2621363,0.5247514,-0.2160172999999999,4.129512,25.81616,33.71
3,0.2350922,0.3223419,0.9169464,1.0,0.2155457,0.3098297,0.9260254,-26.79393,-5.987808,-19.64264,3.763321,0.3029416,0.640389,1.0,0.2662964,0.3421020999999999,0.901123,39.83156,-5.971085,-20.58565,3.975128,0.2181364,0.6453748,-0.2477094,1.172559,-0.02759472,0.2481139999999999,0.5081571,-0.2144663,4.129512,25.81616,33.71
3,0.2350922,0.3223419,0.9169464,1.0,0.2155457,0.3098297,0.9260254,-26.79393,-5.987808,-19.64264,3.763321,0.3029416,0.640389,1.0,0.2662964,0.3421020999999999,0.901123,39.83156,-5.971085,-20.58565,3.975128,0.2181364,0.6453748,-0.2477094,1.172559,-0.02759472,0.2481139999999999,0.5081571,-0.2144663,4.129512,25.81616,33.71
3,0.2350922,0.3223419,0.9169464,1.0,0.2155457,0.3098297,0.9260254,-26.79393,-5.987808,-19.64264,3.763321,0.3029416,0.640389,1.0,0.2662964,0.3421020999999999,0.901123,39.83156,-5.971085,-20.58565,3.975128,0.2181364,0.6453748,-0.2477094,1.172559,-0.02759472,0.2481139999999999,0.5081571,-0.2144663,4.129512,25.81616,33.71
3,-1.0,-1.0,-1.0,0.7762697,0.0,0.0,0.0,-27.34177,-6.218001999999999,-19.52039,-1.0,0.3973974,0.7565675000000001,0.6344371,0.0,0.0,0.0,39.46854,-6.473053,-19.94795,-1.0,0.2509922,0.7223285,-0.2473944,1.177025,-0.02483845,0.2338752999999999,0.4895911,-0.2147627999999999,4.129512,25.81616,33.71
3,-1.0,-1.0,-1.0,0.7762697,0.0,0.0,0.0,-27.34177,-6.218001999999999,-19.52039,-1.0,0.3973974,0.7565675000000001,0.6344371,0.0,0.0,0.0,39.46854,-6.473053,-19.94795,-1.0,0.2509922,0.7223285,-0.2473944,1.177025,-0.02483845,0.2338752999999999,0.4895911,-0.2147627999999999,4.129512,25.81616,33.71
3,-1.0,-1.0,-1.0,0.7762697,0.0,0.0,0.0,-27.34177,-6.218001999999999,-19.52039,-1.0,0.3973974,0.7565675000000001,0.6344371,0.0,0.0,0.0,39.46854,-6.473053,-19.94795,-1.0,0.2509922,0.7223285,-0.2473944,1.177025,-0.02483845,0.2338752999999999,0.4895911,-0.2147627999999999,4.129512,25.81616,33.71
3,-1.0,-1.0,-1.0,0.1415436,0.0,0.0,0.0,-27.34177,-6.218001999999999,-19.52039,-1.0,-1.0,-1.0,0.0,0.0,0.0,0.0,39.46854,-6.473053,-19.94795,-1.0,-1.0,-1.0,-0.2492353,1.180691,-0.02151209,0.2179438,0.4718054,-0.2138217,4.129512,25.81616,33.71
3,-1.0,-1.0,-1.0,0.1415436,0.0,0.0,0.0,-27.34177,-6.218001999999999,-19.52039,-1.0,-1.0,-1.0,0.0,0.0,0.0,0.0,39.46854,-6.473053,-19.94795,-1.0,-1.0,-1.0,-0.2492353,1.180691,-0.02151209,0.2179438,0.4718054,-0.2138217,4.129512,25.81616,33.71
3,-1.0,-1.0,-1.0,0.1415436,0.0,0.0,0.0,-27.34177,-6.218001999999999,-19.52039,-1.0,-1.0,-1.0,0.0,0.0,0.0,0.0,39.46854,-6.473053,-19.94795,-1.0,-1.0,-1.0,-0.2492353,1.180691,-0.02151209,0.2179438,0.4718054,-0.2138217,4.129512,25.81616,33.71
3,-1.0,-1.0,-1.0,0.162543,0.0,0.0,0.0,-27.34177,-6.218001999999999,-19.52039,-1.0,-1.0,-1.0,0.0,0.0,0.0,0.0,39.46854,-6.473053,-19.94795,-1.0,-1.0,-1.0,-0.2503135999999999,1.184177,-0.0184454,0.2025909,0.455913,-0.2104906,4.129512,25.75864,33.71
3,-1.0,-1.0,-1.0,0.162543,0.0,0.0,0.0,-27.34177,-6.218001999999999,-19.52039,-1.0,-1.0,-1.0,0.0,0.0,0.0,0.0,39.46854,-6.473053,-19.94795,-1.0,-1.0,-1.0,-0.2503135999999999,1.184177,-0.0184454,0.2025909,0.455913,-0.2104906,4.129512,25.75864,33.71
3,-1.0,-1.0,-1.0,0.162543,0.0,0.0,0.0,-27.34177,-6.218001999999999,-19.52039,-1.0,-1.0,-1.0,0.0,0.0,0.0,0.0,39.46854,-6.473053,-19.94795,-1.0,-1.0,-1.0,-0.2503135999999999,1.184177,-0.0184454,0.2025909,0.455913,-0.2104906,4.129512,25.75864,33.71
3,-1.0,-1.0,-1.0,0.1033393,0.0,0.0,0.0,-29.48611,-12.04942,-12.16154,-1.0,0.4493032999999999,0.7543766,0.1832915,0.0,0.0,0.0,38.699740000000006,-6.51828,-20.141070000000003,-1.0,0.2827741,0.6802254,-0.252888,1.190016,-0.01304033,0.1785088,0.4286906,-0.2095822,4.129512,25.75864,33.71
3,-1.0,-1.0,-1.0,0.1033393,0.0,0.0,0.0,-29.48611,-12.04942,-12.16154,-1.0,0.4493032999999999,0.7543766,0.1832915,0.0,0.0,0.0,38.699740000000006,-6.51828,-20.141070000000003,-1.0,0.2827741,0.6802254,-0.252888,1.190016,-0.01304033,0.1785088,0.4286906,-0.2095822,4.129512,25.75864,33.71
3,-1.0,-1.0,-1.0,0.1033393,0.0,0.0,0.0,-29.48611,-12.04942,-12.16154,-1.0,0.4493032999999999,0.7543766,0.1832915,0.0,0.0,0.0,38.699740000000006,-6.51828,-20.141070000000003,-1.0,0.2827741,0.6802254,-0.252888,1.190016,-0.01304033,0.1785088,0.4286906,-0.2095822,4.129512,25.75864,33.71
3,-1.0,-1.0,-1.0,0.5542554,0.0,0.0,0.0,-28.41278,-6.214035,-19.38376,-1.0,0.3798069,0.6472818,0.6732243,0.0,0.0,0.0,38.46582,-6.154922,-20.28703,-1.0,0.2967655,0.6510958,-0.252888,1.190016,-0.01304033,0.1785088,0.4286906,-0.2095822,4.129512,25.75864,33.71
3,-1.0,-1.0,-1.0,0.5542554,0.0,0.0,0.0,-28.41278,-6.214035,-19.38376,-1.0,0.3798069,0.6472818,0.6732243,0.0,0.0,0.0,38.46582,-6.154922,-20.28703,-1.0,0.2967655,0.6510958,-0.252888,1.190016,-0.01304033,0.1785088,0.4286906,-0.2095822,4.129512,25.75864,33.71
3,-1.0,-1.0,-1.0,0.5542554,0.0,0.0,0.0,-28.41278,-6.214035,-19.38376,-1.0,0.3798069,0.6472818,0.6732243,0.0,0.0,0.0,38.46582,-6.154922,-20.28703,-1.0,0.2967655,0.6510958,-0.252888,1.190016,-0.01304033,0.1785088,0.4286906,-0.2095822,4.129512,25.75864,33.71
3,-1.0,-1.0,-1.0,0.2369282,0.0,0.0,0.0,-28.68877,-8.079925999999999,-19.20726,-1.0,0.3986045,0.7585501,0.0,0.0,0.0,0.0,38.1297,-8.165802000000001,-20.09215,-1.0,0.3153250999999999,0.7835274,-0.2541893,1.191758,-0.01091301,0.1700882999999999,0.4187984,-0.210314,4.129512,25.75864,33.71
3,-1.0,-1.0,-1.0,0.2369282,0.0,0.0,0.0,-28.68877,-8.079925999999999,-19.20726,-1.0,0.3986045,0.7585501,0.0,0.0,0.0,0.0,38.1297,-8.165802000000001,-20.09215,-1.0,0.3153250999999999,0.7835274,-0.2541893,1.191758,-0.01091301,0.1700882999999999,0.4187984,-0.210314,4.129512,25.75864,33.71
3,-1.0,-1.0,-1.0,0.2369282,0.0,0.0,0.0,-28.68877,-8.079925999999999,-19.20726,-1.0,0.3986045,0.7585501,0.0,0.0,0.0,0.0,38.1297,-8.165802000000001,-20.09215,-1.0,0.3153250999999999,0.7835274,-0.2541893,1.191758,-0.01091301,0.1700882999999999,0.4187984,-0.210314,4.129512,25.75864,33.71
3,-1.0,-1.0,-1.0,0.1918822999999999,0.0,0.0,0.0,-28.68877,-8.079925999999999,-19.20726,-1.0,-1.0,-1.0,0.0,0.0,0.0,0.0,38.1297,-8.165802000000001,-20.09215,-1.0,-1.0,-1.0,-0.2551612,1.192867,-0.009280503,0.1654461,0.4114538,-0.2083031,4.129512,25.75864,33.71
3,-1.0,-1.0,-1.0,0.1918822999999999,0.0,0.0,0.0,-28.68877,-8.079925999999999,-19.20726,-1.0,-1.0,-1.0,0.0,0.0,0.0,0.0,38.1297,-8.165802000000001,-20.09215,-1.0,-1.0,-1.0,-0.2551612,1.192867,-0.009280503,0.1654461,0.4114538,-0.2083031,4.129512,25.75864,33.71
3,-1.0,-1.0,-1.0,0.1918822999999999,0.0,0.0,0.0,-28.68877,-8.079925999999999,-19.20726,-1.0,-1.0,-1.0,0.0,0.0,0.0,0.0,38.1297,-8.165802000000001,-20.09215,-1.0,-1.0,-1.0,-0.2551612,1.192867,-0.009280503,0.1654461,0.4114538,-0.2083031,4.129512,25.75864,33.71
3,-1.0,-1.0,-1.0,0.150795,0.0,0.0,0.0,-28.68877,-8.079925999999999,-19.20726,-1.0,-1.0,-1.0,0.0,0.0,0.0,0.0,38.1297,-8.165802000000001,-20.09215,-1.0,0.6125527,0.1772046,-0.2557893,1.194256,-0.007613182,0.1642295,0.409398,-0.2053652999999999,4.129512,16.70645,33.71
3,-1.0,-1.0,-1.0,0.150795,0.0,0.0,0.0,-28.68877,-8.079925999999999,-19.20726,-1.0,-1.0,-1.0,0.0,0.0,0.0,0.0,38.1297,-8.165802000000001,-20.09215,-1.0,0.6125527,0.1772046,-0.2557893,1.194256,-0.007613182,0.1642295,0.409398,-0.2053652999999999,4.129512,16.70645,33.71
3,-1.0,-1.0,-1.0,0.150795,0.0,0.0,0.0,-28.68877,-8.079925999999999,-19.20726,-1.0,-1.0,-1.0,0.0,0.0,0.0,0.0,38.1297,-8.165802000000001,-20.09215,-1.0,0.6125527,0.1772046,-0.2557893,1.194256,-0.007613182,0.1642295,0.409398,-0.2053652999999999,4.129512,16.70645,33.71
3,-1.0,-1.0,-1.0,0.125993,0.0,0.0,0.0,-28.68877,-8.079925999999999,-19.20726,-1.0,-1.0,-1.0,0.0,0.0,0.0,0.0,38.1297,-8.165802000000001,-20.09215,-1.0,0.6233193,0.1810157999999999,-0.2557893,1.194256,-0.007613182,0.1642295,0.409398,-0.2053652999999999,4.129512,16.70645,33.71
3,-1.0,-1.0,-1.0,0.125993,0.0,0.0,0.0,-28.68877,-8.079925999999999,-19.20726,-1.0,-1.0,-1.0,0.0,0.0,0.0,0.0,38.1297,-8.165802000000001,-20.09215,-1.0,0.6233193,0.1810157999999999,-0.2557893,1.194256,-0.007613182,0.1642295,0.409398,-0.2053652999999999,4.129512,16.70645,33.71
3,-1.0,-1.0,-1.0,0.125993,0.0,0.0,0.0,-28.68877,-8.079925999999999,-19.20726,-1.0,-1.0,-1.0,0.0,0.0,0.0,0.0,38.1297,-8.165802000000001,-20.09215,-1.0,0.6233193,0.1810157999999999,-0.2557893,1.194256,-0.007613182,0.1642295,0.409398,-0.2053652999999999,4.129512,16.70645,33.71
3,-1.0,-1.0,-1.0,0.07282836,0.0,0.0,0.0,-29.36557,-8.769577,-19.36139,-1.0,0.4390443,0.8038029999999999,0.0,0.0,0.0,0.0,38.1297,-8.165802000000001,-20.09215,-1.0,-1.0,-1.0,-0.2556391,1.195572,-0.007017493,0.1623811,0.4117415,-0.1992517999999999,4.129512,16.70645,33.71
3,-1.0,-1.0,-1.0,0.07282836,0.0,0.0,0.0,-29.36557,-8.769577,-19.36139,-1.0,0.4390443,0.8038029999999999,0.0,0.0,0.0,0.0,38.1297,-8.165802000000001,-20.09215,-1.0,-1.0,-1.0,-0.2556391,1.195572,-0.007017493,0.1623811,0.4117415,-0.1992517999999999,4.129512,16.70645,33.71
3,-1.0,-1.0,-1.0,0.07282836,0.0,0.0,0.0,-29.36557,-8.769577,-19.36139,-1.0,0.4390443,0.8038029999999999,0.0,0.0,0.0,0.0,38.1297,-8.165802000000001,-20.09215,-1.0,-1.0,-1.0,-0.2556391,1.195572,-0.007017493,0.1623811,0.4117415,-0.1992517999999999,4.129512,16.70645,33.71
3,-1.0,-1.0,-1.0,0.6492004,0.0,0.0,0.0,-28.866840000000003,-6.247482,-19.39044,-1.0,0.4006518,0.6610897,0.4644440999999999,0.0,0.0,0.0,38.142990000000005,-5.726532,-23.23917,-1.0,0.3122408,0.6808608,-0.2573422,1.197576,-0.0060497219999999,0.160477,0.4153862,-0.1881769,4.129512,16.70645,33.71
3,-1.0,-1.0,-1.0,0.6492004,0.0,0.0,0.0,-28.866840000000003,-6.247482,-19.39044,-1.0,0.4006518,0.6610897,0.4644440999999999,0.0,0.0,0.0,38.142990000000005,-5.726532,-23.23917,-1.0,0.3122408,0.6808608,-0.2573422,1.197576,-0.0060497219999999,0.160477,0.4153862,-0.1881769,4.129512,16.70645,33.71
3,-1.0,-1.0,-1.0,0.6492004,0.0,0.0,0.0,-28.866840000000003,-6.247482,-19.39044,-1.0,0.4006518,0.6610897,0.4644440999999999,0.0,0.0,0.0,38.142990000000005,-5.726532,-23.23917,-1.0,0.3122408,0.6808608,-0.2573422,1.197576,-0.0060497219999999,0.160477,0.4153862,-0.1881769,4.129512,16.70645,33.71
3,0.04130554,0.1520996,0.9874878,0.9036497,0.04130554,0.1520996,0.9874878,-28.67909,-6.481491,-19.6042,3.804001,0.3912092,0.6798784999999999,0.6854982,-0.008712769,0.2173003999999999,0.976059,38.34561,-6.120833999999999,-23.07378,3.857697,0.3108508,0.6945418000000001,-0.2589315,1.198224,-0.0056622619999999,0.1595951,0.4154715999999999,-0.1853857,4.129512,16.70645,33.71
3,0.04130554,0.1520996,0.9874878,0.9036497,0.04130554,0.1520996,0.9874878,-28.67909,-6.481491,-19.6042,3.804001,0.3912092,0.6798784999999999,0.6854982,-0.008712769,0.2173003999999999,0.976059,38.34561,-6.120833999999999,-23.07378,3.857697,0.3108508,0.6945418000000001,-0.2589315,1.198224,-0.0056622619999999,0.1595951,0.4154715999999999,-0.1853857,4.129512,16.70645,33.71
3,0.04130554,0.1520996,0.9874878,0.9036497,0.04130554,0.1520996,0.9874878,-28.67909,-6.481491,-19.6042,3.804001,0.3912092,0.6798784999999999,0.6854982,-0.008712769,0.2173003999999999,0.976059,38.34561,-6.120833999999999,-23.07378,3.857697,0.3108508,0.6945418000000001,-0.2589315,1.198224,-0.0056622619999999,0.1595951,0.4154715999999999,-0.1853857,4.129512,16.70645,33.71
3,0.04374695,0.1533813,0.9871826,1.0,0.04374695,0.1533813,0.9871826,-28.67868,-6.530212000000001,-19.523770000000003,3.796417,0.3908775,0.6803638000000001,1.0,-0.00378418,0.2175903,0.9760284,38.34843,-6.259964,-22.70564,3.884857,0.3102005,0.6953845000000001,-0.2589315,1.198224,-0.0056622619999999,0.1595951,0.4154715999999999,-0.1853857,4.129512,-29.147,33.71
3,0.04374695,0.1533813,0.9871826,1.0,0.04374695,0.1533813,0.9871826,-28.67868,-6.530212000000001,-19.523770000000003,3.796417,0.3908775,0.6803638000000001,1.0,-0.00378418,0.2175903,0.9760284,38.34843,-6.259964,-22.70564,3.884857,0.3102005,0.6953845000000001,-0.2589315,1.198224,-0.0056622619999999,0.1595951,0.4154715999999999,-0.1853857,4.129512,-29.147,33.71
3,0.04374695,0.1533813,0.9871826,1.0,0.04374695,0.1533813,0.9871826,-28.67868,-6.530212000000001,-19.523770000000003,3.796417,0.3908775,0.6803638000000001,1.0,-0.00378418,0.2175903,0.9760284,38.34843,-6.259964,-22.70564,3.884857,0.3102005,0.6953845000000001,-0.2589315,1.198224,-0.0056622619999999,0.1595951,0.4154715999999999,-0.1853857,4.129512,-29.147,33.71
3,0.03663635,0.1524353,0.9876251,1.0,0.03668213,0.1523437999999999,0.9876404,-28.59732,-6.674759,-19.28613,3.811935,0.3895997,0.6826789000000001,1.0,0.01753235,0.2118377999999999,0.9771423,38.38649,-6.525955000000001,-21.96155,4.019196,0.3064066,0.6974278,-0.2619181,1.199605,-0.003602266,0.1568856,0.4116924,-0.1811418,4.129512,-29.147,33.71
3,0.03663635,0.1524353,0.9876251,1.0,0.03668213,0.1523437999999999,0.9876404,-28.59732,-6.674759,-19.28613,3.811935,0.3895997,0.6826789000000001,1.0,0.01753235,0.2118377999999999,0.9771423,38.38649,-6.525955000000001,-21.96155,4.019196,0.3064066,0.6974278,-0.2619181,1.199605,-0.003602266,0.1568856,0.4116924,-0.1811418,4.129512,-29.147,33.71
3,0.03663635,0.1524353,0.9876251,1.0,0.03668213,0.1523437999999999,0.9876404,-28.59732,-6.674759,-19.28613,3.811935,0.3895997,0.6826789000000001,1.0,0.01753235,0.2118377999999999,0.9771423,38.38649,-6.525955000000001,-21.96155,4.019196,0.3064066,0.6974278,-0.2619181,1.199605,-0.003602266,0.1568856,0.4116924,-0.1811418,4.129512,-29.147,33.71
3,0.01997375,0.1974335,0.9801025,1.0,0.02374268,0.1673888999999999,0.9855957,-28.51833,-6.834442,-19.07625,3.855408,0.3893079,0.6832615,1.0,0.01881409,0.2065887,0.978241,38.40233,-6.533142,-21.89247,4.052567,0.3057537,0.6978439999999999,-0.2630383,1.200485,-0.002771735,0.1551648,0.4102850999999999,-0.1799365,4.129512,-29.147,33.71
3,0.01997375,0.1974335,0.9801025,1.0,0.02374268,0.1673888999999999,0.9855957,-28.51833,-6.834442,-19.07625,3.855408,0.3893079,0.6832615,1.0,0.01881409,0.2065887,0.978241,38.40233,-6.533142,-21.89247,4.052567,0.3057537,0.6978439999999999,-0.2630383,1.200485,-0.002771735,0.1551648,0.4102850999999999,-0.1799365,4.129512,-29.147,33.71
3,0.01997375,0.1974335,0.9801025,1.0,0.02374268,0.1673888999999999,0.9855957,-28.51833,-6.834442,-19.07625,3.855408,0.3893079,0.6832615,1.0,0.01881409,0.2065887,0.978241,38.40233,-6.533142,-21.89247,4.052567,0.3057537,0.6978439999999999,-0.2630383,1.200485,-0.002771735,0.1551648,0.4102850999999999,-0.1799365,4.129512,-29.147,33.71
3,0.02233887,0.201355,0.979248,1.0,0.02116394,0.1662292,0.9858551,-28.49071,-6.891647,-18.91714,3.87973,0.3889716,0.6836523,1.0,0.02244568,0.2044983,0.9785919,38.40393,-6.531799,-21.89247,4.124680000000001,0.305055,0.6982590999999999,-0.2639759,1.201002,-0.002074867,0.1532868,0.4090281,-0.178539,4.129512,-29.147,33.71
3,0.02233887,0.201355,0.979248,1.0,0.02116394,0.1662292,0.9858551,-28.49071,-6.891647,-18.91714,3.87973,0.3889716,0.6836523,1.0,0.02244568,0.2044983,0.9785919,38.40393,-6.531799,-21.89247,4.124680000000001,0.305055,0.6982590999999999,-0.2639759,1.201002,-0.002074867,0.1532868,0.4090281,-0.178539,4.129512,-29.147,33.71
3,0.02233887,0.201355,0.979248,1.0,0.02116394,0.1662292,0.9858551,-28.49071,-6.891647,-18.91714,3.87973,0.3889716,0.6836523,1.0,0.02244568,0.2044983,0.9785919,38.40393,-6.531799,-21.89247,4.124680000000001,0.305055,0.6982590999999999,-0.2639759,1.201002,-0.002074867,0.1532868,0.4090281,-0.178539,4.129512,-29.147,33.71
3,0.0211792,0.1876831,0.9819946,1.0,0.02131653,0.1601105,0.9868622,-28.47488,-6.903046000000001,-18.88293,3.902237,0.3884722,0.6846469000000001,1.0,0.02113342,0.1963654,0.9803009,38.41234,-6.50946,-21.90033,4.15625,0.3049659999999999,0.6989946,-0.2651579,1.201331,-0.002061695,0.1508023,0.4081057,-0.1773177,4.129512,-29.147,33.71
3,0.0211792,0.1876831,0.9819946,1.0,0.02131653,0.1601105,0.9868622,-28.47488,-6.903046000000001,-18.88293,3.902237,0.3884722,0.6846469000000001,1.0,0.02113342,0.1963654,0.9803009,38.41234,-6.50946,-21.90033,4.15625,0.3049659999999999,0.6989946,-0.2651579,1.201331,-0.002061695,0.1508023,0.4081057,-0.1773177,4.129512,-29.147,33.71
3,0.0211792,0.1876831,0.9819946,1.0,0.02131653,0.1601105,0.9868622,-28.47488,-6.903046000000001,-18.88293,3.902237,0.3884722,0.6846469000000001,1.0,0.02113342,0.1963654,0.9803009,38.41234,-6.50946,-21.90033,4.15625,0.3049659999999999,0.6989946,-0.2651579,1.201331,-0.002061695,0.1508023,0.4081057,-0.1773177,4.129512,-29.147,33.71
3,0.0213623,0.1786499,0.9836731,1.0,0.02206421,0.1586609,0.9870758,-28.46921,-6.908539,-18.87717,4.004578,0.3881744,0.685116,1.0,0.02078247,0.1951447,0.980545,38.40717,-6.5224910000000005,-21.8868,4.215758999999999,0.3051864999999999,0.699576,-0.2665502,1.202279,-0.001362056,0.1468706,0.4067887,-0.1758744,4.129512,-257.767,33.71
3,0.0213623,0.1786499,0.9836731,1.0,0.02206421,0.1586609,0.9870758,-28.46921,-6.908539,-18.87717,4.004578,0.3881744,0.685116,1.0,0.02078247,0.1951447,0.980545,38.40717,-6.5224910000000005,-21.8868,4.215758999999999,0.3051864999999999,0.699576,-0.2665502,1.202279,-0.001362056,0.1468706,0.4067887,-0.1758744,4.129512,-257.767,33.71
3,0.0213623,0.1786499,0.9836731,1.0,0.02206421,0.1586609,0.9870758,-28.46921,-6.908539,-18.87717,4.004578,0.3881744,0.685116,1.0,0.02078247,0.1951447,0.980545,38.40717,-6.5224910000000005,-21.8868,4.215758999999999,0.3051864999999999,0.699576,-0.2665502,1.202279,-0.001362056,0.1468706,0.4067887,-0.1758744,4.129512,-257.767,33.71
3,0.02201843,0.1734619,0.9845886,1.0,0.02677917,0.143219,0.9893188,-28.466690000000003,-6.972198,-18.55104,4.099899,0.3875441,0.6864365,1.0,0.01972961,0.1878204,0.9819946,38.40051,-6.532898,-21.81828,4.303513,0.3056362999999999,0.7005294,-0.2675482,1.203192,-0.0008858442,0.143353,0.4056236,-0.1749299,4.084665,-257.767,33.71
3,0.02201843,0.1734619,0.9845886,1.0,0.02677917,0.143219,0.9893188,-28.466690000000003,-6.972198,-18.55104,4.099899,0.3875441,0.6864365,1.0,0.01972961,0.1878204,0.9819946,38.40051,-6.532898,-21.81828,4.303513,0.3056362999999999,0.7005294,-0.2675482,1.203192,-0.0008858442,0.143353,0.4056236,-0.1749299,4.084665,-257.767,33.71
3,0.02201843,0.1734619,0.9845886,1.0,0.02677917,0.143219,0.9893188,-28.466690000000003,-6.972198,-18.55104,4.099899,0.3875441,0.6864365,1.0,0.01972961,0.1878204,0.9819946,38.40051,-6.532898,-21.81828,4.303513,0.3056362999999999,0.7005294,-0.2675482,1.203192,-0.0008858442,0.143353,0.4056236,-0.1749299,4.084665,-257.767,33.71
3,0.0222168,0.1780852999999999,0.9837494,1.0,0.0275115999999999,0.1419067,0.9894867,-28.46506,-6.976883,-18.52196,4.132248000000001,0.3874123,0.6865059,1.0,0.021698,0.1815796,0.9831238,38.39156,-6.556778,-21.65189,4.313537999999999,0.3058307,0.7006041000000001,-0.2684584,1.204071,-0.0006656050999999,0.1401741,0.4055734,-0.1735953999999999,4.084665,-257.767,33.71
3,0.0222168,0.1780852999999999,0.9837494,1.0,0.0275115999999999,0.1419067,0.9894867,-28.46506,-6.976883,-18.52196,4.132248000000001,0.3874123,0.6865059,1.0,0.021698,0.1815796,0.9831238,38.39156,-6.556778,-21.65189,4.313537999999999,0.3058307,0.7006041000000001,-0.2684584,1.204071,-0.0006656050999999,0.1401741,0.4055734,-0.1735953999999999,4.084665,-257.767,33.71
3,0.0222168,0.1780852999999999,0.9837494,1.0,0.0275115999999999,0.1419067,0.9894867,-28.46506,-6.976883,-18.52196,4.132248000000001,0.3874123,0.6865059,1.0,0.021698,0.1815796,0.9831238,38.39156,-6.556778,-21.65189,4.313537999999999,0.3058307,0.7006041000000001,-0.2684584,1.204071,-0.0006656050999999,0.1401741,0.4055734,-0.1735953999999999,4.084665,-257.767,33.71
3,0.0222168,0.1780852999999999,0.9837494,1.0,0.0275115999999999,0.1419067,0.9894867,-28.46506,-6.976883,-18.52196,4.132248000000001,0.3874123,0.6865059,1.0,0.021698,0.1815796,0.9831238,38.39156,-6.556778,-21.65189,4.313537999999999,0.3058307,0.7006041000000001,-0.2690261,1.205076,-0.0004350543,0.1365458,0.4061595999999999,-0.1716615,4.084665,-257.767,33.71
3,0.0222168,0.1780852999999999,0.9837494,1.0,0.0275115999999999,0.1419067,0.9894867,-28.46506,-6.976883,-18.52196,4.132248000000001,0.3874123,0.6865059,1.0,0.021698,0.1815796,0.9831238,38.39156,-6.556778,-21.65189,4.313537999999999,0.3058307,0.7006041000000001,-0.2690261,1.205076,-0.0004350543,0.1365458,0.4061595999999999,-0.1716615,4.084665,-257.767,33.71
3,0.0222168,0.1780852999999999,0.9837494,1.0,0.0275115999999999,0.1419067,0.9894867,-28.46506,-6.976883,-18.52196,4.132248000000001,0.3874123,0.6865059,1.0,0.021698,0.1815796,0.9831238,38.39156,-6.556778,-21.65189,4.313537999999999,0.3058307,0.7006041000000001,-0.2690261,1.205076,-0.0004350543,0.1365458,0.4061595999999999,-0.1716615,4.084665,-257.767,33.71
3,0.02758789,0.1429443,0.9893341,1.0,0.02711487,0.1407013,0.9896698,-28.45644,-6.997330000000001,-18.51009,4.148087,0.3872075999999999,0.6872389,1.0,0.03607178,0.1821289,0.982605,38.3567,-6.972397,-20.67677,4.492858999999999,0.3057229,0.7042695999999999,-0.2694357999999999,1.205948,-0.0005252361,0.1330996,0.4080625,-0.1690752,4.084665,-257.767,33.71
3,0.02758789,0.1429443,0.9893341,1.0,0.02711487,0.1407013,0.9896698,-28.45644,-6.997330000000001,-18.51009,4.148087,0.3872075999999999,0.6872389,1.0,0.03607178,0.1821289,0.982605,38.3567,-6.972397,-20.67677,4.492858999999999,0.3057229,0.7042695999999999,-0.2694357999999999,1.205948,-0.0005252361,0.1330996,0.4080625,-0.1690752,4.084665,-257.767,33.71
3,0.02758789,0.1429443,0.9893341,1.0,0.02711487,0.1407013,0.9896698,-28.45644,-6.997330000000001,-18.51009,4.148087,0.3872075999999999,0.6872389,1.0,0.03607178,0.1821289,0.982605,38.3567,-6.972397,-20.67677,4.492858999999999,0.3057229,0.7042695999999999,-0.2694357999999999,1.205948,-0.0005252361,0.1330996,0.4080625,-0.1690752,4.084665,-257.767,33.71
3,0.02427673,0.1270752,0.9915924,1.0,0.02427673,0.1270752,0.9915924,-28.42621,-7.037766,-18.44453,4.184097,0.3867286,0.6900356,1.0,0.0357666,0.1730499,0.9842529,38.40776,-7.060806,-20.52467,4.478378,0.3045285,0.7068225,-0.2699145,1.206621,-0.0008587836999999,0.1316217999999999,0.4098794,-0.1668912,4.084665,-45.31636,33.71
3,0.02427673,0.1270752,0.9915924,1.0,0.02427673,0.1270752,0.9915924,-28.42621,-7.037766,-18.44453,4.184097,0.3867286,0.6900356,1.0,0.0357666,0.1730499,0.9842529,38.40776,-7.060806,-20.52467,4.478378,0.3045285,0.7068225,-0.2699145,1.206621,-0.0008587836999999,0.1316217999999999,0.4098794,-0.1668912,4.084665,-45.31636,33.71
3,0.02427673,0.1270752,0.9915924,1.0,0.02427673,0.1270752,0.9915924,-28.42621,-7.037766,-18.44453,4.184097,0.3867286,0.6900356,1.0,0.0357666,0.1730499,0.9842529,38.40776,-7.060806,-20.52467,4.478378,0.3045285,0.7068225,-0.2699145,1.206621,-0.0008587836999999,0.1316217999999999,0.4098794,-0.1668912,4.084665,-45.31636,33.71
3,0.02726746,0.1482543999999999,0.9885712,1.0,0.01579285,0.1251221,0.9920044,-28.35291,-7.182877,-18.35567,4.226791,0.3857884,0.6940526,1.0,0.03952026,0.1728668,0.9841461,38.42308,-7.141235000000001,-20.38045,4.505707,0.3035786,0.7080116,-0.2699625,1.206924,-0.001085818,0.1313972,0.4116952999999999,-0.1647293,4.084665,-45.31636,33.71
3,0.02726746,0.1482543999999999,0.9885712,1.0,0.01579285,0.1251221,0.9920044,-28.35291,-7.182877,-18.35567,4.226791,0.3857884,0.6940526,1.0,0.03952026,0.1728668,0.9841461,38.42308,-7.141235000000001,-20.38045,4.505707,0.3035786,0.7080116,-0.2699625,1.206924,-0.001085818,0.1313972,0.4116952999999999,-0.1647293,4.084665,-45.31636,33.71
3,0.02726746,0.1482543999999999,0.9885712,1.0,0.01579285,0.1251221,0.9920044,-28.35291,-7.182877,-18.35567,4.226791,0.3857884,0.6940526,1.0,0.03952026,0.1728668,0.9841461,38.42308,-7.141235000000001,-20.38045,4.505707,0.3035786,0.7080116,-0.2699625,1.206924,-0.001085818,0.1313972,0.4116952999999999,-0.1647293,4.084665,-45.31636,33.71
3,-0.07395935,0.08856201,0.9933167,1.0,-0.0362854,0.07087708,0.9968109,-29.60275,-6.727982000000001,-19.4263,4.272232,0.4326242,0.6995110999999999,1.0,-0.07397461,0.08857727,0.9933167,37.29193,-6.479568,-20.97289,4.542236,0.3586059,0.7064849,-0.2700114999999999,1.206863,-0.001419365,0.1325843,0.4140354,-0.1638204999999999,4.084665,-45.31636,33.71
3,-0.07395935,0.08856201,0.9933167,1.0,-0.0362854,0.07087708,0.9968109,-29.60275,-6.727982000000001,-19.4263,4.272232,0.4326242,0.6995110999999999,1.0,-0.07397461,0.08857727,0.9933167,37.29193,-6.479568,-20.97289,4.542236,0.3586059,0.7064849,-0.2700114999999999,1.206863,-0.001419365,0.1325843,0.4140354,-0.1638204999999999,4.084665,-45.31636,33.71
3,-0.07395935,0.08856201,0.9933167,1.0,-0.0362854,0.07087708,0.9968109,-29.60275,-6.727982000000001,-19.4263,4.272232,0.4326242,0.6995110999999999,1.0,-0.07397461,0.08857727,0.9933167,37.29193,-6.479568,-20.97289,4.542236,0.3586059,0.7064849,-0.2700114999999999,1.206863,-0.001419365,0.1325843,0.4140354,-0.1638204999999999,4.084665,-45.31636,33.71
3,-0.1277313,0.08189392,0.9884186,1.0,-0.1328734999999999,0.0904541,0.9869843,-29.97894,-7.115326,-18.347520000000003,4.358414,0.4598808,0.6980946,1.0,-0.1277313,0.08189392,0.9884186,36.48473,-6.36145,-20.9381,4.490265,0.3938943,0.7035635,-0.2695597,1.206766,-0.001753926,0.1331905,0.4175279,-0.1634172,4.084665,-45.31636,33.71
3,-0.1277313,0.08189392,0.9884186,1.0,-0.1328734999999999,0.0904541,0.9869843,-29.97894,-7.115326,-18.347520000000003,4.358414,0.4598808,0.6980946,1.0,-0.1277313,0.08189392,0.9884186,36.48473,-6.36145,-20.9381,4.490265,0.3938943,0.7035635,-0.2695597,1.206766,-0.001753926,0.1331905,0.4175279,-0.1634172,4.084665,-45.31636,33.71
3,-0.1277313,0.08189392,0.9884186,1.0,-0.1328734999999999,0.0904541,0.9869843,-29.97894,-7.115326,-18.347520000000003,4.358414,0.4598808,0.6980946,1.0,-0.1277313,0.08189392,0.9884186,36.48473,-6.36145,-20.9381,4.490265,0.3938943,0.7035635,-0.2695597,1.206766,-0.001753926,0.1331905,0.4175279,-0.1634172,4.084665,-45.31636,33.71
3,-0.1213378999999999,0.07887268,0.9894562,1.0,-0.134491,0.08955383,0.9868469,-29.92041,-7.276627,-17.86862,4.335648,0.4583474,0.6985248000000001,1.0,-0.1213378999999999,0.07887268,0.9894562,36.5605,-6.369385,-20.91521,4.520523000000001,0.3903729,0.7040539000000001,-0.2689167,1.206452,-0.0027738809999999,0.1347701,0.4238727,-0.162646,4.084665,-45.31636,33.71
3,-0.1213378999999999,0.07887268,0.9894562,1.0,-0.134491,0.08955383,0.9868469,-29.92041,-7.276627,-17.86862,4.335648,0.4583474,0.6985248000000001,1.0,-0.1213378999999999,0.07887268,0.9894562,36.5605,-6.369385,-20.91521,4.520523000000001,0.3903729,0.7040539000000001,-0.2689167,1.206452,-0.0027738809999999,0.1347701,0.4238727,-0.162646,4.084665,-45.31636,33.71
3,-0.1213378999999999,0.07887268,0.9894562,1.0,-0.134491,0.08955383,0.9868469,-29.92041,-7.276627,-17.86862,4.335648,0.4583474,0.6985248000000001,1.0,-0.1213378999999999,0.07887268,0.9894562,36.5605,-6.369385,-20.91521,4.520523000000001,0.3903729,0.7040539000000001,-0.2689167,1.206452,-0.0027738809999999,0.1347701,0.4238727,-0.162646,4.084665,-45.31636,33.71
3,-0.1213378999999999,0.07887268,0.9894562,1.0,-0.134491,0.08955383,0.9868469,-29.92041,-7.276627,-17.86862,4.335648,0.4583474,0.6985248000000001,1.0,-0.1213378999999999,0.07887268,0.9894562,36.5605,-6.369385,-20.91521,4.520523000000001,0.3903729,0.7040539000000001,-0.2689167,1.206452,-0.0027738809999999,0.1347701,0.4238727,-0.162646,4.084665,-45.31636,33.71
3,-0.1213378999999999,0.07887268,0.9894562,1.0,-0.134491,0.08955383,0.9868469,-29.92041,-7.276627,-17.86862,4.335648,0.4583474,0.6985248000000001,1.0,-0.1213378999999999,0.07887268,0.9894562,36.5605,-6.369385,-20.91521,4.520523000000001,0.3903729,0.7040539000000001,-0.2689167,1.206452,-0.0027738809999999,0.1347701,0.4238727,-0.162646,4.084665,-45.31636,33.71
3,-0.1213378999999999,0.07887268,0.9894562,1.0,-0.134491,0.08955383,0.9868469,-29.92041,-7.276627,-17.86862,4.335648,0.4583474,0.6985248000000001,1.0,-0.1213378999999999,0.07887268,0.9894562,36.5605,-6.369385,-20.91521,4.520523000000001,0.3903729,0.7040539000000001,-0.2689167,1.206452,-0.0027738809999999,0.1347701,0.4238727,-0.162646,4.084665,-45.31636,33.71
4,-0.1213378999999999,0.07887268,0.9894562,1.0,-0.134491,0.08955383,0.9868469,-29.92041,-7.276627,-17.86862,4.335648,0.4583474,0.6985248000000001,1.0,-0.1213378999999999,0.07887268,0.9894562,36.5605,-6.369385,-20.91521,4.520523000000001,0.3903729,0.7040539000000001,-0.2685675,1.206866,-0.003140628,0.1338336,0.427171,-0.1616007,4.084665,76.3649,33.71
4,-0.1213378999999999,0.07887268,0.9894562,1.0,-0.134491,0.08955383,0.9868469,-29.92041,-7.276627,-17.86862,4.335648,0.4583474,0.6985248000000001,1.0,-0.1213378999999999,0.07887268,0.9894562,36.5605,-6.369385,-20.91521,4.520523000000001,0.3903729,0.7040539000000001,-0.2685675,1.206866,-0.003140628,0.1338336,0.427171,-0.1616007,4.084665,76.3649,33.71
4,-0.1213378999999999,0.07887268,0.9894562,1.0,-0.134491,0.08955383,0.9868469,-29.92041,-7.276627,-17.86862,4.335648,0.4583474,0.6985248000000001,1.0,-0.1213378999999999,0.07887268,0.9894562,36.5605,-6.369385,-20.91521,4.520523000000001,0.3903729,0.7040539000000001,-0.2685675,1.206866,-0.003140628,0.1338336,0.427171,-0.1616007,4.084665,76.3649,33.71
4,-0.1208801,0.07498169,0.9898224,1.0,-0.1350861,0.09115601,0.986618,-29.88371,-7.407379,-17.50519,4.358855999999999,0.4573236,0.6988055999999999,1.0,-0.1208648999999999,0.07496643,0.9898224,36.586290000000005,-6.372681,-20.90453,4.539276,0.3894361,0.7047113,-0.2683242,1.207506,-0.003584206,0.1328613,0.4298614999999999,-0.1598658999999999,4.084665,76.3649,33.71
4,-0.1208801,0.07498169,0.9898224,1.0,-0.1350861,0.09115601,0.986618,-29.88371,-7.407379,-17.50519,4.358855999999999,0.4573236,0.6988055999999999,1.0,-0.1208648999999999,0.07496643,0.9898224,36.586290000000005,-6.372681,-20.90453,4.539276,0.3894361,0.7047113,-0.2683242,1.207506,-0.003584206,0.1328613,0.4298614999999999,-0.1598658999999999,4.084665,76.3649,33.71
4,-0.1208801,0.07498169,0.9898224,1.0,-0.1350861,0.09115601,0.986618,-29.88371,-7.407379,-17.50519,4.358855999999999,0.4573236,0.6988055999999999,1.0,-0.1208648999999999,0.07496643,0.9898224,36.586290000000005,-6.372681,-20.90453,4.539276,0.3894361,0.7047113,-0.2683242,1.207506,-0.003584206,0.1328613,0.4298614999999999,-0.1598658999999999,4.084665,76.3649,33.71
4,-0.1208801,0.07498169,0.9898224,1.0,-0.1350861,0.09115601,0.986618,-29.88371,-7.407379,-17.50519,4.358855999999999,0.4573236,0.6988055999999999,1.0,-0.1208648999999999,0.07496643,0.9898224,36.586290000000005,-6.372681,-20.90453,4.539276,0.3894361,0.7047113,-0.2682546,1.208109,-0.004012287,0.1316243,0.4327127,-0.1584279,4.084665,76.3649,33.71
4,-0.1208801,0.07498169,0.9898224,1.0,-0.1350861,0.09115601,0.986618,-29.88371,-7.407379,-17.50519,4.358855999999999,0.4573236,0.6988055999999999,1.0,-0.1208648999999999,0.07496643,0.9898224,36.586290000000005,-6.372681,-20.90453,4.539276,0.3894361,0.7047113,-0.2682546,1.208109,-0.004012287,0.1316243,0.4327127,-0.1584279,4.084665,76.3649,33.71
4,-0.1208801,0.07498169,0.9898224,1.0,-0.1350861,0.09115601,0.986618,-29.88371,-7.407379,-17.50519,4.358855999999999,0.4573236,0.6988055999999999,1.0,-0.1208648999999999,0.07496643,0.9898224,36.586290000000005,-6.372681,-20.90453,4.539276,0.3894361,0.7047113,-0.2682546,1.208109,-0.004012287,0.1316243,0.4327127,-0.1584279,4.084665,76.3649,33.71
4,-0.07646179,0.06222534,0.9951171999999998,1.0,-0.04685974,0.05880737,0.9971619,-29.65732,-6.972153,-18.56799,4.370101999999999,0.4362842,0.7003604,1.0,-0.07655334,0.06222534,0.9951171999999998,37.13661,-6.376328,-21.0712,4.507111,0.3641232,0.7082571,-0.2683894,1.2088450000000002,-0.004361123,0.1307492999999999,0.4353167,-0.1564605,4.084665,76.3649,33.71
4,-0.07646179,0.06222534,0.9951171999999998,1.0,-0.04685974,0.05880737,0.9971619,-29.65732,-6.972153,-18.56799,4.370101999999999,0.4362842,0.7003604,1.0,-0.07655334,0.06222534,0.9951171999999998,37.13661,-6.376328,-21.0712,4.507111,0.3641232,0.7082571,-0.2683894,1.2088450000000002,-0.004361123,0.1307492999999999,0.4353167,-0.1564605,4.084665,76.3649,33.71
4,-0.07646179,0.06222534,0.9951171999999998,1.0,-0.04685974,0.05880737,0.9971619,-29.65732,-6.972153,-18.56799,4.370101999999999,0.4362842,0.7003604,1.0,-0.07655334,0.06222534,0.9951171999999998,37.13661,-6.376328,-21.0712,4.507111,0.3641232,0.7082571,-0.2683894,1.2088450000000002,-0.004361123,0.1307492999999999,0.4353167,-0.1564605,4.084665,76.3649,33.71
4,-0.04316711,0.0609436,0.9971924,1.0,-0.04310608,0.0609436,0.9972076,-29.63567,-6.99971,-18.56606,4.375015,0.435021,0.7008564,1.0,-0.072052,0.06092834,0.9955292,37.15996,-6.378830000000001,-21.09053,4.462082,0.3625078,0.7088025,-0.2683791,1.209331,-0.0046553609999999,0.1295281999999999,0.4375551,-0.154521,4.084665,40.75919,33.71
4,-0.04316711,0.0609436,0.9971924,1.0,-0.04310608,0.0609436,0.9972076,-29.63567,-6.99971,-18.56606,4.375015,0.435021,0.7008564,1.0,-0.072052,0.06092834,0.9955292,37.15996,-6.378830000000001,-21.09053,4.462082,0.3625078,0.7088025,-0.2683791,1.209331,-0.0046553609999999,0.1295281999999999,0.4375551,-0.154521,4.084665,40.75919,33.71
4,-0.04316711,0.0609436,0.9971924,1.0,-0.04310608,0.0609436,0.9972076,-29.63567,-6.99971,-18.56606,4.375015,0.435021,0.7008564,1.0,-0.072052,0.06092834,0.9955292,37.15996,-6.378830000000001,-21.09053,4.462082,0.3625078,0.7088025,-0.2683791,1.209331,-0.0046553609999999,0.1295281999999999,0.4375551,-0.154521,4.084665,40.75919,33.71
4,-0.03852844,0.05688477,0.9976349,1.0,-0.03839111,0.05690002,0.9976349,-29.60352,-6.992294,-18.57375,4.372330000000001,0.4332712,0.7013269,1.0,-0.05940247,0.05351257,0.9967957,37.170840000000005,-6.385498,-21.06561,4.499023,0.3600674,0.7100045,-0.268322,1.209967,-0.004876375,0.1276311,0.4394765999999999,-0.1523958999999999,4.084665,40.75919,33.71
4,-0.03852844,0.05688477,0.9976349,1.0,-0.03839111,0.05690002,0.9976349,-29.60352,-6.992294,-18.57375,4.372330000000001,0.4332712,0.7013269,1.0,-0.05940247,0.05351257,0.9967957,37.170840000000005,-6.385498,-21.06561,4.499023,0.3600674,0.7100045,-0.268322,1.209967,-0.004876375,0.1276311,0.4394765999999999,-0.1523958999999999,4.084665,40.75919,33.71
4,-0.03852844,0.05688477,0.9976349,1.0,-0.03839111,0.05690002,0.9976349,-29.60352,-6.992294,-18.57375,4.372330000000001,0.4332712,0.7013269,1.0,-0.05940247,0.05351257,0.9967957,37.170840000000005,-6.385498,-21.06561,4.499023,0.3600674,0.7100045,-0.268322,1.209967,-0.004876375,0.1276311,0.4394765999999999,-0.1523958999999999,4.084665,40.75919,33.71
4,-0.04164124,0.06082153,0.9972687,1.0,-0.03720093,0.05969238,0.9975128,-29.56448,-7.012955000000001,-18.564120000000003,4.369049,0.4318657999999999,0.7014288000000001,1.0,-0.08848572,0.07266235,0.9934082,37.39008,-6.626312,-20.75244,4.541992,0.3579106999999999,0.7115526999999999,-0.2686304,1.210621,-0.005090177,0.1261788,0.4412081,-0.1506462999999999,4.084665,40.75919,33.71
4,-0.04164124,0.06082153,0.9972687,1.0,-0.03720093,0.05969238,0.9975128,-29.56448,-7.012955000000001,-18.564120000000003,4.369049,0.4318657999999999,0.7014288000000001,1.0,-0.08848572,0.07266235,0.9934082,37.39008,-6.626312,-20.75244,4.541992,0.3579106999999999,0.7115526999999999,-0.2686304,1.210621,-0.005090177,0.1261788,0.4412081,-0.1506462999999999,4.084665,40.75919,33.71
4,-0.04164124,0.06082153,0.9972687,1.0,-0.03720093,0.05969238,0.9975128,-29.56448,-7.012955000000001,-18.564120000000003,4.369049,0.4318657999999999,0.7014288000000001,1.0,-0.08848572,0.07266235,0.9934082,37.39008,-6.626312,-20.75244,4.541992,0.3579106999999999,0.7115526999999999,-0.2686304,1.210621,-0.005090177,0.1261788,0.4412081,-0.1506462999999999,4.084665,40.75919,33.71
4,-0.0302887,0.05577087,0.9979706,1.0,-0.02839661,0.05529785,0.9980621,-29.498890000000003,-7.025131,-18.55209,4.415756,0.4284275999999999,0.7024083999999999,1.0,-0.08609009,0.06973267,0.9938354,37.41049,-6.634078999999999,-20.73666,4.562241,0.3568512,0.7121241999999999,-0.2689382999999999,1.210971,-0.005222142,0.1256895999999999,0.4425529,-0.1487582999999999,4.084665,40.75919,33.71
4,-0.0302887,0.05577087,0.9979706,1.0,-0.02839661,0.05529785,0.9980621,-29.498890000000003,-7.025131,-18.55209,4.415756,0.4284275999999999,0.7024083999999999,1.0,-0.08609009,0.06973267,0.9938354,37.41049,-6.634078999999999,-20.73666,4.562241,0.3568512,0.7121241999999999,-0.2689382999999999,1.210971,-0.005222142,0.1256895999999999,0.4425529,-0.1487582999999999,4.084665,40.75919,33.71
4,-0.0302887,0.05577087,0.9979706,1.0,-0.02839661,0.05529785,0.9980621,-29.498890000000003,-7.025131,-18.55209,4.415756,0.4284275999999999,0.7024083999999999,1.0,-0.08609009,0.06973267,0.9938354,37.41049,-6.634078999999999,-20.73666,4.562241,0.3568512,0.7121241999999999,-0.2689382999999999,1.210971,-0.005222142,0.1256895999999999,0.4425529,-0.1487582999999999,4.084665,40.75919,33.71
4,-0.1513214,0.1109466999999999,0.9822235,1.0,-0.1513519,0.1109618999999999,0.9822235,-30.16756,-7.213867,-18.002489999999998,4.514404,0.468679,0.6949026999999999,1.0,-0.1123962,0.09500122,0.9891052,36.21982,-6.421478,-20.59459,4.560364,0.400444,0.6995705,-0.2691612,1.211376,-0.0055221919999999,0.1254308,0.4446037999999999,-0.1472707999999999,4.084665,40.75919,33.71
4,-0.1513214,0.1109466999999999,0.9822235,1.0,-0.1513519,0.1109618999999999,0.9822235,-30.16756,-7.213867,-18.002489999999998,4.514404,0.468679,0.6949026999999999,1.0,-0.1123962,0.09500122,0.9891052,36.21982,-6.421478,-20.59459,4.560364,0.400444,0.6995705,-0.2691612,1.211376,-0.0055221919999999,0.1254308,0.4446037999999999,-0.1472707999999999,4.084665,40.75919,33.71
4,-0.1513214,0.1109466999999999,0.9822235,1.0,-0.1513519,0.1109618999999999,0.9822235,-30.16756,-7.213867,-18.002489999999998,4.514404,0.468679,0.6949026999999999,1.0,-0.1123962,0.09500122,0.9891052,36.21982,-6.421478,-20.59459,4.560364,0.400444,0.6995705,-0.2691612,1.211376,-0.0055221919999999,0.1254308,0.4446037999999999,-0.1472707999999999,4.084665,40.75919,33.71
4,-0.3316192999999999,0.1652832,0.9288025,1.0,-0.3316345,0.1652679,0.9288025,-31.21179,-6.627274000000001,-18.70161,4.341629,0.5305785,0.6769026,1.0,-0.2924194,0.1948852999999999,0.936203,34.984970000000004,-5.894958,-21.16589,4.513245,0.4705785,0.6743183,-0.2694808,1.211973,-0.005888641,0.1242538,0.4482382,-0.145717,4.084665,40.75919,33.71
4,-0.3316192999999999,0.1652832,0.9288025,1.0,-0.3316345,0.1652679,0.9288025,-31.21179,-6.627274000000001,-18.70161,4.341629,0.5305785,0.6769026,1.0,-0.2924194,0.1948852999999999,0.936203,34.984970000000004,-5.894958,-21.16589,4.513245,0.4705785,0.6743183,-0.2694808,1.211973,-0.005888641,0.1242538,0.4482382,-0.145717,4.084665,40.75919,33.71
4,-0.3316192999999999,0.1652832,0.9288025,1.0,-0.3316345,0.1652679,0.9288025,-31.21179,-6.627274000000001,-18.70161,4.341629,0.5305785,0.6769026,1.0,-0.2924194,0.1948852999999999,0.936203,34.984970000000004,-5.894958,-21.16589,4.513245,0.4705785,0.6743183,-0.2694808,1.211973,-0.005888641,0.1242538,0.4482382,-0.145717,4.084665,40.75919,33.71
4,-0.3139038,0.1741943,0.9333190999999998,1.0,-0.3314819,0.1659697999999999,0.9287415,-31.21925,-6.643341,-18.70023,4.37793,0.5307629,0.6773177,1.0,-0.2859192,0.187027,0.9398193,35.08128,-5.953629,-21.13208,4.505035,0.4662909,0.6770349,-0.2694734,1.212203,-0.00648421,0.1232521999999999,0.4524485,-0.1440187,4.084665,73.68832,33.71
4,-0.3139038,0.1741943,0.9333190999999998,1.0,-0.3314819,0.1659697999999999,0.9287415,-31.21925,-6.643341,-18.70023,4.37793,0.5307629,0.6773177,1.0,-0.2859192,0.187027,0.9398193,35.08128,-5.953629,-21.13208,4.505035,0.4662909,0.6770349,-0.2694734,1.212203,-0.00648421,0.1232521999999999,0.4524485,-0.1440187,4.084665,73.68832,33.71
4,-0.3139038,0.1741943,0.9333190999999998,1.0,-0.3314819,0.1659697999999999,0.9287415,-31.21925,-6.643341,-18.70023,4.37793,0.5307629,0.6773177,1.0,-0.2859192,0.187027,0.9398193,35.08128,-5.953629,-21.13208,4.505035,0.4662909,0.6770349,-0.2694734,1.212203,-0.00648421,0.1232521999999999,0.4524485,-0.1440187,4.084665,73.68832,33.71
4,-0.3031006,0.1614532,0.9391785,1.0,-0.320694,0.1585083,0.9338074,-31.20259,-6.655533,-18.67299,4.381592,0.5284297,0.6784458000000001,1.0,-0.2741699,0.1661377,0.9472198,35.13066,-5.9709010000000005,-21.0849,4.412247,0.4626552,0.6802113000000001,-0.2693499,1.212572,-0.007021487,0.1228961,0.4570752,-0.1418471,4.084665,73.68832,33.71
4,-0.3031006,0.1614532,0.9391785,1.0,-0.320694,0.1585083,0.9338074,-31.20259,-6.655533,-18.67299,4.381592,0.5284297,0.6784458000000001,1.0,-0.2741699,0.1661377,0.9472198,35.13066,-5.9709010000000005,-21.0849,4.412247,0.4626552,0.6802113000000001,-0.2693499,1.212572,-0.007021487,0.1228961,0.4570752,-0.1418471,4.084665,73.68832,33.71
4,-0.3031006,0.1614532,0.9391785,1.0,-0.320694,0.1585083,0.9338074,-31.20259,-6.655533,-18.67299,4.381592,0.5284297,0.6784458000000001,1.0,-0.2741699,0.1661377,0.9472198,35.13066,-5.9709010000000005,-21.0849,4.412247,0.4626552,0.6802113000000001,-0.2693499,1.212572,-0.007021487,0.1228961,0.4570752,-0.1418471,4.084665,73.68832,33.71
4,-0.3031006,0.1614532,0.9391785,1.0,-0.320694,0.1585083,0.9338074,-31.20259,-6.655533,-18.67299,4.381592,0.5284297,0.6784458000000001,1.0,-0.2741699,0.1661377,0.9472198,35.13066,-5.9709010000000005,-21.0849,4.412247,0.4626552,0.6802113000000001,-0.2693483,1.213111,-0.007585108,0.122826,0.4622787999999999,-0.1403966,4.084665,73.68832,33.71
4,-0.3031006,0.1614532,0.9391785,1.0,-0.320694,0.1585083,0.9338074,-31.20259,-6.655533,-18.67299,4.381592,0.5284297,0.6784458000000001,1.0,-0.2741699,0.1661377,0.9472198,35.13066,-5.9709010000000005,-21.0849,4.412247,0.4626552,0.6802113000000001,-0.2693483,1.213111,-0.007585108,0.122826,0.4622787999999999,-0.1403966,4.084665,73.68832,33.71
4,-0.3031006,0.1614532,0.9391785,1.0,-0.320694,0.1585083,0.9338074,-31.20259,-6.655533,-18.67299,4.381592,0.5284297,0.6784458000000001,1.0,-0.2741699,0.1661377,0.9472198,35.13066,-5.9709010000000005,-21.0849,4.412247,0.4626552,0.6802113000000001,-0.2693483,1.213111,-0.007585108,0.122826,0.4622787999999999,-0.1403966,4.084665,73.68832,33.71
4,-0.2908325,0.149704,0.9449768,1.0,-0.3128815,0.1499481,0.9378662,-31.13266,-6.679947,-18.63597,4.349976,0.5249288000000001,0.6800116,1.0,-0.2648926,0.1493072999999999,0.9526367,35.20689,-5.958679,-21.03528,4.439728,0.4585217,0.6819276,-0.2686743,1.213124,-0.008594632,0.1223916,0.4679258,-0.1384602,4.084665,73.68832,33.71
4,-0.2908325,0.149704,0.9449768,1.0,-0.3128815,0.1499481,0.9378662,-31.13266,-6.679947,-18.63597,4.349976,0.5249288000000001,0.6800116,1.0,-0.2648926,0.1493072999999999,0.9526367,35.20689,-5.958679,-21.03528,4.439728,0.4585217,0.6819276,-0.2686743,1.213124,-0.008594632,0.1223916,0.4679258,-0.1384602,4.084665,73.68832,33.71
4,-0.2908325,0.149704,0.9449768,1.0,-0.3128815,0.1499481,0.9378662,-31.13266,-6.679947,-18.63597,4.349976,0.5249288000000001,0.6800116,1.0,-0.2648926,0.1493072999999999,0.9526367,35.20689,-5.958679,-21.03528,4.439728,0.4585217,0.6819276,-0.2686743,1.213124,-0.008594632,0.1223916,0.4679258,-0.1384602,4.084665,73.68832,33.71
4,-0.2471007999999999,0.1404877,0.9587402,1.0,-0.2585449,0.1378326,0.9561005,-30.88295,-6.780730999999999,-18.53888,4.187943,0.5083657,0.6831921,1.0,-0.2351532,0.1432342999999999,0.9613342,35.571670000000005,-6.061249,-20.94157,4.457047,0.441663,0.6848739,-0.2683464,1.213502,-0.009627283,0.1218543999999999,0.4743768,-0.1364,4.084665,54.89941,33.71
4,-0.2471007999999999,0.1404877,0.9587402,1.0,-0.2585449,0.1378326,0.9561005,-30.88295,-6.780730999999999,-18.53888,4.187943,0.5083657,0.6831921,1.0,-0.2351532,0.1432342999999999,0.9613342,35.571670000000005,-6.061249,-20.94157,4.457047,0.441663,0.6848739,-0.2683464,1.213502,-0.009627283,0.1218543999999999,0.4743768,-0.1364,4.084665,54.89941,33.71
4,-0.2471007999999999,0.1404877,0.9587402,1.0,-0.2585449,0.1378326,0.9561005,-30.88295,-6.780730999999999,-18.53888,4.187943,0.5083657,0.6831921,1.0,-0.2351532,0.1432342999999999,0.9613342,35.571670000000005,-6.061249,-20.94157,4.457047,0.441663,0.6848739,-0.2683464,1.213502,-0.009627283,0.1218543999999999,0.4743768,-0.1364,4.084665,54.89941,33.71
4,-0.2337188999999999,0.1321869,0.9632568,1.0,-0.242218,0.1282959,0.9616852,-30.78273,-6.818085000000001,-18.49086,4.29895,0.5024973,0.6853092,1.0,-0.2254333,0.1359711,0.9647064,35.66682,-6.093369,-20.91161,4.45784,0.4369255999999999,0.6866605,-0.2679095999999999,1.214133,-0.01087853,0.1207418999999999,0.4822532999999999,-0.1342165,4.084665,54.89941,33.71
4,-0.2337188999999999,0.1321869,0.9632568,1.0,-0.242218,0.1282959,0.9616852,-30.78273,-6.818085000000001,-18.49086,4.29895,0.5024973,0.6853092,1.0,-0.2254333,0.1359711,0.9647064,35.66682,-6.093369,-20.91161,4.45784,0.4369255999999999,0.6866605,-0.2679095999999999,1.214133,-0.01087853,0.1207418999999999,0.4822532999999999,-0.1342165,4.084665,54.89941,33.71
4,-0.2337188999999999,0.1321869,0.9632568,1.0,-0.242218,0.1282959,0.9616852,-30.78273,-6.818085000000001,-18.49086,4.29895,0.5024973,0.6853092,1.0,-0.2254333,0.1359711,0.9647064,35.66682,-6.093369,-20.91161,4.45784,0.4369255999999999,0.6866605,-0.2679095999999999,1.214133,-0.01087853,0.1207418999999999,0.4822532999999999,-0.1342165,4.084665,54.89941,33.71
4,-0.2173462,0.1384888,0.966217,1.0,-0.2184143,0.1251831,0.9677886999999998,-30.65831,-6.898254,-18.44868,4.17366,0.4948547,0.6874686,1.0,-0.2163391,0.1506195,0.9646149,35.86493,-6.337357,-20.88454,4.457657,0.4289849,0.6918194000000001,-0.2674709,1.214894,-0.01253825,0.1199452,0.4912479,-0.1310363,4.084665,54.89941,33.71
4,-0.2173462,0.1384888,0.966217,1.0,-0.2184143,0.1251831,0.9677886999999998,-30.65831,-6.898254,-18.44868,4.17366,0.4948547,0.6874686,1.0,-0.2163391,0.1506195,0.9646149,35.86493,-6.337357,-20.88454,4.457657,0.4289849,0.6918194000000001,-0.2674709,1.214894,-0.01253825,0.1199452,0.4912479,-0.1310363,4.084665,54.89941,33.71
4,-0.2173462,0.1384888,0.966217,1.0,-0.2184143,0.1251831,0.9677886999999998,-30.65831,-6.898254,-18.44868,4.17366,0.4948547,0.6874686,1.0,-0.2163391,0.1506195,0.9646149,35.86493,-6.337357,-20.88454,4.457657,0.4289849,0.6918194000000001,-0.2674709,1.214894,-0.01253825,0.1199452,0.4912479,-0.1310363,4.084665,54.89941,33.71
4,-0.1767426,0.115448,0.9774475,1.0,-0.1865234,0.1107178,0.976181,-30.422320000000003,-7.038436999999999,-18.16496,4.204208,0.4823121,0.6910276,1.0,-0.1608428999999999,0.1230926999999999,0.9792633,36.06456,-6.502533000000001,-20.47194,4.470337000000001,0.4134140999999999,0.6968698,-0.2667674,1.215629,-0.01444587,0.118994,0.5013135,-0.1271343,4.084665,54.89941,33.71
4,-0.1767426,0.115448,0.9774475,1.0,-0.1865234,0.1107178,0.976181,-30.422320000000003,-7.038436999999999,-18.16496,4.204208,0.4823121,0.6910276,1.0,-0.1608428999999999,0.1230926999999999,0.9792633,36.06456,-6.502533000000001,-20.47194,4.470337000000001,0.4134140999999999,0.6968698,-0.2667674,1.215629,-0.01444587,0.118994,0.5013135,-0.1271343,4.084665,54.89941,33.71
4,-0.1767426,0.115448,0.9774475,1.0,-0.1865234,0.1107178,0.976181,-30.422320000000003,-7.038436999999999,-18.16496,4.204208,0.4823121,0.6910276,1.0,-0.1608428999999999,0.1230926999999999,0.9792633,36.06456,-6.502533000000001,-20.47194,4.470337000000001,0.4134140999999999,0.6968698,-0.2667674,1.215629,-0.01444587,0.118994,0.5013135,-0.1271343,4.084665,54.89941,33.71
4,-0.2087097,0.1202087,0.9705505,1.0,-0.209137,0.1177979,0.9707642,-30.643890000000003,-6.940521,-18.35849,4.212280000000001,0.4928632,0.6890163,1.0,-0.202652,0.1539307,0.9670715,35.942029999999995,-6.318633999999999,-20.7379,4.456131,0.4243465999999999,0.688947,-0.2659670999999999,1.216415,-0.01642075,0.1176803999999999,0.5119547999999999,-0.1232681,4.084665,54.89941,33.71
4,-0.2087097,0.1202087,0.9705505,1.0,-0.209137,0.1177979,0.9707642,-30.643890000000003,-6.940521,-18.35849,4.212280000000001,0.4928632,0.6890163,1.0,-0.202652,0.1539307,0.9670715,35.942029999999995,-6.318633999999999,-20.7379,4.456131,0.4243465999999999,0.688947,-0.2659670999999999,1.216415,-0.01642075,0.1176803999999999,0.5119547999999999,-0.1232681,4.084665,54.89941,33.71
4,-0.2087097,0.1202087,0.9705505,1.0,-0.209137,0.1177979,0.9707642,-30.643890000000003,-6.940521,-18.35849,4.212280000000001,0.4928632,0.6890163,1.0,-0.202652,0.1539307,0.9670715,35.942029999999995,-6.318633999999999,-20.7379,4.456131,0.4243465999999999,0.688947,-0.2659670999999999,1.216415,-0.01642075,0.1176803999999999,0.5119547999999999,-0.1232681,4.084665,54.89941,33.71
4,-0.2727355999999999,0.1342467999999999,0.9526671999999998,1.0,-0.276062,0.1328582999999999,0.9519043,-30.9566,-6.773636,-18.46312,4.255585,0.5133954000000001,0.6833076,1.0,-0.2310944,0.1514282,0.9610596,35.40565,-5.986923,-20.86484,4.380096,0.4465385,0.6802283,-0.2654962999999999,1.217453,-0.0184691,0.1161811999999999,0.5237096,-0.1201716999999999,4.084665,54.89941,33.71
