Second,eye_comb_direction_x,eye_comb_direction_y,eye_comb_direction_z,eye_r_openness,eye_r_direction_x,eye_r_direction_y,eye_r_direction_z,eye_r_origin_x,eye_r_origin_y,eye_r_origin_z,eye_r_pupil_diameter,eye_r_pupil_position_x,eye_r_pupil_position_y,eye_l_openness,eye_l_direction_x,eye_l_direction_y,eye_l_direction_z,eye_l_origin_x,eye_l_origin_y,eye_l_origin_z,eye_l_pupil_diameter,eye_l_pupil_position_x,eye_l_pupil_position_y,head_position_x,head_position_y,head_position_z,head_rotation_roll,head_rotation_pitch,head_rotation_yaw,EDA,BVP,TMP
0,-0.037323,0.09515381,0.994751,0.8995058000000001,-0.03082275,0.06221008,0.9975739,-28.36914,-7.607346000000001,-19.01331,4.979782,0.3927998,0.724955,0.9011995,-0.03735352,0.09527588,0.9947357,38.124590000000005,-6.970169,-21.26663,5.101639,0.324236,0.7254114,-0.162288,1.18976,-0.08696121,0.1191489,0.7242503,-0.1038543,4.032131,-1.0004603480692074,32.33895436308927
0,-0.037323,0.09515381,0.994751,0.8995058000000001,-0.03082275,0.06221008,0.9975739,-28.36914,-7.607346000000001,-19.01331,4.979782,0.3927998,0.724955,0.9011995,-0.03735352,0.09527588,0.9947357,38.124590000000005,-6.970169,-21.26663,5.101639,0.324236,0.7254114,-0.162288,1.18976,-0.08696121,0.1191489,0.7242503,-0.1038543,4.032131,-1.0004603480692074,32.33895436308927
0,-0.037323,0.09515381,0.994751,0.8995058000000001,-0.03082275,0.06221008,0.9975739,-28.36914,-7.607346000000001,-19.01331,4.979782,0.3927998,0.724955,0.9011995,-0.03735352,0.09527588,0.9947357,38.124590000000005,-6.970169,-21.26663,5.101639,0.324236,0.7254114,-0.162288,1.18976,-0.08696121,0.1191489,0.7242503,-0.1038543,4.032131,-1.0004603480692074,32.33895436308927
0,-0.037323,0.09515381,0.994751,0.8995058000000001,-0.03082275,0.06221008,0.9975739,-28.36914,-7.607346000000001,-19.01331,4.979782,0.3927998,0.724955,0.9011995,-0.03735352,0.09527588,0.9947357,38.124590000000005,-6.970169,-21.26663,5.101639,0.324236,0.7254114,-0.162288,1.18976,-0.08696121,0.1191489,0.7242503,-0.1038543,4.032131,-1.0004603480692074,32.33895436308927
0,-0.02201843,0.06079102,0.9978943,0.9137623,-0.02137756,0.05966187,0.9979858,-28.5939,-7.090927000000001,-19.3313,4.783005,0.3983785999999999,0.7120340000000001,0.9299932,-0.04974365,0.1105652,0.9926146999999998,38.01653,-6.458832,-21.77672,4.898483000000001,0.3295818,0.7112,-0.1606033999999999,1.188239,-0.08490229,0.1197295,0.7183861,-0.1110188999999999,4.032131,-1.0004603480692074,32.33895436308927
0,-0.02201843,0.06079102,0.9978943,0.9137623,-0.02137756,0.05966187,0.9979858,-28.5939,-7.090927000000001,-19.3313,4.783005,0.3983785999999999,0.7120340000000001,0.9299932,-0.04974365,0.1105652,0.9926146999999998,38.01653,-6.458832,-21.77672,4.898483000000001,0.3295818,0.7112,-0.1606033999999999,1.188239,-0.08490229,0.1197295,0.7183861,-0.1110188999999999,4.032131,-1.0004603480692074,32.33895436308927
0,-0.02201843,0.06079102,0.9978943,0.9137623,-0.02137756,0.05966187,0.9979858,-28.5939,-7.090927000000001,-19.3313,4.783005,0.3983785999999999,0.7120340000000001,0.9299932,-0.04974365,0.1105652,0.9926146999999998,38.01653,-6.458832,-21.77672,4.898483000000001,0.3295818,0.7112,-0.1606033999999999,1.188239,-0.08490229,0.1197295,0.7183861,-0.1110188999999999,4.032131,-1.0004603480692074,32.33895436308927
0,-0.05812073,0.122345,0.9907837,0.9153913,-0.02690125,0.06869507,0.9972687,-28.70944,-7.038100999999999,-19.50369,4.724915,0.4027679999999999,0.7107648,0.9501452,-0.05987549,0.1253662,0.9902954,37.93791,-6.581467,-21.54962,4.866074,0.3341807,0.7103732,-0.1598372,1.187214,-0.0835038999999999,0.1201555,0.7143930000000001,-0.1144601999999999,4.032131,-1.0004603480692074,32.33895436308927
0,-0.05812073,0.122345,0.9907837,0.9153913,-0.02690125,0.06869507,0.9972687,-28.70944,-7.038100999999999,-19.50369,4.724915,0.4027679999999999,0.7107648,0.9501452,-0.05987549,0.1253662,0.9902954,37.93791,-6.581467,-21.54962,4.866074,0.3341807,0.7103732,-0.1598372,1.187214,-0.0835038999999999,0.1201555,0.7143930000000001,-0.1144601999999999,4.032131,-1.0004603480692074,32.33895436308927
0,-0.05812073,0.122345,0.9907837,0.9153913,-0.02690125,0.06869507,0.9972687,-28.70944,-7.038100999999999,-19.50369,4.724915,0.4027679999999999,0.7107648,0.9501452,-0.05987549,0.1253662,0.9902954,37.93791,-6.581467,-21.54962,4.866074,0.3341807,0.7103732,-0.1598372,1.187214,-0.0835038999999999,0.1201555,0.7143930000000001,-0.1144601999999999,4.032131,-1.0004603480692074,32.33895436308927
0,-0.06112671,0.1264191,0.9900818,0.9097183,-0.02603149,0.07014465,0.9971924,-28.73582,-7.037918,-19.51178,4.756775,0.4034564,0.7106680000000001,0.9604328,-0.06159973,0.127182,0.9899597,37.92545,-6.581131,-21.57031,4.83667,0.3348933,0.7102278000000001,-0.1589575,1.186632,-0.08230567,0.1202341,0.7107518,-0.1164978,4.032131,-1.0004603480692074,32.33895436308927
0,-0.06112671,0.1264191,0.9900818,0.9097183,-0.02603149,0.07014465,0.9971924,-28.73582,-7.037918,-19.51178,4.756775,0.4034564,0.7106680000000001,0.9604328,-0.06159973,0.127182,0.9899597,37.92545,-6.581131,-21.57031,4.83667,0.3348933,0.7102278000000001,-0.1589575,1.186632,-0.08230567,0.1202341,0.7107518,-0.1164978,4.032131,-1.0004603480692074,32.33895436308927
0,-0.06112671,0.1264191,0.9900818,0.9097183,-0.02603149,0.07014465,0.9971924,-28.73582,-7.037918,-19.51178,4.756775,0.4034564,0.7106680000000001,0.9604328,-0.06159973,0.127182,0.9899597,37.92545,-6.581131,-21.57031,4.83667,0.3348933,0.7102278000000001,-0.1589575,1.186632,-0.08230567,0.1202341,0.7107518,-0.1164978,4.032131,-1.0004603480692074,32.33895436308927
0,-0.04841614,0.1105803999999999,0.9926758,0.9219174,-0.02172852,0.08502197,0.9961395,-29.08191,-6.9098820000000005,-19.38881,4.760239,0.4138614,0.7029989000000001,0.9866119,-0.06518555,0.1266022,0.9898071,37.89192,-6.580794999999999,-21.54962,4.790665,0.3366377,0.7100366,-0.157151,1.186202,-0.08031383,0.1212043999999999,0.7047728,-0.1189021,4.032131,-1.0004603480692074,32.33895436308927
0,-0.04841614,0.1105803999999999,0.9926758,0.9219174,-0.02172852,0.08502197,0.9961395,-29.08191,-6.9098820000000005,-19.38881,4.760239,0.4138614,0.7029989000000001,0.9866119,-0.06518555,0.1266022,0.9898071,37.89192,-6.580794999999999,-21.54962,4.790665,0.3366377,0.7100366,-0.157151,1.186202,-0.08031383,0.1212043999999999,0.7047728,-0.1189021,4.032131,-1.0004603480692074,32.33895436308927
0,-0.04841614,0.1105803999999999,0.9926758,0.9219174,-0.02172852,0.08502197,0.9961395,-29.08191,-6.9098820000000005,-19.38881,4.760239,0.4138614,0.7029989000000001,0.9866119,-0.06518555,0.1266022,0.9898071,37.89192,-6.580794999999999,-21.54962,4.790665,0.3366377,0.7100366,-0.157151,1.186202,-0.08031383,0.1212043999999999,0.7047728,-0.1189021,4.032131,-1.0004603480692074,32.33895436308927
0,-0.06385803,0.1230621,0.9903412,0.9158346,-0.0236969,0.1036987,0.9943237,-29.158690000000004,-7.176375999999999,-18.81761,4.627045,0.4169029999999999,0.7024522,0.9980944,-0.06454468,0.1233978,0.9902496,37.86292,-6.581467,-21.49707,4.784637,0.3375562,0.710016,-0.156331,1.186212,-0.0795756,0.1215654,0.7030516,-0.1194723999999999,4.032131,-1.0004603480692074,32.33895436308927
0,-0.06385803,0.1230621,0.9903412,0.9158346,-0.0236969,0.1036987,0.9943237,-29.158690000000004,-7.176375999999999,-18.81761,4.627045,0.4169029999999999,0.7024522,0.9980944,-0.06454468,0.1233978,0.9902496,37.86292,-6.581467,-21.49707,4.784637,0.3375562,0.710016,-0.156331,1.186212,-0.0795756,0.1215654,0.7030516,-0.1194723999999999,4.032131,-1.0004603480692074,32.33895436308927
0,-0.06385803,0.1230621,0.9903412,0.9158346,-0.0236969,0.1036987,0.9943237,-29.158690000000004,-7.176375999999999,-18.81761,4.627045,0.4169029999999999,0.7024522,0.9980944,-0.06454468,0.1233978,0.9902496,37.86292,-6.581467,-21.49707,4.784637,0.3375562,0.710016,-0.156331,1.186212,-0.0795756,0.1215654,0.7030516,-0.1194723999999999,4.032131,-1.0004603480692074,32.33895436308927
0,-0.06912231,0.1370392,0.9881439,1.0,-0.03686523,0.1095886,0.9932861,-29.21982,-7.221802,-18.7816,4.598358,0.4209087999999999,0.7025723,1.0,-0.06925964,0.1371612999999999,0.9881134,37.77176,-6.684386999999999,-21.0672,4.775055,0.3419085999999999,0.7065883000000001,-0.1555793999999999,1.186182,-0.0790863,0.1211656999999999,0.7020937,-0.1196132,4.032131,-1.0004603480692074,32.33895436308927
0,-0.06912231,0.1370392,0.9881439,1.0,-0.03686523,0.1095886,0.9932861,-29.21982,-7.221802,-18.7816,4.598358,0.4209087999999999,0.7025723,1.0,-0.06925964,0.1371612999999999,0.9881134,37.77176,-6.684386999999999,-21.0672,4.775055,0.3419085999999999,0.7065883000000001,-0.1555793999999999,1.186182,-0.0790863,0.1211656999999999,0.7020937,-0.1196132,4.032131,-1.0004603480692074,32.33895436308927
0,-0.06912231,0.1370392,0.9881439,1.0,-0.03686523,0.1095886,0.9932861,-29.21982,-7.221802,-18.7816,4.598358,0.4209087999999999,0.7025723,1.0,-0.06925964,0.1371612999999999,0.9881134,37.77176,-6.684386999999999,-21.0672,4.775055,0.3419085999999999,0.7065883000000001,-0.1555793999999999,1.186182,-0.0790863,0.1211656999999999,0.7020937,-0.1196132,4.032131,-1.0004603480692074,32.33895436308927
0,-0.04203796,0.1153259,0.9924316,1.0,-0.04196167,0.1152801999999999,0.9924316,-29.26418,-7.248839999999999,-18.77695,4.54628,0.4231153,0.7024375,1.0,-0.07174683,0.131485,0.9887085,37.587590000000006,-6.705032000000001,-20.76671,4.696808,0.3488093,0.7048452,-0.1549125,1.186251,-0.07872975,0.121012,0.7016889000000001,-0.1193441,4.032131,-1.0004603480692074,32.33895436308927
0,-0.04203796,0.1153259,0.9924316,1.0,-0.04196167,0.1152801999999999,0.9924316,-29.26418,-7.248839999999999,-18.77695,4.54628,0.4231153,0.7024375,1.0,-0.07174683,0.131485,0.9887085,37.587590000000006,-6.705032000000001,-20.76671,4.696808,0.3488093,0.7048452,-0.1549125,1.186251,-0.07872975,0.121012,0.7016889000000001,-0.1193441,4.032131,-1.0004603480692074,32.33895436308927
0,-0.04203796,0.1153259,0.9924316,1.0,-0.04196167,0.1152801999999999,0.9924316,-29.26418,-7.248839999999999,-18.77695,4.54628,0.4231153,0.7024375,1.0,-0.07174683,0.131485,0.9887085,37.587590000000006,-6.705032000000001,-20.76671,4.696808,0.3488093,0.7048452,-0.1549125,1.186251,-0.07872975,0.121012,0.7016889000000001,-0.1193441,4.032131,-1.0004603480692074,32.33895436308927
0,-0.04495239,0.1146545,0.9923859,1.0,-0.04493713,0.1146545,0.9923859,-29.29198,-7.254653999999999,-18.76103,4.501846,0.4244669,0.7025062,1.0,-0.08692932,0.1179504,0.9891968,37.54639,-6.800552000000001,-20.22545,4.640915000000001,0.3532417,0.704388,-0.1544359,1.186159,-0.07851064,0.1212355,0.7017715,-0.1188475,4.032131,-1.0004603480692074,32.33895436308927
0,-0.04495239,0.1146545,0.9923859,1.0,-0.04493713,0.1146545,0.9923859,-29.29198,-7.254653999999999,-18.76103,4.501846,0.4244669,0.7025062,1.0,-0.08692932,0.1179504,0.9891968,37.54639,-6.800552000000001,-20.22545,4.640915000000001,0.3532417,0.704388,-0.1544359,1.186159,-0.07851064,0.1212355,0.7017715,-0.1188475,4.032131,-1.0004603480692074,32.33895436308927
0,-0.04495239,0.1146545,0.9923859,1.0,-0.04493713,0.1146545,0.9923859,-29.29198,-7.254653999999999,-18.76103,4.501846,0.4244669,0.7025062,1.0,-0.08692932,0.1179504,0.9891968,37.54639,-6.800552000000001,-20.22545,4.640915000000001,0.3532417,0.704388,-0.1544359,1.186159,-0.07851064,0.1212355,0.7017715,-0.1188475,4.032131,-1.0004603480692074,32.33895436308927
0,-0.05075073,0.1161194,0.9919281,1.0,-0.05075073,0.1161194,0.9919281,-29.3132,-7.262695,-18.75885,4.485626,0.4260492999999999,0.7025084,1.0,-0.09547424,0.1243591,0.9876251,37.52585,-6.852859,-20.16158,4.609421,0.3553828,0.704388,-0.1535702,1.185585,-0.07828471,0.1224605,0.7025508,-0.1180731,4.032131,-1.0004603480692074,32.33895436308927
0,-0.05075073,0.1161194,0.9919281,1.0,-0.05075073,0.1161194,0.9919281,-29.3132,-7.262695,-18.75885,4.485626,0.4260492999999999,0.7025084,1.0,-0.09547424,0.1243591,0.9876251,37.52585,-6.852859,-20.16158,4.609421,0.3553828,0.704388,-0.1535702,1.185585,-0.07828471,0.1224605,0.7025508,-0.1180731,4.032131,-1.0004603480692074,32.33895436308927
0,-0.05075073,0.1161194,0.9919281,1.0,-0.05075073,0.1161194,0.9919281,-29.3132,-7.262695,-18.75885,4.485626,0.4260492999999999,0.7025084,1.0,-0.09547424,0.1243591,0.9876251,37.52585,-6.852859,-20.16158,4.609421,0.3553828,0.704388,-0.1535702,1.185585,-0.07828471,0.1224605,0.7025508,-0.1180731,4.032131,-1.0004603480692074,32.33895436308927
0,-0.06651306,0.1122436999999999,0.9914398,1.0,-0.06170654,0.1106109999999999,0.9919434,-29.36201,-7.295914,-18.69461,4.377853,0.4293343,0.703666,1.0,-0.1002502,0.1236572,0.9872437,37.45876,-6.889633,-20.11568,4.500519000000001,0.3584394,0.7050721999999999,-0.153049,1.185189,-0.07861334,0.1226548,0.7040601,-0.1178521,4.032131,-1.0004603480692074,32.33895436308927
0,-0.06651306,0.1122436999999999,0.9914398,1.0,-0.06170654,0.1106109999999999,0.9919434,-29.36201,-7.295914,-18.69461,4.377853,0.4293343,0.703666,1.0,-0.1002502,0.1236572,0.9872437,37.45876,-6.889633,-20.11568,4.500519000000001,0.3584394,0.7050721999999999,-0.153049,1.185189,-0.07861334,0.1226548,0.7040601,-0.1178521,4.032131,-1.0004603480692074,32.33895436308927
0,-0.06651306,0.1122436999999999,0.9914398,1.0,-0.06170654,0.1106109999999999,0.9919434,-29.36201,-7.295914,-18.69461,4.377853,0.4293343,0.703666,1.0,-0.1002502,0.1236572,0.9872437,37.45876,-6.889633,-20.11568,4.500519000000001,0.3584394,0.7050721999999999,-0.153049,1.185189,-0.07861334,0.1226548,0.7040601,-0.1178521,4.032131,-1.0004603480692074,32.33895436308927
0,-0.07717896,0.1166077,0.9901733,1.0,-0.05976868,0.1098175,0.9921417,-29.37387,-7.295914,-18.70682,4.369675,0.429399,0.7038925,1.0,-0.0980072,0.1246643,0.9873352,37.4487,-6.926147,-20.07817,4.469238,0.3584405,0.7056557,-0.153049,1.185189,-0.07861334,0.1226548,0.7040601,-0.1178521,4.032131,16.1405,32.33895436308927
0,-0.07717896,0.1166077,0.9901733,1.0,-0.05976868,0.1098175,0.9921417,-29.37387,-7.295914,-18.70682,4.369675,0.429399,0.7038925,1.0,-0.0980072,0.1246643,0.9873352,37.4487,-6.926147,-20.07817,4.469238,0.3584405,0.7056557,-0.153049,1.185189,-0.07861334,0.1226548,0.7040601,-0.1178521,4.032131,16.1405,32.33895436308927
0,-0.07717896,0.1166077,0.9901733,1.0,-0.05976868,0.1098175,0.9921417,-29.37387,-7.295914,-18.70682,4.369675,0.429399,0.7038925,1.0,-0.0980072,0.1246643,0.9873352,37.4487,-6.926147,-20.07817,4.469238,0.3584405,0.7056557,-0.153049,1.185189,-0.07861334,0.1226548,0.7040601,-0.1178521,4.032131,16.1405,32.33895436308927
0,-0.07510376,0.1172637999999999,0.9902496,1.0,-0.05456543,0.1101073999999999,0.9924164,-29.40015,-7.295914,-18.74438,4.327072,0.429399,0.7041803000000001,1.0,-0.09762573,0.1250609999999999,0.9873199,37.4487,-6.944336,-20.04594,4.420058999999999,0.3584405,0.7057562,-0.1528587,1.184765,-0.07910076,0.1224701,0.7056866999999999,-0.1174022,4.032131,16.1405,32.33895436308927
0,-0.07510376,0.1172637999999999,0.9902496,1.0,-0.05456543,0.1101073999999999,0.9924164,-29.40015,-7.295914,-18.74438,4.327072,0.429399,0.7041803000000001,1.0,-0.09762573,0.1250609999999999,0.9873199,37.4487,-6.944336,-20.04594,4.420058999999999,0.3584405,0.7057562,-0.1528587,1.184765,-0.07910076,0.1224701,0.7056866999999999,-0.1174022,4.032131,16.1405,32.33895436308927
0,-0.07510376,0.1172637999999999,0.9902496,1.0,-0.05456543,0.1101073999999999,0.9924164,-29.40015,-7.295914,-18.74438,4.327072,0.429399,0.7041803000000001,1.0,-0.09762573,0.1250609999999999,0.9873199,37.4487,-6.944336,-20.04594,4.420058999999999,0.3584405,0.7057562,-0.1528587,1.184765,-0.07910076,0.1224701,0.7056866999999999,-0.1174022,4.032131,16.1405,32.33895436308927
0,-0.08889771,0.121521,0.9885864,1.0,-0.05517578,0.1038208,0.9930573,-29.40015,-7.181075999999999,-19.00478,4.283875,0.429399,0.7041803000000001,1.0,-0.09739685,0.1259613,0.9872284,37.4487,-6.956177,-20.02805,4.377014,0.3584405,0.7057562,-0.1525807,1.184894,-0.07941151,0.1207854,0.7071994,-0.1157181,4.032131,16.1405,32.33895436308927
0,-0.08889771,0.121521,0.9885864,1.0,-0.05517578,0.1038208,0.9930573,-29.40015,-7.181075999999999,-19.00478,4.283875,0.429399,0.7041803000000001,1.0,-0.09739685,0.1259613,0.9872284,37.4487,-6.956177,-20.02805,4.377014,0.3584405,0.7057562,-0.1525807,1.184894,-0.07941151,0.1207854,0.7071994,-0.1157181,4.032131,16.1405,32.33895436308927
0,-0.08889771,0.121521,0.9885864,1.0,-0.05517578,0.1038208,0.9930573,-29.40015,-7.181075999999999,-19.00478,4.283875,0.429399,0.7041803000000001,1.0,-0.09739685,0.1259613,0.9872284,37.4487,-6.956177,-20.02805,4.377014,0.3584405,0.7057562,-0.1525807,1.184894,-0.07941151,0.1207854,0.7071994,-0.1157181,4.032131,16.1405,32.33895436308927
0,-0.09114075,0.1202849999999999,0.9885406,1.0,-0.0514679,0.1024475,0.9933929,-29.391240000000003,-7.17305,-19.01103,4.240585,0.4285395,0.7041384,1.0,-0.09336853,0.1212769,0.988205,37.53377,-6.868835000000001,-20.0695,4.186768,0.3550970999999999,0.7038168,-0.1524553,1.185364,-0.07972613,0.1183013,0.7088605,-0.1141553999999999,4.032131,16.1405,32.33895436308927
0,-0.09114075,0.1202849999999999,0.9885406,1.0,-0.0514679,0.1024475,0.9933929,-29.391240000000003,-7.17305,-19.01103,4.240585,0.4285395,0.7041384,1.0,-0.09336853,0.1212769,0.988205,37.53377,-6.868835000000001,-20.0695,4.186768,0.3550970999999999,0.7038168,-0.1524553,1.185364,-0.07972613,0.1183013,0.7088605,-0.1141553999999999,4.032131,16.1405,32.33895436308927
0,-0.09114075,0.1202849999999999,0.9885406,1.0,-0.0514679,0.1024475,0.9933929,-29.391240000000003,-7.17305,-19.01103,4.240585,0.4285395,0.7041384,1.0,-0.09336853,0.1212769,0.988205,37.53377,-6.868835000000001,-20.0695,4.186768,0.3550970999999999,0.7038168,-0.1524553,1.185364,-0.07972613,0.1183013,0.7088605,-0.1141553999999999,4.032131,16.1405,32.33895436308927
0,-0.06843567,0.1998137999999999,0.9774323,1.0,-0.06817627,0.1993103,0.9775543,-29.11765,-6.431168,-18.93552,4.10495,0.4229365,0.6647932,1.0,-0.08636475,0.2335205,0.9685059,37.51292,-5.977233999999999,-20.44348,4.082291000000001,0.3550065,0.6605759,-0.1526337,1.18624,-0.07997817,0.1147875,0.7100761999999999,-0.111401,4.032131,16.1405,32.33895436308927
0,-0.06843567,0.1998137999999999,0.9774323,1.0,-0.06817627,0.1993103,0.9775543,-29.11765,-6.431168,-18.93552,4.10495,0.4229365,0.6647932,1.0,-0.08636475,0.2335205,0.9685059,37.51292,-5.977233999999999,-20.44348,4.082291000000001,0.3550065,0.6605759,-0.1526337,1.18624,-0.07997817,0.1147875,0.7100761999999999,-0.111401,4.032131,16.1405,32.33895436308927
0,-0.06843567,0.1998137999999999,0.9774323,1.0,-0.06817627,0.1993103,0.9775543,-29.11765,-6.431168,-18.93552,4.10495,0.4229365,0.6647932,1.0,-0.08636475,0.2335205,0.9685059,37.51292,-5.977233999999999,-20.44348,4.082291000000001,0.3550065,0.6605759,-0.1526337,1.18624,-0.07997817,0.1147875,0.7100761999999999,-0.111401,4.032131,16.1405,32.33895436308927
0,-0.05540466,0.258667,0.9643707,0.8943215,-0.05380249,0.2560425,0.9651489,-29.08032,-6.169724,-19.05205,4.038558999999999,0.4195685999999999,0.6487728,0.9410143,-0.07461548,0.2900848,0.954071,37.58908,-5.817062,-20.52103,4.052704,0.3507314,0.6470391,-0.152912,1.187604,-0.08028126,0.1102374,0.7108445,-0.1072906999999999,4.032131,16.1405,32.33895436308927
0,-0.05540466,0.258667,0.9643707,0.8943215,-0.05380249,0.2560425,0.9651489,-29.08032,-6.169724,-19.05205,4.038558999999999,0.4195685999999999,0.6487728,0.9410143,-0.07461548,0.2900848,0.954071,37.58908,-5.817062,-20.52103,4.052704,0.3507314,0.6470391,-0.152912,1.187604,-0.08028126,0.1102374,0.7108445,-0.1072906999999999,4.032131,16.1405,32.33895436308927
0,-0.05540466,0.258667,0.9643707,0.8943215,-0.05380249,0.2560425,0.9651489,-29.08032,-6.169724,-19.05205,4.038558999999999,0.4195685999999999,0.6487728,0.9410143,-0.07461548,0.2900848,0.954071,37.58908,-5.817062,-20.52103,4.052704,0.3507314,0.6470391,-0.152912,1.187604,-0.08028126,0.1102374,0.7108445,-0.1072906999999999,4.032131,16.1405,32.33895436308927
0,-0.06774902,0.2654265999999999,0.961731,1.0,-0.05140686,0.2483521,0.9673004,-29.088,-6.184966999999999,-19.04837,4.017029,0.4194162999999999,0.6503755,1.0,-0.08041382,0.2785797,0.9570313,37.61725,-5.802094,-20.50616,4.006775,0.3507909,0.6481998000000001,-0.1534076,1.188688,-0.0804261,0.107121,0.7110893,-0.1040301,4.032131,16.1405,32.33895436308927
0,-0.06774902,0.2654265999999999,0.961731,1.0,-0.05140686,0.2483521,0.9673004,-29.088,-6.184966999999999,-19.04837,4.017029,0.4194162999999999,0.6503755,1.0,-0.08041382,0.2785797,0.9570313,37.61725,-5.802094,-20.50616,4.006775,0.3507909,0.6481998000000001,-0.1534076,1.188688,-0.0804261,0.107121,0.7110893,-0.1040301,4.032131,16.1405,32.33895436308927
0,-0.06774902,0.2654265999999999,0.961731,1.0,-0.05140686,0.2483521,0.9673004,-29.088,-6.184966999999999,-19.04837,4.017029,0.4194162999999999,0.6503755,1.0,-0.08041382,0.2785797,0.9570313,37.61725,-5.802094,-20.50616,4.006775,0.3507909,0.6481998000000001,-0.1534076,1.188688,-0.0804261,0.107121,0.7110893,-0.1040301,4.032131,16.1405,32.33895436308927
0,-0.06459045,0.2557831,0.9645690999999998,1.0,-0.04826355,0.2475127999999999,0.9676666,-29.08905,-6.216080000000001,-19.04269,3.985855,0.4189492,0.6513821,1.0,-0.08251953,0.2647857999999999,0.9607544,37.63562,-5.849838,-20.50534,4.011734,0.3504829,0.6519424,-0.1540579,1.189751,-0.08061787,0.1041775,0.7112071999999999,-0.1011076,4.032131,2.388474,32.33895436308927
0,-0.06459045,0.2557831,0.9645690999999998,1.0,-0.04826355,0.2475127999999999,0.9676666,-29.08905,-6.216080000000001,-19.04269,3.985855,0.4189492,0.6513821,1.0,-0.08251953,0.2647857999999999,0.9607544,37.63562,-5.849838,-20.50534,4.011734,0.3504829,0.6519424,-0.1540579,1.189751,-0.08061787,0.1041775,0.7112071999999999,-0.1011076,4.032131,2.388474,32.33895436308927
0,-0.06459045,0.2557831,0.9645690999999998,1.0,-0.04826355,0.2475127999999999,0.9676666,-29.08905,-6.216080000000001,-19.04269,3.985855,0.4189492,0.6513821,1.0,-0.08251953,0.2647857999999999,0.9607544,37.63562,-5.849838,-20.50534,4.011734,0.3504829,0.6519424,-0.1540579,1.189751,-0.08061787,0.1041775,0.7112071999999999,-0.1011076,4.032131,2.388474,32.33895436308927
0,-0.06196594,0.2428130999999999,0.9680786,1.0,-0.0402832,0.2372284,0.9706116,-29.1131,-6.294678,-19.03825,3.973831,0.418405,0.6553603,1.0,-0.08248901,0.2479857999999999,0.9652405,37.65643,-5.916107,-20.50478,4.002029,0.3497282,0.6567531999999999,-0.1544372999999999,1.190857,-0.08072519,0.1007906,0.7113436,-0.09863444,4.032131,2.388474,32.33895436308927
0,-0.06196594,0.2428130999999999,0.9680786,1.0,-0.0402832,0.2372284,0.9706116,-29.1131,-6.294678,-19.03825,3.973831,0.418405,0.6553603,1.0,-0.08248901,0.2479857999999999,0.9652405,37.65643,-5.916107,-20.50478,4.002029,0.3497282,0.6567531999999999,-0.1544372999999999,1.190857,-0.08072519,0.1007906,0.7113436,-0.09863444,4.032131,2.388474,32.33895436308927
0,-0.06196594,0.2428130999999999,0.9680786,1.0,-0.0402832,0.2372284,0.9706116,-29.1131,-6.294678,-19.03825,3.973831,0.418405,0.6553603,1.0,-0.08248901,0.2479857999999999,0.9652405,37.65643,-5.916107,-20.50478,4.002029,0.3497282,0.6567531999999999,-0.1544372999999999,1.190857,-0.08072519,0.1007906,0.7113436,-0.09863444,4.032131,2.388474,32.33895436308927
0,-0.06100464,0.2239685,0.9726715,1.0,-0.03923035,0.2064056,0.9776764,-29.11935,-6.351639,-19.01476,3.929977,0.418405,0.6616489000000001,1.0,-0.08151245,0.240387,0.9672394,37.67868,-5.993942,-20.50117,3.990402,0.3487982999999999,0.6604211999999999,-0.1549513,1.191724,-0.08082271,0.09787929,0.7114613000000001,-0.09644445,4.032131,2.388474,32.33895436308927
0,-0.06100464,0.2239685,0.9726715,1.0,-0.03923035,0.2064056,0.9776764,-29.11935,-6.351639,-19.01476,3.929977,0.418405,0.6616489000000001,1.0,-0.08151245,0.240387,0.9672394,37.67868,-5.993942,-20.50117,3.990402,0.3487982999999999,0.6604211999999999,-0.1549513,1.191724,-0.08082271,0.09787929,0.7114613000000001,-0.09644445,4.032131,2.388474,32.33895436308927
0,-0.06100464,0.2239685,0.9726715,1.0,-0.03923035,0.2064056,0.9776764,-29.11935,-6.351639,-19.01476,3.929977,0.418405,0.6616489000000001,1.0,-0.08151245,0.240387,0.9672394,37.67868,-5.993942,-20.50117,3.990402,0.3487982999999999,0.6604211999999999,-0.1549513,1.191724,-0.08082271,0.09787929,0.7114613000000001,-0.09644445,4.032131,2.388474,32.33895436308927
0,-0.06080627,0.2236786,0.9727631,1.0,-0.03860474,0.204422,0.9781189,-29.12268,-6.361572,-19.01414,3.928604,0.418405,0.6622587,1.0,-0.08135986,0.2413788,0.9670105,37.67947,-6.007553,-20.4996,3.986389,0.3487478,0.660674,-0.1553015,1.19264,-0.08097452,0.0945375,0.7114726,-0.09473924,4.032131,2.388474,32.33895436308927
0,-0.06080627,0.2236786,0.9727631,1.0,-0.03860474,0.204422,0.9781189,-29.12268,-6.361572,-19.01414,3.928604,0.418405,0.6622587,1.0,-0.08135986,0.2413788,0.9670105,37.67947,-6.007553,-20.4996,3.986389,0.3487478,0.660674,-0.1553015,1.19264,-0.08097452,0.0945375,0.7114726,-0.09473924,4.032131,2.388474,32.33895436308927
0,-0.06080627,0.2236786,0.9727631,1.0,-0.03860474,0.204422,0.9781189,-29.12268,-6.361572,-19.01414,3.928604,0.418405,0.6622587,1.0,-0.08135986,0.2413788,0.9670105,37.67947,-6.007553,-20.4996,3.986389,0.3487478,0.660674,-0.1553015,1.19264,-0.08097452,0.0945375,0.7114726,-0.09473924,4.032131,2.388474,32.33895436308927
0,-0.08190918,0.2669525,0.9602051,1.0,-0.06286621,0.2413025,0.968399,-29.16048,-6.254059,-18.97868,3.848343,0.4235725,0.6527699,1.0,-0.08798218,0.2751007,0.9573669,37.57147,-5.885788,-20.51198,3.92804,0.3535125,0.6514291,-0.1556072999999999,1.193075,-0.08094412,0.09240062,0.7115199999999999,-0.09433319,4.032131,2.388474,32.33895436308927
0,-0.08190918,0.2669525,0.9602051,1.0,-0.06286621,0.2413025,0.968399,-29.16048,-6.254059,-18.97868,3.848343,0.4235725,0.6527699,1.0,-0.08798218,0.2751007,0.9573669,37.57147,-5.885788,-20.51198,3.92804,0.3535125,0.6514291,-0.1556072999999999,1.193075,-0.08094412,0.09240062,0.7115199999999999,-0.09433319,4.032131,2.388474,32.33895436308927
0,-0.08190918,0.2669525,0.9602051,1.0,-0.06286621,0.2413025,0.968399,-29.16048,-6.254059,-18.97868,3.848343,0.4235725,0.6527699,1.0,-0.08798218,0.2751007,0.9573669,37.57147,-5.885788,-20.51198,3.92804,0.3535125,0.6514291,-0.1556072999999999,1.193075,-0.08094412,0.09240062,0.7115199999999999,-0.09433319,4.032131,2.388474,32.33895436308927
1,-0.06134033,0.2487335,0.9666138,1.0,-0.0512085,0.2377472,0.9699707,-29.17329,-6.282364,-18.96712,3.94632,0.4220855999999999,0.654191,1.0,-0.06552124,0.2532349,0.9651794,37.45593,-5.920471,-20.47005,3.908356,0.3535125,0.6555361999999999,-0.1558777999999999,1.193323,-0.08081132,0.09080125,0.7111824999999999,-0.09328985,4.032131,-11.00214,32.33895436308927
1,-0.06134033,0.2487335,0.9666138,1.0,-0.0512085,0.2377472,0.9699707,-29.17329,-6.282364,-18.96712,3.94632,0.4220855999999999,0.654191,1.0,-0.06552124,0.2532349,0.9651794,37.45593,-5.920471,-20.47005,3.908356,0.3535125,0.6555361999999999,-0.1558777999999999,1.193323,-0.08081132,0.09080125,0.7111824999999999,-0.09328985,4.032131,-11.00214,32.33895436308927
1,-0.06134033,0.2487335,0.9666138,1.0,-0.0512085,0.2377472,0.9699707,-29.17329,-6.282364,-18.96712,3.94632,0.4220855999999999,0.654191,1.0,-0.06552124,0.2532349,0.9651794,37.45593,-5.920471,-20.47005,3.908356,0.3535125,0.6555361999999999,-0.1558777999999999,1.193323,-0.08081132,0.09080125,0.7111824999999999,-0.09328985,4.032131,-11.00214,32.33895436308927
1,-0.06376648,0.2380066,0.969162,1.0,-0.04067993,0.2234039,0.9738617,-29.21901,-6.298035,-18.949070000000003,3.940002,0.421825,0.6567166,1.0,-0.08650208,0.2522278,0.9637756,37.57468,-5.968933,-20.4884,3.923248000000001,0.3530915999999999,0.6575226,-0.1563163,1.193767,-0.08060205,0.08979192,0.7107741999999999,-0.09205645,4.032131,-11.00214,32.33895436308927
1,-0.06376648,0.2380066,0.969162,1.0,-0.04067993,0.2234039,0.9738617,-29.21901,-6.298035,-18.949070000000003,3.940002,0.421825,0.6567166,1.0,-0.08650208,0.2522278,0.9637756,37.57468,-5.968933,-20.4884,3.923248000000001,0.3530915999999999,0.6575226,-0.1563163,1.193767,-0.08060205,0.08979192,0.7107741999999999,-0.09205645,4.032131,-11.00214,32.33895436308927
1,-0.06376648,0.2380066,0.969162,1.0,-0.04067993,0.2234039,0.9738617,-29.21901,-6.298035,-18.949070000000003,3.940002,0.421825,0.6567166,1.0,-0.08650208,0.2522278,0.9637756,37.57468,-5.968933,-20.4884,3.923248000000001,0.3530915999999999,0.6575226,-0.1563163,1.193767,-0.08060205,0.08979192,0.7107741999999999,-0.09205645,4.032131,-11.00214,32.33895436308927
1,-0.06509399,0.2342987,0.9699707,1.0,-0.04199219,0.2201842999999999,0.9745483,-29.20711,-6.301849,-18.94702,3.938232,0.4216581,0.6573102,1.0,-0.08752441,0.2478638,0.9648285,37.5808,-5.977188,-20.4884,3.925186,0.3530444,0.6584901,-0.1567861,1.194133,-0.08030534,0.08860867,0.7102839,-0.09058021,4.032131,-11.00214,32.33895436308927
1,-0.06509399,0.2342987,0.9699707,1.0,-0.04199219,0.2201842999999999,0.9745483,-29.20711,-6.301849,-18.94702,3.938232,0.4216581,0.6573102,1.0,-0.08752441,0.2478638,0.9648285,37.5808,-5.977188,-20.4884,3.925186,0.3530444,0.6584901,-0.1567861,1.194133,-0.08030534,0.08860867,0.7102839,-0.09058021,4.032131,-11.00214,32.33895436308927
1,-0.06509399,0.2342987,0.9699707,1.0,-0.04199219,0.2201842999999999,0.9745483,-29.20711,-6.301849,-18.94702,3.938232,0.4216581,0.6573102,1.0,-0.08752441,0.2478638,0.9648285,37.5808,-5.977188,-20.4884,3.925186,0.3530444,0.6584901,-0.1567861,1.194133,-0.08030534,0.08860867,0.7102839,-0.09058021,4.032131,-11.00214,32.33895436308927
1,-0.06915283,0.225235,0.9718323,1.0,-0.04194641,0.206665,0.9775085,-29.21341,-6.405624,-18.849870000000003,3.948639,0.4218596999999999,0.6617174,1.0,-0.08972168,0.2391204999999999,0.9668274,37.589290000000005,-6.032379,-20.48448,3.986908,0.3530604,0.6617433000000001,-0.1570477,1.195527,-0.07998383,0.08468128,0.709755,-0.08686946,4.032131,-11.00214,32.33895436308927
1,-0.06915283,0.225235,0.9718323,1.0,-0.04194641,0.206665,0.9775085,-29.21341,-6.405624,-18.849870000000003,3.948639,0.4218596999999999,0.6617174,1.0,-0.08972168,0.2391204999999999,0.9668274,37.589290000000005,-6.032379,-20.48448,3.986908,0.3530604,0.6617433000000001,-0.1570477,1.195527,-0.07998383,0.08468128,0.709755,-0.08686946,4.032131,-11.00214,32.33895436308927
1,-0.06915283,0.225235,0.9718323,1.0,-0.04194641,0.206665,0.9775085,-29.21341,-6.405624,-18.849870000000003,3.948639,0.4218596999999999,0.6617174,1.0,-0.08972168,0.2391204999999999,0.9668274,37.589290000000005,-6.032379,-20.48448,3.986908,0.3530604,0.6617433000000001,-0.1570477,1.195527,-0.07998383,0.08468128,0.709755,-0.08686946,4.032131,-11.00214,32.33895436308927
1,-0.07920837,0.2341461,0.9689636,1.0,-0.04414368,0.2178192,0.9749756,-29.230970000000003,-6.595764,-18.47914,3.971497,0.4228967999999999,0.6623772,1.0,-0.08621216,0.2373657,0.9675751,37.55914,-6.0466,-20.48364,4.000824,0.3534455999999999,0.662484,-0.1573825,1.196033,-0.07972962,0.08334386,0.7095684,-0.08492678,4.032131,-9.10553,32.33895436308927
1,-0.07920837,0.2341461,0.9689636,1.0,-0.04414368,0.2178192,0.9749756,-29.230970000000003,-6.595764,-18.47914,3.971497,0.4228967999999999,0.6623772,1.0,-0.08621216,0.2373657,0.9675751,37.55914,-6.0466,-20.48364,4.000824,0.3534455999999999,0.662484,-0.1573825,1.196033,-0.07972962,0.08334386,0.7095684,-0.08492678,4.032131,-9.10553,32.33895436308927
1,-0.07920837,0.2341461,0.9689636,1.0,-0.04414368,0.2178192,0.9749756,-29.230970000000003,-6.595764,-18.47914,3.971497,0.4228967999999999,0.6623772,1.0,-0.08621216,0.2373657,0.9675751,37.55914,-6.0466,-20.48364,4.000824,0.3534455999999999,0.662484,-0.1573825,1.196033,-0.07972962,0.08334386,0.7095684,-0.08492678,4.032131,-9.10553,32.33895436308927
1,-0.08499146,0.2363586,0.967926,1.0,-0.04325867,0.2163849,0.9753418,-29.2426,-6.59935,-18.45557,3.969208,0.4231299,0.6624711999999999,1.0,-0.08750916,0.2375487999999999,0.9674225,37.55511,-6.058823,-20.48312,4.000565,0.3537868,0.6628553,-0.1576142,1.196438,-0.07940847,0.08246652,0.7094986,-0.08336777,4.032131,-9.10553,32.33895436308927
1,-0.08499146,0.2363586,0.967926,1.0,-0.04325867,0.2163849,0.9753418,-29.2426,-6.59935,-18.45557,3.969208,0.4231299,0.6624711999999999,1.0,-0.08750916,0.2375487999999999,0.9674225,37.55511,-6.058823,-20.48312,4.000565,0.3537868,0.6628553,-0.1576142,1.196438,-0.07940847,0.08246652,0.7094986,-0.08336777,4.032131,-9.10553,32.33895436308927
1,-0.08499146,0.2363586,0.967926,1.0,-0.04325867,0.2163849,0.9753418,-29.2426,-6.59935,-18.45557,3.969208,0.4231299,0.6624711999999999,1.0,-0.08750916,0.2375487999999999,0.9674225,37.55511,-6.058823,-20.48312,4.000565,0.3537868,0.6628553,-0.1576142,1.196438,-0.07940847,0.08246652,0.7094986,-0.08336777,4.032131,-9.10553,32.33895436308927
1,-0.08779907,0.2286224,0.9695435,1.0,-0.0461731,0.2145538,0.9756165,-29.25229,-6.662292,-18.31241,3.984543,0.4239350999999999,0.6633690999999999,1.0,-0.0880127,0.2286987,0.9694977,37.54431,-6.058823,-20.48297,3.995529,0.354196,0.6642670999999999,-0.1578964,1.196833,-0.07931191,0.08168071,0.7093973000000001,-0.08209111,4.032131,-9.10553,32.33895436308927
1,-0.08779907,0.2286224,0.9695435,1.0,-0.0461731,0.2145538,0.9756165,-29.25229,-6.662292,-18.31241,3.984543,0.4239350999999999,0.6633690999999999,1.0,-0.0880127,0.2286987,0.9694977,37.54431,-6.058823,-20.48297,3.995529,0.354196,0.6642670999999999,-0.1578964,1.196833,-0.07931191,0.08168071,0.7093973000000001,-0.08209111,4.032131,-9.10553,32.33895436308927
1,-0.08779907,0.2286224,0.9695435,1.0,-0.0461731,0.2145538,0.9756165,-29.25229,-6.662292,-18.31241,3.984543,0.4239350999999999,0.6633690999999999,1.0,-0.0880127,0.2286987,0.9694977,37.54431,-6.058823,-20.48297,3.995529,0.354196,0.6642670999999999,-0.1578964,1.196833,-0.07931191,0.08168071,0.7093973000000001,-0.08209111,4.032131,-9.10553,32.33895436308927
1,-0.09642029,0.2216492,0.9703369,1.0,-0.04891968,0.2044983,0.9776306,-29.28441,-6.802703999999999,-17.97075,3.970444,0.4254666,0.6660077,1.0,-0.0967865,0.2217864999999999,0.9702759,37.49121,-6.173477,-20.46248,4.068878,0.3572929999999999,0.6690351999999999,-0.1580886,1.197059,-0.07928342,0.08106768,0.7093672,-0.08157466,4.032131,-9.10553,32.33895436308927
1,-0.09642029,0.2216492,0.9703369,1.0,-0.04891968,0.2044983,0.9776306,-29.28441,-6.802703999999999,-17.97075,3.970444,0.4254666,0.6660077,1.0,-0.0967865,0.2217864999999999,0.9702759,37.49121,-6.173477,-20.46248,4.068878,0.3572929999999999,0.6690351999999999,-0.1580886,1.197059,-0.07928342,0.08106768,0.7093672,-0.08157466,4.032131,-9.10553,32.33895436308927
1,-0.09642029,0.2216492,0.9703369,1.0,-0.04891968,0.2044983,0.9776306,-29.28441,-6.802703999999999,-17.97075,3.970444,0.4254666,0.6660077,1.0,-0.0967865,0.2217864999999999,0.9702759,37.49121,-6.173477,-20.46248,4.068878,0.3572929999999999,0.6690351999999999,-0.1580886,1.197059,-0.07928342,0.08106768,0.7093672,-0.08157466,4.032131,-9.10553,32.33895436308927
1,-0.09573364,0.2172852,0.9713898,1.0,-0.05938721,0.1951141,0.9789734,-29.28226,-6.584274000000001,-18.80165,3.940933,0.4267779,0.6686658000000001,1.0,-0.09573364,0.2173003999999999,0.9713898,37.48567,-6.187897,-20.452820000000003,4.0640410000000005,0.3572929999999999,0.6701064,-0.1582267,1.197177,-0.07925195,0.08038472,0.7095109,-0.08041799,4.032131,3.944733,32.33895436308927
1,-0.09573364,0.2172852,0.9713898,1.0,-0.05938721,0.1951141,0.9789734,-29.28226,-6.584274000000001,-18.80165,3.940933,0.4267779,0.6686658000000001,1.0,-0.09573364,0.2173003999999999,0.9713898,37.48567,-6.187897,-20.452820000000003,4.0640410000000005,0.3572929999999999,0.6701064,-0.1582267,1.197177,-0.07925195,0.08038472,0.7095109,-0.08041799,4.032131,3.944733,32.33895436308927
1,-0.09573364,0.2172852,0.9713898,1.0,-0.05938721,0.1951141,0.9789734,-29.28226,-6.584274000000001,-18.80165,3.940933,0.4267779,0.6686658000000001,1.0,-0.09573364,0.2173003999999999,0.9713898,37.48567,-6.187897,-20.452820000000003,4.0640410000000005,0.3572929999999999,0.6701064,-0.1582267,1.197177,-0.07925195,0.08038472,0.7095109,-0.08041799,4.032131,3.944733,32.33895436308927
1,-0.09629822,0.2174683,0.9712982,1.0,-0.06112671,0.1916809,0.979538,-29.28226,-6.585814999999999,-18.78821,3.928635,0.4270542999999999,0.6691037,1.0,-0.09629822,0.2174835,0.9712982,37.48311,-6.191132,-20.45027,4.064468,0.3574714,0.6701578,-0.1583967,1.197374,-0.079099,0.07929289,0.7098691999999999,-0.08008466,4.032131,3.944733,32.33895436308927
1,-0.09629822,0.2174683,0.9712982,1.0,-0.06112671,0.1916809,0.979538,-29.28226,-6.585814999999999,-18.78821,3.928635,0.4270542999999999,0.6691037,1.0,-0.09629822,0.2174835,0.9712982,37.48311,-6.191132,-20.45027,4.064468,0.3574714,0.6701578,-0.1583967,1.197374,-0.079099,0.07929289,0.7098691999999999,-0.08008466,4.032131,3.944733,32.33895436308927
1,-0.09629822,0.2174683,0.9712982,1.0,-0.06112671,0.1916809,0.979538,-29.28226,-6.585814999999999,-18.78821,3.928635,0.4270542999999999,0.6691037,1.0,-0.09629822,0.2174835,0.9712982,37.48311,-6.191132,-20.45027,4.064468,0.3574714,0.6701578,-0.1583967,1.197374,-0.079099,0.07929289,0.7098691999999999,-0.08008466,4.032131,3.944733,32.33895436308927
1,-0.06533813,0.1992187999999999,0.9777679,1.0,-0.06159973,0.1892395,0.9799957,-29.28291,-6.587051,-18.78821,3.92662,0.4271463,0.6695274,1.0,-0.0712738,0.2150726,0.9739838,37.35594,-6.258179,-20.24741,4.064896,0.3576424,0.6705985999999999,-0.158492,1.197802,-0.07922605,0.07858548,0.709971,-0.07950829,4.032131,3.944733,32.33895436308927
1,-0.06533813,0.1992187999999999,0.9777679,1.0,-0.06159973,0.1892395,0.9799957,-29.28291,-6.587051,-18.78821,3.92662,0.4271463,0.6695274,1.0,-0.0712738,0.2150726,0.9739838,37.35594,-6.258179,-20.24741,4.064896,0.3576424,0.6705985999999999,-0.158492,1.197802,-0.07922605,0.07858548,0.709971,-0.07950829,4.032131,3.944733,32.33895436308927
1,-0.06533813,0.1992187999999999,0.9777679,1.0,-0.06159973,0.1892395,0.9799957,-29.28291,-6.587051,-18.78821,3.92662,0.4271463,0.6695274,1.0,-0.0712738,0.2150726,0.9739838,37.35594,-6.258179,-20.24741,4.064896,0.3576424,0.6705985999999999,-0.158492,1.197802,-0.07922605,0.07858548,0.709971,-0.07950829,4.032131,3.944733,32.33895436308927
1,-0.07788086,0.2281799,0.9704895,1.0,-0.04544067,0.2116852,0.9762726,-29.29616,-6.809082000000001,-17.92255,3.988846,0.4253063,0.6646524,1.0,-0.08450317,0.2315216,0.9691467,37.54034,-6.091965,-20.38322,4.062378,0.3538297,0.6639628000000001,-0.1583639,1.198528,-0.07921878,0.07543889,0.710286,-0.07671279,4.032131,3.944733,32.33895436308927
1,-0.07788086,0.2281799,0.9704895,1.0,-0.04544067,0.2116852,0.9762726,-29.29616,-6.809082000000001,-17.92255,3.988846,0.4253063,0.6646524,1.0,-0.08450317,0.2315216,0.9691467,37.54034,-6.091965,-20.38322,4.062378,0.3538297,0.6639628000000001,-0.1583639,1.198528,-0.07921878,0.07543889,0.710286,-0.07671279,4.032131,3.944733,32.33895436308927
1,-0.07788086,0.2281799,0.9704895,1.0,-0.04544067,0.2116852,0.9762726,-29.29616,-6.809082000000001,-17.92255,3.988846,0.4253063,0.6646524,1.0,-0.08450317,0.2315216,0.9691467,37.54034,-6.091965,-20.38322,4.062378,0.3538297,0.6639628000000001,-0.1583639,1.198528,-0.07921878,0.07543889,0.710286,-0.07671279,4.032131,3.944733,32.33895436308927
1,-0.05677795,0.2598877,0.9639587,1.0,-0.05403137,0.2390594,0.9694824,-29.163090000000004,-6.39328,-18.60728,4.001923000000001,0.4223562,0.6540434,1.0,-0.05722046,0.2632904,0.9630127,37.40958,-5.982483,-20.3439,3.913483,0.3537909999999999,0.6546535,-0.1585797999999999,1.198844,-0.07913244,0.07351056,0.7104524,-0.07518966,4.032131,3.944733,32.33895436308927
1,-0.05677795,0.2598877,0.9639587,1.0,-0.05403137,0.2390594,0.9694824,-29.163090000000004,-6.39328,-18.60728,4.001923000000001,0.4223562,0.6540434,1.0,-0.05722046,0.2632904,0.9630127,37.40958,-5.982483,-20.3439,3.913483,0.3537909999999999,0.6546535,-0.1585797999999999,1.198844,-0.07913244,0.07351056,0.7104524,-0.07518966,4.032131,3.944733,32.33895436308927
1,-0.05677795,0.2598877,0.9639587,1.0,-0.05403137,0.2390594,0.9694824,-29.163090000000004,-6.39328,-18.60728,4.001923000000001,0.4223562,0.6540434,1.0,-0.05722046,0.2632904,0.9630127,37.40958,-5.982483,-20.3439,3.913483,0.3537909999999999,0.6546535,-0.1585797999999999,1.198844,-0.07913244,0.07351056,0.7104524,-0.07518966,4.032131,3.944733,32.33895436308927
1,-0.06062317,0.2577514999999999,0.9642944,1.0,-0.04743958,0.2450255999999999,0.9683533,-29.204790000000003,-6.446701,-18.56641,3.973801,0.4226301999999999,0.6543526999999999,1.0,-0.06201172,0.2590942,0.9638519,37.41965,-5.996658,-20.34354,4.020294,0.3542068,0.6559486999999999,-0.1591884,1.19959,-0.0791277,0.07108773,0.7106442,-0.07252638,4.032131,3.944733,32.33895436308927
1,-0.06062317,0.2577514999999999,0.9642944,1.0,-0.04743958,0.2450255999999999,0.9683533,-29.204790000000003,-6.446701,-18.56641,3.973801,0.4226301999999999,0.6543526999999999,1.0,-0.06201172,0.2590942,0.9638519,37.41965,-5.996658,-20.34354,4.020294,0.3542068,0.6559486999999999,-0.1591884,1.19959,-0.0791277,0.07108773,0.7106442,-0.07252638,4.032131,3.944733,32.33895436308927
1,-0.06062317,0.2577514999999999,0.9642944,1.0,-0.04743958,0.2450255999999999,0.9683533,-29.204790000000003,-6.446701,-18.56641,3.973801,0.4226301999999999,0.6543526999999999,1.0,-0.06201172,0.2590942,0.9638519,37.41965,-5.996658,-20.34354,4.020294,0.3542068,0.6559486999999999,-0.1591884,1.19959,-0.0791277,0.07108773,0.7106442,-0.07252638,4.032131,3.944733,32.33895436308927
1,-0.05079651,0.2449646,0.9681854,1.0,-0.03616333,0.240509,0.9699707,-29.2556,-6.453064,-18.52161,3.969681,0.4224332,0.6547989000000001,1.0,-0.06306458,0.2486572,0.9665222,37.425,-6.014282,-20.337770000000003,4.044312000000001,0.354171,0.658169,-0.1594999,1.20034,-0.07928649,0.06860034,0.7107975000000001,-0.07067009,4.032131,-14.08581,32.33895436308927
1,-0.05079651,0.2449646,0.9681854,1.0,-0.03616333,0.240509,0.9699707,-29.2556,-6.453064,-18.52161,3.969681,0.4224332,0.6547989000000001,1.0,-0.06306458,0.2486572,0.9665222,37.425,-6.014282,-20.337770000000003,4.044312000000001,0.354171,0.658169,-0.1594999,1.20034,-0.07928649,0.06860034,0.7107975000000001,-0.07067009,4.032131,-14.08581,32.33895436308927
1,-0.05079651,0.2449646,0.9681854,1.0,-0.03616333,0.240509,0.9699707,-29.2556,-6.453064,-18.52161,3.969681,0.4224332,0.6547989000000001,1.0,-0.06306458,0.2486572,0.9665222,37.425,-6.014282,-20.337770000000003,4.044312000000001,0.354171,0.658169,-0.1594999,1.20034,-0.07928649,0.06860034,0.7107975000000001,-0.07067009,4.032131,-14.08581,32.33895436308927
1,-0.04995728,0.2379761,0.9699707,1.0,-0.03489685,0.2298889,0.97258,-29.26881,-6.482727,-18.50888,3.946701,0.4226359,0.6572116,1.0,-0.06472778,0.2458344,0.9671326,37.44037,-6.053085,-20.30547,4.042603,0.3539632,0.6595399000000001,-0.1598561,1.201114,-0.07945037,0.06625332,0.7110741,-0.06802937,4.032131,-14.08581,32.33895436308927
1,-0.04995728,0.2379761,0.9699707,1.0,-0.03489685,0.2298889,0.97258,-29.26881,-6.482727,-18.50888,3.946701,0.4226359,0.6572116,1.0,-0.06472778,0.2458344,0.9671326,37.44037,-6.053085,-20.30547,4.042603,0.3539632,0.6595399000000001,-0.1598561,1.201114,-0.07945037,0.06625332,0.7110741,-0.06802937,4.032131,-14.08581,32.33895436308927
1,-0.04995728,0.2379761,0.9699707,1.0,-0.03489685,0.2298889,0.97258,-29.26881,-6.482727,-18.50888,3.946701,0.4226359,0.6572116,1.0,-0.06472778,0.2458344,0.9671326,37.44037,-6.053085,-20.30547,4.042603,0.3539632,0.6595399000000001,-0.1598561,1.201114,-0.07945037,0.06625332,0.7110741,-0.06802937,4.032131,-14.08581,32.33895436308927
1,-0.04943848,0.2369842999999999,0.9702454,1.0,-0.03492737,0.2290954999999999,0.9727631,-29.27135,-6.485901,-18.506870000000003,3.926208,0.4227228,0.6573916999999999,1.0,-0.06535339,0.2455902,0.9671631,37.44249,-6.056839,-20.29366,4.044205000000001,0.354008,0.6595941,-0.1605513999999999,1.20285,-0.07968879,0.05935012,0.7116948000000001,-0.06302319,4.032131,-14.08581,32.33895436308927
1,-0.04943848,0.2369842999999999,0.9702454,1.0,-0.03492737,0.2290954999999999,0.9727631,-29.27135,-6.485901,-18.506870000000003,3.926208,0.4227228,0.6573916999999999,1.0,-0.06535339,0.2455902,0.9671631,37.44249,-6.056839,-20.29366,4.044205000000001,0.354008,0.6595941,-0.1605513999999999,1.20285,-0.07968879,0.05935012,0.7116948000000001,-0.06302319,4.032131,-14.08581,32.33895436308927
1,-0.04943848,0.2369842999999999,0.9702454,1.0,-0.03492737,0.2290954999999999,0.9727631,-29.27135,-6.485901,-18.506870000000003,3.926208,0.4227228,0.6573916999999999,1.0,-0.06535339,0.2455902,0.9671631,37.44249,-6.056839,-20.29366,4.044205000000001,0.354008,0.6595941,-0.1605513999999999,1.20285,-0.07968879,0.05935012,0.7116948000000001,-0.06302319,4.032131,-14.08581,32.33895436308927
1,-0.05317688,0.2238464,0.9731598,1.0,-0.03822327,0.2112427,0.9766693,-29.27438,-6.535309,-18.4319,3.877716,0.4233496,0.6609115,1.0,-0.06634521,0.2348938,0.9697418,37.46133,-6.0923,-20.26915,3.980881,0.3535676,0.6621074,-0.16101,1.203813,-0.07975137,0.05596048,0.7119108000000001,-0.06029896,4.07954,-14.08581,32.33895436308927
1,-0.05317688,0.2238464,0.9731598,1.0,-0.03822327,0.2112427,0.9766693,-29.27438,-6.535309,-18.4319,3.877716,0.4233496,0.6609115,1.0,-0.06634521,0.2348938,0.9697418,37.46133,-6.0923,-20.26915,3.980881,0.3535676,0.6621074,-0.16101,1.203813,-0.07975137,0.05596048,0.7119108000000001,-0.06029896,4.07954,-14.08581,32.33895436308927
1,-0.05317688,0.2238464,0.9731598,1.0,-0.03822327,0.2112427,0.9766693,-29.27438,-6.535309,-18.4319,3.877716,0.4233496,0.6609115,1.0,-0.06634521,0.2348938,0.9697418,37.46133,-6.0923,-20.26915,3.980881,0.3535676,0.6621074,-0.16101,1.203813,-0.07975137,0.05596048,0.7119108000000001,-0.06029896,4.07954,-14.08581,32.33895436308927
1,-0.05569458,0.2167969,0.9746246,1.0,-0.03929138,0.2011414,0.9787598,-29.2773,-6.588042999999999,-18.41098,3.871216,0.423598,0.6639185999999999,1.0,-0.06803894,0.2285308999999999,0.9711456,37.46939,-6.148376,-20.25233,3.967209,0.3535676,0.6647528,-0.1617777999999999,1.205117,-0.0800572,0.05094074,0.7119409999999999,-0.05569287,4.07954,-13.98346,32.33895436308927
1,-0.05569458,0.2167969,0.9746246,1.0,-0.03929138,0.2011414,0.9787598,-29.2773,-6.588042999999999,-18.41098,3.871216,0.423598,0.6639185999999999,1.0,-0.06803894,0.2285308999999999,0.9711456,37.46939,-6.148376,-20.25233,3.967209,0.3535676,0.6647528,-0.1617777999999999,1.205117,-0.0800572,0.05094074,0.7119409999999999,-0.05569287,4.07954,-13.98346,32.33895436308927
1,-0.05569458,0.2167969,0.9746246,1.0,-0.03929138,0.2011414,0.9787598,-29.2773,-6.588042999999999,-18.41098,3.871216,0.423598,0.6639185999999999,1.0,-0.06803894,0.2285308999999999,0.9711456,37.46939,-6.148376,-20.25233,3.967209,0.3535676,0.6647528,-0.1617777999999999,1.205117,-0.0800572,0.05094074,0.7119409999999999,-0.05569287,4.07954,-13.98346,32.33895436308927
1,-0.05529785,0.2049712999999999,0.9771881,1.0,-0.04264832,0.1889037999999999,0.9810638,-29.27356,-6.620589999999999,-18.41098,3.845184,0.4239973,0.6667981,1.0,-0.07006836,0.2236481,0.9721375,37.47896,-6.224564,-20.19209,3.915955,0.353636,0.6673111999999999,-0.1623167,1.205737,-0.08016714,0.04936356,0.7119404,-0.05431069,4.07954,-13.98346,32.33895436308927
1,-0.05529785,0.2049712999999999,0.9771881,1.0,-0.04264832,0.1889037999999999,0.9810638,-29.27356,-6.620589999999999,-18.41098,3.845184,0.4239973,0.6667981,1.0,-0.07006836,0.2236481,0.9721375,37.47896,-6.224564,-20.19209,3.915955,0.353636,0.6673111999999999,-0.1623167,1.205737,-0.08016714,0.04936356,0.7119404,-0.05431069,4.07954,-13.98346,32.33895436308927
1,-0.05529785,0.2049712999999999,0.9771881,1.0,-0.04264832,0.1889037999999999,0.9810638,-29.27356,-6.620589999999999,-18.41098,3.845184,0.4239973,0.6667981,1.0,-0.07006836,0.2236481,0.9721375,37.47896,-6.224564,-20.19209,3.915955,0.353636,0.6673111999999999,-0.1623167,1.205737,-0.08016714,0.04936356,0.7119404,-0.05431069,4.07954,-13.98346,32.33895436308927
1,-0.06204224,0.2095642,0.9758148,1.0,-0.04943848,0.197113,0.979126,-29.24199,-6.636214999999999,-18.69066,3.779312,0.4240032,0.6686369000000001,1.0,-0.07142639,0.218811,0.9731445,37.48689,-6.323029,-20.11511,3.912933,0.353636,0.6704854,-0.1631023999999999,1.206492,-0.0804283,0.04816478,0.7117503000000001,-0.05409323,4.07954,-13.98346,32.33895436308927
1,-0.06204224,0.2095642,0.9758148,1.0,-0.04943848,0.197113,0.979126,-29.24199,-6.636214999999999,-18.69066,3.779312,0.4240032,0.6686369000000001,1.0,-0.07142639,0.218811,0.9731445,37.48689,-6.323029,-20.11511,3.912933,0.353636,0.6704854,-0.1631023999999999,1.206492,-0.0804283,0.04816478,0.7117503000000001,-0.05409323,4.07954,-13.98346,32.33895436308927
1,-0.06204224,0.2095642,0.9758148,1.0,-0.04943848,0.197113,0.979126,-29.24199,-6.636214999999999,-18.69066,3.779312,0.4240032,0.6686369000000001,1.0,-0.07142639,0.218811,0.9731445,37.48689,-6.323029,-20.11511,3.912933,0.353636,0.6704854,-0.1631023999999999,1.206492,-0.0804283,0.04816478,0.7117503000000001,-0.05409323,4.07954,-13.98346,32.33895436308927
1,-0.07159424,0.1937102999999999,0.9784393,1.0,-0.05088806,0.1873474,0.9809723,-29.23561,-6.694,-18.86485,3.721375,0.423943,0.6736281999999999,1.0,-0.07322693,0.1942139,0.9782104,37.50133,-6.504181,-19.83812,3.866516,0.353636,0.6774103,-0.163536,1.206281,-0.08066094,0.05001309,0.7116308000000001,-0.05570073,4.07954,-13.98346,33.51
1,-0.07159424,0.1937102999999999,0.9784393,1.0,-0.05088806,0.1873474,0.9809723,-29.23561,-6.694,-18.86485,3.721375,0.423943,0.6736281999999999,1.0,-0.07322693,0.1942139,0.9782104,37.50133,-6.504181,-19.83812,3.866516,0.353636,0.6774103,-0.163536,1.206281,-0.08066094,0.05001309,0.7116308000000001,-0.05570073,4.07954,-13.98346,33.51
1,-0.07159424,0.1937102999999999,0.9784393,1.0,-0.05088806,0.1873474,0.9809723,-29.23561,-6.694,-18.86485,3.721375,0.423943,0.6736281999999999,1.0,-0.07322693,0.1942139,0.9782104,37.50133,-6.504181,-19.83812,3.866516,0.353636,0.6774103,-0.163536,1.206281,-0.08066094,0.05001309,0.7116308000000001,-0.05570073,4.07954,-13.98346,33.51
1,-0.05046082,0.1720428,0.9837799,1.0,-0.04946899,0.1712341,0.9839783,-29.23433,-6.699966000000001,-18.81297,3.696716,0.4236757,0.6757854,1.0,-0.0725708,0.1900177,0.9790802,37.5184,-6.739594,-19.33485,3.878601,0.3534203,0.6805549,-0.1642573,1.204459,-0.08094895,0.060024,0.7110773,-0.06270099,4.07954,-13.98346,33.51
1,-0.05046082,0.1720428,0.9837799,1.0,-0.04946899,0.1712341,0.9839783,-29.23433,-6.699966000000001,-18.81297,3.696716,0.4236757,0.6757854,1.0,-0.0725708,0.1900177,0.9790802,37.5184,-6.739594,-19.33485,3.878601,0.3534203,0.6805549,-0.1642573,1.204459,-0.08094895,0.060024,0.7110773,-0.06270099,4.07954,-13.98346,33.51
1,-0.05046082,0.1720428,0.9837799,1.0,-0.04946899,0.1712341,0.9839783,-29.23433,-6.699966000000001,-18.81297,3.696716,0.4236757,0.6757854,1.0,-0.0725708,0.1900177,0.9790802,37.5184,-6.739594,-19.33485,3.878601,0.3534203,0.6805549,-0.1642573,1.204459,-0.08094895,0.060024,0.7110773,-0.06270099,4.07954,-13.98346,33.51
1,-0.04336548,0.1589355,0.9863281,1.0,-0.04335022,0.1589355,0.9863281,-29.23137,-6.780060000000001,-18.77303,3.674835,0.4226073,0.6797622,1.0,-0.07019043,0.1754302999999999,0.9819794,37.525940000000006,-6.901077000000001,-19.09253,3.890457,0.3530362999999999,0.6855055999999999,-0.1646082999999999,1.20275,-0.08098996,0.06954026,0.7102875,-0.06884157,4.07954,16.30881,33.51
1,-0.04336548,0.1589355,0.9863281,1.0,-0.04335022,0.1589355,0.9863281,-29.23137,-6.780060000000001,-18.77303,3.674835,0.4226073,0.6797622,1.0,-0.07019043,0.1754302999999999,0.9819794,37.525940000000006,-6.901077000000001,-19.09253,3.890457,0.3530362999999999,0.6855055999999999,-0.1646082999999999,1.20275,-0.08098996,0.06954026,0.7102875,-0.06884157,4.07954,16.30881,33.51
1,-0.04336548,0.1589355,0.9863281,1.0,-0.04335022,0.1589355,0.9863281,-29.23137,-6.780060000000001,-18.77303,3.674835,0.4226073,0.6797622,1.0,-0.07019043,0.1754302999999999,0.9819794,37.525940000000006,-6.901077000000001,-19.09253,3.890457,0.3530362999999999,0.6855055999999999,-0.1646082999999999,1.20275,-0.08098996,0.06954026,0.7102875,-0.06884157,4.07954,16.30881,33.51
1,-0.05955505,0.178421,0.9821472,1.0,-0.04188538,0.1710052,0.984375,-29.22278,-6.904221000000001,-18.56975,3.683899,0.4221867,0.6797622,1.0,-0.06918335,0.1824341,0.9807739,37.525940000000006,-6.938446000000001,-19.08669,3.883774,0.3528864,0.6855055999999999,-0.1651601,1.197534,-0.08090353,0.1017554,0.705866,-0.08962638,4.07954,16.30881,33.51
1,-0.05955505,0.178421,0.9821472,1.0,-0.04188538,0.1710052,0.984375,-29.22278,-6.904221000000001,-18.56975,3.683899,0.4221867,0.6797622,1.0,-0.06918335,0.1824341,0.9807739,37.525940000000006,-6.938446000000001,-19.08669,3.883774,0.3528864,0.6855055999999999,-0.1651601,1.197534,-0.08090353,0.1017554,0.705866,-0.08962638,4.07954,16.30881,33.51
1,-0.05955505,0.178421,0.9821472,1.0,-0.04188538,0.1710052,0.984375,-29.22278,-6.904221000000001,-18.56975,3.683899,0.4221867,0.6797622,1.0,-0.06918335,0.1824341,0.9807739,37.525940000000006,-6.938446000000001,-19.08669,3.883774,0.3528864,0.6855055999999999,-0.1651601,1.197534,-0.08090353,0.1017554,0.705866,-0.08962638,4.07954,16.30881,33.51
1,-0.04743958,0.1433716,0.9885254,1.0,-0.04743958,0.1433716,0.9885254,-28.45612,-7.226273,-20.04187,3.674576,0.3981119,0.7087642,1.0,-0.0592040999999999,0.1582336,0.985611,37.81282,-7.224854,-20.58244,3.831909,0.3398239999999999,0.7142185999999999,-0.1658083,1.193804,-0.08045691,0.1240768,0.700575,-0.1032958999999999,4.07954,16.30881,33.51
1,-0.04743958,0.1433716,0.9885254,1.0,-0.04743958,0.1433716,0.9885254,-28.45612,-7.226273,-20.04187,3.674576,0.3981119,0.7087642,1.0,-0.0592040999999999,0.1582336,0.985611,37.81282,-7.224854,-20.58244,3.831909,0.3398239999999999,0.7142185999999999,-0.1658083,1.193804,-0.08045691,0.1240768,0.700575,-0.1032958999999999,4.07954,16.30881,33.51
1,-0.04743958,0.1433716,0.9885254,1.0,-0.04743958,0.1433716,0.9885254,-28.45612,-7.226273,-20.04187,3.674576,0.3981119,0.7087642,1.0,-0.0592040999999999,0.1582336,0.985611,37.81282,-7.224854,-20.58244,3.831909,0.3398239999999999,0.7142185999999999,-0.1658083,1.193804,-0.08045691,0.1240768,0.700575,-0.1032958999999999,4.07954,16.30881,33.51
1,-0.001571655,-0.0307312,0.9995117,1.0,-0.005691528,-0.07284546,0.9973145,-27.60127,-9.373077,-18.87856,3.904251,0.3636609,0.8012699999999999,1.0,-0.001190186,-0.02684021,0.9996338,38.05592,-9.067749,-20.85904,3.971695,0.3189991,0.8104129,-0.1675256,1.185497,-0.07816672,0.1710943,0.6856958000000001,-0.1363621,4.07954,16.30881,33.51
1,-0.001571655,-0.0307312,0.9995117,1.0,-0.005691528,-0.07284546,0.9973145,-27.60127,-9.373077,-18.87856,3.904251,0.3636609,0.8012699999999999,1.0,-0.001190186,-0.02684021,0.9996338,38.05592,-9.067749,-20.85904,3.971695,0.3189991,0.8104129,-0.1675256,1.185497,-0.07816672,0.1710943,0.6856958000000001,-0.1363621,4.07954,16.30881,33.51
1,-0.001571655,-0.0307312,0.9995117,1.0,-0.005691528,-0.07284546,0.9973145,-27.60127,-9.373077,-18.87856,3.904251,0.3636609,0.8012699999999999,1.0,-0.001190186,-0.02684021,0.9996338,38.05592,-9.067749,-20.85904,3.971695,0.3189991,0.8104129,-0.1675256,1.185497,-0.07816672,0.1710943,0.6856958000000001,-0.1363621,4.07954,16.30881,33.51
1,-0.00138855,-0.009185791,0.9999542,0.9202934000000002,-0.01522827,-0.04379272,0.9989166,-27.74199,-8.911118,-18.90891,3.835999,0.3700241,0.7815451,0.5864633,-0.001373291,-0.009140015,0.9999542,38.15523,-8.363097999999999,-21.31326,3.860397,0.3160011,0.7884203000000001,-0.1683527999999999,1.181714,-0.07650718,0.191383,0.6764314,-0.1537545,4.07954,16.30881,33.51
1,-0.00138855,-0.009185791,0.9999542,0.9202934000000002,-0.01522827,-0.04379272,0.9989166,-27.74199,-8.911118,-18.90891,3.835999,0.3700241,0.7815451,0.5864633,-0.001373291,-0.009140015,0.9999542,38.15523,-8.363097999999999,-21.31326,3.860397,0.3160011,0.7884203000000001,-0.1683527999999999,1.181714,-0.07650718,0.191383,0.6764314,-0.1537545,4.07954,16.30881,33.51
1,-0.00138855,-0.009185791,0.9999542,0.9202934000000002,-0.01522827,-0.04379272,0.9989166,-27.74199,-8.911118,-18.90891,3.835999,0.3700241,0.7815451,0.5864633,-0.001373291,-0.009140015,0.9999542,38.15523,-8.363097999999999,-21.31326,3.860397,0.3160011,0.7884203000000001,-0.1683527999999999,1.181714,-0.07650718,0.191383,0.6764314,-0.1537545,4.07954,16.30881,33.51
2,-0.02781677,0.03038025,0.9991455,0.8345385000000001,-0.02816772,0.02824402,0.9991913,-27.8735,-8.005676,-19.09811,3.804108,0.3767489,0.7424769,0.6786493,-0.02114868,0.07020569,0.9972992,38.164640000000006,-7.429398,-21.64275,3.740784,0.3199103,0.7469081999999999,-0.1703277999999999,1.176851,-0.07185045,0.2110656,0.6570956,-0.181215,4.07954,16.30881,33.51
2,-0.02781677,0.03038025,0.9991455,0.8345385000000001,-0.02816772,0.02824402,0.9991913,-27.8735,-8.005676,-19.09811,3.804108,0.3767489,0.7424769,0.6786493,-0.02114868,0.07020569,0.9972992,38.164640000000006,-7.429398,-21.64275,3.740784,0.3199103,0.7469081999999999,-0.1703277999999999,1.176851,-0.07185045,0.2110656,0.6570956,-0.181215,4.07954,16.30881,33.51
2,-0.02781677,0.03038025,0.9991455,0.8345385000000001,-0.02816772,0.02824402,0.9991913,-27.8735,-8.005676,-19.09811,3.804108,0.3767489,0.7424769,0.6786493,-0.02114868,0.07020569,0.9972992,38.164640000000006,-7.429398,-21.64275,3.740784,0.3199103,0.7469081999999999,-0.1703277999999999,1.176851,-0.07185045,0.2110656,0.6570956,-0.181215,4.07954,16.30881,33.51
2,-0.03184509,0.06317139,0.9974823,0.8644248,-0.03065491,0.05992126,0.9977264,-28.04956,-7.560989,-19.23895,3.720947,0.3827685,0.7247223,0.7616959,-0.04499817,0.09933472,0.9940338,38.09387,-7.030579,-21.42104,3.805252,0.3268616,0.7265689999999999,-0.171971,1.174365,-0.06909287,0.2181602,0.6466221,-0.1938651,4.07954,-13.97302,33.51
2,-0.03184509,0.06317139,0.9974823,0.8644248,-0.03065491,0.05992126,0.9977264,-28.04956,-7.560989,-19.23895,3.720947,0.3827685,0.7247223,0.7616959,-0.04499817,0.09933472,0.9940338,38.09387,-7.030579,-21.42104,3.805252,0.3268616,0.7265689999999999,-0.171971,1.174365,-0.06909287,0.2181602,0.6466221,-0.1938651,4.07954,-13.97302,33.51
2,-0.03184509,0.06317139,0.9974823,0.8644248,-0.03065491,0.05992126,0.9977264,-28.04956,-7.560989,-19.23895,3.720947,0.3827685,0.7247223,0.7616959,-0.04499817,0.09933472,0.9940338,38.09387,-7.030579,-21.42104,3.805252,0.3268616,0.7265689999999999,-0.171971,1.174365,-0.06909287,0.2181602,0.6466221,-0.1938651,4.07954,-13.97302,33.51
2,-0.06019592,0.1366118999999999,0.9887848,0.8886859,-0.03569031,0.1160889,0.9925842,-28.35458,-6.940658999999999,-20.20163,3.619064,0.3928001,0.7058441,0.7777398,-0.06095886,0.1372375,0.9886475,37.87637,-6.668869,-21.20927,3.810974,0.337433,0.7060866,-0.1751698,1.172153,-0.06271148,0.2203183999999999,0.6276520999999999,-0.2087665,4.07954,-13.97302,33.51
2,-0.06019592,0.1366118999999999,0.9887848,0.8886859,-0.03569031,0.1160889,0.9925842,-28.35458,-6.940658999999999,-20.20163,3.619064,0.3928001,0.7058441,0.7777398,-0.06095886,0.1372375,0.9886475,37.87637,-6.668869,-21.20927,3.810974,0.337433,0.7060866,-0.1751698,1.172153,-0.06271148,0.2203183999999999,0.6276520999999999,-0.2087665,4.07954,-13.97302,33.51
2,-0.06019592,0.1366118999999999,0.9887848,0.8886859,-0.03569031,0.1160889,0.9925842,-28.35458,-6.940658999999999,-20.20163,3.619064,0.3928001,0.7058441,0.7777398,-0.06095886,0.1372375,0.9886475,37.87637,-6.668869,-21.20927,3.810974,0.337433,0.7060866,-0.1751698,1.172153,-0.06271148,0.2203183999999999,0.6276520999999999,-0.2087665,4.07954,-13.97302,33.51
2,-0.08203125,0.1584625,0.9839478000000002,0.91817,-0.03842163,0.1361847,0.9899292,-28.76649,-6.73848,-19.01585,3.643127,0.4070589,0.6844045999999999,0.8147616,-0.09010315,0.1625671,0.9825592,37.64569,-6.307556,-20.81416,3.785095,0.3506058,0.6861050999999999,-0.1761832,1.171616,-0.0595797,0.2208207,0.6185949000000001,-0.2098908,4.07954,-13.97302,33.51
2,-0.08203125,0.1584625,0.9839478000000002,0.91817,-0.03842163,0.1361847,0.9899292,-28.76649,-6.73848,-19.01585,3.643127,0.4070589,0.6844045999999999,0.8147616,-0.09010315,0.1625671,0.9825592,37.64569,-6.307556,-20.81416,3.785095,0.3506058,0.6861050999999999,-0.1761832,1.171616,-0.0595797,0.2208207,0.6185949000000001,-0.2098908,4.07954,-13.97302,33.51
2,-0.08203125,0.1584625,0.9839478000000002,0.91817,-0.03842163,0.1361847,0.9899292,-28.76649,-6.73848,-19.01585,3.643127,0.4070589,0.6844045999999999,0.8147616,-0.09010315,0.1625671,0.9825592,37.64569,-6.307556,-20.81416,3.785095,0.3506058,0.6861050999999999,-0.1761832,1.171616,-0.0595797,0.2208207,0.6185949000000001,-0.2098908,4.07954,-13.97302,33.51
2,-0.1266327,0.2090148999999999,0.9696655,0.9185835,-0.07261658,0.1535492,0.9854584,-28.861040000000003,-6.69902,-19.15775,3.678375,0.4154456,0.6819734000000001,0.8612062,-0.1303864,0.2128601,0.968338,37.30937,-6.411743,-20.85745,3.850525,0.3683230999999999,0.6821181,-0.1786712,1.17014,-0.05475086,0.2269873,0.6041429,-0.2111942,4.07954,-13.97302,33.51
2,-0.1266327,0.2090148999999999,0.9696655,0.9185835,-0.07261658,0.1535492,0.9854584,-28.861040000000003,-6.69902,-19.15775,3.678375,0.4154456,0.6819734000000001,0.8612062,-0.1303864,0.2128601,0.968338,37.30937,-6.411743,-20.85745,3.850525,0.3683230999999999,0.6821181,-0.1786712,1.17014,-0.05475086,0.2269873,0.6041429,-0.2111942,4.07954,-13.97302,33.51
2,-0.1266327,0.2090148999999999,0.9696655,0.9185835,-0.07261658,0.1535492,0.9854584,-28.861040000000003,-6.69902,-19.15775,3.678375,0.4154456,0.6819734000000001,0.8612062,-0.1303864,0.2128601,0.968338,37.30937,-6.411743,-20.85745,3.850525,0.3683230999999999,0.6821181,-0.1786712,1.17014,-0.05475086,0.2269873,0.6041429,-0.2111942,4.07954,-13.97302,33.51
2,-0.120163,0.1907348999999999,0.9742432,0.9144052,-0.1069641,0.1917724999999999,0.9755859,-28.624540000000003,-6.901778999999999,-20.09047,3.821945,0.4131119000000001,0.6917694999999999,0.8128923000000001,-0.1205444,0.1907043,0.9742126,37.62262,-6.913391000000001,-20.51039,4.007645,0.3564039,0.6986127,-0.1808364,1.168914,-0.04946142,0.2340497,0.5888448000000001,-0.2110831,4.07954,-13.97302,33.51
2,-0.120163,0.1907348999999999,0.9742432,0.9144052,-0.1069641,0.1917724999999999,0.9755859,-28.624540000000003,-6.901778999999999,-20.09047,3.821945,0.4131119000000001,0.6917694999999999,0.8128923000000001,-0.1205444,0.1907043,0.9742126,37.62262,-6.913391000000001,-20.51039,4.007645,0.3564039,0.6986127,-0.1808364,1.168914,-0.04946142,0.2340497,0.5888448000000001,-0.2110831,4.07954,-13.97302,33.51
2,-0.120163,0.1907348999999999,0.9742432,0.9144052,-0.1069641,0.1917724999999999,0.9755859,-28.624540000000003,-6.901778999999999,-20.09047,3.821945,0.4131119000000001,0.6917694999999999,0.8128923000000001,-0.1205444,0.1907043,0.9742126,37.62262,-6.913391000000001,-20.51039,4.007645,0.3564039,0.6986127,-0.1808364,1.168914,-0.04946142,0.2340497,0.5888448000000001,-0.2110831,4.07954,-13.97302,33.51
2,0.01130676,0.02926636,0.9994965,1.0,0.01107788,0.02900696,0.9995117,-27.07335,-8.917099,-18.99371,4.071838,0.3446053,0.7711558000000001,0.6310108,0.06259155,0.08750916,0.9941864,38.6554,-9.302444,-19.5139,4.176788,0.2912719,0.7837219,-0.1840969,1.167446,-0.04403174,0.2438391,0.574393,-0.2133225,4.07954,-0.252739,33.51
2,0.01130676,0.02926636,0.9994965,1.0,0.01107788,0.02900696,0.9995117,-27.07335,-8.917099,-18.99371,4.071838,0.3446053,0.7711558000000001,0.6310108,0.06259155,0.08750916,0.9941864,38.6554,-9.302444,-19.5139,4.176788,0.2912719,0.7837219,-0.1840969,1.167446,-0.04403174,0.2438391,0.574393,-0.2133225,4.07954,-0.252739,33.51
2,0.01130676,0.02926636,0.9994965,1.0,0.01107788,0.02900696,0.9995117,-27.07335,-8.917099,-18.99371,4.071838,0.3446053,0.7711558000000001,0.6310108,0.06259155,0.08750916,0.9941864,38.6554,-9.302444,-19.5139,4.176788,0.2912719,0.7837219,-0.1840969,1.167446,-0.04403174,0.2438391,0.574393,-0.2133225,4.07954,-0.252739,33.51
2,0.02944946,-0.00680542,0.9995421999999998,1.0,0.02944946,-0.00680542,0.9995421999999998,-27.13144,-9.022369,-18.88173,4.03688,0.3435069,0.7792077,0.5937993,0.05104065,0.03538513,0.9980621,38.87018,-8.748535,-21.17101,4.24173,0.2835884,0.7927344,-0.1866971,1.16741,-0.0387401,0.2467642,0.5653123000000001,-0.2122969999999999,4.07954,-0.252739,33.51
2,0.02944946,-0.00680542,0.9995421999999998,1.0,0.02944946,-0.00680542,0.9995421999999998,-27.13144,-9.022369,-18.88173,4.03688,0.3435069,0.7792077,0.5937993,0.05104065,0.03538513,0.9980621,38.87018,-8.748535,-21.17101,4.24173,0.2835884,0.7927344,-0.1866971,1.16741,-0.0387401,0.2467642,0.5653123000000001,-0.2122969999999999,4.07954,-0.252739,33.51
2,0.02944946,-0.00680542,0.9995421999999998,1.0,0.02944946,-0.00680542,0.9995421999999998,-27.13144,-9.022369,-18.88173,4.03688,0.3435069,0.7792077,0.5937993,0.05104065,0.03538513,0.9980621,38.87018,-8.748535,-21.17101,4.24173,0.2835884,0.7927344,-0.1866971,1.16741,-0.0387401,0.2467642,0.5653123000000001,-0.2122969999999999,4.07954,-0.252739,33.51
2,0.003601074,0.002883911,0.9999847,1.0,0.003601074,0.002883911,0.9999847,-27.46019,-8.597702,-18.927570000000003,4.075409,0.3582724,0.7643511,0.6272065,0.03166199,0.05657959,0.9978943,38.62383,-8.618347,-20.05362,4.303421,0.297034,0.7722177,-0.1878342999999999,1.168994,-0.03408289,0.2430724,0.5621046,-0.2076797,4.07954,-0.252739,33.51
2,0.003601074,0.002883911,0.9999847,1.0,0.003601074,0.002883911,0.9999847,-27.46019,-8.597702,-18.927570000000003,4.075409,0.3582724,0.7643511,0.6272065,0.03166199,0.05657959,0.9978943,38.62383,-8.618347,-20.05362,4.303421,0.297034,0.7722177,-0.1878342999999999,1.168994,-0.03408289,0.2430724,0.5621046,-0.2076797,4.07954,-0.252739,33.51
2,0.003601074,0.002883911,0.9999847,1.0,0.003601074,0.002883911,0.9999847,-27.46019,-8.597702,-18.927570000000003,4.075409,0.3582724,0.7643511,0.6272065,0.03166199,0.05657959,0.9978943,38.62383,-8.618347,-20.05362,4.303421,0.297034,0.7722177,-0.1878342999999999,1.168994,-0.03408289,0.2430724,0.5621046,-0.2076797,4.07954,-0.252739,33.51
2,-0.01069641,0.001525879,0.999939,1.0,-0.01069641,0.001525879,0.999939,-27.69637,-8.568527,-18.79944,4.024582,0.3682539999999999,0.7620053000000001,0.6919513,-0.01260376,0.05105591,0.9986115,38.40173,-8.102615,-21.02174,4.293167,0.3105095999999999,0.7667068,-0.1886062999999999,1.171281,-0.03011978,0.2370801,0.5631596,-0.2013942,4.07954,-0.252739,33.51
2,-0.01069641,0.001525879,0.999939,1.0,-0.01069641,0.001525879,0.999939,-27.69637,-8.568527,-18.79944,4.024582,0.3682539999999999,0.7620053000000001,0.6919513,-0.01260376,0.05105591,0.9986115,38.40173,-8.102615,-21.02174,4.293167,0.3105095999999999,0.7667068,-0.1886062999999999,1.171281,-0.03011978,0.2370801,0.5631596,-0.2013942,4.07954,-0.252739,33.51
2,-0.01069641,0.001525879,0.999939,1.0,-0.01069641,0.001525879,0.999939,-27.69637,-8.568527,-18.79944,4.024582,0.3682539999999999,0.7620053000000001,0.6919513,-0.01260376,0.05105591,0.9986115,38.40173,-8.102615,-21.02174,4.293167,0.3105095999999999,0.7667068,-0.1886062999999999,1.171281,-0.03011978,0.2370801,0.5631596,-0.2013942,4.07954,-0.252739,33.51
2,-0.02020264,0.0001373291,0.9997864,1.0,-0.02020264,0.0001373291,0.9997864,-27.76538,-8.584579,-18.77507,4.085464,0.3719343,0.7625443000000001,1.0,-0.02111816,0.03869629,0.9990234,38.36612,-8.243744,-21.13509,4.192932,0.3126716,0.7747616999999999,-0.1897582,1.173492,-0.02655348,0.2338402999999999,0.5631313,-0.1936581,4.07954,-0.252739,33.51
2,-0.02020264,0.0001373291,0.9997864,1.0,-0.02020264,0.0001373291,0.9997864,-27.76538,-8.584579,-18.77507,4.085464,0.3719343,0.7625443000000001,1.0,-0.02111816,0.03869629,0.9990234,38.36612,-8.243744,-21.13509,4.192932,0.3126716,0.7747616999999999,-0.1897582,1.173492,-0.02655348,0.2338402999999999,0.5631313,-0.1936581,4.07954,-0.252739,33.51
2,-0.02020264,0.0001373291,0.9997864,1.0,-0.02020264,0.0001373291,0.9997864,-27.76538,-8.584579,-18.77507,4.085464,0.3719343,0.7625443000000001,1.0,-0.02111816,0.03869629,0.9990234,38.36612,-8.243744,-21.13509,4.192932,0.3126716,0.7747616999999999,-0.1897582,1.173492,-0.02655348,0.2338402999999999,0.5631313,-0.1936581,4.07954,-0.252739,33.51
2,-0.01495361,0.008911133,0.9998474,1.0,-0.01493835,0.008895874,0.9998474,-27.85445,-8.656448,-18.76587,4.134399,0.3739230999999999,0.763352,0.691886,-0.02175903,0.03433228,0.9991608,38.36763,-8.443832,-21.15593,4.200362999999999,0.3124540999999999,0.782514,-0.190852,1.174834,-0.02320915,0.2335505,0.5598264000000001,-0.1862695,4.07954,-8.51342,33.51
2,-0.01495361,0.008911133,0.9998474,1.0,-0.01493835,0.008895874,0.9998474,-27.85445,-8.656448,-18.76587,4.134399,0.3739230999999999,0.763352,0.691886,-0.02175903,0.03433228,0.9991608,38.36763,-8.443832,-21.15593,4.200362999999999,0.3124540999999999,0.782514,-0.190852,1.174834,-0.02320915,0.2335505,0.5598264000000001,-0.1862695,4.07954,-8.51342,33.51
2,-0.01495361,0.008911133,0.9998474,1.0,-0.01493835,0.008895874,0.9998474,-27.85445,-8.656448,-18.76587,4.134399,0.3739230999999999,0.763352,0.691886,-0.02175903,0.03433228,0.9991608,38.36763,-8.443832,-21.15593,4.200362999999999,0.3124540999999999,0.782514,-0.190852,1.174834,-0.02320915,0.2335505,0.5598264000000001,-0.1862695,4.07954,-8.51342,33.51
2,-0.02232361,0.005737305,0.9997253,1.0,-0.02180481,0.002441406,0.9997559,-27.888990000000003,-8.682526,-18.69012,4.164261,0.3761194,0.7644689,0.6636818,-0.02612305,0.0299529999999999,0.9992065,38.3358,-8.632568,-20.84929,4.244232,0.3145272,0.7861505,-0.1921504,1.175426,-0.01998347,0.2341175,0.5554464,-0.1828794,4.07954,-8.51342,33.51
2,-0.02232361,0.005737305,0.9997253,1.0,-0.02180481,0.002441406,0.9997559,-27.888990000000003,-8.682526,-18.69012,4.164261,0.3761194,0.7644689,0.6636818,-0.02612305,0.0299529999999999,0.9992065,38.3358,-8.632568,-20.84929,4.244232,0.3145272,0.7861505,-0.1921504,1.175426,-0.01998347,0.2341175,0.5554464,-0.1828794,4.07954,-8.51342,33.51
2,-0.02232361,0.005737305,0.9997253,1.0,-0.02180481,0.002441406,0.9997559,-27.888990000000003,-8.682526,-18.69012,4.164261,0.3761194,0.7644689,0.6636818,-0.02612305,0.0299529999999999,0.9992065,38.3358,-8.632568,-20.84929,4.244232,0.3145272,0.7861505,-0.1921504,1.175426,-0.01998347,0.2341175,0.5554464,-0.1828794,4.07954,-8.51342,33.51
2,-0.01869202,-0.007125854,0.9997864,1.0,-0.01722717,-0.007522583,0.9998169,-28.062040000000003,-9.10582,-18.55707,4.304886,0.3807145,0.7784674,0.6919685,-0.03160095,-0.003616333,0.9994812,38.07031,-8.509521000000001,-20.85762,4.362015,0.3244464,0.7875506,-0.1933251,1.176841,-0.01409602,0.2290353,0.5494972,-0.180289,4.07954,-8.51342,33.51
2,-0.01869202,-0.007125854,0.9997864,1.0,-0.01722717,-0.007522583,0.9998169,-28.062040000000003,-9.10582,-18.55707,4.304886,0.3807145,0.7784674,0.6919685,-0.03160095,-0.003616333,0.9994812,38.07031,-8.509521000000001,-20.85762,4.362015,0.3244464,0.7875506,-0.1933251,1.176841,-0.01409602,0.2290353,0.5494972,-0.180289,4.07954,-8.51342,33.51
2,-0.01869202,-0.007125854,0.9997864,1.0,-0.01722717,-0.007522583,0.9998169,-28.062040000000003,-9.10582,-18.55707,4.304886,0.3807145,0.7784674,0.6919685,-0.03160095,-0.003616333,0.9994812,38.07031,-8.509521000000001,-20.85762,4.362015,0.3244464,0.7875506,-0.1933251,1.176841,-0.01409602,0.2290353,0.5494972,-0.180289,4.07954,-8.51342,33.51
2,-0.02120972,-0.01080322,0.9997101,1.0,-0.01881409,-0.01164246,0.9997406,-28.17201,-9.203491,-18.30804,4.358505,0.3845618,0.7796535,0.7127288,-0.04225159,-0.0034484859999999,0.9990997,37.88597,-8.433394999999999,-20.54816,4.573348999999999,0.3325715999999999,0.7818781,-0.1924345,1.179707,-0.01242697,0.2194225,0.5535920999999999,-0.1733012,4.07954,-8.51342,33.51
2,-0.02120972,-0.01080322,0.9997101,1.0,-0.01881409,-0.01164246,0.9997406,-28.17201,-9.203491,-18.30804,4.358505,0.3845618,0.7796535,0.7127288,-0.04225159,-0.0034484859999999,0.9990997,37.88597,-8.433394999999999,-20.54816,4.573348999999999,0.3325715999999999,0.7818781,-0.1924345,1.179707,-0.01242697,0.2194225,0.5535920999999999,-0.1733012,4.07954,-8.51342,33.51
2,-0.02120972,-0.01080322,0.9997101,1.0,-0.01881409,-0.01164246,0.9997406,-28.17201,-9.203491,-18.30804,4.358505,0.3845618,0.7796535,0.7127288,-0.04225159,-0.0034484859999999,0.9990997,37.88597,-8.433394999999999,-20.54816,4.573348999999999,0.3325715999999999,0.7818781,-0.1924345,1.179707,-0.01242697,0.2194225,0.5535920999999999,-0.1733012,4.07954,-8.51342,33.51
2,-0.08364868,0.1217193999999999,0.9890289,0.9658239,-0.08532715,0.09695435,0.9916077,-29.39259,-7.284653,-18.63815,4.291869999999999,0.4339623999999999,0.7050582,0.8686443000000001,-0.08338928,0.1254578,0.9885712,36.87222,-6.496826,-20.62366,4.477417,0.3744588,0.6972675,-0.1906967,1.183925,-0.01234919,0.2062781,0.5655988000000001,-0.1608697,4.07954,-5.049736,33.51
2,-0.08364868,0.1217193999999999,0.9890289,0.9658239,-0.08532715,0.09695435,0.9916077,-29.39259,-7.284653,-18.63815,4.291869999999999,0.4339623999999999,0.7050582,0.8686443000000001,-0.08338928,0.1254578,0.9885712,36.87222,-6.496826,-20.62366,4.477417,0.3744588,0.6972675,-0.1906967,1.183925,-0.01234919,0.2062781,0.5655988000000001,-0.1608697,4.07954,-5.049736,33.51
2,-0.08364868,0.1217193999999999,0.9890289,0.9658239,-0.08532715,0.09695435,0.9916077,-29.39259,-7.284653,-18.63815,4.291869999999999,0.4339623999999999,0.7050582,0.8686443000000001,-0.08338928,0.1254578,0.9885712,36.87222,-6.496826,-20.62366,4.477417,0.3744588,0.6972675,-0.1906967,1.183925,-0.01234919,0.2062781,0.5655988000000001,-0.1608697,4.07954,-5.049736,33.51
2,-0.206192,0.2392882999999999,0.9487915,0.8907528,-0.2129822,0.2309875,0.9493561,-30.42853,-6.387726,-18.86664,4.314011,0.4872583,0.659219,0.9470566,-0.1804962,0.2702025999999999,0.9457245,35.60602,-5.345413,-21.18849,4.292801,0.4323037999999999,0.6429625,-0.1885428999999999,1.188756,-0.01432735,0.1916448999999999,0.5850407,-0.1437387,4.07954,-5.049736,33.51
2,-0.206192,0.2392882999999999,0.9487915,0.8907528,-0.2129822,0.2309875,0.9493561,-30.42853,-6.387726,-18.86664,4.314011,0.4872583,0.659219,0.9470566,-0.1804962,0.2702025999999999,0.9457245,35.60602,-5.345413,-21.18849,4.292801,0.4323037999999999,0.6429625,-0.1885428999999999,1.188756,-0.01432735,0.1916448999999999,0.5850407,-0.1437387,4.07954,-5.049736,33.51
2,-0.206192,0.2392882999999999,0.9487915,0.8907528,-0.2129822,0.2309875,0.9493561,-30.42853,-6.387726,-18.86664,4.314011,0.4872583,0.659219,0.9470566,-0.1804962,0.2702025999999999,0.9457245,35.60602,-5.345413,-21.18849,4.292801,0.4323037999999999,0.6429625,-0.1885428999999999,1.188756,-0.01432735,0.1916448999999999,0.5850407,-0.1437387,4.07954,-5.049736,33.51
2,-0.3131866,0.3185272,0.8946685999999999,0.8722324,-0.3138885,0.3185425,0.8944244,-31.12018,-5.963013,-19.31348,4.224258,0.5262563,0.6378477,0.9688943,-0.2783813,0.3176727,0.9064026,34.91026,-4.718094000000001,-21.68504,4.393294999999999,0.4718090999999999,0.6211389,-0.1870446,1.193321,-0.01769823,0.1796202,0.606721,-0.1280744999999999,4.07954,-5.049736,33.51
2,-0.3131866,0.3185272,0.8946685999999999,0.8722324,-0.3138885,0.3185425,0.8944244,-31.12018,-5.963013,-19.31348,4.224258,0.5262563,0.6378477,0.9688943,-0.2783813,0.3176727,0.9064026,34.91026,-4.718094000000001,-21.68504,4.393294999999999,0.4718090999999999,0.6211389,-0.1870446,1.193321,-0.01769823,0.1796202,0.606721,-0.1280744999999999,4.07954,-5.049736,33.51
2,-0.3131866,0.3185272,0.8946685999999999,0.8722324,-0.3138885,0.3185425,0.8944244,-31.12018,-5.963013,-19.31348,4.224258,0.5262563,0.6378477,0.9688943,-0.2783813,0.3176727,0.9064026,34.91026,-4.718094000000001,-21.68504,4.393294999999999,0.4718090999999999,0.6211389,-0.1870446,1.193321,-0.01769823,0.1796202,0.606721,-0.1280744999999999,4.07954,-5.049736,33.51
2,-0.2845612,0.33815,0.8970184000000001,1.0,-0.2950134,0.3351746,0.8947754000000001,-30.86555,-6.136292,-19.24036,4.409866,0.5150677,0.6399741,1.0,-0.2635192999999999,0.3440247,0.9012146,35.322340000000004,-5.207489,-21.52876,4.457779,0.4558545999999999,0.6311445,-0.1864305,1.199526,-0.0260582,0.1670185,0.6467982,-0.1058668999999999,4.07954,-5.049736,33.51
2,-0.2845612,0.33815,0.8970184000000001,1.0,-0.2950134,0.3351746,0.8947754000000001,-30.86555,-6.136292,-19.24036,4.409866,0.5150677,0.6399741,1.0,-0.2635192999999999,0.3440247,0.9012146,35.322340000000004,-5.207489,-21.52876,4.457779,0.4558545999999999,0.6311445,-0.1864305,1.199526,-0.0260582,0.1670185,0.6467982,-0.1058668999999999,4.07954,-5.049736,33.51
2,-0.2845612,0.33815,0.8970184000000001,1.0,-0.2950134,0.3351746,0.8947754000000001,-30.86555,-6.136292,-19.24036,4.409866,0.5150677,0.6399741,1.0,-0.2635192999999999,0.3440247,0.9012146,35.322340000000004,-5.207489,-21.52876,4.457779,0.4558545999999999,0.6311445,-0.1864305,1.199526,-0.0260582,0.1670185,0.6467982,-0.1058668999999999,4.07954,-5.049736,33.51
2,-0.2600708,0.3222350999999999,0.9102173,1.0,-0.2624664,0.3196716,0.9104309000000002,-30.73409,-6.138977,-19.1517,4.372818,0.5054407,0.6411468000000001,1.0,-0.2482909999999999,0.3347015,0.9090118,35.541990000000006,-5.27446,-21.40677,4.6717830000000005,0.4459028,0.6337065,-0.1864305,1.199526,-0.0260582,0.1670185,0.6467982,-0.1058668999999999,4.07954,3.149452,33.51
2,-0.2600708,0.3222350999999999,0.9102173,1.0,-0.2624664,0.3196716,0.9104309000000002,-30.73409,-6.138977,-19.1517,4.372818,0.5054407,0.6411468000000001,1.0,-0.2482909999999999,0.3347015,0.9090118,35.541990000000006,-5.27446,-21.40677,4.6717830000000005,0.4459028,0.6337065,-0.1864305,1.199526,-0.0260582,0.1670185,0.6467982,-0.1058668999999999,4.07954,3.149452,33.51
2,-0.2600708,0.3222350999999999,0.9102173,1.0,-0.2624664,0.3196716,0.9104309000000002,-30.73409,-6.138977,-19.1517,4.372818,0.5054407,0.6411468000000001,1.0,-0.2482909999999999,0.3347015,0.9090118,35.541990000000006,-5.27446,-21.40677,4.6717830000000005,0.4459028,0.6337065,-0.1864305,1.199526,-0.0260582,0.1670185,0.6467982,-0.1058668999999999,4.07954,3.149452,33.51
2,-0.2010956,0.2823486,0.9379883,1.0,-0.202774,0.2776794,0.9390259,-30.29724,-6.263535,-18.96077,4.360504,0.4817035,0.6490054,1.0,-0.1949158,0.2994232,0.9339905,36.14622,-5.451187,-21.13535,4.589813,0.4170958999999999,0.6416373000000001,-0.1869003,1.2055209999999998,-0.03329062,0.1483315,0.6765821999999999,-0.08942992,4.07954,3.149452,33.51
2,-0.2010956,0.2823486,0.9379883,1.0,-0.202774,0.2776794,0.9390259,-30.29724,-6.263535,-18.96077,4.360504,0.4817035,0.6490054,1.0,-0.1949158,0.2994232,0.9339905,36.14622,-5.451187,-21.13535,4.589813,0.4170958999999999,0.6416373000000001,-0.1869003,1.2055209999999998,-0.03329062,0.1483315,0.6765821999999999,-0.08942992,4.07954,3.149452,33.51
2,-0.2010956,0.2823486,0.9379883,1.0,-0.202774,0.2776794,0.9390259,-30.29724,-6.263535,-18.96077,4.360504,0.4817035,0.6490054,1.0,-0.1949158,0.2994232,0.9339905,36.14622,-5.451187,-21.13535,4.589813,0.4170958999999999,0.6416373000000001,-0.1869003,1.2055209999999998,-0.03329062,0.1483315,0.6765821999999999,-0.08942992,4.07954,3.149452,33.51
2,-0.1543579,0.2441405999999999,0.9573669,1.0,-0.1522827,0.2277985,0.9617157,-29.97691,-6.384491000000001,-18.82033,4.3951720000000005,0.4633201,0.658716,1.0,-0.1570587,0.2658690999999999,0.9511261,36.55276,-5.63623,-20.99055,4.74057,0.3973528,0.6513908,-0.1874889,1.208412,-0.03690571,0.1374658,0.6887310999999999,-0.08228945,4.07954,3.149452,33.51
2,-0.1543579,0.2441405999999999,0.9573669,1.0,-0.1522827,0.2277985,0.9617157,-29.97691,-6.384491000000001,-18.82033,4.3951720000000005,0.4633201,0.658716,1.0,-0.1570587,0.2658690999999999,0.9511261,36.55276,-5.63623,-20.99055,4.74057,0.3973528,0.6513908,-0.1874889,1.208412,-0.03690571,0.1374658,0.6887310999999999,-0.08228945,4.07954,3.149452,33.51
2,-0.1543579,0.2441405999999999,0.9573669,1.0,-0.1522827,0.2277985,0.9617157,-29.97691,-6.384491000000001,-18.82033,4.3951720000000005,0.4633201,0.658716,1.0,-0.1570587,0.2658690999999999,0.9511261,36.55276,-5.63623,-20.99055,4.74057,0.3973528,0.6513908,-0.1874889,1.208412,-0.03690571,0.1374658,0.6887310999999999,-0.08228945,4.07954,3.149452,33.51
2,-0.1268616,0.2369537,0.9631958,1.0,-0.1184998,0.2302399,0.9658813,-29.76714,-6.5914,-18.78911,4.469849,0.4513221999999999,0.6643696,1.0,-0.1377563,0.2456665,0.9595032,36.92738,-5.945236,-20.90373,4.676758,0.381862,0.6634848000000001,-0.1883438999999999,1.21073,-0.04063523,0.1281394,0.6994564999999999,-0.07769581,4.07954,3.149452,33.51
2,-0.1268616,0.2369537,0.9631958,1.0,-0.1184998,0.2302399,0.9658813,-29.76714,-6.5914,-18.78911,4.469849,0.4513221999999999,0.6643696,1.0,-0.1377563,0.2456665,0.9595032,36.92738,-5.945236,-20.90373,4.676758,0.381862,0.6634848000000001,-0.1883438999999999,1.21073,-0.04063523,0.1281394,0.6994564999999999,-0.07769581,4.07954,3.149452,33.51
2,-0.1268616,0.2369537,0.9631958,1.0,-0.1184998,0.2302399,0.9658813,-29.76714,-6.5914,-18.78911,4.469849,0.4513221999999999,0.6643696,1.0,-0.1377563,0.2456665,0.9595032,36.92738,-5.945236,-20.90373,4.676758,0.381862,0.6634848000000001,-0.1883438999999999,1.21073,-0.04063523,0.1281394,0.6994564999999999,-0.07769581,4.07954,3.149452,33.51
2,-0.1311797999999999,0.2565918,0.9575653,1.0,-0.1405944999999999,0.2425995,0.9598694,-29.85675,-6.34848,-18.82626,4.607391000000001,0.4576651,0.6555419,1.0,-0.1181946,0.2756958,0.9539337,36.65881,-5.516693,-20.97035,4.755173,0.3875708,0.6455112,-0.1892357,1.212608,-0.04425243,0.1196123,0.7090496000000001,-0.07491128,4.07954,3.149452,33.51
2,-0.1311797999999999,0.2565918,0.9575653,1.0,-0.1405944999999999,0.2425995,0.9598694,-29.85675,-6.34848,-18.82626,4.607391000000001,0.4576651,0.6555419,1.0,-0.1181946,0.2756958,0.9539337,36.65881,-5.516693,-20.97035,4.755173,0.3875708,0.6455112,-0.1892357,1.212608,-0.04425243,0.1196123,0.7090496000000001,-0.07491128,4.07954,3.149452,33.51
2,-0.1311797999999999,0.2565918,0.9575653,1.0,-0.1405944999999999,0.2425995,0.9598694,-29.85675,-6.34848,-18.82626,4.607391000000001,0.4576651,0.6555419,1.0,-0.1181946,0.2756958,0.9539337,36.65881,-5.516693,-20.97035,4.755173,0.3875708,0.6455112,-0.1892357,1.212608,-0.04425243,0.1196123,0.7090496000000001,-0.07491128,4.07954,3.149452,33.51
2,-0.1278533999999999,0.2819061,0.950882,1.0,-0.1327667,0.2815704,0.9503021,-29.7683,-6.235535,-18.85905,4.679245,0.4537529999999999,0.6463763000000001,1.0,-0.1218414,0.2823180999999999,0.9515381,36.66324,-5.411789,-20.99699,4.69194,0.38809,0.6412525,-0.1902657999999999,1.21462,-0.04779929,0.1115369999999999,0.7173236,-0.07199021,4.07954,-10.46711,33.51
2,-0.1278533999999999,0.2819061,0.950882,1.0,-0.1327667,0.2815704,0.9503021,-29.7683,-6.235535,-18.85905,4.679245,0.4537529999999999,0.6463763000000001,1.0,-0.1218414,0.2823180999999999,0.9515381,36.66324,-5.411789,-20.99699,4.69194,0.38809,0.6412525,-0.1902657999999999,1.21462,-0.04779929,0.1115369999999999,0.7173236,-0.07199021,4.07954,-10.46711,33.51
2,-0.1278533999999999,0.2819061,0.950882,1.0,-0.1327667,0.2815704,0.9503021,-29.7683,-6.235535,-18.85905,4.679245,0.4537529999999999,0.6463763000000001,1.0,-0.1218414,0.2823180999999999,0.9515381,36.66324,-5.411789,-20.99699,4.69194,0.38809,0.6412525,-0.1902657999999999,1.21462,-0.04779929,0.1115369999999999,0.7173236,-0.07199021,4.07954,-10.46711,33.51
2,-0.09989929,0.2581635,0.960907,1.0,-0.1031647,0.2451477,0.963974,-29.63033,-6.2945400000000005,-18.83878,4.618668,0.4446208,0.6533642,1.0,-0.09570313,0.2746124,0.9567719,37.1801,-5.765091,-20.89716,4.824341,0.3668075999999999,0.6529291,-0.1922779,1.217131,-0.05470604,0.1010102,0.7300443,-0.06888539,4.07954,-10.46711,33.51
2,-0.09989929,0.2581635,0.960907,1.0,-0.1031647,0.2451477,0.963974,-29.63033,-6.2945400000000005,-18.83878,4.618668,0.4446208,0.6533642,1.0,-0.09570313,0.2746124,0.9567719,37.1801,-5.765091,-20.89716,4.824341,0.3668075999999999,0.6529291,-0.1922779,1.217131,-0.05470604,0.1010102,0.7300443,-0.06888539,4.07954,-10.46711,33.51
2,-0.09989929,0.2581635,0.960907,1.0,-0.1031647,0.2451477,0.963974,-29.63033,-6.2945400000000005,-18.83878,4.618668,0.4446208,0.6533642,1.0,-0.09570313,0.2746124,0.9567719,37.1801,-5.765091,-20.89716,4.824341,0.3668075999999999,0.6529291,-0.1922779,1.217131,-0.05470604,0.1010102,0.7300443,-0.06888539,4.07954,-10.46711,33.51
2,-0.08692932,0.2468109,0.9651489,1.0,-0.0897521999999999,0.2351837,0.9677886999999998,-29.54475,-6.349869,-18.82289,4.60611,0.439784,0.6563872,1.0,-0.08216858,0.2662506,0.9603882,37.35124,-5.829162999999999,-20.85129,4.743866000000001,0.3590216,0.6556626999999999,-0.1930689,1.218438,-0.05766076,0.09555523,0.7350938,-0.06727152,4.07954,-10.46711,33.51
2,-0.08692932,0.2468109,0.9651489,1.0,-0.0897521999999999,0.2351837,0.9677886999999998,-29.54475,-6.349869,-18.82289,4.60611,0.439784,0.6563872,1.0,-0.08216858,0.2662506,0.9603882,37.35124,-5.829162999999999,-20.85129,4.743866000000001,0.3590216,0.6556626999999999,-0.1930689,1.218438,-0.05766076,0.09555523,0.7350938,-0.06727152,4.07954,-10.46711,33.51
2,-0.08692932,0.2468109,0.9651489,1.0,-0.0897521999999999,0.2351837,0.9677886999999998,-29.54475,-6.349869,-18.82289,4.60611,0.439784,0.6563872,1.0,-0.08216858,0.2662506,0.9603882,37.35124,-5.829162999999999,-20.85129,4.743866000000001,0.3590216,0.6556626999999999,-0.1930689,1.218438,-0.05766076,0.09555523,0.7350938,-0.06727152,4.07954,-10.46711,33.51
3,-0.07138062,0.2434692,0.9672699,1.0,-0.08413696,0.2337952,0.9686279,-29.48047,-6.367401,-18.80238,4.6043400000000005,0.4368795,0.656913,1.0,-0.05541992,0.2554474,0.9652252,37.45975,-5.847092,-20.82816,4.811111,0.3510377,0.6577383000000001,-0.1937272,1.2197209999999998,-0.06035167,0.09064128,0.7394448,-0.06575911,4.07954,-10.46711,33.51
3,-0.07138062,0.2434692,0.9672699,1.0,-0.08413696,0.2337952,0.9686279,-29.48047,-6.367401,-18.80238,4.6043400000000005,0.4368795,0.656913,1.0,-0.05541992,0.2554474,0.9652252,37.45975,-5.847092,-20.82816,4.811111,0.3510377,0.6577383000000001,-0.1937272,1.2197209999999998,-0.06035167,0.09064128,0.7394448,-0.06575911,4.07954,-10.46711,33.51
3,-0.07138062,0.2434692,0.9672699,1.0,-0.08413696,0.2337952,0.9686279,-29.48047,-6.367401,-18.80238,4.6043400000000005,0.4368795,0.656913,1.0,-0.05541992,0.2554474,0.9652252,37.45975,-5.847092,-20.82816,4.811111,0.3510377,0.6577383000000001,-0.1937272,1.2197209999999998,-0.06035167,0.09064128,0.7394448,-0.06575911,4.07954,-10.46711,33.51
3,-0.06005859,0.2368927,0.9696655,1.0,-0.05961609,0.2289734,0.9716034,-29.369090000000003,-6.380798,-18.7977,4.550415,0.4295082,0.6578494,1.0,-0.06056213,0.2458954,0.967392,37.50932,-5.863663,-20.79797,4.816055,0.3502645,0.6595107,-0.1944489,1.220636,-0.06314263,0.08703287,0.7434312,-0.06486005,4.07954,-10.46711,33.51
3,-0.06005859,0.2368927,0.9696655,1.0,-0.05961609,0.2289734,0.9716034,-29.369090000000003,-6.380798,-18.7977,4.550415,0.4295082,0.6578494,1.0,-0.06056213,0.2458954,0.967392,37.50932,-5.863663,-20.79797,4.816055,0.3502645,0.6595107,-0.1944489,1.220636,-0.06314263,0.08703287,0.7434312,-0.06486005,4.07954,-10.46711,33.51
3,-0.06005859,0.2368927,0.9696655,1.0,-0.05961609,0.2289734,0.9716034,-29.369090000000003,-6.380798,-18.7977,4.550415,0.4295082,0.6578494,1.0,-0.06056213,0.2458954,0.967392,37.50932,-5.863663,-20.79797,4.816055,0.3502645,0.6595107,-0.1944489,1.220636,-0.06314263,0.08703287,0.7434312,-0.06486005,4.07954,-10.46711,33.51
3,-0.04478455,0.2373505,0.9703827,1.0,-0.0188446,0.2127991,0.9768982,-29.04744,-6.817383,-17.97385,4.645721,0.4132568,0.66602,1.0,-0.04478455,0.2373505,0.9703827,37.58925,-5.926407,-20.83215,4.779266000000001,0.3449791,0.6631554000000001,-0.1952605,1.221386,-0.06589913,0.08273645,0.7481394,-0.06327933,4.07954,-24.09714,33.51
3,-0.04478455,0.2373505,0.9703827,1.0,-0.0188446,0.2127991,0.9768982,-29.04744,-6.817383,-17.97385,4.645721,0.4132568,0.66602,1.0,-0.04478455,0.2373505,0.9703827,37.58925,-5.926407,-20.83215,4.779266000000001,0.3449791,0.6631554000000001,-0.1952605,1.221386,-0.06589913,0.08273645,0.7481394,-0.06327933,4.07954,-24.09714,33.51
3,-0.04478455,0.2373505,0.9703827,1.0,-0.0188446,0.2127991,0.9768982,-29.04744,-6.817383,-17.97385,4.645721,0.4132568,0.66602,1.0,-0.04478455,0.2373505,0.9703827,37.58925,-5.926407,-20.83215,4.779266000000001,0.3449791,0.6631554000000001,-0.1952605,1.221386,-0.06589913,0.08273645,0.7481394,-0.06327933,4.07954,-24.09714,33.51
3,-0.06562805,0.2326813,0.9703216999999998,1.0,-0.02507019,0.1955261,0.9803619,-28.96024,-6.815155,-17.97777,4.572403,0.4115043,0.668533,1.0,-0.06564331,0.2326965,0.9703216999999998,37.782990000000005,-5.95929,-20.82132,4.786865,0.342053,0.6648974,-0.1957796,1.222573,-0.06853357,0.07760548,0.7531956999999999,-0.06083016,4.07954,-24.09714,33.51
3,-0.06562805,0.2326813,0.9703216999999998,1.0,-0.02507019,0.1955261,0.9803619,-28.96024,-6.815155,-17.97777,4.572403,0.4115043,0.668533,1.0,-0.06564331,0.2326965,0.9703216999999998,37.782990000000005,-5.95929,-20.82132,4.786865,0.342053,0.6648974,-0.1957796,1.222573,-0.06853357,0.07760548,0.7531956999999999,-0.06083016,4.07954,-24.09714,33.51
3,-0.06562805,0.2326813,0.9703216999999998,1.0,-0.02507019,0.1955261,0.9803619,-28.96024,-6.815155,-17.97777,4.572403,0.4115043,0.668533,1.0,-0.06564331,0.2326965,0.9703216999999998,37.782990000000005,-5.95929,-20.82132,4.786865,0.342053,0.6648974,-0.1957796,1.222573,-0.06853357,0.07760548,0.7531956999999999,-0.06083016,4.07954,-24.09714,33.51
3,-0.05012512,0.2269287,0.9726105,1.0,-0.0464325,0.2044983,0.9777527,-28.82324,-6.816269,-18.13116,4.53421,0.4105242999999999,0.6686338000000001,1.0,-0.0504303,0.2287902999999999,0.972168,37.82124,-5.986847,-20.80319,4.75563,0.3383112,0.6661429,-0.196368,1.223624,-0.07105961,0.07294863,0.7581526,-0.05870681,4.389622,-24.09714,33.51
3,-0.05012512,0.2269287,0.9726105,1.0,-0.0464325,0.2044983,0.9777527,-28.82324,-6.816269,-18.13116,4.53421,0.4105242999999999,0.6686338000000001,1.0,-0.0504303,0.2287902999999999,0.972168,37.82124,-5.986847,-20.80319,4.75563,0.3383112,0.6661429,-0.196368,1.223624,-0.07105961,0.07294863,0.7581526,-0.05870681,4.389622,-24.09714,33.51
3,-0.05012512,0.2269287,0.9726105,1.0,-0.0464325,0.2044983,0.9777527,-28.82324,-6.816269,-18.13116,4.53421,0.4105242999999999,0.6686338000000001,1.0,-0.0504303,0.2287902999999999,0.972168,37.82124,-5.986847,-20.80319,4.75563,0.3383112,0.6661429,-0.196368,1.223624,-0.07105961,0.07294863,0.7581526,-0.05870681,4.389622,-24.09714,33.51
3,-0.03471375,0.2159119,0.9757843,1.0,-0.03414917,0.2006378,0.9790649,-28.80756,-6.816269,-18.14647,4.522736,0.4080934,0.6693315,1.0,-0.03492737,0.2214661,0.9745331,37.878890000000006,-6.021729,-20.78712,4.738373,0.3338597,0.6682286,-0.1970215,1.224728,-0.07340741,0.06782541,0.763161,-0.05586634,4.389622,-24.09714,33.51
3,-0.03471375,0.2159119,0.9757843,1.0,-0.03414917,0.2006378,0.9790649,-28.80756,-6.816269,-18.14647,4.522736,0.4080934,0.6693315,1.0,-0.03492737,0.2214661,0.9745331,37.878890000000006,-6.021729,-20.78712,4.738373,0.3338597,0.6682286,-0.1970215,1.224728,-0.07340741,0.06782541,0.763161,-0.05586634,4.389622,-24.09714,33.51
3,-0.03471375,0.2159119,0.9757843,1.0,-0.03414917,0.2006378,0.9790649,-28.80756,-6.816269,-18.14647,4.522736,0.4080934,0.6693315,1.0,-0.03492737,0.2214661,0.9745331,37.878890000000006,-6.021729,-20.78712,4.738373,0.3338597,0.6682286,-0.1970215,1.224728,-0.07340741,0.06782541,0.763161,-0.05586634,4.389622,-24.09714,33.51
3,-0.01387024,0.2136536,0.9768066,1.0,-0.01654053,0.2039337,0.9788361,-28.76584,-6.841431,-18.1611,4.489883,0.4040217,0.6696659,1.0,-0.008636475,0.2325745,0.9725342,37.937940000000005,-6.21936,-20.6366,4.725632,0.3277363,0.6712875,-0.1975414,1.225772,-0.07538515,0.06334347,0.7672344,-0.05296596,4.389622,-24.09714,33.51
3,-0.01387024,0.2136536,0.9768066,1.0,-0.01654053,0.2039337,0.9788361,-28.76584,-6.841431,-18.1611,4.489883,0.4040217,0.6696659,1.0,-0.008636475,0.2325745,0.9725342,37.937940000000005,-6.21936,-20.6366,4.725632,0.3277363,0.6712875,-0.1975414,1.225772,-0.07538515,0.06334347,0.7672344,-0.05296596,4.389622,-24.09714,33.51
3,-0.01387024,0.2136536,0.9768066,1.0,-0.01654053,0.2039337,0.9788361,-28.76584,-6.841431,-18.1611,4.489883,0.4040217,0.6696659,1.0,-0.008636475,0.2325745,0.9725342,37.937940000000005,-6.21936,-20.6366,4.725632,0.3277363,0.6712875,-0.1975414,1.225772,-0.07538515,0.06334347,0.7672344,-0.05296596,4.389622,-24.09714,33.51
3,-0.03755188,0.1737517999999999,0.9840698,1.0,-0.03752136,0.1737517999999999,0.9840698,-29.19765,-6.947235000000001,-18.4456,4.249802,0.4206662,0.6801895,1.0,-0.06620789,0.1820221,0.9810486,37.61038,-6.304321,-20.5755,4.628601000000001,0.3479127999999999,0.6814190999999999,-0.1980010999999999,1.226359,-0.07711494,0.06122769,0.770077,-0.05122944,4.389622,-21.91249,33.51
3,-0.03755188,0.1737517999999999,0.9840698,1.0,-0.03752136,0.1737517999999999,0.9840698,-29.19765,-6.947235000000001,-18.4456,4.249802,0.4206662,0.6801895,1.0,-0.06620789,0.1820221,0.9810486,37.61038,-6.304321,-20.5755,4.628601000000001,0.3479127999999999,0.6814190999999999,-0.1980010999999999,1.226359,-0.07711494,0.06122769,0.770077,-0.05122944,4.389622,-21.91249,33.51
3,-0.03755188,0.1737517999999999,0.9840698,1.0,-0.03752136,0.1737517999999999,0.9840698,-29.19765,-6.947235000000001,-18.4456,4.249802,0.4206662,0.6801895,1.0,-0.06620789,0.1820221,0.9810486,37.61038,-6.304321,-20.5755,4.628601000000001,0.3479127999999999,0.6814190999999999,-0.1980010999999999,1.226359,-0.07711494,0.06122769,0.770077,-0.05122944,4.389622,-21.91249,33.51
3,-0.04968262,0.1489716,0.9875793,1.0,-0.04962158,0.1489105,0.9875946,-29.161040000000003,-6.709045,-19.00793,4.246796,0.4211724,0.6821976,1.0,-0.07330322,0.173584,0.9820709,37.63026,-6.408325,-20.5123,4.570511,0.3483865,0.6854960999999999,-0.1984426,1.226607,-0.07843366,0.05977682,0.7719849,-0.05058751,4.389622,-21.91249,33.51
3,-0.04968262,0.1489716,0.9875793,1.0,-0.04962158,0.1489105,0.9875946,-29.161040000000003,-6.709045,-19.00793,4.246796,0.4211724,0.6821976,1.0,-0.07330322,0.173584,0.9820709,37.63026,-6.408325,-20.5123,4.570511,0.3483865,0.6854960999999999,-0.1984426,1.226607,-0.07843366,0.05977682,0.7719849,-0.05058751,4.389622,-21.91249,33.51
3,-0.04968262,0.1489716,0.9875793,1.0,-0.04962158,0.1489105,0.9875946,-29.161040000000003,-6.709045,-19.00793,4.246796,0.4211724,0.6821976,1.0,-0.07330322,0.173584,0.9820709,37.63026,-6.408325,-20.5123,4.570511,0.3483865,0.6854960999999999,-0.1984426,1.226607,-0.07843366,0.05977682,0.7719849,-0.05058751,4.389622,-21.91249,33.51
3,-0.04408264,0.1448059,0.9884644,1.0,-0.04408264,0.1448059,0.9884644,-29.13235,-6.739517,-18.97592,4.234024,0.4194032,0.6834299,1.0,-0.07546997,0.1674042,0.9829865,37.67184,-6.427536,-20.4745,4.556641,0.3473837999999999,0.6867300999999999,-0.1988714,1.22683,-0.07948804,0.05854134,0.7733214,-0.0511779,4.389622,-21.91249,33.51
3,-0.04408264,0.1448059,0.9884644,1.0,-0.04408264,0.1448059,0.9884644,-29.13235,-6.739517,-18.97592,4.234024,0.4194032,0.6834299,1.0,-0.07546997,0.1674042,0.9829865,37.67184,-6.427536,-20.4745,4.556641,0.3473837999999999,0.6867300999999999,-0.1988714,1.22683,-0.07948804,0.05854134,0.7733214,-0.0511779,4.389622,-21.91249,33.51
3,-0.04408264,0.1448059,0.9884644,1.0,-0.04408264,0.1448059,0.9884644,-29.13235,-6.739517,-18.97592,4.234024,0.4194032,0.6834299,1.0,-0.07546997,0.1674042,0.9829865,37.67184,-6.427536,-20.4745,4.556641,0.3473837999999999,0.6867300999999999,-0.1988714,1.22683,-0.07948804,0.05854134,0.7733214,-0.0511779,4.389622,-21.91249,33.51
3,-0.05470276,0.1520538,0.9868469,1.0,-0.04129028,0.1430206,0.9888458,-29.102390000000003,-6.793182000000001,-18.8506,4.162643,0.4180844,0.6840453000000001,1.0,-0.06871033,0.1614685,0.9844666,37.71356,-6.441177,-20.42439,4.528580000000001,0.3449719,0.6875404,-0.1992151,1.226728,-0.08046526,0.05765988,0.7751347,-0.05198128,4.389622,-21.91249,33.51
3,-0.05470276,0.1520538,0.9868469,1.0,-0.04129028,0.1430206,0.9888458,-29.102390000000003,-6.793182000000001,-18.8506,4.162643,0.4180844,0.6840453000000001,1.0,-0.06871033,0.1614685,0.9844666,37.71356,-6.441177,-20.42439,4.528580000000001,0.3449719,0.6875404,-0.1992151,1.226728,-0.08046526,0.05765988,0.7751347,-0.05198128,4.389622,-21.91249,33.51
3,-0.05470276,0.1520538,0.9868469,1.0,-0.04129028,0.1430206,0.9888458,-29.102390000000003,-6.793182000000001,-18.8506,4.162643,0.4180844,0.6840453000000001,1.0,-0.06871033,0.1614685,0.9844666,37.71356,-6.441177,-20.42439,4.528580000000001,0.3449719,0.6875404,-0.1992151,1.226728,-0.08046526,0.05765988,0.7751347,-0.05198128,4.389622,-21.91249,33.51
3,-0.06065369,0.1581879,0.9855347,1.0,-0.03274536,0.1561432,0.9871826,-29.05589,-6.969528,-18.576320000000003,4.092438,0.4154173,0.6846645,1.0,-0.06204224,0.1582794,0.9854279,37.75504,-6.521255,-20.2776,4.508011,0.342671,0.6890809,-0.1994029,1.226747,-0.08174109,0.0559916999999999,0.7777134,-0.05157597,4.389622,-21.91249,33.51
3,-0.06065369,0.1581879,0.9855347,1.0,-0.03274536,0.1561432,0.9871826,-29.05589,-6.969528,-18.576320000000003,4.092438,0.4154173,0.6846645,1.0,-0.06204224,0.1582794,0.9854279,37.75504,-6.521255,-20.2776,4.508011,0.342671,0.6890809,-0.1994029,1.226747,-0.08174109,0.0559916999999999,0.7777134,-0.05157597,4.389622,-21.91249,33.51
3,-0.06065369,0.1581879,0.9855347,1.0,-0.03274536,0.1561432,0.9871826,-29.05589,-6.969528,-18.576320000000003,4.092438,0.4154173,0.6846645,1.0,-0.06204224,0.1582794,0.9854279,37.75504,-6.521255,-20.2776,4.508011,0.342671,0.6890809,-0.1994029,1.226747,-0.08174109,0.0559916999999999,0.7777134,-0.05157597,4.389622,-21.91249,33.51
3,-0.04421997,0.1515961,0.987442,1.0,-0.03219604,0.1476593,0.9885101,-29.02682,-6.969528,-18.57587,4.0575410000000005,0.4144138,0.6859338,1.0,-0.05664063,0.1556396,0.9861755,37.78595,-6.537537,-20.21733,4.471741000000001,0.3408665,0.6893384,-0.1997816,1.226743,-0.08322966,0.05509217,0.7815571,-0.05247587,4.389622,47.76195,33.51
3,-0.04421997,0.1515961,0.987442,1.0,-0.03219604,0.1476593,0.9885101,-29.02682,-6.969528,-18.57587,4.0575410000000005,0.4144138,0.6859338,1.0,-0.05664063,0.1556396,0.9861755,37.78595,-6.537537,-20.21733,4.471741000000001,0.3408665,0.6893384,-0.1997816,1.226743,-0.08322966,0.05509217,0.7815571,-0.05247587,4.389622,47.76195,33.51
3,-0.04421997,0.1515961,0.987442,1.0,-0.03219604,0.1476593,0.9885101,-29.02682,-6.969528,-18.57587,4.0575410000000005,0.4144138,0.6859338,1.0,-0.05664063,0.1556396,0.9861755,37.78595,-6.537537,-20.21733,4.471741000000001,0.3408665,0.6893384,-0.1997816,1.226743,-0.08322966,0.05509217,0.7815571,-0.05247587,4.389622,47.76195,33.51
3,-0.03422546,0.148941,0.9882507,1.0,-0.02828979,0.144455,0.9891052,-29.01003,-6.957428,-18.58858,4.000992,0.4132722,0.6860961,1.0,-0.04353333,0.1559601,0.9868011,37.80028,-6.559479,-20.19797,4.409058,0.3383042,0.6896796,-0.1999736,1.226626,-0.08526504,0.05459011,0.7874253000000001,-0.05370127,4.389622,47.76195,33.51
3,-0.03422546,0.148941,0.9882507,1.0,-0.02828979,0.144455,0.9891052,-29.01003,-6.957428,-18.58858,4.000992,0.4132722,0.6860961,1.0,-0.04353333,0.1559601,0.9868011,37.80028,-6.559479,-20.19797,4.409058,0.3383042,0.6896796,-0.1999736,1.226626,-0.08526504,0.05459011,0.7874253000000001,-0.05370127,4.389622,47.76195,33.51
3,-0.03422546,0.148941,0.9882507,1.0,-0.02828979,0.144455,0.9891052,-29.01003,-6.957428,-18.58858,4.000992,0.4132722,0.6860961,1.0,-0.04353333,0.1559601,0.9868011,37.80028,-6.559479,-20.19797,4.409058,0.3383042,0.6896796,-0.1999736,1.226626,-0.08526504,0.05459011,0.7874253000000001,-0.05370127,4.389622,47.76195,33.51
3,-0.03092957,0.1501922999999999,0.9881592,1.0,-0.02268982,0.1399994,0.9898834,-28.97672,-6.927383,-18.61504,3.944855,0.4113398,0.6860321,1.0,-0.03843689,0.1594696,0.9864502,37.83424,-6.558044000000001,-20.21733,4.342407,0.3363739999999999,0.6891615,-0.2004957,1.226408,-0.08822942,0.0557876,0.7968831000000001,-0.05446333,4.389622,47.76195,33.51
3,-0.03092957,0.1501922999999999,0.9881592,1.0,-0.02268982,0.1399994,0.9898834,-28.97672,-6.927383,-18.61504,3.944855,0.4113398,0.6860321,1.0,-0.03843689,0.1594696,0.9864502,37.83424,-6.558044000000001,-20.21733,4.342407,0.3363739999999999,0.6891615,-0.2004957,1.226408,-0.08822942,0.0557876,0.7968831000000001,-0.05446333,4.389622,47.76195,33.51
3,-0.03092957,0.1501922999999999,0.9881592,1.0,-0.02268982,0.1399994,0.9898834,-28.97672,-6.927383,-18.61504,3.944855,0.4113398,0.6860321,1.0,-0.03843689,0.1594696,0.9864502,37.83424,-6.558044000000001,-20.21733,4.342407,0.3363739999999999,0.6891615,-0.2004957,1.226408,-0.08822942,0.0557876,0.7968831000000001,-0.05446333,4.389622,47.76195,33.51
3,-0.02882385,0.1526947,0.9878386999999998,1.0,-0.01989746,0.1383513999999999,0.9901733,-28.96297,-6.917038000000001,-18.62828,3.899857,0.4104661,0.6860321,1.0,-0.03710938,0.1659697999999999,0.9854279,37.84352,-6.58905,-20.21733,4.333893,0.3358576,0.6891068,-0.2013047999999999,1.225897,-0.09224498,0.05803253,0.8095595,-0.05547025,4.389622,47.76195,33.51
3,-0.02882385,0.1526947,0.9878386999999998,1.0,-0.01989746,0.1383513999999999,0.9901733,-28.96297,-6.917038000000001,-18.62828,3.899857,0.4104661,0.6860321,1.0,-0.03710938,0.1659697999999999,0.9854279,37.84352,-6.58905,-20.21733,4.333893,0.3358576,0.6891068,-0.2013047999999999,1.225897,-0.09224498,0.05803253,0.8095595,-0.05547025,4.389622,47.76195,33.51
3,-0.02882385,0.1526947,0.9878386999999998,1.0,-0.01989746,0.1383513999999999,0.9901733,-28.96297,-6.917038000000001,-18.62828,3.899857,0.4104661,0.6860321,1.0,-0.03710938,0.1659697999999999,0.9854279,37.84352,-6.58905,-20.21733,4.333893,0.3358576,0.6891068,-0.2013047999999999,1.225897,-0.09224498,0.05803253,0.8095595,-0.05547025,4.389622,47.76195,33.51
3,-0.03840637,0.1459503,0.9885406,1.0,-0.02323914,0.1510315,0.9882507,-29.72636,-7.38945,-18.30119,3.874939,0.4349412,0.6957085999999999,1.0,-0.06069946,0.1384125,0.9885101,37.19856,-6.539337000000001,-20.36484,4.179474,0.3605987,0.6932826,-0.2028743999999999,1.225625,-0.09794876,0.06015008,0.8283396000000001,-0.05576944,4.389622,47.76195,33.51
3,-0.03840637,0.1459503,0.9885406,1.0,-0.02323914,0.1510315,0.9882507,-29.72636,-7.38945,-18.30119,3.874939,0.4349412,0.6957085999999999,1.0,-0.06069946,0.1384125,0.9885101,37.19856,-6.539337000000001,-20.36484,4.179474,0.3605987,0.6932826,-0.2028743999999999,1.225625,-0.09794876,0.06015008,0.8283396000000001,-0.05576944,4.389622,47.76195,33.51
3,-0.03840637,0.1459503,0.9885406,1.0,-0.02323914,0.1510315,0.9882507,-29.72636,-7.38945,-18.30119,3.874939,0.4349412,0.6957085999999999,1.0,-0.06069946,0.1384125,0.9885101,37.19856,-6.539337000000001,-20.36484,4.179474,0.3605987,0.6932826,-0.2028743999999999,1.225625,-0.09794876,0.06015008,0.8283396000000001,-0.05576944,4.389622,47.76195,33.51
3,-0.1708984,0.09255981,0.9809265,1.0,-0.1818237,0.08728027,0.9794464,-30.66003,-7.646178999999999,-18.62779,3.857849,0.4890529,0.7179581,1.0,-0.1484984999999999,0.1033173,0.98349,35.62138,-6.990341,-20.27571,4.092865,0.4258668,0.7133054,-0.2055783,1.224957,-0.1051866,0.06785935,0.8518256999999999,-0.05460447,4.389622,-14.65491,33.51
3,-0.1708984,0.09255981,0.9809265,1.0,-0.1818237,0.08728027,0.9794464,-30.66003,-7.646178999999999,-18.62779,3.857849,0.4890529,0.7179581,1.0,-0.1484984999999999,0.1033173,0.98349,35.62138,-6.990341,-20.27571,4.092865,0.4258668,0.7133054,-0.2055783,1.224957,-0.1051866,0.06785935,0.8518256999999999,-0.05460447,4.389622,-14.65491,33.51
3,-0.1708984,0.09255981,0.9809265,1.0,-0.1818237,0.08728027,0.9794464,-30.66003,-7.646178999999999,-18.62779,3.857849,0.4890529,0.7179581,1.0,-0.1484984999999999,0.1033173,0.98349,35.62138,-6.990341,-20.27571,4.092865,0.4258668,0.7133054,-0.2055783,1.224957,-0.1051866,0.06785935,0.8518256999999999,-0.05460447,4.389622,-14.65491,33.51
3,-0.4245148,0.005493164,0.9053955,1.0,-0.424942,0.004150391,0.9051971,-31.87268,-8.367691,-19.20363,4.013504,0.5664508,0.7646677,1.0,-0.4232635,0.009414673,0.9059448,34.30965,-7.500946000000001,-20.866670000000003,4.252258,0.5133890999999999,0.7563794,-0.213017,1.222423,-0.1195652,0.08207602,0.8922534,-0.06027518,4.389622,-14.65491,33.51
3,-0.4245148,0.005493164,0.9053955,1.0,-0.424942,0.004150391,0.9051971,-31.87268,-8.367691,-19.20363,4.013504,0.5664508,0.7646677,1.0,-0.4232635,0.009414673,0.9059448,34.30965,-7.500946000000001,-20.866670000000003,4.252258,0.5133890999999999,0.7563794,-0.213017,1.222423,-0.1195652,0.08207602,0.8922534,-0.06027518,4.389622,-14.65491,33.51
3,-0.4245148,0.005493164,0.9053955,1.0,-0.424942,0.004150391,0.9051971,-31.87268,-8.367691,-19.20363,4.013504,0.5664508,0.7646677,1.0,-0.4232635,0.009414673,0.9059448,34.30965,-7.500946000000001,-20.866670000000003,4.252258,0.5133890999999999,0.7563794,-0.213017,1.222423,-0.1195652,0.08207602,0.8922534,-0.06027518,4.389622,-14.65491,33.51
3,-0.3458405,0.002166748,0.9382782,1.0,-0.3454742,0.005828857,0.9384003,-31.43622,-8.234604,-18.95627,3.854889,0.5395304,0.7555052,1.0,-0.3463287,-0.002639771,0.9380951,34.889920000000004,-7.416351,-20.57416,4.256943,0.4813896,0.750704,-0.2167339,1.222723,-0.1254412,0.0791797,0.9070023000000002,-0.06031113,4.389622,-14.65491,33.51
3,-0.3458405,0.002166748,0.9382782,1.0,-0.3454742,0.005828857,0.9384003,-31.43622,-8.234604,-18.95627,3.854889,0.5395304,0.7555052,1.0,-0.3463287,-0.002639771,0.9380951,34.889920000000004,-7.416351,-20.57416,4.256943,0.4813896,0.750704,-0.2167339,1.222723,-0.1254412,0.0791797,0.9070023000000002,-0.06031113,4.389622,-14.65491,33.51
3,-0.3458405,0.002166748,0.9382782,1.0,-0.3454742,0.005828857,0.9384003,-31.43622,-8.234604,-18.95627,3.854889,0.5395304,0.7555052,1.0,-0.3463287,-0.002639771,0.9380951,34.889920000000004,-7.416351,-20.57416,4.256943,0.4813896,0.750704,-0.2167339,1.222723,-0.1254412,0.0791797,0.9070023000000002,-0.06031113,4.389622,-14.65491,33.51
3,-0.2726288,0.02198792,0.961853,1.0,-0.2764893,0.01763916,0.9608459,-30.81125,-8.059280000000001,-18.7552,3.952271,0.5085995,0.7446625,1.0,-0.2670745999999999,0.02824402,0.9632568,35.52898,-7.326430999999999,-20.38525,4.06102,0.4478354999999999,0.7389503000000001,-0.2203413,1.222668,-0.1301523,0.07651813,0.9178842,-0.06195403,4.389622,-14.65491,33.51
3,-0.2726288,0.02198792,0.961853,1.0,-0.2764893,0.01763916,0.9608459,-30.81125,-8.059280000000001,-18.7552,3.952271,0.5085995,0.7446625,1.0,-0.2670745999999999,0.02824402,0.9632568,35.52898,-7.326430999999999,-20.38525,4.06102,0.4478354999999999,0.7389503000000001,-0.2203413,1.222668,-0.1301523,0.07651813,0.9178842,-0.06195403,4.389622,-14.65491,33.51
3,-0.2726288,0.02198792,0.961853,1.0,-0.2764893,0.01763916,0.9608459,-30.81125,-8.059280000000001,-18.7552,3.952271,0.5085995,0.7446625,1.0,-0.2670745999999999,0.02824402,0.9632568,35.52898,-7.326430999999999,-20.38525,4.06102,0.4478354999999999,0.7389503000000001,-0.2203413,1.222668,-0.1301523,0.07651813,0.9178842,-0.06195403,4.389622,-14.65491,33.51
3,-0.215332,0.03039551,0.976059,1.0,-0.2188416,0.02766418,0.9753571,-30.47935,-8.054382,-18.65797,3.815659,0.489066,0.74093,1.0,-0.2105103,0.03414917,0.9769896999999998,35.84944,-7.381469999999999,-20.33554,4.269913,0.4280279999999999,0.738735,-0.2231143,1.222908,-0.1337462,0.07331154,0.9255728,-0.06351341,4.389622,-14.65491,33.51
3,-0.215332,0.03039551,0.976059,1.0,-0.2188416,0.02766418,0.9753571,-30.47935,-8.054382,-18.65797,3.815659,0.489066,0.74093,1.0,-0.2105103,0.03414917,0.9769896999999998,35.84944,-7.381469999999999,-20.33554,4.269913,0.4280279999999999,0.738735,-0.2231143,1.222908,-0.1337462,0.07331154,0.9255728,-0.06351341,4.389622,-14.65491,33.51
3,-0.215332,0.03039551,0.976059,1.0,-0.2188416,0.02766418,0.9753571,-30.47935,-8.054382,-18.65797,3.815659,0.489066,0.74093,1.0,-0.2105103,0.03414917,0.9769896999999998,35.84944,-7.381469999999999,-20.33554,4.269913,0.4280279999999999,0.738735,-0.2231143,1.222908,-0.1337462,0.07331154,0.9255728,-0.06351341,4.389622,-14.65491,33.51
3,-0.1280518,0.03152466,0.9912567,1.0,-0.1477509,0.03521729,0.9883881,-29.9043,-8.177841,-18.04713,3.676239,0.4598822,0.7364723000000001,1.0,-0.1279602,0.0315094,0.991272,36.47542,-7.278075999999999,-20.62865,4.216293,0.3940162,0.7382137,-0.2261034999999999,1.223092,-0.1364507999999999,0.06903969,0.9311474,-0.06453618,4.389622,-6.971451,33.53
3,-0.1280518,0.03152466,0.9912567,1.0,-0.1477509,0.03521729,0.9883881,-29.9043,-8.177841,-18.04713,3.676239,0.4598822,0.7364723000000001,1.0,-0.1279602,0.0315094,0.991272,36.47542,-7.278075999999999,-20.62865,4.216293,0.3940162,0.7382137,-0.2261034999999999,1.223092,-0.1364507999999999,0.06903969,0.9311474,-0.06453618,4.389622,-6.971451,33.53
3,-0.1280518,0.03152466,0.9912567,1.0,-0.1477509,0.03521729,0.9883881,-29.9043,-8.177841,-18.04713,3.676239,0.4598822,0.7364723000000001,1.0,-0.1279602,0.0315094,0.991272,36.47542,-7.278075999999999,-20.62865,4.216293,0.3940162,0.7382137,-0.2261034999999999,1.223092,-0.1364507999999999,0.06903969,0.9311474,-0.06453618,4.389622,-6.971451,33.53
3,-0.114624,0.03114319,0.9929199,1.0,-0.1146088,0.03112793,0.9929199,-29.76442,-8.116226,-18.10284,3.909744,0.4502018,0.7357804,1.0,-0.1199799,0.04077148,0.9919281,36.84187,-7.664886,-19.40875,4.207687,0.3817725999999999,0.7360098,-0.2288932,1.223236,-0.1388126,0.06302328,0.9361977,-0.0666448,4.389622,-6.971451,33.53
3,-0.114624,0.03114319,0.9929199,1.0,-0.1146088,0.03112793,0.9929199,-29.76442,-8.116226,-18.10284,3.909744,0.4502018,0.7357804,1.0,-0.1199799,0.04077148,0.9919281,36.84187,-7.664886,-19.40875,4.207687,0.3817725999999999,0.7360098,-0.2288932,1.223236,-0.1388126,0.06302328,0.9361977,-0.0666448,4.389622,-6.971451,33.53
3,-0.114624,0.03114319,0.9929199,1.0,-0.1146088,0.03112793,0.9929199,-29.76442,-8.116226,-18.10284,3.909744,0.4502018,0.7357804,1.0,-0.1199799,0.04077148,0.9919281,36.84187,-7.664886,-19.40875,4.207687,0.3817725999999999,0.7360098,-0.2288932,1.223236,-0.1388126,0.06302328,0.9361977,-0.0666448,4.389622,-6.971451,33.53
3,-0.1006775,0.03408813,0.9943237,1.0,-0.1006775,0.03408813,0.9943237,-29.72057,-8.124130000000001,-18.1075,3.805298000000001,0.4466835999999999,0.7354210999999999,1.0,-0.1214142,0.0581664999999999,0.9908905,37.13298,-7.915665,-18.73309,4.268341,0.3732479,0.7340199000000001,-0.2316503999999999,1.223258,-0.1406549,0.05740525,0.9405233,-0.06851833,4.389622,-6.971451,33.53
3,-0.1006775,0.03408813,0.9943237,1.0,-0.1006775,0.03408813,0.9943237,-29.72057,-8.124130000000001,-18.1075,3.805298000000001,0.4466835999999999,0.7354210999999999,1.0,-0.1214142,0.0581664999999999,0.9908905,37.13298,-7.915665,-18.73309,4.268341,0.3732479,0.7340199000000001,-0.2316503999999999,1.223258,-0.1406549,0.05740525,0.9405233,-0.06851833,4.389622,-6.971451,33.53
3,-0.1006775,0.03408813,0.9943237,1.0,-0.1006775,0.03408813,0.9943237,-29.72057,-8.124130000000001,-18.1075,3.805298000000001,0.4466835999999999,0.7354210999999999,1.0,-0.1214142,0.0581664999999999,0.9908905,37.13298,-7.915665,-18.73309,4.268341,0.3732479,0.7340199000000001,-0.2316503999999999,1.223258,-0.1406549,0.05740525,0.9405233,-0.06851833,4.389622,-6.971451,33.53
3,-0.2266541,-0.00402832,0.9739532,1.0,-0.2266541,-0.00402832,0.9739532,-30.4989,-8.407974000000001,-18.4361,3.966782,0.4906729999999999,0.7551975999999999,1.0,-0.1987305,0.006835938,0.9800261999999998,35.76672,-7.625228999999999,-20.13454,4.30275,0.4286516999999999,0.7489964,-0.2345819,1.223447,-0.1427457999999999,0.05196397,0.9454873,-0.06951591,4.389622,-6.971451,33.53
3,-0.2266541,-0.00402832,0.9739532,1.0,-0.2266541,-0.00402832,0.9739532,-30.4989,-8.407974000000001,-18.4361,3.966782,0.4906729999999999,0.7551975999999999,1.0,-0.1987305,0.006835938,0.9800261999999998,35.76672,-7.625228999999999,-20.13454,4.30275,0.4286516999999999,0.7489964,-0.2345819,1.223447,-0.1427457999999999,0.05196397,0.9454873,-0.06951591,4.389622,-6.971451,33.53
3,-0.2266541,-0.00402832,0.9739532,1.0,-0.2266541,-0.00402832,0.9739532,-30.4989,-8.407974000000001,-18.4361,3.966782,0.4906729999999999,0.7551975999999999,1.0,-0.1987305,0.006835938,0.9800261999999998,35.76672,-7.625228999999999,-20.13454,4.30275,0.4286516999999999,0.7489964,-0.2345819,1.223447,-0.1427457999999999,0.05196397,0.9454873,-0.06951591,4.389622,-6.971451,33.53
3,-0.3392180999999999,-0.01306152,0.9405975,0.9461332,-0.3392180999999999,-0.01306152,0.9405975,-31.19772,-8.537994,-18.66431,4.0617980000000005,0.5306119,0.7650948000000001,0.9785407,-0.3265686,-0.01754761,0.9449921,35.11798,-7.627242999999999,-20.3114,4.274277,0.4705577999999999,0.7568272,-0.2378214,1.223486,-0.1448194,0.04787258,0.9507647,-0.07064392,4.389622,23.68286,33.53
3,-0.3392180999999999,-0.01306152,0.9405975,0.9461332,-0.3392180999999999,-0.01306152,0.9405975,-31.19772,-8.537994,-18.66431,4.0617980000000005,0.5306119,0.7650948000000001,0.9785407,-0.3265686,-0.01754761,0.9449921,35.11798,-7.627242999999999,-20.3114,4.274277,0.4705577999999999,0.7568272,-0.2378214,1.223486,-0.1448194,0.04787258,0.9507647,-0.07064392,4.389622,23.68286,33.53
3,-0.3392180999999999,-0.01306152,0.9405975,0.9461332,-0.3392180999999999,-0.01306152,0.9405975,-31.19772,-8.537994,-18.66431,4.0617980000000005,0.5306119,0.7650948000000001,0.9785407,-0.3265686,-0.01754761,0.9449921,35.11798,-7.627242999999999,-20.3114,4.274277,0.4705577999999999,0.7568272,-0.2378214,1.223486,-0.1448194,0.04787258,0.9507647,-0.07064392,4.389622,23.68286,33.53
3,-0.290451,0.004318237,0.9568634,0.9703736,-0.2966003,1.525879e-05,0.9549866,-31.03061,-8.496796,-18.57132,4.002655,0.5185396,0.7598505999999999,0.9315101999999998,-0.2855988,0.007720947,0.958313,35.3309,-7.655212,-20.258,4.258148,0.4570119000000001,0.7522101,-0.2410682,1.223324,-0.1468484,0.04625788,0.9557076,-0.07082593,4.389622,23.68286,33.53
3,-0.290451,0.004318237,0.9568634,0.9703736,-0.2966003,1.525879e-05,0.9549866,-31.03061,-8.496796,-18.57132,4.002655,0.5185396,0.7598505999999999,0.9315101999999998,-0.2855988,0.007720947,0.958313,35.3309,-7.655212,-20.258,4.258148,0.4570119000000001,0.7522101,-0.2410682,1.223324,-0.1468484,0.04625788,0.9557076,-0.07082593,4.389622,23.68286,33.53
3,-0.290451,0.004318237,0.9568634,0.9703736,-0.2966003,1.525879e-05,0.9549866,-31.03061,-8.496796,-18.57132,4.002655,0.5185396,0.7598505999999999,0.9315101999999998,-0.2855988,0.007720947,0.958313,35.3309,-7.655212,-20.258,4.258148,0.4570119000000001,0.7522101,-0.2410682,1.223324,-0.1468484,0.04625788,0.9557076,-0.07082593,4.389622,23.68286,33.53
3,-0.2664642,0.001312256,0.9638367,0.99695,-0.2763672,0.00289917,0.9610443,-30.75476,-8.443008,-18.47832,3.863708,0.5067106,0.7561946999999999,0.9413137,-0.2597198,0.0002288818,0.9656677,35.55751,-7.674544999999999,-20.20726,4.301666,0.445338,0.7531821999999999,-0.2438369,1.223225,-0.1481805,0.04584711,0.9590925,-0.07056868,4.389622,23.68286,33.53
3,-0.2664642,0.001312256,0.9638367,0.99695,-0.2763672,0.00289917,0.9610443,-30.75476,-8.443008,-18.47832,3.863708,0.5067106,0.7561946999999999,0.9413137,-0.2597198,0.0002288818,0.9656677,35.55751,-7.674544999999999,-20.20726,4.301666,0.445338,0.7531821999999999,-0.2438369,1.223225,-0.1481805,0.04584711,0.9590925,-0.07056868,4.389622,23.68286,33.53
3,-0.2664642,0.001312256,0.9638367,0.99695,-0.2763672,0.00289917,0.9610443,-30.75476,-8.443008,-18.47832,3.863708,0.5067106,0.7561946999999999,0.9413137,-0.2597198,0.0002288818,0.9656677,35.55751,-7.674544999999999,-20.20726,4.301666,0.445338,0.7531821999999999,-0.2438369,1.223225,-0.1481805,0.04584711,0.9590925,-0.07056868,4.389622,23.68286,33.53
4,-0.2399597,0.005432129,0.9707642,1.0,-0.2472076,0.0009613037,0.9689484,-30.62465,-8.430603,-18.46716,3.93161,0.497922,0.7556583,1.0,-0.2351532,0.008377075,0.9719086,35.74458,-7.695511,-20.1826,4.3195190000000006,0.4352698,0.7519208000000001,-0.2460876,1.223409,-0.1487436,0.04474572,0.9609077,-0.07013022,4.389622,23.68286,33.53
4,-0.2399597,0.005432129,0.9707642,1.0,-0.2472076,0.0009613037,0.9689484,-30.62465,-8.430603,-18.46716,3.93161,0.497922,0.7556583,1.0,-0.2351532,0.008377075,0.9719086,35.74458,-7.695511,-20.1826,4.3195190000000006,0.4352698,0.7519208000000001,-0.2460876,1.223409,-0.1487436,0.04474572,0.9609077,-0.07013022,4.389622,23.68286,33.53
4,-0.2399597,0.005432129,0.9707642,1.0,-0.2472076,0.0009613037,0.9689484,-30.62465,-8.430603,-18.46716,3.93161,0.497922,0.7556583,1.0,-0.2351532,0.008377075,0.9719086,35.74458,-7.695511,-20.1826,4.3195190000000006,0.4352698,0.7519208000000001,-0.2460876,1.223409,-0.1487436,0.04474572,0.9609077,-0.07013022,4.389622,23.68286,33.53
4,-0.2194977,0.001907349,0.9756011999999998,0.9898244,-0.2266083,-0.003158569,0.9739685,-30.49222,-8.350143,-18.4025,3.975311,0.4904559,0.7528818,0.9990123,-0.2138367,0.005950928,0.9768372,35.84698,-7.668106,-20.15022,4.266968,0.4285148,0.7507656,-0.2475798,1.223712,-0.1489927,0.04189307,0.9617373,-0.06953703,4.389622,23.68286,33.53
4,-0.2194977,0.001907349,0.9756011999999998,0.9898244,-0.2266083,-0.003158569,0.9739685,-30.49222,-8.350143,-18.4025,3.975311,0.4904559,0.7528818,0.9990123,-0.2138367,0.005950928,0.9768372,35.84698,-7.668106,-20.15022,4.266968,0.4285148,0.7507656,-0.2475798,1.223712,-0.1489927,0.04189307,0.9617373,-0.06953703,4.389622,23.68286,33.53
4,-0.2194977,0.001907349,0.9756011999999998,0.9898244,-0.2266083,-0.003158569,0.9739685,-30.49222,-8.350143,-18.4025,3.975311,0.4904559,0.7528818,0.9990123,-0.2138367,0.005950928,0.9768372,35.84698,-7.668106,-20.15022,4.266968,0.4285148,0.7507656,-0.2475798,1.223712,-0.1489927,0.04189307,0.9617373,-0.06953703,4.389622,23.68286,33.53
4,-0.2087708,-0.003616333,0.977951,1.0,-0.2113037,-0.009719849,0.977356,-30.3652,-8.352371,-18.37294,3.949646,0.484044,0.7534981,1.0,-0.2059784,0.003082275,0.9785461,36.01527,-7.633499,-20.27301,4.277451,0.4216872999999999,0.7513773,-0.2485783,1.224078,-0.1489374,0.03721063,0.9617049,-0.06892434,4.389622,23.68286,33.53
4,-0.2087708,-0.003616333,0.977951,1.0,-0.2113037,-0.009719849,0.977356,-30.3652,-8.352371,-18.37294,3.949646,0.484044,0.7534981,1.0,-0.2059784,0.003082275,0.9785461,36.01527,-7.633499,-20.27301,4.277451,0.4216872999999999,0.7513773,-0.2485783,1.224078,-0.1489374,0.03721063,0.9617049,-0.06892434,4.389622,23.68286,33.53
4,-0.2087708,-0.003616333,0.977951,1.0,-0.2113037,-0.009719849,0.977356,-30.3652,-8.352371,-18.37294,3.949646,0.484044,0.7534981,1.0,-0.2059784,0.003082275,0.9785461,36.01527,-7.633499,-20.27301,4.277451,0.4216872999999999,0.7513773,-0.2485783,1.224078,-0.1489374,0.03721063,0.9617049,-0.06892434,4.389622,23.68286,33.53
4,-0.2041321,-0.004333496,0.9789276,1.0,-0.2087708,-0.01101685,0.97789,-30.34744,-8.352997,-18.36307,3.93782,0.4830882999999999,0.7535864999999999,1.0,-0.1956023999999999,0.007904053,0.9806366,36.02763,-7.630539,-20.30411,4.200424,0.4196468,0.7506335,-0.249283,1.224186,-0.1487046,0.03341585,0.9610429,-0.0692623,4.389622,46.18913,33.53
4,-0.2041321,-0.004333496,0.9789276,1.0,-0.2087708,-0.01101685,0.97789,-30.34744,-8.352997,-18.36307,3.93782,0.4830882999999999,0.7535864999999999,1.0,-0.1956023999999999,0.007904053,0.9806366,36.02763,-7.630539,-20.30411,4.200424,0.4196468,0.7506335,-0.249283,1.224186,-0.1487046,0.03341585,0.9610429,-0.0692623,4.389622,46.18913,33.53
4,-0.2041321,-0.004333496,0.9789276,1.0,-0.2087708,-0.01101685,0.97789,-30.34744,-8.352997,-18.36307,3.93782,0.4830882999999999,0.7535864999999999,1.0,-0.1956023999999999,0.007904053,0.9806366,36.02763,-7.630539,-20.30411,4.200424,0.4196468,0.7506335,-0.249283,1.224186,-0.1487046,0.03341585,0.9610429,-0.0692623,4.389622,46.18913,33.53
4,-0.1983947999999999,-0.009643555,0.980072,1.0,-0.2024536,-0.01905823,0.9790955,-30.297290000000004,-8.376953,-18.30339,3.967789,0.4804739,0.7549775,1.0,-0.1910552999999999,0.007202148,0.9815369,36.1013,-7.681961,-20.47369,4.244994999999999,0.4163502,0.7543001,-0.2485186999999999,1.225058,-0.1478965,0.03026236,0.9577886999999998,-0.06773891,4.389622,46.18913,33.53
4,-0.1983947999999999,-0.009643555,0.980072,1.0,-0.2024536,-0.01905823,0.9790955,-30.297290000000004,-8.376953,-18.30339,3.967789,0.4804739,0.7549775,1.0,-0.1910552999999999,0.007202148,0.9815369,36.1013,-7.681961,-20.47369,4.244994999999999,0.4163502,0.7543001,-0.2485186999999999,1.225058,-0.1478965,0.03026236,0.9577886999999998,-0.06773891,4.389622,46.18913,33.53
4,-0.1983947999999999,-0.009643555,0.980072,1.0,-0.2024536,-0.01905823,0.9790955,-30.297290000000004,-8.376953,-18.30339,3.967789,0.4804739,0.7549775,1.0,-0.1910552999999999,0.007202148,0.9815369,36.1013,-7.681961,-20.47369,4.244994999999999,0.4163502,0.7543001,-0.2485186999999999,1.225058,-0.1478965,0.03026236,0.9577886999999998,-0.06773891,4.389622,46.18913,33.53
4,-0.2116852,-0.01263428,0.9772491,1.0,-0.2126465,-0.01841736,0.976944,-30.24754,-8.355835,-18.28139,3.965149,0.4805291,0.7540690999999999,1.0,-0.2095795,-4.577637e-05,0.9777832,36.12379,-7.787277,-20.30698,4.276473999999999,0.4186159,0.7574078000000001,-0.2462418999999999,1.226184,-0.1460946,0.02792023,0.9509945,-0.06505077,4.389622,46.18913,33.53
4,-0.2116852,-0.01263428,0.9772491,1.0,-0.2126465,-0.01841736,0.976944,-30.24754,-8.355835,-18.28139,3.965149,0.4805291,0.7540690999999999,1.0,-0.2095795,-4.577637e-05,0.9777832,36.12379,-7.787277,-20.30698,4.276473999999999,0.4186159,0.7574078000000001,-0.2462418999999999,1.226184,-0.1460946,0.02792023,0.9509945,-0.06505077,4.389622,46.18913,33.53
4,-0.2116852,-0.01263428,0.9772491,1.0,-0.2126465,-0.01841736,0.976944,-30.24754,-8.355835,-18.28139,3.965149,0.4805291,0.7540690999999999,1.0,-0.2095795,-4.577637e-05,0.9777832,36.12379,-7.787277,-20.30698,4.276473999999999,0.4186159,0.7574078000000001,-0.2462418999999999,1.226184,-0.1460946,0.02792023,0.9509945,-0.06505077,4.389622,46.18913,33.53
