Second,eye_comb_direction_x,eye_comb_direction_y,eye_comb_direction_z,eye_r_openness,eye_r_direction_x,eye_r_direction_y,eye_r_direction_z,eye_r_origin_x,eye_r_origin_y,eye_r_origin_z,eye_r_pupil_diameter,eye_r_pupil_position_x,eye_r_pupil_position_y,eye_l_openness,eye_l_direction_x,eye_l_direction_y,eye_l_direction_z,eye_l_origin_x,eye_l_origin_y,eye_l_origin_z,eye_l_pupil_diameter,eye_l_pupil_position_x,eye_l_pupil_position_y,head_position_x,head_position_y,head_position_z,head_rotation_roll,head_rotation_pitch,head_rotation_yaw,EDA,BVP,TMP
0,-0.1286163,0.09396362,0.9872284,1.0,-0.1206055,0.04119873,0.9918365,-29.73657,-7.959152,-17.71001,6.461899,0.4494770999999999,0.7282875,1.0,-0.1300049,0.103302,0.9861145,37.07735,-7.657959,-19.96539,6.750931,0.3739899,0.7353308000000001,-0.1973589,1.214142,-0.070297,0.002472489,0.7029758,-0.003102004,5.070636,1.6433368870411234,32.724343029087265
0,-0.1286163,0.09396362,0.9872284,1.0,-0.1206055,0.04119873,0.9918365,-29.73657,-7.959152,-17.71001,6.461899,0.4494770999999999,0.7282875,1.0,-0.1300049,0.103302,0.9861145,37.07735,-7.657959,-19.96539,6.750931,0.3739899,0.7353308000000001,-0.1973589,1.214142,-0.070297,0.002472489,0.7029758,-0.003102004,5.070636,1.6433368870411234,32.724343029087265
0,-0.1286163,0.09396362,0.9872284,1.0,-0.1206055,0.04119873,0.9918365,-29.73657,-7.959152,-17.71001,6.461899,0.4494770999999999,0.7282875,1.0,-0.1300049,0.103302,0.9861145,37.07735,-7.657959,-19.96539,6.750931,0.3739899,0.7353308000000001,-0.1973589,1.214142,-0.070297,0.002472489,0.7029758,-0.003102004,5.070636,1.6433368870411234,32.724343029087265
0,-0.1286163,0.09396362,0.9872284,1.0,-0.1206055,0.04119873,0.9918365,-29.73657,-7.959152,-17.71001,6.461899,0.4494770999999999,0.7282875,1.0,-0.1300049,0.103302,0.9861145,37.07735,-7.657959,-19.96539,6.750931,0.3739899,0.7353308000000001,-0.1973589,1.214142,-0.070297,0.002472489,0.7029758,-0.003102004,5.070636,1.6433368870411234,32.724343029087265
0,-0.1281891,0.08480835,0.9881134,1.0,-0.1194611,0.04200745,0.9919434,-29.74236,-7.952118,-17.72069,6.456283999999999,0.4494898,0.7280428000000001,1.0,-0.1320496,0.1041412,0.9857483,37.03929,-7.63588,-19.96539,6.703079,0.3756140999999999,0.7343956,-0.1973453,1.214251,-0.0702678,0.002258301,0.7030496999999999,-0.002867354,5.070636,1.6433368870411234,32.724343029087265
0,-0.1281891,0.08480835,0.9881134,1.0,-0.1194611,0.04200745,0.9919434,-29.74236,-7.952118,-17.72069,6.456283999999999,0.4494898,0.7280428000000001,1.0,-0.1320496,0.1041412,0.9857483,37.03929,-7.63588,-19.96539,6.703079,0.3756140999999999,0.7343956,-0.1973453,1.214251,-0.0702678,0.002258301,0.7030496999999999,-0.002867354,5.070636,1.6433368870411234,32.724343029087265
0,-0.1281891,0.08480835,0.9881134,1.0,-0.1194611,0.04200745,0.9919434,-29.74236,-7.952118,-17.72069,6.456283999999999,0.4494898,0.7280428000000001,1.0,-0.1320496,0.1041412,0.9857483,37.03929,-7.63588,-19.96539,6.703079,0.3756140999999999,0.7343956,-0.1973453,1.214251,-0.0702678,0.002258301,0.7030496999999999,-0.002867354,5.070636,1.6433368870411234,32.724343029087265
0,-0.106781,0.04673767,0.9931793,1.0,-0.119339,0.03936768,0.9920654,-29.743,-7.941864,-17.74513,6.432007,0.4494898,0.7283403,1.0,-0.08937073,0.05691528,0.9943695,36.82053,-7.366500999999999,-20.10913,6.6331940000000005,0.3758789,0.7343429,-0.1973898,1.214209,-0.07024074,0.002163952,0.703146,-0.002772233,5.070636,1.6433368870411234,32.724343029087265
0,-0.106781,0.04673767,0.9931793,1.0,-0.119339,0.03936768,0.9920654,-29.743,-7.941864,-17.74513,6.432007,0.4494898,0.7283403,1.0,-0.08937073,0.05691528,0.9943695,36.82053,-7.366500999999999,-20.10913,6.6331940000000005,0.3758789,0.7343429,-0.1973898,1.214209,-0.07024074,0.002163952,0.703146,-0.002772233,5.070636,1.6433368870411234,32.724343029087265
0,-0.106781,0.04673767,0.9931793,1.0,-0.119339,0.03936768,0.9920654,-29.743,-7.941864,-17.74513,6.432007,0.4494898,0.7283403,1.0,-0.08937073,0.05691528,0.9943695,36.82053,-7.366500999999999,-20.10913,6.6331940000000005,0.3758789,0.7343429,-0.1973898,1.214209,-0.07024074,0.002163952,0.703146,-0.002772233,5.070636,1.6433368870411234,32.724343029087265
0,-0.09864807,0.05612183,0.9935303,1.0,-0.1190643,0.05534363,0.991333,-29.74211,-7.948517,-17.97691,6.396484,0.4494278,0.7284085,1.0,-0.08581543,0.05659485,0.9946899,36.82053,-7.366500999999999,-20.10913,6.63063,0.3753027,0.7343956,-0.1972522,1.214214,-0.07036048,0.00193203,0.7034895,-0.002645013,5.070636,1.6433368870411234,32.724343029087265
0,-0.09864807,0.05612183,0.9935303,1.0,-0.1190643,0.05534363,0.991333,-29.74211,-7.948517,-17.97691,6.396484,0.4494278,0.7284085,1.0,-0.08581543,0.05659485,0.9946899,36.82053,-7.366500999999999,-20.10913,6.63063,0.3753027,0.7343956,-0.1972522,1.214214,-0.07036048,0.00193203,0.7034895,-0.002645013,5.070636,1.6433368870411234,32.724343029087265
0,-0.09864807,0.05612183,0.9935303,1.0,-0.1190643,0.05534363,0.991333,-29.74211,-7.948517,-17.97691,6.396484,0.4494278,0.7284085,1.0,-0.08581543,0.05659485,0.9946899,36.82053,-7.366500999999999,-20.10913,6.63063,0.3753027,0.7343956,-0.1972522,1.214214,-0.07036048,0.00193203,0.7034895,-0.002645013,5.070636,1.6433368870411234,32.724343029087265
0,-0.09329224,0.05613708,0.9940491,1.0,-0.1190643,0.05523682,0.991333,-29.74211,-7.948517,-17.97691,6.396393,0.4494278,0.72842,1.0,-0.08573914,0.05639648,0.9947052,36.82053,-7.366500999999999,-20.10913,6.606978999999999,0.3753027,0.7343956,-0.1972352,1.214168,-0.0703758,0.001717682,0.7036682,-0.002507646,5.070636,1.6433368870411234,32.724343029087265
0,-0.09329224,0.05613708,0.9940491,1.0,-0.1190643,0.05523682,0.991333,-29.74211,-7.948517,-17.97691,6.396393,0.4494278,0.72842,1.0,-0.08573914,0.05639648,0.9947052,36.82053,-7.366500999999999,-20.10913,6.606978999999999,0.3753027,0.7343956,-0.1972352,1.214168,-0.0703758,0.001717682,0.7036682,-0.002507646,5.070636,1.6433368870411234,32.724343029087265
0,-0.09329224,0.05613708,0.9940491,1.0,-0.1190643,0.05523682,0.991333,-29.74211,-7.948517,-17.97691,6.396393,0.4494278,0.72842,1.0,-0.08573914,0.05639648,0.9947052,36.82053,-7.366500999999999,-20.10913,6.606978999999999,0.3753027,0.7343956,-0.1972352,1.214168,-0.0703758,0.001717682,0.7036682,-0.002507646,5.070636,1.6433368870411234,32.724343029087265
0,-0.09162903,0.05697632,0.9941559,1.0,-0.1200408999999999,0.05348206,0.9913177,-29.73976,-7.954971,-17.97691,6.372421,0.4495024999999999,0.7288768,1.0,-0.08624268,0.05763245,0.9945984,36.83821,-7.410278,-20.00832,6.611862,0.3748765999999999,0.7345654,-0.1971757,1.214135,-0.07051954,0.0016102179999999,0.7039581,-0.002217517,5.070636,1.6433368870411234,32.724343029087265
0,-0.09162903,0.05697632,0.9941559,1.0,-0.1200408999999999,0.05348206,0.9913177,-29.73976,-7.954971,-17.97691,6.372421,0.4495024999999999,0.7288768,1.0,-0.08624268,0.05763245,0.9945984,36.83821,-7.410278,-20.00832,6.611862,0.3748765999999999,0.7345654,-0.1971757,1.214135,-0.07051954,0.0016102179999999,0.7039581,-0.002217517,5.070636,1.6433368870411234,32.724343029087265
0,-0.09162903,0.05697632,0.9941559,1.0,-0.1200408999999999,0.05348206,0.9913177,-29.73976,-7.954971,-17.97691,6.372421,0.4495024999999999,0.7288768,1.0,-0.08624268,0.05763245,0.9945984,36.83821,-7.410278,-20.00832,6.611862,0.3748765999999999,0.7345654,-0.1971757,1.214135,-0.07051954,0.0016102179999999,0.7039581,-0.002217517,5.070636,1.6433368870411234,32.724343029087265
0,-0.1114043999999999,0.05357361,0.9923248,1.0,-0.1198119999999999,0.05187988,0.9914246,-29.73752,-7.959,-17.96455,6.371567,0.4493945,0.7291294,1.0,-0.08912659,0.05804443,0.9943237,36.85663,-7.441528,-19.9529,6.605759,0.3747882999999999,0.7348903,-0.1970932,1.214136,-0.07066411,0.001487556,0.7042501999999999,-0.002346482,5.070636,1.6433368870411234,32.724343029087265
0,-0.1114043999999999,0.05357361,0.9923248,1.0,-0.1198119999999999,0.05187988,0.9914246,-29.73752,-7.959,-17.96455,6.371567,0.4493945,0.7291294,1.0,-0.08912659,0.05804443,0.9943237,36.85663,-7.441528,-19.9529,6.605759,0.3747882999999999,0.7348903,-0.1970932,1.214136,-0.07066411,0.001487556,0.7042501999999999,-0.002346482,5.070636,1.6433368870411234,32.724343029087265
0,-0.1114043999999999,0.05357361,0.9923248,1.0,-0.1198119999999999,0.05187988,0.9914246,-29.73752,-7.959,-17.96455,6.371567,0.4493945,0.7291294,1.0,-0.08912659,0.05804443,0.9943237,36.85663,-7.441528,-19.9529,6.605759,0.3747882999999999,0.7348903,-0.1970932,1.214136,-0.07066411,0.001487556,0.7042501999999999,-0.002346482,5.070636,1.6433368870411234,32.724343029087265
0,-0.1116638,0.05393982,0.9922791,1.0,-0.1197815,0.05152893,0.9914551,-29.73712,-7.959229,-17.95865,6.371445,0.449379,0.7291294,1.0,-0.0901947,0.06028748,0.9940948,36.86227,-7.456253,-19.93457,6.645874000000001,0.3747687,0.7348903,-0.1970945,1.214232,-0.07075647,0.0014417739999999,0.7045736,-0.0025562,5.070636,1.6433368870411234,32.724343029087265
0,-0.1116638,0.05393982,0.9922791,1.0,-0.1197815,0.05152893,0.9914551,-29.73712,-7.959229,-17.95865,6.371445,0.449379,0.7291294,1.0,-0.0901947,0.06028748,0.9940948,36.86227,-7.456253,-19.93457,6.645874000000001,0.3747687,0.7348903,-0.1970945,1.214232,-0.07075647,0.0014417739999999,0.7045736,-0.0025562,5.070636,1.6433368870411234,32.724343029087265
0,-0.1116638,0.05393982,0.9922791,1.0,-0.1197815,0.05152893,0.9914551,-29.73712,-7.959229,-17.95865,6.371445,0.449379,0.7291294,1.0,-0.0901947,0.06028748,0.9940948,36.86227,-7.456253,-19.93457,6.645874000000001,0.3747687,0.7348903,-0.1970945,1.214232,-0.07075647,0.0014417739999999,0.7045736,-0.0025562,5.070636,1.6433368870411234,32.724343029087265
0,-0.1136932,0.05711365,0.9918671,1.0,-0.120163,0.05358887,0.9913025,-29.73317,-7.982056,-17.94313,6.369858,0.4493180999999999,0.7293658000000001,1.0,-0.09977722,0.06466675,0.9929047,36.922,-7.545669999999999,-19.77321,6.62355,0.3744714,0.7353708000000001,-0.197121,1.214336,-0.0709188,0.00131048,0.7049251,-0.002486012,5.070636,1.6433368870411234,32.724343029087265
0,-0.1136932,0.05711365,0.9918671,1.0,-0.120163,0.05358887,0.9913025,-29.73317,-7.982056,-17.94313,6.369858,0.4493180999999999,0.7293658000000001,1.0,-0.09977722,0.06466675,0.9929047,36.922,-7.545669999999999,-19.77321,6.62355,0.3744714,0.7353708000000001,-0.197121,1.214336,-0.0709188,0.00131048,0.7049251,-0.002486012,5.070636,1.6433368870411234,32.724343029087265
0,-0.1136932,0.05711365,0.9918671,1.0,-0.120163,0.05358887,0.9913025,-29.73317,-7.982056,-17.94313,6.369858,0.4493180999999999,0.7293658000000001,1.0,-0.09977722,0.06466675,0.9929047,36.922,-7.545669999999999,-19.77321,6.62355,0.3744714,0.7353708000000001,-0.197121,1.214336,-0.0709188,0.00131048,0.7049251,-0.002486012,5.070636,1.6433368870411234,32.724343029087265
0,-0.1177979,0.05532837,0.9914856,1.0,-0.1180267,0.05517578,0.9914703,-29.72731,-8.009689,-17.87154,6.369781,0.4488251,0.7292583,1.0,-0.1110535,0.05944824,0.9920197,37.00516,-7.787857000000001,-18.96077,6.63736,0.374115,0.735517,-0.1972452,1.214392,-0.07095861,0.001199151,0.7050945,-0.002359149,5.070636,-7.603733,32.724343029087265
0,-0.1177979,0.05532837,0.9914856,1.0,-0.1180267,0.05517578,0.9914703,-29.72731,-8.009689,-17.87154,6.369781,0.4488251,0.7292583,1.0,-0.1110535,0.05944824,0.9920197,37.00516,-7.787857000000001,-18.96077,6.63736,0.374115,0.735517,-0.1972452,1.214392,-0.07095861,0.001199151,0.7050945,-0.002359149,5.070636,-7.603733,32.724343029087265
0,-0.1177979,0.05532837,0.9914856,1.0,-0.1180267,0.05517578,0.9914703,-29.72731,-8.009689,-17.87154,6.369781,0.4488251,0.7292583,1.0,-0.1110535,0.05944824,0.9920197,37.00516,-7.787857000000001,-18.96077,6.63736,0.374115,0.735517,-0.1972452,1.214392,-0.07095861,0.001199151,0.7050945,-0.002359149,5.070636,-7.603733,32.724343029087265
0,-0.1182404,0.05311584,0.9915619,1.0,-0.1182404,0.05311584,0.9915619,-29.7231,-8.013596000000001,-17.85765,6.372696,0.4487193,0.7295550999999999,1.0,-0.1091156,0.0561675999999999,0.9924316,37.01103,-7.787857000000001,-18.96077,6.634155000000001,0.373768,0.7357811,-0.1973112,1.214408,-0.07107329,0.0009879404,0.7054186,-0.002109027,5.070636,-7.603733,32.724343029087265
0,-0.1182404,0.05311584,0.9915619,1.0,-0.1182404,0.05311584,0.9915619,-29.7231,-8.013596000000001,-17.85765,6.372696,0.4487193,0.7295550999999999,1.0,-0.1091156,0.0561675999999999,0.9924316,37.01103,-7.787857000000001,-18.96077,6.634155000000001,0.373768,0.7357811,-0.1973112,1.214408,-0.07107329,0.0009879404,0.7054186,-0.002109027,5.070636,-7.603733,32.724343029087265
0,-0.1182404,0.05311584,0.9915619,1.0,-0.1182404,0.05311584,0.9915619,-29.7231,-8.013596000000001,-17.85765,6.372696,0.4487193,0.7295550999999999,1.0,-0.1091156,0.0561675999999999,0.9924316,37.01103,-7.787857000000001,-18.96077,6.634155000000001,0.373768,0.7357811,-0.1973112,1.214408,-0.07107329,0.0009879404,0.7054186,-0.002109027,5.070636,-7.603733,32.724343029087265
0,-0.1186066,0.05621338,0.991333,1.0,-0.1186066,0.05621338,0.991333,-29.71503,-8.021118,-17.85631,6.36734,0.4485332,0.7292995,1.0,-0.09606934,0.06529236,0.9932251,36.96101,-7.651108,-19.55414,6.607132000000001,0.3728209,0.7362768,-0.1973721,1.214435,-0.07117301,0.00109183,0.7058083,-0.00200582,5.070636,-7.603733,32.724343029087265
0,-0.1186066,0.05621338,0.991333,1.0,-0.1186066,0.05621338,0.991333,-29.71503,-8.021118,-17.85631,6.36734,0.4485332,0.7292995,1.0,-0.09606934,0.06529236,0.9932251,36.96101,-7.651108,-19.55414,6.607132000000001,0.3728209,0.7362768,-0.1973721,1.214435,-0.07117301,0.00109183,0.7058083,-0.00200582,5.070636,-7.603733,32.724343029087265
0,-0.1186066,0.05621338,0.991333,1.0,-0.1186066,0.05621338,0.991333,-29.71503,-8.021118,-17.85631,6.36734,0.4485332,0.7292995,1.0,-0.09606934,0.06529236,0.9932251,36.96101,-7.651108,-19.55414,6.607132000000001,0.3728209,0.7362768,-0.1973721,1.214435,-0.07117301,0.00109183,0.7058083,-0.00200582,5.070636,-7.603733,32.724343029087265
0,-0.1186523,0.05731201,0.991272,1.0,-0.1186523,0.05731201,0.991272,-29.71437,-8.021239999999999,-17.85616,6.368149,0.4485222,0.7291376,1.0,-0.09587097,0.06785583,0.9930725,36.96101,-7.651108,-19.55414,6.609329,0.3728022,0.7358728,-0.1975031,1.214485,-0.07129493,0.0010729,0.7062529000000001,-0.001993711,5.070636,-7.603733,32.724343029087265
0,-0.1186523,0.05731201,0.991272,1.0,-0.1186523,0.05731201,0.991272,-29.71437,-8.021239999999999,-17.85616,6.368149,0.4485222,0.7291376,1.0,-0.09587097,0.06785583,0.9930725,36.96101,-7.651108,-19.55414,6.609329,0.3728022,0.7358728,-0.1975031,1.214485,-0.07129493,0.0010729,0.7062529000000001,-0.001993711,5.070636,-7.603733,32.724343029087265
0,-0.1186523,0.05731201,0.991272,1.0,-0.1186523,0.05731201,0.991272,-29.71437,-8.021239999999999,-17.85616,6.368149,0.4485222,0.7291376,1.0,-0.09587097,0.06785583,0.9930725,36.96101,-7.651108,-19.55414,6.609329,0.3728022,0.7358728,-0.1975031,1.214485,-0.07129493,0.0010729,0.7062529000000001,-0.001993711,5.070636,-7.603733,32.724343029087265
0,-0.1044464,0.0592040999999999,0.9927521,1.0,-0.1155089999999999,0.05374146,0.9918365,-29.71013,-8.024704,-17.854570000000002,6.36377,0.4479029,0.7297566999999999,1.0,-0.09194946,0.06535339,0.9936066,36.9689,-7.66333,-19.51469,6.585541,0.3719659999999999,0.7361943,-0.1975132999999999,1.214454,-0.07145196,0.0009475203999999,0.7067266,-0.001967378,5.070636,-7.603733,32.724343029087265
0,-0.1044464,0.0592040999999999,0.9927521,1.0,-0.1155089999999999,0.05374146,0.9918365,-29.71013,-8.024704,-17.854570000000002,6.36377,0.4479029,0.7297566999999999,1.0,-0.09194946,0.06535339,0.9936066,36.9689,-7.66333,-19.51469,6.585541,0.3719659999999999,0.7361943,-0.1975132999999999,1.214454,-0.07145196,0.0009475203999999,0.7067266,-0.001967378,5.070636,-7.603733,32.724343029087265
0,-0.1044464,0.0592040999999999,0.9927521,1.0,-0.1155089999999999,0.05374146,0.9918365,-29.71013,-8.024704,-17.854570000000002,6.36377,0.4479029,0.7297566999999999,1.0,-0.09194946,0.06535339,0.9936066,36.9689,-7.66333,-19.51469,6.585541,0.3719659999999999,0.7361943,-0.1975132999999999,1.214454,-0.07145196,0.0009475203999999,0.7067266,-0.001967378,5.070636,-7.603733,32.724343029087265
0,-0.1048889,0.05996704,0.9926605,1.0,-0.1151123,0.05505371,0.9918213,-29.70332,-8.024155,-17.85631,6.346405,0.4476407999999999,0.7295229,1.0,-0.09268188,0.0657958999999999,0.993515,36.9801,-7.676773,-19.4895,6.581345,0.3717386,0.7362859,-0.1974733,1.214394,-0.07171518,0.0007247522999999,0.7074406,-0.002137974,5.070636,5.460485,32.724343029087265
0,-0.1048889,0.05996704,0.9926605,1.0,-0.1151123,0.05505371,0.9918213,-29.70332,-8.024155,-17.85631,6.346405,0.4476407999999999,0.7295229,1.0,-0.09268188,0.0657958999999999,0.993515,36.9801,-7.676773,-19.4895,6.581345,0.3717386,0.7362859,-0.1974733,1.214394,-0.07171518,0.0007247522999999,0.7074406,-0.002137974,5.070636,5.460485,32.724343029087265
0,-0.1048889,0.05996704,0.9926605,1.0,-0.1151123,0.05505371,0.9918213,-29.70332,-8.024155,-17.85631,6.346405,0.4476407999999999,0.7295229,1.0,-0.09268188,0.0657958999999999,0.993515,36.9801,-7.676773,-19.4895,6.581345,0.3717386,0.7362859,-0.1974733,1.214394,-0.07171518,0.0007247522999999,0.7074406,-0.002137974,5.070636,5.460485,32.724343029087265
0,-0.1670684999999999,0.05192566,0.9845734,1.0,-0.1864318999999999,0.04212952,0.9815521,-30.123690000000003,-8.178131,-17.67621,6.252045,0.4716246,0.7349156,1.0,-0.1431427,0.06394958,0.9876251,36.41927,-7.551071,-20.03661,6.593399000000001,0.3976439,0.7383578000000001,-0.19751,1.214371,-0.07192075,0.0007696239999999,0.7080496000000001,-0.002163952,5.070636,5.460485,32.724343029087265
0,-0.1670684999999999,0.05192566,0.9845734,1.0,-0.1864318999999999,0.04212952,0.9815521,-30.123690000000003,-8.178131,-17.67621,6.252045,0.4716246,0.7349156,1.0,-0.1431427,0.06394958,0.9876251,36.41927,-7.551071,-20.03661,6.593399000000001,0.3976439,0.7383578000000001,-0.19751,1.214371,-0.07192075,0.0007696239999999,0.7080496000000001,-0.002163952,5.070636,5.460485,32.724343029087265
0,-0.1670684999999999,0.05192566,0.9845734,1.0,-0.1864318999999999,0.04212952,0.9815521,-30.123690000000003,-8.178131,-17.67621,6.252045,0.4716246,0.7349156,1.0,-0.1431427,0.06394958,0.9876251,36.41927,-7.551071,-20.03661,6.593399000000001,0.3976439,0.7383578000000001,-0.19751,1.214371,-0.07192075,0.0007696239999999,0.7080496000000001,-0.002163952,5.070636,5.460485,32.724343029087265
0,-0.2104034,0.05079651,0.9762878,1.0,-0.2240601,0.05264282,0.9731445,-30.29536,-8.154099,-17.91631,6.222595,0.4828189,0.7353018,1.0,-0.1855316,0.04743958,0.9814758,36.22037,-7.709152,-19.62663,6.605011,0.4107519,0.7423892,-0.1975792999999999,1.214387,-0.07210314,0.0009533996,0.7085255,-0.0021107929999999,5.070636,5.460485,32.724343029087265
0,-0.2104034,0.05079651,0.9762878,1.0,-0.2240601,0.05264282,0.9731445,-30.29536,-8.154099,-17.91631,6.222595,0.4828189,0.7353018,1.0,-0.1855316,0.04743958,0.9814758,36.22037,-7.709152,-19.62663,6.605011,0.4107519,0.7423892,-0.1975792999999999,1.214387,-0.07210314,0.0009533996,0.7085255,-0.0021107929999999,5.070636,5.460485,32.724343029087265
0,-0.2104034,0.05079651,0.9762878,1.0,-0.2240601,0.05264282,0.9731445,-30.29536,-8.154099,-17.91631,6.222595,0.4828189,0.7353018,1.0,-0.1855316,0.04743958,0.9814758,36.22037,-7.709152,-19.62663,6.605011,0.4107519,0.7423892,-0.1975792999999999,1.214387,-0.07210314,0.0009533996,0.7085255,-0.0021107929999999,5.070636,5.460485,32.724343029087265
0,-0.2558288999999999,0.05705261,0.9650269,1.0,-0.2781067,0.06669617,0.9582214,-30.4606,-8.243195,-18.07445,6.179474,0.4964515,0.7381284,1.0,-0.2312622,0.04646301,0.9717712,36.02888,-7.755783,-19.64998,6.588348,0.4242314,0.744563,-0.1975986,1.214385,-0.07230407,0.0007958011,0.7090944,-0.0019739939999999,5.070636,5.460485,32.724343029087265
0,-0.2558288999999999,0.05705261,0.9650269,1.0,-0.2781067,0.06669617,0.9582214,-30.4606,-8.243195,-18.07445,6.179474,0.4964515,0.7381284,1.0,-0.2312622,0.04646301,0.9717712,36.02888,-7.755783,-19.64998,6.588348,0.4242314,0.744563,-0.1975986,1.214385,-0.07230407,0.0007958011,0.7090944,-0.0019739939999999,5.070636,5.460485,32.724343029087265
0,-0.2558288999999999,0.05705261,0.9650269,1.0,-0.2781067,0.06669617,0.9582214,-30.4606,-8.243195,-18.07445,6.179474,0.4964515,0.7381284,1.0,-0.2312622,0.04646301,0.9717712,36.02888,-7.755783,-19.64998,6.588348,0.4242314,0.744563,-0.1975986,1.214385,-0.07230407,0.0007958011,0.7090944,-0.0019739939999999,5.070636,5.460485,32.724343029087265
0,-0.2486267,0.05348206,0.9671173,1.0,-0.2725067,0.07150269,0.9594879,-30.46524,-8.239272999999999,-18.07182,6.204086,0.4957321,0.7371895,1.0,-0.2350922,0.0433196999999999,0.970993,36.04938,-7.754500999999999,-19.64928,6.490355999999999,0.4242314,0.7449093000000001,-0.1975651,1.214432,-0.07244512,0.0006713867999999,0.7093651999999999,-0.001733871,5.070636,5.460485,32.724343029087265
0,-0.2486267,0.05348206,0.9671173,1.0,-0.2725067,0.07150269,0.9594879,-30.46524,-8.239272999999999,-18.07182,6.204086,0.4957321,0.7371895,1.0,-0.2350922,0.0433196999999999,0.970993,36.04938,-7.754500999999999,-19.64928,6.490355999999999,0.4242314,0.7449093000000001,-0.1975651,1.214432,-0.07244512,0.0006713867999999,0.7093651999999999,-0.001733871,5.070636,5.460485,32.724343029087265
0,-0.2486267,0.05348206,0.9671173,1.0,-0.2725067,0.07150269,0.9594879,-30.46524,-8.239272999999999,-18.07182,6.204086,0.4957321,0.7371895,1.0,-0.2350922,0.0433196999999999,0.970993,36.04938,-7.754500999999999,-19.64928,6.490355999999999,0.4242314,0.7449093000000001,-0.1975651,1.214432,-0.07244512,0.0006713867999999,0.7093651999999999,-0.001733871,5.070636,5.460485,32.724343029087265
0,-0.2481537,0.05065918,0.9673767,1.0,-0.2669829999999999,0.05958557,0.961853,-30.46585,-8.204436999999999,-18.04051,6.142273,0.4948781,0.7374768,1.0,-0.2331389999999999,0.04356384,0.9714508,36.06081,-7.749207000000001,-19.650270000000003,6.47966,0.4235605999999999,0.7446776999999999,-0.1975366,1.214662,-0.07270324,6.103516e-05,0.7100837,-0.001590431,5.070636,-1.878714,32.724343029087265
0,-0.2481537,0.05065918,0.9673767,1.0,-0.2669829999999999,0.05958557,0.961853,-30.46585,-8.204436999999999,-18.04051,6.142273,0.4948781,0.7374768,1.0,-0.2331389999999999,0.04356384,0.9714508,36.06081,-7.749207000000001,-19.650270000000003,6.47966,0.4235605999999999,0.7446776999999999,-0.1975366,1.214662,-0.07270324,6.103516e-05,0.7100837,-0.001590431,5.070636,-1.878714,32.724343029087265
0,-0.2481537,0.05065918,0.9673767,1.0,-0.2669829999999999,0.05958557,0.961853,-30.46585,-8.204436999999999,-18.04051,6.142273,0.4948781,0.7374768,1.0,-0.2331389999999999,0.04356384,0.9714508,36.06081,-7.749207000000001,-19.650270000000003,6.47966,0.4235605999999999,0.7446776999999999,-0.1975366,1.214662,-0.07270324,6.103516e-05,0.7100837,-0.001590431,5.070636,-1.878714,32.724343029087265
0,-0.2429962,0.05116272,0.9686584,1.0,-0.2634735,0.05827332,0.9628906,-30.46396,-8.205322,-18.0313,6.066315,0.4943109,0.7374679,1.0,-0.2249451,0.04490662,0.9733276,36.07373,-7.749191000000001,-19.65443,6.416763,0.421892,0.744341,-0.1975411,1.214719,-0.07278949,-0.0003343033,0.7104406999999999,-0.001283191,5.070636,-1.878714,32.724343029087265
0,-0.2429962,0.05116272,0.9686584,1.0,-0.2634735,0.05827332,0.9628906,-30.46396,-8.205322,-18.0313,6.066315,0.4943109,0.7374679,1.0,-0.2249451,0.04490662,0.9733276,36.07373,-7.749191000000001,-19.65443,6.416763,0.421892,0.744341,-0.1975411,1.214719,-0.07278949,-0.0003343033,0.7104406999999999,-0.001283191,5.070636,-1.878714,32.724343029087265
0,-0.2429962,0.05116272,0.9686584,1.0,-0.2634735,0.05827332,0.9628906,-30.46396,-8.205322,-18.0313,6.066315,0.4943109,0.7374679,1.0,-0.2249451,0.04490662,0.9733276,36.07373,-7.749191000000001,-19.65443,6.416763,0.421892,0.744341,-0.1975411,1.214719,-0.07278949,-0.0003343033,0.7104406999999999,-0.001283191,5.070636,-1.878714,32.724343029087265
0,-0.2386169,0.05137634,0.9697418,1.0,-0.258667,0.05776978,0.9642334,-30.46037,-8.205322,-18.02904,6.059341000000001,0.4934555999999999,0.7374679,1.0,-0.2188263,0.04508972,0.9747162,36.07373,-7.749191000000001,-19.65443,6.388947,0.4209434,0.7442273,-0.1976087,1.214753,-0.07295427,-0.0004920812,0.7108011,-0.0009746533,5.070636,-1.878714,33.27
0,-0.2386169,0.05137634,0.9697418,1.0,-0.258667,0.05776978,0.9642334,-30.46037,-8.205322,-18.02904,6.059341000000001,0.4934555999999999,0.7374679,1.0,-0.2188263,0.04508972,0.9747162,36.07373,-7.749191000000001,-19.65443,6.388947,0.4209434,0.7442273,-0.1976087,1.214753,-0.07295427,-0.0004920812,0.7108011,-0.0009746533,5.070636,-1.878714,33.27
0,-0.2386169,0.05137634,0.9697418,1.0,-0.258667,0.05776978,0.9642334,-30.46037,-8.205322,-18.02904,6.059341000000001,0.4934555999999999,0.7374679,1.0,-0.2188263,0.04508972,0.9747162,36.07373,-7.749191000000001,-19.65443,6.388947,0.4209434,0.7442273,-0.1976087,1.214753,-0.07295427,-0.0004920812,0.7108011,-0.0009746533,5.070636,-1.878714,33.27
0,-0.2375946,0.0511321999999999,0.9700165,1.0,-0.2581482,0.05752563,0.964386,-30.45856,-8.205322,-18.0262,6.056183,0.4933186,0.7374679,1.0,-0.2173614999999999,0.04484558,0.9750519,36.07373,-7.749191000000001,-19.65443,6.374084,0.420718,0.7442273,-0.1976483,1.214721,-0.0730767,-0.0005250443,0.7110704000000001,-0.0009572989999999,5.070636,-1.878714,33.27
0,-0.2375946,0.0511321999999999,0.9700165,1.0,-0.2581482,0.05752563,0.964386,-30.45856,-8.205322,-18.0262,6.056183,0.4933186,0.7374679,1.0,-0.2173614999999999,0.04484558,0.9750519,36.07373,-7.749191000000001,-19.65443,6.374084,0.420718,0.7442273,-0.1976483,1.214721,-0.0730767,-0.0005250443,0.7110704000000001,-0.0009572989999999,5.070636,-1.878714,33.27
0,-0.2375946,0.0511321999999999,0.9700165,1.0,-0.2581482,0.05752563,0.964386,-30.45856,-8.205322,-18.0262,6.056183,0.4933186,0.7374679,1.0,-0.2173614999999999,0.04484558,0.9750519,36.07373,-7.749191000000001,-19.65443,6.374084,0.420718,0.7442273,-0.1976483,1.214721,-0.0730767,-0.0005250443,0.7110704000000001,-0.0009572989999999,5.070636,-1.878714,33.27
0,-0.2327881,0.03494263,0.9718933,1.0,-0.2563629,0.04310608,0.9656067,-30.45059,-8.154053,-17.97145,6.026794000000001,0.4927516999999999,0.7374679,1.0,-0.2142487,0.02853394,0.9763489,36.06787,-7.678864,-19.64262,6.347305,0.4203893,0.744341,-0.1976411,1.214639,-0.07307711,-0.0006103516,0.7113925999999999,-0.0008886853,5.070636,-1.878714,33.27
0,-0.2327881,0.03494263,0.9718933,1.0,-0.2563629,0.04310608,0.9656067,-30.45059,-8.154053,-17.97145,6.026794000000001,0.4927516999999999,0.7374679,1.0,-0.2142487,0.02853394,0.9763489,36.06787,-7.678864,-19.64262,6.347305,0.4203893,0.744341,-0.1976411,1.214639,-0.07307711,-0.0006103516,0.7113925999999999,-0.0008886853,5.070636,-1.878714,33.27
0,-0.2327881,0.03494263,0.9718933,1.0,-0.2563629,0.04310608,0.9656067,-30.45059,-8.154053,-17.97145,6.026794000000001,0.4927516999999999,0.7374679,1.0,-0.2142487,0.02853394,0.9763489,36.06787,-7.678864,-19.64262,6.347305,0.4203893,0.744341,-0.1976411,1.214639,-0.07307711,-0.0006103516,0.7113925999999999,-0.0008886853,5.070636,-1.878714,33.27
0,-0.2321777,0.03123474,0.972168,1.0,-0.255722,0.03756714,0.9660034,-30.4438,-8.154053,-17.96835,6.008438,0.4924278,0.7382765,1.0,-0.2130432,0.02610779,0.9766846,36.06787,-7.675567999999999,-19.64262,6.337769000000001,0.4201935,0.7446130999999999,-0.197647,1.2147139999999998,-0.07323641,-0.0007143982,0.7119239,-0.0008256683,5.070636,-1.878714,33.27
0,-0.2321777,0.03123474,0.972168,1.0,-0.255722,0.03756714,0.9660034,-30.4438,-8.154053,-17.96835,6.008438,0.4924278,0.7382765,1.0,-0.2130432,0.02610779,0.9766846,36.06787,-7.675567999999999,-19.64262,6.337769000000001,0.4201935,0.7446130999999999,-0.197647,1.2147139999999998,-0.07323641,-0.0007143982,0.7119239,-0.0008256683,5.070636,-1.878714,33.27
0,-0.2321777,0.03123474,0.972168,1.0,-0.255722,0.03756714,0.9660034,-30.4438,-8.154053,-17.96835,6.008438,0.4924278,0.7382765,1.0,-0.2130432,0.02610779,0.9766846,36.06787,-7.675567999999999,-19.64262,6.337769000000001,0.4201935,0.7446130999999999,-0.197647,1.2147139999999998,-0.07323641,-0.0007143982,0.7119239,-0.0008256683,5.070636,0.7294855,33.27
0,-0.233429,0.0297699,0.9719086,1.0,-0.2568665,0.03482056,0.9658051,-30.429640000000003,-8.159821,-17.96005,5.979935,0.4921645,0.7387716,1.0,-0.2105255,0.02484131,0.9772644,36.07323,-7.674194,-19.64551,6.318756,0.419628,0.744751,-0.1977017999999999,1.214835,-0.07329744,-0.0004920812,0.7123269,-0.0009592428,5.070636,4.311452,33.27
0,-0.233429,0.0297699,0.9719086,1.0,-0.2568665,0.03482056,0.9658051,-30.429640000000003,-8.159821,-17.96005,5.979935,0.4921645,0.7387716,1.0,-0.2105255,0.02484131,0.9772644,36.07323,-7.674194,-19.64551,6.318756,0.419628,0.744751,-0.1977017999999999,1.214835,-0.07329744,-0.0004920812,0.7123269,-0.0009592428,5.070636,4.311452,33.27
0,-0.233429,0.0297699,0.9719086,1.0,-0.2568665,0.03482056,0.9658051,-30.429640000000003,-8.159821,-17.96005,5.979935,0.4921645,0.7387716,1.0,-0.2105255,0.02484131,0.9772644,36.07323,-7.674194,-19.64551,6.318756,0.419628,0.744751,-0.1977017999999999,1.214835,-0.07329744,-0.0004920812,0.7123269,-0.0009592428,5.070636,4.311452,33.27
0,-0.2308655,0.02645874,0.9726105,1.0,-0.2533569,0.03053284,0.9668732,-30.42326,-8.165848,-17.94121,5.948425,0.4914237,0.739368,1.0,-0.2094116,0.02258301,0.9775543,36.077090000000005,-7.671326,-19.64876,6.332443,0.4193017,0.7450659000000001,-0.1977845,1.214884,-0.07343641,-0.0004648298999999,0.7128288,-0.0008588408,5.070636,4.311452,33.27
0,-0.2308655,0.02645874,0.9726105,1.0,-0.2533569,0.03053284,0.9668732,-30.42326,-8.165848,-17.94121,5.948425,0.4914237,0.739368,1.0,-0.2094116,0.02258301,0.9775543,36.077090000000005,-7.671326,-19.64876,6.332443,0.4193017,0.7450659000000001,-0.1977845,1.214884,-0.07343641,-0.0004648298999999,0.7128288,-0.0008588408,5.070636,4.311452,33.27
0,-0.2308655,0.02645874,0.9726105,1.0,-0.2533569,0.03053284,0.9668732,-30.42326,-8.165848,-17.94121,5.948425,0.4914237,0.739368,1.0,-0.2094116,0.02258301,0.9775543,36.077090000000005,-7.671326,-19.64876,6.332443,0.4193017,0.7450659000000001,-0.1977845,1.214884,-0.07343641,-0.0004648298999999,0.7128288,-0.0008588408,5.070636,4.311452,33.27
0,-0.236969,0.01829529,0.971344,1.0,-0.2515106,0.02592468,0.9674988,-30.581540000000004,-8.257233,-17.9756,5.976883,0.4960581,0.7433859,1.0,-0.2262573,0.01271057,0.9739685,35.987140000000004,-7.737946000000001,-19.67525,6.399323000000001,0.4247501,0.7493864,-0.1977668,1.214933,-0.07358974,-0.0008143105999999,0.7129883,-0.0006401421,5.070636,4.311452,33.27
0,-0.236969,0.01829529,0.971344,1.0,-0.2515106,0.02592468,0.9674988,-30.581540000000004,-8.257233,-17.9756,5.976883,0.4960581,0.7433859,1.0,-0.2262573,0.01271057,0.9739685,35.987140000000004,-7.737946000000001,-19.67525,6.399323000000001,0.4247501,0.7493864,-0.1977668,1.214933,-0.07358974,-0.0008143105999999,0.7129883,-0.0006401421,5.070636,4.311452,33.27
0,-0.236969,0.01829529,0.971344,1.0,-0.2515106,0.02592468,0.9674988,-30.581540000000004,-8.257233,-17.9756,5.976883,0.4960581,0.7433859,1.0,-0.2262573,0.01271057,0.9739685,35.987140000000004,-7.737946000000001,-19.67525,6.399323000000001,0.4247501,0.7493864,-0.1977668,1.214933,-0.07358974,-0.0008143105999999,0.7129883,-0.0006401421,5.070636,4.311452,33.27
0,-0.3225098,0.006469727,0.9465332,1.0,-0.3386993,-0.004394531,0.9408722,-30.80647,-8.353607,-18.07631,6.083878,0.5165615,0.7536625,1.0,-0.3058929,0.01753235,0.951889,35.668620000000004,-7.938095,-19.80002,6.375977,0.44772,0.7574964,-0.1979023,1.21504,-0.07353395,-0.001120457,0.7133254,-0.0003398294,5.070636,4.311452,33.27
0,-0.3225098,0.006469727,0.9465332,1.0,-0.3386993,-0.004394531,0.9408722,-30.80647,-8.353607,-18.07631,6.083878,0.5165615,0.7536625,1.0,-0.3058929,0.01753235,0.951889,35.668620000000004,-7.938095,-19.80002,6.375977,0.44772,0.7574964,-0.1979023,1.21504,-0.07353395,-0.001120457,0.7133254,-0.0003398294,5.070636,4.311452,33.27
0,-0.3225098,0.006469727,0.9465332,1.0,-0.3386993,-0.004394531,0.9408722,-30.80647,-8.353607,-18.07631,6.083878,0.5165615,0.7536625,1.0,-0.3058929,0.01753235,0.951889,35.668620000000004,-7.938095,-19.80002,6.375977,0.44772,0.7574964,-0.1979023,1.21504,-0.07353395,-0.001120457,0.7133254,-0.0003398294,5.070636,4.311452,33.27
1,-0.3174132999999999,0.006134033,0.9482574,1.0,-0.3352966,-0.008926392,0.9420624,-30.84465,-8.308563000000001,-18.06053,6.044601,0.5172315,0.752676,1.0,-0.3022460999999999,0.01878357,0.9530334,35.68178,-7.946213,-19.79994,6.385712,0.4467001,0.7575253000000001,-0.1980634,1.215083,-0.07379925,-0.001338606,0.7141742,0.0003398294,5.070636,-4.634109,33.27
1,-0.3174132999999999,0.006134033,0.9482574,1.0,-0.3352966,-0.008926392,0.9420624,-30.84465,-8.308563000000001,-18.06053,6.044601,0.5172315,0.752676,1.0,-0.3022460999999999,0.01878357,0.9530334,35.68178,-7.946213,-19.79994,6.385712,0.4467001,0.7575253000000001,-0.1980634,1.215083,-0.07379925,-0.001338606,0.7141742,0.0003398294,5.070636,-4.634109,33.27
1,-0.3174132999999999,0.006134033,0.9482574,1.0,-0.3352966,-0.008926392,0.9420624,-30.84465,-8.308563000000001,-18.06053,6.044601,0.5172315,0.752676,1.0,-0.3022460999999999,0.01878357,0.9530334,35.68178,-7.946213,-19.79994,6.385712,0.4467001,0.7575253000000001,-0.1980634,1.215083,-0.07379925,-0.001338606,0.7141742,0.0003398294,5.070636,-4.634109,33.27
1,-0.3128662,0.0005950928,0.9497833,1.0,-0.3341827,-0.008361816,0.9424591,-30.84532,-8.312134,-18.05919,6.044128,0.5170799,0.752676,1.0,-0.2964172,0.0074768069999999,0.9550171,35.65637,-7.895721000000001,-19.78731,6.329422,0.4465958,0.7574095999999999,-0.1982992999999999,1.215256,-0.07418936,-0.00114837,0.7153517,0.0006630115,5.070636,-4.634109,33.27
1,-0.3128662,0.0005950928,0.9497833,1.0,-0.3341827,-0.008361816,0.9424591,-30.84532,-8.312134,-18.05919,6.044128,0.5170799,0.752676,1.0,-0.2964172,0.0074768069999999,0.9550171,35.65637,-7.895721000000001,-19.78731,6.329422,0.4465958,0.7574095999999999,-0.1982992999999999,1.215256,-0.07418936,-0.00114837,0.7153517,0.0006630115,5.070636,-4.634109,33.27
1,-0.3128662,0.0005950928,0.9497833,1.0,-0.3341827,-0.008361816,0.9424591,-30.84532,-8.312134,-18.05919,6.044128,0.5170799,0.752676,1.0,-0.2964172,0.0074768069999999,0.9550171,35.65637,-7.895721000000001,-19.78731,6.329422,0.4465958,0.7574095999999999,-0.1982992999999999,1.215256,-0.07418936,-0.00114837,0.7153517,0.0006630115,5.070636,-4.634109,33.27
1,-0.3119507,-0.004547119,0.9500732,1.0,-0.3309174,-0.007995605,0.9436188,-30.84413,-8.312636999999999,-18.05898,6.057281,0.5165215,0.752591,1.0,-0.2951508,-0.001525879,0.9554443,35.651140000000005,-7.856705000000001,-19.77704,6.351181,0.4465132,0.7574964,-0.1984394,1.215302,-0.07446271,-0.001283191,0.7164251,0.0008051089999999,5.070636,-4.634109,33.27
1,-0.3119507,-0.004547119,0.9500732,1.0,-0.3309174,-0.007995605,0.9436188,-30.84413,-8.312636999999999,-18.05898,6.057281,0.5165215,0.752591,1.0,-0.2951508,-0.001525879,0.9554443,35.651140000000005,-7.856705000000001,-19.77704,6.351181,0.4465132,0.7574964,-0.1984394,1.215302,-0.07446271,-0.001283191,0.7164251,0.0008051089999999,5.070636,-4.634109,33.27
1,-0.3119507,-0.004547119,0.9500732,1.0,-0.3309174,-0.007995605,0.9436188,-30.84413,-8.312636999999999,-18.05898,6.057281,0.5165215,0.752591,1.0,-0.2951508,-0.001525879,0.9554443,35.651140000000005,-7.856705000000001,-19.77704,6.351181,0.4465132,0.7574964,-0.1984394,1.215302,-0.07446271,-0.001283191,0.7164251,0.0008051089999999,5.070636,-4.634109,33.27
1,-0.3076477,-0.005661011,0.9514771,1.0,-0.3262939,-0.008666992,0.9452209,-30.84305,-8.312958,-18.05879,6.038452,0.5157719,0.7526132,1.0,-0.2895813,-0.0027618409999999,0.9571381,35.6515,-7.856705000000001,-19.77644,6.349823000000001,0.4456044,0.7576139000000001,-0.198447,1.215319,-0.07479858,-0.001560878,0.7173944999999999,0.001010312,5.397376,-4.634109,33.27
1,-0.3076477,-0.005661011,0.9514771,1.0,-0.3262939,-0.008666992,0.9452209,-30.84305,-8.312958,-18.05879,6.038452,0.5157719,0.7526132,1.0,-0.2895813,-0.0027618409999999,0.9571381,35.6515,-7.856705000000001,-19.77644,6.349823000000001,0.4456044,0.7576139000000001,-0.198447,1.215319,-0.07479858,-0.001560878,0.7173944999999999,0.001010312,5.397376,-4.634109,33.27
1,-0.3076477,-0.005661011,0.9514771,1.0,-0.3262939,-0.008666992,0.9452209,-30.84305,-8.312958,-18.05879,6.038452,0.5157719,0.7526132,1.0,-0.2895813,-0.0027618409999999,0.9571381,35.6515,-7.856705000000001,-19.77644,6.349823000000001,0.4456044,0.7576139000000001,-0.198447,1.215319,-0.07479858,-0.001560878,0.7173944999999999,0.001010312,5.397376,-4.634109,33.27
1,-0.2985229,-0.006088257,0.9543762,1.0,-0.3203278,-0.009017944,0.9472504,-30.84032,-8.312729,-18.05017,6.06543,0.5147262,0.7525059000000001,1.0,-0.279541,-0.0035552979999999,0.9601135,35.65567,-7.856705000000001,-19.77513,6.362076,0.4438474,0.7576161,-0.1986263,1.215283,-0.07506993,-0.001968325,0.7181356,0.001006618,5.397376,-4.634109,33.27
1,-0.2985229,-0.006088257,0.9543762,1.0,-0.3203278,-0.009017944,0.9472504,-30.84032,-8.312729,-18.05017,6.06543,0.5147262,0.7525059000000001,1.0,-0.279541,-0.0035552979999999,0.9601135,35.65567,-7.856705000000001,-19.77513,6.362076,0.4438474,0.7576161,-0.1986263,1.215283,-0.07506993,-0.001968325,0.7181356,0.001006618,5.397376,-4.634109,33.27
1,-0.2985229,-0.006088257,0.9543762,1.0,-0.3203278,-0.009017944,0.9472504,-30.84032,-8.312729,-18.05017,6.06543,0.5147262,0.7525059000000001,1.0,-0.279541,-0.0035552979999999,0.9601135,35.65567,-7.856705000000001,-19.77513,6.362076,0.4438474,0.7576161,-0.1986263,1.215283,-0.07506993,-0.001968325,0.7181356,0.001006618,5.397376,-4.634109,33.27
1,-0.2922974,-0.004592896,0.9563141,1.0,-0.3168488,-0.005249023,0.9484558,-30.83041,-8.312729,-18.04425,6.071274,0.51388,0.7518003000000001,1.0,-0.2708893,-0.003997803,0.9626007,35.66718,-7.859512,-19.773770000000003,6.361633,0.4420867,0.7576501,-0.1986653,1.215319,-0.07522899,-0.002146668,0.7186911,0.0007195939,5.397376,4.354904,33.27
1,-0.2922974,-0.004592896,0.9563141,1.0,-0.3168488,-0.005249023,0.9484558,-30.83041,-8.312729,-18.04425,6.071274,0.51388,0.7518003000000001,1.0,-0.2708893,-0.003997803,0.9626007,35.66718,-7.859512,-19.773770000000003,6.361633,0.4420867,0.7576501,-0.1986653,1.215319,-0.07522899,-0.002146668,0.7186911,0.0007195939,5.397376,4.354904,33.27
1,-0.2922974,-0.004592896,0.9563141,1.0,-0.3168488,-0.005249023,0.9484558,-30.83041,-8.312729,-18.04425,6.071274,0.51388,0.7518003000000001,1.0,-0.2708893,-0.003997803,0.9626007,35.66718,-7.859512,-19.773770000000003,6.361633,0.4420867,0.7576501,-0.1986653,1.215319,-0.07522899,-0.002146668,0.7186911,0.0007195939,5.397376,4.354904,33.27
1,-0.1865082,0.08621216,0.978653,1.0,-0.2005767999999999,0.08683777,0.9758148,-30.10828,-7.894913000000001,-17.71542,6.049271,0.4736055,0.7193159,1.0,-0.1768494,0.08576965,0.980484,36.31181,-7.337677,-19.93858,6.416138,0.4067336,0.7270310999999999,-0.1986908,1.215459,-0.07549208,-0.0029086309999999,0.7190046999999999,0.001246373,5.397376,4.354904,33.27
1,-0.1865082,0.08621216,0.978653,1.0,-0.2005767999999999,0.08683777,0.9758148,-30.10828,-7.894913000000001,-17.71542,6.049271,0.4736055,0.7193159,1.0,-0.1768494,0.08576965,0.980484,36.31181,-7.337677,-19.93858,6.416138,0.4067336,0.7270310999999999,-0.1986908,1.215459,-0.07549208,-0.0029086309999999,0.7190046999999999,0.001246373,5.397376,4.354904,33.27
1,-0.1865082,0.08621216,0.978653,1.0,-0.2005767999999999,0.08683777,0.9758148,-30.10828,-7.894913000000001,-17.71542,6.049271,0.4736055,0.7193159,1.0,-0.1768494,0.08576965,0.980484,36.31181,-7.337677,-19.93858,6.416138,0.4067336,0.7270310999999999,-0.1986908,1.215459,-0.07549208,-0.0029086309999999,0.7190046999999999,0.001246373,5.397376,4.354904,33.27
1,-0.1854247999999999,0.08430481,0.9790192,1.0,-0.1982573999999999,0.08590698,0.9763641,-30.124370000000003,-7.891311999999999,-17.73189,6.049347,0.473751,0.7194988,1.0,-0.1747437,0.08297729,0.9810944,36.31569,-7.344482000000001,-19.93956,6.399399,0.4062700999999999,0.7276640999999999,-0.1987215,1.215576,-0.07563567,-0.0035958979999999,0.7193189999999999,0.001172447,5.397376,4.354904,33.27
1,-0.1854247999999999,0.08430481,0.9790192,1.0,-0.1982573999999999,0.08590698,0.9763641,-30.124370000000003,-7.891311999999999,-17.73189,6.049347,0.473751,0.7194988,1.0,-0.1747437,0.08297729,0.9810944,36.31569,-7.344482000000001,-19.93956,6.399399,0.4062700999999999,0.7276640999999999,-0.1987215,1.215576,-0.07563567,-0.0035958979999999,0.7193189999999999,0.001172447,5.397376,4.354904,33.27
1,-0.1854247999999999,0.08430481,0.9790192,1.0,-0.1982573999999999,0.08590698,0.9763641,-30.124370000000003,-7.891311999999999,-17.73189,6.049347,0.473751,0.7194988,1.0,-0.1747437,0.08297729,0.9810944,36.31569,-7.344482000000001,-19.93956,6.399399,0.4062700999999999,0.7276640999999999,-0.1987215,1.215576,-0.07563567,-0.0035958979999999,0.7193189999999999,0.001172447,5.397376,4.354904,33.27
1,-0.1875916,0.08221436,0.9787903,1.0,-0.1990662,0.08508301,0.9762726,-30.13255,-7.889938000000001,-17.72971,6.094925,0.4741047,0.7196319999999999,1.0,-0.1754302999999999,0.0791626,0.9812927,36.32431,-7.339614999999999,-19.95409,6.395264,0.4060702,0.7282675000000001,-0.1987442,1.21571,-0.07583645,-0.004418625,0.7195413,0.001493803,5.397376,4.354904,33.27
1,-0.1875916,0.08221436,0.9787903,1.0,-0.1990662,0.08508301,0.9762726,-30.13255,-7.889938000000001,-17.72971,6.094925,0.4741047,0.7196319999999999,1.0,-0.1754302999999999,0.0791626,0.9812927,36.32431,-7.339614999999999,-19.95409,6.395264,0.4060702,0.7282675000000001,-0.1987442,1.21571,-0.07583645,-0.004418625,0.7195413,0.001493803,5.397376,4.354904,33.27
1,-0.1875916,0.08221436,0.9787903,1.0,-0.1990662,0.08508301,0.9762726,-30.13255,-7.889938000000001,-17.72971,6.094925,0.4741047,0.7196319999999999,1.0,-0.1754302999999999,0.0791626,0.9812927,36.32431,-7.339614999999999,-19.95409,6.395264,0.4060702,0.7282675000000001,-0.1987442,1.21571,-0.07583645,-0.004418625,0.7195413,0.001493803,5.397376,4.354904,33.27
1,-0.1894836,0.08178711,0.9784546,1.0,-0.2032318,0.0831604,0.9755859,-30.12915,-7.884597999999999,-17.72083,6.095505,0.474631,0.7197013000000001,1.0,-0.1752167,0.08036804,0.9812317,36.33331,-7.342361,-19.9624,6.410263,0.4057319,0.7282823,-0.1988611,1.215782,-0.07592964,-0.004573973,0.7197051999999999,0.002071602,5.397376,4.354904,33.27
1,-0.1894836,0.08178711,0.9784546,1.0,-0.2032318,0.0831604,0.9755859,-30.12915,-7.884597999999999,-17.72083,6.095505,0.474631,0.7197013000000001,1.0,-0.1752167,0.08036804,0.9812317,36.33331,-7.342361,-19.9624,6.410263,0.4057319,0.7282823,-0.1988611,1.215782,-0.07592964,-0.004573973,0.7197051999999999,0.002071602,5.397376,4.354904,33.27
1,-0.1894836,0.08178711,0.9784546,1.0,-0.2032318,0.0831604,0.9755859,-30.12915,-7.884597999999999,-17.72083,6.095505,0.474631,0.7197013000000001,1.0,-0.1752167,0.08036804,0.9812317,36.33331,-7.342361,-19.9624,6.410263,0.4057319,0.7282823,-0.1988611,1.215782,-0.07592964,-0.004573973,0.7197051999999999,0.002071602,5.397376,4.354904,33.27
1,-0.1888885,0.07820129,0.9788666,1.0,-0.2040558,0.07623291,0.9759827,-30.042890000000003,-7.752075,-17.64343,6.176147,0.4720184,0.7159044,1.0,-0.1752167,0.07995605,0.9812622,36.34242,-7.339614999999999,-19.96465,6.409851000000001,0.4054332,0.7282823,-0.1987494,1.21595,-0.07602176,-0.0050293859999999,0.7198187,0.002625222,5.397376,-0.01118541,33.27
1,-0.1888885,0.07820129,0.9788666,1.0,-0.2040558,0.07623291,0.9759827,-30.042890000000003,-7.752075,-17.64343,6.176147,0.4720184,0.7159044,1.0,-0.1752167,0.07995605,0.9812622,36.34242,-7.339614999999999,-19.96465,6.409851000000001,0.4054332,0.7282823,-0.1987494,1.21595,-0.07602176,-0.0050293859999999,0.7198187,0.002625222,5.397376,-0.01118541,33.27
1,-0.1888885,0.07820129,0.9788666,1.0,-0.2040558,0.07623291,0.9759827,-30.042890000000003,-7.752075,-17.64343,6.176147,0.4720184,0.7159044,1.0,-0.1752167,0.07995605,0.9812622,36.34242,-7.339614999999999,-19.96465,6.409851000000001,0.4054332,0.7282823,-0.1987494,1.21595,-0.07602176,-0.0050293859999999,0.7198187,0.002625222,5.397376,-0.01118541,33.27
1,-0.1885833999999999,0.1530303999999999,0.970047,1.0,-0.1893921,0.1517029,0.970108,-29.90323,-7.183456,-17.77571,6.160599,0.4657813,0.6877006,1.0,-0.1671143,0.1882782,0.9677886999999998,36.49306,-6.756775,-19.7738,6.46283,0.4001929,0.6901440999999999,-0.1986394,1.216136,-0.07607168,-0.005626171,0.7199234,0.0031638359999999,5.397376,-0.01118541,33.27
1,-0.1885833999999999,0.1530303999999999,0.970047,1.0,-0.1893921,0.1517029,0.970108,-29.90323,-7.183456,-17.77571,6.160599,0.4657813,0.6877006,1.0,-0.1671143,0.1882782,0.9677886999999998,36.49306,-6.756775,-19.7738,6.46283,0.4001929,0.6901440999999999,-0.1986394,1.216136,-0.07607168,-0.005626171,0.7199234,0.0031638359999999,5.397376,-0.01118541,33.27
1,-0.1885833999999999,0.1530303999999999,0.970047,1.0,-0.1893921,0.1517029,0.970108,-29.90323,-7.183456,-17.77571,6.160599,0.4657813,0.6877006,1.0,-0.1671143,0.1882782,0.9677886999999998,36.49306,-6.756775,-19.7738,6.46283,0.4001929,0.6901440999999999,-0.1986394,1.216136,-0.07607168,-0.005626171,0.7199234,0.0031638359999999,5.397376,-0.01118541,33.27
1,-0.1796265,0.1536102,0.9716492,1.0,-0.1820831,0.1468201,0.9722443,-29.94153,-7.2099,-17.78983,6.104019,0.4658537,0.6892805999999999,1.0,-0.1664886,0.1895905,0.9676361,36.52731,-6.823181,-19.74211,6.464554,0.3989877,0.6917599,-0.1987463,1.216297,-0.07615417,-0.005747684,0.7200525999999999,0.003027245,5.397376,-0.01118541,33.27
1,-0.1796265,0.1536102,0.9716492,1.0,-0.1820831,0.1468201,0.9722443,-29.94153,-7.2099,-17.78983,6.104019,0.4658537,0.6892805999999999,1.0,-0.1664886,0.1895905,0.9676361,36.52731,-6.823181,-19.74211,6.464554,0.3989877,0.6917599,-0.1987463,1.216297,-0.07615417,-0.005747684,0.7200525999999999,0.003027245,5.397376,-0.01118541,33.27
1,-0.1796265,0.1536102,0.9716492,1.0,-0.1820831,0.1468201,0.9722443,-29.94153,-7.2099,-17.78983,6.104019,0.4658537,0.6892805999999999,1.0,-0.1664886,0.1895905,0.9676361,36.52731,-6.823181,-19.74211,6.464554,0.3989877,0.6917599,-0.1987463,1.216297,-0.07615417,-0.005747684,0.7200525999999999,0.003027245,5.397376,-0.01118541,33.27
1,-0.1730042,0.1547088999999999,0.9726868,1.0,-0.1834564,0.1426849,0.9726105,-29.95956,-7.212173,-17.79433,6.076065,0.4666252,0.6900191999999999,1.0,-0.1613617,0.1679993,0.9724731,36.50542,-6.804214,-19.72887,6.434601,0.3988067999999999,0.6943138000000001,-0.1987976,1.216344,-0.07631555,-0.006259304,0.7203719,0.0037081059999999,5.397376,-0.01118541,33.27
1,-0.1730042,0.1547088999999999,0.9726868,1.0,-0.1834564,0.1426849,0.9726105,-29.95956,-7.212173,-17.79433,6.076065,0.4666252,0.6900191999999999,1.0,-0.1613617,0.1679993,0.9724731,36.50542,-6.804214,-19.72887,6.434601,0.3988067999999999,0.6943138000000001,-0.1987976,1.216344,-0.07631555,-0.006259304,0.7203719,0.0037081059999999,5.397376,-0.01118541,33.27
1,-0.1730042,0.1547088999999999,0.9726868,1.0,-0.1834564,0.1426849,0.9726105,-29.95956,-7.212173,-17.79433,6.076065,0.4666252,0.6900191999999999,1.0,-0.1613617,0.1679993,0.9724731,36.50542,-6.804214,-19.72887,6.434601,0.3988067999999999,0.6943138000000001,-0.1987976,1.216344,-0.07631555,-0.006259304,0.7203719,0.0037081059999999,5.397376,-0.01118541,33.27
1,-0.1728973,0.1526794,0.9730225,1.0,-0.1830597,0.1405944999999999,0.9729919,-29.96477,-7.211044,-17.795170000000002,6.0976870000000005,0.4667094,0.6903258000000001,1.0,-0.161499,0.1661224,0.9727783,36.50934,-6.810974000000001,-19.69171,6.434601,0.3987173,0.6944419,-0.1989002,1.216651,-0.07634491,-0.0074199769999999,0.7206885999999999,0.0040656009999999,5.397376,-0.01118541,33.27
1,-0.1728973,0.1526794,0.9730225,1.0,-0.1830597,0.1405944999999999,0.9729919,-29.96477,-7.211044,-17.795170000000002,6.0976870000000005,0.4667094,0.6903258000000001,1.0,-0.161499,0.1661224,0.9727783,36.50934,-6.810974000000001,-19.69171,6.434601,0.3987173,0.6944419,-0.1989002,1.216651,-0.07634491,-0.0074199769999999,0.7206885999999999,0.0040656009999999,5.397376,-0.01118541,33.27
1,-0.1728973,0.1526794,0.9730225,1.0,-0.1830597,0.1405944999999999,0.9729919,-29.96477,-7.211044,-17.795170000000002,6.0976870000000005,0.4667094,0.6903258000000001,1.0,-0.161499,0.1661224,0.9727783,36.50934,-6.810974000000001,-19.69171,6.434601,0.3987173,0.6944419,-0.1989002,1.216651,-0.07634491,-0.0074199769999999,0.7206885999999999,0.0040656009999999,5.397376,-0.01118541,33.27
1,-0.1713409,0.1477051,0.9740753,1.0,-0.1818847999999999,0.1400909,0.9732819,-29.9707,-7.211044,-17.79779,6.1025540000000005,0.4667094,0.6904266,1.0,-0.1541901,0.1599731,0.9749908000000002,36.51202,-6.818008,-19.60744,6.430206,0.3975089,0.6947087,-0.1989186,1.217352,-0.07640886,-0.00849946,0.7209914000000001,0.004979511,5.397376,-0.01118541,33.27
1,-0.1713409,0.1477051,0.9740753,1.0,-0.1818847999999999,0.1400909,0.9732819,-29.9707,-7.211044,-17.79779,6.1025540000000005,0.4667094,0.6904266,1.0,-0.1541901,0.1599731,0.9749908000000002,36.51202,-6.818008,-19.60744,6.430206,0.3975089,0.6947087,-0.1989186,1.217352,-0.07640886,-0.00849946,0.7209914000000001,0.004979511,5.397376,-0.01118541,33.27
1,-0.1713409,0.1477051,0.9740753,1.0,-0.1818847999999999,0.1400909,0.9732819,-29.9707,-7.211044,-17.79779,6.1025540000000005,0.4667094,0.6904266,1.0,-0.1541901,0.1599731,0.9749908000000002,36.51202,-6.818008,-19.60744,6.430206,0.3975089,0.6947087,-0.1989186,1.217352,-0.07640886,-0.00849946,0.7209914000000001,0.004979511,5.397376,-0.01118541,33.27
1,-0.1716002999999999,0.1443634,0.9745178,1.0,-0.1803894,0.1401672,0.9735413,-29.97867,-7.212173,-17.8,6.123734,0.4667180999999999,0.6904876999999999,1.0,-0.1542206,0.1526031,0.9761658,36.51474,-6.818115,-19.54547,6.413467,0.3974507,0.6951899,-0.1993098,1.217752,-0.07647943,-0.0077382369999999,0.7214282,0.005152322,5.397376,-7.174455,33.27
1,-0.1716002999999999,0.1443634,0.9745178,1.0,-0.1803894,0.1401672,0.9735413,-29.97867,-7.212173,-17.8,6.123734,0.4667180999999999,0.6904876999999999,1.0,-0.1542206,0.1526031,0.9761658,36.51474,-6.818115,-19.54547,6.413467,0.3974507,0.6951899,-0.1993098,1.217752,-0.07647943,-0.0077382369999999,0.7214282,0.005152322,5.397376,-7.174455,33.27
1,-0.1716002999999999,0.1443634,0.9745178,1.0,-0.1803894,0.1401672,0.9735413,-29.97867,-7.212173,-17.8,6.123734,0.4667180999999999,0.6904876999999999,1.0,-0.1542206,0.1526031,0.9761658,36.51474,-6.818115,-19.54547,6.413467,0.3974507,0.6951899,-0.1993098,1.217752,-0.07647943,-0.0077382369999999,0.7214282,0.005152322,5.397376,-7.174455,33.27
1,-0.1716614,0.1409302,0.9750214,1.0,-0.1778412,0.1375732,0.9743805,-29.98698,-7.214676,-17.812479999999997,6.122818,0.4665752999999999,0.6910666,1.0,-0.15802,0.1483002,0.9762268,36.54828,-6.870163000000001,-19.42056,6.410828,0.3970271999999999,0.6962646,-0.1999003999999999,1.218075,-0.07647699,-0.007812978,0.7217034999999999,0.006266739,5.397376,-7.174455,33.27
1,-0.1716614,0.1409302,0.9750214,1.0,-0.1778412,0.1375732,0.9743805,-29.98698,-7.214676,-17.812479999999997,6.122818,0.4665752999999999,0.6910666,1.0,-0.15802,0.1483002,0.9762268,36.54828,-6.870163000000001,-19.42056,6.410828,0.3970271999999999,0.6962646,-0.1999003999999999,1.218075,-0.07647699,-0.007812978,0.7217034999999999,0.006266739,5.397376,-7.174455,33.27
1,-0.1716614,0.1409302,0.9750214,1.0,-0.1778412,0.1375732,0.9743805,-29.98698,-7.214676,-17.812479999999997,6.122818,0.4665752999999999,0.6910666,1.0,-0.15802,0.1483002,0.9762268,36.54828,-6.870163000000001,-19.42056,6.410828,0.3970271999999999,0.6962646,-0.1999003999999999,1.218075,-0.07647699,-0.007812978,0.7217034999999999,0.006266739,5.397376,-7.174455,33.27
1,-0.1708374,0.141861,0.9750214,1.0,-0.1764069,0.138855,0.9744568,-29.99396,-7.235626,-17.82967,6.119019000000001,0.4665752999999999,0.6916836999999999,1.0,-0.1572112999999999,0.1491394,0.9762268,36.55602,-6.933792,-19.33644,6.439117,0.39668,0.6973477,-0.2004716,1.218002,-0.07648206,-0.008374949,0.7221786,0.00776371,5.397376,-7.174455,33.27
1,-0.1708374,0.141861,0.9750214,1.0,-0.1764069,0.138855,0.9744568,-29.99396,-7.235626,-17.82967,6.119019000000001,0.4665752999999999,0.6916836999999999,1.0,-0.1572112999999999,0.1491394,0.9762268,36.55602,-6.933792,-19.33644,6.439117,0.39668,0.6973477,-0.2004716,1.218002,-0.07648206,-0.008374949,0.7221786,0.00776371,5.397376,-7.174455,33.27
1,-0.1708374,0.141861,0.9750214,1.0,-0.1764069,0.138855,0.9744568,-29.99396,-7.235626,-17.82967,6.119019000000001,0.4665752999999999,0.6916836999999999,1.0,-0.1572112999999999,0.1491394,0.9762268,36.55602,-6.933792,-19.33644,6.439117,0.39668,0.6973477,-0.2004716,1.218002,-0.07648206,-0.008374949,0.7221786,0.00776371,5.397376,-7.174455,33.27
1,-0.1680145,0.113678,0.9792023,1.0,-0.1680907999999999,0.1131438999999999,0.979248,-29.87672,-7.126755,-17.78088,6.150955000000001,0.461555,0.6916789000000001,1.0,-0.1576691,0.1848907,0.9700165,36.8219,-7.405182000000001,-18.24742,6.614456,0.3888607999999999,0.6960874,-0.2009553999999999,1.218051,-0.07670367,-0.008803885,0.7229323000000001,0.00842418,5.397376,-7.174455,33.27
1,-0.1680145,0.113678,0.9792023,1.0,-0.1680907999999999,0.1131438999999999,0.979248,-29.87672,-7.126755,-17.78088,6.150955000000001,0.461555,0.6916789000000001,1.0,-0.1576691,0.1848907,0.9700165,36.8219,-7.405182000000001,-18.24742,6.614456,0.3888607999999999,0.6960874,-0.2009553999999999,1.218051,-0.07670367,-0.008803885,0.7229323000000001,0.00842418,5.397376,-7.174455,33.27
1,-0.1680145,0.113678,0.9792023,1.0,-0.1680907999999999,0.1131438999999999,0.979248,-29.87672,-7.126755,-17.78088,6.150955000000001,0.461555,0.6916789000000001,1.0,-0.1576691,0.1848907,0.9700165,36.8219,-7.405182000000001,-18.24742,6.614456,0.3888607999999999,0.6960874,-0.2009553999999999,1.218051,-0.07670367,-0.008803885,0.7229323000000001,0.00842418,5.397376,-7.174455,33.27
1,-0.1452942,0.1435089,0.9789124,1.0,-0.1452942,0.1433716,0.9789276,-29.74649,-6.875046,-18.02965,5.983032,0.4541715,0.6812576,1.0,-0.1418152,0.1943512,0.9706116,36.89696,-6.936462,-19.03821,6.409668,0.3837501,0.687094,-0.2011941,1.218218,-0.07691896,-0.009423362,0.7236363,0.008870699,5.397376,5.358494,33.27
1,-0.1452942,0.1435089,0.9789124,1.0,-0.1452942,0.1433716,0.9789276,-29.74649,-6.875046,-18.02965,5.983032,0.4541715,0.6812576,1.0,-0.1418152,0.1943512,0.9706116,36.89696,-6.936462,-19.03821,6.409668,0.3837501,0.687094,-0.2011941,1.218218,-0.07691896,-0.009423362,0.7236363,0.008870699,5.397376,5.358494,33.27
1,-0.1452942,0.1435089,0.9789124,1.0,-0.1452942,0.1433716,0.9789276,-29.74649,-6.875046,-18.02965,5.983032,0.4541715,0.6812576,1.0,-0.1418152,0.1943512,0.9706116,36.89696,-6.936462,-19.03821,6.409668,0.3837501,0.687094,-0.2011941,1.218218,-0.07691896,-0.009423362,0.7236363,0.008870699,5.397376,5.358494,33.27
1,-0.1367187999999999,0.1481323,0.9794617,1.0,-0.1364899,0.144104,0.9800873,-29.76601,-6.838562,-18.1631,5.98349,0.4534132,0.6812576,1.0,-0.1394042999999999,0.1963348,0.9705658,36.89662,-6.919693,-19.0798,6.412613,0.3833511,0.6866651999999999,-0.201441,1.21844,-0.07729703,-0.01033929,0.7243596,0.009499549,5.397376,5.358494,33.27
1,-0.1367187999999999,0.1481323,0.9794617,1.0,-0.1364899,0.144104,0.9800873,-29.76601,-6.838562,-18.1631,5.98349,0.4534132,0.6812576,1.0,-0.1394042999999999,0.1963348,0.9705658,36.89662,-6.919693,-19.0798,6.412613,0.3833511,0.6866651999999999,-0.201441,1.21844,-0.07729703,-0.01033929,0.7243596,0.009499549,5.397376,5.358494,33.27
1,-0.1367187999999999,0.1481323,0.9794617,1.0,-0.1364899,0.144104,0.9800873,-29.76601,-6.838562,-18.1631,5.98349,0.4534132,0.6812576,1.0,-0.1394042999999999,0.1963348,0.9705658,36.89662,-6.919693,-19.0798,6.412613,0.3833511,0.6866651999999999,-0.201441,1.21844,-0.07729703,-0.01033929,0.7243596,0.009499549,5.397376,5.358494,33.27
1,-0.1345367,0.1503601,0.9794312,1.0,-0.1360321,0.1435089,0.9802399,-29.76888,-6.819748,-18.23099,6.014648,0.4534132,0.6814656,1.0,-0.1240692,0.1969299,0.9725189,36.82994,-6.828949000000001,-19.43355,6.4172970000000005,0.3827785999999999,0.6872577,-0.201441,1.21844,-0.07729703,-0.01033929,0.7243596,0.009499549,5.397376,5.358494,33.27
1,-0.1345367,0.1503601,0.9794312,1.0,-0.1360321,0.1435089,0.9802399,-29.76888,-6.819748,-18.23099,6.014648,0.4534132,0.6814656,1.0,-0.1240692,0.1969299,0.9725189,36.82994,-6.828949000000001,-19.43355,6.4172970000000005,0.3827785999999999,0.6872577,-0.201441,1.21844,-0.07729703,-0.01033929,0.7243596,0.009499549,5.397376,5.358494,33.27
1,-0.1345367,0.1503601,0.9794312,1.0,-0.1360321,0.1435089,0.9802399,-29.76888,-6.819748,-18.23099,6.014648,0.4534132,0.6814656,1.0,-0.1240692,0.1969299,0.9725189,36.82994,-6.828949000000001,-19.43355,6.4172970000000005,0.3827785999999999,0.6872577,-0.201441,1.21844,-0.07729703,-0.01033929,0.7243596,0.009499549,5.397376,5.358494,33.27
1,-0.135498,0.1394196,0.9809113000000002,1.0,-0.1359406,0.1372833,0.9811554,-29.76898,-6.817123,-18.23759,6.00354,0.4533847,0.6823848000000001,1.0,-0.1240386999999999,0.1937866,0.9731598,36.83716,-6.831039,-19.43636,6.462845,0.3824995999999999,0.6879147,-0.2016358,1.218561,-0.07760984,-0.01118077,0.7250446,0.009734103,5.397376,5.358494,33.27
1,-0.135498,0.1394196,0.9809113000000002,1.0,-0.1359406,0.1372833,0.9811554,-29.76898,-6.817123,-18.23759,6.00354,0.4533847,0.6823848000000001,1.0,-0.1240386999999999,0.1937866,0.9731598,36.83716,-6.831039,-19.43636,6.462845,0.3824995999999999,0.6879147,-0.2016358,1.218561,-0.07760984,-0.01118077,0.7250446,0.009734103,5.397376,5.358494,33.27
1,-0.135498,0.1394196,0.9809113000000002,1.0,-0.1359406,0.1372833,0.9811554,-29.76898,-6.817123,-18.23759,6.00354,0.4533847,0.6823848000000001,1.0,-0.1240386999999999,0.1937866,0.9731598,36.83716,-6.831039,-19.43636,6.462845,0.3824995999999999,0.6879147,-0.2016358,1.218561,-0.07760984,-0.01118077,0.7250446,0.009734103,5.397376,5.358494,33.27
1,-0.1271667,0.1574707,0.9792938,1.0,-0.1312561,0.1325684,0.9824371,-29.77362,-6.8033600000000005,-18.29324,6.000473,0.4527914,0.6831862,1.0,-0.1219788,0.1881256,0.9745331,36.84315,-6.8334660000000005,-19.4669,6.464432,0.3819245999999999,0.6891837,-0.2018979,1.218607,-0.07783413,-0.01231837,0.7253066,0.009599998,5.397376,5.358494,33.27
1,-0.1271667,0.1574707,0.9792938,1.0,-0.1312561,0.1325684,0.9824371,-29.77362,-6.8033600000000005,-18.29324,6.000473,0.4527914,0.6831862,1.0,-0.1219788,0.1881256,0.9745331,36.84315,-6.8334660000000005,-19.4669,6.464432,0.3819245999999999,0.6891837,-0.2018979,1.218607,-0.07783413,-0.01231837,0.7253066,0.009599998,5.397376,5.358494,33.27
1,-0.1271667,0.1574707,0.9792938,1.0,-0.1312561,0.1325684,0.9824371,-29.77362,-6.8033600000000005,-18.29324,6.000473,0.4527914,0.6831862,1.0,-0.1219788,0.1881256,0.9745331,36.84315,-6.8334660000000005,-19.4669,6.464432,0.3819245999999999,0.6891837,-0.2018979,1.218607,-0.07783413,-0.01231837,0.7253066,0.009599998,5.397376,5.358494,33.27
1,-0.1186981,0.1808014,0.9763184,1.0,-0.1257628999999999,0.1296539,0.9835358,-29.78801,-6.734694999999999,-18.65945,6.000305,0.4523367999999999,0.6850476,1.0,-0.1184081999999999,0.1828766,0.9759674,36.87766,-6.874374,-19.49245,6.497635,0.3801552,0.6916305,-0.2019918999999999,1.218619,-0.07794604,-0.01263162,0.7249654999999999,0.009566956,5.397376,3.738305,33.27
1,-0.1186981,0.1808014,0.9763184,1.0,-0.1257628999999999,0.1296539,0.9835358,-29.78801,-6.734694999999999,-18.65945,6.000305,0.4523367999999999,0.6850476,1.0,-0.1184081999999999,0.1828766,0.9759674,36.87766,-6.874374,-19.49245,6.497635,0.3801552,0.6916305,-0.2019918999999999,1.218619,-0.07794604,-0.01263162,0.7249654999999999,0.009566956,5.397376,3.738305,33.27
1,-0.1186981,0.1808014,0.9763184,1.0,-0.1257628999999999,0.1296539,0.9835358,-29.78801,-6.734694999999999,-18.65945,6.000305,0.4523367999999999,0.6850476,1.0,-0.1184081999999999,0.1828766,0.9759674,36.87766,-6.874374,-19.49245,6.497635,0.3801552,0.6916305,-0.2019918999999999,1.218619,-0.07794604,-0.01263162,0.7249654999999999,0.009566956,5.397376,3.738305,33.27
1,-0.1194,0.1789703,0.9765778,1.0,-0.1256714,0.1268463,0.9839171999999998,-29.78801,-6.734694999999999,-18.65945,6.006226,0.4523126,0.6854878000000001,1.0,-0.1189117,0.1828918,0.9759064,36.89674,-6.879105,-19.51352,6.514114,0.3795844,0.6920291999999999,-0.2020229,1.218774,-0.0780008999999999,-0.01315729,0.7247653000000001,0.0098541069999999,5.397376,3.738305,33.27
1,-0.1194,0.1789703,0.9765778,1.0,-0.1256714,0.1268463,0.9839171999999998,-29.78801,-6.734694999999999,-18.65945,6.006226,0.4523126,0.6854878000000001,1.0,-0.1189117,0.1828918,0.9759064,36.89674,-6.879105,-19.51352,6.514114,0.3795844,0.6920291999999999,-0.2020229,1.218774,-0.0780008999999999,-0.01315729,0.7247653000000001,0.0098541069999999,5.397376,3.738305,33.27
1,-0.1194,0.1789703,0.9765778,1.0,-0.1256714,0.1268463,0.9839171999999998,-29.78801,-6.734694999999999,-18.65945,6.006226,0.4523126,0.6854878000000001,1.0,-0.1189117,0.1828918,0.9759064,36.89674,-6.879105,-19.51352,6.514114,0.3795844,0.6920291999999999,-0.2020229,1.218774,-0.0780008999999999,-0.01315729,0.7247653000000001,0.0098541069999999,5.397376,3.738305,33.27
1,-0.1189117,0.1430359,0.9825439,1.0,-0.1202545,0.1417542,0.9825592,-29.51402,-6.955214999999999,-18.67651,6.160355,0.4428220999999999,0.6904522,1.0,-0.1107178,0.1508178999999999,0.9823303,37.22609,-7.145264,-19.04997,6.543335,0.3677642,0.7008806,-0.2018524,1.218647,-0.07805747,-0.01278901,0.7243655,0.0096147319999999,5.397376,3.738305,33.27
1,-0.1189117,0.1430359,0.9825439,1.0,-0.1202545,0.1417542,0.9825592,-29.51402,-6.955214999999999,-18.67651,6.160355,0.4428220999999999,0.6904522,1.0,-0.1107178,0.1508178999999999,0.9823303,37.22609,-7.145264,-19.04997,6.543335,0.3677642,0.7008806,-0.2018524,1.218647,-0.07805747,-0.01278901,0.7243655,0.0096147319999999,5.397376,3.738305,33.27
1,-0.1189117,0.1430359,0.9825439,1.0,-0.1202545,0.1417542,0.9825592,-29.51402,-6.955214999999999,-18.67651,6.160355,0.4428220999999999,0.6904522,1.0,-0.1107178,0.1508178999999999,0.9823303,37.22609,-7.145264,-19.04997,6.543335,0.3677642,0.7008806,-0.2018524,1.218647,-0.07805747,-0.01278901,0.7243655,0.0096147319999999,5.397376,3.738305,33.27
1,-0.07054138,0.1194763,0.9903107,1.0,-0.07055664,0.1194916,0.9903107,-28.10591,-7.991455,-18.48296,6.2626800000000005,0.3904992,0.7248265,1.0,-0.03948975,0.1052398999999999,0.9936523000000002,38.05978,-7.251205000000001,-20.62431,6.590256,0.326705,0.7284654,-0.2018524,1.218647,-0.07805747,-0.01278901,0.7243655,0.0096147319999999,5.397376,3.738305,33.27
1,-0.07054138,0.1194763,0.9903107,1.0,-0.07055664,0.1194916,0.9903107,-28.10591,-7.991455,-18.48296,6.2626800000000005,0.3904992,0.7248265,1.0,-0.03948975,0.1052398999999999,0.9936523000000002,38.05978,-7.251205000000001,-20.62431,6.590256,0.326705,0.7284654,-0.2018524,1.218647,-0.07805747,-0.01278901,0.7243655,0.0096147319999999,5.397376,3.738305,33.27
1,-0.07054138,0.1194763,0.9903107,1.0,-0.07055664,0.1194916,0.9903107,-28.10591,-7.991455,-18.48296,6.2626800000000005,0.3904992,0.7248265,1.0,-0.03948975,0.1052398999999999,0.9936523000000002,38.05978,-7.251205000000001,-20.62431,6.590256,0.326705,0.7284654,-0.2018524,1.218647,-0.07805747,-0.01278901,0.7243655,0.0096147319999999,5.397376,3.738305,33.27
2,0.1234894,0.08807373,0.9884186,1.0,0.07273865,0.0758667,0.9944458,-27.47867,-8.546799,-17.87003,6.279907,0.3489887,0.742954,1.0,0.135376,0.09091187,0.9866028,38.9384,-8.455826,-19.49144,6.7461850000000005,0.2697062,0.7596444,-0.2016654,1.218431,-0.07787716,-0.01216699,0.7237458999999999,0.008830925,5.397376,3.738305,33.27
2,0.1234894,0.08807373,0.9884186,1.0,0.07273865,0.0758667,0.9944458,-27.47867,-8.546799,-17.87003,6.279907,0.3489887,0.742954,1.0,0.135376,0.09091187,0.9866028,38.9384,-8.455826,-19.49144,6.7461850000000005,0.2697062,0.7596444,-0.2016654,1.218431,-0.07787716,-0.01216699,0.7237458999999999,0.008830925,5.397376,3.738305,33.27
2,0.1234894,0.08807373,0.9884186,1.0,0.07273865,0.0758667,0.9944458,-27.47867,-8.546799,-17.87003,6.279907,0.3489887,0.742954,1.0,0.135376,0.09091187,0.9866028,38.9384,-8.455826,-19.49144,6.7461850000000005,0.2697062,0.7596444,-0.2016654,1.218431,-0.07787716,-0.01216699,0.7237458999999999,0.008830925,5.397376,3.738305,33.27
2,0.1280365,0.09140015,0.9875336,1.0,0.0484314,0.06959534,0.9963837,-27.457790000000003,-8.399643,-18.2249,6.251862,0.3517620999999999,0.7428296999999999,1.0,0.1404877,0.0947876,0.9855194,38.955090000000006,-8.454773,-19.44589,6.780487,0.2684335,0.7585508000000001,-0.2013083,1.218321,-0.07776028,-0.01168947,0.722743,0.008320505,5.397376,3.738305,33.27
2,0.1280365,0.09140015,0.9875336,1.0,0.0484314,0.06959534,0.9963837,-27.457790000000003,-8.399643,-18.2249,6.251862,0.3517620999999999,0.7428296999999999,1.0,0.1404877,0.0947876,0.9855194,38.955090000000006,-8.454773,-19.44589,6.780487,0.2684335,0.7585508000000001,-0.2013083,1.218321,-0.07776028,-0.01168947,0.722743,0.008320505,5.397376,3.738305,33.27
2,0.1280365,0.09140015,0.9875336,1.0,0.0484314,0.06959534,0.9963837,-27.457790000000003,-8.399643,-18.2249,6.251862,0.3517620999999999,0.7428296999999999,1.0,0.1404877,0.0947876,0.9855194,38.955090000000006,-8.454773,-19.44589,6.780487,0.2684335,0.7585508000000001,-0.2013083,1.218321,-0.07776028,-0.01168947,0.722743,0.008320505,5.397376,3.738305,33.27
2,0.1366425,0.09883118,0.985672,1.0,0.045578,0.06781006,0.9966431,-27.46983,-8.334305,-18.36894,6.223145,0.3524731,0.7424681,1.0,0.1369019,0.09892273,0.9856262,38.96593,-8.481689,-19.36333,6.7905880000000005,0.2688368,0.7578391999999999,-0.200905,1.217854,-0.0768556,-0.0111831,0.719341,0.007626464,5.397376,-3.990449,33.27
2,0.1366425,0.09883118,0.985672,1.0,0.045578,0.06781006,0.9966431,-27.46983,-8.334305,-18.36894,6.223145,0.3524731,0.7424681,1.0,0.1369019,0.09892273,0.9856262,38.96593,-8.481689,-19.36333,6.7905880000000005,0.2688368,0.7578391999999999,-0.200905,1.217854,-0.0768556,-0.0111831,0.719341,0.007626464,5.397376,-3.990449,33.27
2,0.1366425,0.09883118,0.985672,1.0,0.045578,0.06781006,0.9966431,-27.46983,-8.334305,-18.36894,6.223145,0.3524731,0.7424681,1.0,0.1369019,0.09892273,0.9856262,38.96593,-8.481689,-19.36333,6.7905880000000005,0.2688368,0.7578391999999999,-0.200905,1.217854,-0.0768556,-0.0111831,0.719341,0.007626464,5.397376,-3.990449,33.27
2,0.1060028,0.0896758999999999,0.9903107,1.0,0.04512024,0.06742859,0.9966888,-27.47852,-8.350906,-18.29387,6.208557,0.3528889,0.7422439000000001,1.0,0.1348114,0.1001281999999999,0.9857941,38.97545,-8.498352,-19.27672,6.784348,0.2690743,0.7571784,-0.200905,1.217854,-0.0768556,-0.0111831,0.719341,0.007626464,5.397376,-3.990449,33.27
2,0.1060028,0.0896758999999999,0.9903107,1.0,0.04512024,0.06742859,0.9966888,-27.47852,-8.350906,-18.29387,6.208557,0.3528889,0.7422439000000001,1.0,0.1348114,0.1001281999999999,0.9857941,38.97545,-8.498352,-19.27672,6.784348,0.2690743,0.7571784,-0.200905,1.217854,-0.0768556,-0.0111831,0.719341,0.007626464,5.397376,-3.990449,33.27
2,0.1060028,0.0896758999999999,0.9903107,1.0,0.04512024,0.06742859,0.9966888,-27.47852,-8.350906,-18.29387,6.208557,0.3528889,0.7422439000000001,1.0,0.1348114,0.1001281999999999,0.9857941,38.97545,-8.498352,-19.27672,6.784348,0.2690743,0.7571784,-0.200905,1.217854,-0.0768556,-0.0111831,0.719341,0.007626464,5.397376,-3.990449,33.27
2,0.07904053,0.08018494,0.9936371,1.0,0.03915405,0.07147217,0.9966583,-27.49666,-8.358002,-18.26225,6.180954,0.3544269,0.7414488,1.0,0.1213226,0.08930969,0.9885712,39.01941,-8.44191,-19.46291,6.687927,0.269482,0.7588897,-0.2006277,1.217794,-0.07616213,-0.01072813,0.7159145,0.00792635,5.397376,-3.990449,33.27
2,0.07904053,0.08018494,0.9936371,1.0,0.03915405,0.07147217,0.9966583,-27.49666,-8.358002,-18.26225,6.180954,0.3544269,0.7414488,1.0,0.1213226,0.08930969,0.9885712,39.01941,-8.44191,-19.46291,6.687927,0.269482,0.7588897,-0.2006277,1.217794,-0.07616213,-0.01072813,0.7159145,0.00792635,5.397376,-3.990449,33.27
2,0.07904053,0.08018494,0.9936371,1.0,0.03915405,0.07147217,0.9966583,-27.49666,-8.358002,-18.26225,6.180954,0.3544269,0.7414488,1.0,0.1213226,0.08930969,0.9885712,39.01941,-8.44191,-19.46291,6.687927,0.269482,0.7588897,-0.2006277,1.217794,-0.07616213,-0.01072813,0.7159145,0.00792635,5.397376,-3.990449,33.27
2,0.03213501,0.07046509,0.996994,1.0,0.03186035,0.07032776,0.9970093,-27.52251,-8.400421000000001,-18.03842,6.192734,0.3565632,0.7406464,1.0,0.09913635,0.101181,0.9899139,39.04964,-8.302002,-19.87056,6.694260000000001,0.2712587999999999,0.7568743,-0.2004137,1.218844,-0.07157391,-0.01267108,0.6930814000000001,0.01363982,5.397376,-3.990449,33.27
2,0.03213501,0.07046509,0.996994,1.0,0.03186035,0.07032776,0.9970093,-27.52251,-8.400421000000001,-18.03842,6.192734,0.3565632,0.7406464,1.0,0.09913635,0.101181,0.9899139,39.04964,-8.302002,-19.87056,6.694260000000001,0.2712587999999999,0.7568743,-0.2004137,1.218844,-0.07157391,-0.01267108,0.6930814000000001,0.01363982,5.397376,-3.990449,33.27
2,0.03213501,0.07046509,0.996994,1.0,0.03186035,0.07032776,0.9970093,-27.52251,-8.400421000000001,-18.03842,6.192734,0.3565632,0.7406464,1.0,0.09913635,0.101181,0.9899139,39.04964,-8.302002,-19.87056,6.694260000000001,0.2712587999999999,0.7568743,-0.2004137,1.218844,-0.07157391,-0.01267108,0.6930814000000001,0.01363982,5.397376,-3.990449,33.27
2,0.04588318,0.08103943,0.9956511999999998,1.0,0.02600098,0.07203674,0.9970551,-27.52251,-8.400421000000001,-18.03842,6.2108,0.3574577,0.7404046999999999,1.0,0.09153748,0.1016388,0.9905853,39.05669,-8.280242999999999,-19.93535,6.73642,0.2721376,0.7568401,-0.2004137,1.218844,-0.07157391,-0.01267108,0.6930814000000001,0.01363982,5.397376,-3.990449,33.27
2,0.04588318,0.08103943,0.9956511999999998,1.0,0.02600098,0.07203674,0.9970551,-27.52251,-8.400421000000001,-18.03842,6.2108,0.3574577,0.7404046999999999,1.0,0.09153748,0.1016388,0.9905853,39.05669,-8.280242999999999,-19.93535,6.73642,0.2721376,0.7568401,-0.2004137,1.218844,-0.07157391,-0.01267108,0.6930814000000001,0.01363982,5.397376,-3.990449,33.27
2,0.04588318,0.08103943,0.9956511999999998,1.0,0.02600098,0.07203674,0.9970551,-27.52251,-8.400421000000001,-18.03842,6.2108,0.3574577,0.7404046999999999,1.0,0.09153748,0.1016388,0.9905853,39.05669,-8.280242999999999,-19.93535,6.73642,0.2721376,0.7568401,-0.2004137,1.218844,-0.07157391,-0.01267108,0.6930814000000001,0.01363982,5.397376,-3.990449,33.27
2,0.02371216,0.07554626,0.9968567,1.0,0.01573181,0.06710815,0.9976196,-27.52267,-8.376984,-18.03842,6.209167,0.359036,0.7404046999999999,1.0,0.04278564,0.0957489,0.9944763,38.87912,-8.47966,-19.57767,6.675628999999999,0.2865257,0.7600743000000001,-0.200783,1.219884,-0.06673092,-0.01849124,0.6696066999999999,0.01488244,5.397376,0.8115714,33.27
2,0.02371216,0.07554626,0.9968567,1.0,0.01573181,0.06710815,0.9976196,-27.52267,-8.376984,-18.03842,6.209167,0.359036,0.7404046999999999,1.0,0.04278564,0.0957489,0.9944763,38.87912,-8.47966,-19.57767,6.675628999999999,0.2865257,0.7600743000000001,-0.200783,1.219884,-0.06673092,-0.01849124,0.6696066999999999,0.01488244,5.397376,0.8115714,33.27
2,0.02371216,0.07554626,0.9968567,1.0,0.01573181,0.06710815,0.9976196,-27.52267,-8.376984,-18.03842,6.209167,0.359036,0.7404046999999999,1.0,0.04278564,0.0957489,0.9944763,38.87912,-8.47966,-19.57767,6.675628999999999,0.2865257,0.7600743000000001,-0.200783,1.219884,-0.06673092,-0.01849124,0.6696066999999999,0.01488244,5.397376,0.8115714,33.27
2,0.04167175,0.08956909,0.9951019,1.0,0.02233887,0.08023071,0.996521,-27.41881,-8.297409,-17.65259,6.400085,0.3551481999999999,0.7321222,1.0,0.1134033,0.1239014,0.9857788,39.22903,-7.941589,-20.08409,6.8526,0.2628793,0.7439051999999999,-0.2040174,1.223015,-0.05592507,-0.04051834,0.6136484,0.01394436,5.397376,0.8115714,33.27
2,0.04167175,0.08956909,0.9951019,1.0,0.02233887,0.08023071,0.996521,-27.41881,-8.297409,-17.65259,6.400085,0.3551481999999999,0.7321222,1.0,0.1134033,0.1239014,0.9857788,39.22903,-7.941589,-20.08409,6.8526,0.2628793,0.7439051999999999,-0.2040174,1.223015,-0.05592507,-0.04051834,0.6136484,0.01394436,5.397376,0.8115714,33.27
2,0.04167175,0.08956909,0.9951019,1.0,0.02233887,0.08023071,0.996521,-27.41881,-8.297409,-17.65259,6.400085,0.3551481999999999,0.7321222,1.0,0.1134033,0.1239014,0.9857788,39.22903,-7.941589,-20.08409,6.8526,0.2628793,0.7439051999999999,-0.2040174,1.223015,-0.05592507,-0.04051834,0.6136484,0.01394436,5.397376,0.8115714,33.27
2,0.1451569,0.2357941,0.9608917,1.0,0.1291198999999999,0.2041626,0.9703674,-27.394240000000003,-8.372131,-16.32082,6.475967,0.3395357,0.7024636,1.0,0.1451569,0.2357941,0.9608917,39.31622,-7.485428,-19.8468,6.932449,0.2561522,0.7084114,-0.2066813,1.225073,-0.05108073,-0.05569003,0.5880420999999999,0.01212743,5.397376,0.8115714,33.27
2,0.1451569,0.2357941,0.9608917,1.0,0.1291198999999999,0.2041626,0.9703674,-27.394240000000003,-8.372131,-16.32082,6.475967,0.3395357,0.7024636,1.0,0.1451569,0.2357941,0.9608917,39.31622,-7.485428,-19.8468,6.932449,0.2561522,0.7084114,-0.2066813,1.225073,-0.05108073,-0.05569003,0.5880420999999999,0.01212743,5.397376,0.8115714,33.27
2,0.1451569,0.2357941,0.9608917,1.0,0.1291198999999999,0.2041626,0.9703674,-27.394240000000003,-8.372131,-16.32082,6.475967,0.3395357,0.7024636,1.0,0.1451569,0.2357941,0.9608917,39.31622,-7.485428,-19.8468,6.932449,0.2561522,0.7084114,-0.2066813,1.225073,-0.05108073,-0.05569003,0.5880420999999999,0.01212743,5.397376,0.8115714,33.27
2,0.1035003999999999,0.2515869,0.9622803,1.0,0.07116699,0.2097167999999999,0.9751587,-27.55986,-7.948196,-17.34386,6.529877,0.3527653,0.6983809,1.0,0.1035003999999999,0.2515869,0.9622803,38.97517,-7.512085000000001,-19.85794,6.846436,0.2745876,0.7063734,-0.2095571,1.227094,-0.0476144,-0.06921478,0.5679845,0.0098071169999999,5.397376,0.8115714,33.27
2,0.1035003999999999,0.2515869,0.9622803,1.0,0.07116699,0.2097167999999999,0.9751587,-27.55986,-7.948196,-17.34386,6.529877,0.3527653,0.6983809,1.0,0.1035003999999999,0.2515869,0.9622803,38.97517,-7.512085000000001,-19.85794,6.846436,0.2745876,0.7063734,-0.2095571,1.227094,-0.0476144,-0.06921478,0.5679845,0.0098071169999999,5.397376,0.8115714,33.27
2,0.1035003999999999,0.2515869,0.9622803,1.0,0.07116699,0.2097167999999999,0.9751587,-27.55986,-7.948196,-17.34386,6.529877,0.3527653,0.6983809,1.0,0.1035003999999999,0.2515869,0.9622803,38.97517,-7.512085000000001,-19.85794,6.846436,0.2745876,0.7063734,-0.2095571,1.227094,-0.0476144,-0.06921478,0.5679845,0.0098071169999999,5.397376,0.8115714,33.27
2,0.05334473,0.2142944,0.975296,1.0,0.01316833,0.181015,0.9833832,-27.97525,-7.954436999999999,-17.52959,6.369186,0.3745128,0.7044441,1.0,0.05334473,0.2142944,0.975296,38.58827,-7.419617,-20.38574,6.926147,0.294749,0.7147333,-0.2095571,1.227094,-0.0476144,-0.06921478,0.5679845,0.0098071169999999,5.397376,0.8115714,33.27
2,0.05334473,0.2142944,0.975296,1.0,0.01316833,0.181015,0.9833832,-27.97525,-7.954436999999999,-17.52959,6.369186,0.3745128,0.7044441,1.0,0.05334473,0.2142944,0.975296,38.58827,-7.419617,-20.38574,6.926147,0.294749,0.7147333,-0.2095571,1.227094,-0.0476144,-0.06921478,0.5679845,0.0098071169999999,5.397376,0.8115714,33.27
2,0.05334473,0.2142944,0.975296,1.0,0.01316833,0.181015,0.9833832,-27.97525,-7.954436999999999,-17.52959,6.369186,0.3745128,0.7044441,1.0,0.05334473,0.2142944,0.975296,38.58827,-7.419617,-20.38574,6.926147,0.294749,0.7147333,-0.2095571,1.227094,-0.0476144,-0.06921478,0.5679845,0.0098071169999999,5.397376,0.8115714,33.27
2,-0.02153015,0.1650848,0.9860382,1.0,-0.02949524,0.1174164,0.99263,-28.71176,-7.373214999999999,-19.35292,6.2137910000000005,0.4030579,0.7141389,1.0,-0.02153015,0.1651306,0.9860229,38.01286,-7.889511,-19.70358,6.761458999999999,0.3267776,0.7299431,-0.2137947999999999,1.229251,-0.04428118,-0.07686622,0.5528122,0.01031548,5.397376,0.8115714,33.27
2,-0.02153015,0.1650848,0.9860382,1.0,-0.02949524,0.1174164,0.99263,-28.71176,-7.373214999999999,-19.35292,6.2137910000000005,0.4030579,0.7141389,1.0,-0.02153015,0.1651306,0.9860229,38.01286,-7.889511,-19.70358,6.761458999999999,0.3267776,0.7299431,-0.2137947999999999,1.229251,-0.04428118,-0.07686622,0.5528122,0.01031548,5.397376,0.8115714,33.27
2,-0.02153015,0.1650848,0.9860382,1.0,-0.02949524,0.1174164,0.99263,-28.71176,-7.373214999999999,-19.35292,6.2137910000000005,0.4030579,0.7141389,1.0,-0.02153015,0.1651306,0.9860229,38.01286,-7.889511,-19.70358,6.761458999999999,0.3267776,0.7299431,-0.2137947999999999,1.229251,-0.04428118,-0.07686622,0.5528122,0.01031548,5.397376,0.8115714,33.27
2,-0.04243469,0.1621246,0.9858551,1.0,-0.03677368,0.1090546,0.9933472,-28.91823,-7.275939999999999,-19.71126,6.269608,0.4104599,0.7162786,1.0,-0.04243469,0.1621246,0.9858398000000002,37.89667,-7.637283,-20.51694,6.7483830000000005,0.3325927,0.7312477,-0.2137947999999999,1.229251,-0.04428118,-0.07686622,0.5528122,0.01031548,5.397376,4.10381,33.27
2,-0.04243469,0.1621246,0.9858551,1.0,-0.03677368,0.1090546,0.9933472,-28.91823,-7.275939999999999,-19.71126,6.269608,0.4104599,0.7162786,1.0,-0.04243469,0.1621246,0.9858398000000002,37.89667,-7.637283,-20.51694,6.7483830000000005,0.3325927,0.7312477,-0.2137947999999999,1.229251,-0.04428118,-0.07686622,0.5528122,0.01031548,5.397376,4.10381,33.27
2,-0.04243469,0.1621246,0.9858551,1.0,-0.03677368,0.1090546,0.9933472,-28.91823,-7.275939999999999,-19.71126,6.269608,0.4104599,0.7162786,1.0,-0.04243469,0.1621246,0.9858398000000002,37.89667,-7.637283,-20.51694,6.7483830000000005,0.3325927,0.7312477,-0.2137947999999999,1.229251,-0.04428118,-0.07686622,0.5528122,0.01031548,5.397376,4.10381,33.27
2,-0.04634094,0.09538269,0.9943542,1.0,-0.04634094,0.09536743,0.9943542,-29.08891,-7.435638000000001,-19.16048,6.288712,0.4175737,0.7178285,1.0,-0.06143188,0.1539459,0.9861603,37.75792,-7.650848,-20.487920000000003,6.728561,0.3402454,0.7326459,-0.2141054,1.228584,-0.04605567,-0.06250018,0.5767703000000001,0.01137843,5.397376,4.10381,33.27
2,-0.04634094,0.09538269,0.9943542,1.0,-0.04634094,0.09536743,0.9943542,-29.08891,-7.435638000000001,-19.16048,6.288712,0.4175737,0.7178285,1.0,-0.06143188,0.1539459,0.9861603,37.75792,-7.650848,-20.487920000000003,6.728561,0.3402454,0.7326459,-0.2141054,1.228584,-0.04605567,-0.06250018,0.5767703000000001,0.01137843,5.397376,4.10381,33.27
2,-0.04634094,0.09538269,0.9943542,1.0,-0.04634094,0.09536743,0.9943542,-29.08891,-7.435638000000001,-19.16048,6.288712,0.4175737,0.7178285,1.0,-0.06143188,0.1539459,0.9861603,37.75792,-7.650848,-20.487920000000003,6.728561,0.3402454,0.7326459,-0.2141054,1.228584,-0.04605567,-0.06250018,0.5767703000000001,0.01137843,5.397376,4.10381,33.27
2,-0.06288147,0.1302643,0.9894714,1.0,-0.03363037,0.09156799,0.995224,-29.31297,-7.461441000000001,-19.11234,6.30957,0.4227526,0.7186697,1.0,-0.0635376,0.131134,0.9893188,37.68481,-7.673538000000001,-20.1877,6.710876,0.3433217,0.7336986999999999,-0.2124002999999999,1.226808,-0.05018049,-0.046709,0.6062244999999999,0.006641904,5.397376,4.10381,33.27
2,-0.06288147,0.1302643,0.9894714,1.0,-0.03363037,0.09156799,0.995224,-29.31297,-7.461441000000001,-19.11234,6.30957,0.4227526,0.7186697,1.0,-0.0635376,0.131134,0.9893188,37.68481,-7.673538000000001,-20.1877,6.710876,0.3433217,0.7336986999999999,-0.2124002999999999,1.226808,-0.05018049,-0.046709,0.6062244999999999,0.006641904,5.397376,4.10381,33.27
2,-0.06288147,0.1302643,0.9894714,1.0,-0.03363037,0.09156799,0.995224,-29.31297,-7.461441000000001,-19.11234,6.30957,0.4227526,0.7186697,1.0,-0.0635376,0.131134,0.9893188,37.68481,-7.673538000000001,-20.1877,6.710876,0.3433217,0.7336986999999999,-0.2124002999999999,1.226808,-0.05018049,-0.046709,0.6062244999999999,0.006641904,5.397376,4.10381,33.27
2,-0.0344695999999999,0.1057128999999999,0.9937897,1.0,-0.03393555,0.1052094,0.993866,-29.23833,-7.51445,-19.32054,6.393341,0.4203391999999999,0.7205018,1.0,-0.05125427,0.12117,0.9913025,37.54524,-7.712173,-19.92883,6.7116240000000005,0.3462763,0.7336689999999999,-0.2124002999999999,1.226808,-0.05018049,-0.046709,0.6062244999999999,0.006641904,5.397376,4.10381,33.27
2,-0.0344695999999999,0.1057128999999999,0.9937897,1.0,-0.03393555,0.1052094,0.993866,-29.23833,-7.51445,-19.32054,6.393341,0.4203391999999999,0.7205018,1.0,-0.05125427,0.12117,0.9913025,37.54524,-7.712173,-19.92883,6.7116240000000005,0.3462763,0.7336689999999999,-0.2124002999999999,1.226808,-0.05018049,-0.046709,0.6062244999999999,0.006641904,5.397376,4.10381,33.27
2,-0.0344695999999999,0.1057128999999999,0.9937897,1.0,-0.03393555,0.1052094,0.993866,-29.23833,-7.51445,-19.32054,6.393341,0.4203391999999999,0.7205018,1.0,-0.05125427,0.12117,0.9913025,37.54524,-7.712173,-19.92883,6.7116240000000005,0.3462763,0.7336689999999999,-0.2124002999999999,1.226808,-0.05018049,-0.046709,0.6062244999999999,0.006641904,5.397376,4.10381,33.27
2,-0.01679993,0.137146,0.9904022,1.0,-0.01716614,0.1357117,0.9905853,-29.026,-7.643264999999999,-19.07867,6.425751,0.4111825,0.7174132,1.0,-0.0056457519999999,0.1811523,0.983429,37.76247,-7.486328,-20.5594,6.704346000000001,0.331382,0.7234738000000001,-0.2100897,1.224326,-0.05632222,-0.02610393,0.6441568,-0.001177203,5.397376,1.952854,33.27
2,-0.01679993,0.137146,0.9904022,1.0,-0.01716614,0.1357117,0.9905853,-29.026,-7.643264999999999,-19.07867,6.425751,0.4111825,0.7174132,1.0,-0.0056457519999999,0.1811523,0.983429,37.76247,-7.486328,-20.5594,6.704346000000001,0.331382,0.7234738000000001,-0.2100897,1.224326,-0.05632222,-0.02610393,0.6441568,-0.001177203,5.397376,1.952854,33.27
2,-0.01679993,0.137146,0.9904022,1.0,-0.01716614,0.1357117,0.9905853,-29.026,-7.643264999999999,-19.07867,6.425751,0.4111825,0.7174132,1.0,-0.0056457519999999,0.1811523,0.983429,37.76247,-7.486328,-20.5594,6.704346000000001,0.331382,0.7234738000000001,-0.2100897,1.224326,-0.05632222,-0.02610393,0.6441568,-0.001177203,5.397376,1.952854,33.27
2,-0.09777832,0.09854126,0.9903107,1.0,-0.09785461,0.098526,0.9902954,-30.00793,-8.47258,-18.28145,6.280945,0.4545289,0.7413063,1.0,-0.06280518,0.1066589,0.9922943,36.8316,-8.391235,-18.822370000000003,6.7601320000000005,0.3722239,0.746188,-0.2066386,1.21823,-0.07455206,0.03506803,0.7315937,-0.04347173,5.397376,1.952854,33.27
2,-0.09777832,0.09854126,0.9903107,1.0,-0.09785461,0.098526,0.9902954,-30.00793,-8.47258,-18.28145,6.280945,0.4545289,0.7413063,1.0,-0.06280518,0.1066589,0.9922943,36.8316,-8.391235,-18.822370000000003,6.7601320000000005,0.3722239,0.746188,-0.2066386,1.21823,-0.07455206,0.03506803,0.7315937,-0.04347173,5.397376,1.952854,33.27
2,-0.09777832,0.09854126,0.9903107,1.0,-0.09785461,0.098526,0.9902954,-30.00793,-8.47258,-18.28145,6.280945,0.4545289,0.7413063,1.0,-0.06280518,0.1066589,0.9922943,36.8316,-8.391235,-18.822370000000003,6.7601320000000005,0.3722239,0.746188,-0.2066386,1.21823,-0.07455206,0.03506803,0.7315937,-0.04347173,5.397376,1.952854,33.27
2,-0.1747742,0.06774902,0.9822693,1.0,-0.1748198999999999,0.06774902,0.982254,-30.5089,-8.745102000000001,-18.8598,5.903656,0.482104,0.7608877,1.0,-0.08326721,0.05607605,0.9949341,36.3743,-8.276016,-19.49088,6.728241000000001,0.3895574,0.7576841,-0.2066386,1.21823,-0.07455206,0.03506803,0.7315937,-0.04347173,5.166736,1.952854,33.27
2,-0.1747742,0.06774902,0.9822693,1.0,-0.1748198999999999,0.06774902,0.982254,-30.5089,-8.745102000000001,-18.8598,5.903656,0.482104,0.7608877,1.0,-0.08326721,0.05607605,0.9949341,36.3743,-8.276016,-19.49088,6.728241000000001,0.3895574,0.7576841,-0.2066386,1.21823,-0.07455206,0.03506803,0.7315937,-0.04347173,5.166736,1.952854,33.27
2,-0.1747742,0.06774902,0.9822693,1.0,-0.1748198999999999,0.06774902,0.982254,-30.5089,-8.745102000000001,-18.8598,5.903656,0.482104,0.7608877,1.0,-0.08326721,0.05607605,0.9949341,36.3743,-8.276016,-19.49088,6.728241000000001,0.3895574,0.7576841,-0.2066386,1.21823,-0.07455206,0.03506803,0.7315937,-0.04347173,5.166736,1.952854,33.27
2,-0.2389069,0.08259583,0.967514,0.9475332,-0.2447357,0.1000671,0.9644011999999998,-30.58121,-8.936066,-18.96767,6.131256,0.4952879,0.7641722,0.9599627,-0.2201691,0.02790833,0.9750519,35.62543,-8.58107,-20.01746,6.765853999999999,0.4347819,0.7792541000000001,-0.2126831,1.207618,-0.09169936,0.1076753999999999,0.7930555,-0.1071956999999999,5.166736,1.952854,33.27
2,-0.2389069,0.08259583,0.967514,0.9475332,-0.2447357,0.1000671,0.9644011999999998,-30.58121,-8.936066,-18.96767,6.131256,0.4952879,0.7641722,0.9599627,-0.2201691,0.02790833,0.9750519,35.62543,-8.58107,-20.01746,6.765853999999999,0.4347819,0.7792541000000001,-0.2126831,1.207618,-0.09169936,0.1076753999999999,0.7930555,-0.1071956999999999,5.166736,1.952854,33.27
2,-0.2389069,0.08259583,0.967514,0.9475332,-0.2447357,0.1000671,0.9644011999999998,-30.58121,-8.936066,-18.96767,6.131256,0.4952879,0.7641722,0.9599627,-0.2201691,0.02790833,0.9750519,35.62543,-8.58107,-20.01746,6.765853999999999,0.4347819,0.7792541000000001,-0.2126831,1.207618,-0.09169936,0.1076753999999999,0.7930555,-0.1071956999999999,5.166736,1.952854,33.27
2,-0.2638855,0.05924988,0.9627228,0.9824403,-0.2784424,0.07116699,0.9578094,-30.06519,-8.383377000000001,-18.81145,6.339996,0.4840411,0.7498329,0.9070521,-0.2420043999999999,0.04144287,0.9693756,36.13138,-8.233077999999999,-19.92868,6.733688000000001,0.4220354999999999,0.7646036,-0.2185875,1.203198,-0.09754896,0.1325895,0.8087255,-0.1293123,5.166736,1.952854,33.27
2,-0.2638855,0.05924988,0.9627228,0.9824403,-0.2784424,0.07116699,0.9578094,-30.06519,-8.383377000000001,-18.81145,6.339996,0.4840411,0.7498329,0.9070521,-0.2420043999999999,0.04144287,0.9693756,36.13138,-8.233077999999999,-19.92868,6.733688000000001,0.4220354999999999,0.7646036,-0.2185875,1.203198,-0.09754896,0.1325895,0.8087255,-0.1293123,5.166736,1.952854,33.27
2,-0.2638855,0.05924988,0.9627228,0.9824403,-0.2784424,0.07116699,0.9578094,-30.06519,-8.383377000000001,-18.81145,6.339996,0.4840411,0.7498329,0.9070521,-0.2420043999999999,0.04144287,0.9693756,36.13138,-8.233077999999999,-19.92868,6.733688000000001,0.4220354999999999,0.7646036,-0.2185875,1.203198,-0.09754896,0.1325895,0.8087255,-0.1293123,5.166736,1.952854,33.27
2,-0.175293,0.1460875999999999,0.9736023,1.0,-0.198288,0.1143646,0.9734344,-29.21782,-8.347397,-17.05789,6.482697,0.4453741,0.7231314,1.0,-0.175293,0.1460875999999999,0.9736023,36.99673,-8.17009,-18.94225,6.845856,0.384517,0.7348666,-0.2242837999999999,1.198676,-0.1013549,0.1546483,0.815465,-0.1475962,5.166736,-12.04639,33.29
2,-0.175293,0.1460875999999999,0.9736023,1.0,-0.198288,0.1143646,0.9734344,-29.21782,-8.347397,-17.05789,6.482697,0.4453741,0.7231314,1.0,-0.175293,0.1460875999999999,0.9736023,36.99673,-8.17009,-18.94225,6.845856,0.384517,0.7348666,-0.2242837999999999,1.198676,-0.1013549,0.1546483,0.815465,-0.1475962,5.166736,-12.04639,33.29
2,-0.175293,0.1460875999999999,0.9736023,1.0,-0.198288,0.1143646,0.9734344,-29.21782,-8.347397,-17.05789,6.482697,0.4453741,0.7231314,1.0,-0.175293,0.1460875999999999,0.9736023,36.99673,-8.17009,-18.94225,6.845856,0.384517,0.7348666,-0.2242837999999999,1.198676,-0.1013549,0.1546483,0.815465,-0.1475962,5.166736,-12.04639,33.29
2,-0.1473999,0.1723022,0.973938,1.0,-0.1497345,0.1364288,0.9792633,-28.78673,-7.905411,-17.69359,6.41568,0.4245347,0.7118276,1.0,-0.1473999,0.1723174999999999,0.973938,37.24831,-8.301895,-18.42128,6.85376,0.3727316,0.7290573,-0.2305343,1.192714,-0.1029484999999999,0.1771181,0.8135585999999999,-0.1693506,5.166736,-12.04639,33.29
2,-0.1473999,0.1723022,0.973938,1.0,-0.1497345,0.1364288,0.9792633,-28.78673,-7.905411,-17.69359,6.41568,0.4245347,0.7118276,1.0,-0.1473999,0.1723174999999999,0.973938,37.24831,-8.301895,-18.42128,6.85376,0.3727316,0.7290573,-0.2305343,1.192714,-0.1029484999999999,0.1771181,0.8135585999999999,-0.1693506,5.166736,-12.04639,33.29
2,-0.1473999,0.1723022,0.973938,1.0,-0.1497345,0.1364288,0.9792633,-28.78673,-7.905411,-17.69359,6.41568,0.4245347,0.7118276,1.0,-0.1473999,0.1723174999999999,0.973938,37.24831,-8.301895,-18.42128,6.85376,0.3727316,0.7290573,-0.2305343,1.192714,-0.1029484999999999,0.1771181,0.8135585999999999,-0.1693506,5.166736,-12.04639,33.29
2,-0.124176,0.2250366,0.9664001,1.0,-0.1165924,0.2016907,0.9724731,-28.597140000000003,-7.334991,-18.28949,6.308624,0.4136701,0.689527,1.0,-0.1267853,0.2331085,0.9641418,37.75319,-7.177292,-19.62859,6.715714,0.3528392,0.6953858,-0.2365087,1.187235,-0.1038797,0.1939061,0.8110363,-0.1884616,5.166736,-12.04639,33.29
2,-0.124176,0.2250366,0.9664001,1.0,-0.1165924,0.2016907,0.9724731,-28.597140000000003,-7.334991,-18.28949,6.308624,0.4136701,0.689527,1.0,-0.1267853,0.2331085,0.9641418,37.75319,-7.177292,-19.62859,6.715714,0.3528392,0.6953858,-0.2365087,1.187235,-0.1038797,0.1939061,0.8110363,-0.1884616,5.166736,-12.04639,33.29
2,-0.124176,0.2250366,0.9664001,1.0,-0.1165924,0.2016907,0.9724731,-28.597140000000003,-7.334991,-18.28949,6.308624,0.4136701,0.689527,1.0,-0.1267853,0.2331085,0.9641418,37.75319,-7.177292,-19.62859,6.715714,0.3528392,0.6953858,-0.2365087,1.187235,-0.1038797,0.1939061,0.8110363,-0.1884616,5.166736,-12.04639,33.29
2,-0.1115723,0.2604828,0.9589996,0.9918607,-0.1117249,0.2602539,0.9590454,-28.45363,-7.018142999999999,-18.38367,6.230728,0.4086618,0.6714394,0.8289347,-0.06977844,0.3260498,0.9427643,37.72844,-6.87326,-19.76176,6.890915,0.3448425,0.6724315,-0.2425731,1.181978,-0.1042432,0.2080402,0.807445,-0.2063288999999999,5.166736,-12.04639,33.29
2,-0.1115723,0.2604828,0.9589996,0.9918607,-0.1117249,0.2602539,0.9590454,-28.45363,-7.018142999999999,-18.38367,6.230728,0.4086618,0.6714394,0.8289347,-0.06977844,0.3260498,0.9427643,37.72844,-6.87326,-19.76176,6.890915,0.3448425,0.6724315,-0.2425731,1.181978,-0.1042432,0.2080402,0.807445,-0.2063288999999999,5.166736,-12.04639,33.29
2,-0.1115723,0.2604828,0.9589996,0.9918607,-0.1117249,0.2602539,0.9590454,-28.45363,-7.018142999999999,-18.38367,6.230728,0.4086618,0.6714394,0.8289347,-0.06977844,0.3260498,0.9427643,37.72844,-6.87326,-19.76176,6.890915,0.3448425,0.6724315,-0.2425731,1.181978,-0.1042432,0.2080402,0.807445,-0.2063288999999999,5.166736,-12.04639,33.29
2,-0.1651154,0.141983,0.9759827,1.0,-0.1857452,0.1350555,0.9732666,-29.3593,-8.633606,-17.941010000000002,6.396774,0.4477376,0.737843,1.0,-0.1613312,0.1432495,0.9764404,36.50253,-7.847046000000001,-19.63208,6.749817,0.3981653,0.7316579000000001,-0.2481728,1.177848,-0.1047968,0.2168512,0.804888,-0.2218089,5.166736,-12.04639,33.29
2,-0.1651154,0.141983,0.9759827,1.0,-0.1857452,0.1350555,0.9732666,-29.3593,-8.633606,-17.941010000000002,6.396774,0.4477376,0.737843,1.0,-0.1613312,0.1432495,0.9764404,36.50253,-7.847046000000001,-19.63208,6.749817,0.3981653,0.7316579000000001,-0.2481728,1.177848,-0.1047968,0.2168512,0.804888,-0.2218089,5.166736,-12.04639,33.29
2,-0.1651154,0.141983,0.9759827,1.0,-0.1857452,0.1350555,0.9732666,-29.3593,-8.633606,-17.941010000000002,6.396774,0.4477376,0.737843,1.0,-0.1613312,0.1432495,0.9764404,36.50253,-7.847046000000001,-19.63208,6.749817,0.3981653,0.7316579000000001,-0.2481728,1.177848,-0.1047968,0.2168512,0.804888,-0.2218089,5.166736,-12.04639,33.29
2,-0.2007141,0.06318665,0.9776001,1.0,-0.2161407,0.07673645,0.9733276,-29.7897,-8.706177,-18.35358,6.222504,0.4657194999999999,0.7535482,1.0,-0.1987,0.06141663,0.9781189,36.2207,-8.139191,-19.64594,6.974213000000001,0.4124482,0.7550640000000001,-0.2539405,1.17394,-0.1049356999999999,0.2212261,0.802743,-0.2351277999999999,5.166736,4.633176,33.29
2,-0.2007141,0.06318665,0.9776001,1.0,-0.2161407,0.07673645,0.9733276,-29.7897,-8.706177,-18.35358,6.222504,0.4657194999999999,0.7535482,1.0,-0.1987,0.06141663,0.9781189,36.2207,-8.139191,-19.64594,6.974213000000001,0.4124482,0.7550640000000001,-0.2539405,1.17394,-0.1049356999999999,0.2212261,0.802743,-0.2351277999999999,5.166736,4.633176,33.29
2,-0.2007141,0.06318665,0.9776001,1.0,-0.2161407,0.07673645,0.9733276,-29.7897,-8.706177,-18.35358,6.222504,0.4657194999999999,0.7535482,1.0,-0.1987,0.06141663,0.9781189,36.2207,-8.139191,-19.64594,6.974213000000001,0.4124482,0.7550640000000001,-0.2539405,1.17394,-0.1049356999999999,0.2212261,0.802743,-0.2351277999999999,5.166736,4.633176,33.29
2,-0.1984253,0.1081085,0.9741211,1.0,-0.2104187,0.1158905,0.9707031,-29.819640000000003,-8.519608,-18.36046,6.312485,0.4659224,0.7416398,1.0,-0.197113,0.107254,0.9744873,36.25813,-8.006516,-19.67265,6.796875,0.4114234999999999,0.7433797,-0.2598602,1.170234,-0.1048411,0.2258295,0.8001543000000001,-0.2472137999999999,5.166736,4.633176,33.29
2,-0.1984253,0.1081085,0.9741211,1.0,-0.2104187,0.1158905,0.9707031,-29.819640000000003,-8.519608,-18.36046,6.312485,0.4659224,0.7416398,1.0,-0.197113,0.107254,0.9744873,36.25813,-8.006516,-19.67265,6.796875,0.4114234999999999,0.7433797,-0.2598602,1.170234,-0.1048411,0.2258295,0.8001543000000001,-0.2472137999999999,5.166736,4.633176,33.29
2,-0.1984253,0.1081085,0.9741211,1.0,-0.2104187,0.1158905,0.9707031,-29.819640000000003,-8.519608,-18.36046,6.312485,0.4659224,0.7416398,1.0,-0.197113,0.107254,0.9744873,36.25813,-8.006516,-19.67265,6.796875,0.4114234999999999,0.7433797,-0.2598602,1.170234,-0.1048411,0.2258295,0.8001543000000001,-0.2472137999999999,5.166736,4.633176,33.29
2,-0.2010956,0.1500854,0.9680023,1.0,-0.2064209,0.1463928,0.9674377,-29.88213,-8.187880999999999,-18.3643,6.396591,0.4674115,0.7265121,1.0,-0.1934662,0.1553497,0.9687195,36.29865,-7.596069,-19.67557,6.706085000000001,0.4100738,0.7221535,-0.2647501,1.167777,-0.1049377,0.22778,0.7995507,-0.2524146,5.166736,4.633176,33.29
2,-0.2010956,0.1500854,0.9680023,1.0,-0.2064209,0.1463928,0.9674377,-29.88213,-8.187880999999999,-18.3643,6.396591,0.4674115,0.7265121,1.0,-0.1934662,0.1553497,0.9687195,36.29865,-7.596069,-19.67557,6.706085000000001,0.4100738,0.7221535,-0.2647501,1.167777,-0.1049377,0.22778,0.7995507,-0.2524146,5.166736,4.633176,33.29
2,-0.2010956,0.1500854,0.9680023,1.0,-0.2064209,0.1463928,0.9674377,-29.88213,-8.187880999999999,-18.3643,6.396591,0.4674115,0.7265121,1.0,-0.1934662,0.1553497,0.9687195,36.29865,-7.596069,-19.67557,6.706085000000001,0.4100738,0.7221535,-0.2647501,1.167777,-0.1049377,0.22778,0.7995507,-0.2524146,5.166736,4.633176,33.29
3,-0.2042389,0.1580047999999999,0.9660797,1.0,-0.2070922999999999,0.154541,0.9660339,-29.88646,-8.164749,-18.37094,6.344498000000001,0.4677207,0.7245281,1.0,-0.2006683,0.1623383,0.9661102,36.29849,-7.578322999999999,-19.67758,6.691116,0.4112807,0.7205191999999999,-0.2696962,1.165502,-0.1051011999999999,0.229454,0.7995614000000001,-0.2575549,5.166736,4.633176,33.29
3,-0.2042389,0.1580047999999999,0.9660797,1.0,-0.2070922999999999,0.154541,0.9660339,-29.88646,-8.164749,-18.37094,6.344498000000001,0.4677207,0.7245281,1.0,-0.2006683,0.1623383,0.9661102,36.29849,-7.578322999999999,-19.67758,6.691116,0.4112807,0.7205191999999999,-0.2696962,1.165502,-0.1051011999999999,0.229454,0.7995614000000001,-0.2575549,5.166736,4.633176,33.29
3,-0.2042389,0.1580047999999999,0.9660797,1.0,-0.2070922999999999,0.154541,0.9660339,-29.88646,-8.164749,-18.37094,6.344498000000001,0.4677207,0.7245281,1.0,-0.2006683,0.1623383,0.9661102,36.29849,-7.578322999999999,-19.67758,6.691116,0.4112807,0.7205191999999999,-0.2696962,1.165502,-0.1051011999999999,0.229454,0.7995614000000001,-0.2575549,5.166736,4.633176,33.29
3,-0.2108765,0.1879578,0.959259,1.0,-0.2080688,0.1695862,0.9632874,-29.88646,-8.166260000000001,-18.37936,6.361877,0.4679313,0.7223824999999999,1.0,-0.2138977,0.208313,0.9543762,36.40602,-7.528656,-19.73567,6.745224,0.4101376,0.7124597,-0.274694,1.163761,-0.1053742,0.2310893,0.8009347,-0.2625097,5.166736,4.633176,33.29
3,-0.2108765,0.1879578,0.959259,1.0,-0.2080688,0.1695862,0.9632874,-29.88646,-8.166260000000001,-18.37936,6.361877,0.4679313,0.7223824999999999,1.0,-0.2138977,0.208313,0.9543762,36.40602,-7.528656,-19.73567,6.745224,0.4101376,0.7124597,-0.274694,1.163761,-0.1053742,0.2310893,0.8009347,-0.2625097,5.166736,4.633176,33.29
3,-0.2108765,0.1879578,0.959259,1.0,-0.2080688,0.1695862,0.9632874,-29.88646,-8.166260000000001,-18.37936,6.361877,0.4679313,0.7223824999999999,1.0,-0.2138977,0.208313,0.9543762,36.40602,-7.528656,-19.73567,6.745224,0.4101376,0.7124597,-0.274694,1.163761,-0.1053742,0.2310893,0.8009347,-0.2625097,5.166736,4.633176,33.29
3,-0.1942291,0.1885071,0.9626617,1.0,-0.2011871,0.1633759,0.9658203000000002,-29.895940000000003,-7.910187,-18.39067,6.341537000000001,0.4671825,0.7152469,1.0,-0.187439,0.2124175999999999,0.9590302,36.35927,-7.354538000000001,-19.73277,6.687973,0.4075584,0.7058321999999999,-0.2769758,1.163175,-0.1069531,0.2320517,0.8035637,-0.2643203,5.166736,7.400177,33.29
3,-0.1942291,0.1885071,0.9626617,1.0,-0.2011871,0.1633759,0.9658203000000002,-29.895940000000003,-7.910187,-18.39067,6.341537000000001,0.4671825,0.7152469,1.0,-0.187439,0.2124175999999999,0.9590302,36.35927,-7.354538000000001,-19.73277,6.687973,0.4075584,0.7058321999999999,-0.2769758,1.163175,-0.1069531,0.2320517,0.8035637,-0.2643203,5.166736,7.400177,33.29
3,-0.1942291,0.1885071,0.9626617,1.0,-0.2011871,0.1633759,0.9658203000000002,-29.895940000000003,-7.910187,-18.39067,6.341537000000001,0.4671825,0.7152469,1.0,-0.187439,0.2124175999999999,0.9590302,36.35927,-7.354538000000001,-19.73277,6.687973,0.4075584,0.7058321999999999,-0.2769758,1.163175,-0.1069531,0.2320517,0.8035637,-0.2643203,5.166736,7.400177,33.29
3,-0.2001953,0.205719,0.957901,1.0,-0.1896972999999999,0.1884766,0.9635773,-29.811490000000003,-8.125122,-18.40898,6.277466,0.4628559,0.7181883000000001,1.0,-0.2111663999999999,0.2238159,0.9514618,36.49173,-7.412201,-19.74951,6.716933999999999,0.4070785999999999,0.7062967,-0.2801475999999999,1.161189,-0.1082948999999999,0.234755,0.8070746999999999,-0.2673973,5.166736,7.400177,33.29
3,-0.2001953,0.205719,0.957901,1.0,-0.1896972999999999,0.1884766,0.9635773,-29.811490000000003,-8.125122,-18.40898,6.277466,0.4628559,0.7181883000000001,1.0,-0.2111663999999999,0.2238159,0.9514618,36.49173,-7.412201,-19.74951,6.716933999999999,0.4070785999999999,0.7062967,-0.2801475999999999,1.161189,-0.1082948999999999,0.234755,0.8070746999999999,-0.2673973,5.166736,7.400177,33.29
3,-0.2001953,0.205719,0.957901,1.0,-0.1896972999999999,0.1884766,0.9635773,-29.811490000000003,-8.125122,-18.40898,6.277466,0.4628559,0.7181883000000001,1.0,-0.2111663999999999,0.2238159,0.9514618,36.49173,-7.412201,-19.74951,6.716933999999999,0.4070785999999999,0.7062967,-0.2801475999999999,1.161189,-0.1082948999999999,0.234755,0.8070746999999999,-0.2673973,5.166736,7.400177,33.29
3,-0.183548,0.203537,0.9617004,0.8923296999999999,-0.1877898999999999,0.2015838999999999,0.9612885,-29.73648,-8.160828,-18.40936,6.389145,0.4602025999999999,0.7174685000000001,0.9795855,-0.178772,0.205719,0.9621277,36.5544,-7.409942999999999,-19.67953,6.583297999999999,0.3998822999999999,0.7078880999999999,-0.2835723,1.15839,-0.1093148,0.2425958,0.808499,-0.2728502,5.166736,7.400177,33.29
3,-0.183548,0.203537,0.9617004,0.8923296999999999,-0.1877898999999999,0.2015838999999999,0.9612885,-29.73648,-8.160828,-18.40936,6.389145,0.4602025999999999,0.7174685000000001,0.9795855,-0.178772,0.205719,0.9621277,36.5544,-7.409942999999999,-19.67953,6.583297999999999,0.3998822999999999,0.7078880999999999,-0.2835723,1.15839,-0.1093148,0.2425958,0.808499,-0.2728502,5.166736,7.400177,33.29
3,-0.183548,0.203537,0.9617004,0.8923296999999999,-0.1877898999999999,0.2015838999999999,0.9612885,-29.73648,-8.160828,-18.40936,6.389145,0.4602025999999999,0.7174685000000001,0.9795855,-0.178772,0.205719,0.9621277,36.5544,-7.409942999999999,-19.67953,6.583297999999999,0.3998822999999999,0.7078880999999999,-0.2835723,1.15839,-0.1093148,0.2425958,0.808499,-0.2728502,5.166736,7.400177,33.29
3,-0.1778259,0.2096405,0.9614563,0.8916611999999999,-0.1777954,0.1845551,0.9665985,-29.572370000000003,-7.852478,-18.35762,6.111115,0.4536168,0.7092994,0.9712204,-0.1777191,0.2404021999999999,0.9542542,36.77621,-7.103302,-19.69298,6.557693,0.3928619,0.6925486999999999,-0.2873733,1.156821,-0.1101865,0.2503727,0.8103206000000001,-0.2764946,5.166736,7.400177,33.29
3,-0.1778259,0.2096405,0.9614563,0.8916611999999999,-0.1777954,0.1845551,0.9665985,-29.572370000000003,-7.852478,-18.35762,6.111115,0.4536168,0.7092994,0.9712204,-0.1777191,0.2404021999999999,0.9542542,36.77621,-7.103302,-19.69298,6.557693,0.3928619,0.6925486999999999,-0.2873733,1.156821,-0.1101865,0.2503727,0.8103206000000001,-0.2764946,5.166736,7.400177,33.29
3,-0.1778259,0.2096405,0.9614563,0.8916611999999999,-0.1777954,0.1845551,0.9665985,-29.572370000000003,-7.852478,-18.35762,6.111115,0.4536168,0.7092994,0.9712204,-0.1777191,0.2404021999999999,0.9542542,36.77621,-7.103302,-19.69298,6.557693,0.3928619,0.6925486999999999,-0.2873733,1.156821,-0.1101865,0.2503727,0.8103206000000001,-0.2764946,5.166736,7.400177,33.29
3,-0.1648865,0.2141571,0.9627686,1.0,-0.1642609,0.1948242,0.96698,-29.53374,-7.604553,-18.35637,5.992462000000001,0.4504434,0.6996313,1.0,-0.1656494,0.241272,0.9562073,36.89067,-6.799515,-19.68549,6.593139999999999,0.3873389,0.6824626,-0.288106,1.157443,-0.1118406,0.2498989,0.8165804,-0.2721953,5.166736,7.400177,33.29
3,-0.1648865,0.2141571,0.9627686,1.0,-0.1642609,0.1948242,0.96698,-29.53374,-7.604553,-18.35637,5.992462000000001,0.4504434,0.6996313,1.0,-0.1656494,0.241272,0.9562073,36.89067,-6.799515,-19.68549,6.593139999999999,0.3873389,0.6824626,-0.288106,1.157443,-0.1118406,0.2498989,0.8165804,-0.2721953,5.166736,7.400177,33.29
3,-0.1648865,0.2141571,0.9627686,1.0,-0.1642609,0.1948242,0.96698,-29.53374,-7.604553,-18.35637,5.992462000000001,0.4504434,0.6996313,1.0,-0.1656494,0.241272,0.9562073,36.89067,-6.799515,-19.68549,6.593139999999999,0.3873389,0.6824626,-0.288106,1.157443,-0.1118406,0.2498989,0.8165804,-0.2721953,5.166736,7.400177,33.29
3,-0.216156,0.2142029,0.9525604,1.0,-0.2294617,0.1952667,0.9535217,-30.06033,-7.890258999999999,-18.45534,6.068314,0.4770478,0.7102523000000001,1.0,-0.2008362,0.235672,0.9508514,36.21761,-6.859055000000001,-19.76328,6.514191,0.4147234,0.6862564999999999,-0.2895574,1.158138,-0.1136934,0.2479677,0.8251144,-0.2676335999999999,5.166736,0.3647223,33.29
3,-0.216156,0.2142029,0.9525604,1.0,-0.2294617,0.1952667,0.9535217,-30.06033,-7.890258999999999,-18.45534,6.068314,0.4770478,0.7102523000000001,1.0,-0.2008362,0.235672,0.9508514,36.21761,-6.859055000000001,-19.76328,6.514191,0.4147234,0.6862564999999999,-0.2895574,1.158138,-0.1136934,0.2479677,0.8251144,-0.2676335999999999,5.166736,0.3647223,33.29
3,-0.216156,0.2142029,0.9525604,1.0,-0.2294617,0.1952667,0.9535217,-30.06033,-7.890258999999999,-18.45534,6.068314,0.4770478,0.7102523000000001,1.0,-0.2008362,0.235672,0.9508514,36.21761,-6.859055000000001,-19.76328,6.514191,0.4147234,0.6862564999999999,-0.2895574,1.158138,-0.1136934,0.2479677,0.8251144,-0.2676335999999999,5.166736,0.3647223,33.29
3,-0.3051453,0.2285461,0.924469,1.0,-0.3194427,0.1971436,0.9268646,-30.76985,-7.912888000000001,-18.66797,6.010345,0.5136752,0.7138783000000001,1.0,-0.2918243,0.2568359,0.9213257,35.46799,-6.756516,-20.02141,6.417358,0.4538997999999999,0.683099,-0.2913766,1.159566,-0.1167362,0.2487697,0.8365318000000002,-0.2601018,5.166736,0.3647223,33.29
3,-0.3051453,0.2285461,0.924469,1.0,-0.3194427,0.1971436,0.9268646,-30.76985,-7.912888000000001,-18.66797,6.010345,0.5136752,0.7138783000000001,1.0,-0.2918243,0.2568359,0.9213257,35.46799,-6.756516,-20.02141,6.417358,0.4538997999999999,0.683099,-0.2913766,1.159566,-0.1167362,0.2487697,0.8365318000000002,-0.2601018,5.166736,0.3647223,33.29
3,-0.3051453,0.2285461,0.924469,1.0,-0.3194427,0.1971436,0.9268646,-30.76985,-7.912888000000001,-18.66797,6.010345,0.5136752,0.7138783000000001,1.0,-0.2918243,0.2568359,0.9213257,35.46799,-6.756516,-20.02141,6.417358,0.4538997999999999,0.683099,-0.2913766,1.159566,-0.1167362,0.2487697,0.8365318000000002,-0.2601018,5.166736,0.3647223,33.29
3,-0.3051453,0.2285461,0.924469,1.0,-0.3194427,0.1971436,0.9268646,-30.76985,-7.912888000000001,-18.66797,6.010345,0.5136752,0.7138783000000001,1.0,-0.2918243,0.2568359,0.9213257,35.46799,-6.756516,-20.02141,6.417358,0.4538997999999999,0.683099,-0.292344,1.162827,-0.1214921,0.2487936,0.8529028000000001,-0.2423241,5.166736,0.3647223,33.29
3,-0.3051453,0.2285461,0.924469,1.0,-0.3194427,0.1971436,0.9268646,-30.76985,-7.912888000000001,-18.66797,6.010345,0.5136752,0.7138783000000001,1.0,-0.2918243,0.2568359,0.9213257,35.46799,-6.756516,-20.02141,6.417358,0.4538997999999999,0.683099,-0.292344,1.162827,-0.1214921,0.2487936,0.8529028000000001,-0.2423241,5.166736,0.3647223,33.29
3,-0.3051453,0.2285461,0.924469,1.0,-0.3194427,0.1971436,0.9268646,-30.76985,-7.912888000000001,-18.66797,6.010345,0.5136752,0.7138783000000001,1.0,-0.2918243,0.2568359,0.9213257,35.46799,-6.756516,-20.02141,6.417358,0.4538997999999999,0.683099,-0.292344,1.162827,-0.1214921,0.2487936,0.8529028000000001,-0.2423241,5.166736,0.3647223,33.29
3,-0.3368073,0.2305756,0.9128876,1.0,-0.3527222,0.1990051,0.9143066,-31.0275,-7.870575,-18.76326,6.054367,0.5271587,0.713799,1.0,-0.3167267,0.2689209,0.9095764,35.17624,-6.696884,-20.13203,6.43074,0.4675478,0.6807802,-0.2935935999999999,1.16844,-0.1286146,0.2448453,0.8755881999999999,-0.2170757999999999,5.166736,0.3647223,33.29
3,-0.3368073,0.2305756,0.9128876,1.0,-0.3527222,0.1990051,0.9143066,-31.0275,-7.870575,-18.76326,6.054367,0.5271587,0.713799,1.0,-0.3167267,0.2689209,0.9095764,35.17624,-6.696884,-20.13203,6.43074,0.4675478,0.6807802,-0.2935935999999999,1.16844,-0.1286146,0.2448453,0.8755881999999999,-0.2170757999999999,5.166736,0.3647223,33.29
3,-0.3368073,0.2305756,0.9128876,1.0,-0.3527222,0.1990051,0.9143066,-31.0275,-7.870575,-18.76326,6.054367,0.5271587,0.713799,1.0,-0.3167267,0.2689209,0.9095764,35.17624,-6.696884,-20.13203,6.43074,0.4675478,0.6807802,-0.2935935999999999,1.16844,-0.1286146,0.2448453,0.8755881999999999,-0.2170757999999999,5.166736,0.3647223,33.29
3,-0.3368073,0.2305756,0.9128876,1.0,-0.3527222,0.1990051,0.9143066,-31.0275,-7.870575,-18.76326,6.054367,0.5271587,0.713799,1.0,-0.3167267,0.2689209,0.9095764,35.17624,-6.696884,-20.13203,6.43074,0.4675478,0.6807802,-0.2968987,1.174576,-0.1357227,0.2406732,0.8981659,-0.1920358999999999,5.166736,0.3647223,33.29
3,-0.3368073,0.2305756,0.9128876,1.0,-0.3527222,0.1990051,0.9143066,-31.0275,-7.870575,-18.76326,6.054367,0.5271587,0.713799,1.0,-0.3167267,0.2689209,0.9095764,35.17624,-6.696884,-20.13203,6.43074,0.4675478,0.6807802,-0.2968987,1.174576,-0.1357227,0.2406732,0.8981659,-0.1920358999999999,5.166736,0.3647223,33.29
3,-0.3368073,0.2305756,0.9128876,1.0,-0.3527222,0.1990051,0.9143066,-31.0275,-7.870575,-18.76326,6.054367,0.5271587,0.713799,1.0,-0.3167267,0.2689209,0.9095764,35.17624,-6.696884,-20.13203,6.43074,0.4675478,0.6807802,-0.2968987,1.174576,-0.1357227,0.2406732,0.8981659,-0.1920358999999999,5.166736,0.3647223,33.29
3,-0.5171661,0.1898803999999999,0.834549,1.0,-0.5213318,0.1695404,0.836319,-32.87425,-7.952423,-19.65985,6.0171660000000005,0.6146603,0.7346516,1.0,-0.4992064999999999,0.2665252999999999,0.8244629000000001,33.34995,-6.8025210000000005,-21.1024,6.401398,0.5586308000000001,0.6983161999999999,-0.3018350999999999,1.180679,-0.1419017,0.2363453,0.917608,-0.1715240999999999,5.166736,0.3647223,33.29
3,-0.5171661,0.1898803999999999,0.834549,1.0,-0.5213318,0.1695404,0.836319,-32.87425,-7.952423,-19.65985,6.0171660000000005,0.6146603,0.7346516,1.0,-0.4992064999999999,0.2665252999999999,0.8244629000000001,33.34995,-6.8025210000000005,-21.1024,6.401398,0.5586308000000001,0.6983161999999999,-0.3018350999999999,1.180679,-0.1419017,0.2363453,0.917608,-0.1715240999999999,5.166736,0.3647223,33.29
3,-0.5171661,0.1898803999999999,0.834549,1.0,-0.5213318,0.1695404,0.836319,-32.87425,-7.952423,-19.65985,6.0171660000000005,0.6146603,0.7346516,1.0,-0.4992064999999999,0.2665252999999999,0.8244629000000001,33.34995,-6.8025210000000005,-21.1024,6.401398,0.5586308000000001,0.6983161999999999,-0.3018350999999999,1.180679,-0.1419017,0.2363453,0.917608,-0.1715240999999999,5.166736,0.3647223,33.29
3,-0.4105377,0.2155914,0.8859863000000001,1.0,-0.417038,0.1891479,0.8889771000000001,-32.063390000000005,-8.084045,-19.13043,5.949066,0.5706996999999999,0.7273012,1.0,-0.4022064,0.2474976,0.8814392,34.25386,-7.166061,-20.47833,6.217041,0.511746,0.704255,-0.3075533,1.186829,-0.1474374,0.230477,0.9341077,-0.1529127,5.166736,-11.36482,33.29
3,-0.4105377,0.2155914,0.8859863000000001,1.0,-0.417038,0.1891479,0.8889771000000001,-32.063390000000005,-8.084045,-19.13043,5.949066,0.5706996999999999,0.7273012,1.0,-0.4022064,0.2474976,0.8814392,34.25386,-7.166061,-20.47833,6.217041,0.511746,0.704255,-0.3075533,1.186829,-0.1474374,0.230477,0.9341077,-0.1529127,5.166736,-11.36482,33.29
3,-0.4105377,0.2155914,0.8859863000000001,1.0,-0.417038,0.1891479,0.8889771000000001,-32.063390000000005,-8.084045,-19.13043,5.949066,0.5706996999999999,0.7273012,1.0,-0.4022064,0.2474976,0.8814392,34.25386,-7.166061,-20.47833,6.217041,0.511746,0.704255,-0.3075533,1.186829,-0.1474374,0.230477,0.9341077,-0.1529127,5.166736,-11.36482,33.29
3,-0.3333587999999999,0.1933746,0.9227448,1.0,-0.3383789,0.1838379,0.9228668,-31.59904,-8.090133999999999,-18.85509,5.724579,0.543029,0.7236235,1.0,-0.3244781,0.210022,0.9222717,34.70995,-7.148361,-20.18562,6.163361,0.4835380999999999,0.7051638000000001,-0.3135547999999999,1.193567,-0.1521041,0.2198342999999999,0.9485264,-0.1352529,5.166736,-11.36482,33.29
3,-0.3333587999999999,0.1933746,0.9227448,1.0,-0.3383789,0.1838379,0.9228668,-31.59904,-8.090133999999999,-18.85509,5.724579,0.543029,0.7236235,1.0,-0.3244781,0.210022,0.9222717,34.70995,-7.148361,-20.18562,6.163361,0.4835380999999999,0.7051638000000001,-0.3135547999999999,1.193567,-0.1521041,0.2198342999999999,0.9485264,-0.1352529,5.166736,-11.36482,33.29
3,-0.3333587999999999,0.1933746,0.9227448,1.0,-0.3383789,0.1838379,0.9228668,-31.59904,-8.090133999999999,-18.85509,5.724579,0.543029,0.7236235,1.0,-0.3244781,0.210022,0.9222717,34.70995,-7.148361,-20.18562,6.163361,0.4835380999999999,0.7051638000000001,-0.3135547999999999,1.193567,-0.1521041,0.2198342999999999,0.9485264,-0.1352529,5.166736,-11.36482,33.29
3,-0.1945647999999999,0.1728516,0.9655304,1.0,-0.1925658999999999,0.1455382999999999,0.9704132,-30.74294,-8.125351,-18.52324,5.593689,0.4926922999999999,0.7251774000000001,1.0,-0.1965485,0.2020874,0.9594269,35.66287,-7.436798,-19.88458,6.134705,0.4317439,0.7110449999999999,-0.3200119,1.200181,-0.1555521,0.2039592999999999,0.9613122,-0.118756,5.166736,-11.36482,33.29
3,-0.1945647999999999,0.1728516,0.9655304,1.0,-0.1925658999999999,0.1455382999999999,0.9704132,-30.74294,-8.125351,-18.52324,5.593689,0.4926922999999999,0.7251774000000001,1.0,-0.1965485,0.2020874,0.9594269,35.66287,-7.436798,-19.88458,6.134705,0.4317439,0.7110449999999999,-0.3200119,1.200181,-0.1555521,0.2039592999999999,0.9613122,-0.118756,5.166736,-11.36482,33.29
3,-0.1945647999999999,0.1728516,0.9655304,1.0,-0.1925658999999999,0.1455382999999999,0.9704132,-30.74294,-8.125351,-18.52324,5.593689,0.4926922999999999,0.7251774000000001,1.0,-0.1965485,0.2020874,0.9594269,35.66287,-7.436798,-19.88458,6.134705,0.4317439,0.7110449999999999,-0.3200119,1.200181,-0.1555521,0.2039592999999999,0.9613122,-0.118756,5.166736,-11.36482,33.29
3,-0.1738280999999999,0.1620941,0.9713287,1.0,-0.1737366,0.1379395,0.9750671,-30.54883,-8.128433,-18.47826,5.6468050000000005,0.4836049,0.7258925,1.0,-0.1737976,0.1872559,0.9667969,35.85054,-7.458664,-19.80988,6.091339,0.4219787999999999,0.7130498000000001,-0.3247220999999999,1.208504,-0.159218,0.185849,0.9718869,-0.1016907,5.166736,-11.36482,33.29
3,-0.1738280999999999,0.1620941,0.9713287,1.0,-0.1737366,0.1379395,0.9750671,-30.54883,-8.128433,-18.47826,5.6468050000000005,0.4836049,0.7258925,1.0,-0.1737976,0.1872559,0.9667969,35.85054,-7.458664,-19.80988,6.091339,0.4219787999999999,0.7130498000000001,-0.3247220999999999,1.208504,-0.159218,0.185849,0.9718869,-0.1016907,5.166736,-11.36482,33.29
3,-0.1738280999999999,0.1620941,0.9713287,1.0,-0.1737366,0.1379395,0.9750671,-30.54883,-8.128433,-18.47826,5.6468050000000005,0.4836049,0.7258925,1.0,-0.1737976,0.1872559,0.9667969,35.85054,-7.458664,-19.80988,6.091339,0.4219787999999999,0.7130498000000001,-0.3247220999999999,1.208504,-0.159218,0.185849,0.9718869,-0.1016907,5.166736,-11.36482,33.29
3,-0.3047333,0.1529541,0.9400635,1.0,-0.3097534,0.1379852,0.9407349,-31.25357,-8.444077,-18.6842,5.691986,0.5271885999999999,0.7396441999999999,1.0,-0.2857208,0.2073364,0.9356079,34.93156,-7.274002,-20.06941,6.044495,0.4700192,0.7077073,-0.3308241,1.215447,-0.1611524,0.1646322,0.9804221,-0.08534723,5.166736,-11.36482,33.29
3,-0.3047333,0.1529541,0.9400635,1.0,-0.3097534,0.1379852,0.9407349,-31.25357,-8.444077,-18.6842,5.691986,0.5271885999999999,0.7396441999999999,1.0,-0.2857208,0.2073364,0.9356079,34.93156,-7.274002,-20.06941,6.044495,0.4700192,0.7077073,-0.3308241,1.215447,-0.1611524,0.1646322,0.9804221,-0.08534723,5.166736,-11.36482,33.29
3,-0.3047333,0.1529541,0.9400635,1.0,-0.3097534,0.1379852,0.9407349,-31.25357,-8.444077,-18.6842,5.691986,0.5271885999999999,0.7396441999999999,1.0,-0.2857208,0.2073364,0.9356079,34.93156,-7.274002,-20.06941,6.044495,0.4700192,0.7077073,-0.3308241,1.215447,-0.1611524,0.1646322,0.9804221,-0.08534723,5.166736,-11.36482,33.29
3,-0.3577728,0.1540832999999999,0.9210052,1.0,-0.3607482999999999,0.1364288,0.9226227,-31.53328,-8.492661,-18.82988,5.766266000000001,0.5442345000000001,0.7439393,1.0,-0.3511353,0.1908417,0.9166565,34.63445,-7.346313,-20.17564,5.951447,0.4903757,0.7146342,-0.3376571,1.221826,-0.1618378999999999,0.1395572,0.9873187,-0.06828195,5.166736,5.586173,33.29
3,-0.3577728,0.1540832999999999,0.9210052,1.0,-0.3607482999999999,0.1364288,0.9226227,-31.53328,-8.492661,-18.82988,5.766266000000001,0.5442345000000001,0.7439393,1.0,-0.3511353,0.1908417,0.9166565,34.63445,-7.346313,-20.17564,5.951447,0.4903757,0.7146342,-0.3376571,1.221826,-0.1618378999999999,0.1395572,0.9873187,-0.06828195,5.166736,5.586173,33.29
3,-0.3577728,0.1540832999999999,0.9210052,1.0,-0.3607482999999999,0.1364288,0.9226227,-31.53328,-8.492661,-18.82988,5.766266000000001,0.5442345000000001,0.7439393,1.0,-0.3511353,0.1908417,0.9166565,34.63445,-7.346313,-20.17564,5.951447,0.4903757,0.7146342,-0.3376571,1.221826,-0.1618378999999999,0.1395572,0.9873187,-0.06828195,5.166736,5.586173,33.29
3,-0.2506561,0.1487579,0.9565735,1.0,-0.2554626,0.1053009,0.9610596,-30.92491,-8.412048,-18.53571,5.582642,0.5080952999999999,0.7412905,1.0,-0.2478333,0.1722107,0.9533539,35.38901,-7.716216999999999,-19.94722,5.995407,0.4486976,0.7258303,-0.3450859,1.2276280000000002,-0.1615757,0.1173539,0.9916499,-0.05345188,5.166736,5.586173,33.29
3,-0.2506561,0.1487579,0.9565735,1.0,-0.2554626,0.1053009,0.9610596,-30.92491,-8.412048,-18.53571,5.582642,0.5080952999999999,0.7412905,1.0,-0.2478333,0.1722107,0.9533539,35.38901,-7.716216999999999,-19.94722,5.995407,0.4486976,0.7258303,-0.3450859,1.2276280000000002,-0.1615757,0.1173539,0.9916499,-0.05345188,5.166736,5.586173,33.29
3,-0.2506561,0.1487579,0.9565735,1.0,-0.2554626,0.1053009,0.9610596,-30.92491,-8.412048,-18.53571,5.582642,0.5080952999999999,0.7412905,1.0,-0.2478333,0.1722107,0.9533539,35.38901,-7.716216999999999,-19.94722,5.995407,0.4486976,0.7258303,-0.3450859,1.2276280000000002,-0.1615757,0.1173539,0.9916499,-0.05345188,5.166736,5.586173,33.29
3,-0.1610869999999999,0.1280059999999999,0.9785919,1.0,-0.1815796,0.09396362,0.9788666,-30.45274,-8.41832,-18.25578,5.587509,0.4816324,0.7395895,1.0,-0.1557922,0.1367187999999999,0.9782715,35.84715,-7.823975,-19.93718,5.901794000000001,0.4188534,0.7338985,-0.3525606,1.232265,-0.1601132,-0.09868801,-0.9938866,0.04178996,5.166736,5.586173,33.29
3,-0.1610869999999999,0.1280059999999999,0.9785919,1.0,-0.1815796,0.09396362,0.9788666,-30.45274,-8.41832,-18.25578,5.587509,0.4816324,0.7395895,1.0,-0.1557922,0.1367187999999999,0.9782715,35.84715,-7.823975,-19.93718,5.901794000000001,0.4188534,0.7338985,-0.3525606,1.232265,-0.1601132,-0.09868801,-0.9938866,0.04178996,5.166736,5.586173,33.29
3,-0.1610869999999999,0.1280059999999999,0.9785919,1.0,-0.1815796,0.09396362,0.9788666,-30.45274,-8.41832,-18.25578,5.587509,0.4816324,0.7395895,1.0,-0.1557922,0.1367187999999999,0.9782715,35.84715,-7.823975,-19.93718,5.901794000000001,0.4188534,0.7338985,-0.3525606,1.232265,-0.1601132,-0.09868801,-0.9938866,0.04178996,5.166736,5.586173,33.29
3,-0.1326141,0.087677,0.9872742,1.0,-0.1326141,0.087677,0.9872742,-29.93625,-8.518524000000001,-18.09314,5.538666,0.4578594,0.7416047,1.0,-0.1323242,0.1219481999999999,0.9836731,36.59871,-8.626526,-17.7124,6.036758,0.3919543,0.738524,-0.3593606,1.235668,-0.1583577,-0.08073934,-0.9949082,0.0320327,5.166736,5.586173,33.29
3,-0.1326141,0.087677,0.9872742,1.0,-0.1326141,0.087677,0.9872742,-29.93625,-8.518524000000001,-18.09314,5.538666,0.4578594,0.7416047,1.0,-0.1323242,0.1219481999999999,0.9836731,36.59871,-8.626526,-17.7124,6.036758,0.3919543,0.738524,-0.3593606,1.235668,-0.1583577,-0.08073934,-0.9949082,0.0320327,5.166736,5.586173,33.29
3,-0.1326141,0.087677,0.9872742,1.0,-0.1326141,0.087677,0.9872742,-29.93625,-8.518524000000001,-18.09314,5.538666,0.4578594,0.7416047,1.0,-0.1323242,0.1219481999999999,0.9836731,36.59871,-8.626526,-17.7124,6.036758,0.3919543,0.738524,-0.3593606,1.235668,-0.1583577,-0.08073934,-0.9949082,0.0320327,5.166736,5.586173,33.29
3,-0.1179656999999999,0.08712769,0.9891815,1.0,-0.1179656999999999,0.08712769,0.9891815,-29.8484,-8.513687,-18.08337,5.639069,0.4528145,0.7414866,1.0,-0.1210785,0.1021576,0.9873657,36.71007,-8.519455,-18.000239999999998,6.028046,0.3863707,0.7411451,-0.3659449,1.238148,-0.1559236,-0.06374431,-0.9949623,0.02382655,5.166736,5.586173,33.29
3,-0.1179656999999999,0.08712769,0.9891815,1.0,-0.1179656999999999,0.08712769,0.9891815,-29.8484,-8.513687,-18.08337,5.639069,0.4528145,0.7414866,1.0,-0.1210785,0.1021576,0.9873657,36.71007,-8.519455,-18.000239999999998,6.028046,0.3863707,0.7411451,-0.3659449,1.238148,-0.1559236,-0.06374431,-0.9949623,0.02382655,5.166736,5.586173,33.29
3,-0.1179656999999999,0.08712769,0.9891815,1.0,-0.1179656999999999,0.08712769,0.9891815,-29.8484,-8.513687,-18.08337,5.639069,0.4528145,0.7414866,1.0,-0.1210785,0.1021576,0.9873657,36.71007,-8.519455,-18.000239999999998,6.028046,0.3863707,0.7411451,-0.3659449,1.238148,-0.1559236,-0.06374431,-0.9949623,0.02382655,5.166736,5.586173,33.29
3,-0.3167114,0.1016083,0.9430542,1.0,-0.3167114,0.1016083,0.9430542,-30.98619,-8.370773,-18.39246,5.56926,0.519666,0.7398486,1.0,-0.2728271,0.1317902,0.9529877,35.29337,-7.747772,-19.42886,5.896057,0.4558082,0.7278385,-0.3721365,1.240289,-0.1534521,-0.05107968,-0.99423,0.0159954,5.166736,-1.190639,33.29
3,-0.3167114,0.1016083,0.9430542,1.0,-0.3167114,0.1016083,0.9430542,-30.98619,-8.370773,-18.39246,5.56926,0.519666,0.7398486,1.0,-0.2728271,0.1317902,0.9529877,35.29337,-7.747772,-19.42886,5.896057,0.4558082,0.7278385,-0.3721365,1.240289,-0.1534521,-0.05107968,-0.99423,0.0159954,5.166736,-1.190639,33.29
3,-0.3167114,0.1016083,0.9430542,1.0,-0.3167114,0.1016083,0.9430542,-30.98619,-8.370773,-18.39246,5.56926,0.519666,0.7398486,1.0,-0.2728271,0.1317902,0.9529877,35.29337,-7.747772,-19.42886,5.896057,0.4558082,0.7278385,-0.3721365,1.240289,-0.1534521,-0.05107968,-0.99423,0.0159954,5.166736,-1.190639,33.29
3,-0.4259032999999999,0.1091156,0.8981476,1.0,-0.4259032999999999,0.1091156,0.8981476,-31.64314,-8.36972,-18.6748,5.510422,0.5582535,0.7435901,1.0,-0.4263457999999999,0.135376,0.8943634,34.62999,-7.678299000000001,-19.72295,5.717239,0.5027159000000001,0.7305104,-0.378071,1.241984,-0.1512305,-0.04115254,-0.9927582,0.007492174,5.166736,-1.190639,33.29
3,-0.4259032999999999,0.1091156,0.8981476,1.0,-0.4259032999999999,0.1091156,0.8981476,-31.64314,-8.36972,-18.6748,5.510422,0.5582535,0.7435901,1.0,-0.4263457999999999,0.135376,0.8943634,34.62999,-7.678299000000001,-19.72295,5.717239,0.5027159000000001,0.7305104,-0.378071,1.241984,-0.1512305,-0.04115254,-0.9927582,0.007492174,5.166736,-1.190639,33.29
3,-0.4259032999999999,0.1091156,0.8981476,1.0,-0.4259032999999999,0.1091156,0.8981476,-31.64314,-8.36972,-18.6748,5.510422,0.5582535,0.7435901,1.0,-0.4263457999999999,0.135376,0.8943634,34.62999,-7.678299000000001,-19.72295,5.717239,0.5027159000000001,0.7305104,-0.378071,1.241984,-0.1512305,-0.04115254,-0.9927582,0.007492174,5.166736,-1.190639,33.29
3,-0.3871918,0.1114502,0.9152222,1.0,-0.3903503,0.1019287,0.9149933,-31.4942,-8.272919,-18.56097,5.297897,0.5477764,0.7394485,1.0,-0.3808440999999999,0.1302032,0.9154205,34.86639,-7.770614999999999,-19.614,5.701675,0.4873953,0.73225,-0.3834015999999999,1.242914,-0.1484247,-0.03386324,-0.9909018,0.002586624,5.166736,-1.190639,33.29
3,-0.3871918,0.1114502,0.9152222,1.0,-0.3903503,0.1019287,0.9149933,-31.4942,-8.272919,-18.56097,5.297897,0.5477764,0.7394485,1.0,-0.3808440999999999,0.1302032,0.9154205,34.86639,-7.770614999999999,-19.614,5.701675,0.4873953,0.73225,-0.3834015999999999,1.242914,-0.1484247,-0.03386324,-0.9909018,0.002586624,5.166736,-1.190639,33.29
3,-0.3871918,0.1114502,0.9152222,1.0,-0.3903503,0.1019287,0.9149933,-31.4942,-8.272919,-18.56097,5.297897,0.5477764,0.7394485,1.0,-0.3808440999999999,0.1302032,0.9154205,34.86639,-7.770614999999999,-19.614,5.701675,0.4873953,0.73225,-0.3834015999999999,1.242914,-0.1484247,-0.03386324,-0.9909018,0.002586624,5.166736,-1.190639,33.29
