Second,eye_comb_direction_x,eye_comb_direction_y,eye_comb_direction_z,eye_r_openness,eye_r_direction_x,eye_r_direction_y,eye_r_direction_z,eye_r_origin_x,eye_r_origin_y,eye_r_origin_z,eye_r_pupil_diameter,eye_r_pupil_position_x,eye_r_pupil_position_y,eye_l_openness,eye_l_direction_x,eye_l_direction_y,eye_l_direction_z,eye_l_origin_x,eye_l_origin_y,eye_l_origin_z,eye_l_pupil_diameter,eye_l_pupil_position_x,eye_l_pupil_position_y,head_position_x,head_position_y,head_position_z,head_rotation_roll,head_rotation_pitch,head_rotation_yaw,EDA,BVP,TMP
0,-0.09872437,0.07208252,0.9924927,1.0,-0.08171082,0.0435791,0.995697,-30.05258,-4.962402,-19.07336,5.804596,0.4539403,0.6462946999999999,1.0,-0.112854,0.0958252,0.9889679,36.76456,-4.783447,-18.60603,6.020981,0.3844242,0.6285715000000001,-0.3530539,1.236819,-0.07072839,0.03733277,0.7223156,-0.04328593,4.437031,0.042234209478673256,32.7254477425792
0,-0.09872437,0.07208252,0.9924927,1.0,-0.08171082,0.0435791,0.995697,-30.05258,-4.962402,-19.07336,5.804596,0.4539403,0.6462946999999999,1.0,-0.112854,0.0958252,0.9889679,36.76456,-4.783447,-18.60603,6.020981,0.3844242,0.6285715000000001,-0.3530539,1.236819,-0.07072839,0.03733277,0.7223156,-0.04328593,4.437031,0.042234209478673256,32.7254477425792
0,-0.09872437,0.07208252,0.9924927,1.0,-0.08171082,0.0435791,0.995697,-30.05258,-4.962402,-19.07336,5.804596,0.4539403,0.6462946999999999,1.0,-0.112854,0.0958252,0.9889679,36.76456,-4.783447,-18.60603,6.020981,0.3844242,0.6285715000000001,-0.3530539,1.236819,-0.07072839,0.03733277,0.7223156,-0.04328593,4.437031,0.042234209478673256,32.7254477425792
0,-0.09872437,0.07208252,0.9924927,1.0,-0.08171082,0.0435791,0.995697,-30.05258,-4.962402,-19.07336,5.804596,0.4539403,0.6462946999999999,1.0,-0.112854,0.0958252,0.9889679,36.76456,-4.783447,-18.60603,6.020981,0.3844242,0.6285715000000001,-0.3530539,1.236819,-0.07072839,0.03733277,0.7223156,-0.04328593,4.437031,0.042234209478673256,32.7254477425792
0,-0.1139374,0.07435608,0.9906921,1.0,-0.08100891,0.04197693,0.9958190999999998,-30.0647,-4.798691000000001,-19.36536,5.669601,0.4542052,0.6441044,1.0,-0.117569,0.07794189,0.9899902,36.78885,-4.636612,-18.71368,5.968704,0.3843117,0.6276773,-0.3528058,1.236642,-0.0707432,0.03811048,0.7222052,-0.04369717,4.437031,0.042234209478673256,32.7254477425792
0,-0.1139374,0.07435608,0.9906921,1.0,-0.08100891,0.04197693,0.9958190999999998,-30.0647,-4.798691000000001,-19.36536,5.669601,0.4542052,0.6441044,1.0,-0.117569,0.07794189,0.9899902,36.78885,-4.636612,-18.71368,5.968704,0.3843117,0.6276773,-0.3528058,1.236642,-0.0707432,0.03811048,0.7222052,-0.04369717,4.437031,0.042234209478673256,32.7254477425792
0,-0.1139374,0.07435608,0.9906921,1.0,-0.08100891,0.04197693,0.9958190999999998,-30.0647,-4.798691000000001,-19.36536,5.669601,0.4542052,0.6441044,1.0,-0.117569,0.07794189,0.9899902,36.78885,-4.636612,-18.71368,5.968704,0.3843117,0.6276773,-0.3528058,1.236642,-0.0707432,0.03811048,0.7222052,-0.04369717,4.437031,0.042234209478673256,32.7254477425792
0,-0.118103,0.08496094,0.9893494,1.0,-0.07572937,0.03970337,0.9963226,-30.09036,-4.655457,-19.63857,5.498505000000001,0.4542052,0.6424147,1.0,-0.1207581,0.08779907,0.9887848,36.82874,-4.608353,-18.75047,5.817307,0.3836020999999999,0.6254444,-0.3527319,1.2365469999999998,-0.07075599,0.03844333,0.722068,-0.04412677,4.437031,0.042234209478673256,32.7254477425792
0,-0.118103,0.08496094,0.9893494,1.0,-0.07572937,0.03970337,0.9963226,-30.09036,-4.655457,-19.63857,5.498505000000001,0.4542052,0.6424147,1.0,-0.1207581,0.08779907,0.9887848,36.82874,-4.608353,-18.75047,5.817307,0.3836020999999999,0.6254444,-0.3527319,1.2365469999999998,-0.07075599,0.03844333,0.722068,-0.04412677,4.437031,0.042234209478673256,32.7254477425792
0,-0.118103,0.08496094,0.9893494,1.0,-0.07572937,0.03970337,0.9963226,-30.09036,-4.655457,-19.63857,5.498505000000001,0.4542052,0.6424147,1.0,-0.1207581,0.08779907,0.9887848,36.82874,-4.608353,-18.75047,5.817307,0.3836020999999999,0.6254444,-0.3527319,1.2365469999999998,-0.07075599,0.03844333,0.722068,-0.04412677,4.437031,0.042234209478673256,32.7254477425792
0,-0.1200408999999999,0.09190369,0.9884949,1.0,-0.07217407,0.03892517,0.9966278,-30.10713,-4.558487,-19.86145,5.45694,0.4541635,0.6415914,1.0,-0.1219788,0.09405518,0.9880524,36.8333,-4.602829,-18.75427,5.799011,0.3836739,0.6243231,-0.3525885,1.236545,-0.0707058,0.03839267,0.7220092,-0.04424097,4.437031,0.042234209478673256,32.7254477425792
0,-0.1200408999999999,0.09190369,0.9884949,1.0,-0.07217407,0.03892517,0.9966278,-30.10713,-4.558487,-19.86145,5.45694,0.4541635,0.6415914,1.0,-0.1219788,0.09405518,0.9880524,36.8333,-4.602829,-18.75427,5.799011,0.3836739,0.6243231,-0.3525885,1.236545,-0.0707058,0.03839267,0.7220092,-0.04424097,4.437031,0.042234209478673256,32.7254477425792
0,-0.1200408999999999,0.09190369,0.9884949,1.0,-0.07217407,0.03892517,0.9966278,-30.10713,-4.558487,-19.86145,5.45694,0.4541635,0.6415914,1.0,-0.1219788,0.09405518,0.9880524,36.8333,-4.602829,-18.75427,5.799011,0.3836739,0.6243231,-0.3525885,1.236545,-0.0707058,0.03839267,0.7220092,-0.04424097,4.437031,0.042234209478673256,32.7254477425792
0,-0.1197968,0.09451294,0.9882813,1.0,-0.07182312,0.03871155,0.9966583,-30.10892,-4.555283,-19.86446,5.451065,0.4541635,0.641566,1.0,-0.1216431,0.09667969,0.9878386999999998,36.8333,-4.602829,-18.75427,5.7997440000000005,0.3836305,0.6239064000000001,-0.3524759,1.236451,-0.07063094,0.03856461,0.7219061,-0.04438524,4.437031,0.042234209478673256,32.7254477425792
0,-0.1197968,0.09451294,0.9882813,1.0,-0.07182312,0.03871155,0.9966583,-30.10892,-4.555283,-19.86446,5.451065,0.4541635,0.641566,1.0,-0.1216431,0.09667969,0.9878386999999998,36.8333,-4.602829,-18.75427,5.7997440000000005,0.3836305,0.6239064000000001,-0.3524759,1.236451,-0.07063094,0.03856461,0.7219061,-0.04438524,4.437031,0.042234209478673256,32.7254477425792
0,-0.1197968,0.09451294,0.9882813,1.0,-0.07182312,0.03871155,0.9966583,-30.10892,-4.555283,-19.86446,5.451065,0.4541635,0.641566,1.0,-0.1216431,0.09667969,0.9878386999999998,36.8333,-4.602829,-18.75427,5.7997440000000005,0.3836305,0.6239064000000001,-0.3524759,1.236451,-0.07063094,0.03856461,0.7219061,-0.04438524,4.437031,0.042234209478673256,32.7254477425792
0,-0.1156616,0.09463501,0.9887695,1.0,-0.06980896,0.03839111,0.9968109,-30.12233,-4.512054,-19.97937,5.448029,0.45426,0.6413539,1.0,-0.121582,0.1019135,0.9873199,36.834,-4.600647,-18.75757,5.757782,0.3836305,0.6230133000000001,-0.3522669,1.236452,-0.07066387,0.03858716,0.7219011,-0.04467423,4.437031,0.042234209478673256,32.7254477425792
0,-0.1156616,0.09463501,0.9887695,1.0,-0.06980896,0.03839111,0.9968109,-30.12233,-4.512054,-19.97937,5.448029,0.45426,0.6413539,1.0,-0.121582,0.1019135,0.9873199,36.834,-4.600647,-18.75757,5.757782,0.3836305,0.6230133000000001,-0.3522669,1.236452,-0.07066387,0.03858716,0.7219011,-0.04467423,4.437031,0.042234209478673256,32.7254477425792
0,-0.1156616,0.09463501,0.9887695,1.0,-0.06980896,0.03839111,0.9968109,-30.12233,-4.512054,-19.97937,5.448029,0.45426,0.6413539,1.0,-0.121582,0.1019135,0.9873199,36.834,-4.600647,-18.75757,5.757782,0.3836305,0.6230133000000001,-0.3522669,1.236452,-0.07066387,0.03858716,0.7219011,-0.04467423,4.437031,0.042234209478673256,32.7254477425792
0,-0.1097565,0.08479309,0.9903259,1.0,-0.06892395,0.03649902,0.9969482,-30.13477,-4.4780120000000005,-20.06039,5.443207,0.4545068,0.6413503,1.0,-0.1218414,0.09912109,0.9875793,36.8343,-4.572815,-18.80333,5.739243,0.3836305,0.6229789000000001,-0.352029,1.236453,-0.07071248,0.03879614,0.7219291999999999,-0.04502455,4.437031,0.042234209478673256,32.7254477425792
0,-0.1097565,0.08479309,0.9903259,1.0,-0.06892395,0.03649902,0.9969482,-30.13477,-4.4780120000000005,-20.06039,5.443207,0.4545068,0.6413503,1.0,-0.1218414,0.09912109,0.9875793,36.8343,-4.572815,-18.80333,5.739243,0.3836305,0.6229789000000001,-0.352029,1.236453,-0.07071248,0.03879614,0.7219291999999999,-0.04502455,4.437031,0.042234209478673256,32.7254477425792
0,-0.1097565,0.08479309,0.9903259,1.0,-0.06892395,0.03649902,0.9969482,-30.13477,-4.4780120000000005,-20.06039,5.443207,0.4545068,0.6413503,1.0,-0.1218414,0.09912109,0.9875793,36.8343,-4.572815,-18.80333,5.739243,0.3836305,0.6229789000000001,-0.352029,1.236453,-0.07071248,0.03879614,0.7219291999999999,-0.04502455,4.437031,0.042234209478673256,32.7254477425792
0,-0.1097565,0.08479309,0.9903259,1.0,-0.06892395,0.03649902,0.9969482,-30.13477,-4.4780120000000005,-20.06039,5.443207,0.4545068,0.6413503,1.0,-0.1218414,0.09912109,0.9875793,36.8343,-4.572815,-18.80333,5.739243,0.3836305,0.6229789000000001,-0.3518345999999999,1.236383,-0.07073551,0.03901818,0.7219019,-0.04497463,4.437031,0.042234209478673256,32.7254477425792
0,-0.1097565,0.08479309,0.9903259,1.0,-0.06892395,0.03649902,0.9969482,-30.13477,-4.4780120000000005,-20.06039,5.443207,0.4545068,0.6413503,1.0,-0.1218414,0.09912109,0.9875793,36.8343,-4.572815,-18.80333,5.739243,0.3836305,0.6229789000000001,-0.3518345999999999,1.236383,-0.07073551,0.03901818,0.7219019,-0.04497463,4.437031,0.042234209478673256,32.7254477425792
0,-0.1097565,0.08479309,0.9903259,1.0,-0.06892395,0.03649902,0.9969482,-30.13477,-4.4780120000000005,-20.06039,5.443207,0.4545068,0.6413503,1.0,-0.1218414,0.09912109,0.9875793,36.8343,-4.572815,-18.80333,5.739243,0.3836305,0.6229789000000001,-0.3518345999999999,1.236383,-0.07073551,0.03901818,0.7219019,-0.04497463,4.437031,0.042234209478673256,32.7254477425792
0,-0.1085204999999999,0.0827179,0.9906464,1.0,-0.06898499,0.036026,0.9969635,-30.1357,-4.474121,-20.06383,5.44249,0.4545422,0.6413503,1.0,-0.1217956999999999,0.09844971,0.9876556,36.834,-4.567917,-18.80443,5.738601999999999,0.3836305,0.6229422,-0.3516557,1.236387,-0.07070476,0.03924337,0.7218653,-0.04503708,4.437031,0.042234209478673256,32.7254477425792
0,-0.1085204999999999,0.0827179,0.9906464,1.0,-0.06898499,0.036026,0.9969635,-30.1357,-4.474121,-20.06383,5.44249,0.4545422,0.6413503,1.0,-0.1217956999999999,0.09844971,0.9876556,36.834,-4.567917,-18.80443,5.738601999999999,0.3836305,0.6229422,-0.3516557,1.236387,-0.07070476,0.03924337,0.7218653,-0.04503708,4.437031,0.042234209478673256,32.7254477425792
0,-0.1085204999999999,0.0827179,0.9906464,1.0,-0.06898499,0.036026,0.9969635,-30.1357,-4.474121,-20.06383,5.44249,0.4545422,0.6413503,1.0,-0.1217956999999999,0.09844971,0.9876556,36.834,-4.567917,-18.80443,5.738601999999999,0.3836305,0.6229422,-0.3516557,1.236387,-0.07070476,0.03924337,0.7218653,-0.04503708,4.437031,0.042234209478673256,32.7254477425792
0,-0.09906006,0.07095337,0.9925385,1.0,-0.07249451,0.03541565,0.9967346,-30.14003,-4.466919,-20.076970000000003,5.437042,0.4552212,0.6413489,1.0,-0.1204987,0.09971619,0.9876862,36.83342,-4.558044000000001,-18.81834,5.663528,0.3834691,0.6224696999999999,-0.3515599,1.236355,-0.07062978,0.03930887,0.7218566999999999,-0.0449385,4.437031,0.042234209478673256,32.7254477425792
0,-0.09906006,0.07095337,0.9925385,1.0,-0.07249451,0.03541565,0.9967346,-30.14003,-4.466919,-20.076970000000003,5.437042,0.4552212,0.6413489,1.0,-0.1204987,0.09971619,0.9876862,36.83342,-4.558044000000001,-18.81834,5.663528,0.3834691,0.6224696999999999,-0.3515599,1.236355,-0.07062978,0.03930887,0.7218566999999999,-0.0449385,4.437031,0.042234209478673256,32.7254477425792
0,-0.09906006,0.07095337,0.9925385,1.0,-0.07249451,0.03541565,0.9967346,-30.14003,-4.466919,-20.076970000000003,5.437042,0.4552212,0.6413489,1.0,-0.1204987,0.09971619,0.9876862,36.83342,-4.558044000000001,-18.81834,5.663528,0.3834691,0.6224696999999999,-0.3515599,1.236355,-0.07062978,0.03930887,0.7218566999999999,-0.0449385,4.437031,0.042234209478673256,32.7254477425792
0,-0.1013184,0.07795715,0.9917908,1.0,-0.07403564,0.0395813,0.99646,-30.138140000000003,-4.525787,-19.95645,5.390167,0.4554282,0.6413571,1.0,-0.121521,0.1064911,0.9868469,36.84622,-4.587494,-18.84158,5.649261,0.3832198,0.6225712,-0.3513533,1.236324,-0.07059541,0.03943792,0.7217276999999999,-0.04475242,4.437031,0.042234209478673256,32.7254477425792
0,-0.1013184,0.07795715,0.9917908,1.0,-0.07403564,0.0395813,0.99646,-30.138140000000003,-4.525787,-19.95645,5.390167,0.4554282,0.6413571,1.0,-0.121521,0.1064911,0.9868469,36.84622,-4.587494,-18.84158,5.649261,0.3832198,0.6225712,-0.3513533,1.236324,-0.07059541,0.03943792,0.7217276999999999,-0.04475242,4.437031,0.042234209478673256,32.7254477425792
0,-0.1013184,0.07795715,0.9917908,1.0,-0.07403564,0.0395813,0.99646,-30.138140000000003,-4.525787,-19.95645,5.390167,0.4554282,0.6413571,1.0,-0.121521,0.1064911,0.9868469,36.84622,-4.587494,-18.84158,5.649261,0.3832198,0.6225712,-0.3513533,1.236324,-0.07059541,0.03943792,0.7217276999999999,-0.04475242,4.437031,0.042234209478673256,32.7254477425792
0,-0.1044769,0.08297729,0.9910431,1.0,-0.07426453,0.04133606,0.9963684000000002,-30.13683,-4.543579,-19.93608,5.381149,0.4554282,0.6414335,1.0,-0.121521,0.1065216,0.9868469,36.84776,-4.587814,-18.84158,5.64917,0.3831704999999999,0.6225712,-0.3513075,1.236294,-0.07045123,0.03948456,0.7217049,-0.04478122,4.437031,38.89563,32.7254477425792
0,-0.1044769,0.08297729,0.9910431,1.0,-0.07426453,0.04133606,0.9963684000000002,-30.13683,-4.543579,-19.93608,5.381149,0.4554282,0.6414335,1.0,-0.121521,0.1065216,0.9868469,36.84776,-4.587814,-18.84158,5.64917,0.3831704999999999,0.6225712,-0.3513075,1.236294,-0.07045123,0.03948456,0.7217049,-0.04478122,4.437031,38.89563,32.7254477425792
0,-0.1044769,0.08297729,0.9910431,1.0,-0.07426453,0.04133606,0.9963684000000002,-30.13683,-4.543579,-19.93608,5.381149,0.4554282,0.6414335,1.0,-0.121521,0.1065216,0.9868469,36.84776,-4.587814,-18.84158,5.64917,0.3831704999999999,0.6225712,-0.3513075,1.236294,-0.07045123,0.03948456,0.7217049,-0.04478122,4.437031,38.89563,32.7254477425792
0,-0.1170654,0.0954895,0.9885101,1.0,-0.07678223,0.04328918,0.9960938,-30.12416,-4.628494,-19.73744,5.369751,0.4554497999999999,0.6418735999999999,1.0,-0.1224213,0.1024627999999999,0.9871674,36.855990000000006,-4.592758,-18.84663,5.636658000000001,0.383035,0.6234025,-0.3511862,1.236304,-0.07039693,0.03938948,0.7217872,-0.04464913,4.437031,38.89563,32.7254477425792
0,-0.1170654,0.0954895,0.9885101,1.0,-0.07678223,0.04328918,0.9960938,-30.12416,-4.628494,-19.73744,5.369751,0.4554497999999999,0.6418735999999999,1.0,-0.1224213,0.1024627999999999,0.9871674,36.855990000000006,-4.592758,-18.84663,5.636658000000001,0.383035,0.6234025,-0.3511862,1.236304,-0.07039693,0.03938948,0.7217872,-0.04464913,4.437031,38.89563,32.7254477425792
0,-0.1170654,0.0954895,0.9885101,1.0,-0.07678223,0.04328918,0.9960938,-30.12416,-4.628494,-19.73744,5.369751,0.4554497999999999,0.6418735999999999,1.0,-0.1224213,0.1024627999999999,0.9871674,36.855990000000006,-4.592758,-18.84663,5.636658000000001,0.383035,0.6234025,-0.3511862,1.236304,-0.07039693,0.03938948,0.7217872,-0.04464913,4.437031,38.89563,32.7254477425792
0,-0.1198883,0.1006622,0.9876556,1.0,-0.07791138,0.04499817,0.9959412,-30.11679,-4.665253,-19.66768,5.374084,0.4554013,0.6420875,1.0,-0.1233520999999999,0.1052856,0.9867554,36.86009,-4.593292,-18.90282,5.640625,0.3830094,0.6235246999999999,-0.3510362,1.236261,-0.07029933,0.0392578,0.7219465,-0.04450556,4.437031,38.89563,32.7254477425792
0,-0.1198883,0.1006622,0.9876556,1.0,-0.07791138,0.04499817,0.9959412,-30.11679,-4.665253,-19.66768,5.374084,0.4554013,0.6420875,1.0,-0.1233520999999999,0.1052856,0.9867554,36.86009,-4.593292,-18.90282,5.640625,0.3830094,0.6235246999999999,-0.3510362,1.236261,-0.07029933,0.0392578,0.7219465,-0.04450556,4.437031,38.89563,32.7254477425792
0,-0.1198883,0.1006622,0.9876556,1.0,-0.07791138,0.04499817,0.9959412,-30.11679,-4.665253,-19.66768,5.374084,0.4554013,0.6420875,1.0,-0.1233520999999999,0.1052856,0.9867554,36.86009,-4.593292,-18.90282,5.640625,0.3830094,0.6235246999999999,-0.3510362,1.236261,-0.07029933,0.0392578,0.7219465,-0.04450556,4.437031,38.89563,32.7254477425792
0,-0.1150055,0.09260559,0.9890289,1.0,-0.07778931,0.04650879,0.9958801,-30.09885,-4.724167,-19.55157,5.385971,0.4548313,0.6425936,1.0,-0.1237946,0.1035156,0.9868774,36.87292,-4.593292,-18.94336,5.648209,0.3826234,0.6241968000000001,-0.3508874,1.236353,-0.07023278,0.03908896,0.7223474,-0.04407588,4.437031,38.89563,32.7254477425792
0,-0.1150055,0.09260559,0.9890289,1.0,-0.07778931,0.04650879,0.9958801,-30.09885,-4.724167,-19.55157,5.385971,0.4548313,0.6425936,1.0,-0.1237946,0.1035156,0.9868774,36.87292,-4.593292,-18.94336,5.648209,0.3826234,0.6241968000000001,-0.3508874,1.236353,-0.07023278,0.03908896,0.7223474,-0.04407588,4.437031,38.89563,32.7254477425792
0,-0.1150055,0.09260559,0.9890289,1.0,-0.07778931,0.04650879,0.9958801,-30.09885,-4.724167,-19.55157,5.385971,0.4548313,0.6425936,1.0,-0.1237946,0.1035156,0.9868774,36.87292,-4.593292,-18.94336,5.648209,0.3826234,0.6241968000000001,-0.3508874,1.236353,-0.07023278,0.03908896,0.7223474,-0.04407588,4.437031,38.89563,32.7254477425792
0,-0.1113739,0.08937073,0.9897461,1.0,-0.07698059,0.04641724,0.9959412,-30.09776,-4.724167,-19.55157,5.385864,0.4546720999999999,0.6426042,1.0,-0.123291,0.1042786,0.9868622,36.87749,-4.592758,-18.96924,5.647263,0.3823787,0.6243103,-0.3504442,1.236591,-0.07040209,0.0390901,0.7226465999999999,-0.0439211,4.437031,38.89563,32.7254477425792
0,-0.1113739,0.08937073,0.9897461,1.0,-0.07698059,0.04641724,0.9959412,-30.09776,-4.724167,-19.55157,5.385864,0.4546720999999999,0.6426042,1.0,-0.123291,0.1042786,0.9868622,36.87749,-4.592758,-18.96924,5.647263,0.3823787,0.6243103,-0.3504442,1.236591,-0.07040209,0.0390901,0.7226465999999999,-0.0439211,4.437031,38.89563,32.7254477425792
0,-0.1113739,0.08937073,0.9897461,1.0,-0.07698059,0.04641724,0.9959412,-30.09776,-4.724167,-19.55157,5.385864,0.4546720999999999,0.6426042,1.0,-0.123291,0.1042786,0.9868622,36.87749,-4.592758,-18.96924,5.647263,0.3823787,0.6243103,-0.3504442,1.236591,-0.07040209,0.0390901,0.7226465999999999,-0.0439211,4.437031,38.89563,32.7254477425792
0,-0.1113739,0.08937073,0.9897461,1.0,-0.07698059,0.04641724,0.9959412,-30.09776,-4.724167,-19.55157,5.385864,0.4546720999999999,0.6426042,1.0,-0.123291,0.1042786,0.9868622,36.87749,-4.592758,-18.96924,5.647263,0.3823787,0.6243103,-0.3503539,1.236611,-0.07042009,0.03901512,0.7229026999999999,-0.04386764,4.437031,38.89563,32.7254477425792
0,-0.1113739,0.08937073,0.9897461,1.0,-0.07698059,0.04641724,0.9959412,-30.09776,-4.724167,-19.55157,5.385864,0.4546720999999999,0.6426042,1.0,-0.123291,0.1042786,0.9868622,36.87749,-4.592758,-18.96924,5.647263,0.3823787,0.6243103,-0.3503539,1.236611,-0.07042009,0.03901512,0.7229026999999999,-0.04386764,4.437031,38.89563,32.7254477425792
0,-0.1113739,0.08937073,0.9897461,1.0,-0.07698059,0.04641724,0.9959412,-30.09776,-4.724167,-19.55157,5.385864,0.4546720999999999,0.6426042,1.0,-0.123291,0.1042786,0.9868622,36.87749,-4.592758,-18.96924,5.647263,0.3823787,0.6243103,-0.3503539,1.236611,-0.07042009,0.03901512,0.7229026999999999,-0.04386764,4.437031,38.89563,32.7254477425792
0,-0.1085968,0.08457947,0.9904785,1.0,-0.07701111,0.04556274,0.9959869,-30.096770000000003,-4.724167,-19.55157,5.387985,0.4546434,0.6427364000000001,1.0,-0.1231994999999999,0.1026458999999999,0.9870453,36.88161,-4.5896,-18.98581,5.646164,0.382213,0.6246229,-0.3502962999999999,1.2366469999999998,-0.0703674,0.03905411,0.7231829000000001,-0.04369674,4.437031,38.89563,32.7254477425792
0,-0.1085968,0.08457947,0.9904785,1.0,-0.07701111,0.04556274,0.9959869,-30.096770000000003,-4.724167,-19.55157,5.387985,0.4546434,0.6427364000000001,1.0,-0.1231994999999999,0.1026458999999999,0.9870453,36.88161,-4.5896,-18.98581,5.646164,0.382213,0.6246229,-0.3502962999999999,1.2366469999999998,-0.0703674,0.03905411,0.7231829000000001,-0.04369674,4.437031,38.89563,32.7254477425792
0,-0.1085968,0.08457947,0.9904785,1.0,-0.07701111,0.04556274,0.9959869,-30.096770000000003,-4.724167,-19.55157,5.387985,0.4546434,0.6427364000000001,1.0,-0.1231994999999999,0.1026458999999999,0.9870453,36.88161,-4.5896,-18.98581,5.646164,0.382213,0.6246229,-0.3502962999999999,1.2366469999999998,-0.0703674,0.03905411,0.7231829000000001,-0.04369674,4.437031,38.89563,32.7254477425792
0,-0.1345978,0.1217346,0.9833832,1.0,-0.1839447,0.07469177,0.9800873,-30.54123,-5.109726,-17.943179999999998,5.452499,0.4851492999999999,0.6356866,1.0,-0.1345825,0.1217346,0.9833832,35.99219,-4.327483999999999,-19.04634,5.614395,0.4126088,0.6140649,-0.350325,1.236707,-0.07034698,0.03917582,0.7235779999999999,-0.0433841,4.437031,-6.340729,32.7254477425792
0,-0.1345978,0.1217346,0.9833832,1.0,-0.1839447,0.07469177,0.9800873,-30.54123,-5.109726,-17.943179999999998,5.452499,0.4851492999999999,0.6356866,1.0,-0.1345825,0.1217346,0.9833832,35.99219,-4.327483999999999,-19.04634,5.614395,0.4126088,0.6140649,-0.350325,1.236707,-0.07034698,0.03917582,0.7235779999999999,-0.0433841,4.437031,-6.340729,32.7254477425792
0,-0.1345978,0.1217346,0.9833832,1.0,-0.1839447,0.07469177,0.9800873,-30.54123,-5.109726,-17.943179999999998,5.452499,0.4851492999999999,0.6356866,1.0,-0.1345825,0.1217346,0.9833832,35.99219,-4.327483999999999,-19.04634,5.614395,0.4126088,0.6140649,-0.350325,1.236707,-0.07034698,0.03917582,0.7235779999999999,-0.0433841,4.437031,-6.340729,32.7254477425792
0,-0.1345978,0.1217346,0.9833832,1.0,-0.1839447,0.07469177,0.9800873,-30.54123,-5.109726,-17.943179999999998,5.452499,0.4851492999999999,0.6356866,1.0,-0.1345825,0.1217346,0.9833832,35.99219,-4.327483999999999,-19.04634,5.614395,0.4126088,0.6140649,-0.3501785,1.2367780000000002,-0.07032734,0.0391203,0.7239734,-0.04293592,4.437031,-6.340729,32.7254477425792
0,-0.1345978,0.1217346,0.9833832,1.0,-0.1839447,0.07469177,0.9800873,-30.54123,-5.109726,-17.943179999999998,5.452499,0.4851492999999999,0.6356866,1.0,-0.1345825,0.1217346,0.9833832,35.99219,-4.327483999999999,-19.04634,5.614395,0.4126088,0.6140649,-0.3501785,1.2367780000000002,-0.07032734,0.0391203,0.7239734,-0.04293592,4.437031,-6.340729,32.7254477425792
0,-0.1345978,0.1217346,0.9833832,1.0,-0.1839447,0.07469177,0.9800873,-30.54123,-5.109726,-17.943179999999998,5.452499,0.4851492999999999,0.6356866,1.0,-0.1345825,0.1217346,0.9833832,35.99219,-4.327483999999999,-19.04634,5.614395,0.4126088,0.6140649,-0.3501785,1.2367780000000002,-0.07032734,0.0391203,0.7239734,-0.04293592,4.437031,-6.340729,32.7254477425792
0,-0.2050018,0.16745,0.964325,1.0,-0.2045898,0.1074676999999999,0.9729156,-30.95538,-4.365112,-19.6498,5.116577,0.5019375,0.6233986,1.0,-0.2050018,0.16745,0.964325,35.67827,-4.164413,-19.15929,5.442596,0.4340479999999999,0.6032305,-0.3503000999999999,1.236849,-0.07023796,0.03896912,0.724382,-0.04243677,4.437031,-6.340729,32.7254477425792
0,-0.2050018,0.16745,0.964325,1.0,-0.2045898,0.1074676999999999,0.9729156,-30.95538,-4.365112,-19.6498,5.116577,0.5019375,0.6233986,1.0,-0.2050018,0.16745,0.964325,35.67827,-4.164413,-19.15929,5.442596,0.4340479999999999,0.6032305,-0.3503000999999999,1.236849,-0.07023796,0.03896912,0.724382,-0.04243677,4.437031,-6.340729,32.7254477425792
0,-0.2050018,0.16745,0.964325,1.0,-0.2045898,0.1074676999999999,0.9729156,-30.95538,-4.365112,-19.6498,5.116577,0.5019375,0.6233986,1.0,-0.2050018,0.16745,0.964325,35.67827,-4.164413,-19.15929,5.442596,0.4340479999999999,0.6032305,-0.3503000999999999,1.236849,-0.07023796,0.03896912,0.724382,-0.04243677,4.437031,-6.340729,32.7254477425792
0,-0.2033234,0.1340485,0.9698792,1.0,-0.2037506,0.105545,0.9733124,-30.94548,-4.366699,-19.64537,5.117813,0.5014849,0.6237001999999999,1.0,-0.202774,0.1605835,0.9659576,35.69682,-4.16507,-19.15518,5.417557,0.4330814,0.6042325,-0.3503969999999999,1.237036,-0.07034397,0.03859715,0.7251126999999999,-0.04206261,4.437031,-6.340729,32.7254477425792
0,-0.2033234,0.1340485,0.9698792,1.0,-0.2037506,0.105545,0.9733124,-30.94548,-4.366699,-19.64537,5.117813,0.5014849,0.6237001999999999,1.0,-0.202774,0.1605835,0.9659576,35.69682,-4.16507,-19.15518,5.417557,0.4330814,0.6042325,-0.3503969999999999,1.237036,-0.07034397,0.03859715,0.7251126999999999,-0.04206261,4.437031,-6.340729,32.7254477425792
0,-0.2033234,0.1340485,0.9698792,1.0,-0.2037506,0.105545,0.9733124,-30.94548,-4.366699,-19.64537,5.117813,0.5014849,0.6237001999999999,1.0,-0.202774,0.1605835,0.9659576,35.69682,-4.16507,-19.15518,5.417557,0.4330814,0.6042325,-0.3503969999999999,1.237036,-0.07034397,0.03859715,0.7251126999999999,-0.04206261,4.437031,-6.340729,32.7254477425792
0,-0.2034148999999999,0.134552,0.9697876,1.0,-0.204483,0.1120605,0.9724274,-30.91144,-4.410065,-19.64996,5.093567,0.5005571,0.6240701999999999,1.0,-0.2022247,0.1574097,0.9665985,35.71565,-4.166336,-19.15115,5.387466000000001,0.4323933,0.6046841,-0.35041,1.237208,-0.0703665,0.03819397,0.725965,-0.04147105,4.437031,-27.33026,33.27
0,-0.2034148999999999,0.134552,0.9697876,1.0,-0.204483,0.1120605,0.9724274,-30.91144,-4.410065,-19.64996,5.093567,0.5005571,0.6240701999999999,1.0,-0.2022247,0.1574097,0.9665985,35.71565,-4.166336,-19.15115,5.387466000000001,0.4323933,0.6046841,-0.35041,1.237208,-0.0703665,0.03819397,0.725965,-0.04147105,4.437031,-27.33026,33.27
0,-0.2034148999999999,0.134552,0.9697876,1.0,-0.204483,0.1120605,0.9724274,-30.91144,-4.410065,-19.64996,5.093567,0.5005571,0.6240701999999999,1.0,-0.2022247,0.1574097,0.9665985,35.71565,-4.166336,-19.15115,5.387466000000001,0.4323933,0.6046841,-0.35041,1.237208,-0.0703665,0.03819397,0.725965,-0.04147105,4.437031,-27.33026,33.27
0,-0.2012482,0.1316986,0.9706421,1.0,-0.203949,0.1074982,0.973053,-30.8934,-4.410446,-19.6537,5.075256,0.4998964,0.6248016,1.0,-0.1983947999999999,0.1561127,0.9676056,35.7438,-4.167984,-19.14702,5.324936,0.4309055,0.6047829,-0.3504812,1.2373379999999998,-0.07051453,0.03831958,0.7269025,-0.04081532,4.437031,-27.33026,33.27
0,-0.2012482,0.1316986,0.9706421,1.0,-0.203949,0.1074982,0.973053,-30.8934,-4.410446,-19.6537,5.075256,0.4998964,0.6248016,1.0,-0.1983947999999999,0.1561127,0.9676056,35.7438,-4.167984,-19.14702,5.324936,0.4309055,0.6047829,-0.3504812,1.2373379999999998,-0.07051453,0.03831958,0.7269025,-0.04081532,4.437031,-27.33026,33.27
0,-0.2012482,0.1316986,0.9706421,1.0,-0.203949,0.1074982,0.973053,-30.8934,-4.410446,-19.6537,5.075256,0.4998964,0.6248016,1.0,-0.1983947999999999,0.1561127,0.9676056,35.7438,-4.167984,-19.14702,5.324936,0.4309055,0.6047829,-0.3504812,1.2373379999999998,-0.07051453,0.03831958,0.7269025,-0.04081532,4.437031,-27.33026,33.27
0,-0.2019501,0.1317139,0.9704895,1.0,-0.2049561,0.1071319999999999,0.9728851,-30.88783,-4.411087,-19.6528,5.072174,0.4998787999999999,0.6248763,1.0,-0.1988373,0.1559906,0.9675293,35.75626,-4.168533,-19.1465,5.323105,0.4305792,0.6048102,-0.350576,1.237455,-0.07066712,0.03828501,0.7280260000000001,-0.04016869,4.437031,-27.33026,33.27
0,-0.2019501,0.1317139,0.9704895,1.0,-0.2049561,0.1071319999999999,0.9728851,-30.88783,-4.411087,-19.6528,5.072174,0.4998787999999999,0.6248763,1.0,-0.1988373,0.1559906,0.9675293,35.75626,-4.168533,-19.1465,5.323105,0.4305792,0.6048102,-0.350576,1.237455,-0.07066712,0.03828501,0.7280260000000001,-0.04016869,4.437031,-27.33026,33.27
0,-0.2019501,0.1317139,0.9704895,1.0,-0.2049561,0.1071319999999999,0.9728851,-30.88783,-4.411087,-19.6528,5.072174,0.4998787999999999,0.6248763,1.0,-0.1988373,0.1559906,0.9675293,35.75626,-4.168533,-19.1465,5.323105,0.4305792,0.6048102,-0.350576,1.237455,-0.07066712,0.03828501,0.7280260000000001,-0.04016869,4.437031,-27.33026,33.27
0,-0.2019501,0.1317139,0.9704895,1.0,-0.2049561,0.1071319999999999,0.9728851,-30.88783,-4.411087,-19.6528,5.072174,0.4998787999999999,0.6248763,1.0,-0.1988373,0.1559906,0.9675293,35.75626,-4.168533,-19.1465,5.323105,0.4305792,0.6048102,-0.3507046,1.2376969999999998,-0.07076016,0.03817338,0.7290409999999999,-0.03946979,4.437031,-27.33026,33.27
0,-0.2019501,0.1317139,0.9704895,1.0,-0.2049561,0.1071319999999999,0.9728851,-30.88783,-4.411087,-19.6528,5.072174,0.4998787999999999,0.6248763,1.0,-0.1988373,0.1559906,0.9675293,35.75626,-4.168533,-19.1465,5.323105,0.4305792,0.6048102,-0.3507046,1.2376969999999998,-0.07076016,0.03817338,0.7290409999999999,-0.03946979,4.437031,-27.33026,33.27
0,-0.2019501,0.1317139,0.9704895,1.0,-0.2049561,0.1071319999999999,0.9728851,-30.88783,-4.411087,-19.6528,5.072174,0.4998787999999999,0.6248763,1.0,-0.1988373,0.1559906,0.9675293,35.75626,-4.168533,-19.1465,5.323105,0.4305792,0.6048102,-0.3507046,1.2376969999999998,-0.07076016,0.03817338,0.7290409999999999,-0.03946979,4.437031,-27.33026,33.27
0,-0.2001343,0.1306458,0.9710083,1.0,-0.2039947999999999,0.105896,0.9732208,-30.87167,-4.414626999999999,-19.6528,5.067612,0.4992145999999999,0.6251665,1.0,-0.1961822999999999,0.1552429,0.9681854,35.76825,-4.170944,-19.14622,5.312271,0.4297722,0.6049678,-0.3507618,1.237882,-0.07099903,0.03755513,0.7300604,-0.03876122,4.437031,-27.33026,33.27
0,-0.2001343,0.1306458,0.9710083,1.0,-0.2039947999999999,0.105896,0.9732208,-30.87167,-4.414626999999999,-19.6528,5.067612,0.4992145999999999,0.6251665,1.0,-0.1961822999999999,0.1552429,0.9681854,35.76825,-4.170944,-19.14622,5.312271,0.4297722,0.6049678,-0.3507618,1.237882,-0.07099903,0.03755513,0.7300604,-0.03876122,4.437031,-27.33026,33.27
0,-0.2001343,0.1306458,0.9710083,1.0,-0.2039947999999999,0.105896,0.9732208,-30.87167,-4.414626999999999,-19.6528,5.067612,0.4992145999999999,0.6251665,1.0,-0.1961822999999999,0.1552429,0.9681854,35.76825,-4.170944,-19.14622,5.312271,0.4297722,0.6049678,-0.3507618,1.237882,-0.07099903,0.03755513,0.7300604,-0.03876122,4.437031,-27.33026,33.27
0,-0.1976012999999999,0.1300201,0.9716034,1.0,-0.1995392,0.1062775,0.9741058,-30.87161,-4.419815,-19.6528,5.05452,0.498517,0.6252154999999999,1.0,-0.1955414,0.1537933,0.9685516,35.77507,-4.173019,-19.14622,5.301468,0.4294494,0.6052506999999999,-0.3508829,1.238138,-0.07121727,0.03670127,0.7310714,-0.03791762,4.437031,-27.33026,33.27
0,-0.1976012999999999,0.1300201,0.9716034,1.0,-0.1995392,0.1062775,0.9741058,-30.87161,-4.419815,-19.6528,5.05452,0.498517,0.6252154999999999,1.0,-0.1955414,0.1537933,0.9685516,35.77507,-4.173019,-19.14622,5.301468,0.4294494,0.6052506999999999,-0.3508829,1.238138,-0.07121727,0.03670127,0.7310714,-0.03791762,4.437031,-27.33026,33.27
0,-0.1976012999999999,0.1300201,0.9716034,1.0,-0.1995392,0.1062775,0.9741058,-30.87161,-4.419815,-19.6528,5.05452,0.498517,0.6252154999999999,1.0,-0.1955414,0.1537933,0.9685516,35.77507,-4.173019,-19.14622,5.301468,0.4294494,0.6052506999999999,-0.3508829,1.238138,-0.07121727,0.03670127,0.7310714,-0.03791762,4.437031,-27.33026,33.27
0,-0.1976012999999999,0.1300201,0.9716034,1.0,-0.1995392,0.1062775,0.9741058,-30.87161,-4.419815,-19.6528,5.05452,0.498517,0.6252154999999999,1.0,-0.1955414,0.1537933,0.9685516,35.77507,-4.173019,-19.14622,5.301468,0.4294494,0.6052506999999999,-0.3510094,1.238383,-0.07145229,0.03593224,0.7320568000000001,-0.03737983,4.437031,-39.67252,33.27
0,-0.1976012999999999,0.1300201,0.9716034,1.0,-0.1995392,0.1062775,0.9741058,-30.87161,-4.419815,-19.6528,5.05452,0.498517,0.6252154999999999,1.0,-0.1955414,0.1537933,0.9685516,35.77507,-4.173019,-19.14622,5.301468,0.4294494,0.6052506999999999,-0.3510094,1.238383,-0.07145229,0.03593224,0.7320568000000001,-0.03737983,4.437031,-39.67252,33.27
0,-0.1976012999999999,0.1300201,0.9716034,1.0,-0.1995392,0.1062775,0.9741058,-30.87161,-4.419815,-19.6528,5.05452,0.498517,0.6252154999999999,1.0,-0.1955414,0.1537933,0.9685516,35.77507,-4.173019,-19.14622,5.301468,0.4294494,0.6052506999999999,-0.3510094,1.238383,-0.07145229,0.03593224,0.7320568000000001,-0.03737983,4.437031,-39.67252,33.27
1,-0.1976012999999999,0.1300201,0.9716034,1.0,-0.1995392,0.1062775,0.9741058,-30.87161,-4.419815,-19.6528,5.05452,0.498517,0.6252154999999999,1.0,-0.1955414,0.1537933,0.9685516,35.77507,-4.173019,-19.14622,5.301468,0.4294494,0.6052506999999999,-0.351043,1.238598,-0.07172236,0.03540507,0.7329581000000001,-0.03691567,4.437031,-39.67252,33.27
1,-0.1976012999999999,0.1300201,0.9716034,1.0,-0.1995392,0.1062775,0.9741058,-30.87161,-4.419815,-19.6528,5.05452,0.498517,0.6252154999999999,1.0,-0.1955414,0.1537933,0.9685516,35.77507,-4.173019,-19.14622,5.301468,0.4294494,0.6052506999999999,-0.351043,1.238598,-0.07172236,0.03540507,0.7329581000000001,-0.03691567,4.437031,-39.67252,33.27
1,-0.1976012999999999,0.1300201,0.9716034,1.0,-0.1995392,0.1062775,0.9741058,-30.87161,-4.419815,-19.6528,5.05452,0.498517,0.6252154999999999,1.0,-0.1955414,0.1537933,0.9685516,35.77507,-4.173019,-19.14622,5.301468,0.4294494,0.6052506999999999,-0.351043,1.238598,-0.07172236,0.03540507,0.7329581000000001,-0.03691567,4.437031,-39.67252,33.27
1,-0.1667938,0.1385193,0.9761963,1.0,-0.1774597,0.0955658,0.9794617,-30.60771,-4.715668,-18.86734,4.9958800000000005,0.4866031,0.6283788,1.0,-0.1667938,0.1385345,0.9761963,36.05284,-4.281723,-19.05452,5.258667,0.4159535,0.6098925999999999,-0.3514219999999999,1.238841,-0.07188031,0.03502036,0.7341167,-0.03615343,4.437031,-39.67252,33.27
1,-0.1667938,0.1385193,0.9761963,1.0,-0.1774597,0.0955658,0.9794617,-30.60771,-4.715668,-18.86734,4.9958800000000005,0.4866031,0.6283788,1.0,-0.1667938,0.1385345,0.9761963,36.05284,-4.281723,-19.05452,5.258667,0.4159535,0.6098925999999999,-0.3514219999999999,1.238841,-0.07188031,0.03502036,0.7341167,-0.03615343,4.437031,-39.67252,33.27
1,-0.1667938,0.1385193,0.9761963,1.0,-0.1774597,0.0955658,0.9794617,-30.60771,-4.715668,-18.86734,4.9958800000000005,0.4866031,0.6283788,1.0,-0.1667938,0.1385345,0.9761963,36.05284,-4.281723,-19.05452,5.258667,0.4159535,0.6098925999999999,-0.3514219999999999,1.238841,-0.07188031,0.03502036,0.7341167,-0.03615343,4.437031,-39.67252,33.27
1,-0.1667938,0.1385193,0.9761963,1.0,-0.1774597,0.0955658,0.9794617,-30.60771,-4.715668,-18.86734,4.9958800000000005,0.4866031,0.6283788,1.0,-0.1667938,0.1385345,0.9761963,36.05284,-4.281723,-19.05452,5.258667,0.4159535,0.6098925999999999,-0.3515107999999999,1.238899,-0.07195994,0.0350329,0.7345364999999999,-0.03556187,4.437031,-39.67252,33.27
1,-0.1667938,0.1385193,0.9761963,1.0,-0.1774597,0.0955658,0.9794617,-30.60771,-4.715668,-18.86734,4.9958800000000005,0.4866031,0.6283788,1.0,-0.1667938,0.1385345,0.9761963,36.05284,-4.281723,-19.05452,5.258667,0.4159535,0.6098925999999999,-0.3515107999999999,1.238899,-0.07195994,0.0350329,0.7345364999999999,-0.03556187,4.437031,-39.67252,33.27
1,-0.1667938,0.1385193,0.9761963,1.0,-0.1774597,0.0955658,0.9794617,-30.60771,-4.715668,-18.86734,4.9958800000000005,0.4866031,0.6283788,1.0,-0.1667938,0.1385345,0.9761963,36.05284,-4.281723,-19.05452,5.258667,0.4159535,0.6098925999999999,-0.3515107999999999,1.238899,-0.07195994,0.0350329,0.7345364999999999,-0.03556187,4.437031,-39.67252,33.27
1,-0.177475,0.1753387,0.9683685,1.0,-0.1757812999999999,0.1065521,0.9786377,-30.69421,-4.422318,-19.45522,5.091614,0.4891379,0.6231806,1.0,-0.177475,0.1754608,0.9683533,35.943909999999995,-4.185974,-19.11275,5.266159,0.4212787999999999,0.6017461,-0.3519396999999999,1.239088,-0.07225841,0.03462829,0.7353211,-0.0348977,4.437031,30.09337,33.27
1,-0.177475,0.1753387,0.9683685,1.0,-0.1757812999999999,0.1065521,0.9786377,-30.69421,-4.422318,-19.45522,5.091614,0.4891379,0.6231806,1.0,-0.177475,0.1754608,0.9683533,35.943909999999995,-4.185974,-19.11275,5.266159,0.4212787999999999,0.6017461,-0.3519396999999999,1.239088,-0.07225841,0.03462829,0.7353211,-0.0348977,4.437031,30.09337,33.27
1,-0.177475,0.1753387,0.9683685,1.0,-0.1757812999999999,0.1065521,0.9786377,-30.69421,-4.422318,-19.45522,5.091614,0.4891379,0.6231806,1.0,-0.177475,0.1754608,0.9683533,35.943909999999995,-4.185974,-19.11275,5.266159,0.4212787999999999,0.6017461,-0.3519396999999999,1.239088,-0.07225841,0.03462829,0.7353211,-0.0348977,4.437031,30.09337,33.27
1,-0.172699,0.1413116,0.9747772,1.0,-0.1685181,0.1064148,0.9799347,-30.66905,-4.409668,-19.50601,5.107925,0.4872037,0.6232494000000001,1.0,-0.176239,0.1721802,0.969162,35.98857,-4.187729,-19.0986,5.321411,0.4196204,0.602215,-0.3525955,1.239098,-0.0721218,0.03473689,0.7355403,-0.03379497,4.437031,30.09337,33.27
1,-0.172699,0.1413116,0.9747772,1.0,-0.1685181,0.1064148,0.9799347,-30.66905,-4.409668,-19.50601,5.107925,0.4872037,0.6232494000000001,1.0,-0.176239,0.1721802,0.969162,35.98857,-4.187729,-19.0986,5.321411,0.4196204,0.602215,-0.3525955,1.239098,-0.0721218,0.03473689,0.7355403,-0.03379497,4.437031,30.09337,33.27
1,-0.172699,0.1413116,0.9747772,1.0,-0.1685181,0.1064148,0.9799347,-30.66905,-4.409668,-19.50601,5.107925,0.4872037,0.6232494000000001,1.0,-0.176239,0.1721802,0.969162,35.98857,-4.187729,-19.0986,5.321411,0.4196204,0.602215,-0.3525955,1.239098,-0.0721218,0.03473689,0.7355403,-0.03379497,4.437031,30.09337,33.27
1,-0.1711578,0.1406707999999999,0.9751434,1.0,-0.1679687999999999,0.1063079999999999,0.9800261999999998,-30.6631,-4.416412,-19.48033,5.119155999999999,0.4869229,0.6232494000000001,1.0,-0.1738434,0.1713257,0.9697418,36.00447,-4.18895,-19.09317,5.341858,0.4187194,0.6023453000000001,-0.3527598,1.239255,-0.07213143,0.03424643,0.7357952,-0.03342844,4.437031,30.09337,33.27
1,-0.1711578,0.1406707999999999,0.9751434,1.0,-0.1679687999999999,0.1063079999999999,0.9800261999999998,-30.6631,-4.416412,-19.48033,5.119155999999999,0.4869229,0.6232494000000001,1.0,-0.1738434,0.1713257,0.9697418,36.00447,-4.18895,-19.09317,5.341858,0.4187194,0.6023453000000001,-0.3527598,1.239255,-0.07213143,0.03424643,0.7357952,-0.03342844,4.437031,30.09337,33.27
1,-0.1711578,0.1406707999999999,0.9751434,1.0,-0.1679687999999999,0.1063079999999999,0.9800261999999998,-30.6631,-4.416412,-19.48033,5.119155999999999,0.4869229,0.6232494000000001,1.0,-0.1738434,0.1713257,0.9697418,36.00447,-4.18895,-19.09317,5.341858,0.4187194,0.6023453000000001,-0.3527598,1.239255,-0.07213143,0.03424643,0.7357952,-0.03342844,4.437031,30.09337,33.27
1,-0.1709747,0.1383362,0.9755096,1.0,-0.1652374,0.1033783,0.9808044,-30.63873,-4.38887,-19.52855,5.158173000000001,0.4857082,0.623302,1.0,-0.1759644,0.1697997999999999,0.969635,36.04065,-4.1905980000000005,-19.0818,5.387665,0.4178800999999999,0.6025835999999999,-0.3531167999999999,1.239315,-0.07208771,0.03350447,0.7362816,-0.0330751999999999,4.437031,30.09337,33.27
1,-0.1709747,0.1383362,0.9755096,1.0,-0.1652374,0.1033783,0.9808044,-30.63873,-4.38887,-19.52855,5.158173000000001,0.4857082,0.623302,1.0,-0.1759644,0.1697997999999999,0.969635,36.04065,-4.1905980000000005,-19.0818,5.387665,0.4178800999999999,0.6025835999999999,-0.3531167999999999,1.239315,-0.07208771,0.03350447,0.7362816,-0.0330751999999999,4.437031,30.09337,33.27
1,-0.1709747,0.1383362,0.9755096,1.0,-0.1652374,0.1033783,0.9808044,-30.63873,-4.38887,-19.52855,5.158173000000001,0.4857082,0.623302,1.0,-0.1759644,0.1697997999999999,0.969635,36.04065,-4.1905980000000005,-19.0818,5.387665,0.4178800999999999,0.6025835999999999,-0.3531167999999999,1.239315,-0.07208771,0.03350447,0.7362816,-0.0330751999999999,4.437031,30.09337,33.27
1,-0.1709747,0.1383362,0.9755096,1.0,-0.1652374,0.1033783,0.9808044,-30.63873,-4.38887,-19.52855,5.158173000000001,0.4857082,0.623302,1.0,-0.1759644,0.1697997999999999,0.969635,36.04065,-4.1905980000000005,-19.0818,5.387665,0.4178800999999999,0.6025835999999999,-0.3532945,1.2394,-0.07214126,0.03327519,0.7367882,-0.03247358,4.437031,3.946426,33.27
1,-0.1709747,0.1383362,0.9755096,1.0,-0.1652374,0.1033783,0.9808044,-30.63873,-4.38887,-19.52855,5.158173000000001,0.4857082,0.623302,1.0,-0.1759644,0.1697997999999999,0.969635,36.04065,-4.1905980000000005,-19.0818,5.387665,0.4178800999999999,0.6025835999999999,-0.3532945,1.2394,-0.07214126,0.03327519,0.7367882,-0.03247358,4.437031,3.946426,33.27
1,-0.1709747,0.1383362,0.9755096,1.0,-0.1652374,0.1033783,0.9808044,-30.63873,-4.38887,-19.52855,5.158173000000001,0.4857082,0.623302,1.0,-0.1759644,0.1697997999999999,0.969635,36.04065,-4.1905980000000005,-19.0818,5.387665,0.4178800999999999,0.6025835999999999,-0.3532945,1.2394,-0.07214126,0.03327519,0.7367882,-0.03247358,4.437031,3.946426,33.27
1,-0.1503296,0.1573333999999999,0.9760284,1.0,-0.1310271999999999,0.09388733,0.986908,-30.43614,-4.241882,-20.13356,5.212296,0.4739210999999999,0.6257676,1.0,-0.1503754,0.1575012,0.9759979,36.29025,-4.369141,-18.67581,5.577621,0.4059105,0.6063294,-0.3535203,1.239727,-0.07221961,0.03259717,0.7379741999999999,-0.03143536,4.437031,3.946426,33.27
1,-0.1503296,0.1573333999999999,0.9760284,1.0,-0.1310271999999999,0.09388733,0.986908,-30.43614,-4.241882,-20.13356,5.212296,0.4739210999999999,0.6257676,1.0,-0.1503754,0.1575012,0.9759979,36.29025,-4.369141,-18.67581,5.577621,0.4059105,0.6063294,-0.3535203,1.239727,-0.07221961,0.03259717,0.7379741999999999,-0.03143536,4.437031,3.946426,33.27
1,-0.1503296,0.1573333999999999,0.9760284,1.0,-0.1310271999999999,0.09388733,0.986908,-30.43614,-4.241882,-20.13356,5.212296,0.4739210999999999,0.6257676,1.0,-0.1503754,0.1575012,0.9759979,36.29025,-4.369141,-18.67581,5.577621,0.4059105,0.6063294,-0.3535203,1.239727,-0.07221961,0.03259717,0.7379741999999999,-0.03143536,4.437031,3.946426,33.27
1,-0.1414185,0.1533051,0.9779968,1.0,-0.1325684,0.1018677,0.9859161,-30.35466,-4.348129,-19.91908,5.266724,0.4715854,0.6258438000000001,1.0,-0.1414642,0.1535187,0.9779663,36.32776,-4.364227,-18.71283,5.572632,0.4032747,0.607062,-0.3536710999999999,1.239909,-0.07218593,0.0319593,0.7386302,-0.03066256,4.437031,3.946426,33.27
1,-0.1414185,0.1533051,0.9779968,1.0,-0.1325684,0.1018677,0.9859161,-30.35466,-4.348129,-19.91908,5.266724,0.4715854,0.6258438000000001,1.0,-0.1414642,0.1535187,0.9779663,36.32776,-4.364227,-18.71283,5.572632,0.4032747,0.607062,-0.3536710999999999,1.239909,-0.07218593,0.0319593,0.7386302,-0.03066256,4.437031,3.946426,33.27
1,-0.1414185,0.1533051,0.9779968,1.0,-0.1325684,0.1018677,0.9859161,-30.35466,-4.348129,-19.91908,5.266724,0.4715854,0.6258438000000001,1.0,-0.1414642,0.1535187,0.9779663,36.32776,-4.364227,-18.71283,5.572632,0.4032747,0.607062,-0.3536710999999999,1.239909,-0.07218593,0.0319593,0.7386302,-0.03066256,4.437031,3.946426,33.27
1,-0.1366118999999999,0.1304168999999999,0.9819946,1.0,-0.1302643,0.1018677,0.9862213,-30.34082,-4.355423,-19.90015,5.277618,0.4707822,0.6258912,1.0,-0.1406707999999999,0.1488495,0.9787903,36.3524,-4.359558,-18.71555,5.574356,0.4023458,0.6076571999999999,-0.3536028,1.24012,-0.07223782,0.03175418,0.7392082,-0.02994986,4.437031,3.946426,33.27
1,-0.1366118999999999,0.1304168999999999,0.9819946,1.0,-0.1302643,0.1018677,0.9862213,-30.34082,-4.355423,-19.90015,5.277618,0.4707822,0.6258912,1.0,-0.1406707999999999,0.1488495,0.9787903,36.3524,-4.359558,-18.71555,5.574356,0.4023458,0.6076571999999999,-0.3536028,1.24012,-0.07223782,0.03175418,0.7392082,-0.02994986,4.437031,3.946426,33.27
1,-0.1366118999999999,0.1304168999999999,0.9819946,1.0,-0.1302643,0.1018677,0.9862213,-30.34082,-4.355423,-19.90015,5.277618,0.4707822,0.6258912,1.0,-0.1406707999999999,0.1488495,0.9787903,36.3524,-4.359558,-18.71555,5.574356,0.4023458,0.6076571999999999,-0.3536028,1.24012,-0.07223782,0.03175418,0.7392082,-0.02994986,4.437031,3.946426,33.27
1,-0.1140442,0.1877136,0.9755707,1.0,-0.1023102,0.1039734,0.9892883,-30.248790000000003,-3.268707,-21.7572,5.371582,0.4634347,0.6086538,1.0,-0.1140442,0.1877136,0.9755707,36.50072,-3.794601,-19.1918,5.697830000000001,0.3932686999999999,0.5881823,-0.3538868,1.240331,-0.07216218,0.03132109,0.7398854,-0.02930946,4.437031,3.946426,33.27
1,-0.1140442,0.1877136,0.9755707,1.0,-0.1023102,0.1039734,0.9892883,-30.248790000000003,-3.268707,-21.7572,5.371582,0.4634347,0.6086538,1.0,-0.1140442,0.1877136,0.9755707,36.50072,-3.794601,-19.1918,5.697830000000001,0.3932686999999999,0.5881823,-0.3538868,1.240331,-0.07216218,0.03132109,0.7398854,-0.02930946,4.437031,3.946426,33.27
1,-0.1140442,0.1877136,0.9755707,1.0,-0.1023102,0.1039734,0.9892883,-30.248790000000003,-3.268707,-21.7572,5.371582,0.4634347,0.6086538,1.0,-0.1140442,0.1877136,0.9755707,36.50072,-3.794601,-19.1918,5.697830000000001,0.3932686999999999,0.5881823,-0.3538868,1.240331,-0.07216218,0.03132109,0.7398854,-0.02930946,4.437031,3.946426,33.27
1,-0.09013367,0.2984772,0.9501343,1.0,-0.07672119,0.2183075,0.9728546,-29.80934,-3.3182370000000003,-20.23848,5.473877,0.4458672000000001,0.5782099,1.0,-0.09013367,0.2984772,0.9501343,36.74583,-3.50322,-19.11267,5.790207,0.3821155,0.5609848000000001,-0.3538966,1.240523,-0.07220784,0.03124726,0.7405289,-0.02833912,4.437031,-5.944016,33.27
1,-0.09013367,0.2984772,0.9501343,1.0,-0.07672119,0.2183075,0.9728546,-29.80934,-3.3182370000000003,-20.23848,5.473877,0.4458672000000001,0.5782099,1.0,-0.09013367,0.2984772,0.9501343,36.74583,-3.50322,-19.11267,5.790207,0.3821155,0.5609848000000001,-0.3538966,1.240523,-0.07220784,0.03124726,0.7405289,-0.02833912,4.437031,-5.944016,33.27
1,-0.09013367,0.2984772,0.9501343,1.0,-0.07672119,0.2183075,0.9728546,-29.80934,-3.3182370000000003,-20.23848,5.473877,0.4458672000000001,0.5782099,1.0,-0.09013367,0.2984772,0.9501343,36.74583,-3.50322,-19.11267,5.790207,0.3821155,0.5609848000000001,-0.3538966,1.240523,-0.07220784,0.03124726,0.7405289,-0.02833912,4.437031,-5.944016,33.27
1,-0.08804321,0.3008575,0.949585,1.0,-0.0748291,0.2205353,0.9724884,-29.81009,-3.322968,-20.24068,5.516433999999999,0.4455873999999999,0.5780789000000001,1.0,-0.08804321,0.3008575,0.949585,36.77113,-3.5185699999999995,-19.11267,5.804962000000001,0.3809702,0.5611088000000001,-0.3538185,1.240582,-0.07220238,0.03144223,0.7410501,-0.02776966,4.437031,-5.944016,33.27
1,-0.08804321,0.3008575,0.949585,1.0,-0.0748291,0.2205353,0.9724884,-29.81009,-3.322968,-20.24068,5.516433999999999,0.4455873999999999,0.5780789000000001,1.0,-0.08804321,0.3008575,0.949585,36.77113,-3.5185699999999995,-19.11267,5.804962000000001,0.3809702,0.5611088000000001,-0.3538185,1.240582,-0.07220238,0.03144223,0.7410501,-0.02776966,4.437031,-5.944016,33.27
1,-0.08804321,0.3008575,0.949585,1.0,-0.0748291,0.2205353,0.9724884,-29.81009,-3.322968,-20.24068,5.516433999999999,0.4455873999999999,0.5780789000000001,1.0,-0.08804321,0.3008575,0.949585,36.77113,-3.5185699999999995,-19.11267,5.804962000000001,0.3809702,0.5611088000000001,-0.3538185,1.240582,-0.07220238,0.03144223,0.7410501,-0.02776966,4.437031,-5.944016,33.27
1,-0.08705139,0.3016205,0.9494324,1.0,-0.07312012,0.2227478,0.9721222,-29.80911,-3.33165,-20.24258,5.5514220000000005,0.4452854999999999,0.5780770000000001,1.0,-0.08705139,0.3016205,0.9494324,36.79352,-3.5214230000000004,-19.1163,5.80571,0.3800914,0.5611088000000001,-0.3537105,1.240648,-0.072193,0.03175776,0.7414773,-0.02709933,4.437031,-5.944016,33.27
1,-0.08705139,0.3016205,0.9494324,1.0,-0.07312012,0.2227478,0.9721222,-29.80911,-3.33165,-20.24258,5.5514220000000005,0.4452854999999999,0.5780770000000001,1.0,-0.08705139,0.3016205,0.9494324,36.79352,-3.5214230000000004,-19.1163,5.80571,0.3800914,0.5611088000000001,-0.3537105,1.240648,-0.072193,0.03175776,0.7414773,-0.02709933,4.437031,-5.944016,33.27
1,-0.08705139,0.3016205,0.9494324,1.0,-0.07312012,0.2227478,0.9721222,-29.80911,-3.33165,-20.24258,5.5514220000000005,0.4452854999999999,0.5780770000000001,1.0,-0.08705139,0.3016205,0.9494324,36.79352,-3.5214230000000004,-19.1163,5.80571,0.3800914,0.5611088000000001,-0.3537105,1.240648,-0.072193,0.03175776,0.7414773,-0.02709933,4.437031,-5.944016,33.27
1,-0.08705139,0.3016205,0.9494324,1.0,-0.07312012,0.2227478,0.9721222,-29.80911,-3.33165,-20.24258,5.5514220000000005,0.4452854999999999,0.5780770000000001,1.0,-0.08705139,0.3016205,0.9494324,36.79352,-3.5214230000000004,-19.1163,5.80571,0.3800914,0.5611088000000001,-0.3534457,1.240764,-0.07218292,0.03187683,0.7418971999999999,-0.02664113,4.437031,-5.944016,33.27
1,-0.08705139,0.3016205,0.9494324,1.0,-0.07312012,0.2227478,0.9721222,-29.80911,-3.33165,-20.24258,5.5514220000000005,0.4452854999999999,0.5780770000000001,1.0,-0.08705139,0.3016205,0.9494324,36.79352,-3.5214230000000004,-19.1163,5.80571,0.3800914,0.5611088000000001,-0.3534457,1.240764,-0.07218292,0.03187683,0.7418971999999999,-0.02664113,4.437031,-5.944016,33.27
1,-0.08705139,0.3016205,0.9494324,1.0,-0.07312012,0.2227478,0.9721222,-29.80911,-3.33165,-20.24258,5.5514220000000005,0.4452854999999999,0.5780770000000001,1.0,-0.08705139,0.3016205,0.9494324,36.79352,-3.5214230000000004,-19.1163,5.80571,0.3800914,0.5611088000000001,-0.3534457,1.240764,-0.07218292,0.03187683,0.7418971999999999,-0.02664113,4.437031,-5.944016,33.27
1,-0.07264709,0.2584228999999999,0.9632874,1.0,-0.0644989,0.2206116,0.9732208,-29.79651,-3.345978,-20.23566,5.497757,0.4435319,0.5786995,1.0,-0.08152771,0.2997742,0.9505157,36.86346,-3.538589,-19.1176,5.88205,0.3769384,0.5620351,-0.3534457,1.240764,-0.07218292,0.03187683,0.7418971999999999,-0.02664113,4.437031,-5.944016,33.27
1,-0.07264709,0.2584228999999999,0.9632874,1.0,-0.0644989,0.2206116,0.9732208,-29.79651,-3.345978,-20.23566,5.497757,0.4435319,0.5786995,1.0,-0.08152771,0.2997742,0.9505157,36.86346,-3.538589,-19.1176,5.88205,0.3769384,0.5620351,-0.3534457,1.240764,-0.07218292,0.03187683,0.7418971999999999,-0.02664113,4.437031,-5.944016,33.27
1,-0.07264709,0.2584228999999999,0.9632874,1.0,-0.0644989,0.2206116,0.9732208,-29.79651,-3.345978,-20.23566,5.497757,0.4435319,0.5786995,1.0,-0.08152771,0.2997742,0.9505157,36.86346,-3.538589,-19.1176,5.88205,0.3769384,0.5620351,-0.3534457,1.240764,-0.07218292,0.03187683,0.7418971999999999,-0.02664113,4.437031,-5.944016,33.27
1,-0.07691956,0.2944794,0.9525452,1.0,-0.07701111,0.2375031,0.9683228000000002,-29.6609,-3.595215,-19.69217,5.5827480000000005,0.4413335,0.5791246999999999,1.0,-0.0769043,0.2974395999999999,0.9516296,36.98709,-3.534607,-19.11618,5.914337000000001,0.3722309,0.5622541,-0.353507,1.240697,-0.07201287,0.03202537,0.7424056,-0.02609779,4.439594,-11.91994,33.27
1,-0.07691956,0.2944794,0.9525452,1.0,-0.07701111,0.2375031,0.9683228000000002,-29.6609,-3.595215,-19.69217,5.5827480000000005,0.4413335,0.5791246999999999,1.0,-0.0769043,0.2974395999999999,0.9516296,36.98709,-3.534607,-19.11618,5.914337000000001,0.3722309,0.5622541,-0.353507,1.240697,-0.07201287,0.03202537,0.7424056,-0.02609779,4.439594,-11.91994,33.27
1,-0.07691956,0.2944794,0.9525452,1.0,-0.07701111,0.2375031,0.9683228000000002,-29.6609,-3.595215,-19.69217,5.5827480000000005,0.4413335,0.5791246999999999,1.0,-0.0769043,0.2974395999999999,0.9516296,36.98709,-3.534607,-19.11618,5.914337000000001,0.3722309,0.5622541,-0.353507,1.240697,-0.07201287,0.03202537,0.7424056,-0.02609779,4.439594,-11.91994,33.27
1,-0.06510925,0.2939300999999999,0.953598,1.0,-0.06983948,0.2343597,0.969635,-29.63049,-3.618912,-19.59622,5.593521,0.4392755999999999,0.5794331,1.0,-0.06510925,0.2939757999999999,0.9535828000000002,37.01523,-3.530609,-19.11258,5.92601,0.3694403,0.5626087,-0.353507,1.240697,-0.07201287,0.03202537,0.7424056,-0.02609779,4.439594,-11.91994,33.27
1,-0.06510925,0.2939300999999999,0.953598,1.0,-0.06983948,0.2343597,0.969635,-29.63049,-3.618912,-19.59622,5.593521,0.4392755999999999,0.5794331,1.0,-0.06510925,0.2939757999999999,0.9535828000000002,37.01523,-3.530609,-19.11258,5.92601,0.3694403,0.5626087,-0.353507,1.240697,-0.07201287,0.03202537,0.7424056,-0.02609779,4.439594,-11.91994,33.27
1,-0.06510925,0.2939300999999999,0.953598,1.0,-0.06983948,0.2343597,0.969635,-29.63049,-3.618912,-19.59622,5.593521,0.4392755999999999,0.5794331,1.0,-0.06510925,0.2939757999999999,0.9535828000000002,37.01523,-3.530609,-19.11258,5.92601,0.3694403,0.5626087,-0.353507,1.240697,-0.07201287,0.03202537,0.7424056,-0.02609779,4.439594,-11.91994,33.27
1,-0.05419922,0.2720032,0.9607544,1.0,-0.06854248,0.2363129,0.9692535,-29.5829,-3.73967,-19.26482,5.696976,0.4376454000000001,0.5800135000000001,1.0,-0.0533905,0.2740172999999999,0.9602356,37.07759,-3.441971,-19.09586,5.885483,0.3655864,0.5626087,-0.3535302999999999,1.240723,-0.07198077,0.03217282,0.7431911,-0.02605286,4.439594,-11.91994,33.27
1,-0.05419922,0.2720032,0.9607544,1.0,-0.06854248,0.2363129,0.9692535,-29.5829,-3.73967,-19.26482,5.696976,0.4376454000000001,0.5800135000000001,1.0,-0.0533905,0.2740172999999999,0.9602356,37.07759,-3.441971,-19.09586,5.885483,0.3655864,0.5626087,-0.3535302999999999,1.240723,-0.07198077,0.03217282,0.7431911,-0.02605286,4.439594,-11.91994,33.27
1,-0.05419922,0.2720032,0.9607544,1.0,-0.06854248,0.2363129,0.9692535,-29.5829,-3.73967,-19.26482,5.696976,0.4376454000000001,0.5800135000000001,1.0,-0.0533905,0.2740172999999999,0.9602356,37.07759,-3.441971,-19.09586,5.885483,0.3655864,0.5626087,-0.3535302999999999,1.240723,-0.07198077,0.03217282,0.7431911,-0.02605286,4.439594,-11.91994,33.27
1,-0.05419922,0.2720032,0.9607544,1.0,-0.06854248,0.2363129,0.9692535,-29.5829,-3.73967,-19.26482,5.696976,0.4376454000000001,0.5800135000000001,1.0,-0.0533905,0.2740172999999999,0.9602356,37.07759,-3.441971,-19.09586,5.885483,0.3655864,0.5626087,-0.353586,1.240738,-0.0719825,0.03237402,0.7436273,-0.02577643,4.439594,-11.91994,33.27
1,-0.05419922,0.2720032,0.9607544,1.0,-0.06854248,0.2363129,0.9692535,-29.5829,-3.73967,-19.26482,5.696976,0.4376454000000001,0.5800135000000001,1.0,-0.0533905,0.2740172999999999,0.9602356,37.07759,-3.441971,-19.09586,5.885483,0.3655864,0.5626087,-0.353586,1.240738,-0.0719825,0.03237402,0.7436273,-0.02577643,4.439594,-11.91994,33.27
1,-0.05419922,0.2720032,0.9607544,1.0,-0.06854248,0.2363129,0.9692535,-29.5829,-3.73967,-19.26482,5.696976,0.4376454000000001,0.5800135000000001,1.0,-0.0533905,0.2740172999999999,0.9602356,37.07759,-3.441971,-19.09586,5.885483,0.3655864,0.5626087,-0.353586,1.240738,-0.0719825,0.03237402,0.7436273,-0.02577643,4.439594,-11.91994,33.27
1,-0.08633423,0.299942,0.9500275,1.0,-0.09709167,0.2260132,0.9692688,-30.103790000000004,-3.551559,-19.69876,5.627701,0.4584428,0.5797587,1.0,-0.08580017,0.3034515,0.9489746,36.64224,-3.5015110000000003,-19.13033,6.043823000000001,0.3846749,0.5606926,-0.3535296,1.240738,-0.07198697,0.0321234,0.7442603,-0.02520316,4.439594,-11.91994,33.27
1,-0.08633423,0.299942,0.9500275,1.0,-0.09709167,0.2260132,0.9692688,-30.103790000000004,-3.551559,-19.69876,5.627701,0.4584428,0.5797587,1.0,-0.08580017,0.3034515,0.9489746,36.64224,-3.5015110000000003,-19.13033,6.043823000000001,0.3846749,0.5606926,-0.3535296,1.240738,-0.07198697,0.0321234,0.7442603,-0.02520316,4.439594,-11.91994,33.27
1,-0.08633423,0.299942,0.9500275,1.0,-0.09709167,0.2260132,0.9692688,-30.103790000000004,-3.551559,-19.69876,5.627701,0.4584428,0.5797587,1.0,-0.08580017,0.3034515,0.9489746,36.64224,-3.5015110000000003,-19.13033,6.043823000000001,0.3846749,0.5606926,-0.3535296,1.240738,-0.07198697,0.0321234,0.7442603,-0.02520316,4.439594,-11.91994,33.27
1,-0.3202209,0.3030242999999999,0.8975525,1.0,-0.3497925,0.2506866,0.9026489,-31.56978,-3.5663910000000003,-20.15385,5.983749,0.545192,0.5834674,1.0,-0.319458,0.3043364999999999,0.8973846,34.87787,-3.379547,-19.58133,5.94162,0.4790204,0.5627515000000001,-0.3535818,1.240832,-0.07194853,0.03245717,0.744733,-0.02481753,4.439594,9.310471,33.27
1,-0.3202209,0.3030242999999999,0.8975525,1.0,-0.3497925,0.2506866,0.9026489,-31.56978,-3.5663910000000003,-20.15385,5.983749,0.545192,0.5834674,1.0,-0.319458,0.3043364999999999,0.8973846,34.87787,-3.379547,-19.58133,5.94162,0.4790204,0.5627515000000001,-0.3535818,1.240832,-0.07194853,0.03245717,0.744733,-0.02481753,4.439594,9.310471,33.27
1,-0.3202209,0.3030242999999999,0.8975525,1.0,-0.3497925,0.2506866,0.9026489,-31.56978,-3.5663910000000003,-20.15385,5.983749,0.545192,0.5834674,1.0,-0.319458,0.3043364999999999,0.8973846,34.87787,-3.379547,-19.58133,5.94162,0.4790204,0.5627515000000001,-0.3535818,1.240832,-0.07194853,0.03245717,0.744733,-0.02481753,4.439594,9.310471,33.27
1,-0.3307953,0.2637329,0.9060974,1.0,-0.3430023,0.2425078999999999,0.907486,-31.57129,-3.567886,-20.13475,5.918076,0.5441014,0.584435,1.0,-0.3092194,0.3000183,0.9024048,34.93645,-3.399811,-19.55865,5.897888,0.4754284,0.5636749,-0.3534587,1.240851,-0.07203776,0.03259809,0.7450815,-0.02465873,4.439594,9.310471,33.27
1,-0.3307953,0.2637329,0.9060974,1.0,-0.3430023,0.2425078999999999,0.907486,-31.57129,-3.567886,-20.13475,5.918076,0.5441014,0.584435,1.0,-0.3092194,0.3000183,0.9024048,34.93645,-3.399811,-19.55865,5.897888,0.4754284,0.5636749,-0.3534587,1.240851,-0.07203776,0.03259809,0.7450815,-0.02465873,4.439594,9.310471,33.27
1,-0.3307953,0.2637329,0.9060974,1.0,-0.3430023,0.2425078999999999,0.907486,-31.57129,-3.567886,-20.13475,5.918076,0.5441014,0.584435,1.0,-0.3092194,0.3000183,0.9024048,34.93645,-3.399811,-19.55865,5.897888,0.4754284,0.5636749,-0.3534587,1.240851,-0.07203776,0.03259809,0.7450815,-0.02465873,4.439594,9.310471,33.27
1,-0.3190613,0.2669525,0.9093475,1.0,-0.3331909,0.2412872,0.9114532,-31.57129,-3.567886,-20.13457,5.862946,0.5425295,0.584435,1.0,-0.3015137,0.2978515999999999,0.9057312,34.944379999999995,-3.40004,-19.55128,5.9242550000000005,0.4738651,0.563893,-0.3533533,1.240968,-0.07202619,0.03267838,0.7452434,-0.02430518,4.439594,9.310471,33.27
1,-0.3190613,0.2669525,0.9093475,1.0,-0.3331909,0.2412872,0.9114532,-31.57129,-3.567886,-20.13457,5.862946,0.5425295,0.584435,1.0,-0.3015137,0.2978515999999999,0.9057312,34.944379999999995,-3.40004,-19.55128,5.9242550000000005,0.4738651,0.563893,-0.3533533,1.240968,-0.07202619,0.03267838,0.7452434,-0.02430518,4.439594,9.310471,33.27
1,-0.3190613,0.2669525,0.9093475,1.0,-0.3331909,0.2412872,0.9114532,-31.57129,-3.567886,-20.13457,5.862946,0.5425295,0.584435,1.0,-0.3015137,0.2978515999999999,0.9057312,34.944379999999995,-3.40004,-19.55128,5.9242550000000005,0.4738651,0.563893,-0.3533533,1.240968,-0.07202619,0.03267838,0.7452434,-0.02430518,4.439594,9.310471,33.27
1,-0.3190613,0.2669525,0.9093475,1.0,-0.3331909,0.2412872,0.9114532,-31.57129,-3.567886,-20.13457,5.862946,0.5425295,0.584435,1.0,-0.3015137,0.2978515999999999,0.9057312,34.944379999999995,-3.40004,-19.55128,5.9242550000000005,0.4738651,0.563893,-0.3531855,1.2411299999999998,-0.07197201,0.03258094,0.7453575,-0.0240744,4.439594,9.310471,33.27
1,-0.3190613,0.2669525,0.9093475,1.0,-0.3331909,0.2412872,0.9114532,-31.57129,-3.567886,-20.13457,5.862946,0.5425295,0.584435,1.0,-0.3015137,0.2978515999999999,0.9057312,34.944379999999995,-3.40004,-19.55128,5.9242550000000005,0.4738651,0.563893,-0.3531855,1.2411299999999998,-0.07197201,0.03258094,0.7453575,-0.0240744,4.439594,9.310471,33.27
1,-0.3190613,0.2669525,0.9093475,1.0,-0.3331909,0.2412872,0.9114532,-31.57129,-3.567886,-20.13457,5.862946,0.5425295,0.584435,1.0,-0.3015137,0.2978515999999999,0.9057312,34.944379999999995,-3.40004,-19.55128,5.9242550000000005,0.4738651,0.563893,-0.3531855,1.2411299999999998,-0.07197201,0.03258094,0.7453575,-0.0240744,4.439594,9.310471,33.27
1,-0.2908783,0.2671660999999999,0.9186859,1.0,-0.2962494,0.2390747,0.9246979,-31.53358,-3.607925,-20.06267,5.75856,0.5353486,0.5848024000000001,1.0,-0.2859955,0.2915192,0.912796,35.03072,-3.442032,-19.49969,6.040619,0.4684094,0.5657215999999999,-0.3531855,1.2411299999999998,-0.07197201,0.03258094,0.7453575,-0.0240744,4.439594,9.310471,33.27
1,-0.2908783,0.2671660999999999,0.9186859,1.0,-0.2962494,0.2390747,0.9246979,-31.53358,-3.607925,-20.06267,5.75856,0.5353486,0.5848024000000001,1.0,-0.2859955,0.2915192,0.912796,35.03072,-3.442032,-19.49969,6.040619,0.4684094,0.5657215999999999,-0.3531855,1.2411299999999998,-0.07197201,0.03258094,0.7453575,-0.0240744,4.439594,9.310471,33.27
1,-0.2908783,0.2671660999999999,0.9186859,1.0,-0.2962494,0.2390747,0.9246979,-31.53358,-3.607925,-20.06267,5.75856,0.5353486,0.5848024000000001,1.0,-0.2859955,0.2915192,0.912796,35.03072,-3.442032,-19.49969,6.040619,0.4684094,0.5657215999999999,-0.3531855,1.2411299999999998,-0.07197201,0.03258094,0.7453575,-0.0240744,4.439594,9.310471,33.27
1,-0.2884369,0.2614136,0.9211121,1.0,-0.2936859,0.236145,0.9262543,-31.52808,-3.623947,-20.06548,5.819931,0.5347026999999999,0.5858258000000001,1.0,-0.2835541,0.2839203,0.9159546,35.03862,-3.454529,-19.50429,6.018814,0.4677077,0.5672866,-0.3532234,1.241102,-0.07198346,0.03285676,0.7463102,-0.02314689,4.439594,9.310471,33.27
1,-0.2884369,0.2614136,0.9211121,1.0,-0.2936859,0.236145,0.9262543,-31.52808,-3.623947,-20.06548,5.819931,0.5347026999999999,0.5858258000000001,1.0,-0.2835541,0.2839203,0.9159546,35.03862,-3.454529,-19.50429,6.018814,0.4677077,0.5672866,-0.3532234,1.241102,-0.07198346,0.03285676,0.7463102,-0.02314689,4.439594,9.310471,33.27
1,-0.2884369,0.2614136,0.9211121,1.0,-0.2936859,0.236145,0.9262543,-31.52808,-3.623947,-20.06548,5.819931,0.5347026999999999,0.5858258000000001,1.0,-0.2835541,0.2839203,0.9159546,35.03862,-3.454529,-19.50429,6.018814,0.4677077,0.5672866,-0.3532234,1.241102,-0.07198346,0.03285676,0.7463102,-0.02314689,4.439594,9.310471,33.27
1,-0.2881012,0.2587433,0.9219666,1.0,-0.291275,0.2319489,0.9280853,-31.51697,-3.643097,-20.06425,5.821091,0.5339316,0.58704,1.0,-0.284668,0.2854614,0.9151306,35.05437,-3.478073,-19.50652,6.024368,0.4673878999999999,0.5678361999999999,-0.353176,1.241156,-0.07210413,0.03267719,0.7470210999999999,-0.02268448,4.439594,-2.038177,33.27
1,-0.2881012,0.2587433,0.9219666,1.0,-0.291275,0.2319489,0.9280853,-31.51697,-3.643097,-20.06425,5.821091,0.5339316,0.58704,1.0,-0.284668,0.2854614,0.9151306,35.05437,-3.478073,-19.50652,6.024368,0.4673878999999999,0.5678361999999999,-0.353176,1.241156,-0.07210413,0.03267719,0.7470210999999999,-0.02268448,4.439594,-2.038177,33.27
1,-0.2881012,0.2587433,0.9219666,1.0,-0.291275,0.2319489,0.9280853,-31.51697,-3.643097,-20.06425,5.821091,0.5339316,0.58704,1.0,-0.284668,0.2854614,0.9151306,35.05437,-3.478073,-19.50652,6.024368,0.4673878999999999,0.5678361999999999,-0.353176,1.241156,-0.07210413,0.03267719,0.7470210999999999,-0.02268448,4.439594,-2.038177,33.27
2,-0.2881012,0.2587433,0.9219666,1.0,-0.291275,0.2319489,0.9280853,-31.51697,-3.643097,-20.06425,5.821091,0.5339316,0.58704,1.0,-0.284668,0.2854614,0.9151306,35.05437,-3.478073,-19.50652,6.024368,0.4673878999999999,0.5678361999999999,-0.3531513,1.24121,-0.07221764,0.03293473,0.7478774,-0.0222199,4.439594,-2.038177,33.27
2,-0.2881012,0.2587433,0.9219666,1.0,-0.291275,0.2319489,0.9280853,-31.51697,-3.643097,-20.06425,5.821091,0.5339316,0.58704,1.0,-0.284668,0.2854614,0.9151306,35.05437,-3.478073,-19.50652,6.024368,0.4673878999999999,0.5678361999999999,-0.3531513,1.24121,-0.07221764,0.03293473,0.7478774,-0.0222199,4.439594,-2.038177,33.27
2,-0.2881012,0.2587433,0.9219666,1.0,-0.291275,0.2319489,0.9280853,-31.51697,-3.643097,-20.06425,5.821091,0.5339316,0.58704,1.0,-0.284668,0.2854614,0.9151306,35.05437,-3.478073,-19.50652,6.024368,0.4673878999999999,0.5678361999999999,-0.3531513,1.24121,-0.07221764,0.03293473,0.7478774,-0.0222199,4.439594,-2.038177,33.27
2,-0.2881012,0.2587433,0.9219666,1.0,-0.291275,0.2319489,0.9280853,-31.51697,-3.643097,-20.06425,5.821091,0.5339316,0.58704,1.0,-0.284668,0.2854614,0.9151306,35.05437,-3.478073,-19.50652,6.024368,0.4673878999999999,0.5678361999999999,-0.3531513,1.24121,-0.07221764,0.03293473,0.7478774,-0.0222199,4.439594,-2.038177,33.27
2,-0.2881012,0.2587433,0.9219666,1.0,-0.291275,0.2319489,0.9280853,-31.51697,-3.643097,-20.06425,5.821091,0.5339316,0.58704,1.0,-0.284668,0.2854614,0.9151306,35.05437,-3.478073,-19.50652,6.024368,0.4673878999999999,0.5678361999999999,-0.3531513,1.24121,-0.07221764,0.03293473,0.7478774,-0.0222199,4.439594,-2.038177,33.27
2,-0.2881012,0.2587433,0.9219666,1.0,-0.291275,0.2319489,0.9280853,-31.51697,-3.643097,-20.06425,5.821091,0.5339316,0.58704,1.0,-0.284668,0.2854614,0.9151306,35.05437,-3.478073,-19.50652,6.024368,0.4673878999999999,0.5678361999999999,-0.3531513,1.24121,-0.07221764,0.03293473,0.7478774,-0.0222199,4.439594,-2.038177,33.27
2,-0.2655334,0.2477416999999999,0.9317169,1.0,-0.2727660999999999,0.2194061,0.9367218,-31.38931,-3.766266,-20.00081,5.709183,0.5268608,0.5919191,1.0,-0.2577057,0.2771454,0.9256134,35.17694,-3.632324,-19.44223,6.000107,0.45898,0.5731338,-0.3528805999999999,1.2414,-0.07240239,0.03266379,0.749246,-0.02179562,4.439594,-2.038177,33.27
2,-0.2655334,0.2477416999999999,0.9317169,1.0,-0.2727660999999999,0.2194061,0.9367218,-31.38931,-3.766266,-20.00081,5.709183,0.5268608,0.5919191,1.0,-0.2577057,0.2771454,0.9256134,35.17694,-3.632324,-19.44223,6.000107,0.45898,0.5731338,-0.3528805999999999,1.2414,-0.07240239,0.03266379,0.749246,-0.02179562,4.439594,-2.038177,33.27
2,-0.2655334,0.2477416999999999,0.9317169,1.0,-0.2727660999999999,0.2194061,0.9367218,-31.38931,-3.766266,-20.00081,5.709183,0.5268608,0.5919191,1.0,-0.2577057,0.2771454,0.9256134,35.17694,-3.632324,-19.44223,6.000107,0.45898,0.5731338,-0.3528805999999999,1.2414,-0.07240239,0.03266379,0.749246,-0.02179562,4.439594,-2.038177,33.27
2,-0.2648773,0.242691,0.9332275,1.0,-0.2725982999999999,0.2161864999999999,0.9375153,-31.43518,-3.718552,-19.99751,5.759415,0.528241,0.5909418000000001,1.0,-0.2572479,0.2680359,0.928421,35.15527,-3.517532,-19.44385,6.064178,0.4595304,0.5709813,-0.3528422,1.241559,-0.07240278,0.03262099,0.7497493000000001,-0.0210257,4.439594,-2.038177,33.27
2,-0.2648773,0.242691,0.9332275,1.0,-0.2725982999999999,0.2161864999999999,0.9375153,-31.43518,-3.718552,-19.99751,5.759415,0.528241,0.5909418000000001,1.0,-0.2572479,0.2680359,0.928421,35.15527,-3.517532,-19.44385,6.064178,0.4595304,0.5709813,-0.3528422,1.241559,-0.07240278,0.03262099,0.7497493000000001,-0.0210257,4.439594,-2.038177,33.27
2,-0.2648773,0.242691,0.9332275,1.0,-0.2725982999999999,0.2161864999999999,0.9375153,-31.43518,-3.718552,-19.99751,5.759415,0.528241,0.5909418000000001,1.0,-0.2572479,0.2680359,0.928421,35.15527,-3.517532,-19.44385,6.064178,0.4595304,0.5709813,-0.3528422,1.241559,-0.07240278,0.03262099,0.7497493000000001,-0.0210257,4.439594,-2.038177,33.27
2,-0.2821655,0.2685394,0.9210052,1.0,-0.2928162,0.2363433999999999,0.9264832,-31.46771,-3.488403,-20.03856,5.743561,0.5326960999999999,0.581152,1.0,-0.269043,0.3065337999999999,0.9130402,35.03146,-3.256668,-19.54893,5.959396,0.4658069,0.5576395000000001,-0.3528422,1.241559,-0.07240278,0.03262099,0.7497493000000001,-0.0210257,4.439594,-23.9035,33.27
2,-0.2821655,0.2685394,0.9210052,1.0,-0.2928162,0.2363433999999999,0.9264832,-31.46771,-3.488403,-20.03856,5.743561,0.5326960999999999,0.581152,1.0,-0.269043,0.3065337999999999,0.9130402,35.03146,-3.256668,-19.54893,5.959396,0.4658069,0.5576395000000001,-0.3528422,1.241559,-0.07240278,0.03262099,0.7497493000000001,-0.0210257,4.439594,-23.9035,33.27
2,-0.2821655,0.2685394,0.9210052,1.0,-0.2928162,0.2363433999999999,0.9264832,-31.46771,-3.488403,-20.03856,5.743561,0.5326960999999999,0.581152,1.0,-0.269043,0.3065337999999999,0.9130402,35.03146,-3.256668,-19.54893,5.959396,0.4658069,0.5576395000000001,-0.3528422,1.241559,-0.07240278,0.03262099,0.7497493000000001,-0.0210257,4.439594,-23.9035,33.27
2,-0.2934418,0.3101349,0.9042664,1.0,-0.2993469,0.2902069,0.9089203,-31.509220000000003,-3.294373,-20.13385,5.76976,0.5355015000000001,0.5677251,1.0,-0.2818756,0.3475037,0.8942870999999999,34.92947,-3.077713,-19.65341,6.134491000000001,0.4714551999999999,0.5468734000000001,-0.3527310999999999,1.241869,-0.07226688,0.03272202,0.7502575,-0.01991075,4.439594,-23.9035,33.27
2,-0.2934418,0.3101349,0.9042664,1.0,-0.2993469,0.2902069,0.9089203,-31.509220000000003,-3.294373,-20.13385,5.76976,0.5355015000000001,0.5677251,1.0,-0.2818756,0.3475037,0.8942870999999999,34.92947,-3.077713,-19.65341,6.134491000000001,0.4714551999999999,0.5468734000000001,-0.3527310999999999,1.241869,-0.07226688,0.03272202,0.7502575,-0.01991075,4.439594,-23.9035,33.27
2,-0.2934418,0.3101349,0.9042664,1.0,-0.2993469,0.2902069,0.9089203,-31.509220000000003,-3.294373,-20.13385,5.76976,0.5355015000000001,0.5677251,1.0,-0.2818756,0.3475037,0.8942870999999999,34.92947,-3.077713,-19.65341,6.134491000000001,0.4714551999999999,0.5468734000000001,-0.3527310999999999,1.241869,-0.07226688,0.03272202,0.7502575,-0.01991075,4.439594,-23.9035,33.27
2,-0.2903442,0.3065491,0.9064789,1.0,-0.304245,0.2779236,0.9111328000000002,-31.50525,-3.331909,-20.11909,5.668503,0.5361348000000001,0.5705953,1.0,-0.2757416,0.3356323,0.9007110999999999,35.00568,-3.115234,-19.62592,5.935547,0.4680004,0.5493219,-0.3524274,1.2421719999999998,-0.07234669,0.03276025,0.7502528,-0.01925173,4.439594,-23.9035,33.27
2,-0.2903442,0.3065491,0.9064789,1.0,-0.304245,0.2779236,0.9111328000000002,-31.50525,-3.331909,-20.11909,5.668503,0.5361348000000001,0.5705953,1.0,-0.2757416,0.3356323,0.9007110999999999,35.00568,-3.115234,-19.62592,5.935547,0.4680004,0.5493219,-0.3524274,1.2421719999999998,-0.07234669,0.03276025,0.7502528,-0.01925173,4.439594,-23.9035,33.27
2,-0.2903442,0.3065491,0.9064789,1.0,-0.304245,0.2779236,0.9111328000000002,-31.50525,-3.331909,-20.11909,5.668503,0.5361348000000001,0.5705953,1.0,-0.2757416,0.3356323,0.9007110999999999,35.00568,-3.115234,-19.62592,5.935547,0.4680004,0.5493219,-0.3524274,1.2421719999999998,-0.07234669,0.03276025,0.7502528,-0.01925173,4.439594,-23.9035,33.27
2,-0.2900238,0.2936859,0.9108276,1.0,-0.2962189,0.2622680999999999,0.918396,-31.504620000000003,-3.388199,-20.08511,5.625443,0.5346999,0.5743296999999999,1.0,-0.2835845999999999,0.3244324,0.9023895,35.03096,-3.1476900000000003,-19.61258,6.048035,0.4683164000000001,0.5522144,-0.3523324,1.242123,-0.07221901,0.03281234,0.7501766,-0.01890997,4.439594,-23.9035,33.27
2,-0.2900238,0.2936859,0.9108276,1.0,-0.2962189,0.2622680999999999,0.918396,-31.504620000000003,-3.388199,-20.08511,5.625443,0.5346999,0.5743296999999999,1.0,-0.2835845999999999,0.3244324,0.9023895,35.03096,-3.1476900000000003,-19.61258,6.048035,0.4683164000000001,0.5522144,-0.3523324,1.242123,-0.07221901,0.03281234,0.7501766,-0.01890997,4.439594,-23.9035,33.27
2,-0.2900238,0.2936859,0.9108276,1.0,-0.2962189,0.2622680999999999,0.918396,-31.504620000000003,-3.388199,-20.08511,5.625443,0.5346999,0.5743296999999999,1.0,-0.2835845999999999,0.3244324,0.9023895,35.03096,-3.1476900000000003,-19.61258,6.048035,0.4683164000000001,0.5522144,-0.3523324,1.242123,-0.07221901,0.03281234,0.7501766,-0.01890997,4.439594,-23.9035,33.27
2,-0.2822571,0.2913361,0.9140167,1.0,-0.2883605999999999,0.2619018999999999,0.92099,-31.50163,-3.431686,-20.08244,5.639786,0.5333149,0.5756571,1.0,-0.2763672,0.3183289,0.9067841,35.04916,-3.177231,-19.61061,5.984421,0.4665253,0.5539228,-0.3522307,1.242151,-0.07209614,0.03295989,0.7502175,-0.01878773,4.439594,-23.9035,33.27
2,-0.2822571,0.2913361,0.9140167,1.0,-0.2883605999999999,0.2619018999999999,0.92099,-31.50163,-3.431686,-20.08244,5.639786,0.5333149,0.5756571,1.0,-0.2763672,0.3183289,0.9067841,35.04916,-3.177231,-19.61061,5.984421,0.4665253,0.5539228,-0.3522307,1.242151,-0.07209614,0.03295989,0.7502175,-0.01878773,4.439594,-23.9035,33.27
2,-0.2822571,0.2913361,0.9140167,1.0,-0.2883605999999999,0.2619018999999999,0.92099,-31.50163,-3.431686,-20.08244,5.639786,0.5333149,0.5756571,1.0,-0.2763672,0.3183289,0.9067841,35.04916,-3.177231,-19.61061,5.984421,0.4665253,0.5539228,-0.3522307,1.242151,-0.07209614,0.03295989,0.7502175,-0.01878773,4.439594,-23.9035,33.27
2,-0.2801666,0.2891235,0.9153595,1.0,-0.2870483,0.2581329,0.9224701,-31.49966,-3.438339,-20.08138,5.638382,0.5330126999999999,0.5764269000000001,1.0,-0.2735901,0.3172607,0.9080048,35.05208,-3.186356,-19.60988,5.972137,0.4659707,0.5543384,-0.3519555,1.242036,-0.0720108999999999,0.03291702,0.7502227,-0.01841665,4.439594,3.188324,33.27
2,-0.2801666,0.2891235,0.9153595,1.0,-0.2870483,0.2581329,0.9224701,-31.49966,-3.438339,-20.08138,5.638382,0.5330126999999999,0.5764269000000001,1.0,-0.2735901,0.3172607,0.9080048,35.05208,-3.186356,-19.60988,5.972137,0.4659707,0.5543384,-0.3519555,1.242036,-0.0720108999999999,0.03291702,0.7502227,-0.01841665,4.439594,3.188324,33.27
2,-0.2801666,0.2891235,0.9153595,1.0,-0.2870483,0.2581329,0.9224701,-31.49966,-3.438339,-20.08138,5.638382,0.5330126999999999,0.5764269000000001,1.0,-0.2735901,0.3172607,0.9080048,35.05208,-3.186356,-19.60988,5.972137,0.4659707,0.5543384,-0.3519555,1.242036,-0.0720108999999999,0.03291702,0.7502227,-0.01841665,4.439594,3.188324,33.27
2,-0.2801666,0.2891235,0.9153595,1.0,-0.2870483,0.2581329,0.9224701,-31.49966,-3.438339,-20.08138,5.638382,0.5330126999999999,0.5764269000000001,1.0,-0.2735901,0.3172607,0.9080048,35.05208,-3.186356,-19.60988,5.972137,0.4659707,0.5543384,-0.3519555,1.242036,-0.0720108999999999,0.03291702,0.7502227,-0.01841665,4.439594,3.188324,33.27
2,-0.2801666,0.2891235,0.9153595,1.0,-0.2870483,0.2581329,0.9224701,-31.49966,-3.438339,-20.08138,5.638382,0.5330126999999999,0.5764269000000001,1.0,-0.2735901,0.3172607,0.9080048,35.05208,-3.186356,-19.60988,5.972137,0.4659707,0.5543384,-0.3519555,1.242036,-0.0720108999999999,0.03291702,0.7502227,-0.01841665,4.439594,3.188324,33.27
2,-0.2801666,0.2891235,0.9153595,1.0,-0.2870483,0.2581329,0.9224701,-31.49966,-3.438339,-20.08138,5.638382,0.5330126999999999,0.5764269000000001,1.0,-0.2735901,0.3172607,0.9080048,35.05208,-3.186356,-19.60988,5.972137,0.4659707,0.5543384,-0.3519555,1.242036,-0.0720108999999999,0.03291702,0.7502227,-0.01841665,4.439594,3.188324,33.27
2,-0.2800902999999999,0.2880859,0.9157104,1.0,-0.285965,0.2552185,0.9236145,-31.49672,-3.4517519999999995,-20.0789,5.63475,0.5327228,0.5772622,1.0,-0.2741547,0.3192902,0.9071198,35.05925,-3.201187,-19.61031,5.975494,0.4658431999999999,0.5545022,-0.3519417999999999,1.241772,-0.07187152,0.03299,0.7499212,-0.01850916,4.439594,3.188324,33.27
2,-0.2800902999999999,0.2880859,0.9157104,1.0,-0.285965,0.2552185,0.9236145,-31.49672,-3.4517519999999995,-20.0789,5.63475,0.5327228,0.5772622,1.0,-0.2741547,0.3192902,0.9071198,35.05925,-3.201187,-19.61031,5.975494,0.4658431999999999,0.5545022,-0.3519417999999999,1.241772,-0.07187152,0.03299,0.7499212,-0.01850916,4.439594,3.188324,33.27
2,-0.2800902999999999,0.2880859,0.9157104,1.0,-0.285965,0.2552185,0.9236145,-31.49672,-3.4517519999999995,-20.0789,5.63475,0.5327228,0.5772622,1.0,-0.2741547,0.3192902,0.9071198,35.05925,-3.201187,-19.61031,5.975494,0.4658431999999999,0.5545022,-0.3519417999999999,1.241772,-0.07187152,0.03299,0.7499212,-0.01850916,4.439594,3.188324,33.27
2,-0.2794342,0.3143158,0.9072418,1.0,-0.2839813,0.2917785999999999,0.9133453,-31.50052,-3.25795,-20.12444,5.558669999999999,0.5328621,0.5658029,1.0,-0.274231,0.3389893,0.8999328999999999,34.9976,-3.042313,-19.65747,5.738297,0.4681607,0.5464764,-0.3517412,1.241447,-0.07149056,0.03439666,0.7497776999999999,-0.01973069,4.439594,3.188324,33.27
2,-0.2794342,0.3143158,0.9072418,1.0,-0.2839813,0.2917785999999999,0.9133453,-31.50052,-3.25795,-20.12444,5.558669999999999,0.5328621,0.5658029,1.0,-0.274231,0.3389893,0.8999328999999999,34.9976,-3.042313,-19.65747,5.738297,0.4681607,0.5464764,-0.3517412,1.241447,-0.07149056,0.03439666,0.7497776999999999,-0.01973069,4.439594,3.188324,33.27
2,-0.2794342,0.3143158,0.9072418,1.0,-0.2839813,0.2917785999999999,0.9133453,-31.50052,-3.25795,-20.12444,5.558669999999999,0.5328621,0.5658029,1.0,-0.274231,0.3389893,0.8999328999999999,34.9976,-3.042313,-19.65747,5.738297,0.4681607,0.5464764,-0.3517412,1.241447,-0.07149056,0.03439666,0.7497776999999999,-0.01973069,4.439594,3.188324,33.27
2,-0.2790527,0.3114624,0.9083557,1.0,-0.2805023,0.2879791,0.9156189,-31.502240000000004,-3.279831,-20.12444,5.511353,0.5323477,0.566986,1.0,-0.2773132,0.33638,0.8999634,35.03633,-3.075409,-19.65225,5.658432,0.4674444,0.5478132,-0.3516355,1.2415200000000002,-0.07121763,0.03437607,0.7497199999999999,-0.01974164,4.439594,3.188324,33.27
2,-0.2790527,0.3114624,0.9083557,1.0,-0.2805023,0.2879791,0.9156189,-31.502240000000004,-3.279831,-20.12444,5.511353,0.5323477,0.566986,1.0,-0.2773132,0.33638,0.8999634,35.03633,-3.075409,-19.65225,5.658432,0.4674444,0.5478132,-0.3516355,1.2415200000000002,-0.07121763,0.03437607,0.7497199999999999,-0.01974164,4.439594,3.188324,33.27
2,-0.2790527,0.3114624,0.9083557,1.0,-0.2805023,0.2879791,0.9156189,-31.502240000000004,-3.279831,-20.12444,5.511353,0.5323477,0.566986,1.0,-0.2773132,0.33638,0.8999634,35.03633,-3.075409,-19.65225,5.658432,0.4674444,0.5478132,-0.3516355,1.2415200000000002,-0.07121763,0.03437607,0.7497199999999999,-0.01974164,4.439594,3.188324,33.27
2,-0.2767792,0.3102722,0.9094543,1.0,-0.2782288,0.2884674,0.9161682,-31.49825,-3.300522,-20.12004,5.502396,0.5318568,0.5674872,1.0,-0.275177,0.3318939,0.9022675,35.05042,-3.08812,-19.65578,5.679977,0.4665872,0.5489559,-0.3515912,1.241627,-0.07108653,0.03419718,0.7499236,-0.01919641,4.439594,2.466034,33.27
2,-0.2767792,0.3102722,0.9094543,1.0,-0.2782288,0.2884674,0.9161682,-31.49825,-3.300522,-20.12004,5.502396,0.5318568,0.5674872,1.0,-0.275177,0.3318939,0.9022675,35.05042,-3.08812,-19.65578,5.679977,0.4665872,0.5489559,-0.3515912,1.241627,-0.07108653,0.03419718,0.7499236,-0.01919641,4.439594,2.466034,33.27
2,-0.2767792,0.3102722,0.9094543,1.0,-0.2782288,0.2884674,0.9161682,-31.49825,-3.300522,-20.12004,5.502396,0.5318568,0.5674872,1.0,-0.275177,0.3318939,0.9022675,35.05042,-3.08812,-19.65578,5.679977,0.4665872,0.5489559,-0.3515912,1.241627,-0.07108653,0.03419718,0.7499236,-0.01919641,4.439594,2.466034,33.27
2,-0.2745055999999999,0.3091736,0.9105225,1.0,-0.2743835,0.2865753,0.9179077,-31.49574,-3.3063510000000003,-20.11975,5.4978940000000005,0.5311414000000001,0.5679196,1.0,-0.2744750999999999,0.3314667,0.9026489,35.05408,-3.09079,-19.65582,5.67897,0.4663492999999999,0.5490979,-0.3518018,1.241709,-0.07092339,0.03457473,0.7500893,-0.01841492,4.439594,2.466034,33.27
2,-0.2745055999999999,0.3091736,0.9105225,1.0,-0.2743835,0.2865753,0.9179077,-31.49574,-3.3063510000000003,-20.11975,5.4978940000000005,0.5311414000000001,0.5679196,1.0,-0.2744750999999999,0.3314667,0.9026489,35.05408,-3.09079,-19.65582,5.67897,0.4663492999999999,0.5490979,-0.3518018,1.241709,-0.07092339,0.03457473,0.7500893,-0.01841492,4.439594,2.466034,33.27
2,-0.2745055999999999,0.3091736,0.9105225,1.0,-0.2743835,0.2865753,0.9179077,-31.49574,-3.3063510000000003,-20.11975,5.4978940000000005,0.5311414000000001,0.5679196,1.0,-0.2744750999999999,0.3314667,0.9026489,35.05408,-3.09079,-19.65582,5.67897,0.4663492999999999,0.5490979,-0.3518018,1.241709,-0.07092339,0.03457473,0.7500893,-0.01841492,4.439594,2.466034,33.27
2,-0.2627257999999999,0.2918549,0.9196625,1.0,-0.2623138,0.2657165999999999,0.9276733,-31.44208,-3.417343,-20.05719,5.170287999999999,0.5274979000000001,0.5735199000000001,1.0,-0.2629395,0.3147583,0.9120178,35.14093,-3.205978,-19.60918,5.479248,0.4616187,0.554561,-0.3518938,1.241842,-0.07065606,0.03454045,0.7502245,-0.01787663,4.439594,2.466034,33.27
2,-0.2627257999999999,0.2918549,0.9196625,1.0,-0.2623138,0.2657165999999999,0.9276733,-31.44208,-3.417343,-20.05719,5.170287999999999,0.5274979000000001,0.5735199000000001,1.0,-0.2629395,0.3147583,0.9120178,35.14093,-3.205978,-19.60918,5.479248,0.4616187,0.554561,-0.3518938,1.241842,-0.07065606,0.03454045,0.7502245,-0.01787663,4.439594,2.466034,33.27
2,-0.2627257999999999,0.2918549,0.9196625,1.0,-0.2623138,0.2657165999999999,0.9276733,-31.44208,-3.417343,-20.05719,5.170287999999999,0.5274979000000001,0.5735199000000001,1.0,-0.2629395,0.3147583,0.9120178,35.14093,-3.205978,-19.60918,5.479248,0.4616187,0.554561,-0.3518938,1.241842,-0.07065606,0.03454045,0.7502245,-0.01787663,4.439594,2.466034,33.27
2,-0.2613678,0.2846375,0.9223021999999998,1.0,-0.2567444,0.2621155,0.9302368,-31.42162,-3.4622040000000003,-20.03566,5.367737,0.5257997,0.5754858,1.0,-0.2653198,0.3043518,0.914856,35.17569,-3.25473,-19.59259,5.510178,0.4607926999999999,0.5576576,-0.3520312,1.242014,-0.07038438,0.0346319999999999,0.7502840999999999,-0.01663799,4.439594,2.466034,33.27
2,-0.2613678,0.2846375,0.9223021999999998,1.0,-0.2567444,0.2621155,0.9302368,-31.42162,-3.4622040000000003,-20.03566,5.367737,0.5257997,0.5754858,1.0,-0.2653198,0.3043518,0.914856,35.17569,-3.25473,-19.59259,5.510178,0.4607926999999999,0.5576576,-0.3520312,1.242014,-0.07038438,0.0346319999999999,0.7502840999999999,-0.01663799,4.439594,2.466034,33.27
2,-0.2613678,0.2846375,0.9223021999999998,1.0,-0.2567444,0.2621155,0.9302368,-31.42162,-3.4622040000000003,-20.03566,5.367737,0.5257997,0.5754858,1.0,-0.2653198,0.3043518,0.914856,35.17569,-3.25473,-19.59259,5.510178,0.4607926999999999,0.5576576,-0.3520312,1.242014,-0.07038438,0.0346319999999999,0.7502840999999999,-0.01663799,4.439594,2.466034,33.27
2,-0.2557373,0.2745972,0.9269104,1.0,-0.2481842,0.2502136,0.9358215,-31.39206,-3.539108,-20.01198,5.273026,0.5234479000000001,0.5793233,1.0,-0.2632751,0.2993469,0.917099,35.20645,-3.343857,-19.58472,5.530716,0.4594016999999999,0.5612063,-0.3520723,1.242239,-0.07015854,0.034301,0.7506406999999999,-0.01603751,4.439594,2.466034,33.27
2,-0.2557373,0.2745972,0.9269104,1.0,-0.2481842,0.2502136,0.9358215,-31.39206,-3.539108,-20.01198,5.273026,0.5234479000000001,0.5793233,1.0,-0.2632751,0.2993469,0.917099,35.20645,-3.343857,-19.58472,5.530716,0.4594016999999999,0.5612063,-0.3520723,1.242239,-0.07015854,0.034301,0.7506406999999999,-0.01603751,4.439594,2.466034,33.27
2,-0.2557373,0.2745972,0.9269104,1.0,-0.2481842,0.2502136,0.9358215,-31.39206,-3.539108,-20.01198,5.273026,0.5234479000000001,0.5793233,1.0,-0.2632751,0.2993469,0.917099,35.20645,-3.343857,-19.58472,5.530716,0.4594016999999999,0.5612063,-0.3520723,1.242239,-0.07015854,0.034301,0.7506406999999999,-0.01603751,4.439594,2.466034,33.27
2,-0.2532501,0.2685242,0.9293823,1.0,-0.2444305,0.2348328,0.9407959,-31.37102,-3.641235,-19.99051,5.357941,0.5220274,0.5847898,1.0,-0.2610626,0.2991942999999999,0.9177704,35.26042,-3.411636,-19.57954,5.380905,0.4573759,0.5631109000000001,-0.3522044,1.242342,-0.06995961,0.03416748,0.7509347,-0.01516622,4.439594,7.593262,33.27
2,-0.2532501,0.2685242,0.9293823,1.0,-0.2444305,0.2348328,0.9407959,-31.37102,-3.641235,-19.99051,5.357941,0.5220274,0.5847898,1.0,-0.2610626,0.2991942999999999,0.9177704,35.26042,-3.411636,-19.57954,5.380905,0.4573759,0.5631109000000001,-0.3522044,1.242342,-0.06995961,0.03416748,0.7509347,-0.01516622,4.439594,7.593262,33.27
2,-0.2532501,0.2685242,0.9293823,1.0,-0.2444305,0.2348328,0.9407959,-31.37102,-3.641235,-19.99051,5.357941,0.5220274,0.5847898,1.0,-0.2610626,0.2991942999999999,0.9177704,35.26042,-3.411636,-19.57954,5.380905,0.4573759,0.5631109000000001,-0.3522044,1.242342,-0.06995961,0.03416748,0.7509347,-0.01516622,4.439594,7.593262,33.27
2,-0.2487335,0.2671967,0.9309692,1.0,-0.2454987,0.2444458,0.9380646,-31.35405,-3.689606,-20.00479,5.343430000000001,0.5217253,0.5849521,1.0,-0.2517548,0.2892151,0.9235535,35.29422,-3.500198,-19.55415,5.243118,0.4547518,0.5669926,-0.3523305999999999,1.242308,-0.06980947,0.03435927,0.7514460000000001,-0.01490258,4.439594,7.593262,33.27
2,-0.2487335,0.2671967,0.9309692,1.0,-0.2454987,0.2444458,0.9380646,-31.35405,-3.689606,-20.00479,5.343430000000001,0.5217253,0.5849521,1.0,-0.2517548,0.2892151,0.9235535,35.29422,-3.500198,-19.55415,5.243118,0.4547518,0.5669926,-0.3523305999999999,1.242308,-0.06980947,0.03435927,0.7514460000000001,-0.01490258,4.439594,7.593262,33.27
2,-0.2487335,0.2671967,0.9309692,1.0,-0.2454987,0.2444458,0.9380646,-31.35405,-3.689606,-20.00479,5.343430000000001,0.5217253,0.5849521,1.0,-0.2517548,0.2892151,0.9235535,35.29422,-3.500198,-19.55415,5.243118,0.4547518,0.5669926,-0.3523305999999999,1.242308,-0.06980947,0.03435927,0.7514460000000001,-0.01490258,4.439594,7.593262,33.27
2,-0.2493286,0.2572479,0.933609,1.0,-0.2451018999999999,0.2304993,0.9416809000000002,-31.33578,-3.735062,-19.99002,5.251556,0.5210459,0.5882794,1.0,-0.2535553,0.2850189,0.9243622,35.30246,-3.522049,-19.55597,5.241699,0.4547518,0.5683729999999999,-0.3524547,1.242277,-0.06967103,0.03461947,0.7520705,-0.01473136,4.439594,7.593262,33.27
2,-0.2493286,0.2572479,0.933609,1.0,-0.2451018999999999,0.2304993,0.9416809000000002,-31.33578,-3.735062,-19.99002,5.251556,0.5210459,0.5882794,1.0,-0.2535553,0.2850189,0.9243622,35.30246,-3.522049,-19.55597,5.241699,0.4547518,0.5683729999999999,-0.3524547,1.242277,-0.06967103,0.03461947,0.7520705,-0.01473136,4.439594,7.593262,33.27
2,-0.2493286,0.2572479,0.933609,1.0,-0.2451018999999999,0.2304993,0.9416809000000002,-31.33578,-3.735062,-19.99002,5.251556,0.5210459,0.5882794,1.0,-0.2535553,0.2850189,0.9243622,35.30246,-3.522049,-19.55597,5.241699,0.4547518,0.5683729999999999,-0.3524547,1.242277,-0.06967103,0.03461947,0.7520705,-0.01473136,4.439594,7.593262,33.27
2,-0.2493286,0.2572479,0.933609,1.0,-0.2451018999999999,0.2304993,0.9416809000000002,-31.33578,-3.735062,-19.99002,5.251556,0.5210459,0.5882794,1.0,-0.2535553,0.2850189,0.9243622,35.30246,-3.522049,-19.55597,5.241699,0.4547518,0.5683729999999999,-0.3526032,1.24243,-0.06960025,0.03494907,0.7530143,-0.01433729,4.439594,7.593262,33.27
2,-0.2493286,0.2572479,0.933609,1.0,-0.2451018999999999,0.2304993,0.9416809000000002,-31.33578,-3.735062,-19.99002,5.251556,0.5210459,0.5882794,1.0,-0.2535553,0.2850189,0.9243622,35.30246,-3.522049,-19.55597,5.241699,0.4547518,0.5683729999999999,-0.3526032,1.24243,-0.06960025,0.03494907,0.7530143,-0.01433729,4.439594,7.593262,33.27
2,-0.2493286,0.2572479,0.933609,1.0,-0.2451018999999999,0.2304993,0.9416809000000002,-31.33578,-3.735062,-19.99002,5.251556,0.5210459,0.5882794,1.0,-0.2535553,0.2850189,0.9243622,35.30246,-3.522049,-19.55597,5.241699,0.4547518,0.5683729999999999,-0.3526032,1.24243,-0.06960025,0.03494907,0.7530143,-0.01433729,4.439594,7.593262,33.27
2,-0.2180786,0.2315978999999999,0.9480438,1.0,-0.2194366,0.2086945,0.9530334,-31.10275,-3.757645,-19.92213,5.041382,0.5095301999999999,0.5911976999999999,1.0,-0.2160645,0.2622527999999999,0.9404907,35.52232,-3.606934,-19.46689,5.275467,0.441413,0.5734776,-0.3529847,1.242294,-0.06952417,0.03524367,0.7540952,-0.01429266,4.439594,-3.757294,33.27
2,-0.2180786,0.2315978999999999,0.9480438,1.0,-0.2194366,0.2086945,0.9530334,-31.10275,-3.757645,-19.92213,5.041382,0.5095301999999999,0.5911976999999999,1.0,-0.2160645,0.2622527999999999,0.9404907,35.52232,-3.606934,-19.46689,5.275467,0.441413,0.5734776,-0.3529847,1.242294,-0.06952417,0.03524367,0.7540952,-0.01429266,4.439594,-3.757294,33.27
2,-0.2180786,0.2315978999999999,0.9480438,1.0,-0.2194366,0.2086945,0.9530334,-31.10275,-3.757645,-19.92213,5.041382,0.5095301999999999,0.5911976999999999,1.0,-0.2160645,0.2622527999999999,0.9404907,35.52232,-3.606934,-19.46689,5.275467,0.441413,0.5734776,-0.3529847,1.242294,-0.06952417,0.03524367,0.7540952,-0.01429266,4.439594,-3.757294,33.27
2,-0.2102509,0.2612152,0.9420929,1.0,-0.204895,0.2410126,0.9486389,-31.03908,-3.708099,-19.93204,5.014037999999999,0.505356,0.5845644,1.0,-0.2167053,0.2859192,0.9334106,35.553329999999995,-3.5354309999999995,-19.50658,5.121124,0.440733,0.5676515000000001,-0.3529924,1.242302,-0.06953549,0.03549708,0.7548996,-0.01398651,4.439594,-3.757294,33.27
2,-0.2102509,0.2612152,0.9420929,1.0,-0.204895,0.2410126,0.9486389,-31.03908,-3.708099,-19.93204,5.014037999999999,0.505356,0.5845644,1.0,-0.2167053,0.2859192,0.9334106,35.553329999999995,-3.5354309999999995,-19.50658,5.121124,0.440733,0.5676515000000001,-0.3529924,1.242302,-0.06953549,0.03549708,0.7548996,-0.01398651,4.439594,-3.757294,33.27
2,-0.2102509,0.2612152,0.9420929,1.0,-0.204895,0.2410126,0.9486389,-31.03908,-3.708099,-19.93204,5.014037999999999,0.505356,0.5845644,1.0,-0.2167053,0.2859192,0.9334106,35.553329999999995,-3.5354309999999995,-19.50658,5.121124,0.440733,0.5676515000000001,-0.3529924,1.242302,-0.06953549,0.03549708,0.7548996,-0.01398651,4.439594,-3.757294,33.27
2,-0.2016449,0.2528839,0.9462433,1.0,-0.1969604,0.2363129,0.9514923,-31.0103,-3.770386,-19.91318,5.036651999999999,0.5031284,0.5870462,1.0,-0.2070465,0.2722015,0.939682,35.61374,-3.582245,-19.47919,5.107819,0.4371468,0.5709384,-0.3530632999999999,1.242316,-0.06951317,0.03568757,0.7555703,-0.01381392,4.439594,-3.757294,33.27
2,-0.2016449,0.2528839,0.9462433,1.0,-0.1969604,0.2363129,0.9514923,-31.0103,-3.770386,-19.91318,5.036651999999999,0.5031284,0.5870462,1.0,-0.2070465,0.2722015,0.939682,35.61374,-3.582245,-19.47919,5.107819,0.4371468,0.5709384,-0.3530632999999999,1.242316,-0.06951317,0.03568757,0.7555703,-0.01381392,4.439594,-3.757294,33.27
2,-0.2016449,0.2528839,0.9462433,1.0,-0.1969604,0.2363129,0.9514923,-31.0103,-3.770386,-19.91318,5.036651999999999,0.5031284,0.5870462,1.0,-0.2070465,0.2722015,0.939682,35.61374,-3.582245,-19.47919,5.107819,0.4371468,0.5709384,-0.3530632999999999,1.242316,-0.06951317,0.03568757,0.7555703,-0.01381392,4.439594,-3.757294,33.27
2,-0.1932678,0.2484436,0.9491577,1.0,-0.1986847,0.2352295,0.9514008,-30.99406,-3.816345,-19.92134,5.095078,0.5028589,0.5888198,1.0,-0.1859741,0.265976,0.9458618,35.60519,-3.742645,-19.44186,5.228882,0.4338839,0.5766800999999999,-0.3530852,1.242298,-0.06952164,0.03592167,0.7559869,-0.01379827,4.439594,-3.757294,33.27
2,-0.1932678,0.2484436,0.9491577,1.0,-0.1986847,0.2352295,0.9514008,-30.99406,-3.816345,-19.92134,5.095078,0.5028589,0.5888198,1.0,-0.1859741,0.265976,0.9458618,35.60519,-3.742645,-19.44186,5.228882,0.4338839,0.5766800999999999,-0.3530852,1.242298,-0.06952164,0.03592167,0.7559869,-0.01379827,4.439594,-3.757294,33.27
2,-0.1932678,0.2484436,0.9491577,1.0,-0.1986847,0.2352295,0.9514008,-30.99406,-3.816345,-19.92134,5.095078,0.5028589,0.5888198,1.0,-0.1859741,0.265976,0.9458618,35.60519,-3.742645,-19.44186,5.228882,0.4338839,0.5766800999999999,-0.3530852,1.242298,-0.06952164,0.03592167,0.7559869,-0.01379827,4.439594,-3.757294,33.27
2,-0.1907501,0.2427672999999999,0.9511261,1.0,-0.1986694,0.2248383,0.9539185,-30.99254,-3.816345,-19.92134,5.051071,0.502781,0.5903734,1.0,-0.180542,0.2655334,0.9470367,35.610209999999995,-3.757767,-19.44206,5.263626,0.4328229,0.5772376,-0.3531318,1.2423030000000002,-0.06944996,0.03582395,0.7563801,-0.01363231,4.439594,-3.757294,33.27
2,-0.1907501,0.2427672999999999,0.9511261,1.0,-0.1986694,0.2248383,0.9539185,-30.99254,-3.816345,-19.92134,5.051071,0.502781,0.5903734,1.0,-0.180542,0.2655334,0.9470367,35.610209999999995,-3.757767,-19.44206,5.263626,0.4328229,0.5772376,-0.3531318,1.2423030000000002,-0.06944996,0.03582395,0.7563801,-0.01363231,4.439594,-3.757294,33.27
2,-0.1907501,0.2427672999999999,0.9511261,1.0,-0.1986694,0.2248383,0.9539185,-30.99254,-3.816345,-19.92134,5.051071,0.502781,0.5903734,1.0,-0.180542,0.2655334,0.9470367,35.610209999999995,-3.757767,-19.44206,5.263626,0.4328229,0.5772376,-0.3531318,1.2423030000000002,-0.06944996,0.03582395,0.7563801,-0.01363231,4.439594,-3.757294,33.27
2,-0.1882324,0.2322235,0.9542694,1.0,-0.191452,0.2088469999999999,0.9590149,-30.97798,-3.833725,-19.91623,5.071976,0.5010882000000001,0.5933016999999999,1.0,-0.1849976,0.2548065,0.9491119,35.68683,-3.781662,-19.42882,5.224014,0.431052,0.5795143,-0.3530705,1.242229,-0.06937099,0.03619858,0.7565496,-0.01368862,4.439594,-3.757294,33.27
2,-0.1882324,0.2322235,0.9542694,1.0,-0.191452,0.2088469999999999,0.9590149,-30.97798,-3.833725,-19.91623,5.071976,0.5010882000000001,0.5933016999999999,1.0,-0.1849976,0.2548065,0.9491119,35.68683,-3.781662,-19.42882,5.224014,0.431052,0.5795143,-0.3530705,1.242229,-0.06937099,0.03619858,0.7565496,-0.01368862,4.439594,-3.757294,33.27
2,-0.1882324,0.2322235,0.9542694,1.0,-0.191452,0.2088469999999999,0.9590149,-30.97798,-3.833725,-19.91623,5.071976,0.5010882000000001,0.5933016999999999,1.0,-0.1849976,0.2548065,0.9491119,35.68683,-3.781662,-19.42882,5.224014,0.431052,0.5795143,-0.3530705,1.242229,-0.06937099,0.03619858,0.7565496,-0.01368862,4.439594,-3.757294,33.27
3,-0.1895294,0.2291565,0.9547424,1.0,-0.1860352,0.2028351,0.9613646999999998,-30.97031,-3.847656,-19.91623,5.094193,0.4999455,0.5946623000000001,1.0,-0.192749,0.2541962,0.9477386,35.74402,-3.790588,-19.42661,5.210922,0.4304729,0.5798904,-0.3531051,1.242166,-0.06926635,0.03590113,0.7567034,-0.01379881,4.439594,5.112961,33.27
3,-0.1895294,0.2291565,0.9547424,1.0,-0.1860352,0.2028351,0.9613646999999998,-30.97031,-3.847656,-19.91623,5.094193,0.4999455,0.5946623000000001,1.0,-0.192749,0.2541962,0.9477386,35.74402,-3.790588,-19.42661,5.210922,0.4304729,0.5798904,-0.3531051,1.242166,-0.06926635,0.03590113,0.7567034,-0.01379881,4.439594,5.112961,33.27
3,-0.1895294,0.2291565,0.9547424,1.0,-0.1860352,0.2028351,0.9613646999999998,-30.97031,-3.847656,-19.91623,5.094193,0.4999455,0.5946623000000001,1.0,-0.192749,0.2541962,0.9477386,35.74402,-3.790588,-19.42661,5.210922,0.4304729,0.5798904,-0.3531051,1.242166,-0.06926635,0.03590113,0.7567034,-0.01379881,4.439594,5.112961,33.27
3,-0.1916962,0.2231598,0.9557343,1.0,-0.1872711,0.193161,0.9631195,-30.94501,-3.880203,-19.91776,5.124771,0.4992877999999999,0.5972371,1.0,-0.1959991,0.2533569,0.9472961,35.7661,-3.818665,-19.43056,5.192764,0.4302876,0.5809625,-0.3531158,1.242249,-0.06924933,0.03577274,0.7567811,-0.01378989,4.439594,5.112961,33.27
3,-0.1916962,0.2231598,0.9557343,1.0,-0.1872711,0.193161,0.9631195,-30.94501,-3.880203,-19.91776,5.124771,0.4992877999999999,0.5972371,1.0,-0.1959991,0.2533569,0.9472961,35.7661,-3.818665,-19.43056,5.192764,0.4302876,0.5809625,-0.3531158,1.242249,-0.06924933,0.03577274,0.7567811,-0.01378989,4.439594,5.112961,33.27
3,-0.1916962,0.2231598,0.9557343,1.0,-0.1872711,0.193161,0.9631195,-30.94501,-3.880203,-19.91776,5.124771,0.4992877999999999,0.5972371,1.0,-0.1959991,0.2533569,0.9472961,35.7661,-3.818665,-19.43056,5.192764,0.4302876,0.5809625,-0.3531158,1.242249,-0.06924933,0.03577274,0.7567811,-0.01378989,4.439594,5.112961,33.27
3,-0.1710205,0.2006683,0.9645996,1.0,-0.166687,0.1822815,0.9690094,-30.66208,-3.934586,-19.903270000000003,5.110703,0.4870284000000001,0.6002804,1.0,-0.1762237999999999,0.2230835,0.958725,36.10471,-3.907166,-19.3454,5.24794,0.4160877999999999,0.5875545,-0.3530952,1.242235,-0.0693218999999999,0.03601576,0.756781,-0.01385525,4.439594,5.112961,33.27
3,-0.1710205,0.2006683,0.9645996,1.0,-0.166687,0.1822815,0.9690094,-30.66208,-3.934586,-19.903270000000003,5.110703,0.4870284000000001,0.6002804,1.0,-0.1762237999999999,0.2230835,0.958725,36.10471,-3.907166,-19.3454,5.24794,0.4160877999999999,0.5875545,-0.3530952,1.242235,-0.0693218999999999,0.03601576,0.756781,-0.01385525,4.439594,5.112961,33.27
3,-0.1710205,0.2006683,0.9645996,1.0,-0.166687,0.1822815,0.9690094,-30.66208,-3.934586,-19.903270000000003,5.110703,0.4870284000000001,0.6002804,1.0,-0.1762237999999999,0.2230835,0.958725,36.10471,-3.907166,-19.3454,5.24794,0.4160877999999999,0.5875545,-0.3530952,1.242235,-0.0693218999999999,0.03601576,0.756781,-0.01385525,4.439594,5.112961,33.27
3,-0.06634521,0.2606353999999999,0.96315,1.0,-0.06387329,0.2035828,0.9769592,-29.71846,-3.868439,-19.51433,5.1534580000000005,0.4411274,0.5906714,1.0,-0.06645203,0.2631531,0.9624481,36.94992,-3.871094,-19.35959,5.26387,0.371498,0.5795821,-0.3528915999999999,1.242176,-0.06939942,0.03556847,0.7569239999999999,-0.01415147,4.451126,5.112961,33.27
3,-0.06634521,0.2606353999999999,0.96315,1.0,-0.06387329,0.2035828,0.9769592,-29.71846,-3.868439,-19.51433,5.1534580000000005,0.4411274,0.5906714,1.0,-0.06645203,0.2631531,0.9624481,36.94992,-3.871094,-19.35959,5.26387,0.371498,0.5795821,-0.3528915999999999,1.242176,-0.06939942,0.03556847,0.7569239999999999,-0.01415147,4.451126,5.112961,33.27
3,-0.06634521,0.2606353999999999,0.96315,1.0,-0.06387329,0.2035828,0.9769592,-29.71846,-3.868439,-19.51433,5.1534580000000005,0.4411274,0.5906714,1.0,-0.06645203,0.2631531,0.9624481,36.94992,-3.871094,-19.35959,5.26387,0.371498,0.5795821,-0.3528915999999999,1.242176,-0.06939942,0.03556847,0.7569239999999999,-0.01415147,4.451126,5.112961,33.27
3,-0.06105042,0.2666930999999999,0.9618378,1.0,-0.05209351,0.2249146,0.9729767,-29.70328,-4.300552,-18.49635,5.223984,0.4390649,0.5916316,1.0,-0.06105042,0.2666930999999999,0.9618378,36.96452,-3.875748,-19.36551,5.317612,0.370146,0.5792879,-0.352621,1.242008,-0.06951118,0.03535211,0.7568369,-0.01402547,4.451126,5.112961,33.27
3,-0.06105042,0.2666930999999999,0.9618378,1.0,-0.05209351,0.2249146,0.9729767,-29.70328,-4.300552,-18.49635,5.223984,0.4390649,0.5916316,1.0,-0.06105042,0.2666930999999999,0.9618378,36.96452,-3.875748,-19.36551,5.317612,0.370146,0.5792879,-0.352621,1.242008,-0.06951118,0.03535211,0.7568369,-0.01402547,4.451126,5.112961,33.27
3,-0.06105042,0.2666930999999999,0.9618378,1.0,-0.05209351,0.2249146,0.9729767,-29.70328,-4.300552,-18.49635,5.223984,0.4390649,0.5916316,1.0,-0.06105042,0.2666930999999999,0.9618378,36.96452,-3.875748,-19.36551,5.317612,0.370146,0.5792879,-0.352621,1.242008,-0.06951118,0.03535211,0.7568369,-0.01402547,4.451126,5.112961,33.27
3,-0.06105042,0.2666930999999999,0.9618378,1.0,-0.05209351,0.2249146,0.9729767,-29.70328,-4.300552,-18.49635,5.223984,0.4390649,0.5916316,1.0,-0.06105042,0.2666930999999999,0.9618378,36.96452,-3.875748,-19.36551,5.317612,0.370146,0.5792879,-0.3522953,1.241869,-0.06956989,0.03558926,0.7567571,-0.014676,4.451126,13.18097,33.27
3,-0.06105042,0.2666930999999999,0.9618378,1.0,-0.05209351,0.2249146,0.9729767,-29.70328,-4.300552,-18.49635,5.223984,0.4390649,0.5916316,1.0,-0.06105042,0.2666930999999999,0.9618378,36.96452,-3.875748,-19.36551,5.317612,0.370146,0.5792879,-0.3522953,1.241869,-0.06956989,0.03558926,0.7567571,-0.014676,4.451126,13.18097,33.27
3,-0.06105042,0.2666930999999999,0.9618378,1.0,-0.05209351,0.2249146,0.9729767,-29.70328,-4.300552,-18.49635,5.223984,0.4390649,0.5916316,1.0,-0.06105042,0.2666930999999999,0.9618378,36.96452,-3.875748,-19.36551,5.317612,0.370146,0.5792879,-0.3522953,1.241869,-0.06956989,0.03558926,0.7567571,-0.014676,4.451126,13.18097,33.27
3,-0.06062317,0.2578278,0.9642792,1.0,-0.05210876,0.2158813,0.9750214,-29.72414,-4.289063,-18.55016,5.158157,0.4397034999999999,0.5930489999999999,1.0,-0.06062317,0.2578278,0.9642792,36.98299,-3.901672,-19.35289,5.249969,0.3694855999999999,0.5812712,-0.3518097,1.241826,-0.06961519,0.03617053,0.7566232,-0.01587806,4.451126,13.18097,33.27
3,-0.06062317,0.2578278,0.9642792,1.0,-0.05210876,0.2158813,0.9750214,-29.72414,-4.289063,-18.55016,5.158157,0.4397034999999999,0.5930489999999999,1.0,-0.06062317,0.2578278,0.9642792,36.98299,-3.901672,-19.35289,5.249969,0.3694855999999999,0.5812712,-0.3518097,1.241826,-0.06961519,0.03617053,0.7566232,-0.01587806,4.451126,13.18097,33.27
3,-0.06062317,0.2578278,0.9642792,1.0,-0.05210876,0.2158813,0.9750214,-29.72414,-4.289063,-18.55016,5.158157,0.4397034999999999,0.5930489999999999,1.0,-0.06062317,0.2578278,0.9642792,36.98299,-3.901672,-19.35289,5.249969,0.3694855999999999,0.5812712,-0.3518097,1.241826,-0.06961519,0.03617053,0.7566232,-0.01587806,4.451126,13.18097,33.27
3,-0.06332397,0.2503357,0.9660797,1.0,-0.05023193,0.1875305,0.980957,-29.762590000000003,-3.902237,-19.63303,5.127792,0.4403106,0.5952420999999999,1.0,-0.06332397,0.2503357,0.9660797,37.0041,-3.954651,-19.34727,5.230208999999999,0.3692184,0.5840561,-0.3512813,1.241576,-0.06968358,0.03629021,0.7562004,-0.01612391,4.451126,13.18097,33.27
3,-0.06332397,0.2503357,0.9660797,1.0,-0.05023193,0.1875305,0.980957,-29.762590000000003,-3.902237,-19.63303,5.127792,0.4403106,0.5952420999999999,1.0,-0.06332397,0.2503357,0.9660797,37.0041,-3.954651,-19.34727,5.230208999999999,0.3692184,0.5840561,-0.3512813,1.241576,-0.06968358,0.03629021,0.7562004,-0.01612391,4.451126,13.18097,33.27
3,-0.06332397,0.2503357,0.9660797,1.0,-0.05023193,0.1875305,0.980957,-29.762590000000003,-3.902237,-19.63303,5.127792,0.4403106,0.5952420999999999,1.0,-0.06332397,0.2503357,0.9660797,37.0041,-3.954651,-19.34727,5.230208999999999,0.3692184,0.5840561,-0.3512813,1.241576,-0.06968358,0.03629021,0.7562004,-0.01612391,4.451126,13.18097,33.27
3,-0.06295776,0.2500153,0.9661865,1.0,-0.05038452,0.1808319,0.9822083,-29.76639,-3.902237,-19.63303,5.127029,0.4404445999999999,0.5962881,1.0,-0.06297302,0.2500916,0.966156,37.0041,-3.970688,-19.3284,5.217407,0.3691774,0.5844142,-0.3509469,1.24156,-0.06969175,0.03585887,0.7559326999999999,-0.0161149,4.451126,13.18097,33.27
3,-0.06295776,0.2500153,0.9661865,1.0,-0.05038452,0.1808319,0.9822083,-29.76639,-3.902237,-19.63303,5.127029,0.4404445999999999,0.5962881,1.0,-0.06297302,0.2500916,0.966156,37.0041,-3.970688,-19.3284,5.217407,0.3691774,0.5844142,-0.3509469,1.24156,-0.06969175,0.03585887,0.7559326999999999,-0.0161149,4.451126,13.18097,33.27
3,-0.06295776,0.2500153,0.9661865,1.0,-0.05038452,0.1808319,0.9822083,-29.76639,-3.902237,-19.63303,5.127029,0.4404445999999999,0.5962881,1.0,-0.06297302,0.2500916,0.966156,37.0041,-3.970688,-19.3284,5.217407,0.3691774,0.5844142,-0.3509469,1.24156,-0.06969175,0.03585887,0.7559326999999999,-0.0161149,4.451126,13.18097,33.27
3,-0.05767822,0.2137451,0.975174,1.0,-0.05143738,0.1829376,0.9817657,-29.76962,-3.955505000000001,-19.59259,5.131088,0.4407164,0.5972708000000001,1.0,-0.06401062,0.2451324,0.9673615,37.00734,-3.987991000000001,-19.32474,5.235229,0.3692225999999999,0.5857236,-0.3509469,1.24156,-0.06969175,0.03585887,0.7559326999999999,-0.0161149,4.451126,7.424164,33.27
3,-0.05767822,0.2137451,0.975174,1.0,-0.05143738,0.1829376,0.9817657,-29.76962,-3.955505000000001,-19.59259,5.131088,0.4407164,0.5972708000000001,1.0,-0.06401062,0.2451324,0.9673615,37.00734,-3.987991000000001,-19.32474,5.235229,0.3692225999999999,0.5857236,-0.3509469,1.24156,-0.06969175,0.03585887,0.7559326999999999,-0.0161149,4.451126,7.424164,33.27
3,-0.05767822,0.2137451,0.975174,1.0,-0.05143738,0.1829376,0.9817657,-29.76962,-3.955505000000001,-19.59259,5.131088,0.4407164,0.5972708000000001,1.0,-0.06401062,0.2451324,0.9673615,37.00734,-3.987991000000001,-19.32474,5.235229,0.3692225999999999,0.5857236,-0.3509469,1.24156,-0.06969175,0.03585887,0.7559326999999999,-0.0161149,4.451126,7.424164,33.27
3,0.01605225,0.2900390999999999,0.9568634,1.0,0.005233765,0.250351,0.9681244,-29.05447,-4.635742,-18.00497,5.324493,0.4100314,0.593657,1.0,0.01605225,0.2900390999999999,0.9568634,37.60191,-4.069031,-19.42113,5.316955999999999,0.3371677,0.5820705,-0.3498268,1.24155,-0.06979436,0.03629724,0.7551871,-0.01645042,4.451126,7.424164,33.27
3,0.01605225,0.2900390999999999,0.9568634,1.0,0.005233765,0.250351,0.9681244,-29.05447,-4.635742,-18.00497,5.324493,0.4100314,0.593657,1.0,0.01605225,0.2900390999999999,0.9568634,37.60191,-4.069031,-19.42113,5.316955999999999,0.3371677,0.5820705,-0.3498268,1.24155,-0.06979436,0.03629724,0.7551871,-0.01645042,4.451126,7.424164,33.27
3,0.01605225,0.2900390999999999,0.9568634,1.0,0.005233765,0.250351,0.9681244,-29.05447,-4.635742,-18.00497,5.324493,0.4100314,0.593657,1.0,0.01605225,0.2900390999999999,0.9568634,37.60191,-4.069031,-19.42113,5.316955999999999,0.3371677,0.5820705,-0.3498268,1.24155,-0.06979436,0.03629724,0.7551871,-0.01645042,4.451126,7.424164,33.27
3,0.008132935,0.2906952,0.9567719,1.0,0.004348755,0.2427672999999999,0.9700623,-29.11182,-4.499954,-18.46693,5.296233999999999,0.4117629,0.5947513000000001,1.0,0.008148193,0.2909087999999999,0.9567108,37.59406,-4.070709,-19.42117,5.3662410000000005,0.3386905,0.5820705,-0.3493356999999999,1.241499,-0.07003352,0.03646426,0.75534,-0.01673176,4.451126,7.424164,33.27
3,0.008132935,0.2906952,0.9567719,1.0,0.004348755,0.2427672999999999,0.9700623,-29.11182,-4.499954,-18.46693,5.296233999999999,0.4117629,0.5947513000000001,1.0,0.008148193,0.2909087999999999,0.9567108,37.59406,-4.070709,-19.42117,5.3662410000000005,0.3386905,0.5820705,-0.3493356999999999,1.241499,-0.07003352,0.03646426,0.75534,-0.01673176,4.451126,7.424164,33.27
3,0.008132935,0.2906952,0.9567719,1.0,0.004348755,0.2427672999999999,0.9700623,-29.11182,-4.499954,-18.46693,5.296233999999999,0.4117629,0.5947513000000001,1.0,0.008148193,0.2909087999999999,0.9567108,37.59406,-4.070709,-19.42117,5.3662410000000005,0.3386905,0.5820705,-0.3493356999999999,1.241499,-0.07003352,0.03646426,0.75534,-0.01673176,4.451126,7.424164,33.27
3,0.003952026,0.2915192,0.956543,1.0,0.001937866,0.2449646,0.9695282,-29.12939,-4.537659,-18.39944,5.258743,0.4127144,0.5949333000000001,1.0,0.003967285,0.2921906,0.9563446,37.58536,-4.081405999999999,-19.42149,5.381195,0.3396388,0.5822392,-0.3491067,1.241217,-0.07014954,0.03693565,0.7555163,-0.01689131,4.451126,7.424164,33.27
3,0.003952026,0.2915192,0.956543,1.0,0.001937866,0.2449646,0.9695282,-29.12939,-4.537659,-18.39944,5.258743,0.4127144,0.5949333000000001,1.0,0.003967285,0.2921906,0.9563446,37.58536,-4.081405999999999,-19.42149,5.381195,0.3396388,0.5822392,-0.3491067,1.241217,-0.07014954,0.03693565,0.7555163,-0.01689131,4.451126,7.424164,33.27
3,0.003952026,0.2915192,0.956543,1.0,0.001937866,0.2449646,0.9695282,-29.12939,-4.537659,-18.39944,5.258743,0.4127144,0.5949333000000001,1.0,0.003967285,0.2921906,0.9563446,37.58536,-4.081405999999999,-19.42149,5.381195,0.3396388,0.5822392,-0.3491067,1.241217,-0.07014954,0.03693565,0.7555163,-0.01689131,4.451126,7.424164,33.27
3,0.000869751,0.275528,0.9612885,1.0,0.001190186,0.2471771,0.9689636,-29.147340000000003,-4.55101,-18.40335,5.264282,0.4133882,0.5950538000000001,1.0,0.0007019042999999,0.290863,0.9567565999999998,37.57294,-4.088989,-19.42216,5.427155,0.3405542,0.5827696,-0.3487014,1.241077,-0.07019347,0.03715397,0.7558518,-0.01729601,4.451126,-8.668579,33.27
3,0.000869751,0.275528,0.9612885,1.0,0.001190186,0.2471771,0.9689636,-29.147340000000003,-4.55101,-18.40335,5.264282,0.4133882,0.5950538000000001,1.0,0.0007019042999999,0.290863,0.9567565999999998,37.57294,-4.088989,-19.42216,5.427155,0.3405542,0.5827696,-0.3487014,1.241077,-0.07019347,0.03715397,0.7558518,-0.01729601,4.451126,-8.668579,33.27
3,0.000869751,0.275528,0.9612885,1.0,0.001190186,0.2471771,0.9689636,-29.147340000000003,-4.55101,-18.40335,5.264282,0.4133882,0.5950538000000001,1.0,0.0007019042999999,0.290863,0.9567565999999998,37.57294,-4.088989,-19.42216,5.427155,0.3405542,0.5827696,-0.3487014,1.241077,-0.07019347,0.03715397,0.7558518,-0.01729601,4.451126,-8.668579,33.27
3,-0.00718689,0.2633209,0.9646759,1.0,-0.005813599,0.2362061,0.9716796999999998,-29.23552,-4.544479,-18.44229,5.240967,0.4172202999999999,0.5968609,1.0,-0.008377075,0.2865295,0.9580231,37.50273,-4.132858000000001,-19.42181,5.457855,0.3442529,0.584907,-0.3483665999999999,1.240973,-0.07017267,0.03749337,0.7561568000000001,-0.01786465,4.451126,-8.668579,33.27
3,-0.00718689,0.2633209,0.9646759,1.0,-0.005813599,0.2362061,0.9716796999999998,-29.23552,-4.544479,-18.44229,5.240967,0.4172202999999999,0.5968609,1.0,-0.008377075,0.2865295,0.9580231,37.50273,-4.132858000000001,-19.42181,5.457855,0.3442529,0.584907,-0.3483665999999999,1.240973,-0.07017267,0.03749337,0.7561568000000001,-0.01786465,4.451126,-8.668579,33.27
3,-0.00718689,0.2633209,0.9646759,1.0,-0.005813599,0.2362061,0.9716796999999998,-29.23552,-4.544479,-18.44229,5.240967,0.4172202999999999,0.5968609,1.0,-0.008377075,0.2865295,0.9580231,37.50273,-4.132858000000001,-19.42181,5.457855,0.3442529,0.584907,-0.3483665999999999,1.240973,-0.07017267,0.03749337,0.7561568000000001,-0.01786465,4.451126,-8.668579,33.27
3,-0.008178711,0.2633209,0.9646606,1.0,-0.01116943,0.2343445,0.9720764,-29.25964,-4.535965,-18.49362,5.263214,0.4187857,0.5973925999999999,1.0,-0.005065918,0.2931975999999999,0.9560242,37.4682,-4.154221,-19.46927,5.462905999999999,0.3447734,0.5850078000000001,-0.3480156,1.241038,-0.07018223,0.0377987,0.7562923,-0.01766217,4.451126,-8.668579,33.27
3,-0.008178711,0.2633209,0.9646606,1.0,-0.01116943,0.2343445,0.9720764,-29.25964,-4.535965,-18.49362,5.263214,0.4187857,0.5973925999999999,1.0,-0.005065918,0.2931975999999999,0.9560242,37.4682,-4.154221,-19.46927,5.462905999999999,0.3447734,0.5850078000000001,-0.3480156,1.241038,-0.07018223,0.0377987,0.7562923,-0.01766217,4.451126,-8.668579,33.27
3,-0.008178711,0.2633209,0.9646606,1.0,-0.01116943,0.2343445,0.9720764,-29.25964,-4.535965,-18.49362,5.263214,0.4187857,0.5973925999999999,1.0,-0.005065918,0.2931975999999999,0.9560242,37.4682,-4.154221,-19.46927,5.462905999999999,0.3447734,0.5850078000000001,-0.3480156,1.241038,-0.07018223,0.0377987,0.7562923,-0.01766217,4.451126,-8.668579,33.27
3,-0.01239014,0.2679595999999999,0.9633331,1.0,-0.01495361,0.2133179,0.9768524,-29.28928,-4.372421,-18.76048,5.274979,0.4202041,0.597954,1.0,-0.01104736,0.2958832,0.9551544,37.44119,-4.1716,-19.46927,5.470688,0.3466035,0.5851664000000001,-0.3478737,1.240995,-0.07002231,0.03796495,0.756359,-0.01753123,4.451126,-8.668579,33.27
3,-0.01239014,0.2679595999999999,0.9633331,1.0,-0.01495361,0.2133179,0.9768524,-29.28928,-4.372421,-18.76048,5.274979,0.4202041,0.597954,1.0,-0.01104736,0.2958832,0.9551544,37.44119,-4.1716,-19.46927,5.470688,0.3466035,0.5851664000000001,-0.3478737,1.240995,-0.07002231,0.03796495,0.756359,-0.01753123,4.451126,-8.668579,33.27
3,-0.01239014,0.2679595999999999,0.9633331,1.0,-0.01495361,0.2133179,0.9768524,-29.28928,-4.372421,-18.76048,5.274979,0.4202041,0.597954,1.0,-0.01104736,0.2958832,0.9551544,37.44119,-4.1716,-19.46927,5.470688,0.3466035,0.5851664000000001,-0.3478737,1.240995,-0.07002231,0.03796495,0.756359,-0.01753123,4.451126,-8.668579,33.27
3,-0.02116394,0.2941284,0.9555206,1.0,-0.02296448,0.2129669,0.9767761,-29.28928,-4.371201,-18.76451,5.258621,0.421447,0.5980039,1.0,-0.02107239,0.2979736,0.9543304,37.42072,-4.192688,-19.477870000000003,5.473862,0.3488624,0.5856219,-0.3476468,1.240952,-0.07005525,0.03781501,0.7563645999999999,-0.01726766,4.451126,-8.668579,33.27
3,-0.02116394,0.2941284,0.9555206,1.0,-0.02296448,0.2129669,0.9767761,-29.28928,-4.371201,-18.76451,5.258621,0.421447,0.5980039,1.0,-0.02107239,0.2979736,0.9543304,37.42072,-4.192688,-19.477870000000003,5.473862,0.3488624,0.5856219,-0.3476468,1.240952,-0.07005525,0.03781501,0.7563645999999999,-0.01726766,4.451126,-8.668579,33.27
3,-0.02116394,0.2941284,0.9555206,1.0,-0.02296448,0.2129669,0.9767761,-29.28928,-4.371201,-18.76451,5.258621,0.421447,0.5980039,1.0,-0.02107239,0.2979736,0.9543304,37.42072,-4.192688,-19.477870000000003,5.473862,0.3488624,0.5856219,-0.3476468,1.240952,-0.07005525,0.03781501,0.7563645999999999,-0.01726766,4.451126,-8.668579,33.27
3,-0.02874756,0.2676697,0.9630737,1.0,-0.03067017,0.216629,0.975769,-29.31648,-4.408676,-18.72426,5.272705,0.4235134,0.5982824999999999,1.0,-0.02774048,0.2933197,0.9555969,37.40814,-4.196625,-19.48308,5.481232,0.3503252999999999,0.5865303000000001,-0.3474886,1.241054,-0.0701088,0.03775827,0.7569193000000001,-0.01672575,4.451126,-16.96835,33.27
3,-0.02874756,0.2676697,0.9630737,1.0,-0.03067017,0.216629,0.975769,-29.31648,-4.408676,-18.72426,5.272705,0.4235134,0.5982824999999999,1.0,-0.02774048,0.2933197,0.9555969,37.40814,-4.196625,-19.48308,5.481232,0.3503252999999999,0.5865303000000001,-0.3474886,1.241054,-0.0701088,0.03775827,0.7569193000000001,-0.01672575,4.451126,-16.96835,33.27
3,-0.02874756,0.2676697,0.9630737,1.0,-0.03067017,0.216629,0.975769,-29.31648,-4.408676,-18.72426,5.272705,0.4235134,0.5982824999999999,1.0,-0.02774048,0.2933197,0.9555969,37.40814,-4.196625,-19.48308,5.481232,0.3503252999999999,0.5865303000000001,-0.3474886,1.241054,-0.0701088,0.03775827,0.7569193000000001,-0.01672575,4.451126,-16.96835,33.27
3,-0.03097534,0.2587585,0.9654388,1.0,-0.0317688,0.2164916999999999,0.9757538,-29.34283,-4.413651,-18.72139,5.280884,0.4245122999999999,0.5984415,1.0,-0.03025818,0.2934418,0.9554901,37.40364,-4.199142,-19.48314,5.481628,0.3508771,0.5866001000000001,-0.3473025999999999,1.241257,-0.07019317,0.03756752,0.7581233,-0.01585411,4.451126,-16.96835,33.27
3,-0.03097534,0.2587585,0.9654388,1.0,-0.0317688,0.2164916999999999,0.9757538,-29.34283,-4.413651,-18.72139,5.280884,0.4245122999999999,0.5984415,1.0,-0.03025818,0.2934418,0.9554901,37.40364,-4.199142,-19.48314,5.481628,0.3508771,0.5866001000000001,-0.3473025999999999,1.241257,-0.07019317,0.03756752,0.7581233,-0.01585411,4.451126,-16.96835,33.27
3,-0.03097534,0.2587585,0.9654388,1.0,-0.0317688,0.2164916999999999,0.9757538,-29.34283,-4.413651,-18.72139,5.280884,0.4245122999999999,0.5984415,1.0,-0.03025818,0.2934418,0.9554901,37.40364,-4.199142,-19.48314,5.481628,0.3508771,0.5866001000000001,-0.3473025999999999,1.241257,-0.07019317,0.03756752,0.7581233,-0.01585411,4.451126,-16.96835,33.27
3,-0.03794861,0.2923126,0.9555511,1.0,-0.02287292,0.2340698,0.9719391,-29.51466,-4.905501999999999,-17.603360000000002,5.316025,0.4288293999999999,0.6009399000000001,1.0,-0.03804016,0.2926331,0.9554596,37.38428,-4.208115,-19.48492,5.500198,0.3527416,0.5870812,-0.3471327,1.241585,-0.07071051,0.03680511,0.7617166999999999,-0.01426879,4.451126,-16.96835,33.27
3,-0.03794861,0.2923126,0.9555511,1.0,-0.02287292,0.2340698,0.9719391,-29.51466,-4.905501999999999,-17.603360000000002,5.316025,0.4288293999999999,0.6009399000000001,1.0,-0.03804016,0.2926331,0.9554596,37.38428,-4.208115,-19.48492,5.500198,0.3527416,0.5870812,-0.3471327,1.241585,-0.07071051,0.03680511,0.7617166999999999,-0.01426879,4.451126,-16.96835,33.27
3,-0.03794861,0.2923126,0.9555511,1.0,-0.02287292,0.2340698,0.9719391,-29.51466,-4.905501999999999,-17.603360000000002,5.316025,0.4288293999999999,0.6009399000000001,1.0,-0.03804016,0.2926331,0.9554596,37.38428,-4.208115,-19.48492,5.500198,0.3527416,0.5870812,-0.3471327,1.241585,-0.07071051,0.03680511,0.7617166999999999,-0.01426879,4.451126,-16.96835,33.27
3,-0.076828,0.2687835999999999,0.9601288,1.0,-0.08399963,0.2210846,0.9716187,-30.30318,-4.391617,-18.53465,5.344299,0.4627559,0.5957561,1.0,-0.07681274,0.2688293,0.9601135,36.42999,-3.862244000000001,-19.46715,5.523697,0.3897013,0.579919,-0.3471152999999999,1.2422030000000002,-0.07220563,0.03633166,0.7698298000000001,-0.01131178,4.451126,-16.96835,33.27
3,-0.076828,0.2687835999999999,0.9601288,1.0,-0.08399963,0.2210846,0.9716187,-30.30318,-4.391617,-18.53465,5.344299,0.4627559,0.5957561,1.0,-0.07681274,0.2688293,0.9601135,36.42999,-3.862244000000001,-19.46715,5.523697,0.3897013,0.579919,-0.3471152999999999,1.2422030000000002,-0.07220563,0.03633166,0.7698298000000001,-0.01131178,4.451126,-16.96835,33.27
3,-0.076828,0.2687835999999999,0.9601288,1.0,-0.08399963,0.2210846,0.9716187,-30.30318,-4.391617,-18.53465,5.344299,0.4627559,0.5957561,1.0,-0.07681274,0.2688293,0.9601135,36.42999,-3.862244000000001,-19.46715,5.523697,0.3897013,0.579919,-0.3471152999999999,1.2422030000000002,-0.07220563,0.03633166,0.7698298000000001,-0.01131178,4.451126,-16.96835,33.27
3,-0.1665039,0.2888947,0.9427643,1.0,-0.2003174,0.2685242,0.9421997,-31.03548,-4.155426,-18.71373,5.260529,0.5042095,0.5834808000000001,1.0,-0.1663971,0.2889557,0.9427643,35.44975,-3.52417,-19.68121,5.4679720000000005,0.4356806,0.5685589,-0.3473294,1.243434,-0.07497826,0.03597157,0.784188,-0.004961899,4.451126,-16.96835,33.27
3,-0.1665039,0.2888947,0.9427643,1.0,-0.2003174,0.2685242,0.9421997,-31.03548,-4.155426,-18.71373,5.260529,0.5042095,0.5834808000000001,1.0,-0.1663971,0.2889557,0.9427643,35.44975,-3.52417,-19.68121,5.4679720000000005,0.4356806,0.5685589,-0.3473294,1.243434,-0.07497826,0.03597157,0.784188,-0.004961899,4.451126,-16.96835,33.27
3,-0.1665039,0.2888947,0.9427643,1.0,-0.2003174,0.2685242,0.9421997,-31.03548,-4.155426,-18.71373,5.260529,0.5042095,0.5834808000000001,1.0,-0.1663971,0.2889557,0.9427643,35.44975,-3.52417,-19.68121,5.4679720000000005,0.4356806,0.5685589,-0.3473294,1.243434,-0.07497826,0.03597157,0.784188,-0.004961899,4.451126,-16.96835,33.27
3,-0.3295898,0.3178406,0.8890075999999999,1.0,-0.3351135,0.3148804,0.8879851999999999,-31.97316,-4.103729,-19.08582,5.635178,0.5556651999999999,0.5801615999999999,1.0,-0.2773285,0.3448792,0.8967285,34.36223,-3.441666000000001,-20.12103,5.393021,0.4893282,0.5622553000000001,-0.3478484,1.244471,-0.07852843,0.03882892,0.8018271,0.002671639,4.451126,-16.96835,33.27
3,-0.3295898,0.3178406,0.8890075999999999,1.0,-0.3351135,0.3148804,0.8879851999999999,-31.97316,-4.103729,-19.08582,5.635178,0.5556651999999999,0.5801615999999999,1.0,-0.2773285,0.3448792,0.8967285,34.36223,-3.441666000000001,-20.12103,5.393021,0.4893282,0.5622553000000001,-0.3478484,1.244471,-0.07852843,0.03882892,0.8018271,0.002671639,4.451126,-16.96835,33.27
3,-0.3295898,0.3178406,0.8890075999999999,1.0,-0.3351135,0.3148804,0.8879851999999999,-31.97316,-4.103729,-19.08582,5.635178,0.5556651999999999,0.5801615999999999,1.0,-0.2773285,0.3448792,0.8967285,34.36223,-3.441666000000001,-20.12103,5.393021,0.4893282,0.5622553000000001,-0.3478484,1.244471,-0.07852843,0.03882892,0.8018271,0.002671639,4.451126,-16.96835,33.27
3,-0.4760437,0.3052063,0.8247375,1.0,-0.4891662999999999,0.2920532,0.8218231,-32.77823,-4.324722,-19.51627,5.728668,0.6070466999999999,0.5973651999999999,1.0,-0.4529114000000001,0.3277739999999999,0.8291016,33.491409999999995,-3.56868,-20.61813,5.77597,0.5472534,0.5767986999999999,-0.3487383,1.245252,-0.08285192,0.0431524999999999,0.8218200000000001,0.008349109,4.451126,12.15332,33.27
3,-0.4760437,0.3052063,0.8247375,1.0,-0.4891662999999999,0.2920532,0.8218231,-32.77823,-4.324722,-19.51627,5.728668,0.6070466999999999,0.5973651999999999,1.0,-0.4529114000000001,0.3277739999999999,0.8291016,33.491409999999995,-3.56868,-20.61813,5.77597,0.5472534,0.5767986999999999,-0.3487383,1.245252,-0.08285192,0.0431524999999999,0.8218200000000001,0.008349109,4.451126,12.15332,33.27
3,-0.4760437,0.3052063,0.8247375,1.0,-0.4891662999999999,0.2920532,0.8218231,-32.77823,-4.324722,-19.51627,5.728668,0.6070466999999999,0.5973651999999999,1.0,-0.4529114000000001,0.3277739999999999,0.8291016,33.491409999999995,-3.56868,-20.61813,5.77597,0.5472534,0.5767986999999999,-0.3487383,1.245252,-0.08285192,0.0431524999999999,0.8218200000000001,0.008349109,4.451126,12.15332,33.27
3,-0.446579,0.2987366,0.8433838,1.0,-0.45578,0.2837982,0.8436279000000001,-32.60616,-4.424591,-19.38684,5.61554,0.5957175,0.5997799,1.0,-0.4240265,0.3340607,0.8417664,33.75543,-3.752548,-20.46477,5.65036,0.5337149999999999,0.5795851,-0.3500594,1.2458870000000002,-0.08710718,0.0488655,0.8416197,0.0131139,4.451126,12.15332,33.27
3,-0.446579,0.2987366,0.8433838,1.0,-0.45578,0.2837982,0.8436279000000001,-32.60616,-4.424591,-19.38684,5.61554,0.5957175,0.5997799,1.0,-0.4240265,0.3340607,0.8417664,33.75543,-3.752548,-20.46477,5.65036,0.5337149999999999,0.5795851,-0.3500594,1.2458870000000002,-0.08710718,0.0488655,0.8416197,0.0131139,4.451126,12.15332,33.27
3,-0.446579,0.2987366,0.8433838,1.0,-0.45578,0.2837982,0.8436279000000001,-32.60616,-4.424591,-19.38684,5.61554,0.5957175,0.5997799,1.0,-0.4240265,0.3340607,0.8417664,33.75543,-3.752548,-20.46477,5.65036,0.5337149999999999,0.5795851,-0.3500594,1.2458870000000002,-0.08710718,0.0488655,0.8416197,0.0131139,4.451126,12.15332,33.27
3,-0.3764191,0.2877655,0.8806152,1.0,-0.3841095,0.2662659,0.8840485,-32.227940000000004,-4.5634,-19.14651,5.745636,0.5712451,0.6034804,1.0,-0.3630370999999999,0.3235779,0.873764,34.26993,-3.863937,-20.20717,5.546463,0.5063964,0.5812374,-0.3516486,1.2463229999999998,-0.09105638,0.05388869,0.8601390999999999,0.01659999,4.451126,12.15332,33.27
3,-0.3764191,0.2877655,0.8806152,1.0,-0.3841095,0.2662659,0.8840485,-32.227940000000004,-4.5634,-19.14651,5.745636,0.5712451,0.6034804,1.0,-0.3630370999999999,0.3235779,0.873764,34.26993,-3.863937,-20.20717,5.546463,0.5063964,0.5812374,-0.3516486,1.2463229999999998,-0.09105638,0.05388869,0.8601390999999999,0.01659999,4.451126,12.15332,33.27
3,-0.3764191,0.2877655,0.8806152,1.0,-0.3841095,0.2662659,0.8840485,-32.227940000000004,-4.5634,-19.14651,5.745636,0.5712451,0.6034804,1.0,-0.3630370999999999,0.3235779,0.873764,34.26993,-3.863937,-20.20717,5.546463,0.5063964,0.5812374,-0.3516486,1.2463229999999998,-0.09105638,0.05388869,0.8601390999999999,0.01659999,4.451126,12.15332,33.27
4,-0.3106079,0.27388,0.9102173,1.0,-0.3202362,0.258728,0.9113159,-31.79565,-4.579025,-18.95102,5.569824,0.5471169,0.6021271,1.0,-0.2937469,0.299881,0.907608,34.69171,-3.887283,-20.00806,5.637131,0.4808098,0.5830137,-0.3531258,1.246783,-0.09502453,0.05765584,0.8775270000000001,0.01875876,4.451126,12.55905,33.27
4,-0.3106079,0.27388,0.9102173,1.0,-0.3202362,0.258728,0.9113159,-31.79565,-4.579025,-18.95102,5.569824,0.5471169,0.6021271,1.0,-0.2937469,0.299881,0.907608,34.69171,-3.887283,-20.00806,5.637131,0.4808098,0.5830137,-0.3531258,1.246783,-0.09502453,0.05765584,0.8775270000000001,0.01875876,4.451126,12.55905,33.27
4,-0.3106079,0.27388,0.9102173,1.0,-0.3202362,0.258728,0.9113159,-31.79565,-4.579025,-18.95102,5.569824,0.5471169,0.6021271,1.0,-0.2937469,0.299881,0.907608,34.69171,-3.887283,-20.00806,5.637131,0.4808098,0.5830137,-0.3531258,1.246783,-0.09502453,0.05765584,0.8775270000000001,0.01875876,4.451126,12.55905,33.27
4,-0.3293304,0.309494,0.8920288000000001,1.0,-0.3508759,0.287323,0.8912353999999999,-32.01529,-4.417145,-19.06914,5.669678,0.5592696999999999,0.5943153,1.0,-0.3048095999999999,0.3339995999999999,0.8919219999999999,34.4388,-3.628418,-20.12711,5.717209,0.4911255999999999,0.5707368,-0.3612151,1.2476040000000002,-0.1050666,0.05719082,0.9217209,0.02412209,4.451126,12.55905,33.27
4,-0.3293304,0.309494,0.8920288000000001,1.0,-0.3508759,0.287323,0.8912353999999999,-32.01529,-4.417145,-19.06914,5.669678,0.5592696999999999,0.5943153,1.0,-0.3048095999999999,0.3339995999999999,0.8919219999999999,34.4388,-3.628418,-20.12711,5.717209,0.4911255999999999,0.5707368,-0.3612151,1.2476040000000002,-0.1050666,0.05719082,0.9217209,0.02412209,4.451126,12.55905,33.27
