Second,eye_comb_direction_x,eye_comb_direction_y,eye_comb_direction_z,eye_r_openness,eye_r_direction_x,eye_r_direction_y,eye_r_direction_z,eye_r_origin_x,eye_r_origin_y,eye_r_origin_z,eye_r_pupil_diameter,eye_r_pupil_position_x,eye_r_pupil_position_y,eye_l_openness,eye_l_direction_x,eye_l_direction_y,eye_l_direction_z,eye_l_origin_x,eye_l_origin_y,eye_l_origin_z,eye_l_pupil_diameter,eye_l_pupil_position_x,eye_l_pupil_position_y,head_position_x,head_position_y,head_position_z,head_rotation_roll,head_rotation_pitch,head_rotation_yaw,EDA,BVP,TMP
0,0.0,0.0,0.0,0.0,0.0,0.0,0.0,0.0,0.0,0.0,0.0,0.0,0.0,0.0,0.0,0.0,0.0,0.0,0.0,0.0,0.0,0.0,0.0,0.0,0.0,0.0,0.0,0.0,0.0,0.25020070732883315,0.06678264033269038,29.666595949855353
0,-0.01472473,-0.3067627,0.9516602,0.973981,0.04905701,-0.3054047,0.950943,-33.36197,-0.9980316,-22.91847,4.866898,0.5403363,0.6138069,0.8772485,-0.07113647,-0.3069153,0.9490662,34.59314,-0.1522217,-24.50766,4.587662,0.4461767,0.6013715,0.04161966,1.210697,-0.2947011,-0.1113608,0.02745551,0.0007012406,0.25020070732883315,0.06678264033269038,29.666595949855353
1,-0.009124756,-0.3056946,0.9520721,0.9689614,0.04901123,-0.3042297,0.9513245,-33.36197,-1.001297,-22.91847,4.829559,0.5403363,0.6137115,0.8739334,-0.06825256,-0.3061218,0.9495239,34.59535,-0.157196,-24.50676,4.586258,0.4456348,0.6013715,0.041664,1.210738,-0.295018,-0.1114519,0.02729739,0.000545915,0.25020070732883315,0.06678264033269038,29.666595949855353
1,-0.009124756,-0.3056946,0.9520721,0.9689614,0.04901123,-0.3042297,0.9513245,-33.36197,-1.001297,-22.91847,4.829559,0.5403363,0.6137115,0.8739334,-0.06825256,-0.3061218,0.9495239,34.59535,-0.157196,-24.50676,4.586258,0.4456348,0.6013715,0.041664,1.210738,-0.295018,-0.1114519,0.02729739,0.000545915,0.25020070732883315,0.06678264033269038,29.666595949855353
1,-0.009124756,-0.3056946,0.9520721,0.9689614,0.04901123,-0.3042297,0.9513245,-33.36197,-1.001297,-22.91847,4.829559,0.5403363,0.6137115,0.8739334,-0.06825256,-0.3061218,0.9495239,34.59535,-0.157196,-24.50676,4.586258,0.4456348,0.6013715,0.041664,1.210738,-0.295018,-0.1114519,0.02729739,0.000545915,0.25020070732883315,0.06678264033269038,29.666595949855353
1,-0.009124756,-0.3056946,0.9520721,0.9689614,0.04901123,-0.3042297,0.9513245,-33.36197,-1.001297,-22.91847,4.829559,0.5403363,0.6137115,0.8739334,-0.06825256,-0.3061218,0.9495239,34.59535,-0.157196,-24.50676,4.586258,0.4456348,0.6013715,0.041664,1.210738,-0.295018,-0.1114519,0.02729739,0.000545915,0.25020070732883315,0.06678264033269038,29.666595949855353
1,-0.009124756,-0.3056946,0.9520721,0.9689614,0.04901123,-0.3042297,0.9513245,-33.36197,-1.001297,-22.91847,4.829559,0.5403363,0.6137115,0.8739334,-0.06825256,-0.3061218,0.9495239,34.59535,-0.157196,-24.50676,4.586258,0.4456348,0.6013715,0.041664,1.210738,-0.295018,-0.1114519,0.02729739,0.000545915,0.25020070732883315,0.06678264033269038,29.666595949855353
1,-0.009124756,-0.3056946,0.9520721,0.9689614,0.04901123,-0.3042297,0.9513245,-33.36197,-1.001297,-22.91847,4.829559,0.5403363,0.6137115,0.8739334,-0.06825256,-0.3061218,0.9495239,34.59535,-0.157196,-24.50676,4.586258,0.4456348,0.6013715,0.041664,1.210738,-0.295018,-0.1114519,0.02729739,0.000545915,0.25020070732883315,0.06678264033269038,29.666595949855353
1,-0.009124756,-0.3056946,0.9520721,0.9689614,0.04901123,-0.3042297,0.9513245,-33.36197,-1.001297,-22.91847,4.829559,0.5403363,0.6137115,0.8739334,-0.06825256,-0.3061218,0.9495239,34.59535,-0.157196,-24.50676,4.586258,0.4456348,0.6013715,0.041664,1.210738,-0.295018,-0.1114519,0.02729739,0.000545915,0.25020070732883315,0.06678264033269038,29.666595949855353
1,-0.009124756,-0.3056946,0.9520721,0.9689614,0.04901123,-0.3042297,0.9513245,-33.36197,-1.001297,-22.91847,4.829559,0.5403363,0.6137115,0.8739334,-0.06825256,-0.3061218,0.9495239,34.59535,-0.157196,-24.50676,4.586258,0.4456348,0.6013715,0.041664,1.210738,-0.295018,-0.1114519,0.02729739,0.000545915,0.25020070732883315,0.06678264033269038,29.666595949855353
1,-0.009124756,-0.3056946,0.9520721,0.9689614,0.04901123,-0.3042297,0.9513245,-33.36197,-1.001297,-22.91847,4.829559,0.5403363,0.6137115,0.8739334,-0.06825256,-0.3061218,0.9495239,34.59535,-0.157196,-24.50676,4.586258,0.4456348,0.6013715,0.041664,1.210738,-0.295018,-0.1114519,0.02729739,0.000545915,0.25020070732883315,0.06678264033269038,29.666595949855353
1,0.01036072,-0.1773376,0.9840851,1.0,0.04632568,-0.1815796,0.9822693,-33.34456,-0.4280853,-22.72551,4.598419,0.5400169,0.5724068,1.0,-0.03311157,-0.1719055,0.9845428,34.86923,0.2770386,-24.28209,4.306671,0.4313187,0.5609992,0.04104149,1.211077,-0.2952148,-0.1131983,0.02619141,0.001220703,0.25020070732883315,0.06678264033269038,29.666595949855353
1,0.01036072,-0.1773376,0.9840851,1.0,0.04632568,-0.1815796,0.9822693,-33.34456,-0.4280853,-22.72551,4.598419,0.5400169,0.5724068,1.0,-0.03311157,-0.1719055,0.9845428,34.86923,0.2770386,-24.28209,4.306671,0.4313187,0.5609992,0.04104149,1.211077,-0.2952148,-0.1131983,0.02619141,0.001220703,0.25020070732883315,0.06678264033269038,29.666595949855353
1,0.01036072,-0.1773376,0.9840851,1.0,0.04632568,-0.1815796,0.9822693,-33.34456,-0.4280853,-22.72551,4.598419,0.5400169,0.5724068,1.0,-0.03311157,-0.1719055,0.9845428,34.86923,0.2770386,-24.28209,4.306671,0.4313187,0.5609992,0.04104149,1.211077,-0.2952148,-0.1131983,0.02619141,0.001220703,0.25020070732883315,0.06678264033269038,29.666595949855353
1,0.01036072,-0.1773376,0.9840851,1.0,0.04632568,-0.1815796,0.9822693,-33.34456,-0.4280853,-22.72551,4.598419,0.5400169,0.5724068,1.0,-0.03311157,-0.1719055,0.9845428,34.86923,0.2770386,-24.28209,4.306671,0.4313187,0.5609992,0.04104149,1.211077,-0.2952148,-0.1131983,0.02619141,0.001220703,0.25020070732883315,0.06678264033269038,29.666595949855353
1,0.01036072,-0.1773376,0.9840851,1.0,0.04632568,-0.1815796,0.9822693,-33.34456,-0.4280853,-22.72551,4.598419,0.5400169,0.5724068,1.0,-0.03311157,-0.1719055,0.9845428,34.86923,0.2770386,-24.28209,4.306671,0.4313187,0.5609992,0.04104149,1.211077,-0.2952148,-0.1131983,0.02619141,0.001220703,0.25020070732883315,0.06678264033269038,29.666595949855353
1,0.01036072,-0.1773376,0.9840851,1.0,0.04632568,-0.1815796,0.9822693,-33.34456,-0.4280853,-22.72551,4.598419,0.5400169,0.5724068,1.0,-0.03311157,-0.1719055,0.9845428,34.86923,0.2770386,-24.28209,4.306671,0.4313187,0.5609992,0.04104149,1.211077,-0.2952148,-0.1131983,0.02619141,0.001220703,0.25020070732883315,0.06678264033269038,29.666595949855353
1,0.007156372,-0.1789246,0.9838257,1.0,0.0486908,-0.1780243,0.9828186,-33.356,-0.4366455,-22.72801,4.463959,0.5399908,0.572068,1.0,-0.03559875,-0.1795349,0.9830933,34.86723,0.2633667,-24.26805,4.2491,0.4317849,0.5626162,0.04088879,1.211144,-0.2952135,-0.1137267,0.02605165,0.001183516,0.25020070732883315,0.06678264033269038,29.666595949855353
1,0.007156372,-0.1789246,0.9838257,1.0,0.0486908,-0.1780243,0.9828186,-33.356,-0.4366455,-22.72801,4.463959,0.5399908,0.572068,1.0,-0.03559875,-0.1795349,0.9830933,34.86723,0.2633667,-24.26805,4.2491,0.4317849,0.5626162,0.04088879,1.211144,-0.2952135,-0.1137267,0.02605165,0.001183516,0.25020070732883315,0.06678264033269038,29.666595949855353
1,0.007873535,-0.1786957,0.9838715,1.0,0.04927063,-0.1761017,0.9831238,-33.35938,-0.4376831,-22.72801,4.371399,0.5399908,0.5717621,1.0,-0.03599548,-0.1811066,0.9827881,34.86639,0.2627716,-24.26321,4.190659,0.4318826,0.5628455,0.04094398,1.211163,-0.2952015,-0.1137926,0.0259984,0.001244878,0.25020070732883315,0.06678264033269038,29.666595949855353
1,0.008331299,-0.1784058,0.9839172,1.0,0.05033875,-0.1748199,0.9833069,-33.36505,-0.4421692,-22.72867,4.184525,0.5399722,0.5716314,1.0,-0.03694153,-0.1819305,0.982605,34.86366,0.2599182,-24.25142,4.115982,0.4321411,0.5629468,0.04094422,1.211167,-0.2952108,-0.1136918,0.02607051,0.001381068,0.25020070732883315,0.06678264033269038,29.666595949855353
1,0.008331299,-0.1784058,0.9839172,1.0,0.05033875,-0.1748199,0.9833069,-33.36505,-0.4421692,-22.72867,4.184525,0.5399722,0.5716314,1.0,-0.03694153,-0.1819305,0.982605,34.86366,0.2599182,-24.25142,4.115982,0.4321411,0.5629468,0.04094422,1.211167,-0.2952108,-0.1136918,0.02607051,0.001381068,0.25020070732883315,0.06678264033269038,29.666595949855353
1,0.008666992,-0.1753998,0.9844513,1.0,0.05148315,-0.1699677,0.9841003,-33.36914,-0.4471283,-22.72903,4.15683,0.5399145,0.5709727,1.0,-0.03790283,-0.1809387,0.9827576,34.86253,0.2537994,-24.24988,4.07991,0.4323423,0.5629578,0.04094183,1.211123,-0.2952166,-0.1136501,0.02603248,0.001449505,0.25020070732883315,0.06678264033269038,29.666595949855353
1,0.008392334,-0.1746979,0.9845734,1.0,0.05235291,-0.1683197,0.9843292,-33.37085,-0.4477386,-22.72931,4.044891,0.5398104,0.5706909,1.0,-0.03877258,-0.1811523,0.9826813,34.86235,0.2505188,-24.24927,4.073593,0.4324909,0.5631,0.04094601,1.211109,-0.2951682,-0.1136134,0.02623177,0.001402481,0.25020070732883315,0.06678264033269038,29.666595949855353
1,0.008392334,-0.1746979,0.9845734,1.0,0.05235291,-0.1683197,0.9843292,-33.37085,-0.4477386,-22.72931,4.044891,0.5398104,0.5706909,1.0,-0.03877258,-0.1811523,0.9826813,34.86235,0.2505188,-24.24927,4.073593,0.4324909,0.5631,0.04094601,1.211109,-0.2951682,-0.1136134,0.02623177,0.001402481,0.25020070732883315,0.06678264033269038,29.666595949855353
1,0.006790161,-0.173996,0.9847107,1.0,0.05238342,-0.1677856,0.9844208,-33.37099,-0.4477386,-22.73059,4.034607,0.5398104,0.5706016,1.0,-0.04066467,-0.180069,0.9828033,34.86066,0.2489319,-24.24876,4.060196,0.4328606,0.5629575,0.04099441,1.211073,-0.2951562,-0.113609,0.02632505,0.001342773,0.25020070732883315,0.06678264033269038,29.666595949855353
1,0.006103516,-0.1743622,0.9846497,1.0,0.05227661,-0.1683655,0.9843292,-33.37099,-0.4477386,-22.731,3.939117,0.5398104,0.5706819,1.0,-0.04103088,-0.1800842,0.9827881,34.86066,0.2489319,-24.2487,4.015808,0.4329271,0.5629468,0.04103577,1.211069,-0.2951334,-0.11359,0.02641095,0.001342774,0.25020070732883315,0.06678264033269038,29.666595949855353
1,0.006103516,-0.1743622,0.9846497,1.0,0.05227661,-0.1683655,0.9843292,-33.37099,-0.4477386,-22.731,3.939117,0.5398104,0.5706819,1.0,-0.04103088,-0.1800842,0.9827881,34.86066,0.2489319,-24.2487,4.015808,0.4329271,0.5629468,0.04103577,1.211069,-0.2951334,-0.11359,0.02641095,0.001342774,0.25020070732883315,0.06678264033269038,29.666595949855353
1,0.004348755,-0.174469,0.9846497,1.0,0.05125427,-0.1683807,0.984375,-33.37099,-0.4476776,-22.73215,3.924606,0.5399722,0.5706819,1.0,-0.04341125,-0.1802673,0.9826508,34.86157,0.2489319,-24.24789,3.885284,0.433306,0.5629371,0.04104936,1.211052,-0.2951243,-0.1135846,0.02641067,0.001280284,0.25020070732883315,0.06678264033269038,29.666595949855353
1,0.003738403,-0.1737366,0.9847717,1.0,0.05053711,-0.1681061,0.9844666,-33.37099,-0.4459686,-22.73428,3.86882,0.5400781,0.570581,1.0,-0.04388428,-0.1790619,0.9828491,34.86253,0.2489319,-24.24547,3.82605,0.4333645,0.5626864,0.04101741,1.211065,-0.2951226,-0.1135751,0.02647885,0.001291871,0.25020070732883315,0.06678264033269038,29.666595949855353
1,0.003494263,-0.1733398,0.984848,1.0,0.05012512,-0.1681061,0.9844818,-33.37062,-0.4458618,-22.73438,3.864761,0.5401301,0.570581,1.0,-0.04403687,-0.1782684,0.9829865,34.8633,0.2506866,-24.24368,3.748505,0.4333794,0.5624526,0.04103351,1.211069,-0.2951312,-0.1136135,0.02650276,0.001286091,0.25020070732883315,8.334986,29.666595949855353
1,0.003494263,-0.1733398,0.984848,1.0,0.05012512,-0.1681061,0.9844818,-33.37062,-0.4458618,-22.73438,3.864761,0.5401301,0.570581,1.0,-0.04403687,-0.1782684,0.9829865,34.8633,0.2506866,-24.24368,3.748505,0.4333794,0.5624526,0.04103351,1.211069,-0.2951312,-0.1136135,0.02650276,0.001286091,0.25020070732883315,8.334986,29.666595949855353
1,0.003494263,-0.1733398,0.984848,1.0,0.05012512,-0.1681061,0.9844818,-33.37062,-0.4458618,-22.73438,3.864761,0.5401301,0.570581,1.0,-0.04403687,-0.1782684,0.9829865,34.8633,0.2506866,-24.24368,3.748505,0.4333794,0.5624526,0.04105973,1.211073,-0.2951634,-0.1136336,0.02649938,0.001125433,0.25020070732883315,8.334986,29.666595949855353
2,0.003494263,-0.1733398,0.984848,1.0,0.05012512,-0.1681061,0.9844818,-33.37062,-0.4458618,-22.73438,3.864761,0.5401301,0.570581,1.0,-0.04403687,-0.1782684,0.9829865,34.8633,0.2506866,-24.24368,3.748505,0.4333794,0.5624526,0.04108584,1.211077,-0.2951459,-0.1137049,0.02653928,0.001125433,0.25020070732883315,8.334986,29.666595949855353
2,0.003494263,-0.1733398,0.984848,1.0,0.05012512,-0.1681061,0.9844818,-33.37062,-0.4458618,-22.73438,3.864761,0.5401301,0.570581,1.0,-0.04403687,-0.1782684,0.9829865,34.8633,0.2506866,-24.24368,3.748505,0.4333794,0.5624526,0.04108584,1.211077,-0.2951459,-0.1137049,0.02653928,0.001125433,0.25020070732883315,8.334986,29.666595949855353
2,0.003494263,-0.1733398,0.984848,1.0,0.05012512,-0.1681061,0.9844818,-33.37062,-0.4458618,-22.73438,3.864761,0.5401301,0.570581,1.0,-0.04403687,-0.1782684,0.9829865,34.8633,0.2506866,-24.24368,3.748505,0.4333794,0.5624526,0.04111123,1.211074,-0.2951486,-0.1136679,0.02649994,0.001042969,0.25020070732883315,8.334986,29.666595949855353
2,0.0025177,-0.1711884,0.9852295,1.0,0.04957581,-0.1679382,0.9845428,-33.36798,-0.4429626,-22.73555,3.838821,0.5401301,0.5704512,1.0,-0.04541016,-0.1741028,0.9836731,34.86394,0.2515869,-24.24142,3.732803,0.4335957,0.5616753,0.04128969,1.211015,-0.295115,-0.1136334,0.02666112,0.0009611826,0.25020070732883315,8.334986,29.666595949855353
2,0.0025177,-0.1711884,0.9852295,1.0,0.04957581,-0.1679382,0.9845428,-33.36798,-0.4429626,-22.73555,3.838821,0.5401301,0.5704512,1.0,-0.04541016,-0.1741028,0.9836731,34.86394,0.2515869,-24.24142,3.732803,0.4335957,0.5616753,0.04128969,1.211015,-0.295115,-0.1136334,0.02666112,0.0009611826,0.25020070732883315,8.334986,29.666595949855353
2,0.0001068115,-0.1711121,0.9852448,1.0,0.04844666,-0.1683197,0.9845276,-33.36668,-0.4397583,-22.73886,3.802216,0.5402641,0.5704376,1.0,-0.04924011,-0.1735382,0.9835815,34.86632,0.252655,-24.23853,3.680634,0.4341603,0.5615008,0.04129124,1.211035,-0.2950726,-0.1136578,0.02671109,0.0009376399,0.25020070732883315,8.334986,29.666595949855353
2,-0.001525879,-0.1702423,0.9853973,1.0,0.04785156,-0.1686859,0.9844971,-33.36551,-0.4318848,-22.73962,3.750549,0.5403138,0.5702296,1.0,-0.05137634,-0.171402,0.9838562,34.86899,0.2529297,-24.23431,3.542145,0.4344526,0.5610502,0.04133594,1.211059,-0.2950524,-0.1137701,0.02676404,0.0009841623,0.25020070732883315,8.334986,29.666595949855353
2,-0.001525879,-0.1702423,0.9853973,1.0,0.04785156,-0.1686859,0.9844971,-33.36551,-0.4318848,-22.73962,3.750549,0.5403138,0.5702296,1.0,-0.05137634,-0.171402,0.9838562,34.86899,0.2529297,-24.23431,3.542145,0.4344526,0.5610502,0.04134762,1.211059,-0.2950306,-0.1137964,0.02674817,0.0009611826,0.25020070732883315,8.334986,29.666595949855353
2,-0.001525879,-0.1702423,0.9853973,1.0,0.04785156,-0.1686859,0.9844971,-33.36551,-0.4318848,-22.73962,3.750549,0.5403138,0.5702296,1.0,-0.05137634,-0.171402,0.9838562,34.86899,0.2529297,-24.23431,3.542145,0.4344526,0.5610502,0.04134762,1.211059,-0.2950306,-0.1137964,0.02674817,0.0009611826,0.25020070732883315,8.334986,29.666595949855353
2,-0.001525879,-0.1702423,0.9853973,1.0,0.04785156,-0.1686859,0.9844971,-33.36551,-0.4318848,-22.73962,3.750549,0.5403138,0.5702296,1.0,-0.05137634,-0.171402,0.9838562,34.86899,0.2529297,-24.23431,3.542145,0.4344526,0.5610502,0.04139042,1.211082,-0.2950361,-0.1137035,0.02683715,0.001050089,0.25020070732883315,-21.90758,29.666595949855353
2,-0.001525879,-0.1702423,0.9853973,1.0,0.04785156,-0.1686859,0.9844971,-33.36551,-0.4318848,-22.73962,3.750549,0.5403138,0.5702296,1.0,-0.05137634,-0.171402,0.9838562,34.86899,0.2529297,-24.23431,3.542145,0.4344526,0.5610502,0.0413518,1.211103,-0.2949946,-0.113718,0.02683077,0.001042969,0.25020070732883315,-21.90758,29.666595949855353
2,-0.001525879,-0.1702423,0.9853973,1.0,0.04785156,-0.1686859,0.9844971,-33.36551,-0.4318848,-22.73962,3.750549,0.5403138,0.5702296,1.0,-0.05137634,-0.171402,0.9838562,34.86899,0.2529297,-24.23431,3.542145,0.4344526,0.5610502,0.0413518,1.211103,-0.2949946,-0.113718,0.02683077,0.001042969,0.25020070732883315,-21.90758,29.666595949855353
2,-0.001525879,-0.1702423,0.9853973,1.0,0.04785156,-0.1686859,0.9844971,-33.36551,-0.4318848,-22.73962,3.750549,0.5403138,0.5702296,1.0,-0.05137634,-0.171402,0.9838562,34.86899,0.2529297,-24.23431,3.542145,0.4344526,0.5610502,0.04137075,1.211134,-0.2949243,-0.1138205,0.02663092,0.001132034,0.25020070732883315,-21.90758,29.666595949855353
2,-0.001831055,-0.1694336,0.9855347,1.0,0.04763794,-0.1684265,0.9845581,-33.3647,-0.430603,-22.74162,3.693634,0.5403138,0.5701452,1.0,-0.05201721,-0.1700287,0.9840546,34.87045,0.2532349,-24.23247,3.509628,0.4345195,0.560773,0.04137075,1.211134,-0.2949243,-0.1138205,0.02663092,0.001132034,0.25020070732883315,-21.90758,29.666595949855353
2,-0.001831055,-0.1694336,0.9855347,1.0,0.04763794,-0.1684265,0.9845581,-33.3647,-0.430603,-22.74162,3.693634,0.5403138,0.5701452,1.0,-0.05201721,-0.1700287,0.9840546,34.87045,0.2532349,-24.23247,3.509628,0.4345195,0.560773,0.04137075,1.211134,-0.2949243,-0.1138205,0.02663092,0.001132034,0.25020070732883315,-21.90758,29.666595949855353
2,-0.0006408691,-0.1692352,0.9855652,1.0,0.04896545,-0.1676178,0.9846191,-33.36389,-0.428833,-22.74503,3.570465,0.5400536,0.5699368,1.0,-0.05279541,-0.1704865,0.9839325,34.87206,0.2532349,-24.23048,3.328842,0.4346271,0.560773,0.041394,1.211095,-0.2948737,-0.1137566,0.02645943,0.001151609,0.25020070732883315,-21.90758,29.666595949855353
2,-0.001983643,-0.168808,0.9856415,1.0,0.04896545,-0.166626,0.984787,-33.36389,-0.4276276,-22.7464,3.55574,0.5400516,0.5697471,1.0,-0.05432129,-0.170578,0.9838409,34.87396,0.2532349,-24.22972,3.282883,0.4348239,0.560773,0.04138517,1.211094,-0.2947757,-0.1137443,0.0262383,0.001177204,0.25020070732883315,-21.90758,29.666595949855353
2,-0.001983643,-0.168808,0.9856415,1.0,0.04896545,-0.166626,0.984787,-33.36389,-0.4276276,-22.7464,3.55574,0.5400516,0.5697471,1.0,-0.05432129,-0.170578,0.9838409,34.87396,0.2532349,-24.22972,3.282883,0.4348239,0.560773,0.04138517,1.211094,-0.2947757,-0.1137443,0.0262383,0.001177204,0.25020070732883315,-21.90758,29.666595949855353
2,-0.001953125,-0.1702881,0.9853821,1.0,0.05003357,-0.166275,0.9848022,-33.36507,-0.4276123,-22.74779,3.500488,0.5399107,0.5696872,1.0,-0.05465698,-0.1738739,0.9832458,34.87396,0.2529297,-24.22726,3.219009,0.4348835,0.5613269,0.0413512,1.211102,-0.2947555,-0.1136984,0.02604936,0.001208435,0.2436611,-21.90758,29.666595949855353
2,-0.002349854,-0.1788025,0.9838715,1.0,0.05241394,-0.1642609,0.9850159,-33.36507,-0.4276123,-22.74815,3.349609,0.5394992,0.5693024,1.0,-0.05845642,-0.1930847,0.9794312,34.86314,0.2502899,-24.25226,2.901215,0.4358814,0.5649707,0.04136455,1.211048,-0.2946433,-0.1136416,0.02592263,0.001337213,0.2436611,-21.90758,29.666595949855353
2,-0.002349854,-0.1788025,0.9838715,1.0,0.05241394,-0.1642609,0.9850159,-33.36507,-0.4276123,-22.74815,3.349609,0.5394992,0.5693024,1.0,-0.05845642,-0.1930847,0.9794312,34.86314,0.2502899,-24.25226,2.901215,0.4358814,0.5649707,0.04136455,1.211048,-0.2946433,-0.1136416,0.02592263,0.001337213,0.2436611,-21.90758,29.666595949855353
2,0.02786255,-0.2155457,0.9760895,1.0,0.07792664,-0.2057495,0.9754791,-32.99855,-0.6638336,-22.84061,3.228653,0.5235465,0.5848417,1.0,-0.01469421,-0.2234192,0.9746094,35.04984,0.005584717,-24.29414,3.098557,0.4221739,0.5787454,0.04138958,1.211011,-0.294517,-0.1134209,0.02582126,0.001208435,0.2436611,-21.90758,29.666595949855353
2,0.02786255,-0.2155457,0.9760895,1.0,0.07792664,-0.2057495,0.9754791,-32.99855,-0.6638336,-22.84061,3.228653,0.5235465,0.5848417,1.0,-0.01469421,-0.2234192,0.9746094,35.04984,0.005584717,-24.29414,3.098557,0.4221739,0.5787454,0.04138958,1.211011,-0.294517,-0.1134209,0.02582126,0.001208435,0.2436611,-21.90758,29.666595949855353
2,0.02790833,-0.2266388,0.9735718,1.0,0.08105469,-0.2201233,0.9720917,-33.02022,-0.6731262,-22.84076,3.195114,0.5237367,0.5876462,1.0,-0.0145874,-0.2313843,0.9727478,35.07513,-0.006835938,-24.29448,3.038376,0.4212953,0.5805714,0.04141891,1.210891,-0.2944423,-0.113099,0.02596198,0.0009689031,0.2436611,-21.90758,29.666595949855353
2,0.02790833,-0.2266388,0.9735718,1.0,0.08105469,-0.2201233,0.9720917,-33.02022,-0.6731262,-22.84076,3.195114,0.5237367,0.5876462,1.0,-0.0145874,-0.2313843,0.9727478,35.07513,-0.006835938,-24.29448,3.038376,0.4212953,0.5805714,0.04141891,1.210891,-0.2944423,-0.113099,0.02596198,0.0009689031,0.2436611,-21.90758,29.666595949855353
2,0.02790833,-0.2266388,0.9735718,1.0,0.08105469,-0.2201233,0.9720917,-33.02022,-0.6731262,-22.84076,3.195114,0.5237367,0.5876462,1.0,-0.0145874,-0.2313843,0.9727478,35.07513,-0.006835938,-24.29448,3.038376,0.4212953,0.5805714,0.04143107,1.210802,-0.2943833,-0.1127585,0.02614101,0.001013992,0.2436611,3.483293,29.666595949855353
2,0.02790833,-0.2266388,0.9735718,1.0,0.08105469,-0.2201233,0.9720917,-33.02022,-0.6731262,-22.84076,3.195114,0.5237367,0.5876462,1.0,-0.0145874,-0.2313843,0.9727478,35.07513,-0.006835938,-24.29448,3.038376,0.4212953,0.5805714,0.04143107,1.210802,-0.2943833,-0.1127585,0.02614101,0.001013992,0.2436611,3.483293,29.666595949855353
2,0.02790833,-0.2266388,0.9735718,1.0,0.08105469,-0.2201233,0.9720917,-33.02022,-0.6731262,-22.84076,3.195114,0.5237367,0.5876462,1.0,-0.0145874,-0.2313843,0.9727478,35.07513,-0.006835938,-24.29448,3.038376,0.4212953,0.5805714,0.04145479,1.210782,-0.2942775,-0.1125574,0.0262905,0.001125433,0.2436611,3.483293,29.666595949855353
2,0.02790833,-0.2266388,0.9735718,1.0,0.08105469,-0.2201233,0.9720917,-33.02022,-0.6731262,-22.84076,3.195114,0.5237367,0.5876462,1.0,-0.0145874,-0.2313843,0.9727478,35.07513,-0.006835938,-24.29448,3.038376,0.4212953,0.5805714,0.04145479,1.210782,-0.2942775,-0.1125574,0.0262905,0.001125433,0.2436611,3.483293,29.666595949855353
2,0.02159119,-0.2229309,0.9745789,1.0,0.07397461,-0.2113647,0.9745941,-33.02797,-0.6914215,-22.85925,3.073532,0.5251092,0.5868481,1.0,-0.01916504,-0.2314911,0.972641,35.09143,-0.01052856,-24.29596,3.051102,0.4215126,0.5807347,0.04150629,1.210742,-0.2942137,-0.1122448,0.02651653,0.001303354,0.2436611,3.483293,29.666595949855353
2,0.02159119,-0.2229309,0.9745789,1.0,0.07397461,-0.2113647,0.9745941,-33.02797,-0.6914215,-22.85925,3.073532,0.5251092,0.5868481,1.0,-0.01916504,-0.2314911,0.972641,35.09143,-0.01052856,-24.29596,3.051102,0.4215126,0.5807347,0.04150629,1.210742,-0.2942137,-0.1122448,0.02651653,0.001303354,0.2436611,3.483293,29.666595949855353
2,0.02182007,-0.2229767,0.9745636,1.0,0.07411194,-0.2115784,0.9745331,-33.02872,-0.6912384,-22.85963,3.07225,0.5251092,0.5868888,1.0,-0.02148438,-0.2319183,0.9724884,35.097,-0.01101685,-24.2971,3.038452,0.4217145,0.5808372,0.04152167,1.210721,-0.2941601,-0.1121806,0.02653984,0.001164477,0.2436611,3.483293,29.666595949855353
2,0.02182007,-0.2229767,0.9745636,1.0,0.07411194,-0.2115784,0.9745331,-33.02872,-0.6912384,-22.85963,3.07225,0.5251092,0.5868888,1.0,-0.02148438,-0.2319183,0.9724884,35.097,-0.01101685,-24.2971,3.038452,0.4217145,0.5808372,0.04152167,1.210721,-0.2941601,-0.1121806,0.02653984,0.001164477,0.2436611,3.483293,29.666595949855353
2,0.02182007,-0.2229767,0.9745636,1.0,0.07411194,-0.2115784,0.9745331,-33.02872,-0.6912384,-22.85963,3.07225,0.5251092,0.5868888,1.0,-0.02148438,-0.2319183,0.9724884,35.097,-0.01101685,-24.2971,3.038452,0.4217145,0.5808372,0.04150081,1.210709,-0.2941716,-0.1121615,0.02663847,0.001262705,0.2436611,3.483293,29.666595949855353
2,0.02182007,-0.2229767,0.9745636,1.0,0.07411194,-0.2115784,0.9745331,-33.02872,-0.6912384,-22.85963,3.07225,0.5251092,0.5868888,1.0,-0.02148438,-0.2319183,0.9724884,35.097,-0.01101685,-24.2971,3.038452,0.4217145,0.5808372,0.04150081,1.210709,-0.2941716,-0.1121615,0.02663847,0.001262705,0.2436611,3.483293,29.666595949855353
2,0.02702332,-0.2249603,0.9739838,1.0,0.07669067,-0.2121582,0.9742126,-33.04555,-0.6907349,-22.85452,3.071121,0.5252337,0.5869295,1.0,-0.01983643,-0.236496,0.9714203,35.10445,0.0003814697,-24.29256,2.889664,0.4211985,0.5812119,0.04148209,1.210717,-0.2942089,-0.1122589,0.02629305,0.001326023,0.2436611,3.483293,29.666595949855353
2,0.02702332,-0.2249603,0.9739838,1.0,0.07669067,-0.2121582,0.9742126,-33.04555,-0.6907349,-22.85452,3.071121,0.5252337,0.5869295,1.0,-0.01983643,-0.236496,0.9714203,35.10445,0.0003814697,-24.29256,2.889664,0.4211985,0.5812119,0.04148209,1.210717,-0.2942089,-0.1122589,0.02629305,0.001326023,0.2436611,3.483293,29.666595949855353
2,0.02659607,-0.2210999,0.974884,1.0,0.07258606,-0.2127686,0.9743958,-33.02872,-0.6893616,-22.85898,3.072266,0.5253565,0.5870178,1.0,-0.01989746,-0.2290192,0.9732056,35.10609,0.002624512,-24.29092,2.854965,0.4211754,0.5797748,0.04141736,1.210704,-0.2942781,-0.1123764,0.02625193,0.001353825,0.2436611,3.483293,29.666595949855353
2,0.02659607,-0.2210999,0.974884,1.0,0.07258606,-0.2127686,0.9743958,-33.02872,-0.6893616,-22.85898,3.072266,0.5253565,0.5870178,1.0,-0.01989746,-0.2290192,0.9732056,35.10609,0.002624512,-24.29092,2.854965,0.4211754,0.5797748,0.04141736,1.210704,-0.2942781,-0.1123764,0.02625193,0.001353825,0.2436611,3.483293,29.666595949855353
2,0.03057861,-0.2221985,0.9745178,1.0,0.0736084,-0.2147522,0.973877,-33.03751,-0.6835327,-22.85661,3.075134,0.5254763,0.5871544,1.0,-0.01403809,-0.2294769,0.9732056,35.10733,0.00453186,-24.28981,2.883911,0.4201512,0.5797748,0.04137337,1.210729,-0.2942767,-0.1125437,0.02588121,0.001423572,0.2436611,3.483293,29.666595949855353
2,0.03057861,-0.2221985,0.9745178,1.0,0.0736084,-0.2147522,0.973877,-33.03751,-0.6835327,-22.85661,3.075134,0.5254763,0.5871544,1.0,-0.01403809,-0.2294769,0.9732056,35.10733,0.00453186,-24.28981,2.883911,0.4201512,0.5797748,0.04137337,1.210729,-0.2942767,-0.1125437,0.02588121,0.001423572,0.2436611,3.483293,29.666595949855353
2,0.03057861,-0.2221985,0.9745178,1.0,0.0736084,-0.2147522,0.973877,-33.03751,-0.6835327,-22.85661,3.075134,0.5254763,0.5871544,1.0,-0.01403809,-0.2294769,0.9732056,35.10733,0.00453186,-24.28981,2.883911,0.4201512,0.5797748,0.04129589,1.210758,-0.2943404,-0.1127671,0.02577592,0.001605584,0.2436611,13.1295,29.666595949855353
2,0.03057861,-0.2221985,0.9745178,1.0,0.0736084,-0.2147522,0.973877,-33.03751,-0.6835327,-22.85661,3.075134,0.5254763,0.5871544,1.0,-0.01403809,-0.2294769,0.9732056,35.10733,0.00453186,-24.28981,2.883911,0.4201512,0.5797748,0.04129589,1.210758,-0.2943404,-0.1127671,0.02577592,0.001605584,0.2436611,13.1295,29.666595949855353
2,0.03057861,-0.2221985,0.9745178,1.0,0.0736084,-0.2147522,0.973877,-33.03751,-0.6835327,-22.85661,3.075134,0.5254763,0.5871544,1.0,-0.01403809,-0.2294769,0.9732056,35.10733,0.00453186,-24.28981,2.883911,0.4201512,0.5797748,0.04130411,1.210833,-0.2943847,-0.1127535,0.02563593,0.00148505,0.2436611,13.1295,29.666595949855353
2,0.03057861,-0.2221985,0.9745178,1.0,0.0736084,-0.2147522,0.973877,-33.03751,-0.6835327,-22.85661,3.075134,0.5254763,0.5871544,1.0,-0.01403809,-0.2294769,0.9732056,35.10733,0.00453186,-24.28981,2.883911,0.4201512,0.5797748,0.04130411,1.210833,-0.2943847,-0.1127535,0.02563593,0.00148505,0.2436611,13.1295,29.666595949855353
2,0.03263855,-0.2230988,0.9742432,1.0,0.08354187,-0.2161255,0.9727783,-33.08965,-0.675354,-22.85422,3.077911,0.525553,0.5871473,1.0,-0.01940918,-0.2296143,0.9730835,35.1064,0.007537842,-24.28902,2.865372,0.4210854,0.5796988,0.04128098,1.210898,-0.2944103,-0.1127753,0.02572152,0.001342774,0.2436611,13.1295,29.666595949855353
2,0.03263855,-0.2230988,0.9742432,1.0,0.08354187,-0.2161255,0.9727783,-33.08965,-0.675354,-22.85422,3.077911,0.525553,0.5871473,1.0,-0.01940918,-0.2296143,0.9730835,35.1064,0.007537842,-24.28902,2.865372,0.4210854,0.5796988,0.04128098,1.210898,-0.2944103,-0.1127753,0.02572152,0.001342774,0.2436611,13.1295,29.666595949855353
2,0.03178406,-0.2242584,0.973999,1.0,0.08276367,-0.2174835,0.9725342,-33.09521,-0.6704865,-22.85196,3.061295,0.5258579,0.5872025,1.0,-0.02018738,-0.2305298,0.9728394,35.10497,0.01228333,-24.28795,2.857117,0.4212621,0.5796988,0.04123342,1.210874,-0.294425,-0.1129058,0.02591199,0.001469921,0.2436611,13.1295,29.666595949855353
2,0.03178406,-0.2242584,0.973999,1.0,0.08276367,-0.2174835,0.9725342,-33.09521,-0.6704865,-22.85196,3.061295,0.5258579,0.5872025,1.0,-0.02018738,-0.2305298,0.9728394,35.10497,0.01228333,-24.28795,2.857117,0.4212621,0.5796988,0.04123342,1.210874,-0.294425,-0.1129058,0.02591199,0.001469921,0.2436611,13.1295,29.666595949855353
2,0.03158569,-0.2253723,0.9737549,1.0,0.08163452,-0.2174988,0.9726257,-33.10124,-0.6704865,-22.85196,3.056076,0.5262332,0.5872025,1.0,-0.01924133,-0.2327576,0.9723358,35.09563,0.01916504,-24.28516,2.856857,0.4214138,0.5798447,0.04122448,1.210855,-0.2944633,-0.1128762,0.02590078,0.001619446,0.2436611,13.1295,29.666595949855353
2,0.03158569,-0.2253723,0.9737549,1.0,0.08163452,-0.2174988,0.9726257,-33.10124,-0.6704865,-22.85196,3.056076,0.5262332,0.5872025,1.0,-0.01924133,-0.2327576,0.9723358,35.09563,0.01916504,-24.28516,2.856857,0.4214138,0.5798447,0.04122448,1.210855,-0.2944633,-0.1128762,0.02590078,0.001619446,0.2436611,13.1295,29.666595949855353
2,0.02919006,-0.2264709,0.9735718,1.0,0.07749939,-0.2175903,0.9729462,-33.10663,-0.6705627,-22.85196,3.027359,0.5270698,0.5872025,1.0,-0.02160645,-0.2352142,0.9716949,35.09186,0.02642822,-24.28516,2.854889,0.4219323,0.5800465,0.04121435,1.210866,-0.2944758,-0.112793,0.02601874,0.001586914,0.2436611,13.1295,29.666595949855353
2,0.02919006,-0.2264709,0.9735718,1.0,0.07749939,-0.2175903,0.9729462,-33.10663,-0.6705627,-22.85196,3.027359,0.5270698,0.5872025,1.0,-0.02160645,-0.2352142,0.9716949,35.09186,0.02642822,-24.28516,2.854889,0.4219323,0.5800465,0.04121435,1.210866,-0.2944758,-0.112793,0.02601874,0.001586914,0.2436611,13.1295,29.666595949855353
2,0.02713013,-0.2277832,0.9733276,1.0,0.07667542,-0.2180023,0.9729156,-33.1071,-0.6723633,-22.85329,3.019608,0.5272182,0.5873427,1.0,-0.02427673,-0.2373047,0.9711304,35.09045,0.02642822,-24.28516,2.828979,0.4224214,0.580435,0.04121602,1.210867,-0.2945151,-0.1127524,0.02616466,0.001610218,0.2436611,13.1295,29.666595949855353
2,0.02713013,-0.2277832,0.9733276,1.0,0.07667542,-0.2180023,0.9729156,-33.1071,-0.6723633,-22.85329,3.019608,0.5272182,0.5873427,1.0,-0.02427673,-0.2373047,0.9711304,35.09045,0.02642822,-24.28516,2.828979,0.4224214,0.580435,0.04121602,1.210867,-0.2945151,-0.1127524,0.02616466,0.001610218,0.2436611,13.1295,29.666595949855353
2,0.02720642,-0.2274017,0.9734039,1.0,0.07672119,-0.2172394,0.9730835,-33.10745,-0.6764526,-22.85385,3.003479,0.5272182,0.5873427,1.0,-0.02418518,-0.2373352,0.9711151,35.09006,0.02642822,-24.28531,2.828949,0.4224214,0.5804439,0.04123652,1.210806,-0.2945389,-0.1127825,0.0261581,0.001568022,0.2436611,8.151766,29.666595949855353
2,0.02720642,-0.2274017,0.9734039,1.0,0.07672119,-0.2172394,0.9730835,-33.10745,-0.6764526,-22.85385,3.003479,0.5272182,0.5873427,1.0,-0.02418518,-0.2373352,0.9711151,35.09006,0.02642822,-24.28531,2.828949,0.4224214,0.5804439,0.04123652,1.210806,-0.2945389,-0.1127825,0.0261581,0.001568022,0.2436611,8.151766,29.666595949855353
2,0.02735901,-0.2278442,0.9732971,1.0,0.07650757,-0.2163849,0.9732971,-33.10957,-0.6793823,-22.85864,3.027481,0.5273295,0.5873427,1.0,-0.02391052,-0.2391663,0.9706726,35.08672,0.02639771,-24.28683,2.824661,0.4224817,0.5807813,0.04124796,1.210841,-0.2945399,-0.1127433,0.02613873,0.001605584,0.2436611,8.151766,29.666595949855353
2,0.02807617,-0.2276611,0.9733276,1.0,0.07727051,-0.2163849,0.9732361,-33.10976,-0.6793823,-22.85928,3.059311,0.5272182,0.5873441,1.0,-0.02320862,-0.2387848,0.9707794,35.08492,0.02487183,-24.28835,2.854645,0.4224214,0.5807813,0.04124284,1.21085,-0.2945343,-0.1128317,0.02601244,0.001577496,0.2436611,8.151766,29.666595949855353
2,0.02807617,-0.2276611,0.9733276,1.0,0.07727051,-0.2163849,0.9732361,-33.10976,-0.6793823,-22.85928,3.059311,0.5272182,0.5873441,1.0,-0.02320862,-0.2387848,0.9707794,35.08492,0.02487183,-24.28835,2.854645,0.4224214,0.5807813,0.04124284,1.21085,-0.2945343,-0.1128317,0.02601244,0.001577496,0.2436611,8.151766,29.666595949855353
2,0.02824402,-0.2288055,0.973053,1.0,0.07815552,-0.2162628,0.9731903,-33.11003,-0.6793823,-22.85974,3.060852,0.5270833,0.5873427,1.0,-0.02320862,-0.2410736,0.9702148,35.08466,0.02142334,-24.2914,2.854095,0.4224214,0.5813457,0.04121506,1.210875,-0.2945935,-0.1128574,0.02606937,0.001600937,0.2436611,8.151766,29.666595949855353
2,0.02824402,-0.2288055,0.973053,1.0,0.07815552,-0.2162628,0.9731903,-33.11003,-0.6793823,-22.85974,3.060852,0.5270833,0.5873427,1.0,-0.02320862,-0.2410736,0.9702148,35.08466,0.02142334,-24.2914,2.854095,0.4224214,0.5813457,0.04121506,1.210875,-0.2945935,-0.1128574,0.02606937,0.001600937,0.2436611,8.151766,29.666595949855353
2,0.02912903,-0.2284088,0.973114,1.0,0.07865906,-0.2160492,0.9732056,-33.11105,-0.6793823,-22.86012,3.06102,0.5270362,0.5873029,1.0,-0.02204895,-0.2405548,0.9703827,35.08342,0.01878357,-24.29256,2.862289,0.4222668,0.5813457,0.04122162,1.210869,-0.2945856,-0.112877,0.02603076,0.001586914,0.2436611,8.151766,29.666595949855353
2,0.02966309,-0.2284546,0.9730988,1.0,0.07897949,-0.2157135,0.9732513,-33.11253,-0.6772766,-22.8604,3.072769,0.5270362,0.5871864,1.0,-0.02099609,-0.2409058,0.9703064,35.08342,0.01661682,-24.29411,2.865707,0.4220886,0.5814893,0.04125726,1.210877,-0.2945741,-0.1128047,0.02603248,0.001529537,0.2436611,8.151766,29.666595949855353
2,0.02966309,-0.2284546,0.9730988,1.0,0.07897949,-0.2157135,0.9732513,-33.11253,-0.6772766,-22.8604,3.072769,0.5270362,0.5871864,1.0,-0.02099609,-0.2409058,0.9703064,35.08342,0.01661682,-24.29411,2.865707,0.4220886,0.5814893,0.04125726,1.210877,-0.2945741,-0.1128047,0.02603248,0.001529537,0.2436611,8.151766,29.666595949855353
2,0.03114319,-0.2283783,0.9730682,1.0,0.08140564,-0.2156982,0.973053,-33.11673,-0.6770477,-22.8605,3.061432,0.5267742,0.5871864,1.0,-0.02011108,-0.2406616,0.9703979,35.08342,0.01425171,-24.29771,2.865768,0.42194,0.5815536,0.04130518,1.210818,-0.2945663,-0.11268,0.02601358,0.001375663,0.2436611,8.151766,29.666595949855353
2,0.03128052,-0.2283173,0.9730682,1.0,0.08155823,-0.2158203,0.9730072,-33.1174,-0.6762238,-22.86055,3.072922,0.5267742,0.5871864,1.0,-0.02006531,-0.2404327,0.9704437,35.08316,0.01335144,-24.2986,2.865601,0.42194,0.5815536,0.04131269,1.21081,-0.2945867,-0.112542,0.02608909,0.001490058,0.2436611,8.151766,29.666595949855353
2,0.03128052,-0.2283173,0.9730682,1.0,0.08155823,-0.2158203,0.9730072,-33.1174,-0.6762238,-22.86055,3.072922,0.5267742,0.5871864,1.0,-0.02006531,-0.2404327,0.9704437,35.08316,0.01335144,-24.2986,2.865601,0.42194,0.5815536,0.04131269,1.21081,-0.2945867,-0.112542,0.02608909,0.001490058,0.2436611,8.151766,29.666595949855353
2,0.03128052,-0.2283173,0.9730682,1.0,0.08155823,-0.2158203,0.9730072,-33.1174,-0.6762238,-22.86055,3.072922,0.5267742,0.5871864,1.0,-0.02006531,-0.2404327,0.9704437,35.08316,0.01335144,-24.2986,2.865601,0.42194,0.5815536,0.04131961,1.210816,-0.2945778,-0.1126135,0.02609765,0.001586914,0.2436611,8.151766,29.666595949855353
2,0.03128052,-0.2283173,0.9730682,1.0,0.08155823,-0.2158203,0.9730072,-33.1174,-0.6762238,-22.86055,3.072922,0.5267742,0.5871864,1.0,-0.02006531,-0.2404327,0.9704437,35.08316,0.01335144,-24.2986,2.865601,0.42194,0.5815536,0.04131866,1.210779,-0.2945729,-0.1125838,0.02622751,0.001614838,0.2436611,8.151766,29.666595949855353
2,0.03128052,-0.2283173,0.9730682,1.0,0.08155823,-0.2158203,0.9730072,-33.1174,-0.6762238,-22.86055,3.072922,0.5267742,0.5871864,1.0,-0.02006531,-0.2404327,0.9704437,35.08316,0.01335144,-24.2986,2.865601,0.42194,0.5815536,0.04138005,1.210835,-0.2945317,-0.1125705,0.02607652,0.001687045,0.2436611,8.151766,29.666595949855353
2,0.02676392,-0.2252655,0.9739227,1.0,0.07649231,-0.212265,0.9741974,-33.11435,-0.682663,-22.86615,3.138351,0.5275123,0.5868192,1.0,-0.02627563,-0.2384491,0.9707947,35.10614,0.0003051758,-24.33675,3.000137,0.4221818,0.5820131,0.04133999,1.210914,-0.2945008,-0.112561,0.02616523,0.001553702,0.2436611,-22.72534,29.666595949855353
2,0.02676392,-0.2252655,0.9739227,1.0,0.07649231,-0.212265,0.9741974,-33.11435,-0.682663,-22.86615,3.138351,0.5275123,0.5868192,1.0,-0.02627563,-0.2384491,0.9707947,35.10614,0.0003051758,-24.33675,3.000137,0.4221818,0.5820131,0.04133999,1.210914,-0.2945008,-0.112561,0.02616523,0.001553702,0.2436611,-22.72534,29.666595949855353
2,0.03704834,-0.255661,0.9660492,0.9623799,0.06752014,-0.2488098,0.9661865,-33.0786,-0.5663147,-22.85934,3.018829,0.5278089,0.5893351,0.8614522,-0.01217651,-0.2662048,0.9638367,35.03932,0.1656799,-24.24069,2.9552,0.4220863,0.5805936,0.04133046,1.210879,-0.2945158,-0.1126046,0.02616921,0.001646819,0.2436611,-22.72534,29.666595949855353
2,-1.0,-1.0,-1.0,0.9029693,0.0,0.0,0.0,-33.12823,-0.5338898,-22.8134,-1.0,0.5281693,0.5832131,0.7839635,0.0,0.0,0.0,35.0947,0.200119,-24.23012,-1.0,0.421479,0.5730105,0.04131162,1.210902,-0.2945132,-0.1124711,0.02620307,0.001687045,0.2436611,-22.72534,29.666595949855353
2,-1.0,-1.0,-1.0,0.7929348,0.0,0.0,0.0,-33.17569,-0.4859772,-22.78006,-1.0,0.5312243,0.5867581,0.7054589,0.0,0.0,0.0,35.3221,-0.4036407,-24.43936,-1.0,0.4061883,0.610472,0.04129493,1.210878,-0.2945093,-0.1124708,0.02616152,0.001695855,0.2436611,-22.72534,29.666595949855353
2,-1.0,-1.0,-1.0,0.7929348,0.0,0.0,0.0,-33.17569,-0.4859772,-22.78006,-1.0,0.5312243,0.5867581,0.7054589,0.0,0.0,0.0,35.3221,-0.4036407,-24.43936,-1.0,0.4061883,0.610472,0.04129493,1.210878,-0.2945093,-0.1124708,0.02616152,0.001695855,0.2436611,-22.72534,29.666595949855353
2,-1.0,-1.0,-1.0,0.6194684,0.0,0.0,0.0,-33.21526,-0.4445496,-22.77519,-1.0,0.5301441,0.5878456,0.4855635,0.0,0.0,0.0,35.42677,-1.13121,-24.78239,-1.0,0.3985586,0.663648,0.04129684,1.210845,-0.2944562,-0.1123112,0.02604936,0.001752039,0.2436611,-22.72534,29.666595949855353
2,-1.0,-1.0,-1.0,0.4715216,0.0,0.0,0.0,-33.21463,-0.9512634,-22.93245,-1.0,0.5180385,0.6653871,0.2096406,0.0,0.0,0.0,35.42677,-1.13121,-24.78239,-1.0,0.408998,0.6640549,0.04127681,1.210861,-0.2944671,-0.1123024,0.02605651,0.001798208,0.2436611,-22.72534,29.666595949855353
2,-1.0,-1.0,-1.0,0.3369126,0.0,0.0,0.0,-33.21463,-0.9512634,-22.93245,-1.0,0.5364786,0.7062364,0.1136588,0.0,0.0,0.0,34.83998,-1.447662,-24.98082,-1.0,0.4545383,0.7002118,0.04128122,1.210859,-0.2944491,-0.1122567,0.02603248,0.001814706,0.2436611,-22.72534,29.666595949855353
2,-1.0,-1.0,-1.0,0.3369126,0.0,0.0,0.0,-33.21463,-0.9512634,-22.93245,-1.0,0.5364786,0.7062364,0.1136588,0.0,0.0,0.0,34.83998,-1.447662,-24.98082,-1.0,0.4545383,0.7002118,0.04128122,1.210859,-0.2944491,-0.1122567,0.02603248,0.001814706,0.2436611,-22.72534,29.666595949855353
2,-1.0,-1.0,-1.0,0.3739882,0.0,0.0,0.0,-33.04514,-1.218384,-23.04103,-1.0,0.5233259,0.6253603,0.1513749,0.0,0.0,0.0,34.83998,-1.447662,-24.98082,-1.0,0.4725973,0.6429116,0.04130793,1.210795,-0.2944545,-0.1122544,0.02588179,0.001752039,0.2436611,-22.72534,29.666595949855353
2,-1.0,-1.0,-1.0,0.3739882,0.0,0.0,0.0,-33.22459,-0.6698303,-22.84764,-1.0,0.5344673,0.5876856,0.1513749,0.0,0.0,0.0,34.83998,-1.447662,-24.98082,-1.0,0.3962105,0.6780609,0.04132116,1.21077,-0.2944323,-0.1124464,0.02594045,0.001752039,0.2436611,-22.72534,29.666595949855353
2,-1.0,-1.0,-1.0,0.3739882,0.0,0.0,0.0,-33.22459,-0.6698303,-22.84764,-1.0,0.5344673,0.5876856,0.1513749,0.0,0.0,0.0,34.83998,-1.447662,-24.98082,-1.0,0.3962105,0.6780609,0.04132116,1.21077,-0.2944323,-0.1124464,0.02594045,0.001752039,0.2436611,-22.72534,29.666595949855353
2,-1.0,-1.0,-1.0,0.4655558,0.0,0.0,0.0,-33.25255,-0.4733429,-22.77701,-1.0,0.5364251,0.5896779,0.2508643,0.0,0.0,0.0,34.84616,0.01721191,-24.45659,-1.0,0.4378151,0.6594726,0.04137158,1.21079,-0.2944233,-0.1121814,0.02586796,0.001700243,0.2436611,-22.72534,29.666595949855353
2,-1.0,-1.0,-1.0,0.533722,0.0,0.0,0.0,-33.26251,-0.5095825,-22.77634,-1.0,0.5360026,0.5878284,0.3908946,0.0,0.0,0.0,34.84616,0.01721191,-24.45659,-1.0,0.4257228,0.6360446,0.04139936,1.210745,-0.2943652,-0.1119437,0.02597919,0.001418329,0.2436611,-22.72534,29.666595949855353
2,-1.0,-1.0,-1.0,0.6187391,0.0,0.0,0.0,-33.24097,-0.5120697,-22.78619,-1.0,0.5375038,0.5866879,0.5241601,0.0,0.0,0.0,34.91983,0.195816,-24.2506,-1.0,0.4259063,0.5900089,0.04141843,1.210733,-0.2943068,-0.1118945,0.02618572,0.001359317,0.2436611,-22.72534,29.666595949855353
2,-1.0,-1.0,-1.0,0.6187391,0.0,0.0,0.0,-33.24097,-0.5120697,-22.78619,-1.0,0.5375038,0.5866879,0.5241601,0.0,0.0,0.0,34.91983,0.195816,-24.2506,-1.0,0.4259063,0.5900089,0.04141843,1.210733,-0.2943068,-0.1118945,0.02618572,0.001359317,0.2436611,-22.72534,29.666595949855353
2,-1.0,-1.0,-1.0,0.6641114,0.0,0.0,0.0,-33.30371,-0.5705872,-22.8174,-1.0,0.5363526,0.5827909,0.5951327,0.0,0.0,0.0,34.91898,0.157959,-24.26382,-1.0,0.4268124,0.5911496,0.04145801,1.210651,-0.2942524,-0.1116913,0.02632703,0.001572766,0.2436611,-3.814632,29.666595949855353
2,0.05145264,-0.2189941,0.97435,0.7136444,0.05186462,-0.218689,0.974411,-33.24524,-0.5391693,-22.78096,3.39032,0.5357494,0.5825192,0.6548309,-0.01806641,-0.2715302,0.9622498,34.94986,0.1168518,-24.26572,2.993134,0.4260065,0.5834575,0.04148781,1.210614,-0.2942073,-0.1116451,0.02644083,0.001660336,0.2436611,-3.814632,29.666595949855353
2,0.05145264,-0.2189941,0.97435,0.7136444,0.05186462,-0.218689,0.974411,-33.24524,-0.5391693,-22.78096,3.39032,0.5357494,0.5825192,0.6548309,-0.01806641,-0.2715302,0.9622498,34.94986,0.1168518,-24.26572,2.993134,0.4260065,0.5834575,0.04148781,1.210614,-0.2942073,-0.1116451,0.02644083,0.001660336,0.2436611,-3.814632,29.666595949855353
3,0.07751465,-0.2212372,0.9721222,0.7459131,0.08023071,-0.2188721,0.9724426,-33.28491,-0.55513,-22.78758,3.467712,0.5324846,0.5832043,0.7019538,-0.01087952,-0.2964478,0.9549713,34.9796,0.1101837,-24.25883,2.778595,0.4237675,0.5881439,0.04147995,1.210605,-0.2942587,-0.1114787,0.02648026,0.001687045,0.2436611,-3.814632,29.666595949855353
3,0.02970886,-0.2389984,0.9705505,0.7632036,0.06794739,-0.2234802,0.9723206,-33.23335,-0.6478577,-22.82961,3.313644,0.5327728,0.5873342,0.7294283,-0.0177002,-0.2576447,0.9660645,34.96233,0.08892822,-24.25592,3.097839,0.4255528,0.581779,0.04144847,1.210587,-0.2942684,-0.1114095,0.02671026,0.001664817,0.2436611,-3.814632,29.666595949855353
3,0.02970886,-0.2389984,0.9705505,0.7632036,0.06794739,-0.2234802,0.9723206,-33.23335,-0.6478577,-22.82961,3.313644,0.5327728,0.5873342,0.7294283,-0.0177002,-0.2576447,0.9660645,34.96233,0.08892822,-24.25592,3.097839,0.4255528,0.581779,0.04144847,1.210587,-0.2942684,-0.1114095,0.02671026,0.001664817,0.2436611,-3.814632,29.666595949855353
3,0.01832581,-0.2623901,0.9647827,0.8055353,0.05082703,-0.2278595,0.9723511,-33.22911,-0.6038666,-22.82036,3.279953,0.5353923,0.586542,0.749114,-0.01464844,-0.2967834,0.9548187,34.96628,0.06660461,-24.26547,2.67305,0.4248311,0.5897272,0.04142153,1.210609,-0.2942061,-0.1115644,0.02657266,0.001610218,0.2436611,-3.814632,29.666595949855353
3,0.001708984,-0.2537231,0.9672699,0.8376197,0.05081177,-0.2292633,0.9720306,-33.22911,-0.6038666,-22.81483,3.279663,0.5353923,0.5867373,0.7752895,-0.04875183,-0.2780609,0.9593201,35.07866,0.08406067,-24.29347,2.87439,0.426807,0.58606,0.04142427,1.210646,-0.2941523,-0.1115528,0.02635645,0.001591602,0.2436611,-3.814632,29.666595949855353
3,0.001708984,-0.2537231,0.9672699,0.8376197,0.05081177,-0.2292633,0.9720306,-33.22911,-0.6038666,-22.81483,3.279663,0.5353923,0.5867373,0.7752895,-0.04875183,-0.2780609,0.9593201,35.07866,0.08406067,-24.29347,2.87439,0.426807,0.58606,0.04142427,1.210646,-0.2941523,-0.1115528,0.02635645,0.001591602,0.2436611,-3.814632,29.666595949855353
3,-0.0005493164,-0.2466736,0.9690857,0.8457096,0.04721069,-0.2200623,0.9743347,-33.22716,-0.6057281,-22.81099,3.484726,0.5359386,0.5851951,0.7924716,-0.05288696,-0.2749481,0.9599915,35.09378,0.09463501,-24.3049,2.919083,0.4269928,0.5852602,0.04132593,1.21064,-0.2941164,-0.111367,0.02607823,0.001605584,0.2436611,-3.814632,29.666595949855353
3,-0.0005493164,-0.2466736,0.9690857,0.8457096,0.04721069,-0.2200623,0.9743347,-33.22716,-0.6057281,-22.81099,3.484726,0.5359386,0.5851951,0.7924716,-0.05288696,-0.2749481,0.9599915,35.09378,0.09463501,-24.3049,2.919083,0.4269928,0.5852602,0.04132593,1.21064,-0.2941164,-0.111367,0.02607823,0.001605584,0.2436611,-3.814632,29.666595949855353
3,0.009857178,-0.2592163,0.9657593,0.8868281,0.05187988,-0.2453613,0.9680328,-33.26724,-0.5802917,-22.80019,3.392654,0.5364769,0.5886593,0.8187994,-0.03712463,-0.2740936,0.960968,35.02917,0.08769226,-24.30107,2.9077,0.4265195,0.5852533,0.04135621,1.210574,-0.2941042,-0.1112249,0.02590106,0.001500025,0.2436611,-3.814632,29.666595949855353
3,0.009857178,-0.2592163,0.9657593,0.8868281,0.05187988,-0.2453613,0.9680328,-33.26724,-0.5802917,-22.80019,3.392654,0.5364769,0.5886593,0.8187994,-0.03712463,-0.2740936,0.960968,35.02917,0.08769226,-24.30107,2.9077,0.4265195,0.5852533,0.04135621,1.210574,-0.2941042,-0.1112249,0.02590106,0.001500025,0.2436611,-3.814632,29.666595949855353
3,0.01042175,-0.2468719,0.9689789,0.9018913,0.04910278,-0.2254944,0.9729919,-33.25325,-0.6313324,-22.81189,3.483994,0.5364791,0.5869767,0.8286257,-0.03634644,-0.2720795,0.9615784,35.02533,0.08436584,-24.30342,2.911865,0.4265195,0.5850265,0.04137707,1.210561,-0.2940427,-0.1112924,0.02588927,0.001524658,0.2436611,-3.814632,29.666595949855353
3,0.01042175,-0.2468719,0.9689789,0.9018913,0.04910278,-0.2254944,0.9729919,-33.25325,-0.6313324,-22.81189,3.483994,0.5364791,0.5869767,0.8286257,-0.03634644,-0.2720795,0.9615784,35.02533,0.08436584,-24.30342,2.911865,0.4265195,0.5850265,0.04137707,1.210561,-0.2940427,-0.1112924,0.02588927,0.001524658,0.2436611,-3.814632,29.666595949855353
3,0.01023865,-0.2550049,0.9668732,0.9068252,0.05265808,-0.2376404,0.9699097,-33.272,-0.5725708,-22.79942,3.5,0.5365202,0.5870691,0.8293493,-0.03111267,-0.2714233,0.9619446,34.99599,0.07757568,-24.3049,2.925507,0.4266204,0.5851399,0.04133105,1.210526,-0.2939218,-0.1112712,0.02576522,0.001682623,0.2436611,10.72719,29.666595949855353
3,0.01023865,-0.2550049,0.9668732,0.9068252,0.05265808,-0.2376404,0.9699097,-33.272,-0.5725708,-22.79942,3.5,0.5365202,0.5870691,0.8293493,-0.03111267,-0.2714233,0.9619446,34.99599,0.07757568,-24.3049,2.925507,0.4266204,0.5851399,0.04133105,1.210526,-0.2939218,-0.1112712,0.02576522,0.001682623,0.2436611,10.72719,29.666595949855353
3,-0.009094238,-0.3159027,0.9487305,0.886236,0.0,0.0,0.0,-33.24562,-0.6187592,-22.80418,-1.0,0.5352668,0.5865556,0.7880668,-0.009094238,-0.3159027,0.9487305,34.93967,0.1328125,-24.26788,2.855606,0.424753,0.5910456,0.04130435,1.210459,-0.2937763,-0.1110374,0.02583799,0.001504984,0.2436611,10.72719,29.666595949855353
3,-0.009094238,-0.3159027,0.9487305,0.886236,0.0,0.0,0.0,-33.24562,-0.6187592,-22.80418,-1.0,0.5352668,0.5865556,0.7880668,-0.009094238,-0.3159027,0.9487305,34.93967,0.1328125,-24.26788,2.855606,0.424753,0.5910456,0.04130435,1.210459,-0.2937763,-0.1110374,0.02583799,0.001504984,0.2436611,10.72719,29.666595949855353
3,0.0178833,-0.2716827,0.9622192,0.8128117,0.05924988,-0.2414246,0.9685974,-33.27849,-0.4729919,-22.69528,3.740936,0.5356789,0.5835817,0.7403286,-0.03218079,-0.3072815,0.9510651,34.91714,0.1329803,-24.27185,2.782654,0.4293826,0.5895665,0.04126525,1.210384,-0.2936238,-0.1105723,0.02606909,0.001509927,0.2436611,10.72719,29.666595949855353
3,0.0178833,-0.2716827,0.9622192,0.8128117,0.05924988,-0.2414246,0.9685974,-33.27849,-0.4729919,-22.69528,3.740936,0.5356789,0.5835817,0.7403286,-0.03218079,-0.3072815,0.9510651,34.91714,0.1329803,-24.27185,2.782654,0.4293826,0.5895665,0.04126525,1.210384,-0.2936238,-0.1105723,0.02606909,0.001509927,0.2436611,10.72719,29.666595949855353
3,-0.001113892,-0.2764435,0.9610138,0.7909548,0.04844666,-0.230011,0.9719696,-33.22459,-0.5591736,-22.75459,3.738495,0.5356789,0.5849144,0.7030491,-0.03977966,-0.3117523,0.9493256,34.9402,0.1415405,-24.26619,2.881454,0.4298612,0.5900471,0.04122984,1.210239,-0.293552,-0.1101859,0.02605794,0.001582212,0.2436611,10.72719,29.666595949855353
3,-0.001113892,-0.2764435,0.9610138,0.7909548,0.04844666,-0.230011,0.9719696,-33.22459,-0.5591736,-22.75459,3.738495,0.5356789,0.5849144,0.7030491,-0.03977966,-0.3117523,0.9493256,34.9402,0.1415405,-24.26619,2.881454,0.4298612,0.5900471,0.04122984,1.210239,-0.293552,-0.1101859,0.02605794,0.001582212,0.2436611,10.72719,29.666595949855353
3,-0.003494263,-0.2794342,0.960144,0.786207,0.05471802,-0.2489166,0.9669647,-33.25478,-0.5647888,-22.75282,3.664963,0.5356484,0.5883598,0.7123199,-0.04650879,-0.3011932,0.9524231,35.07413,0.05528259,-24.26273,2.890671,0.4265192,0.5909377,0.04119706,1.21015,-0.2934105,-0.1097802,0.02618145,0.001822899,0.2436611,10.72719,29.666595949855353
3,-0.003494263,-0.2794342,0.960144,0.786207,0.05471802,-0.2489166,0.9669647,-33.25478,-0.5647888,-22.75282,3.664963,0.5356484,0.5883598,0.7123199,-0.04650879,-0.3011932,0.9524231,35.07413,0.05528259,-24.26273,2.890671,0.4265192,0.5909377,0.04119706,1.21015,-0.2934105,-0.1097802,0.02618145,0.001822899,0.2436611,10.72719,29.666595949855353
3,-0.003494263,-0.2794342,0.960144,0.786207,0.05471802,-0.2489166,0.9669647,-33.25478,-0.5647888,-22.75282,3.664963,0.5356484,0.5883598,0.7123199,-0.04650879,-0.3011932,0.9524231,35.07413,0.05528259,-24.26273,2.890671,0.4265192,0.5909377,0.04112089,1.210042,-0.2933383,-0.1094101,0.02625278,0.001810595,0.2436611,10.72719,29.666595949855353
3,-0.003494263,-0.2794342,0.960144,0.786207,0.05471802,-0.2489166,0.9669647,-33.25478,-0.5647888,-22.75282,3.664963,0.5356484,0.5883598,0.7123199,-0.04650879,-0.3011932,0.9524231,35.07413,0.05528259,-24.26273,2.890671,0.4265192,0.5909377,0.04112089,1.210042,-0.2933383,-0.1094101,0.02625278,0.001810595,0.2436611,10.72719,29.666595949855353
3,-0.003494263,-0.2794342,0.960144,0.786207,0.05471802,-0.2489166,0.9669647,-33.25478,-0.5647888,-22.75282,3.664963,0.5356484,0.5883598,0.7123199,-0.04650879,-0.3011932,0.9524231,35.07413,0.05528259,-24.26273,2.890671,0.4265192,0.5909377,0.04112899,1.20998,-0.293273,-0.1090839,0.02626725,0.001831055,0.2436611,10.72719,29.666595949855353
3,-0.003494263,-0.2794342,0.960144,0.786207,0.05471802,-0.2489166,0.9669647,-33.25478,-0.5647888,-22.75282,3.664963,0.5356484,0.5883598,0.7123199,-0.04650879,-0.3011932,0.9524231,35.07413,0.05528259,-24.26273,2.890671,0.4265192,0.5909377,0.04112899,1.20998,-0.293273,-0.1090839,0.02626725,0.001831055,0.2436611,10.72719,29.666595949855353
3,0.03555298,-0.2632599,0.9640656,0.8031223,0.06251526,-0.2575989,0.9642181,-33.26141,-0.556778,-22.76208,3.601273,0.5346131,0.5897107,0.7304036,-0.009689331,-0.2722778,0.9621582,34.89346,0.1012421,-24.26701,3.093643,0.4264773,0.5841239,0.0410831,1.209977,-0.2933207,-0.1089831,0.02624341,0.001822899,0.2436611,10.72719,29.666595949855353
3,0.03555298,-0.2632599,0.9640656,0.8031223,0.06251526,-0.2575989,0.9642181,-33.26141,-0.556778,-22.76208,3.601273,0.5346131,0.5897107,0.7304036,-0.009689331,-0.2722778,0.9621582,34.89346,0.1012421,-24.26701,3.093643,0.4264773,0.5841239,0.0410831,1.209977,-0.2933207,-0.1089831,0.02624341,0.001822899,0.2436611,10.72719,29.666595949855353
3,0.01748657,-0.2395325,0.9707184,0.8957574,0.05232239,-0.2452545,0.9680328,-33.24348,-0.6003876,-22.79015,3.736206,0.5356916,0.5892276,0.7799699,-0.02929688,-0.2313843,0.9724121,34.98404,0.09893799,-24.2859,3.598938,0.4267619,0.5771138,0.04105937,1.209976,-0.2933438,-0.1090422,0.02612761,0.001777371,0.2436611,6.281464,29.666595949855353
3,0.01748657,-0.2395325,0.9707184,0.8957574,0.05232239,-0.2452545,0.9680328,-33.24348,-0.6003876,-22.79015,3.736206,0.5356916,0.5892276,0.7799699,-0.02929688,-0.2313843,0.9724121,34.98404,0.09893799,-24.2859,3.598938,0.4267619,0.5771138,0.04105937,1.209976,-0.2933438,-0.1090422,0.02612761,0.001777371,0.2436611,6.281464,29.666595949855353
3,0.02709961,-0.2666016,0.9634247,0.9214051,0.05905151,-0.2536621,0.9654846,-33.25372,-0.6054535,-22.79257,3.652618,0.5349343,0.5908744,0.806703,-0.01489258,-0.2831116,0.9589691,34.9726,0.1009827,-24.29521,3.050766,0.4246687,0.5863557,0.04098141,1.21,-0.2934389,-0.1090533,0.02609794,0.001785735,0.2436611,6.281464,29.666595949855353
3,0.02709961,-0.2666016,0.9634247,0.9214051,0.05905151,-0.2536621,0.9654846,-33.25372,-0.6054535,-22.79257,3.652618,0.5349343,0.5908744,0.806703,-0.01489258,-0.2831116,0.9589691,34.9726,0.1009827,-24.29521,3.050766,0.4246687,0.5863557,0.04098141,1.21,-0.2934389,-0.1090533,0.02609794,0.001785735,0.2436611,6.281464,29.666595949855353
3,0.02304077,-0.2490692,0.9682007,0.9355385,0.05436707,-0.2330933,0.970932,-33.22487,-0.6388855,-22.83916,3.721497,0.5347712,0.5888228,0.8143831,-0.01698303,-0.2690125,0.9629822,34.97621,0.08413696,-24.30061,3.01738,0.4249254,0.5844148,0.04102433,1.210046,-0.2934703,-0.1092483,0.02604049,0.001747781,0.2436611,6.281464,29.666595949855353
3,0.02304077,-0.2490692,0.9682007,0.9355385,0.05436707,-0.2330933,0.970932,-33.22487,-0.6388855,-22.83916,3.721497,0.5347712,0.5888228,0.8143831,-0.01698303,-0.2690125,0.9629822,34.97621,0.08413696,-24.30061,3.01738,0.4249254,0.5844148,0.04102433,1.210046,-0.2934703,-0.1092483,0.02604049,0.001747781,0.2436611,6.281464,29.666595949855353
3,0.01626587,-0.2499237,0.9681244,0.953897,0.04942322,-0.2496033,0.9670715,-33.22487,-0.6327209,-22.83487,3.675644,0.535564,0.5914292,0.8247657,-0.03157043,-0.2499084,0.9677429,34.97015,0.06396484,-24.30135,3.214249,0.4275811,0.5816988,0.0410285,1.210072,-0.2935148,-0.1093663,0.0259548,0.001760523,0.2436611,6.281464,29.666595949855353
3,0.01626587,-0.2499237,0.9681244,0.953897,0.04942322,-0.2496033,0.9670715,-33.22487,-0.6327209,-22.83487,3.675644,0.535564,0.5914292,0.8247657,-0.03157043,-0.2499084,0.9677429,34.97015,0.06396484,-24.30135,3.214249,0.4275811,0.5816988,0.0410285,1.210072,-0.2935148,-0.1093663,0.0259548,0.001760523,0.2436611,6.281464,29.666595949855353
3,-0.001861572,-0.2434082,0.9699097,0.9740742,0.04875183,-0.2475433,0.9676361,-33.22864,-0.6358032,-22.83702,3.660126,0.5357911,0.5911989,0.8405484,-0.04100037,-0.2397766,0.9699554,34.97423,0.05400085,-24.30981,3.323212,0.4290182,0.5803203,0.04097748,1.210063,-0.2935833,-0.1095424,0.0260216,0.001586914,0.2436611,6.281464,29.666595949855353
3,-0.001861572,-0.2434082,0.9699097,0.9740742,0.04875183,-0.2475433,0.9676361,-33.22864,-0.6358032,-22.83702,3.660126,0.5357911,0.5911989,0.8405484,-0.04100037,-0.2397766,0.9699554,34.97423,0.05400085,-24.30981,3.323212,0.4290182,0.5803203,0.04097748,1.210063,-0.2935833,-0.1095424,0.0260216,0.001586914,0.2436611,6.281464,29.666595949855353
3,0.005661011,-0.2461548,0.9692078,0.9905713,0.04814148,-0.2481995,0.9674988,-33.23241,-0.6388855,-22.83916,3.701752,0.5360181,0.5914292,0.8508587,-0.03881836,-0.2435303,0.969101,34.9949,0.04876709,-24.31465,3.441635,0.4279369,0.5812176,0.04094172,1.210108,-0.2937087,-0.1097447,0.02605708,0.001596276,0.2436611,6.281464,29.666595949855353
3,0.005661011,-0.2461548,0.9692078,0.9905713,0.04814148,-0.2481995,0.9674988,-33.23241,-0.6388855,-22.83916,3.701752,0.5360181,0.5914292,0.8508587,-0.03881836,-0.2435303,0.969101,34.9949,0.04876709,-24.31465,3.441635,0.4279369,0.5812176,0.04094172,1.210108,-0.2937087,-0.1097447,0.02605708,0.001596276,0.2436611,6.281464,29.666595949855353
3,0.002746582,-0.2465973,0.969101,0.9938303,0.04507446,-0.246994,0.9679565,-33.22043,-0.6321716,-22.83224,3.711349,0.5361184,0.5909323,0.8628206,-0.03924561,-0.2457428,0.9685211,34.98709,0.04579163,-24.31204,3.348709,0.428277,0.5816815,0.04097044,1.210141,-0.2938118,-0.1099898,0.02602933,0.001637745,0.2436611,6.281464,29.666595949855353
3,0.002746582,-0.2465973,0.969101,0.9938303,0.04507446,-0.246994,0.9679565,-33.22043,-0.6321716,-22.83224,3.711349,0.5361184,0.5909323,0.8628206,-0.03924561,-0.2457428,0.9685211,34.98709,0.04579163,-24.31204,3.348709,0.428277,0.5816815,0.04097044,1.210141,-0.2938118,-0.1099898,0.02602933,0.001637745,0.2436611,6.281464,29.666595949855353
3,0.002349854,-0.2461395,0.969223,1.0,0.04502869,-0.2462158,0.9681549,-33.21777,-0.6321716,-22.83058,3.729111,0.5360407,0.5907833,1.0,-0.03945923,-0.2456207,0.9685516,34.98819,0.04399109,-24.30713,3.348846,0.428277,0.5816815,0.04097259,1.210207,-0.2939939,-0.1100995,0.02602733,0.001704619,0.2436611,-21.01232,29.666595949855353
3,0.002349854,-0.2461395,0.969223,1.0,0.04502869,-0.2462158,0.9681549,-33.21777,-0.6321716,-22.83058,3.729111,0.5360407,0.5907833,1.0,-0.03945923,-0.2456207,0.9685516,34.98819,0.04399109,-24.30713,3.348846,0.428277,0.5816815,0.04097259,1.210207,-0.2939939,-0.1100995,0.02602733,0.001704619,0.2436611,-21.01232,29.666595949855353
3,0.004470825,-0.2451782,0.9694672,0.9987224,0.04391479,-0.2447357,0.9685822,-33.21767,-0.6355438,-22.83153,3.740662,0.5362187,0.5906393,0.865132,-0.0368042,-0.245224,0.9687653,34.98764,0.03414917,-24.31207,3.319962,0.427854,0.5819626,0.0409292,1.210285,-0.2940789,-0.1102857,0.02598779,0.001713338,0.2436611,-21.01232,29.666595949855353
3,0.004470825,-0.2451782,0.9694672,0.9987224,0.04391479,-0.2447357,0.9685822,-33.21767,-0.6355438,-22.83153,3.740662,0.5362187,0.5906393,0.865132,-0.0368042,-0.245224,0.9687653,34.98764,0.03414917,-24.31207,3.319962,0.427854,0.5819626,0.0409292,1.210285,-0.2940789,-0.1102857,0.02598779,0.001713338,0.2436611,-21.01232,29.666595949855353
3,0.005966187,-0.2447968,0.9695435,1.0,0.04304504,-0.2439575,0.9688263,-33.21848,-0.6394501,-22.83194,3.741226,0.536383,0.5906393,1.0,-0.03681946,-0.2453461,0.9687347,34.98869,0.02485657,-24.31303,3.274338,0.4278236,0.5822975,0.04096901,1.210281,-0.2942054,-0.1103907,0.02596054,0.00179406,0.2436611,-21.01232,29.666595949855353
3,0.005966187,-0.2447968,0.9695435,1.0,0.04304504,-0.2439575,0.9688263,-33.21848,-0.6394501,-22.83194,3.741226,0.536383,0.5906393,1.0,-0.03681946,-0.2453461,0.9687347,34.98869,0.02485657,-24.31303,3.274338,0.4278236,0.5822975,0.04096901,1.210281,-0.2942054,-0.1103907,0.02596054,0.00179406,0.2436611,-21.01232,29.666595949855353
3,0.005523682,-0.2437897,0.9698029,1.0,0.04293823,-0.2433014,0.9689941,-33.21848,-0.6394501,-22.83194,3.774033,0.5364056,0.5905281,1.0,-0.03672791,-0.2439423,0.9690857,34.99078,0.01646423,-24.31561,3.275223,0.4277374,0.5823512,0.04096913,1.21028,-0.2942543,-0.1105072,0.0259812,0.001760523,0.2436611,-21.01232,29.666595949855353
3,0.003753662,-0.2433472,0.9699249,1.0,0.04397583,-0.2428284,0.9690552,-33.22203,-0.641098,-22.83417,3.774185,0.5363539,0.5905281,1.0,-0.03703308,-0.243454,0.9691925,34.99078,0.01454163,-24.31773,3.291809,0.427786,0.5823512,0.04101408,1.210361,-0.2942507,-0.1106324,0.0259525,0.001664817,0.2436611,-21.01232,29.666595949855353
3,0.003753662,-0.2433472,0.9699249,1.0,0.04397583,-0.2428284,0.9690552,-33.22203,-0.641098,-22.83417,3.774185,0.5363539,0.5905281,1.0,-0.03703308,-0.243454,0.9691925,34.99078,0.01454163,-24.31773,3.291809,0.427786,0.5823512,0.04101408,1.210361,-0.2942507,-0.1106324,0.0259525,0.001664817,0.2436611,-21.01232,29.666595949855353
3,0.004196167,-0.2414551,0.9703979,1.0,0.04266357,-0.2405548,0.9696808,-33.22449,-0.6524658,-22.8378,3.771561,0.5366432,0.5905281,1.0,-0.0358429,-0.2420044,0.9696045,34.99211,-0.007263184,-24.33572,3.256058,0.4275381,0.5829732,0.04104936,1.210387,-0.2942469,-0.1108163,0.02598177,0.001752039,0.2436611,-21.01232,29.666595949855353
3,0.004196167,-0.2414551,0.9703979,1.0,0.04266357,-0.2405548,0.9696808,-33.22449,-0.6524658,-22.8378,3.771561,0.5366432,0.5905281,1.0,-0.0358429,-0.2420044,0.9696045,34.99211,-0.007263184,-24.33572,3.256058,0.4275381,0.5829732,0.04104936,1.210387,-0.2942469,-0.1108163,0.02598177,0.001752039,0.2436611,-21.01232,29.666595949855353
3,0.004898071,-0.2440643,0.9697418,1.0,0.04267883,-0.2459412,0.968338,-33.22513,-0.6588898,-22.84149,3.760056,0.5366639,0.5917026,1.0,-0.03529358,-0.241684,0.969696,34.98933,-0.008865356,-24.33572,3.256317,0.4275381,0.5829732,0.04106832,1.210421,-0.2942653,-0.1108664,0.02595279,0.001577496,0.2436611,-21.01232,29.666595949855353
3,0.005096436,-0.2437439,0.9698181,1.0,0.04272461,-0.2454529,0.9684601,-33.22626,-0.6634216,-22.84296,3.760178,0.5366927,0.5917784,1.0,-0.03495789,-0.2415466,0.9697418,34.98933,-0.009078979,-24.33749,3.256317,0.4274837,0.5829732,0.04111707,1.210431,-0.2942035,-0.1108642,0.02595939,0.001673744,0.2436611,-21.01232,29.666595949855353
3,0.004440308,-0.2424011,0.9701538,1.0,0.04199219,-0.2455444,0.9684601,-33.23006,-0.6645508,-22.84416,3.745316,0.5369312,0.5918369,1.0,-0.034729,-0.2387543,0.9704437,34.9892,-0.02455139,-24.33894,3.243011,0.4274526,0.5829943,0.04111397,1.210448,-0.294188,-0.1109064,0.02602733,0.001596277,0.2436611,-21.01232,29.666595949855353
3,0.004440308,-0.2424011,0.9701538,1.0,0.04199219,-0.2455444,0.9684601,-33.23006,-0.6645508,-22.84416,3.745316,0.5369312,0.5918369,1.0,-0.034729,-0.2387543,0.9704437,34.9892,-0.02455139,-24.33894,3.243011,0.4274526,0.5829943,0.04111397,1.210448,-0.294188,-0.1109064,0.02602733,0.001596277,0.2436611,-21.01232,29.666595949855353
3,0.004089355,-0.2425537,0.9701233,1.0,0.04241943,-0.2459869,0.968338,-33.23221,-0.6649323,-22.84462,3.735092,0.5369312,0.5919411,1.0,-0.03450012,-0.2387543,0.970459,34.98802,-0.02455139,-24.3391,3.242996,0.4274526,0.5829943,0.04114342,1.210463,-0.2941713,-0.1107063,0.02629305,0.001132034,0.2436611,-21.01232,29.666595949855353
3,0.004547119,-0.2449799,0.9695129,1.0,0.04240417,-0.2482147,0.9677582,-33.23305,-0.6705627,-22.8474,3.723724,0.5369612,0.5925282,1.0,-0.034729,-0.2412567,0.9698334,34.98802,-0.02851868,-24.3391,3.233246,0.4274837,0.5835741,0.04114449,1.210481,-0.2942337,-0.1105855,0.02659452,0.001064184,0.2436611,3.733627,29.666595949855353
3,0.005081177,-0.2451935,0.9694519,1.0,0.04289246,-0.2485962,0.9676514,-33.23457,-0.6707764,-22.8475,3.716415,0.5369312,0.5925962,1.0,-0.03495789,-0.2411957,0.9698334,34.98763,-0.02886963,-24.3391,3.210175,0.4275381,0.5835741,0.04118335,1.21045,-0.2942123,-0.1105136,0.02675568,0.001151609,0.2436611,3.733627,29.666595949855353
3,0.005081177,-0.2451935,0.9694519,1.0,0.04289246,-0.2485962,0.9676514,-33.23457,-0.6707764,-22.8475,3.716415,0.5369312,0.5925962,1.0,-0.03495789,-0.2411957,0.9698334,34.98763,-0.02886963,-24.3391,3.210175,0.4275381,0.5835741,0.04118335,1.21045,-0.2942123,-0.1105136,0.02675568,0.001151609,0.2436611,3.733627,29.666595949855353
3,0.005081177,-0.2451935,0.9694519,1.0,0.04289246,-0.2485962,0.9676514,-33.23457,-0.6707764,-22.8475,3.716415,0.5369312,0.5925962,1.0,-0.03495789,-0.2411957,0.9698334,34.98763,-0.02886963,-24.3391,3.210175,0.4275381,0.5835741,0.04121625,1.210437,-0.2941979,-0.1103669,0.0268091,0.001309058,0.2436611,3.733627,29.666595949855353
3,0.005081177,-0.2451935,0.9694519,1.0,0.04289246,-0.2485962,0.9676514,-33.23457,-0.6707764,-22.8475,3.716415,0.5369312,0.5925962,1.0,-0.03495789,-0.2411957,0.9698334,34.98763,-0.02886963,-24.3391,3.210175,0.4275381,0.5835741,0.04131091,1.210418,-0.2942083,-0.1101314,0.02690924,0.001673744,0.2398181,3.733627,29.666595949855353
3,0.005081177,-0.2451935,0.9694519,1.0,0.04289246,-0.2485962,0.9676514,-33.23457,-0.6707764,-22.8475,3.716415,0.5369312,0.5925962,1.0,-0.03495789,-0.2411957,0.9698334,34.98763,-0.02886963,-24.3391,3.210175,0.4275381,0.5835741,0.04131567,1.210405,-0.2941902,-0.1099978,0.0268965,0.001655842,0.2398181,3.733627,29.666595949855353
3,0.005081177,-0.2451935,0.9694519,1.0,0.04289246,-0.2485962,0.9676514,-33.23457,-0.6707764,-22.8475,3.716415,0.5369312,0.5925962,1.0,-0.03495789,-0.2411957,0.9698334,34.98763,-0.02886963,-24.3391,3.210175,0.4275381,0.5835741,0.04131567,1.210405,-0.2941902,-0.1099978,0.0268965,0.001655842,0.2398181,3.733627,29.666595949855353
3,0.005081177,-0.2451935,0.9694519,1.0,0.04289246,-0.2485962,0.9676514,-33.23457,-0.6707764,-22.8475,3.716415,0.5369312,0.5925962,1.0,-0.03495789,-0.2411957,0.9698334,34.98763,-0.02886963,-24.3391,3.210175,0.4275381,0.5835741,0.04132247,1.210343,-0.2941366,-0.1098872,0.02699604,0.001359317,0.2398181,3.733627,29.666595949855353
3,0.009063721,-0.2475433,0.9688263,1.0,0.04431152,-0.2507019,0.967041,-33.23953,-0.6802673,-22.84962,3.703766,0.5368656,0.5933019,1.0,-0.03343201,-0.2433319,0.9693604,34.98802,-0.02998352,-24.34288,3.188034,0.4272678,0.584023,0.04134738,1.210338,-0.2941206,-0.1099328,0.02693387,0.001364788,0.2398181,3.733627,29.666595949855353
3,0.00970459,-0.248703,0.9685211,1.0,0.04467773,-0.248642,0.9675598,-33.23961,-0.6906433,-22.8531,3.671249,0.5368026,0.5933019,1.0,-0.03184509,-0.2483673,0.9681396,34.98997,-0.02824402,-24.34505,3.13237,0.4269311,0.584885,0.04133761,1.210355,-0.2940471,-0.1097918,0.02670245,0.001303354,0.2398181,3.733627,29.666595949855353
3,0.00970459,-0.248703,0.9685211,1.0,0.04467773,-0.248642,0.9675598,-33.23961,-0.6906433,-22.8531,3.671249,0.5368026,0.5933019,1.0,-0.03184509,-0.2483673,0.9681396,34.98997,-0.02824402,-24.34505,3.13237,0.4269311,0.584885,0.04133761,1.210355,-0.2940471,-0.1097918,0.02670245,0.001303354,0.2398181,3.733627,29.666595949855353
3,0.008926392,-0.2489471,0.9684601,1.0,0.0471344,-0.2486267,0.9674377,-33.24088,-0.6906433,-22.8531,3.630783,0.5364452,0.5933019,1.0,-0.03063965,-0.2489014,0.9680328,34.99278,-0.02455139,-24.34787,3.132339,0.4266355,0.584885,0.04136109,1.210353,-0.2940059,-0.1097629,0.02647603,0.001326023,0.2398181,3.733627,29.666595949855353
3,0.008926392,-0.2489471,0.9684601,1.0,0.0471344,-0.2486267,0.9674377,-33.24088,-0.6906433,-22.8531,3.630783,0.5364452,0.5933019,1.0,-0.03063965,-0.2489014,0.9680328,34.99278,-0.02455139,-24.34787,3.132339,0.4266355,0.584885,0.04136109,1.210353,-0.2940059,-0.1097629,0.02647603,0.001326023,0.2398181,3.733627,29.666595949855353
3,0.009994507,-0.2525635,0.967514,1.0,0.05136108,-0.2484283,0.9672699,-33.24327,-0.6906433,-22.85332,3.501312,0.5358221,0.593268,1.0,-0.03239441,-0.2563324,0.9660339,35.00468,-0.02374268,-24.35089,3.088409,0.4265141,0.5862216,0.04135954,1.21033,-0.294017,-0.1096286,0.02637369,0.001342773,0.2398181,3.733627,29.666595949855353
3,0.009994507,-0.2525635,0.967514,1.0,0.05136108,-0.2484283,0.9672699,-33.24327,-0.6906433,-22.85332,3.501312,0.5358221,0.593268,1.0,-0.03239441,-0.2563324,0.9660339,35.00468,-0.02374268,-24.35089,3.088409,0.4265141,0.5862216,0.04135954,1.21033,-0.294017,-0.1096286,0.02637369,0.001342773,0.2398181,3.733627,29.666595949855353
3,0.01068115,-0.2482605,0.9686279,1.0,0.05229187,-0.2442169,0.9682922,-33.24327,-0.6880951,-22.85435,3.482468,0.5356678,0.5924609,1.0,-0.03210449,-0.2519531,0.9671936,35.00468,-0.02101135,-24.35339,3.112747,0.4264761,0.5853662,0.04135108,1.210278,-0.2939996,-0.1095749,0.02640418,0.001342773,0.2398181,12.86089,29.666595949855353
3,0.01055908,-0.2467804,0.9690094,1.0,0.05227661,-0.2412567,0.9690399,-33.24327,-0.6875153,-22.85435,3.482376,0.5356678,0.591929,1.0,-0.03210449,-0.2519684,0.9671936,35.00468,-0.02101135,-24.35339,3.112762,0.4264761,0.5853662,0.04137576,1.210271,-0.2939717,-0.109617,0.02630382,0.001391816,0.2398181,12.86089,31.15
3,0.01055908,-0.2467804,0.9690094,1.0,0.05227661,-0.2412567,0.9690399,-33.24327,-0.6875153,-22.85435,3.482376,0.5356678,0.591929,1.0,-0.03210449,-0.2519684,0.9671936,35.00468,-0.02101135,-24.35339,3.112762,0.4264761,0.5853662,0.04137576,1.210271,-0.2939717,-0.109617,0.02630382,0.001391816,0.2398181,12.86089,31.15
3,0.01095581,-0.2455444,0.9693146,1.0,0.05316162,-0.2414093,0.9689636,-33.24327,-0.6866302,-22.85509,3.463715,0.5355232,0.591929,1.0,-0.03300476,-0.2493744,0.9678345,35.0045,-0.02033997,-24.35295,3.135376,0.4266355,0.584885,0.04137027,1.210283,-0.2939422,-0.1095274,0.02636182,0.001669286,0.2398181,12.86089,31.15
3,0.01046753,-0.2459869,0.9692078,0.9997618,0.05348206,-0.2406769,0.9691162,-33.24879,-0.6855164,-22.85695,3.460175,0.53565,0.5917802,0.8906323,-0.03326416,-0.2509003,0.9674377,35.00346,-0.02011108,-24.35207,3.135361,0.4267118,0.5851429,0.04139793,1.210206,-0.2939901,-0.1094196,0.02634825,0.001596276,0.2398181,12.86089,31.15
3,0.009689331,-0.2463837,0.9691162,1.0,0.05357361,-0.2400055,0.9692841,-33.25334,-0.6855164,-22.85751,3.464172,0.5357834,0.5916767,1.0,-0.03408813,-0.2522583,0.9670563,35.00201,-0.02011108,-24.34972,3.144669,0.4268922,0.5853662,0.04142725,1.210172,-0.2939978,-0.1092517,0.02647463,0.001407783,0.2398181,12.86089,31.15
3,0.009689331,-0.2463837,0.9691162,1.0,0.05357361,-0.2400055,0.9692841,-33.25334,-0.6855164,-22.85751,3.464172,0.5357834,0.5916767,1.0,-0.03408813,-0.2522583,0.9670563,35.00201,-0.02011108,-24.34972,3.144669,0.4268922,0.5853662,0.04142725,1.210172,-0.2939978,-0.1092517,0.02647463,0.001407783,0.2398181,12.86089,31.15
3,0.009399414,-0.2468414,0.9689941,1.0,0.05395508,-0.2400055,0.9692688,-33.25642,-0.6855164,-22.85754,3.464188,0.5358221,0.5916767,1.0,-0.03488159,-0.2531433,0.9667969,35.00014,-0.01524353,-24.34972,3.144699,0.4270856,0.5853662,0.04143035,1.210161,-0.294034,-0.1091014,0.026715,0.001274451,0.2398181,12.86089,31.15
3,0.008972168,-0.2468414,0.9690094,1.0,0.05410767,-0.2400055,0.9692535,-33.25716,-0.6855164,-22.85797,3.470718,0.5358231,0.5916784,1.0,-0.03633118,-0.2532043,0.9667206,34.99918,-0.01478577,-24.34972,3.169266,0.4273571,0.5853662,0.04145205,1.210163,-0.2940305,-0.1091029,0.02672141,0.001303354,0.2398181,12.86089,31.15
3,0.008972168,-0.2468414,0.9690094,1.0,0.05410767,-0.2400055,0.9692535,-33.25716,-0.6855164,-22.85797,3.470718,0.5358231,0.5916784,1.0,-0.03633118,-0.2532043,0.9667206,34.99918,-0.01478577,-24.34972,3.169266,0.4273571,0.5853662,0.04149592,1.210189,-0.2940508,-0.1090415,0.0267593,0.001326023,0.2398181,12.86089,31.15
3,0.008972168,-0.2468414,0.9690094,1.0,0.05410767,-0.2400055,0.9692535,-33.25716,-0.6855164,-22.85797,3.470718,0.5358231,0.5916784,1.0,-0.03633118,-0.2532043,0.9667206,34.99918,-0.01478577,-24.34972,3.169266,0.4273571,0.5853662,0.04149592,1.210189,-0.2940508,-0.1090415,0.0267593,0.001326023,0.2398181,12.86089,31.15
3,0.008972168,-0.2468414,0.9690094,1.0,0.05410767,-0.2400055,0.9692535,-33.25716,-0.6855164,-22.85797,3.470718,0.5358231,0.5916784,1.0,-0.03633118,-0.2532043,0.9667206,34.99918,-0.01478577,-24.34972,3.169266,0.4273571,0.5853662,0.04151595,1.210199,-0.2940969,-0.1090872,0.02687266,0.001413066,0.2398181,12.86089,31.15
3,0.008972168,-0.2468414,0.9690094,1.0,0.05410767,-0.2400055,0.9692535,-33.25716,-0.6855164,-22.85797,3.470718,0.5358231,0.5916784,1.0,-0.03633118,-0.2532043,0.9667206,34.99918,-0.01478577,-24.34972,3.169266,0.4273571,0.5853662,0.04152095,1.210236,-0.2941705,-0.1092079,0.02699162,0.001444356,0.2398181,12.86089,31.15
3,0.008209229,-0.2437286,0.9698029,1.0,0.04864502,-0.2398682,0.969574,-33.26297,-0.6853333,-22.85844,3.481583,0.5368896,0.5916407,1.0,-0.03723145,-0.2475891,0.9681396,34.99503,-0.01329041,-24.34888,3.17067,0.42766,0.5843047,0.04153621,1.210255,-0.2943368,-0.1093296,0.02712901,0.001226791,0.2398181,12.86089,31.15
3,0.008209229,-0.2437286,0.9698029,1.0,0.04864502,-0.2398682,0.969574,-33.26297,-0.6853333,-22.85844,3.481583,0.5368896,0.5916407,1.0,-0.03723145,-0.2475891,0.9681396,34.99503,-0.01329041,-24.34888,3.17067,0.42766,0.5843047,0.04153621,1.210255,-0.2943368,-0.1093296,0.02712901,0.001226791,0.2398181,12.86089,31.15
3,0.00819397,-0.2444305,0.9696198,1.0,0.04846191,-0.2404785,0.9694366,-33.26881,-0.6811829,-22.85872,3.514511,0.5371153,0.5916216,1.0,-0.0365448,-0.2483521,0.9679718,34.98805,-0.01011658,-24.34833,3.170532,0.4277762,0.5843347,0.04153621,1.210255,-0.2943368,-0.1093296,0.02712901,0.001226791,0.2398181,6.325294,31.15
3,0.00819397,-0.2444305,0.9696198,1.0,0.04846191,-0.2404785,0.9694366,-33.26881,-0.6811829,-22.85872,3.514511,0.5371153,0.5916216,1.0,-0.0365448,-0.2483521,0.9679718,34.98805,-0.01011658,-24.34833,3.170532,0.4277762,0.5843347,0.04153621,1.210255,-0.2943368,-0.1093296,0.02712901,0.001226791,0.2398181,6.325294,31.15
4,0.007583618,-0.2467194,0.9690552,1.0,0.04705811,-0.2412872,0.9692993,-33.27177,-0.6711121,-22.85873,3.615616,0.537454,0.5914506,1.0,-0.03581238,-0.252243,0.9669952,34.98038,-0.0008850098,-24.34665,3.186218,0.4279031,0.5847143,0.04154551,1.210388,-0.2944653,-0.1096484,0.02710511,0.00123285,0.2398181,6.325294,31.15
4,0.01017761,-0.2472229,0.9688873,1.0,0.0447998,-0.2428131,0.9690247,-33.27646,-0.6646881,-22.85902,3.621979,0.5379709,0.5915119,1.0,-0.02984619,-0.2519684,0.9672699,34.95399,0.002212524,-24.32545,3.186615,0.4278019,0.5843347,0.04155684,1.210434,-0.2945695,-0.109947,0.0270272,0.001214584,0.2398181,6.325294,31.15
4,0.01017761,-0.2472229,0.9688873,1.0,0.0447998,-0.2428131,0.9690247,-33.27646,-0.6646881,-22.85902,3.621979,0.5379709,0.5915119,1.0,-0.02984619,-0.2519684,0.9672699,34.95399,0.002212524,-24.32545,3.186615,0.4278019,0.5843347,0.04155684,1.210434,-0.2945695,-0.109947,0.0270272,0.001214584,0.2398181,6.325294,31.15
4,0.009170532,-0.2480011,0.9687042,1.0,0.04231262,-0.2444153,0.9687347,-33.27841,-0.6565857,-22.85873,3.639145,0.5384374,0.5915278,1.0,-0.03279114,-0.252121,0.9671326,34.95132,0.003860474,-24.32077,3.292831,0.4283707,0.584286,0.04155195,1.210554,-0.2947518,-0.1101597,0.02695709,0.001138596,0.2398181,6.325294,31.15
4,0.009170532,-0.2480011,0.9687042,1.0,0.04231262,-0.2444153,0.9687347,-33.27841,-0.6565857,-22.85873,3.639145,0.5384374,0.5915278,1.0,-0.03279114,-0.252121,0.9671326,34.95132,0.003860474,-24.32077,3.292831,0.4283707,0.584286,0.04155195,1.210554,-0.2947518,-0.1101597,0.02695709,0.001138596,0.2398181,6.325294,31.15
4,0.008209229,-0.2482758,0.9686432,1.0,0.04177856,-0.2447968,0.9686584,-33.28021,-0.6546936,-22.85873,3.646973,0.5385815,0.5915278,1.0,-0.03341675,-0.2521973,0.9670868,34.95102,0.003860474,-24.31969,3.307755,0.4284834,0.584286,0.04153979,1.210623,-0.2948689,-0.1103818,0.02694576,0.001132034,0.2398181,6.325294,31.15
4,0.005218506,-0.2491455,0.9684448,1.0,0.04095459,-0.2459869,0.968399,-33.28162,-0.6544037,-22.85902,3.646698,0.5387611,0.5917258,1.0,-0.03340149,-0.252182,0.9670868,34.9509,0.003860474,-24.31955,3.307709,0.4284834,0.584286,0.04144108,1.210658,-0.2949474,-0.1105886,0.0268613,0.001112114,0.2398181,6.325294,31.15
4,0.005218506,-0.2491455,0.9684448,1.0,0.04095459,-0.2459869,0.968399,-33.28162,-0.6544037,-22.85902,3.646698,0.5387611,0.5917258,1.0,-0.03340149,-0.252182,0.9670868,34.9509,0.003860474,-24.31955,3.307709,0.4284834,0.584286,0.04144108,1.210658,-0.2949474,-0.1105886,0.0268613,0.001112114,0.2398181,6.325294,31.15
4,0.00213623,-0.2489624,0.9685059,1.0,0.04396057,-0.2470245,0.9680023,-33.28975,-0.6512451,-22.85979,3.669403,0.5385472,0.5918276,1.0,-0.03434753,-0.2502899,0.9675446,34.9509,0.002197266,-24.31563,3.321899,0.428645,0.5839712,0.04139626,1.210715,-0.2950324,-0.1107135,0.02677294,0.001177203,0.2398181,6.325294,31.15
4,0.00213623,-0.2489624,0.9685059,1.0,0.04396057,-0.2470245,0.9680023,-33.28975,-0.6512451,-22.85979,3.669403,0.5385472,0.5918276,1.0,-0.03434753,-0.2502899,0.9675446,34.9509,0.002197266,-24.31563,3.321899,0.428645,0.5839712,0.04139626,1.210715,-0.2950324,-0.1107135,0.02677294,0.001177203,0.2398181,6.325294,31.15
4,0.0006561279,-0.2504578,0.9681244,1.0,0.04112244,-0.2519531,0.9668579,-33.2966,-0.6512451,-22.86348,3.677277,0.5392298,0.5927094,1.0,-0.03433228,-0.2488403,0.967926,34.94987,-0.003768921,-24.31413,3.335205,0.4286783,0.5838903,0.04133642,1.210753,-0.2951484,-0.1108285,0.02676515,0.001214584,0.2398181,6.325294,31.15
4,0.0006561279,-0.2504578,0.9681244,1.0,0.04112244,-0.2519531,0.9668579,-33.2966,-0.6512451,-22.86348,3.677277,0.5392298,0.5927094,1.0,-0.03433228,-0.2488403,0.967926,34.94987,-0.003768921,-24.31413,3.335205,0.4286783,0.5838903,0.04133642,1.210753,-0.2951484,-0.1108285,0.02676515,0.001214584,0.2398181,6.325294,31.15
4,0.0160675,-0.2493439,0.968277,1.0,0.04214478,-0.2540131,0.9662781,-33.30203,-0.6525116,-22.86707,3.684113,0.539246,0.5931491,1.0,-0.01176453,-0.2441559,0.9696503,34.83553,-0.04426575,-24.25908,3.355499,0.4287674,0.5838413,0.04136026,1.210792,-0.2951891,-0.1108413,0.02671026,0.001256791,0.2398181,6.325294,31.15
4,0.0160675,-0.2493439,0.968277,1.0,0.04214478,-0.2540131,0.9662781,-33.30203,-0.6525116,-22.86707,3.684113,0.539246,0.5931491,1.0,-0.01176453,-0.2441559,0.9696503,34.83553,-0.04426575,-24.25908,3.355499,0.4287674,0.5838413,0.04136026,1.210792,-0.2951891,-0.1108413,0.02671026,0.001256791,0.2398181,6.325294,31.15
4,0.02046204,-0.2447205,0.9693604,1.0,0.04826355,-0.2474365,0.9676971,-33.34578,-0.6878204,-22.9017,3.683701,0.53969,0.5934867,1.0,-0.01148987,-0.2413635,0.9703522,34.83438,-0.04704285,-24.24847,3.411804,0.4287674,0.5833492,0.04134226,1.210795,-0.2952064,-0.110945,0.02682188,0.001250849,0.2398181,-24.16384,31.15
4,0.02046204,-0.2447205,0.9693604,1.0,0.04826355,-0.2474365,0.9676971,-33.34578,-0.6878204,-22.9017,3.683701,0.53969,0.5934867,1.0,-0.01148987,-0.2413635,0.9703522,34.83438,-0.04704285,-24.24847,3.411804,0.4287674,0.5833492,0.04134226,1.210795,-0.2952064,-0.110945,0.02682188,0.001250849,0.2398181,-24.16384,31.15
4,0.0173645,-0.2438507,0.9696503,1.0,0.04978943,-0.2476044,0.9675751,-33.3532,-0.6878204,-22.90627,3.687363,0.53969,0.5935724,1.0,-0.0124054,-0.2401581,0.9706421,34.83354,-0.04846191,-24.23911,3.459305,0.4289493,0.5830835,0.04134142,1.210822,-0.2952287,-0.1110395,0.02671723,0.001320392,0.2398181,-24.16384,31.15
4,0.0173645,-0.2438507,0.9696503,1.0,0.04978943,-0.2476044,0.9675751,-33.3532,-0.6878204,-22.90627,3.687363,0.53969,0.5935724,1.0,-0.0124054,-0.2401581,0.9706421,34.83354,-0.04846191,-24.23911,3.459305,0.4289493,0.5830835,0.04134142,1.210822,-0.2952287,-0.1110395,0.02671723,0.001320392,0.2398181,-24.16384,31.15
4,0.0153656,-0.2436371,0.9697266,1.0,0.04971313,-0.2471924,0.9676819,-33.35704,-0.6878204,-22.91115,3.693985,0.5398309,0.5935489,1.0,-0.01278687,-0.240509,0.9705505,34.83253,-0.04846191,-24.2316,3.459641,0.4290482,0.5830835,0.04131246,1.21084,-0.2952235,-0.1112369,0.02675151,0.001280284,0.2398181,-24.16384,31.15
4,0.0153656,-0.2436371,0.9697266,1.0,0.04971313,-0.2471924,0.9676819,-33.35704,-0.6878204,-22.91115,3.693985,0.5398309,0.5935489,1.0,-0.01278687,-0.240509,0.9705505,34.83253,-0.04846191,-24.2316,3.459641,0.4290482,0.5830835,0.04131246,1.21084,-0.2952235,-0.1112369,0.02675151,0.001280284,0.2398181,-24.16384,31.15
4,0.01594543,-0.2433929,0.9697876,1.0,0.05062866,-0.2465515,0.967804,-33.36482,-0.6858521,-22.91464,3.73941,0.5399458,0.5934069,1.0,-0.01654053,-0.2401733,0.9705811,34.83134,-0.04827881,-24.22136,3.486694,0.4297124,0.5829297,0.04129827,1.210817,-0.295216,-0.1115898,0.02670663,0.001112113,0.2398181,-24.16384,31.15
4,0.01594543,-0.2433929,0.9697876,1.0,0.05062866,-0.2465515,0.967804,-33.36482,-0.6858521,-22.91464,3.73941,0.5399458,0.5934069,1.0,-0.01654053,-0.2401733,0.9705811,34.83134,-0.04827881,-24.22136,3.486694,0.4297124,0.5829297,0.04129827,1.210817,-0.295216,-0.1115898,0.02670663,0.001112113,0.2398181,-24.16384,31.15
4,0.01620483,-0.2436066,0.9697266,1.0,0.05049133,-0.2471466,0.9676514,-33.36989,-0.6750946,-22.91756,3.792526,0.5401418,0.5931963,1.0,-0.0163269,-0.239975,0.9706268,34.83055,-0.048172,-24.20706,3.487274,0.4297124,0.5827451,0.04130733,1.210837,-0.2951629,-0.1115284,0.02659537,0.001250849,0.2398181,-24.16384,31.15
4,0.01620483,-0.2436066,0.9697266,1.0,0.05049133,-0.2471466,0.9676514,-33.36989,-0.6750946,-22.91756,3.792526,0.5401418,0.5931963,1.0,-0.0163269,-0.239975,0.9706268,34.83055,-0.048172,-24.20706,3.487274,0.4297124,0.5827451,0.04130733,1.210837,-0.2951629,-0.1115284,0.02659537,0.001250849,0.2398181,-24.16384,31.15
4,0.01631165,-0.2431335,0.9698486,1.0,0.05078125,-0.2457275,0.9680023,-33.37387,-0.669342,-22.9211,3.797073,0.540226,0.5927962,1.0,-0.01667786,-0.2403717,0.9705353,34.83043,-0.04774475,-24.20013,3.48793,0.4297743,0.5827451,0.04131103,1.210849,-0.2950556,-0.1115435,0.02652692,0.001226791,0.2398181,-24.16384,31.15
4,0.01631165,-0.2431335,0.9698486,1.0,0.05078125,-0.2457275,0.9680023,-33.37387,-0.669342,-22.9211,3.797073,0.540226,0.5927962,1.0,-0.01667786,-0.2403717,0.9705353,34.83043,-0.04774475,-24.20013,3.48793,0.4297743,0.5827451,0.04131103,1.210849,-0.2950556,-0.1115435,0.02652692,0.001226791,0.2398181,-24.16384,31.15
4,0.01506042,-0.2421875,0.970108,1.0,0.04870605,-0.2433624,0.9687042,-33.38055,-0.6665192,-22.92697,3.853043,0.540787,0.5923625,1.0,-0.01686096,-0.2408295,0.9704132,34.83023,-0.04722595,-24.19226,3.500702,0.4298126,0.5827363,0.04135382,1.210921,-0.2949432,-0.1115784,0.02657547,0.001050089,0.2398181,-24.16384,31.15
4,0.01506042,-0.2421875,0.970108,1.0,0.04870605,-0.2433624,0.9687042,-33.38055,-0.6665192,-22.92697,3.853043,0.540787,0.5923625,1.0,-0.01686096,-0.2408295,0.9704132,34.83023,-0.04722595,-24.19226,3.500702,0.4298126,0.5827363,0.04135382,1.210921,-0.2949432,-0.1115784,0.02657547,0.001050089,0.2398181,-24.16384,31.15
4,0.01361084,-0.2425995,0.9700165,1.0,0.04641724,-0.2433472,0.9688263,-33.38547,-0.6598511,-22.92967,3.852814,0.5413128,0.5921604,1.0,-0.0171051,-0.2416534,0.9701996,34.83037,-0.04624939,-24.18126,3.506424,0.4298524,0.5827363,0.04133093,1.210856,-0.2948378,-0.1113598,0.02663624,0.001028583,0.2398181,-24.16384,31.15
4,0.01361084,-0.2425995,0.9700165,1.0,0.04641724,-0.2433472,0.9688263,-33.38547,-0.6598511,-22.92967,3.852814,0.5413128,0.5921604,1.0,-0.0171051,-0.2416534,0.9701996,34.83037,-0.04624939,-24.18126,3.506424,0.4298524,0.5827363,0.04133093,1.210856,-0.2948378,-0.1113598,0.02663624,0.001028583,0.2398181,-24.16384,31.15
4,0.01319885,-0.2414703,0.9703064,1.0,0.04626465,-0.2412415,0.9693451,-33.3891,-0.6598511,-22.93373,3.874649,0.5414596,0.5918422,1.0,-0.01766968,-0.2414551,0.9702454,34.83037,-0.04774475,-24.18036,3.501068,0.4299454,0.5827451,0.04134619,1.210738,-0.2947656,-0.1109368,0.02667537,0.001226791,0.2398181,7.049454,31.15
4,0.01319885,-0.2414703,0.9703064,1.0,0.04626465,-0.2412415,0.9693451,-33.3891,-0.6598511,-22.93373,3.874649,0.5414596,0.5918422,1.0,-0.01766968,-0.2414551,0.9702454,34.83037,-0.04774475,-24.18036,3.501068,0.4299454,0.5827451,0.04134619,1.210738,-0.2947656,-0.1109368,0.02667537,0.001226791,0.2398181,7.049454,31.15
4,0.01341248,-0.2413025,0.9703522,1.0,0.04725647,-0.2410736,0.9693451,-33.39629,-0.6570435,-22.93639,3.880249,0.5415375,0.591745,1.0,-0.01863098,-0.241272,0.9702606,34.83058,-0.04859924,-24.16191,3.501572,0.4301056,0.5825712,0.04135418,1.210654,-0.2947483,-0.1105812,0.02665944,0.00149505,0.2398181,7.049454,31.15
4,0.01341248,-0.2413025,0.9703522,1.0,0.04725647,-0.2410736,0.9693451,-33.39629,-0.6570435,-22.93639,3.880249,0.5415375,0.591745,1.0,-0.01863098,-0.241272,0.9702606,34.83058,-0.04859924,-24.16191,3.501572,0.4301056,0.5825712,0.04135418,1.210654,-0.2947483,-0.1105812,0.02665944,0.00149505,0.2398181,7.049454,31.15
4,0.01483154,-0.2372131,0.9713287,1.0,0.04684448,-0.2358398,0.9706573,-33.40523,-0.6531219,-22.94548,3.880615,0.541893,0.5907986,1.0,-0.01885986,-0.2384033,0.9709778,34.83101,-0.04859924,-24.16191,3.507614,0.4301344,0.5820605,0.04135525,1.210528,-0.2947254,-0.110293,0.02668039,0.001418329,0.2398181,7.049454,31.15
4,0.01483154,-0.2372131,0.9713287,1.0,0.04684448,-0.2358398,0.9706573,-33.40523,-0.6531219,-22.94548,3.880615,0.541893,0.5907986,1.0,-0.01885986,-0.2384033,0.9709778,34.83101,-0.04859924,-24.16191,3.507614,0.4301344,0.5820605,0.04135525,1.210528,-0.2947254,-0.110293,0.02668039,0.001418329,0.2398181,7.049454,31.15
4,0.01350403,-0.2360535,0.9716339,1.0,0.04521179,-0.235733,0.9707489,-33.40799,-0.6499481,-22.94595,3.879257,0.5422459,0.5906918,1.0,-0.01873779,-0.2361145,0.9715271,34.83147,-0.04605103,-24.16191,3.511078,0.4301056,0.5815591,0.04140389,1.210526,-0.2947268,-0.110233,0.02660209,0.001274452,0.2398181,7.049454,31.15
4,0.01350403,-0.2360535,0.9716339,1.0,0.04521179,-0.235733,0.9707489,-33.40799,-0.6499481,-22.94595,3.879257,0.5422459,0.5906918,1.0,-0.01873779,-0.2361145,0.9715271,34.83147,-0.04605103,-24.16191,3.511078,0.4301056,0.5815591,0.04140389,1.210526,-0.2947268,-0.110233,0.02660209,0.001274452,0.2398181,7.049454,31.15
4,0.003158569,-0.2400513,0.9707489,1.0,0.04525757,-0.2371521,0.9704132,-33.40868,-0.638504,-22.94595,3.875977,0.5422601,0.5905638,1.0,-0.03715515,-0.2424316,0.9694519,34.92682,-0.007766724,-24.17319,3.528763,0.4299646,0.5815591,0.04143465,1.210515,-0.2947295,-0.1104854,0.02651849,0.001164477,0.2398181,7.049454,31.15
4,0.003158569,-0.2400513,0.9707489,1.0,0.04525757,-0.2371521,0.9704132,-33.40868,-0.638504,-22.94595,3.875977,0.5422601,0.5905638,1.0,-0.03715515,-0.2424316,0.9694519,34.92682,-0.007766724,-24.17319,3.528763,0.4299646,0.5815591,0.04143465,1.210515,-0.2947295,-0.1104854,0.02651849,0.001164477,0.2398181,7.049454,31.15
4,0.003479004,-0.2389679,0.9710083,0.9939963,0.04533386,-0.236145,0.9706573,-33.40904,-0.6295319,-22.94595,3.879532,0.5422601,0.590095,0.8943134,-0.04118347,-0.2415314,0.9695129,34.94695,0.006790161,-24.17938,3.535065,0.4299646,0.5809789,0.04141843,1.210582,-0.294723,-0.1106173,0.02642533,0.00123285,0.2398181,7.049454,31.15
4,0.003479004,-0.2389679,0.9710083,0.9939963,0.04533386,-0.236145,0.9706573,-33.40904,-0.6295319,-22.94595,3.879532,0.5422601,0.590095,0.8943134,-0.04118347,-0.2415314,0.9695129,34.94695,0.006790161,-24.17938,3.535065,0.4299646,0.5809789,0.04141843,1.210582,-0.294723,-0.1106173,0.02642533,0.00123285,0.2398181,7.049454,31.15
4,0.003326416,-0.2316895,0.9727783,0.9878342,0.04527283,-0.230896,0.9719086,-33.41261,-0.6066589,-22.94402,3.880447,0.5423837,0.5884314,0.9001177,-0.04187012,-0.2320709,0.9717865,34.95103,0.01292419,-24.1804,3.545044,0.4299646,0.5791047,0.04141092,1.210585,-0.2947428,-0.1107205,0.02648504,0.001105394,0.2398181,7.049454,31.15
4,0.003952026,-0.2314148,0.9728394,0.9922389,0.04563904,-0.2340393,0.9711456,-33.41432,-0.5846405,-22.9426,3.876694,0.5423837,0.5882509,0.8991715,-0.03971863,-0.228241,0.9727783,34.95277,0.02433777,-24.1804,3.557739,0.4295616,0.5780458,0.0414964,1.210641,-0.2947693,-0.1110342,0.02662644,0.00109183,0.2398181,7.049454,31.15
4,0.003952026,-0.2314148,0.9728394,0.9922389,0.04563904,-0.2340393,0.9711456,-33.41432,-0.5846405,-22.9426,3.876694,0.5423837,0.5882509,0.8991715,-0.03971863,-0.228241,0.9727783,34.95277,0.02433777,-24.1804,3.557739,0.4295616,0.5780458,0.0414964,1.210641,-0.2947693,-0.1110342,0.02662644,0.00109183,0.2398181,7.049454,31.15
4,0.002700806,-0.2337646,0.9722748,0.9809543,0.04672241,-0.2361298,0.9705811,-33.41589,-0.5672913,-22.9426,3.857513,0.5422601,0.5880543,0.8974402,-0.04266357,-0.2308502,0.9720459,34.95523,0.03814697,-24.17961,3.551117,0.4299646,0.5780458,0.04154265,1.210689,-0.2947351,-0.1112615,0.02663791,0.001177203,0.2398181,16.05894,31.15
4,0.002700806,-0.2337646,0.9722748,0.9809543,0.04672241,-0.2361298,0.9705811,-33.41589,-0.5672913,-22.9426,3.857513,0.5422601,0.5880543,0.8974402,-0.04266357,-0.2308502,0.9720459,34.95523,0.03814697,-24.17961,3.551117,0.4299646,0.5780458,0.04154265,1.210689,-0.2947351,-0.1112615,0.02663791,0.001177203,0.2398181,16.05894,31.15
4,0.004989624,-0.2294159,0.9733124,0.9928817,0.0486145,-0.2295532,0.9720764,-33.41699,-0.5578918,-22.9426,3.851578,0.5419888,0.5866165,0.9039976,-0.04042053,-0.2288208,0.9726257,34.95645,0.04974365,-24.17909,3.551102,0.4295616,0.5772918,0.04159558,1.210772,-0.2947215,-0.1117055,0.02662784,0.001151609,0.2398181,16.05894,31.15
4,0.002456665,-0.2296295,0.9732666,0.9928817,0.04615784,-0.2296906,0.9721527,-33.41699,-0.5570526,-22.9426,3.857285,0.5423837,0.5866129,0.9039976,-0.0415802,-0.229126,0.9725037,34.95645,0.05134583,-24.17798,3.560669,0.4297524,0.5772918,0.04160082,1.210787,-0.2947205,-0.1118116,0.02667229,0.0009611826,0.2398181,16.05894,31.15
4,0.002456665,-0.2296295,0.9732666,0.9928817,0.04615784,-0.2296906,0.9721527,-33.41699,-0.5570526,-22.9426,3.857285,0.5423837,0.5866129,0.9039976,-0.0415802,-0.229126,0.9725037,34.95645,0.05134583,-24.17798,3.560669,0.4297524,0.5772918,0.04160082,1.210787,-0.2947205,-0.1118116,0.02667229,0.0009611826,0.2398181,16.05894,31.15
4,0.001037598,-0.2295074,0.9732971,0.9867715,0.0453949,-0.2294922,0.9722443,-33.41699,-0.5558929,-22.94481,3.835266,0.5425016,0.5865543,0.9078472,-0.04391479,-0.2290497,0.9724121,34.9576,0.06283569,-24.17203,3.558258,0.4301078,0.5768461,0.04161417,1.210848,-0.2947937,-0.1119762,0.02682327,0.0007324219,0.2398181,16.05894,31.15
4,0.002182007,-0.2273254,0.9738007,0.9875912,0.04525757,-0.2271118,0.9728088,-33.41699,-0.5549164,-22.94771,3.835281,0.5425265,0.5861381,0.8996929,-0.04171753,-0.2270966,0.9729614,34.9576,0.06938171,-24.16766,3.558685,0.4297524,0.5762329,0.04163659,1.210876,-0.2948084,-0.1120072,0.02681271,0.0007117861,0.2398181,16.05894,31.15
4,0.002182007,-0.2273254,0.9738007,0.9875912,0.04525757,-0.2271118,0.9728088,-33.41699,-0.5549164,-22.94771,3.835281,0.5425265,0.5861381,0.8996929,-0.04171753,-0.2270966,0.9729614,34.9576,0.06938171,-24.16766,3.558685,0.4297524,0.5762329,0.04163659,1.210876,-0.2948084,-0.1120072,0.02681271,0.0007117861,0.2398181,16.05894,31.15
4,0.00151062,-0.2234039,0.9747162,0.9917951,0.04345703,-0.2204742,0.974411,-33.41306,-0.5521545,-22.94952,3.835846,0.5426847,0.584923,0.8994603,-0.04144287,-0.2259827,0.9732361,34.9576,0.06938171,-24.16429,3.567123,0.4297105,0.5760038,0.04169679,1.210863,-0.2947931,-0.112215,0.02674761,0.0008457279,0.2398181,16.05894,31.15
4,0.00151062,-0.2234039,0.9747162,0.9917951,0.04345703,-0.2204742,0.974411,-33.41306,-0.5521545,-22.94952,3.835846,0.5426847,0.584923,0.8994603,-0.04144287,-0.2259827,0.9732361,34.9576,0.06938171,-24.16429,3.567123,0.4297105,0.5760038,0.04169679,1.210863,-0.2947931,-0.112215,0.02674761,0.0008457279,0.2398181,16.05894,31.15
4,0.001022339,-0.2210083,0.9752655,0.9972754,0.04328918,-0.2167358,0.9752655,-33.41212,-0.5500641,-22.95297,3.849365,0.5426847,0.5842472,0.8939714,-0.04029846,-0.2247925,0.9735565,34.95721,0.06938171,-24.1622,3.566879,0.4295366,0.5757649,0.041659,1.210858,-0.2948997,-0.1121458,0.02680159,0.0008631675,0.2398181,16.05894,31.15
4,0.001434326,-0.2196503,0.9755707,0.9868098,0.04324341,-0.2148743,0.9756775,-33.41209,-0.5493164,-22.95409,3.858353,0.542693,0.5839114,0.9072518,-0.03923035,-0.2239227,0.9738007,34.95322,0.06938171,-24.15439,3.572891,0.4294974,0.5755419,0.04167247,1.210837,-0.2949159,-0.1120809,0.02687544,0.0009296599,0.2398181,16.05894,31.15
4,0.002944946,-0.2195435,0.9755859,0.9868098,0.04318237,-0.2142639,0.9758148,-33.41179,-0.5482788,-22.9541,3.858368,0.542693,0.5837755,0.9072518,-0.03871155,-0.2246399,0.9736633,34.94937,0.06452942,-24.14819,3.590393,0.4295364,0.5757649,0.04172146,1.210891,-0.2948772,-0.1120554,0.02690924,0.0009296598,0.2398181,16.05894,31.15
4,0.002944946,-0.2195435,0.9755859,0.9868098,0.04318237,-0.2142639,0.9758148,-33.41179,-0.5482788,-22.9541,3.858368,0.542693,0.5837755,0.9072518,-0.03871155,-0.2246399,0.9736633,34.94937,0.06452942,-24.14819,3.590393,0.4295364,0.5757649,0.04172146,1.210891,-0.2948772,-0.1120554,0.02690924,0.0009296598,0.2398181,16.05894,31.15
4,0.005477905,-0.2172546,0.9760895,0.9982815,0.04299927,-0.212265,0.9762573,-33.41081,-0.5482788,-22.9541,3.858704,0.54269,0.5834427,0.9039471,-0.03814697,-0.2226868,0.9741364,34.94795,0.05810547,-24.14746,3.5905,0.4294943,0.575634,0.04176986,1.210888,-0.2948918,-0.1120776,0.02702224,0.0007221778,0.2398181,16.05894,31.15
4,0.003692627,-0.2170563,0.9761353,0.9982815,0.04299927,-0.2112885,0.9764709,-33.41063,-0.5470428,-22.9541,3.862122,0.5426847,0.5832282,0.9039471,-0.03747559,-0.2227325,0.9741516,34.9446,0.05810547,-24.14726,3.596191,0.4294943,0.575634,0.04175842,1.210927,-0.2948991,-0.1120609,0.02710483,0.0007425248,0.2398181,8.401566,31.15
4,0.003692627,-0.2170563,0.9761353,0.9982815,0.04299927,-0.2112885,0.9764709,-33.41063,-0.5470428,-22.9541,3.862122,0.5426847,0.5832282,0.9039471,-0.03747559,-0.2227325,0.9741516,34.9446,0.05810547,-24.14726,3.596191,0.4294943,0.575634,0.04175842,1.210927,-0.2948991,-0.1120609,0.02710483,0.0007425248,0.2398181,8.401566,31.15
4,0.003692627,-0.2170563,0.9761353,0.9982815,0.04299927,-0.2112885,0.9764709,-33.41063,-0.5470428,-22.9541,3.862122,0.5426847,0.5832282,0.9039471,-0.03747559,-0.2227325,0.9741516,34.9446,0.05810547,-24.14726,3.596191,0.4294943,0.575634,0.04174805,1.21094,-0.2948956,-0.112224,0.02716469,0.0008368719,0.2398181,8.401566,31.15
4,0.003692627,-0.2170563,0.9761353,0.9982815,0.04299927,-0.2112885,0.9764709,-33.41063,-0.5470428,-22.9541,3.862122,0.5426847,0.5832282,0.9039471,-0.03747559,-0.2227325,0.9741516,34.9446,0.05810547,-24.14726,3.596191,0.4294943,0.575634,0.04173887,1.210921,-0.2948803,-0.1123723,0.02710593,0.0008188726,0.2398181,8.401566,31.15
4,0.003692627,-0.2170563,0.9761353,0.9982815,0.04299927,-0.2112885,0.9764709,-33.41063,-0.5470428,-22.9541,3.862122,0.5426847,0.5832282,0.9039471,-0.03747559,-0.2227325,0.9741516,34.9446,0.05810547,-24.14726,3.596191,0.4294943,0.575634,0.04173887,1.210921,-0.2948803,-0.1123723,0.02710593,0.0008188726,0.2398181,8.401566,31.15
4,0.003692627,-0.2170563,0.9761353,0.9982815,0.04299927,-0.2112885,0.9764709,-33.41063,-0.5470428,-22.9541,3.862122,0.5426847,0.5832282,0.9039471,-0.03747559,-0.2227325,0.9741516,34.9446,0.05810547,-24.14726,3.596191,0.4294943,0.575634,0.04169071,1.210927,-0.2949018,-0.1125184,0.02716551,0.0007324219,0.2398181,8.401566,31.15
4,0.003692627,-0.2170563,0.9761353,0.9982815,0.04299927,-0.2112885,0.9764709,-33.41063,-0.5470428,-22.9541,3.862122,0.5426847,0.5832282,0.9039471,-0.03747559,-0.2227325,0.9741516,34.9446,0.05810547,-24.14726,3.596191,0.4294943,0.575634,0.04169071,1.210927,-0.2949018,-0.1125184,0.02716551,0.0007324219,0.2398181,8.401566,31.15
4,-0.003829956,-0.2125092,0.9771423,0.9912909,0.04000854,-0.2033691,0.9782715,-33.39589,-0.4772491,-22.88187,3.794327,0.5426391,0.5789256,0.9156157,-0.03453064,-0.2186584,0.9751892,34.94447,0.1049652,-24.13087,3.624847,0.4290387,0.5732088,0.04163814,1.210901,-0.294847,-0.1126219,0.0272236,0.000690534,0.2398181,8.401566,31.15
4,-0.006439209,-0.2147827,0.9766388,0.9912909,0.03967285,-0.203598,0.978241,-33.39763,-0.4736633,-22.88071,3.793289,0.5427492,0.5788356,0.9156157,-0.03785706,-0.2221222,0.9742737,34.94429,0.1059875,-24.13052,3.595078,0.42959,0.5737913,0.04161203,1.210958,-0.2948164,-0.1124853,0.0271389,0.0007816314,0.2398181,8.401566,31.15
4,-0.006439209,-0.2147827,0.9766388,0.9912909,0.03967285,-0.203598,0.978241,-33.39763,-0.4736633,-22.88071,3.793289,0.5427492,0.5788356,0.9156157,-0.03785706,-0.2221222,0.9742737,34.94429,0.1059875,-24.13052,3.595078,0.42959,0.5737913,0.04161203,1.210958,-0.2948164,-0.1124853,0.0271389,0.0007816314,0.2398181,8.401566,31.15
4,-0.003707886,-0.2132721,0.9769745,0.9882087,0.04168701,-0.2051239,0.9778442,-33.40424,-0.464035,-22.87599,3.794556,0.5426391,0.5787455,0.9141076,-0.04003906,-0.2194519,0.9747925,34.94269,0.1093292,-24.12996,3.610321,0.4300108,0.5732088,0.04158711,1.210961,-0.2947755,-0.1124937,0.0271995,0.0008279211,0.2398181,8.401566,31.15
4,-0.003707886,-0.2132721,0.9769745,0.9882087,0.04168701,-0.2051239,0.9778442,-33.40424,-0.464035,-22.87599,3.794556,0.5426391,0.5787455,0.9141076,-0.04003906,-0.2194519,0.9747925,34.94269,0.1093292,-24.12996,3.610321,0.4300108,0.5732088,0.04158711,1.210961,-0.2947755,-0.1124937,0.0271995,0.0008279211,0.2398181,8.401566,31.15
4,0.0004425049,-0.2140045,0.9768219,0.9839836,0.04185486,-0.2075195,0.9773254,-33.40631,-0.4524536,-22.87082,3.791397,0.5426779,0.5787371,0.9265866,-0.03982544,-0.2199402,0.9746857,34.94093,0.1122131,-24.12927,3.617798,0.4300317,0.5731895,0.0415895,1.210922,-0.2947642,-0.1124529,0.0270272,0.0009991885,0.2398181,8.401566,31.15
4,0.0006103516,-0.2144928,0.9767151,0.9879775,0.04222107,-0.2085114,0.9770966,-33.40691,-0.4477692,-22.86858,3.790451,0.5426391,0.5787286,0.926256,-0.03965759,-0.2199402,0.9747009,34.94078,0.1127014,-24.1291,3.610428,0.4300108,0.5731702,0.0415765,1.210897,-0.2947123,-0.1123256,0.02701342,0.001071163,0.2398181,8.401566,31.15
4,0.0005340576,-0.2158203,0.9764252,0.9885684,0.04240417,-0.2098999,0.9767914,-33.40791,-0.4415283,-22.86378,3.789795,0.5426391,0.5787234,0.9251633,-0.03982544,-0.2211609,0.974411,34.94041,0.1186218,-24.12708,3.599228,0.4300526,0.5731702,0.04146814,1.210872,-0.2946602,-0.1123585,0.02682716,0.001208434,0.2398181,8.401566,31.15
4,0.0005340576,-0.2158203,0.9764252,0.9885684,0.04240417,-0.2098999,0.9767914,-33.40791,-0.4415283,-22.86378,3.789795,0.5426391,0.5787234,0.9251633,-0.03982544,-0.2211609,0.974411,34.94041,0.1186218,-24.12708,3.599228,0.4300526,0.5731702,0.04146814,1.210872,-0.2946602,-0.1123585,0.02682716,0.001208434,0.2398181,8.401566,31.15
4,0.001144409,-0.2156219,0.9764709,0.9817193,0.04362488,-0.2093658,0.9768524,-33.41145,-0.4345093,-22.85976,3.785995,0.5425571,0.5783713,0.9268361,-0.0397644,-0.2212677,0.9743958,34.94012,0.1186981,-24.12601,3.591995,0.4300526,0.5731702,0.04143143,1.210869,-0.2946228,-0.1124307,0.02681438,0.001359317,0.2398181,8.401566,31.15
4,0.0008239746,-0.213623,0.9768982,0.9817193,0.04428101,-0.2073517,0.9772491,-33.41422,-0.4278717,-22.8564,3.7836,0.5425392,0.5777796,0.9268361,-0.04100037,-0.2192841,0.9747925,34.93616,0.1199951,-24.1255,3.592239,0.4303931,0.5727869,0.04142797,1.210895,-0.2946,-0.1124432,0.02674844,0.001320392,0.2398181,-20.51129,31.15
4,0.0008239746,-0.213623,0.9768982,0.9817193,0.04428101,-0.2073517,0.9772491,-33.41422,-0.4278717,-22.8564,3.7836,0.5425392,0.5777796,0.9268361,-0.04100037,-0.2192841,0.9747925,34.93616,0.1199951,-24.1255,3.592239,0.4303931,0.5727869,0.04142797,1.210895,-0.2946,-0.1124432,0.02674844,0.001320392,0.2398181,-20.51129,31.15
4,-0.001174927,-0.2131348,0.9770203,0.9874424,0.04478455,-0.2075043,0.9772034,-33.41498,-0.4219666,-22.85289,3.750687,0.5424766,0.5775768,0.9397212,-0.04096985,-0.2176514,0.9751587,34.93616,0.1217346,-24.12483,3.592484,0.4303931,0.5724304,0.04138446,1.210862,-0.294554,-0.1127057,0.02664882,0.001326023,0.2398181,-20.51129,31.15
4,-0.00100708,-0.2118683,0.9772949,0.992918,0.04481506,-0.2041473,0.9779053,-33.41501,-0.4191895,-22.8493,3.717377,0.5424631,0.5768778,0.9344727,-0.04084778,-0.2182007,0.9750366,34.93556,0.1256714,-24.12233,3.592545,0.4303931,0.5723692,0.04136908,1.210889,-0.29452,-0.112711,0.02657547,0.001291871,0.2398181,-20.51129,31.15
4,-0.0007019043,-0.2121429,0.9772339,0.992918,0.0447998,-0.2039337,0.977951,-33.41501,-0.4185791,-22.8472,3.708908,0.5424631,0.5767993,0.9344727,-0.04037476,-0.2189331,0.9748993,34.93291,0.1290131,-24.12108,3.579514,0.4304057,0.5723692,0.04136908,1.210889,-0.29452,-0.112711,0.02657547,0.001291871,0.2398181,-20.51129,31.15
4,-0.0007019043,-0.2121429,0.9772339,0.992918,0.0447998,-0.2039337,0.977951,-33.41501,-0.4185791,-22.8472,3.708908,0.5424631,0.5767993,0.9344727,-0.04037476,-0.2189331,0.9748993,34.93291,0.1290131,-24.12108,3.579514,0.4304057,0.5723692,0.04136908,1.210889,-0.29452,-0.112711,0.02657547,0.001291871,0.2398181,-20.51129,31.15
4,-0.0001068115,-0.2119751,0.9772644,0.9944594,0.0453186,-0.2038116,0.977951,-33.41536,-0.4185486,-22.84395,3.701111,0.5423894,0.5767389,0.9349899,-0.04016113,-0.2187958,0.9749298,34.93195,0.1307983,-24.1179,3.558426,0.4304057,0.5722629,0.04132354,1.210885,-0.2944701,-0.1128795,0.02639486,0.001544081,0.2398181,-20.51129,31.15
4,-0.0003509521,-0.2102661,0.9776306,0.9889143,0.04489136,-0.2031708,0.9781036,-33.41554,-0.4185486,-22.84253,3.701111,0.5424631,0.5766073,0.9296395,-0.04063416,-0.216217,0.9754944,34.93045,0.1328583,-24.11388,3.520721,0.430548,0.5716943,0.04127753,1.210848,-0.2944562,-0.1127486,0.02615725,0.001673744,0.2398181,-20.51129,31.15
4,-0.0009765625,-0.2102203,0.9776459,0.9881273,0.04496765,-0.203186,0.9781036,-33.41605,-0.4185486,-22.84164,3.680588,0.5424631,0.5766073,0.9469753,-0.04182434,-0.216095,0.9754639,34.92941,0.1333313,-24.10909,3.511627,0.4307835,0.57161,0.04131258,1.210881,-0.2943674,-0.1128189,0.02615753,0.001500025,0.2398181,-20.51129,31.15
4,-0.0009765625,-0.2102203,0.9776459,0.9881273,0.04496765,-0.203186,0.9781036,-33.41605,-0.4185486,-22.84164,3.680588,0.5424631,0.5766073,0.9469753,-0.04182434,-0.216095,0.9754639,34.92941,0.1333313,-24.10909,3.511627,0.4307835,0.57161,0.04131258,1.210881,-0.2943674,-0.1128189,0.02615753,0.001500025,0.2398181,-20.51129,31.15
4,-0.003387451,-0.2101898,0.9776459,0.9904625,0.04232788,-0.2040405,0.9780426,-33.41656,-0.4191895,-22.8383,3.679657,0.5429008,0.5767389,0.933537,-0.04328918,-0.2151794,0.9756012,34.92767,0.1343384,-24.10738,3.48317,0.4310896,0.5714027,0.04132009,1.210828,-0.2943298,-0.1126583,0.02616124,0.001244878,0.2398181,-20.51129,31.15
4,-0.003387451,-0.2101898,0.9776459,0.9904625,0.04232788,-0.2040405,0.9780426,-33.41656,-0.4191895,-22.8383,3.679657,0.5429008,0.5767389,0.933537,-0.04328918,-0.2151794,0.9756012,34.92767,0.1343384,-24.10738,3.48317,0.4310896,0.5714027,0.04132009,1.210828,-0.2943298,-0.1126583,0.02616124,0.001244878,0.2398181,-20.51129,31.15
5,-0.003631592,-0.2098236,0.9777222,0.988203,0.04187012,-0.2036591,0.9781342,-33.41656,-0.4232635,-22.8383,3.633011,0.5429677,0.5767993,0.9485548,-0.04629517,-0.21521,0.9754639,34.92613,0.1343231,-24.10643,3.470184,0.43164,0.5714027,0.04133213,1.210834,-0.294307,-0.1125199,0.026299,0.001320392,0.2398181,-20.51129,31.15
5,-0.003631592,-0.2098236,0.9777222,0.988203,0.04187012,-0.2036591,0.9781342,-33.41656,-0.4232635,-22.8383,3.633011,0.5429677,0.5767993,0.9485548,-0.04629517,-0.21521,0.9754639,34.92613,0.1343231,-24.10643,3.470184,0.43164,0.5714027,0.04133213,1.210834,-0.294307,-0.1125199,0.026299,0.001320392,0.2398181,-20.51129,31.15
5,-0.003768921,-0.2075653,0.9782104,0.9982503,0.04011536,-0.1981506,0.9793396,-33.41656,-0.4252014,-22.8383,3.603104,0.5432421,0.5759045,0.9549255,-0.04598999,-0.2162476,0.9752502,34.91623,0.1343231,-24.10388,3.43985,0.4319221,0.5715616,0.04133248,1.210779,-0.2942961,-0.1123861,0.02637877,0.001529537,0.2398181,-20.51129,31.15
5,-0.003768921,-0.2075653,0.9782104,0.9982503,0.04011536,-0.1981506,0.9793396,-33.41656,-0.4252014,-22.8383,3.603104,0.5432421,0.5759045,0.9549255,-0.04598999,-0.2162476,0.9752502,34.91623,0.1343231,-24.10388,3.43985,0.4319221,0.5715616,0.04133248,1.210779,-0.2942961,-0.1123861,0.02637877,0.001529537,0.2398181,-20.51129,31.15
5,-0.003585815,-0.2072296,0.9782715,0.9986392,0.03712463,-0.1985321,0.9793854,-33.41252,-0.4464264,-22.8506,3.57666,0.5435941,0.576759,0.9631442,-0.04380798,-0.2154694,0.9755249,34.9032,0.1299591,-24.10204,3.433914,0.4319969,0.5715418,0.04132652,1.210764,-0.2943381,-0.1121976,0.02645323,0.001577496,0.2398181,-2.720169,31.15
5,-0.003585815,-0.2072296,0.9782715,0.9986392,0.03712463,-0.1985321,0.9793854,-33.41252,-0.4464264,-22.8506,3.57666,0.5435941,0.576759,0.9631442,-0.04380798,-0.2154694,0.9755249,34.9032,0.1299591,-24.10204,3.433914,0.4319969,0.5715418,0.04132652,1.210764,-0.2943381,-0.1121976,0.02645323,0.001577496,0.2398181,-2.720169,31.15
5,-0.005477905,-0.2060547,0.9785156,0.9977341,0.03634644,-0.1978455,0.9795532,-33.41252,-0.4498901,-22.851,3.56633,0.5437161,0.576759,0.9671084,-0.04574585,-0.2136078,0.9758453,34.89441,0.125061,-24.09956,3.400009,0.4326187,0.5713497,0.04136705,1.210766,-0.2943571,-0.1123182,0.02657322,0.001563263,0.2398181,-2.720169,31.15
5,-0.005477905,-0.2060547,0.9785156,0.9977341,0.03634644,-0.1978455,0.9795532,-33.41252,-0.4498901,-22.851,3.56633,0.5437161,0.576759,0.9671084,-0.04574585,-0.2136078,0.9758453,34.89441,0.125061,-24.09956,3.400009,0.4326187,0.5713497,0.04136705,1.210766,-0.2943571,-0.1123182,0.02657322,0.001563263,0.2398181,-2.720169,31.15
5,-0.006546021,-0.2055054,0.9786224,0.9904553,0.03630066,-0.1977539,0.9795685,-33.41252,-0.4506226,-22.851,3.564255,0.543724,0.5767652,0.9657086,-0.04776001,-0.2125854,0.9759674,34.89413,0.1204376,-24.09764,3.363907,0.4329684,0.5713067,0.0413518,1.210771,-0.2943759,-0.1125145,0.02656509,0.001297625,0.2398181,-2.720169,31.15
5,-0.006546021,-0.2055054,0.9786224,0.9904553,0.03630066,-0.1977539,0.9795685,-33.41252,-0.4506226,-22.851,3.564255,0.543724,0.5767652,0.9657086,-0.04776001,-0.2125854,0.9759674,34.89413,0.1204376,-24.09764,3.363907,0.4329684,0.5713067,0.0413518,1.210771,-0.2943759,-0.1125145,0.02656509,0.001297625,0.2398181,-2.720169,31.15
5,-0.006408691,-0.2054749,0.9786377,0.9948978,0.03639221,-0.198288,0.9794617,-33.41371,-0.4516602,-22.85075,3.561447,0.5437479,0.5768842,0.9720825,-0.04933167,-0.2123108,0.9759521,34.89413,0.1146393,-24.09315,3.294601,0.4332395,0.5713936,0.04141581,1.210803,-0.2944083,-0.1127683,0.02639289,0.001320392,0.2398181,-2.720169,31.15
5,-0.006408691,-0.2054749,0.9786377,0.9948978,0.03639221,-0.198288,0.9794617,-33.41371,-0.4516602,-22.85075,3.561447,0.5437479,0.5768842,0.9720825,-0.04933167,-0.2123108,0.9759521,34.89413,0.1146393,-24.09315,3.294601,0.4332395,0.5713936,0.04141581,1.210803,-0.2944083,-0.1127683,0.02639289,0.001320392,0.2398181,-2.720169,31.15
5,-0.006561279,-0.2055817,0.9786072,0.999396,0.03637695,-0.2008362,0.9789429,-33.41371,-0.4522552,-22.84984,3.550018,0.5437479,0.5773357,0.9659673,-0.05065918,-0.2100372,0.9763641,34.89438,0.1119995,-24.08983,3.249237,0.4334657,0.5710467,0.04143596,1.210794,-0.2944676,-0.1128713,0.02629503,0.001238878,0.2398181,-2.720169,31.15
5,-0.006561279,-0.2055817,0.9786072,0.999396,0.03637695,-0.2008362,0.9789429,-33.41371,-0.4522552,-22.84984,3.550018,0.5437479,0.5773357,0.9659673,-0.05065918,-0.2100372,0.9763641,34.89438,0.1119995,-24.08983,3.249237,0.4334657,0.5710467,0.04143596,1.210794,-0.2944676,-0.1128713,0.02629503,0.001238878,0.2398181,-2.720169,31.15
5,-0.00680542,-0.2055817,0.9786072,1.0,0.03614807,-0.2010803,0.9788971,-33.41409,-0.4534302,-22.84865,3.549484,0.5437973,0.5774,1.0,-0.05059814,-0.2097626,0.9764404,34.89413,0.1118469,-24.08983,3.23587,0.4334657,0.5710014,0.04144681,1.210858,-0.294446,-0.1130095,0.02621444,0.001297625,0.2398181,-2.720169,31.15
5,-0.00680542,-0.2055817,0.9786072,1.0,0.03614807,-0.2010803,0.9788971,-33.41409,-0.4534302,-22.84865,3.549484,0.5437973,0.5774,1.0,-0.05059814,-0.2097626,0.9764404,34.89413,0.1118469,-24.08983,3.23587,0.4334657,0.5710014,0.04144681,1.210858,-0.294446,-0.1130095,0.02621444,0.001297625,0.2398181,-2.720169,31.15
5,-0.006011963,-0.2070618,0.978302,1.0,0.03593445,-0.2025299,0.9786072,-33.41393,-0.4579468,-22.84784,3.490067,0.5438159,0.5777723,1.0,-0.04818726,-0.2112579,0.9762268,34.89301,0.1075897,-24.08983,3.214966,0.4331019,0.5713936,0.04148364,1.21093,-0.2944502,-0.1132467,0.02617519,0.001407783,0.2398181,-2.720169,31.15
5,-0.006011963,-0.2070618,0.978302,1.0,0.03593445,-0.2025299,0.9786072,-33.41393,-0.4579468,-22.84784,3.490067,0.5438159,0.5777723,1.0,-0.04818726,-0.2112579,0.9762268,34.89301,0.1075897,-24.08983,3.214966,0.4331019,0.5713936,0.04148364,1.21093,-0.2944502,-0.1132467,0.02617519,0.001407783,0.2398181,-2.720169,31.15
5,-0.009719849,-0.2092285,0.9778137,0.994424,0.03410339,-0.2058716,0.9779816,-33.41371,-0.4704437,-22.84753,3.466232,0.5441018,0.5787461,0.9675606,-0.04954529,-0.2119293,0.9760132,34.89301,0.1025085,-24.09065,3.213684,0.4333242,0.5716891,0.0415175,1.210902,-0.2944878,-0.1132778,0.02613901,0.00123285,0.2423801,12.52315,31.15
5,-0.009719849,-0.2092285,0.9778137,0.994424,0.03410339,-0.2058716,0.9779816,-33.41371,-0.4704437,-22.84753,3.466232,0.5441018,0.5787461,0.9675606,-0.04954529,-0.2119293,0.9760132,34.89301,0.1025085,-24.09065,3.213684,0.4333242,0.5716891,0.0415175,1.210902,-0.2944878,-0.1132778,0.02613901,0.00123285,0.2423801,12.52315,31.15
5,-0.009460449,-0.2090759,0.9778442,0.9951273,0.03440857,-0.2063293,0.9778595,-33.41371,-0.4792786,-22.84734,3.464966,0.5440504,0.5791058,0.9550753,-0.0496521,-0.2112122,0.9761658,34.88832,0.08995056,-24.09155,3.198456,0.4334967,0.5719871,0.04155004,1.210921,-0.2944577,-0.1132878,0.02624484,0.000845728,0.2423801,12.52315,31.15
5,-0.009460449,-0.2090759,0.9778442,0.9951273,0.03440857,-0.2063293,0.9778595,-33.41371,-0.4792786,-22.84734,3.464966,0.5440504,0.5791058,0.9550753,-0.0496521,-0.2112122,0.9761658,34.88832,0.08995056,-24.09155,3.198456,0.4334967,0.5719871,0.04155004,1.210921,-0.2944577,-0.1132878,0.02624484,0.000845728,0.2423801,12.52315,31.15
5,-0.009643555,-0.2121124,0.9771881,0.9978026,0.03326416,-0.207489,0.9776611,-33.41501,-0.488327,-22.84607,3.431656,0.5442721,0.5795759,0.9619842,-0.04760742,-0.2158813,0.9752502,34.87781,0.08688354,-24.09422,3.182678,0.4334967,0.5729339,0.04164433,1.210927,-0.2944261,-0.11317,0.02630665,0.0009917039,0.2423801,12.52315,31.15
5,-0.009643555,-0.2121124,0.9771881,0.9978026,0.03326416,-0.207489,0.9776611,-33.41501,-0.488327,-22.84607,3.431656,0.5442721,0.5795759,0.9619842,-0.04760742,-0.2158813,0.9752502,34.87781,0.08688354,-24.09422,3.182678,0.4334967,0.5729339,0.04164433,1.210927,-0.2944261,-0.11317,0.02630665,0.0009917039,0.2423801,12.52315,31.15
5,-0.01005554,-0.2147827,0.9766083,1.0,0.03460693,-0.211853,0.9766846,-33.42746,-0.4947052,-22.82764,3.37088,0.5444415,0.5803543,1.0,-0.04785156,-0.2169189,0.9750061,34.86971,0.08357239,-24.09644,3.168259,0.4338039,0.5732443,0.04176033,1.210939,-0.2943046,-0.1130119,0.02644224,0.001078096,0.2423801,12.52315,31.15
5,-0.01005554,-0.2147827,0.9766083,1.0,0.03460693,-0.211853,0.9766846,-33.42746,-0.4947052,-22.82764,3.37088,0.5444415,0.5803543,1.0,-0.04785156,-0.2169189,0.9750061,34.86971,0.08357239,-24.09644,3.168259,0.4338039,0.5732443,0.04176033,1.210939,-0.2943046,-0.1130119,0.02644224,0.001078096,0.2423801,12.52315,31.15
5,-0.01016235,-0.2155151,0.9764404,1.0,0.03497314,-0.2162323,0.975708,-33.42941,-0.5096436,-22.82761,3.352707,0.5444441,0.5815853,1.0,-0.04785156,-0.2145844,0.9755249,34.86971,0.06809998,-24.09903,3.165466,0.4338039,0.5733746,0.04176164,1.210872,-0.2943105,-0.1129588,0.0266924,0.001078096,0.2423801,12.52315,31.15
5,-0.01016235,-0.2155151,0.9764404,1.0,0.03497314,-0.2162323,0.975708,-33.42941,-0.5096436,-22.82761,3.352707,0.5444441,0.5815853,1.0,-0.04785156,-0.2145844,0.9755249,34.86971,0.06809998,-24.09903,3.165466,0.4338039,0.5733746,0.04176164,1.210872,-0.2943105,-0.1129588,0.0266924,0.001078096,0.2423801,12.52315,31.15
5,-0.008605957,-0.2151184,0.976532,1.0,0.03633118,-0.2170258,0.9754791,-33.43112,-0.5233307,-22.82761,3.300629,0.5442721,0.582165,1.0,-0.04751587,-0.2131348,0.9758606,34.86812,0.0476532,-24.10008,3.133682,0.4338039,0.573801,0.04181814,1.21089,-0.2942353,-0.1127264,0.02688181,0.0009533996,0.2423801,12.52315,31.15
5,-0.008605957,-0.2151184,0.976532,1.0,0.03633118,-0.2170258,0.9754791,-33.43112,-0.5233307,-22.82761,3.300629,0.5442721,0.582165,1.0,-0.04751587,-0.2131348,0.9758606,34.86812,0.0476532,-24.10008,3.133682,0.4338039,0.573801,0.04181814,1.21089,-0.2942353,-0.1127264,0.02688181,0.0009533996,0.2423801,12.52315,31.15
5,-0.008651733,-0.2175446,0.9759979,1.0,0.03530884,-0.2164612,0.975647,-33.43141,-0.5384674,-22.82761,3.290207,0.5444441,0.5825489,1.0,-0.04734802,-0.2181396,0.974762,34.86786,0.03419495,-24.10172,3.131989,0.4337669,0.5751458,0.04184759,1.210794,-0.2942364,-0.1124863,0.02690121,0.0009533996,0.2423801,12.52315,31.15
5,-0.008651733,-0.2175446,0.9759979,1.0,0.03530884,-0.2164612,0.975647,-33.43141,-0.5384674,-22.82761,3.290207,0.5444441,0.5825489,1.0,-0.04734802,-0.2181396,0.974762,34.86786,0.03419495,-24.10172,3.131989,0.4337669,0.5751458,0.04184759,1.210794,-0.2942364,-0.1124863,0.02690121,0.0009533996,0.2423801,12.52315,31.15
5,-0.008300781,-0.2185364,0.9757843,1.0,0.03527832,-0.2160187,0.9757385,-33.43132,-0.5544128,-22.82756,3.287781,0.5444441,0.5829908,1.0,-0.04627991,-0.2203979,0.9743042,34.86812,0.0291748,-24.1028,3.127029,0.4335756,0.575718,0.04186726,1.210753,-0.294178,-0.1122743,0.02685159,0.001050089,0.2423801,12.52315,31.15
5,-0.008300781,-0.2185364,0.9757843,1.0,0.03527832,-0.2160187,0.9757385,-33.43132,-0.5544128,-22.82756,3.287781,0.5444441,0.5829908,1.0,-0.04627991,-0.2203979,0.9743042,34.86812,0.0291748,-24.1028,3.127029,0.4335756,0.575718,0.04186726,1.210753,-0.294178,-0.1122743,0.02685159,0.001050089,0.2423801,12.52315,31.15
5,-0.007644653,-0.2189789,0.9756927,0.9986988,0.03585815,-0.2168427,0.9755402,-33.43109,-0.5644226,-22.82605,3.279846,0.5443404,0.5834316,0.9615771,-0.04580688,-0.22052,0.9743042,34.87,0.02426147,-24.10289,3.137894,0.4334309,0.5759067,0.04188025,1.210783,-0.2941077,-0.1122135,0.02676209,0.0009765625,0.2423801,7.273697,31.15
5,-0.007644653,-0.2189789,0.9756927,0.9986988,0.03585815,-0.2168427,0.9755402,-33.43109,-0.5644226,-22.82605,3.279846,0.5443404,0.5834316,0.9615771,-0.04580688,-0.22052,0.9743042,34.87,0.02426147,-24.10289,3.137894,0.4334309,0.5759067,0.04188025,1.210783,-0.2941077,-0.1122135,0.02676209,0.0009765625,0.2423801,7.273697,31.15
5,-0.007675171,-0.2206879,0.9753113,0.9918327,0.03573608,-0.2185059,0.975174,-33.42818,-0.565979,-22.82483,3.229385,0.5442588,0.5837498,0.9669927,-0.04597473,-0.2222748,0.9738922,34.87216,0.02159119,-24.10289,3.150406,0.4333797,0.5763063,0.04191041,1.210727,-0.2941054,-0.1122681,0.02688403,0.0009376399,0.2423801,7.273697,31.15
5,-0.007553101,-0.2205811,0.9753265,0.9918327,0.0350647,-0.2183228,0.975235,-33.42734,-0.5669403,-22.8246,3.228516,0.5443404,0.5837498,0.9669927,-0.04548645,-0.2222443,0.9739227,34.87311,0.02128601,-24.1028,3.156693,0.4332679,0.5763063,0.04192865,1.210682,-0.2941027,-0.1121495,0.02691478,0.0008279212,0.2423801,7.273697,31.15
5,-0.007553101,-0.2205811,0.9753265,0.9918327,0.0350647,-0.2183228,0.975235,-33.42734,-0.5669403,-22.8246,3.228516,0.5443404,0.5837498,0.9669927,-0.04548645,-0.2222443,0.9739227,34.87311,0.02128601,-24.1028,3.156693,0.4332679,0.5763063,0.04192865,1.210682,-0.2941027,-0.1121495,0.02691478,0.0008279212,0.2423801,7.273697,31.15
5,-0.007827759,-0.2205505,0.9753418,1.0,0.03482056,-0.2182617,0.9752655,-33.42621,-0.5683289,-22.82091,3.2285,0.5443404,0.5837498,1.0,-0.0456543,-0.222229,0.9739227,34.87396,0.01979065,-24.10129,3.156616,0.4332679,0.5763369,0.04191864,1.210683,-0.2940879,-0.1121301,0.02696649,0.0008368719,0.2423801,7.273697,31.15
5,-0.007827759,-0.2205505,0.9753418,1.0,0.03482056,-0.2182617,0.9752655,-33.42621,-0.5683289,-22.82091,3.2285,0.5443404,0.5837498,1.0,-0.0456543,-0.222229,0.9739227,34.87396,0.01979065,-24.10129,3.156616,0.4332679,0.5763369,0.04191864,1.210683,-0.2940879,-0.1121301,0.02696649,0.0008368719,0.2423801,7.273697,31.15
5,-0.008102417,-0.2217712,0.9750519,1.0,0.03559875,-0.2197418,0.9748993,-33.42508,-0.5689087,-22.81821,3.207794,0.544176,0.5839971,1.0,-0.04679871,-0.2232208,0.9736328,34.87477,0.01945496,-24.09897,3.156815,0.433429,0.5765111,0.04190779,1.21067,-0.2940624,-0.1120607,0.02695378,0.0008544922,0.2423801,7.273697,31.15
5,-0.008148193,-0.2223816,0.9749146,1.0,0.03572083,-0.220108,0.9748077,-33.42459,-0.5700836,-22.81638,3.200989,0.5441368,0.58408,1.0,-0.04698181,-0.2240295,0.9734344,34.87549,0.01908875,-24.09872,3.180298,0.433429,0.5766715,0.04191947,1.210657,-0.2940359,-0.112004,0.02704209,0.0009533996,0.2423801,7.273697,31.15
5,-0.007904053,-0.2226563,0.9748535,1.0,0.03565979,-0.2201385,0.9748077,-33.42433,-0.5704651,-22.81465,3.193207,0.5441368,0.58408,1.0,-0.0473938,-0.2245636,0.9732971,34.87585,0.01908875,-24.09737,3.185501,0.4334835,0.5767538,0.04193699,1.210692,-0.2940018,-0.1119861,0.02695627,0.0009765626,0.2423801,7.273697,31.15
5,-0.007904053,-0.2226563,0.9748535,1.0,0.03565979,-0.2201385,0.9748077,-33.42433,-0.5704651,-22.81465,3.193207,0.5441368,0.58408,1.0,-0.0473938,-0.2245636,0.9732971,34.87585,0.01908875,-24.09737,3.185501,0.4334835,0.5767538,0.04193699,1.210692,-0.2940018,-0.1119861,0.02695627,0.0009765626,0.2423801,7.273697,31.15
5,-0.007492065,-0.2233429,0.9747009,1.0,0.03565979,-0.2206573,0.9746857,-33.4243,-0.5704956,-22.81454,3.193375,0.5441368,0.5841644,1.0,-0.04684448,-0.2254333,0.9731293,34.87621,0.01908875,-24.09706,3.185043,0.4333797,0.5769008,0.04191518,1.210672,-0.2940242,-0.1118652,0.02701176,0.001042969,0.2423801,7.273697,31.15
5,-0.008468628,-0.223526,0.9746552,1.0,0.03549194,-0.2201996,0.9747925,-33.42326,-0.5709839,-22.81158,3.200928,0.5441288,0.58408,1.0,-0.04750061,-0.22612,0.9729309,34.87633,0.01908875,-24.09654,3.185272,0.4334835,0.5770267,0.04188812,1.210656,-0.2940207,-0.1118961,0.02691809,0.0009611826,0.2423801,7.273697,31.15
5,-0.00869751,-0.2243652,0.9744568,1.0,0.03552246,-0.2205505,0.9747162,-33.42278,-0.5723724,-22.81003,3.193237,0.5441051,0.5841644,1.0,-0.04785156,-0.2273865,0.9726257,34.87808,0.01908875,-24.09596,3.171448,0.4334835,0.5772481,0.04188144,1.21069,-0.293998,-0.1117993,0.02691062,0.001202253,0.2423801,-18.76273,31.15
5,-0.00869751,-0.2243652,0.9744568,1.0,0.03552246,-0.2205505,0.9747162,-33.42278,-0.5723724,-22.81003,3.193237,0.5441051,0.5841644,1.0,-0.04785156,-0.2273865,0.9726257,34.87808,0.01908875,-24.09596,3.171448,0.4334835,0.5772481,0.04188144,1.21069,-0.293998,-0.1117993,0.02691062,0.001202253,0.2423801,-18.76273,31.15
5,-0.008789063,-0.2256317,0.9741669,1.0,0.03546143,-0.2230225,0.9741516,-33.42245,-0.5753021,-22.80833,3.193253,0.5441051,0.5846789,1.0,-0.04797363,-0.2275696,0.9725647,34.87868,0.01959229,-24.09424,3.171692,0.4334835,0.5772481,0.04189897,1.210659,-0.2939818,-0.1117981,0.02684853,0.001274451,0.2423801,-18.76273,31.15
5,-0.008789063,-0.2256317,0.9741669,1.0,0.03546143,-0.2230225,0.9741516,-33.42245,-0.5753021,-22.80833,3.193253,0.5441051,0.5846789,1.0,-0.04797363,-0.2275696,0.9725647,34.87868,0.01959229,-24.09424,3.171692,0.4334835,0.5772481,0.04189897,1.210659,-0.2939818,-0.1117981,0.02684853,0.001274451,0.2423801,-18.76273,31.15
5,-0.008834839,-0.2259064,0.9740906,1.0,0.03530884,-0.223465,0.9740601,-33.42245,-0.5753479,-22.80618,3.193436,0.5441288,0.5847381,1.0,-0.04798889,-0.2277069,0.9725342,34.87872,0.01982117,-24.09267,3.174545,0.4334835,0.5772481,0.04183078,1.210659,-0.2940198,-0.1116659,0.02673256,0.001348311,0.2423801,-18.76273,31.15
5,-0.006988525,-0.2267151,0.9739227,1.0,0.03790283,-0.2240601,0.9738312,-33.42245,-0.5759277,-22.80392,3.190979,0.5437086,0.5848377,1.0,-0.0460968,-0.2286377,0.9724121,34.87883,0.01992798,-24.09129,3.167099,0.4331656,0.5773948,0.04180324,1.210667,-0.2940028,-0.1117646,0.02666419,0.001375663,0.2423801,-18.76273,31.15
5,-0.006988525,-0.2267151,0.9739227,1.0,0.03790283,-0.2240601,0.9738312,-33.42245,-0.5759277,-22.80392,3.190979,0.5437086,0.5848377,1.0,-0.0460968,-0.2286377,0.9724121,34.87883,0.01992798,-24.09129,3.167099,0.4331656,0.5773948,0.04180324,1.210667,-0.2940028,-0.1117646,0.02666419,0.001375663,0.2423801,-18.76273,31.15
5,-0.006149292,-0.2264862,0.9739838,1.0,0.03796387,-0.2243042,0.9737701,-33.42278,-0.5769653,-22.80232,3.191193,0.5437086,0.5848981,1.0,-0.04550171,-0.2280579,0.97258,34.87872,0.02044678,-24.09012,3.149536,0.4330754,0.5772481,0.04180586,1.210594,-0.2939702,-0.1117144,0.02646478,0.001454636,0.2423801,-18.76273,31.15
5,-0.006149292,-0.2263641,0.9740143,1.0,0.03794861,-0.223999,0.9738464,-33.42278,-0.5772705,-22.80058,3.191116,0.5437086,0.5848377,1.0,-0.04545593,-0.2281036,0.9725647,34.87883,0.02070618,-24.08958,3.149628,0.4330636,0.5772481,0.04179752,1.210588,-0.2939606,-0.1116921,0.02651821,0.001423572,0.2423801,-18.76273,31.15
5,-0.006759644,-0.2267761,0.9739227,1.0,0.03671265,-0.2245026,0.9737701,-33.42311,-0.5786438,-22.79781,3.1922,0.5439198,0.5849462,1.0,-0.04545593,-0.2284241,0.9724884,34.87868,0.02101135,-24.08627,3.111221,0.4330754,0.5772481,0.04182827,1.210605,-0.2939579,-0.1116636,0.02645351,0.001474981,0.2423801,-18.76273,31.15
5,-0.006759644,-0.2267761,0.9739227,1.0,0.03671265,-0.2245026,0.9737701,-33.42311,-0.5786438,-22.79781,3.1922,0.5439198,0.5849462,1.0,-0.04545593,-0.2284241,0.9724884,34.87868,0.02101135,-24.08627,3.111221,0.4330754,0.5772481,0.04182827,1.210605,-0.2939579,-0.1116636,0.02645351,0.001474981,0.2423801,-18.76273,31.15
5,-0.006225586,-0.2270203,0.9738617,0.9959419,0.03692627,-0.2250061,0.9736481,-33.42435,-0.5800476,-22.79546,3.162582,0.5439198,0.5850459,0.9724716,-0.04541016,-0.2285004,0.9724731,34.87866,0.02198792,-24.08533,3.14035,0.4330636,0.577237,0.04187632,1.210603,-0.2939129,-0.111476,0.02651849,0.001214584,0.2423801,-18.76273,31.15
5,-0.00604248,-0.2270966,0.9738464,1.0,0.03704834,-0.2250061,0.9736481,-33.42496,-0.5801849,-22.79533,3.162689,0.5439198,0.5850459,1.0,-0.04541016,-0.228653,0.9724426,34.87868,0.02261353,-24.08492,3.140533,0.4330636,0.577237,0.04188359,1.210557,-0.2938969,-0.111275,0.02659929,0.00105716,0.2423801,-18.76273,31.15
5,0.002624512,-0.2350311,0.9719696,0.9999672,0.05169678,-0.2456665,0.9679718,-33.49104,-0.4872742,-22.71368,3.179047,0.5436695,0.5849267,0.9607635,-0.03997803,-0.2253113,0.9734497,34.87442,0.03704834,-24.08475,3.149963,0.4323138,0.5761454,0.04187238,1.210546,-0.2938535,-0.1110877,0.02673869,0.001006618,0.2423801,-18.76273,31.15
5,0.002624512,-0.2350311,0.9719696,0.9999672,0.05169678,-0.2456665,0.9679718,-33.49104,-0.4872742,-22.71368,3.179047,0.5436695,0.5849267,0.9607635,-0.03997803,-0.2253113,0.9734497,34.87442,0.03704834,-24.08475,3.149963,0.4323138,0.5761454,0.04187238,1.210546,-0.2938535,-0.1110877,0.02673869,0.001006618,0.2423801,-18.76273,31.15
5,-0.007965088,-0.2252045,0.9742737,0.9882631,0.04023743,-0.2036285,0.9782104,-33.44292,-0.555603,-22.83682,3.348267,0.5440271,0.5809849,0.9335027,-0.04981995,-0.2434235,0.9686279,34.86934,0.06556702,-24.07083,3.071548,0.4341036,0.5783293,0.04186261,1.210463,-0.2938067,-0.110774,0.02689622,0.001202253,0.2423801,-18.76273,31.15
