Second,eye_comb_direction_x,eye_comb_direction_y,eye_comb_direction_z,eye_r_openness,eye_r_direction_x,eye_r_direction_y,eye_r_direction_z,eye_r_origin_x,eye_r_origin_y,eye_r_origin_z,eye_r_pupil_diameter,eye_r_pupil_position_x,eye_r_pupil_position_y,eye_l_openness,eye_l_direction_x,eye_l_direction_y,eye_l_direction_z,eye_l_origin_x,eye_l_origin_y,eye_l_origin_z,eye_l_pupil_diameter,eye_l_pupil_position_x,eye_l_pupil_position_y,head_position_x,head_position_y,head_position_z,head_rotation_roll,head_rotation_pitch,head_rotation_yaw,EDA,BVP,TMP
0,0.0,0.0,0.0,0.0,0.0,0.0,0.0,0.0,0.0,0.0,0.0,0.0,0.0,0.0,0.0,0.0,0.0,0.0,0.0,0.0,0.0,0.0,0.0,0.0,0.0,0.0,0.0,0.0,0.0,0.6058780854211924,0.02952636765628772,30.340562394400195
0,0.2812653,-0.1299591,0.9507751,1.0,0.306076,-0.1365967,0.9421539,-31.41139,0.2054749,-23.66124,4.006409,0.4354375,0.5542154,1.0,0.2539368,-0.1226044,0.9594116,36.56625,0.4412537,-24.35735,3.944839,0.3270614,0.5483297,0.04048824,1.213658,-0.3057344,-0.1161128,0.03631915,-0.009146318,0.6058780854211924,0.02952636765628772,30.340562394400195
1,0.2796021,-0.1293793,0.9513397,1.0,0.3060303,-0.135498,0.9423218,-31.4102,0.2057495,-23.66225,3.970123,0.4353744,0.5540155,1.0,0.2531586,-0.1232147,0.9595337,36.56819,0.4403076,-24.35837,3.925232,0.3271174,0.5484626,0.04037774,1.213726,-0.3057241,-0.1162161,0.0356955,-0.008932012,0.5408584,0.02952636765628772,30.340562394400195
1,0.2796021,-0.1293793,0.9513397,1.0,0.3060303,-0.135498,0.9423218,-31.4102,0.2057495,-23.66225,3.970123,0.4353744,0.5540155,1.0,0.2531586,-0.1232147,0.9595337,36.56819,0.4403076,-24.35837,3.925232,0.3271174,0.5484626,0.04037774,1.213726,-0.3057241,-0.1162161,0.0356955,-0.008932012,0.5408584,0.02952636765628772,30.340562394400195
1,0.2796021,-0.1293793,0.9513397,1.0,0.3060303,-0.135498,0.9423218,-31.4102,0.2057495,-23.66225,3.970123,0.4353744,0.5540155,1.0,0.2531586,-0.1232147,0.9595337,36.56819,0.4403076,-24.35837,3.925232,0.3271174,0.5484626,0.04037774,1.213726,-0.3057241,-0.1162161,0.0356955,-0.008932012,0.5408584,0.02952636765628772,30.340562394400195
1,0.2796021,-0.1293793,0.9513397,1.0,0.3060303,-0.135498,0.9423218,-31.4102,0.2057495,-23.66225,3.970123,0.4353744,0.5540155,1.0,0.2531586,-0.1232147,0.9595337,36.56819,0.4403076,-24.35837,3.925232,0.3271174,0.5484626,0.04037774,1.213726,-0.3057241,-0.1162161,0.0356955,-0.008932012,0.5408584,0.02952636765628772,30.340562394400195
1,0.2796021,-0.1293793,0.9513397,1.0,0.3060303,-0.135498,0.9423218,-31.4102,0.2057495,-23.66225,3.970123,0.4353744,0.5540155,1.0,0.2531586,-0.1232147,0.9595337,36.56819,0.4403076,-24.35837,3.925232,0.3271174,0.5484626,0.04037774,1.213726,-0.3057241,-0.1162161,0.0356955,-0.008932012,0.5408584,0.02952636765628772,30.340562394400195
1,0.2796021,-0.1293793,0.9513397,1.0,0.3060303,-0.135498,0.9423218,-31.4102,0.2057495,-23.66225,3.970123,0.4353744,0.5540155,1.0,0.2531586,-0.1232147,0.9595337,36.56819,0.4403076,-24.35837,3.925232,0.3271174,0.5484626,0.04037774,1.213726,-0.3057241,-0.1162161,0.0356955,-0.008932012,0.5408584,0.02952636765628772,30.340562394400195
1,0.2796021,-0.1293793,0.9513397,1.0,0.3060303,-0.135498,0.9423218,-31.4102,0.2057495,-23.66225,3.970123,0.4353744,0.5540155,1.0,0.2531586,-0.1232147,0.9595337,36.56819,0.4403076,-24.35837,3.925232,0.3271174,0.5484626,0.04037774,1.213726,-0.3057241,-0.1162161,0.0356955,-0.008932012,0.5408584,0.02952636765628772,30.340562394400195
1,0.2796021,-0.1293793,0.9513397,1.0,0.3060303,-0.135498,0.9423218,-31.4102,0.2057495,-23.66225,3.970123,0.4353744,0.5540155,1.0,0.2531586,-0.1232147,0.9595337,36.56819,0.4403076,-24.35837,3.925232,0.3271174,0.5484626,0.04037774,1.213726,-0.3057241,-0.1162161,0.0356955,-0.008932012,0.5408584,0.02952636765628772,30.340562394400195
1,0.2796021,-0.1293793,0.9513397,1.0,0.3060303,-0.135498,0.9423218,-31.4102,0.2057495,-23.66225,3.970123,0.4353744,0.5540155,1.0,0.2531586,-0.1232147,0.9595337,36.56819,0.4403076,-24.35837,3.925232,0.3271174,0.5484626,0.04037774,1.213726,-0.3057241,-0.1162161,0.0356955,-0.008932012,0.5408584,0.02952636765628772,30.340562394400195
1,0.02072144,-0.111969,0.9934845,1.0,0.04263306,-0.1078949,0.9932404,-33.53091,-0.1798859,-22.68721,3.709961,0.5464469,0.5514493,1.0,-0.05383301,-0.1253967,0.9906311,34.69197,0.6756592,-24.49507,3.49115,0.4409038,0.5415467,0.04027045,1.212703,-0.3045077,-0.1109476,0.03582883,-0.008751684,0.5408584,0.02952636765628772,30.340562394400195
1,0.02072144,-0.111969,0.9934845,1.0,0.04263306,-0.1078949,0.9932404,-33.53091,-0.1798859,-22.68721,3.709961,0.5464469,0.5514493,1.0,-0.05383301,-0.1253967,0.9906311,34.69197,0.6756592,-24.49507,3.49115,0.4409038,0.5415467,0.04027045,1.212703,-0.3045077,-0.1109476,0.03582883,-0.008751684,0.5408584,0.02952636765628772,30.340562394400195
1,0.02072144,-0.111969,0.9934845,1.0,0.04263306,-0.1078949,0.9932404,-33.53091,-0.1798859,-22.68721,3.709961,0.5464469,0.5514493,1.0,-0.05383301,-0.1253967,0.9906311,34.69197,0.6756592,-24.49507,3.49115,0.4409038,0.5415467,0.04027045,1.212703,-0.3045077,-0.1109476,0.03582883,-0.008751684,0.5408584,0.02952636765628772,30.340562394400195
1,0.02072144,-0.111969,0.9934845,1.0,0.04263306,-0.1078949,0.9932404,-33.53091,-0.1798859,-22.68721,3.709961,0.5464469,0.5514493,1.0,-0.05383301,-0.1253967,0.9906311,34.69197,0.6756592,-24.49507,3.49115,0.4409038,0.5415467,0.04027045,1.212703,-0.3045077,-0.1109476,0.03582883,-0.008751684,0.5408584,0.02952636765628772,30.340562394400195
1,0.02072144,-0.111969,0.9934845,1.0,0.04263306,-0.1078949,0.9932404,-33.53091,-0.1798859,-22.68721,3.709961,0.5464469,0.5514493,1.0,-0.05383301,-0.1253967,0.9906311,34.69197,0.6756592,-24.49507,3.49115,0.4409038,0.5415467,0.04027045,1.212703,-0.3045077,-0.1109476,0.03582883,-0.008751684,0.5408584,0.02952636765628772,30.340562394400195
1,0.02072144,-0.111969,0.9934845,1.0,0.04263306,-0.1078949,0.9932404,-33.53091,-0.1798859,-22.68721,3.709961,0.5464469,0.5514493,1.0,-0.05383301,-0.1253967,0.9906311,34.69197,0.6756592,-24.49507,3.49115,0.4409038,0.5415467,0.04027045,1.212703,-0.3045077,-0.1109476,0.03582883,-0.008751684,0.5408584,0.02952636765628772,30.340562394400195
1,0.02072144,-0.111969,0.9934845,1.0,0.04263306,-0.1078949,0.9932404,-33.53091,-0.1798859,-22.68721,3.709961,0.5464469,0.5514493,1.0,-0.05383301,-0.1253967,0.9906311,34.69197,0.6756592,-24.49507,3.49115,0.4409038,0.5415467,0.04027045,1.212703,-0.3045077,-0.1109476,0.03582883,-0.008751684,0.5408584,0.02952636765628772,30.340562394400195
1,-0.009857178,-0.1161194,0.9931793,1.0,0.04031372,-0.1052246,0.9936218,-33.5226,-0.1603088,-22.74925,3.733932,0.5465885,0.5509434,1.0,-0.05419922,-0.1255035,0.9906006,34.68842,0.6667633,-24.46216,3.532578,0.4410835,0.5415735,0.04045713,1.212709,-0.3045857,-0.1112748,0.03579201,-0.008835563,0.5408584,0.02952636765628772,30.340562394400195
1,-0.009857178,-0.1161194,0.9931793,1.0,0.04031372,-0.1052246,0.9936218,-33.5226,-0.1603088,-22.74925,3.733932,0.5465885,0.5509434,1.0,-0.05419922,-0.1255035,0.9906006,34.68842,0.6667633,-24.46216,3.532578,0.4410835,0.5415735,0.04045713,1.212709,-0.3045857,-0.1112748,0.03579201,-0.008835563,0.5408584,0.02952636765628772,30.340562394400195
1,-0.01100159,-0.1173401,0.9930267,1.0,0.03977966,-0.1058655,0.993576,-33.52248,-0.1568604,-22.75595,3.741669,0.5466759,0.5509998,1.0,-0.05366516,-0.1267242,0.9904785,34.68159,0.6780853,-24.479,3.549728,0.4412129,0.5415735,0.04049397,1.212671,-0.3045454,-0.1111746,0.03600329,-0.008974452,0.5408584,0.02952636765628772,30.340562394400195
1,-0.008178711,-0.1165924,0.9931335,1.0,0.03942871,-0.1051331,0.9936676,-33.52248,-0.1566467,-22.76175,3.741287,0.5467339,0.550935,1.0,-0.05325317,-0.1271667,0.990448,34.67931,0.6868744,-24.50272,3.563919,0.4412129,0.5415862,0.04052639,1.212693,-0.3045039,-0.111026,0.03605458,-0.009116127,0.5408584,0.02952636765628772,30.340562394400195
1,-0.008178711,-0.1165924,0.9931335,1.0,0.03942871,-0.1051331,0.9936676,-33.52248,-0.1566467,-22.76175,3.741287,0.5467339,0.550935,1.0,-0.05325317,-0.1271667,0.990448,34.67931,0.6868744,-24.50272,3.563919,0.4412129,0.5415862,0.04052639,1.212693,-0.3045039,-0.111026,0.03605458,-0.009116127,0.5408584,0.02952636765628772,30.340562394400195
1,-0.0050354,-0.1153564,0.9933014,1.0,0.03952026,-0.1041718,0.9937592,-33.52248,-0.1552887,-22.78712,3.74382,0.5467339,0.5509587,1.0,-0.05274963,-0.1270599,0.9904785,34.67577,0.6868744,-24.51344,3.585266,0.4412419,0.5416718,0.04053843,1.212684,-0.3044931,-0.1108281,0.03615322,-0.008997667,0.5408584,0.02952636765628772,30.340562394400195
1,-0.004959106,-0.1158905,0.9932404,1.0,0.03904724,-0.1059418,0.9935913,-33.52237,-0.1524506,-22.79915,3.751709,0.5468147,0.5512683,1.0,-0.05213928,-0.126297,0.9906158,34.6709,0.6868744,-24.5287,3.623962,0.4412913,0.5417033,0.04056907,1.21267,-0.3044798,-0.1107558,0.03623905,-0.009013386,0.5408584,0.02952636765628772,30.340562394400195
1,-0.004959106,-0.1158905,0.9932404,1.0,0.03904724,-0.1059418,0.9935913,-33.52237,-0.1524506,-22.79915,3.751709,0.5468147,0.5512683,1.0,-0.05213928,-0.126297,0.9906158,34.6709,0.6868744,-24.5287,3.623962,0.4412913,0.5417033,0.04056907,1.21267,-0.3044798,-0.1107558,0.03623905,-0.009013386,0.5408584,0.02952636765628772,30.340562394400195
1,-0.005508423,-0.1173706,0.9930573,1.0,0.03991699,-0.1062622,0.9935303,-33.52216,-0.1508789,-22.80339,3.779037,0.5466759,0.5513313,1.0,-0.05181885,-0.1284332,0.9903564,34.66908,0.6868744,-24.5287,3.647781,0.4412913,0.5420851,0.04058087,1.212626,-0.3044789,-0.1106183,0.03638126,-0.008972791,0.5408584,0.02952636765628772,30.340562394400195
1,-0.007751465,-0.1166687,0.9931335,1.0,0.03933716,-0.1037445,0.9938202,-33.51657,-0.1521759,-22.80339,3.784409,0.5465885,0.5509587,1.0,-0.05267334,-0.1287537,0.9902649,34.66908,0.6833344,-24.5287,3.686325,0.4414237,0.5422723,0.04059088,1.212629,-0.3045084,-0.1105622,0.03648453,-0.009024953,0.5408584,0.02952636765628772,30.340562394400195
1,-0.007553101,-0.1177063,0.9930115,1.0,0.03825378,-0.1055298,0.9936676,-33.51045,-0.1524506,-22.80339,3.802597,0.5465659,0.5512683,1.0,-0.05281067,-0.1294861,0.9901581,34.66908,0.6821136,-24.5287,3.720551,0.4414391,0.5424508,0.04063678,1.212559,-0.304491,-0.1105064,0.03653657,-0.009025778,0.5408584,0.02952636765628772,30.340562394400195
1,-0.007553101,-0.1177063,0.9930115,1.0,0.03825378,-0.1055298,0.9936676,-33.51045,-0.1524506,-22.80339,3.802597,0.5465659,0.5512683,1.0,-0.05281067,-0.1294861,0.9901581,34.66908,0.6821136,-24.5287,3.720551,0.4414391,0.5424508,0.04063678,1.212559,-0.304491,-0.1105064,0.03653657,-0.009025778,0.5408584,0.02952636765628772,30.340562394400195
1,-0.007827759,-0.1157837,0.9932404,1.0,0.03756714,-0.1030884,0.9939575,-33.50519,-0.1540985,-22.80028,3.812454,0.5465069,0.5508902,1.0,-0.05270386,-0.1280823,0.9903564,34.66908,0.6790009,-24.52322,3.741592,0.4414237,0.5422723,0.04067099,1.212567,-0.30451,-0.1103789,0.03648187,-0.00898275,0.5408584,0.02952636765628772,30.340562394400195
1,-0.006988525,-0.1166077,0.9931488,1.0,0.03778076,-0.1040497,0.9938507,-33.50343,-0.1543884,-22.78041,3.836533,0.5464071,0.5508902,1.0,-0.05259705,-0.1291351,0.9902191,34.67232,0.6772919,-24.4973,3.744995,0.441303,0.5422723,0.04068232,1.212537,-0.3044894,-0.1102461,0.03648841,-0.008992698,0.5408584,0.02952636765628772,30.340562394400195
1,-0.006988525,-0.1166077,0.9931488,1.0,0.03778076,-0.1040497,0.9938507,-33.50343,-0.1543884,-22.78041,3.836533,0.5464071,0.5508902,1.0,-0.05259705,-0.1291351,0.9902191,34.67232,0.6772919,-24.4973,3.744995,0.441303,0.5422723,0.04068232,1.212537,-0.3044894,-0.1102461,0.03648841,-0.008992698,0.5408584,0.02952636765628772,30.340562394400195
1,-0.003479004,-0.1161041,0.9932251,1.0,0.04077148,-0.1027527,0.993866,-33.50023,-0.1550446,-22.76768,3.847946,0.5458192,0.5505905,1.0,-0.05104065,-0.1301727,0.9901733,34.67543,0.675354,-24.47139,3.748123,0.4409449,0.5422688,0.04068553,1.212525,-0.3044741,-0.1101407,0.03645184,-0.009034852,0.5408584,0.02952636765628772,30.340562394400195
1,-0.003479004,-0.1161041,0.9932251,1.0,0.04077148,-0.1027527,0.993866,-33.50023,-0.1550446,-22.76768,3.847946,0.5458192,0.5505905,1.0,-0.05104065,-0.1301727,0.9901733,34.67543,0.675354,-24.47139,3.748123,0.4409449,0.5422688,0.04068553,1.212525,-0.3044741,-0.1101407,0.03645184,-0.009034852,0.5408584,0.02952636765628772,30.340562394400195
1,-0.000289917,-0.1148071,0.9933777,1.0,0.04075623,-0.1021423,0.993927,-33.4978,-0.1554871,-22.75821,3.866257,0.5457408,0.5504173,1.0,-0.05213928,-0.1305084,0.9900665,34.68137,0.6651001,-24.42406,3.767502,0.4409365,0.5422361,0.04065371,1.21255,-0.3044097,-0.1100012,0.03643528,-0.008976111,0.5408584,-7.969154,30.340562394400195
1,0.006561279,-0.1127777,0.9935913,1.0,0.04095459,-0.1022797,0.9938965,-33.496,-0.1565094,-22.75026,3.873718,0.5456498,0.5504118,1.0,-0.05326843,-0.1306915,0.9899902,34.68875,0.6476898,-24.3605,3.802429,0.4408873,0.5422688,0.04065764,1.212552,-0.3043873,-0.1098843,0.03643958,-0.009011733,0.5408584,-7.969154,30.340562394400195
1,0.0146637,-0.1107483,0.9937286,1.0,0.04161072,-0.1024475,0.993866,-33.493,-0.1573029,-22.74432,3.881638,0.5454443,0.5504118,1.0,-0.05249023,-0.131073,0.989975,34.69527,0.6306763,-24.29483,3.826782,0.4405527,0.542297,0.04060328,1.212522,-0.304335,-0.1099238,0.03636446,-0.009007598,0.5408584,-7.969154,30.340562394400195
1,0.0146637,-0.1107483,0.9937286,1.0,0.04161072,-0.1024475,0.993866,-33.493,-0.1573029,-22.74432,3.881638,0.5454443,0.5504118,1.0,-0.05249023,-0.131073,0.989975,34.69527,0.6306763,-24.29483,3.826782,0.4405527,0.542297,0.04060328,1.212522,-0.304335,-0.1099238,0.03636446,-0.009007598,0.5408584,-7.969154,30.340562394400195
1,0.01809692,-0.1100769,0.9937439,1.0,0.04214478,-0.1027374,0.9938049,-33.492,-0.1573029,-22.73863,3.886246,0.5453253,0.5504118,1.0,-0.05227661,-0.131134,0.989975,34.69563,0.6221466,-24.26274,3.828323,0.4405132,0.542297,0.04061961,1.212489,-0.304319,-0.1098845,0.03636241,-0.008939515,0.5408584,-7.969154,30.340562394400195
1,0.0191803,-0.1099548,0.9937439,1.0,0.04194641,-0.1028137,0.9938049,-33.4911,-0.1578522,-22.73466,3.886246,0.5453253,0.5504118,1.0,-0.05184937,-0.1317749,0.9899139,34.69591,0.6217957,-24.25026,3.835831,0.4404332,0.542297,0.04060423,1.212486,-0.3043144,-0.1098736,0.03645634,-0.008960327,0.5408584,-7.969154,30.340562394400195
1,0.0191803,-0.1099548,0.9937439,1.0,0.04194641,-0.1028137,0.9938049,-33.4911,-0.1578522,-22.73466,3.886246,0.5453253,0.5504118,1.0,-0.05184937,-0.1317749,0.9899139,34.69591,0.6217957,-24.25026,3.835831,0.4404332,0.542297,0.04060423,1.212486,-0.3043144,-0.1098736,0.03645634,-0.008960327,0.5408584,-7.969154,30.340562394400195
1,0.007980347,-0.1125488,0.9936066,1.0,0.04133606,-0.1002045,0.9940948,-33.48973,-0.1599121,-22.73216,3.886871,0.5453763,0.5500134,1.0,-0.05110168,-0.134079,0.9896393,34.69765,0.6195068,-24.22658,3.846237,0.4402531,0.5425463,0.04058397,1.212477,-0.3043385,-0.1098963,0.0363706,-0.00892283,0.5408584,-7.969154,30.340562394400195
1,0.004302979,-0.1140747,0.993454,1.0,0.04130554,-0.1001587,0.9941101,-33.48952,-0.1599121,-22.73216,3.891876,0.5453763,0.5500134,1.0,-0.05039978,-0.1343079,0.9896545,34.69835,0.618454,-24.21857,3.84639,0.4401166,0.5425463,0.04057562,1.212472,-0.3043387,-0.1099416,0.03644959,-0.009027429,0.5408584,-7.969154,30.340562394400195
1,0.004302979,-0.1140747,0.993454,1.0,0.04130554,-0.1001587,0.9941101,-33.48952,-0.1599121,-22.73216,3.891876,0.5453763,0.5500134,1.0,-0.05039978,-0.1343079,0.9896545,34.69835,0.618454,-24.21857,3.84639,0.4401166,0.5425463,0.04057562,1.212472,-0.3043387,-0.1099416,0.03644959,-0.009027429,0.5408584,-7.969154,30.340562394400195
1,-0.0001983643,-0.1163788,0.9931946,1.0,0.04107666,-0.1012573,0.9940033,-33.48862,-0.1614227,-22.71852,3.89212,0.5453763,0.5501205,1.0,-0.05082703,-0.1345978,0.9895935,34.70108,0.6102905,-24.18813,3.867081,0.4400995,0.5425957,0.04054213,1.212427,-0.3043919,-0.1100333,0.0364594,-0.009093214,0.5408584,-7.969154,30.340562394400195
1,-0.0001983643,-0.1168365,0.9931488,1.0,0.04039001,-0.1021576,0.9939423,-33.48361,-0.1618805,-22.71564,3.908417,0.5453253,0.5502586,1.0,-0.05081177,-0.1348267,0.989563,34.70587,0.6064911,-24.17082,3.869888,0.4399408,0.5425957,0.04047155,1.212418,-0.3044862,-0.1099038,0.03655614,-0.009022474,0.5408584,-7.969154,30.340562394400195
1,-0.0001983643,-0.1168365,0.9931488,1.0,0.04039001,-0.1021576,0.9939423,-33.48361,-0.1618805,-22.71564,3.908417,0.5453253,0.5502586,1.0,-0.05081177,-0.1348267,0.989563,34.70587,0.6064911,-24.17082,3.869888,0.4399408,0.5425957,0.04047155,1.212418,-0.3044862,-0.1099038,0.03655614,-0.009022474,0.5408584,-7.969154,30.340562394400195
2,0.00163269,-0.1162262,0.9932098,1.0,0.03959656,-0.1032867,0.9938507,-33.47751,-0.1658173,-22.71564,3.939896,0.5452608,0.5505821,1.0,-0.04940796,-0.1333618,0.9898224,34.71544,0.5888824,-24.14488,3.892181,0.4393943,0.5426943,0.04045761,1.212431,-0.3045344,-0.1097694,0.03653167,-0.008692743,0.5408584,-7.969154,30.340562394400195
2,0.00163269,-0.1162262,0.9932098,1.0,0.03959656,-0.1032867,0.9938507,-33.47751,-0.1658173,-22.71564,3.939896,0.5452608,0.5505821,1.0,-0.04940796,-0.1333618,0.9898224,34.71544,0.5888824,-24.14488,3.892181,0.4393943,0.5426943,0.04045761,1.212431,-0.3045344,-0.1097694,0.03653167,-0.008692743,0.5408584,-7.969154,30.340562394400195
2,0.001098633,-0.117981,0.9930115,1.0,0.04020691,-0.1042023,0.9937286,-33.4715,-0.1672516,-22.71564,3.939789,0.5449677,0.5507835,1.0,-0.04814148,-0.1350403,0.9896545,34.7233,0.5882568,-24.14488,3.909164,0.4389207,0.5430042,0.04047215,1.212474,-0.3046393,-0.1098435,0.0364406,-0.008720128,0.5408584,-41.99075,30.340562394400195
2,0.001098633,-0.117981,0.9930115,1.0,0.04020691,-0.1042023,0.9937286,-33.4715,-0.1672516,-22.71564,3.939789,0.5449677,0.5507835,1.0,-0.04814148,-0.1350403,0.9896545,34.7233,0.5882568,-24.14488,3.909164,0.4389207,0.5430042,0.04047215,1.212474,-0.3046393,-0.1098435,0.0364406,-0.008720128,0.5408584,-41.99075,30.340562394400195
2,0.0003356934,-0.1197662,0.9927979,1.0,0.03997803,-0.1045532,0.9937134,-33.46741,-0.1672516,-22.71564,3.939346,0.5448748,0.5508448,1.0,-0.04786682,-0.1380005,0.9892731,34.72771,0.5882568,-24.14488,3.890991,0.4387241,0.5435019,0.04049921,1.21252,-0.3047116,-0.1099097,0.03647717,-0.008671289,0.5408584,-41.99075,30.340562394400195
2,0.0003356934,-0.1197662,0.9927979,1.0,0.03997803,-0.1045532,0.9937134,-33.46741,-0.1672516,-22.71564,3.939346,0.5448748,0.5508448,1.0,-0.04786682,-0.1380005,0.9892731,34.72771,0.5882568,-24.14488,3.890991,0.4387241,0.5435019,0.04049921,1.21252,-0.3047116,-0.1099097,0.03647717,-0.008671289,0.5408584,-41.99075,30.340562394400195
2,0.0003356934,-0.1197662,0.9927979,1.0,0.03997803,-0.1045532,0.9937134,-33.46741,-0.1672516,-22.71564,3.939346,0.5448748,0.5508448,1.0,-0.04786682,-0.1380005,0.9892731,34.72771,0.5882568,-24.14488,3.890991,0.4387241,0.5435019,0.04046297,1.212503,-0.304849,-0.1102285,0.03638433,-0.008685026,0.5408584,-41.99075,30.340562394400195
2,0.0003356934,-0.1197662,0.9927979,1.0,0.03997803,-0.1045532,0.9937134,-33.46741,-0.1672516,-22.71564,3.939346,0.5448748,0.5508448,1.0,-0.04786682,-0.1380005,0.9892731,34.72771,0.5882568,-24.14488,3.890991,0.4387241,0.5435019,0.04046297,1.212503,-0.304849,-0.1102285,0.03638433,-0.008685026,0.5408584,-41.99075,30.340562394400195
2,0.0003356934,-0.1197662,0.9927979,1.0,0.03997803,-0.1045532,0.9937134,-33.46741,-0.1672516,-22.71564,3.939346,0.5448748,0.5508448,1.0,-0.04786682,-0.1380005,0.9892731,34.72771,0.5882568,-24.14488,3.890991,0.4387241,0.5435019,0.04045784,1.212568,-0.3048412,-0.110413,0.03637736,-0.00868331,0.5408584,-41.99075,30.340562394400195
2,0.0003356934,-0.1197662,0.9927979,1.0,0.03997803,-0.1045532,0.9937134,-33.46741,-0.1672516,-22.71564,3.939346,0.5448748,0.5508448,1.0,-0.04786682,-0.1380005,0.9892731,34.72771,0.5882568,-24.14488,3.890991,0.4387241,0.5435019,0.04045784,1.212568,-0.3048412,-0.110413,0.03637736,-0.00868331,0.5408584,-41.99075,30.340562394400195
2,-1.0,-1.0,-1.0,0.8691086,0.0,0.0,0.0,-33.52046,0.03494263,-22.82852,-1.0,0.5482793,0.5710946,0.6830282,0.0,0.0,0.0,34.85097,-0.3269958,-24.51126,-1.0,0.4554051,0.643038,0.04039574,1.212645,-0.3049213,-0.1107135,0.0364639,-0.008646336,0.5408584,-41.99075,30.340562394400195
2,-1.0,-1.0,-1.0,0.8691086,0.0,0.0,0.0,-33.52046,0.03494263,-22.82852,-1.0,0.5482793,0.5710946,0.6830282,0.0,0.0,0.0,34.85097,-0.3269958,-24.51126,-1.0,0.4554051,0.643038,0.04039574,1.212645,-0.3049213,-0.1107135,0.0364639,-0.008646336,0.5408584,-41.99075,30.340562394400195
2,-1.0,-1.0,-1.0,0.03545512,0.0,0.0,0.0,-33.52046,0.03494263,-22.82852,-1.0,-1.0,-1.0,0.0,0.0,0.0,0.0,34.85097,-0.3269958,-24.51126,-1.0,-1.0,-1.0,0.04045761,1.212715,-0.3049556,-0.1109694,0.03636856,-0.008646337,0.5408584,-41.99075,30.340562394400195
2,-1.0,-1.0,-1.0,0.03545512,0.0,0.0,0.0,-33.52046,0.03494263,-22.82852,-1.0,-1.0,-1.0,0.0,0.0,0.0,0.0,34.85097,-0.3269958,-24.51126,-1.0,-1.0,-1.0,0.04045761,1.212715,-0.3049556,-0.1109694,0.03636856,-0.008646337,0.5408584,-41.99075,30.340562394400195
2,-1.0,-1.0,-1.0,0.01298894,0.0,0.0,0.0,-33.3685,-1.056259,-22.95915,-1.0,0.5307181,0.6219019,0.0,0.0,0.0,0.0,34.85097,-0.3269958,-24.51126,-1.0,0.423633,0.6607723,0.04045546,1.212774,-0.3050206,-0.1111456,0.03661967,-0.008929508,0.5408584,-41.99075,30.340562394400195
2,-1.0,-1.0,-1.0,0.01298894,0.0,0.0,0.0,-33.3685,-1.056259,-22.95915,-1.0,0.5307181,0.6219019,0.0,0.0,0.0,0.0,34.85097,-0.3269958,-24.51126,-1.0,0.423633,0.6607723,0.04045546,1.212774,-0.3050206,-0.1111456,0.03661967,-0.008929508,0.5408584,-41.99075,30.340562394400195
2,-1.0,-1.0,-1.0,0.0495447,0.0,0.0,0.0,-33.3685,-1.056259,-22.95915,-1.0,-1.0,-1.0,0.0,0.0,0.0,0.0,34.85097,-0.3269958,-24.51126,-1.0,0.4227577,0.6441811,0.04048502,1.212798,-0.3051014,-0.1112416,0.0368165,-0.009088296,0.5408584,-41.99075,30.340562394400195
2,-1.0,-1.0,-1.0,0.0495447,0.0,0.0,0.0,-33.3685,-1.056259,-22.95915,-1.0,-1.0,-1.0,0.0,0.0,0.0,0.0,34.85097,-0.3269958,-24.51126,-1.0,0.4227577,0.6441811,0.04048502,1.212798,-0.3051014,-0.1112416,0.0368165,-0.009088296,0.5408584,-41.99075,30.340562394400195
2,-1.0,-1.0,-1.0,0.0495447,0.0,0.0,0.0,-33.3685,-1.056259,-22.95915,-1.0,-1.0,-1.0,0.0,0.0,0.0,0.0,34.85097,-0.3269958,-24.51126,-1.0,0.4227577,0.6441811,0.0406307,1.212849,-0.3051815,-0.1112986,0.03699335,-0.008931177,0.5408584,-41.99075,30.340562394400195
2,-1.0,-1.0,-1.0,0.0495447,0.0,0.0,0.0,-33.3685,-1.056259,-22.95915,-1.0,-1.0,-1.0,0.0,0.0,0.0,0.0,34.85097,-0.3269958,-24.51126,-1.0,0.4227577,0.6441811,0.0406307,1.212849,-0.3051815,-0.1112986,0.03699335,-0.008931177,0.5408584,-41.99075,30.340562394400195
2,-1.0,-1.0,-1.0,0.0495447,0.0,0.0,0.0,-33.3685,-1.056259,-22.95915,-1.0,-1.0,-1.0,0.0,0.0,0.0,0.0,34.85097,-0.3269958,-24.51126,-1.0,0.4227577,0.6441811,0.04066563,1.212824,-0.3053128,-0.1113443,0.03704688,-0.008737199,0.5408584,28.90395,30.340562394400195
2,-1.0,-1.0,-1.0,0.0495447,0.0,0.0,0.0,-33.3685,-1.056259,-22.95915,-1.0,-1.0,-1.0,0.0,0.0,0.0,0.0,34.85097,-0.3269958,-24.51126,-1.0,0.4227577,0.6441811,0.04066563,1.212824,-0.3053128,-0.1113443,0.03704688,-0.008737199,0.5408584,28.90395,30.340562394400195
2,-1.0,-1.0,-1.0,0.0495447,0.0,0.0,0.0,-33.3685,-1.056259,-22.95915,-1.0,-1.0,-1.0,0.0,0.0,0.0,0.0,34.85097,-0.3269958,-24.51126,-1.0,0.4150862,0.6417437,0.04068816,1.21284,-0.3054342,-0.1113392,0.0371483,-0.008765294,0.5408584,28.90395,30.340562394400195
2,-1.0,-1.0,-1.0,0.0495447,0.0,0.0,0.0,-33.3685,-1.056259,-22.95915,-1.0,-1.0,-1.0,0.0,0.0,0.0,0.0,34.85097,-0.3269958,-24.51126,-1.0,0.4150862,0.6417437,0.04068816,1.21284,-0.3054342,-0.1113392,0.0371483,-0.008765294,0.5408584,28.90395,30.340562394400195
2,-1.0,-1.0,-1.0,0.0495447,0.0,0.0,0.0,-33.3685,-1.056259,-22.95915,-1.0,-1.0,-1.0,0.0,0.0,0.0,0.0,34.85097,-0.3269958,-24.51126,-1.0,0.4150862,0.6417437,0.04066539,1.212909,-0.305549,-0.1117792,0.03709291,-0.009069421,0.5408584,28.90395,30.340562394400195
2,-1.0,-1.0,-1.0,0.0495447,0.0,0.0,0.0,-33.3685,-1.056259,-22.95915,-1.0,-1.0,-1.0,0.0,0.0,0.0,0.0,34.85097,-0.3269958,-24.51126,-1.0,0.4150862,0.6417437,0.04066539,1.212909,-0.305549,-0.1117792,0.03709291,-0.009069421,0.5408584,28.90395,30.340562394400195
2,-1.0,-1.0,-1.0,0.2085208,0.0,0.0,0.0,-33.3685,-1.056259,-22.95915,-1.0,0.7145901,0.6312382,0.06504177,0.0,0.0,0.0,34.67874,-0.3476868,-24.5271,-1.0,0.4418285,0.6091828,0.04069173,1.213042,-0.3056633,-0.1120941,0.03723485,-0.008991868,0.5408584,28.90395,30.340562394400195
2,-1.0,-1.0,-1.0,0.2085208,0.0,0.0,0.0,-33.3685,-1.056259,-22.95915,-1.0,0.7145901,0.6312382,0.06504177,0.0,0.0,0.0,34.67874,-0.3476868,-24.5271,-1.0,0.4418285,0.6091828,0.04069173,1.213042,-0.3056633,-0.1120941,0.03723485,-0.008991868,0.5408584,28.90395,30.340562394400195
2,-1.0,-1.0,-1.0,0.7776009,0.0,0.0,0.0,-34.25984,0.8169098,-24.3121,-1.0,0.5873568,0.5242632,0.7587207,0.0,0.0,0.0,33.89648,1.263504,-24.67111,-1.0,0.4804785,0.5040627,0.0407511,1.213138,-0.3057204,-0.1123613,0.03723184,-0.008907788,0.5408584,28.90395,30.340562394400195
2,-1.0,-1.0,-1.0,0.7776009,0.0,0.0,0.0,-34.25984,0.8169098,-24.3121,-1.0,0.5873568,0.5242632,0.7587207,0.0,0.0,0.0,33.89648,1.263504,-24.67111,-1.0,0.4804785,0.5040627,0.0407511,1.213138,-0.3057204,-0.1123613,0.03723184,-0.008907788,0.5408584,28.90395,30.340562394400195
2,-0.1286011,-0.04798889,0.9905243,0.8711493,-0.05462646,-0.05003357,0.9972382,-34.23926,0.7575226,-24.12175,3.509903,0.5861371,0.5245816,0.8542342,-0.1286011,-0.04798889,0.9905243,33.91185,1.271378,-24.69743,3.105042,0.4798113,0.5107051,0.04078662,1.213217,-0.3057941,-0.1126366,0.03747758,-0.009138983,0.5408584,28.90395,30.340562394400195
2,-0.1286011,-0.04798889,0.9905243,0.8711493,-0.05462646,-0.05003357,0.9972382,-34.23926,0.7575226,-24.12175,3.509903,0.5861371,0.5245816,0.8542342,-0.1286011,-0.04798889,0.9905243,33.91185,1.271378,-24.69743,3.105042,0.4798113,0.5107051,0.04078662,1.213217,-0.3057941,-0.1126366,0.03747758,-0.009138983,0.5408584,28.90395,30.340562394400195
2,-0.1171875,-0.0483551,0.9919281,0.9448647,-0.05195618,-0.05055237,0.9973602,-34.20952,0.5626373,-23.46463,3.45726,0.5841995,0.5251063,0.9351417,-0.1171875,-0.0483551,0.9919281,33.91908,1.234787,-24.74176,3.102676,0.4776362,0.5123069,0.04092968,1.213228,-0.305907,-0.1129841,0.03770451,-0.009033203,0.5408584,28.90395,30.340562394400195
2,-0.1171875,-0.0483551,0.9919281,0.9448647,-0.05195618,-0.05055237,0.9973602,-34.20952,0.5626373,-23.46463,3.45726,0.5841995,0.5251063,0.9351417,-0.1171875,-0.0483551,0.9919281,33.91908,1.234787,-24.74176,3.102676,0.4776362,0.5123069,0.04092968,1.213228,-0.305907,-0.1129841,0.03770451,-0.009033203,0.5408584,28.90395,30.340562394400195
2,-0.1213684,-0.03475952,0.9919891,0.9857495,-0.05558777,-0.04954529,0.9972076,-34.19852,0.3991394,-22.82037,3.474548,0.5838843,0.5244601,0.9641014,-0.1213684,-0.03475952,0.9919891,33.92915,1.178528,-24.54056,3.215393,0.4779919,0.5101286,0.04087603,1.213277,-0.3060457,-0.1134691,0.03784199,-0.009019171,0.5408584,17.26495,30.340562394400195
2,-0.1213684,-0.03475952,0.9919891,0.9857495,-0.05558777,-0.04954529,0.9972076,-34.19852,0.3991394,-22.82037,3.474548,0.5838843,0.5244601,0.9641014,-0.1213684,-0.03475952,0.9919891,33.92915,1.178528,-24.54056,3.215393,0.4779919,0.5101286,0.04087603,1.213277,-0.3060457,-0.1134691,0.03784199,-0.009019171,0.5408584,17.26495,30.340562394400195
2,-0.1168823,-0.0380249,0.9924164,0.9907466,-0.05276489,-0.05024719,0.9973297,-34.19418,0.3748779,-22.70232,3.473129,0.5831902,0.5243055,0.9869583,-0.1168823,-0.0380249,0.9924164,33.9388,1.131836,-24.37508,3.196335,0.4769061,0.5106969,0.04094243,1.213422,-0.3061101,-0.1136235,0.03807753,-0.009212064,0.5408584,17.26495,30.340562394400195
2,-0.1168823,-0.0380249,0.9924164,0.9907466,-0.05276489,-0.05024719,0.9973297,-34.19418,0.3748779,-22.70232,3.473129,0.5831902,0.5243055,0.9869583,-0.1168823,-0.0380249,0.9924164,33.9388,1.131836,-24.37508,3.196335,0.4769061,0.5106969,0.04094243,1.213422,-0.3061101,-0.1136235,0.03807753,-0.009212064,0.5408584,17.26495,30.340562394400195
2,-0.117218,-0.04083252,0.9922638,1.0,-0.04942322,-0.05137634,0.9974518,-34.19321,0.3672333,-22.69527,3.472824,0.5826098,0.5246615,1.0,-0.117218,-0.04083252,0.9922638,33.94096,1.131882,-24.38957,3.203247,0.4768819,0.5113034,0.04102194,1.213488,-0.3062091,-0.1138234,0.03830227,-0.009489347,0.5408584,17.26495,30.340562394400195
2,-0.117218,-0.04083252,0.9922638,1.0,-0.04942322,-0.05137634,0.9974518,-34.19321,0.3672333,-22.69527,3.472824,0.5826098,0.5246615,1.0,-0.117218,-0.04083252,0.9922638,33.94096,1.131882,-24.38957,3.203247,0.4768819,0.5113034,0.04102194,1.213488,-0.3062091,-0.1138234,0.03830227,-0.009489347,0.5408584,17.26495,30.340562394400195
2,-0.07217407,-0.04827881,0.9962158,1.0,-0.04759216,-0.05107117,0.9975586,-34.17848,0.3565063,-22.66843,3.477676,0.5818179,0.5247195,1.0,-0.115448,-0.04327393,0.9923553,33.94582,1.131454,-24.38057,3.254166,0.4764005,0.5116784,0.04108918,1.21352,-0.3062699,-0.1139195,0.03829644,-0.009597087,0.5408584,17.26495,30.340562394400195
2,-0.07217407,-0.04827881,0.9962158,1.0,-0.04759216,-0.05107117,0.9975586,-34.17848,0.3565063,-22.66843,3.477676,0.5818179,0.5247195,1.0,-0.115448,-0.04327393,0.9923553,33.94582,1.131454,-24.38057,3.254166,0.4764005,0.5116784,0.04108918,1.21352,-0.3062699,-0.1139195,0.03829644,-0.009597087,0.5408584,17.26495,30.340562394400195
2,-0.08581543,-0.04922485,0.9950867,1.0,-0.04776001,-0.05024719,0.9975891,-34.16791,0.3478241,-22.65356,3.468857,0.5814937,0.5247195,1.0,-0.1218872,-0.04820251,0.9913635,33.98212,1.096649,-24.23367,3.203476,0.476275,0.5123343,0.04114497,1.213555,-0.3063935,-0.1141321,0.0385083,-0.009511306,0.5408584,17.26495,30.340562394400195
2,-0.0763855,-0.05529785,0.9955292,1.0,-0.04425049,-0.05102539,0.9977112,-34.15381,0.3403778,-22.61995,3.474792,0.5804462,0.5247775,1.0,-0.1254883,-0.0617218,0.9901581,33.99533,1.147461,-24.38152,3.053711,0.4764681,0.5142342,0.0412277,1.213589,-0.3065207,-0.1143992,0.03864215,-0.009698254,0.5408584,17.26495,30.340562394400195
2,-0.0763855,-0.05529785,0.9955292,1.0,-0.04425049,-0.05102539,0.9977112,-34.15381,0.3403778,-22.61995,3.474792,0.5804462,0.5247775,1.0,-0.1254883,-0.0617218,0.9901581,33.99533,1.147461,-24.38152,3.053711,0.4764681,0.5142342,0.0412277,1.213589,-0.3065207,-0.1143992,0.03864215,-0.009698254,0.5408584,17.26495,30.340562394400195
2,-0.0763855,-0.05529785,0.9955292,1.0,-0.04425049,-0.05102539,0.9977112,-34.15381,0.3403778,-22.61995,3.474792,0.5804462,0.5247775,1.0,-0.1254883,-0.0617218,0.9901581,33.99533,1.147461,-24.38152,3.053711,0.4764681,0.5142342,0.0412277,1.213589,-0.3065207,-0.1143992,0.03864215,-0.009698254,0.5408584,17.26495,30.340562394400195
2,-0.07731628,-0.05461121,0.9954987,1.0,-0.04238892,-0.04943848,0.9978638,-34.11842,0.3161469,-22.56117,3.511688,0.578955,0.5247775,1.0,-0.1229095,-0.0612793,0.990509,34.01801,1.116638,-24.2534,3.232651,0.4752182,0.5140965,0.04135239,1.213695,-0.3066014,-0.1148915,0.03900046,-0.009998594,0.5408584,17.26495,30.340562394400195
2,-0.07731628,-0.05461121,0.9954987,1.0,-0.04238892,-0.04943848,0.9978638,-34.11842,0.3161469,-22.56117,3.511688,0.578955,0.5247775,1.0,-0.1229095,-0.0612793,0.990509,34.01801,1.116638,-24.2534,3.232651,0.4752182,0.5140965,0.04135239,1.213695,-0.3066014,-0.1148915,0.03900046,-0.009998594,0.5408584,17.26495,30.340562394400195
2,-0.07164001,-0.05540466,0.9958801,1.0,-0.04191589,-0.04975891,0.997879,-34.11496,0.2898712,-22.4593,3.520462,0.5786874,0.5247775,1.0,-0.1193695,-0.06439209,0.9907532,34.02222,1.099548,-24.17012,3.233398,0.4744771,0.5144146,0.04143906,1.213832,-0.3067542,-0.1155455,0.0395293,-0.01009426,0.5408584,17.26495,30.340562394400195
2,-0.07748413,-0.05552673,0.9954376,1.0,-0.04069519,-0.05010986,0.9979095,-34.10202,0.2718658,-22.38535,3.568329,0.5780125,0.5247775,1.0,-0.1152191,-0.0610199,0.9914551,34.02318,1.095566,-24.18607,3.245041,0.4737521,0.5140965,0.04153442,1.21387,-0.306778,-0.1159858,0.03962399,-0.01015094,0.5408584,17.26495,30.340562394400195
2,-0.07748413,-0.05552673,0.9954376,1.0,-0.04069519,-0.05010986,0.9979095,-34.10202,0.2718658,-22.38535,3.568329,0.5780125,0.5247775,1.0,-0.1152191,-0.0610199,0.9914551,34.02318,1.095566,-24.18607,3.245041,0.4737521,0.5140965,0.04153442,1.21387,-0.306778,-0.1159858,0.03962399,-0.01015094,0.5408584,17.26495,30.340562394400195
2,-0.08653259,-0.0572052,0.9945984,1.0,-0.03961182,-0.0491333,0.9980011,-34.08458,0.2658844,-22.37117,3.594482,0.577265,0.5246911,1.0,-0.1144104,-0.06196594,0.9914856,34.02773,1.09227,-24.18808,3.267258,0.4734553,0.5143967,0.04167902,1.214042,-0.3068768,-0.1166815,0.0401203,-0.01022116,0.5408584,-4.558456,30.340562394400195
2,-0.09552002,-0.0579071,0.9937286,1.0,-0.03520203,-0.05015564,0.9981079,-34.07095,0.2525177,-22.30632,3.640671,0.576066,0.5247288,1.0,-0.1153107,-0.0604248,0.9914856,34.03847,1.095322,-24.19366,3.286911,0.4732477,0.5140965,0.04174519,1.214093,-0.3070197,-0.117043,0.04031057,-0.01042112,0.5408584,-4.558456,30.340562394400195
2,-0.06994629,-0.0567627,0.9959259,1.0,-0.03491211,-0.05021667,0.9981232,-34.06374,0.2525177,-22.30632,3.655869,0.5757867,0.5247465,1.0,-0.09934998,-0.06221008,0.993103,34.12317,1.00856,-23.91304,3.500931,0.4677123,0.5147544,0.04187882,1.214194,-0.3072103,-0.1178161,0.04091414,-0.01053913,0.5408584,-4.558456,30.340562394400195
2,-0.06994629,-0.0567627,0.9959259,1.0,-0.03491211,-0.05021667,0.9981232,-34.06374,0.2525177,-22.30632,3.655869,0.5757867,0.5247465,1.0,-0.09934998,-0.06221008,0.993103,34.12317,1.00856,-23.91304,3.500931,0.4677123,0.5147544,0.04187882,1.214194,-0.3072103,-0.1178161,0.04091414,-0.01053913,0.5408584,-4.558456,30.340562394400195
2,-0.0479126,-0.05163574,0.9975128,1.0,-0.03158569,-0.05007935,0.99823,-34.03831,0.2525177,-22.30632,3.679977,0.5744376,0.5247343,1.0,-0.09344482,-0.05589294,0.9940491,34.14085,1.037689,-23.99185,3.610474,0.4661292,0.5134715,0.04194689,1.214247,-0.307302,-0.1183747,0.04121731,-0.01064114,0.5408584,-4.558456,30.340562394400195
2,-0.09487915,-0.06814575,0.9931488,1.0,-0.02583313,-0.04873657,0.9984741,-33.96275,0.5796661,-23.54721,3.781921,0.5720178,0.5250651,1.0,-0.09500122,-0.06819153,0.9931335,34.13782,1.077225,-24.02098,3.710693,0.4664404,0.5145736,0.04205644,1.214335,-0.3074253,-0.1188209,0.04161506,-0.01083885,0.5408584,-4.558456,30.340562394400195
2,-0.09487915,-0.06814575,0.9931488,1.0,-0.02583313,-0.04873657,0.9984741,-33.96275,0.5796661,-23.54721,3.781921,0.5720178,0.5250651,1.0,-0.09500122,-0.06819153,0.9931335,34.13782,1.077225,-24.02098,3.710693,0.4664404,0.5145736,0.04205644,1.214335,-0.3074253,-0.1188209,0.04161506,-0.01083885,0.5408584,-4.558456,30.340562394400195
2,-1.0,-1.0,-1.0,0.9375647,0.0,0.0,0.0,-34.22173,1.317932,-25.00529,-1.0,0.5868924,0.5055069,0.842232,0.0,0.0,0.0,33.74779,1.564865,-24.46912,-1.0,0.4853972,0.4964314,0.0422641,1.214512,-0.3076928,-0.1199744,0.04257297,-0.01112783,0.5382963,-4.558456,30.340562394400195
2,-1.0,-1.0,-1.0,0.7919963,0.0,0.0,0.0,-34.45688,1.772675,-25.41182,-1.0,0.6014056,0.4908369,0.7214554,0.0,0.0,0.0,33.38869,1.885544,-24.29204,-1.0,0.5149027,0.4743173,0.0423919,1.21462,-0.3078196,-0.1206271,0.04313022,-0.01117394,0.5382963,-4.558456,30.340562394400195
2,-1.0,-1.0,-1.0,0.7919963,0.0,0.0,0.0,-34.45688,1.772675,-25.41182,-1.0,0.6014056,0.4908369,0.7214554,0.0,0.0,0.0,33.38869,1.885544,-24.29204,-1.0,0.5149027,0.4743173,0.0423919,1.21462,-0.3078196,-0.1206271,0.04313022,-0.01117394,0.5382963,-4.558456,30.340562394400195
2,-1.0,-1.0,-1.0,0.7367954,0.0,0.0,0.0,-34.61736,2.23819,-26.19662,-1.0,0.612348,0.4744163,0.674071,0.0,0.0,0.0,33.22423,2.137741,-24.33806,-1.0,0.5220785,0.4546292,0.04260933,1.214957,-0.3080785,-0.1218902,0.04432632,-0.01138269,0.5382963,-4.558456,30.340562394400195
2,-1.0,-1.0,-1.0,0.8022455,0.0,0.0,0.0,-34.68996,1.55867,-23.52655,-1.0,0.6172892,0.4640614,0.7385406,0.0,0.0,0.0,33.06448,2.153534,-24.41377,-1.0,0.5303176,0.4480004,0.04274893,1.215091,-0.3081985,-0.1226127,0.04494675,-0.01138465,0.5382963,-4.558456,30.340562394400195
2,-1.0,-1.0,-1.0,0.8022455,0.0,0.0,0.0,-34.68996,1.55867,-23.52655,-1.0,0.6172892,0.4640614,0.7385406,0.0,0.0,0.0,33.06448,2.153534,-24.41377,-1.0,0.5303176,0.4480004,0.04274893,1.215091,-0.3081985,-0.1226127,0.04494675,-0.01138465,0.5382963,-4.558456,30.340562394400195
2,-1.0,-1.0,-1.0,0.8189687,0.0,0.0,0.0,-34.70206,2.043076,-25.4597,-1.0,0.6152997,0.4681185,0.8071969,0.0,0.0,0.0,33.16,2.155151,-24.46239,-1.0,0.5360325,0.4454631,0.04299748,1.215374,-0.3085382,-0.1239511,0.04615792,-0.01156838,0.5382963,-18.53201,30.340562394400195
2,-1.0,-1.0,-1.0,0.8189687,0.0,0.0,0.0,-34.673,1.626221,-23.87346,-1.0,0.6127787,0.4704342,0.8071969,0.0,0.0,0.0,33.12592,2.10379,-24.35034,-1.0,0.5226655,0.4564483,0.04314566,1.215503,-0.3087139,-0.1246869,0.04678001,-0.01164029,0.5382963,-45.48178,30.340562394400195
2,-1.0,-1.0,-1.0,0.8189687,0.0,0.0,0.0,-34.673,1.626221,-23.87346,-1.0,0.6127787,0.4704342,0.8071969,0.0,0.0,0.0,33.12592,2.10379,-24.35034,-1.0,0.5226655,0.4564483,0.04314566,1.215503,-0.3087139,-0.1246869,0.04678001,-0.01164029,0.5382963,-45.48178,30.340562394400195
2,-1.0,-1.0,-1.0,0.8189687,0.0,0.0,0.0,-34.673,1.626221,-23.87346,-1.0,0.6127787,0.4704342,0.8071969,0.0,0.0,0.0,33.12592,2.10379,-24.35034,-1.0,0.5226655,0.4564483,0.04347396,1.215769,-0.309118,-0.1261712,0.04829389,-0.01178595,0.5382963,-45.48178,30.340562394400195
2,-1.0,-1.0,-1.0,0.8189687,0.0,0.0,0.0,-34.673,1.626221,-23.87346,-1.0,0.6127787,0.4704342,0.8071969,0.0,0.0,0.0,33.12592,2.10379,-24.35034,-1.0,0.5226655,0.4564483,0.04361272,1.21589,-0.3093424,-0.1271303,0.04892873,-0.0118578,0.5382963,-45.48178,30.340562394400195
2,-1.0,-1.0,-1.0,0.8189687,0.0,0.0,0.0,-34.673,1.626221,-23.87346,-1.0,0.6127787,0.4704342,0.8071969,0.0,0.0,0.0,33.12592,2.10379,-24.35034,-1.0,0.5226655,0.4564483,0.04361272,1.21589,-0.3093424,-0.1271303,0.04892873,-0.0118578,0.5382963,-45.48178,30.340562394400195
2,-1.0,-1.0,-1.0,0.8189687,0.0,0.0,0.0,-34.673,1.626221,-23.87346,-1.0,0.6127787,0.4704342,0.8071969,0.0,0.0,0.0,33.12592,2.10379,-24.35034,-1.0,0.5226655,0.4564483,0.04386115,1.216161,-0.309759,-0.1287716,0.050401,-0.0121532,0.5382963,-45.48178,31.21
2,-1.0,-1.0,-1.0,0.898668,0.0,0.0,0.0,-34.65866,1.584,-23.94551,-1.0,0.6152764,0.4688308,0.8719119,0.0,0.0,0.0,33.19357,2.061218,-24.37637,-1.0,0.5211514,0.45293,0.04419553,1.216463,-0.3101563,-0.1304834,0.05188347,-0.01254536,0.5382963,-45.48178,31.21
2,-1.0,-1.0,-1.0,0.898668,0.0,0.0,0.0,-34.65866,1.584,-23.94551,-1.0,0.6152764,0.4688308,0.8719119,0.0,0.0,0.0,33.19357,2.061218,-24.37637,-1.0,0.5211514,0.45293,0.04419553,1.216463,-0.3101563,-0.1304834,0.05188347,-0.01254536,0.5382963,-45.48178,31.21
2,-0.160675,0.1000366,0.9819183,1.0,-0.1512604,0.1145325,0.9818268,-34.40671,0.6793823,-21.20738,4.330917,0.6046299,0.4763635,1.0,-0.160675,0.1000366,0.9819183,33.35547,1.916779,-24.41295,3.942444,0.50392,0.4631156,0.04453325,1.216736,-0.3105793,-0.1323054,0.05342009,-0.01276029,0.5382963,-45.48178,31.21
2,-0.160675,0.1000366,0.9819183,1.0,-0.1512604,0.1145325,0.9818268,-34.40671,0.6793823,-21.20738,4.330917,0.6046299,0.4763635,1.0,-0.160675,0.1000366,0.9819183,33.35547,1.916779,-24.41295,3.942444,0.50392,0.4631156,0.04453325,1.216736,-0.3105793,-0.1323054,0.05342009,-0.01276029,0.5382963,-45.48178,31.21
2,-0.1590424,0.09501648,0.9826813,1.0,-0.151886,0.1103821,0.9822083,-34.37305,0.4842529,-20.59851,4.382202,0.6029524,0.4780852,1.0,-0.1590424,0.09501648,0.9826813,33.38312,1.894104,-24.46722,4.072372,0.502664,0.4652645,0.04472661,1.216931,-0.310758,-0.1331196,0.05423797,-0.01303697,0.5382963,-45.48178,31.21
2,-0.1521454,0.0791626,0.9851685,1.0,-0.1464233,0.1013336,0.9840088,-34.34467,0.4117889,-20.33882,4.427261,0.6008859,0.4796003,1.0,-0.1521454,0.0791626,0.9851685,33.43018,1.933411,-24.7234,4.006104,0.4999698,0.4686852,0.04491568,1.217126,-0.3109783,-0.1340262,0.05500836,-0.01326585,0.5382963,-45.48178,31.21
2,-0.1521454,0.0791626,0.9851685,1.0,-0.1464233,0.1013336,0.9840088,-34.34467,0.4117889,-20.33882,4.427261,0.6008859,0.4796003,1.0,-0.1521454,0.0791626,0.9851685,33.43018,1.933411,-24.7234,4.006104,0.4999698,0.4686852,0.04491568,1.217126,-0.3109783,-0.1340262,0.05500836,-0.01326585,0.5382963,-45.48178,31.21
2,-0.1427612,0.07675171,0.9867706,1.0,-0.1382446,0.1001434,0.985321,-34.28925,0.2939911,-20.04567,4.515488,0.5975266,0.4810612,1.0,-0.1427612,0.07675171,0.9867706,33.48434,1.958755,-24.94043,4.053543,0.4966019,0.4701305,0.04509401,1.217322,-0.3112016,-0.1351302,0.05586154,-0.01337325,0.5382963,-45.48178,31.21
2,-0.1372833,0.08564758,0.9868164,1.0,-0.1360626,0.08827209,0.9867554,-34.27269,0.2248535,-19.87263,4.49646,0.5964785,0.4836029,1.0,-0.1372833,0.08564758,0.9868164,33.50346,1.919891,-24.84096,4.084564,0.4950427,0.4690633,0.0454886,1.217718,-0.3116784,-0.137367,0.05782526,-0.01356464,0.5382963,-45.48178,31.21
2,-0.1372833,0.08564758,0.9868164,1.0,-0.1360626,0.08827209,0.9867554,-34.27269,0.2248535,-19.87263,4.49646,0.5964785,0.4836029,1.0,-0.1372833,0.08564758,0.9868164,33.50346,1.919891,-24.84096,4.084564,0.4950427,0.4690633,0.0454886,1.217718,-0.3116784,-0.137367,0.05782526,-0.01356464,0.5382963,-45.48178,31.21
2,-0.1210022,0.08433533,0.9890594,1.0,-0.1207581,0.08483887,0.9890442,-34.27533,0.2326813,-20.07025,4.49054,0.5943167,0.4854642,1.0,-0.1279144,0.06965637,0.9893341,33.58543,1.803268,-24.6404,4.018982,0.490677,0.4736556,0.04587162,1.218034,-0.3121985,-0.1393931,0.05991501,-0.01374904,0.5382963,-45.48178,31.21
2,-0.1210022,0.08433533,0.9890594,1.0,-0.1207581,0.08483887,0.9890442,-34.27533,0.2326813,-20.07025,4.49054,0.5943167,0.4854642,1.0,-0.1279144,0.06965637,0.9893341,33.58543,1.803268,-24.6404,4.018982,0.490677,0.4736556,0.04587162,1.218034,-0.3121985,-0.1393931,0.05991501,-0.01374904,0.5382963,-45.48178,31.21
2,-0.1140137,0.07531738,0.9906158,1.0,-0.1139679,0.07536316,0.9906158,-34.24585,0.1904144,-20.0119,4.483932,0.5922475,0.4877352,1.0,-0.1203766,0.06703186,0.990448,33.63947,1.80275,-24.70195,3.998947,0.4876221,0.47458,0.04627061,1.218379,-0.3127273,-0.1414112,0.06188218,-0.01366043,0.5382963,31.80658,31.21
2,-0.1031342,0.06625366,0.9924469,1.0,-0.09877014,0.06507874,0.9929657,-34.22218,0.2510071,-20.26778,4.524902,0.5893062,0.489572,1.0,-0.1242371,0.07194519,0.989624,33.68265,1.707809,-24.43222,4.119812,0.4867697,0.4746696,0.0467118,1.218768,-0.3131939,-0.1438164,0.06399385,-0.01366697,0.5382963,31.80658,31.21
2,-0.1031342,0.06625366,0.9924469,1.0,-0.09877014,0.06507874,0.9929657,-34.22218,0.2510071,-20.26778,4.524902,0.5893062,0.489572,1.0,-0.1242371,0.07194519,0.989624,33.68265,1.707809,-24.43222,4.119812,0.4867697,0.4746696,0.0467118,1.218768,-0.3131939,-0.1438164,0.06399385,-0.01366697,0.5382963,31.80658,31.21
2,-0.1124268,0.06489563,0.9915314,1.0,-0.09794617,0.06506348,0.9930573,-34.17801,0.286026,-20.4915,4.501602,0.5879771,0.4903266,1.0,-0.1195221,0.06481934,0.9907074,33.70728,1.6754,-24.38782,4.10379,0.4851415,0.4764675,0.04720294,1.21917,-0.3137047,-0.1461676,0.06606948,-0.01390316,0.5382963,31.80658,31.21
2,-0.1124268,0.06489563,0.9915314,1.0,-0.09794617,0.06506348,0.9930573,-34.17801,0.286026,-20.4915,4.501602,0.5879771,0.4903266,1.0,-0.1195221,0.06481934,0.9907074,33.70728,1.6754,-24.38782,4.10379,0.4851415,0.4764675,0.04720294,1.21917,-0.3137047,-0.1461676,0.06606948,-0.01390316,0.5382963,31.80658,31.21
2,-0.1124268,0.06489563,0.9915314,1.0,-0.09794617,0.06506348,0.9930573,-34.17801,0.286026,-20.4915,4.501602,0.5879771,0.4903266,1.0,-0.1195221,0.06481934,0.9907074,33.70728,1.6754,-24.38782,4.10379,0.4851415,0.4764675,0.04761839,1.219591,-0.3142296,-0.1485555,0.06827704,-0.01436441,0.5382963,31.80658,31.21
2,-0.1124268,0.06489563,0.9915314,1.0,-0.09794617,0.06506348,0.9930573,-34.17801,0.286026,-20.4915,4.501602,0.5879771,0.4903266,1.0,-0.1195221,0.06481934,0.9907074,33.70728,1.6754,-24.38782,4.10379,0.4851415,0.4764675,0.04761839,1.219591,-0.3142296,-0.1485555,0.06827704,-0.01436441,0.5382963,31.80658,31.21
3,-0.1124268,0.06489563,0.9915314,1.0,-0.09794617,0.06506348,0.9930573,-34.17801,0.286026,-20.4915,4.501602,0.5879771,0.4903266,1.0,-0.1195221,0.06481934,0.9907074,33.70728,1.6754,-24.38782,4.10379,0.4851415,0.4764675,0.04803681,1.220022,-0.3147466,-0.1510286,0.07024752,-0.01468349,0.5382963,31.80658,31.21
3,-0.1124268,0.06489563,0.9915314,1.0,-0.09794617,0.06506348,0.9930573,-34.17801,0.286026,-20.4915,4.501602,0.5879771,0.4903266,1.0,-0.1195221,0.06481934,0.9907074,33.70728,1.6754,-24.38782,4.10379,0.4851415,0.4764675,0.04803681,1.220022,-0.3147466,-0.1510286,0.07024752,-0.01468349,0.5382963,31.80658,31.21
3,-0.1057434,0.00428772,0.9943695,1.0,-0.03257751,0.03669739,0.9987946,-34.21275,0.8959198,-23.00539,4.482773,0.5807771,0.4967203,1.0,-0.1057434,0.00428772,0.9943695,33.95934,1.742157,-24.75845,4.042236,0.4743437,0.4873939,0.04846513,1.220454,-0.3152716,-0.1534292,0.07228151,-0.01510617,0.5382963,31.80658,31.21
3,-0.1057434,0.00428772,0.9943695,1.0,-0.03257751,0.03669739,0.9987946,-34.21275,0.8959198,-23.00539,4.482773,0.5807771,0.4967203,1.0,-0.1057434,0.00428772,0.9943695,33.95934,1.742157,-24.75845,4.042236,0.4743437,0.4873939,0.04846513,1.220454,-0.3152716,-0.1534292,0.07228151,-0.01510617,0.5382963,31.80658,31.21
3,-1.0,-1.0,-1.0,0.8774335,0.0,0.0,0.0,-34.38927,1.909195,-25.33861,-1.0,0.5893527,0.4786893,0.7917745,0.0,0.0,0.0,33.70299,2.403946,-25.42667,-1.0,0.4940785,0.4673803,0.0489198,1.220925,-0.3157927,-0.1563948,0.07438191,-0.0153406,0.5382963,31.80658,31.21
3,-1.0,-1.0,-1.0,0.8774335,0.0,0.0,0.0,-34.38927,1.909195,-25.33861,-1.0,0.5893527,0.4786893,0.7917745,0.0,0.0,0.0,33.70299,2.403946,-25.42667,-1.0,0.4940785,0.4673803,0.0489198,1.220925,-0.3157927,-0.1563948,0.07438191,-0.0153406,0.5382963,31.80658,31.21
3,-1.0,-1.0,-1.0,0.7318164,0.0,0.0,0.0,-34.53021,1.523148,-21.65221,-1.0,0.6079478,0.4497427,0.6363559,0.0,0.0,0.0,33.71326,1.848404,-25.04305,-1.0,0.5139429,0.4954275,0.04942906,1.221419,-0.3163918,-0.1594514,0.07651258,-0.01566738,0.5382963,31.80658,31.21
3,-1.0,-1.0,-1.0,0.7318164,0.0,0.0,0.0,-34.53021,1.523148,-21.65221,-1.0,0.6079478,0.4497427,0.6363559,0.0,0.0,0.0,33.71326,1.848404,-25.04305,-1.0,0.5139429,0.4954275,0.04942906,1.221419,-0.3163918,-0.1594514,0.07651258,-0.01566738,0.5382963,31.80658,31.21
3,-1.0,-1.0,-1.0,0.764915,0.0,0.0,0.0,-34.65112,1.55986,-21.54562,-1.0,0.622169,0.4406426,0.6649636,0.0,0.0,0.0,33.05196,2.768387,-24.62292,-1.0,0.5254246,0.4294773,0.04990673,1.221872,-0.3169678,-0.1624501,0.07871207,-0.01622984,0.5382963,24.83673,31.21
3,-1.0,-1.0,-1.0,0.764915,0.0,0.0,0.0,-34.65112,1.55986,-21.54562,-1.0,0.622169,0.4406426,0.6649636,0.0,0.0,0.0,33.05196,2.768387,-24.62292,-1.0,0.5254246,0.4294773,0.04990673,1.221872,-0.3169678,-0.1624501,0.07871207,-0.01622984,0.5382963,24.83673,31.21
3,-1.0,-1.0,-1.0,0.8770275,0.0,0.0,0.0,-34.68164,1.550308,-21.5551,-1.0,0.6225626,0.4383745,0.732353,0.0,0.0,0.0,33.02545,2.716431,-24.60205,-1.0,0.5328568,0.4403781,0.05040252,1.222311,-0.3175994,-0.1651643,0.08085,-0.01684393,0.5382963,24.83673,31.21
3,-1.0,-1.0,-1.0,0.8770275,0.0,0.0,0.0,-34.68164,1.550308,-21.5551,-1.0,0.6225626,0.4383745,0.732353,0.0,0.0,0.0,33.02545,2.716431,-24.60205,-1.0,0.5328568,0.4403781,0.05040252,1.222311,-0.3175994,-0.1651643,0.08085,-0.01684393,0.5382963,24.83673,31.21
3,-1.0,-1.0,-1.0,0.9397974,0.0,0.0,0.0,-34.66747,1.417084,-21.59251,-1.0,0.61906,0.4375526,0.8151082,0.0,0.0,0.0,33.14613,2.736481,-24.73738,-1.0,0.5310504,0.4201787,0.05097926,1.222769,-0.3182206,-0.1677533,0.0830673,-0.01753781,0.5382963,24.83673,31.21
3,-1.0,-1.0,-1.0,0.9397974,0.0,0.0,0.0,-34.66747,1.417084,-21.59251,-1.0,0.61906,0.4375526,0.8151082,0.0,0.0,0.0,33.14613,2.736481,-24.73738,-1.0,0.5310504,0.4201787,0.05097926,1.222769,-0.3182206,-0.1677533,0.0830673,-0.01753781,0.5382963,24.83673,31.21
3,-1.0,-1.0,-1.0,1.0,0.0,0.0,0.0,-34.60699,1.318375,-21.55145,-1.0,0.615284,0.4437144,1.0,0.0,0.0,0.0,33.19182,2.63974,-24.67442,-1.0,0.5223022,0.4282233,0.05145049,1.223129,-0.3188168,-0.1703589,0.0851169,-0.01792564,0.5382963,24.83673,31.21
3,-1.0,-1.0,-1.0,1.0,0.0,0.0,0.0,-34.60699,1.318375,-21.55145,-1.0,0.615284,0.4437144,1.0,0.0,0.0,0.0,33.19182,2.63974,-24.67442,-1.0,0.5223022,0.4282233,0.05145049,1.223129,-0.3188168,-0.1703589,0.0851169,-0.01792564,0.5382963,24.83673,31.21
3,-0.2084656,0.2085876,0.9555206,1.0,-0.1864319,0.212677,0.9591522,-34.54881,1.269928,-21.53091,4.762894,0.6153154,0.4455886,1.0,-0.2440643,0.2017059,0.9485321,33.25342,2.615829,-24.68356,4.608978,0.521672,0.4271378,0.0519141,1.223503,-0.3194389,-0.1728716,0.08727677,-0.01862363,0.5382963,24.83673,31.21
3,-0.2084656,0.2085876,0.9555206,1.0,-0.1864319,0.212677,0.9591522,-34.54881,1.269928,-21.53091,4.762894,0.6153154,0.4455886,1.0,-0.2440643,0.2017059,0.9485321,33.25342,2.615829,-24.68356,4.608978,0.521672,0.4271378,0.0519141,1.223503,-0.3194389,-0.1728716,0.08727677,-0.01862363,0.5382963,24.83673,31.21
3,-0.1805878,0.2025452,0.9624634,1.0,-0.1569366,0.2030945,0.9664917,-34.58089,1.227112,-21.59111,4.718124,0.6116028,0.448718,1.0,-0.2134399,0.2015839,0.9559174,33.2328,2.472229,-24.6765,4.537216,0.5171812,0.4315021,0.05240297,1.223861,-0.3200465,-0.1754488,0.08938581,-0.01945098,0.5382963,24.83673,31.21
3,-0.1805878,0.2025452,0.9624634,1.0,-0.1569366,0.2030945,0.9664917,-34.58089,1.227112,-21.59111,4.718124,0.6116028,0.448718,1.0,-0.2134399,0.2015839,0.9559174,33.2328,2.472229,-24.6765,4.537216,0.5171812,0.4315021,0.05240297,1.223861,-0.3200465,-0.1754488,0.08938581,-0.01945098,0.5382963,24.83673,31.21
3,-0.1482697,0.1781311,0.9727631,1.0,-0.1335449,0.1936798,0.9719238,-34.53336,1.077118,-21.55,4.704132,0.6062291,0.4544675,1.0,-0.1699066,0.1549988,0.9731903,33.33464,2.369675,-24.66472,4.295944,0.5063482,0.4417709,0.05295527,1.224291,-0.3205914,-0.1778959,0.09136088,-0.02022208,0.5382963,24.5378,31.21
3,-0.1482697,0.1781311,0.9727631,1.0,-0.1335449,0.1936798,0.9719238,-34.53336,1.077118,-21.55,4.704132,0.6062291,0.4544675,1.0,-0.1699066,0.1549988,0.9731903,33.33464,2.369675,-24.66472,4.295944,0.5063482,0.4417709,0.05295527,1.224291,-0.3205914,-0.1778959,0.09136088,-0.02022208,0.5382963,21.80992,31.21
3,-0.1440887,0.1713257,0.9746094,1.0,-0.1343842,0.1807556,0.9742889,-34.47783,1.083908,-21.69048,4.647415,0.6046982,0.4573579,1.0,-0.160553,0.1552124,0.9747314,33.38522,2.324524,-24.71655,4.342621,0.5030782,0.4436401,0.05335939,1.224623,-0.3211428,-0.1802638,0.09347199,-0.02079607,0.5382963,6.718185,31.21
3,-0.1440887,0.1713257,0.9746094,1.0,-0.1343842,0.1807556,0.9742889,-34.47783,1.083908,-21.69048,4.647415,0.6046982,0.4573579,1.0,-0.160553,0.1552124,0.9747314,33.38522,2.324524,-24.71655,4.342621,0.5030782,0.4436401,0.05335939,1.224623,-0.3211428,-0.1802638,0.09347199,-0.02079607,0.5382963,6.718185,31.21
3,-0.1514435,0.1485138,0.9772339,1.0,-0.118866,0.1652527,0.9790497,-34.43217,1.073135,-21.80338,4.629425,0.6007978,0.4609658,1.0,-0.1548004,0.1467743,0.9769745,33.47049,2.293869,-24.84346,4.308121,0.4992714,0.4470226,0.0538342,1.224966,-0.3216668,-0.1823196,0.09558105,-0.02133857,0.5382963,6.718185,31.21
3,-0.1514435,0.1485138,0.9772339,1.0,-0.118866,0.1652527,0.9790497,-34.43217,1.073135,-21.80338,4.629425,0.6007978,0.4609658,1.0,-0.1548004,0.1467743,0.9769745,33.47049,2.293869,-24.84346,4.308121,0.4992714,0.4470226,0.0538342,1.224966,-0.3216668,-0.1823196,0.09558105,-0.02133857,0.5382963,6.718185,31.21
3,-0.147171,0.1510315,0.9775085,1.0,-0.1231537,0.169342,0.977829,-34.41129,0.9370422,-21.48499,4.672195,0.6005312,0.4620685,1.0,-0.1503448,0.1485901,0.9773865,33.50024,2.284607,-24.91704,4.31752,0.4975425,0.4476389,0.0543679,1.225269,-0.3221694,-0.1844788,0.0975826,-0.02184786,0.5382963,6.718185,31.21
3,-0.147171,0.1510315,0.9775085,1.0,-0.1231537,0.169342,0.977829,-34.41129,0.9370422,-21.48499,4.672195,0.6005312,0.4620685,1.0,-0.1503448,0.1485901,0.9773865,33.50024,2.284607,-24.91704,4.31752,0.4975425,0.4476389,0.0543679,1.225269,-0.3221694,-0.1844788,0.0975826,-0.02184786,0.5382963,6.718185,31.21
3,-0.147171,0.1510315,0.9775085,1.0,-0.1231537,0.169342,0.977829,-34.41129,0.9370422,-21.48499,4.672195,0.6005312,0.4620685,1.0,-0.1503448,0.1485901,0.9773865,33.50024,2.284607,-24.91704,4.31752,0.4975425,0.4476389,0.05475032,1.22559,-0.322654,-0.1866773,0.09964034,-0.0221328,0.5382963,6.718185,31.21
3,-0.147171,0.1510315,0.9775085,1.0,-0.1231537,0.169342,0.977829,-34.41129,0.9370422,-21.48499,4.672195,0.6005312,0.4620685,1.0,-0.1503448,0.1485901,0.9773865,33.50024,2.284607,-24.91704,4.31752,0.4975425,0.4476389,0.05475032,1.22559,-0.322654,-0.1866773,0.09964034,-0.0221328,0.5382963,6.718185,31.21
3,-0.147171,0.1510315,0.9775085,1.0,-0.1231537,0.169342,0.977829,-34.41129,0.9370422,-21.48499,4.672195,0.6005312,0.4620685,1.0,-0.1503448,0.1485901,0.9773865,33.50024,2.284607,-24.91704,4.31752,0.4975425,0.4476389,0.05514908,1.225868,-0.3230765,-0.1887582,0.1016267,-0.02246392,0.5382963,6.718185,31.21
3,-0.147171,0.1510315,0.9775085,1.0,-0.1231537,0.169342,0.977829,-34.41129,0.9370422,-21.48499,4.672195,0.6005312,0.4620685,1.0,-0.1503448,0.1485901,0.9773865,33.50024,2.284607,-24.91704,4.31752,0.4975425,0.4476389,0.05514908,1.225868,-0.3230765,-0.1887582,0.1016267,-0.02246392,0.5382963,6.718185,31.21
3,-0.08528137,0.1300964,0.9878235,1.0,-0.0844574,0.1307373,0.9878082,-34.23062,0.8216095,-21.64102,4.511581,0.588636,0.4727257,1.0,-0.1141815,0.1068878,0.9876862,33.63602,2.420929,-26.03656,4.312439,0.4869251,0.4593821,0.0556041,1.226189,-0.3234485,-0.1907608,0.1038488,-0.02247288,0.5382963,6.718185,31.21
3,-0.08528137,0.1300964,0.9878235,1.0,-0.0844574,0.1307373,0.9878082,-34.23062,0.8216095,-21.64102,4.511581,0.588636,0.4727257,1.0,-0.1141815,0.1068878,0.9876862,33.63602,2.420929,-26.03656,4.312439,0.4869251,0.4593821,0.0556041,1.226189,-0.3234485,-0.1907608,0.1038488,-0.02247288,0.5382963,6.718185,31.21
3,-0.08001709,0.1338654,0.9877472,1.0,-0.07984924,0.1338959,0.9877625,-34.20958,0.7130432,-21.36487,4.641983,0.586978,0.4734781,1.0,-0.1457214,0.1220703,0.9817505,33.85072,1.662033,-23.52246,4.344406,0.4847938,0.4604702,0.05609739,1.226485,-0.3237848,-0.192666,0.1064119,-0.02203564,0.5382963,6.718185,31.21
3,-0.08001709,0.1338654,0.9877472,1.0,-0.07984924,0.1338959,0.9877625,-34.20958,0.7130432,-21.36487,4.641983,0.586978,0.4734781,1.0,-0.1457214,0.1220703,0.9817505,33.85072,1.662033,-23.52246,4.344406,0.4847938,0.4604702,0.05609739,1.226485,-0.3237848,-0.192666,0.1064119,-0.02203564,0.5382963,6.718185,31.21
3,-0.08001709,0.1338654,0.9877472,1.0,-0.07984924,0.1338959,0.9877625,-34.20958,0.7130432,-21.36487,4.641983,0.586978,0.4734781,1.0,-0.1457214,0.1220703,0.9817505,33.85072,1.662033,-23.52246,4.344406,0.4847938,0.4604702,0.05632699,1.2266,-0.3239324,-0.1934595,0.107756,-0.02187376,0.5382963,6.718185,31.21
3,-0.08001709,0.1338654,0.9877472,1.0,-0.07984924,0.1338959,0.9877625,-34.20958,0.7130432,-21.36487,4.641983,0.586978,0.4734781,1.0,-0.1457214,0.1220703,0.9817505,33.85072,1.662033,-23.52246,4.344406,0.4847938,0.4604702,0.05651939,1.226691,-0.3240809,-0.1942052,0.1091372,-0.02164985,0.5382963,-32.66473,31.21
3,-0.08001709,0.1338654,0.9877472,1.0,-0.07984924,0.1338959,0.9877625,-34.20958,0.7130432,-21.36487,4.641983,0.586978,0.4734781,1.0,-0.1457214,0.1220703,0.9817505,33.85072,1.662033,-23.52246,4.344406,0.4847938,0.4604702,0.05651939,1.226691,-0.3240809,-0.1942052,0.1091372,-0.02164985,0.5382963,-32.66473,31.21
3,-0.07032776,0.1308441,0.9888916,1.0,-0.07032776,0.1308441,0.9888916,-34.17961,0.6023102,-21.1402,4.717834,0.5842967,0.4756126,1.0,-0.1461487,0.1081848,0.9833221,33.89742,1.652313,-23.589,4.45343,0.4832368,0.4636465,0.05695105,1.226847,-0.3243608,-0.1955923,0.1117636,-0.02120548,0.5382963,-32.66473,31.21
3,-0.02685547,0.07489014,0.9968262,1.0,-0.02685547,0.07489014,0.9968262,-34.07423,0.8519592,-22.30438,4.64917,0.5748936,0.4861309,1.0,-0.1022034,0.08111572,0.9914398,34.03841,1.528473,-23.89294,4.365585,0.4712332,0.4743935,0.05741107,1.22699,-0.3245788,-0.1966355,0.1144432,-0.02074801,0.5382963,-32.66473,31.21
3,-0.02685547,0.07489014,0.9968262,1.0,-0.02685547,0.07489014,0.9968262,-34.07423,0.8519592,-22.30438,4.64917,0.5748936,0.4861309,1.0,-0.1022034,0.08111572,0.9914398,34.03841,1.528473,-23.89294,4.365585,0.4712332,0.4743935,0.05741107,1.22699,-0.3245788,-0.1966355,0.1144432,-0.02074801,0.5382963,-32.66473,31.21
3,-0.08506775,0.04463196,0.9953613,1.0,-0.0136261,0.03387451,0.9993286,-33.991,1.051941,-22.84378,4.579514,0.5705076,0.4908165,1.0,-0.08866882,0.04516602,0.9950256,34.14037,1.57988,-24.23201,4.331863,0.4655195,0.4814602,0.05755222,1.227008,-0.3247038,-0.1971581,0.1157082,-0.02051544,0.5382963,-32.66473,31.21
3,-0.001968384,0.04751587,0.9988556,1.0,-0.001968384,0.04751587,0.9988556,-33.98085,0.9863129,-22.93875,4.679657,0.5684023,0.4916398,1.0,0.0,0.0,0.0,34.20302,1.753082,-24.66261,-1.0,0.4630793,0.4791215,0.05773461,1.22707,-0.3247489,-0.1976914,0.1170438,-0.02015861,0.5382963,-32.66473,31.21
3,-0.001968384,0.04751587,0.9988556,1.0,-0.001968384,0.04751587,0.9988556,-33.98085,0.9863129,-22.93875,4.679657,0.5684023,0.4916398,1.0,0.0,0.0,0.0,34.20302,1.753082,-24.66261,-1.0,0.4630793,0.4791215,0.05773461,1.22707,-0.3247489,-0.1976914,0.1170438,-0.02015861,0.5382963,-32.66473,31.21
3,-1.0,-1.0,-1.0,0.9171435,0.0,0.0,0.0,-34.0945,1.400574,-24.21729,-1.0,0.5777444,0.4956425,0.6956386,0.0,0.0,0.0,34.16716,1.990448,-24.46039,-1.0,0.4705151,0.4958598,0.05815017,1.22719,-0.3248451,-0.1984803,0.1197131,-0.01932956,0.5382963,-32.66473,31.21
3,-1.0,-1.0,-1.0,0.9171435,0.0,0.0,0.0,-34.21907,1.900772,-25.34674,-1.0,0.5867977,0.4797761,0.6956386,0.0,0.0,0.0,33.41559,0.6067047,-24.57632,-1.0,0.4601831,0.5525802,0.05835152,1.22724,-0.3248371,-0.1988098,0.1211159,-0.01892838,0.5382963,-32.66473,31.21
3,-1.0,-1.0,-1.0,0.9171435,0.0,0.0,0.0,-34.21907,1.900772,-25.34674,-1.0,0.5867977,0.4797761,0.6956386,0.0,0.0,0.0,33.41559,0.6067047,-24.57632,-1.0,0.4601831,0.5525802,0.05835152,1.22724,-0.3248371,-0.1988098,0.1211159,-0.01892838,0.5382963,-32.66473,31.21
3,-1.0,-1.0,-1.0,0.6550772,0.0,0.0,0.0,-34.40895,2.428711,-26.22662,-1.0,0.5988323,0.4671868,0.4343524,0.0,0.0,0.0,34.39113,0.6089478,-24.48352,-1.0,0.02428758,0.7254295,0.05879879,1.227326,-0.3248167,-0.1995301,0.1237183,-0.01816306,0.5382963,-32.66473,31.21
3,-1.0,-1.0,-1.0,0.6588528,0.0,0.0,0.0,-34.47583,1.589493,-22.49132,-1.0,0.6066722,0.4544017,0.4282064,0.0,0.0,0.0,33.78998,2.845734,-33.75191,-1.0,0.4971775,0.5033747,0.05895543,1.227353,-0.3249046,-0.1997416,0.1249787,-0.01781599,0.5382963,-32.66473,31.21
3,-1.0,-1.0,-1.0,0.7376012,0.0,0.0,0.0,-34.51877,1.46698,-22.14967,-1.0,0.6114239,0.4527944,0.5472337,0.0,0.0,0.0,33.29489,2.383774,-24.57109,-1.0,0.5187395,0.4411892,0.05911565,1.227363,-0.3249085,-0.1997557,0.1261352,-0.01745563,0.5382963,-32.66473,31.21
3,-1.0,-1.0,-1.0,0.7376012,0.0,0.0,0.0,-34.51877,1.46698,-22.14967,-1.0,0.6114239,0.4527944,0.5472337,0.0,0.0,0.0,33.29489,2.383774,-24.57109,-1.0,0.5187395,0.4411892,0.05911565,1.227363,-0.3249085,-0.1997557,0.1261352,-0.01745563,0.5382963,-32.66473,31.21
3,-1.0,-1.0,-1.0,0.8537472,0.0,0.0,0.0,-34.44589,1.343155,-22.29034,-1.0,0.6081743,0.4543962,0.6927068,0.0,0.0,0.0,33.38985,2.340164,-24.57928,-1.0,0.5166625,0.4419075,0.05937183,1.227348,-0.3249519,-0.1997362,0.1282737,-0.01654627,0.5382963,5.676971,31.21
3,-1.0,-1.0,-1.0,0.8537472,0.0,0.0,0.0,-34.44589,1.343155,-22.29034,-1.0,0.6081743,0.4543962,0.6927068,0.0,0.0,0.0,33.38985,2.340164,-24.57928,-1.0,0.5166625,0.4419075,0.05957007,1.227375,-0.3248738,-0.1996862,0.129263,-0.0162679,0.5382963,5.676971,31.21
3,-1.0,-1.0,-1.0,0.8537472,0.0,0.0,0.0,-34.44589,1.343155,-22.29034,-1.0,0.6081743,0.4543962,0.6927068,0.0,0.0,0.0,33.38985,2.340164,-24.57928,-1.0,0.5166625,0.4419075,0.05957007,1.227375,-0.3248738,-0.1996862,0.129263,-0.0162679,0.5382963,5.676971,31.21
3,-1.0,-1.0,-1.0,0.8537472,0.0,0.0,0.0,-34.44589,1.343155,-22.29034,-1.0,0.6081743,0.4543962,0.6927068,0.0,0.0,0.0,33.38985,2.340164,-24.57928,-1.0,0.5166625,0.4419075,0.0598799,1.227364,-0.3248832,-0.1997456,0.1312628,-0.01569494,0.5382963,5.676971,31.21
3,-1.0,-1.0,-1.0,0.8537472,0.0,0.0,0.0,-34.44589,1.343155,-22.29034,-1.0,0.6081743,0.4543962,0.6927068,0.0,0.0,0.0,33.38985,2.340164,-24.57928,-1.0,0.5166625,0.4419075,0.05998397,1.227346,-0.3248806,-0.1997067,0.1321803,-0.0154707,0.5382963,5.676971,31.21
3,-1.0,-1.0,-1.0,0.8537472,0.0,0.0,0.0,-34.44589,1.343155,-22.29034,-1.0,0.6081743,0.4543962,0.6927068,0.0,0.0,0.0,33.38985,2.340164,-24.57928,-1.0,0.5166625,0.4419075,0.06013548,1.227249,-0.3249245,-0.1995627,0.1338084,-0.01508347,0.5382963,5.676971,31.21
3,-1.0,-1.0,-1.0,0.8537472,0.0,0.0,0.0,-34.44589,1.343155,-22.29034,-1.0,0.6081743,0.4543962,0.6927068,0.0,0.0,0.0,33.38985,2.340164,-24.57928,-1.0,0.5166625,0.4419075,0.06013548,1.227249,-0.3249245,-0.1995627,0.1338084,-0.01508347,0.5382963,5.676971,31.21
3,-0.08660889,0.1291809,0.9878235,1.0,-0.08660889,0.1291809,0.9878235,-34.37732,1.421066,-23.09933,4.129669,0.5950767,0.465762,1.0,-0.155426,0.1373291,0.978241,33.57877,2.143173,-24.76352,4.053207,0.4957992,0.4525656,0.06023681,1.227257,-0.3249284,-0.19955,0.1346679,-0.0149923,0.5382963,5.676971,31.21
3,-0.1422272,0.1189728,0.9826508,1.0,-0.08711243,0.1502533,0.984787,-34.31149,0.9432373,-21.87634,4.226563,0.5919301,0.467484,1.0,-0.1422272,0.1189728,0.9826508,33.6416,2.178299,-25.09296,3.938568,0.491509,0.4570533,0.0603739,1.227279,-0.3249487,-0.1996097,0.1353288,-0.01482438,0.5382963,5.676971,31.21
3,-0.1422272,0.1189728,0.9826508,1.0,-0.08711243,0.1502533,0.984787,-34.31149,0.9432373,-21.87634,4.226563,0.5919301,0.467484,1.0,-0.1422272,0.1189728,0.9826508,33.6416,2.178299,-25.09296,3.938568,0.491509,0.4570533,0.0603739,1.227279,-0.3249487,-0.1996097,0.1353288,-0.01482438,0.5382963,5.676971,31.21
3,-0.1352234,0.1107941,0.9845886,1.0,-0.0821228,0.1369934,0.9871521,-34.25446,0.8835754,-21.77538,4.202988,0.5891919,0.4705716,1.0,-0.1352234,0.1107941,0.9845886,33.69449,2.107727,-24.95442,3.90097,0.4885262,0.4594538,0.06050098,1.227289,-0.3249431,-0.1997052,0.1361706,-0.01468451,0.5382963,5.676971,31.21
3,-0.1299744,0.1110687,0.98526,1.0,-0.0735321,0.1294098,0.9888458,-34.22093,0.8594513,-21.76596,4.117432,0.5867253,0.4723399,1.0,-0.1299744,0.1110687,0.98526,33.75166,2.030334,-24.81404,3.912201,0.4857104,0.4607199,0.06065297,1.227305,-0.3250079,-0.1998048,0.1374308,-0.01460157,0.5382963,5.676971,31.21
3,-0.1287689,0.1020355,0.9864044,1.0,-0.06971741,0.1228333,0.9899597,-34.17897,0.6724548,-21.31113,4.086761,0.5843784,0.4754396,1.0,-0.1292114,0.1018829,0.9863586,33.8078,1.985672,-24.82208,3.879211,0.4836864,0.4637205,0.06070662,1.227284,-0.3250496,-0.19992,0.1379887,-0.01451149,0.5382963,5.676971,31.21
3,-0.1287689,0.1020355,0.9864044,1.0,-0.06971741,0.1228333,0.9899597,-34.17897,0.6724548,-21.31113,4.086761,0.5843784,0.4754396,1.0,-0.1292114,0.1018829,0.9863586,33.8078,1.985672,-24.82208,3.879211,0.4836864,0.4637205,0.06070662,1.227284,-0.3250496,-0.19992,0.1379887,-0.01451149,0.5382963,5.676971,31.21
3,-0.1148834,0.09429932,0.9888763,1.0,-0.04371643,0.1078186,0.9931946,-34.22202,0.9512177,-22.25606,4.048218,0.5823435,0.476803,1.0,-0.1204529,0.09321594,0.988327,33.84308,1.892258,-24.58565,3.820236,0.4810137,0.4660682,0.06084692,1.22726,-0.3251553,-0.200164,0.1391427,-0.01434002,0.5382963,5.676971,31.21
3,-0.1148834,0.09429932,0.9888763,1.0,-0.04371643,0.1078186,0.9931946,-34.22202,0.9512177,-22.25606,4.048218,0.5823435,0.476803,1.0,-0.1204529,0.09321594,0.988327,33.84308,1.892258,-24.58565,3.820236,0.4810137,0.4660682,0.06084692,1.22726,-0.3251553,-0.200164,0.1391427,-0.01434002,0.5382963,5.676971,31.21
3,-0.1183472,0.08752441,0.9891052,1.0,-0.03797913,0.09367371,0.994873,-34.17795,0.9300079,-22.27583,4.04718,0.5800154,0.4799053,1.0,-0.1197357,0.0874176,0.9889374,33.88651,1.821686,-24.45889,3.888931,0.4793934,0.4683091,0.06096995,1.227308,-0.3252586,-0.2005679,0.1400639,-0.01429161,0.5382963,6.706696,31.21
3,-0.1183929,0.07978821,0.9897461,1.0,-0.05570984,0.09933472,0.9934845,-34.07794,0.6774597,-21.58453,4.102463,0.5791053,0.4812627,1.0,-0.1198883,0.07931519,0.9896088,33.94586,1.709869,-24.21223,3.8414,0.4774207,0.4711156,0.06096995,1.227308,-0.3252586,-0.2005679,0.1400639,-0.01429161,0.5382963,6.706696,31.21
3,-0.1161499,0.07958984,0.990036,1.0,-0.02520752,0.07894897,0.9965515,-34.0974,0.8233185,-22.13293,4.037369,0.5752529,0.4843977,1.0,-0.116684,0.07958984,0.9899597,34.00215,1.657654,-24.1304,3.787506,0.4750286,0.4719959,0.06100547,1.227296,-0.3253942,-0.2007615,0.1407499,-0.01444355,0.5382963,6.706696,31.21
3,-0.1161499,0.07958984,0.990036,1.0,-0.02520752,0.07894897,0.9965515,-34.0974,0.8233185,-22.13293,4.037369,0.5752529,0.4843977,1.0,-0.116684,0.07958984,0.9899597,34.00215,1.657654,-24.1304,3.787506,0.4750286,0.4719959,0.06100547,1.227296,-0.3253942,-0.2007615,0.1407499,-0.01444355,0.5382963,6.706696,31.21
3,-0.1074219,0.07783508,0.9911499,1.0,-0.02937317,0.07756042,0.9965515,-34.04379,0.7942963,-22.14995,4.050507,0.574212,0.4856862,1.0,-0.1147003,0.07783508,0.9903412,34.03036,1.602219,-24.09515,3.805801,0.4737384,0.4737958,0.06100404,1.227351,-0.3255749,-0.2011478,0.1414182,-0.01458676,0.5382963,6.706696,31.21
3,-0.08944702,0.07589722,0.9930878,1.0,-0.01997375,0.06233215,0.9978485,-34.02405,0.8975677,-22.4895,4.057846,0.5723197,0.4877239,1.0,-0.1117249,0.08018494,0.9904938,34.08054,1.442017,-23.72549,3.688507,0.4716092,0.4753169,0.06113541,1.227409,-0.3257489,-0.2015073,0.1420383,-0.01446726,0.5382963,6.706696,31.21
3,-0.08944702,0.07589722,0.9930878,1.0,-0.01997375,0.06233215,0.9978485,-34.02405,0.8975677,-22.4895,4.057846,0.5723197,0.4877239,1.0,-0.1117249,0.08018494,0.9904938,34.08054,1.442017,-23.72549,3.688507,0.4716092,0.4753169,0.06113541,1.227409,-0.3257489,-0.2015073,0.1420383,-0.01446726,0.5382963,6.706696,31.21
3,-0.07556152,0.06848145,0.9947815,1.0,-0.01309204,0.05940247,0.9981384,-33.99229,0.8540344,-22.45859,4.031525,0.5701684,0.4892856,1.0,-0.1054993,0.07275391,0.991745,34.12851,1.359451,-23.58823,3.774902,0.4689336,0.4780741,0.0613066,1.227479,-0.3258983,-0.2017945,0.1423747,-0.01452483,0.5382963,6.706696,31.21
3,-0.07556152,0.06848145,0.9947815,1.0,-0.01309204,0.05940247,0.9981384,-33.99229,0.8540344,-22.45859,4.031525,0.5701684,0.4892856,1.0,-0.1054993,0.07275391,0.991745,34.12851,1.359451,-23.58823,3.774902,0.4689336,0.4780741,0.0613066,1.227479,-0.3258983,-0.2017945,0.1423747,-0.01452483,0.5382963,6.706696,31.21
3,-0.01060486,0.04556274,0.9989014,1.0,-0.007461548,0.04525757,0.9989471,-33.93515,0.7962952,-22.44336,4.021393,0.5674066,0.4932466,1.0,-0.102829,0.05432129,0.9932098,34.17055,1.301178,-23.52599,3.828674,0.4670289,0.4825077,0.0614239,1.227595,-0.326055,-0.2020805,0.1425381,-0.0148093,0.5382963,6.706696,31.21
3,-0.01060486,0.04556274,0.9989014,1.0,-0.007461548,0.04525757,0.9989471,-33.93515,0.7962952,-22.44336,4.021393,0.5674066,0.4932466,1.0,-0.102829,0.05432129,0.9932098,34.17055,1.301178,-23.52599,3.828674,0.4670289,0.4825077,0.0614239,1.227595,-0.326055,-0.2020805,0.1425381,-0.0148093,0.5382963,6.706696,31.21
3,-0.08857727,0.04116821,0.9952087,1.0,-0.001098633,0.03465271,0.9993896,-33.8801,1.009491,-23.14304,3.948486,0.565099,0.4941034,1.0,-0.09130859,0.04136658,0.9949493,34.19302,1.403259,-23.85318,3.845917,0.4643281,0.4841197,0.06150091,1.227653,-0.3262396,-0.2025573,0.1427844,-0.01515689,0.5382963,6.706696,31.21
3,-0.08857727,0.04116821,0.9952087,1.0,-0.001098633,0.03465271,0.9993896,-33.8801,1.009491,-23.14304,3.948486,0.565099,0.4941034,1.0,-0.09130859,0.04136658,0.9949493,34.19302,1.403259,-23.85318,3.845917,0.4643281,0.4841197,0.06150091,1.227653,-0.3262396,-0.2025573,0.1427844,-0.01515689,0.5382963,6.706696,31.21
3,-0.09197998,0.04034424,0.9949341,1.0,0.0004577637,0.0453186,0.9989624,-33.85019,0.7193909,-22.64842,3.928696,0.5635324,0.4973594,1.0,-0.09208679,0.04034424,0.9949188,34.25113,1.232971,-23.54526,3.822205,0.4625398,0.4871444,0.06156516,1.227666,-0.3264513,-0.2031812,0.1431107,-0.01535225,0.5382963,6.706696,31.21
3,-0.09197998,0.04034424,0.9949341,1.0,0.0004577637,0.0453186,0.9989624,-33.85019,0.7193909,-22.64842,3.928696,0.5635324,0.4973594,1.0,-0.09208679,0.04034424,0.9949188,34.25113,1.232971,-23.54526,3.822205,0.4625398,0.4871444,0.06156516,1.227666,-0.3264513,-0.2031812,0.1431107,-0.01535225,0.5382963,6.706696,31.21
3,-0.08398438,0.02734375,0.9960785,1.0,-0.002258301,0.0234375,0.9997101,-33.77695,0.7756805,-22.84404,3.852066,0.5617367,0.500722,1.0,-0.0844574,0.02735901,0.996048,34.26784,1.223709,-23.54932,3.854568,0.4606821,0.4896123,0.06172812,1.227681,-0.326622,-0.2037381,0.1433031,-0.01567974,0.5382963,6.706696,31.21
3,-0.08398438,0.02734375,0.9960785,1.0,-0.002258301,0.0234375,0.9997101,-33.77695,0.7756805,-22.84404,3.852066,0.5617367,0.500722,1.0,-0.0844574,0.02735901,0.996048,34.26784,1.223709,-23.54932,3.854568,0.4606821,0.4896123,0.06172812,1.227681,-0.326622,-0.2037381,0.1433031,-0.01567974,0.5382963,8.809433,31.21
3,-0.07012939,0.01034546,0.9974823,1.0,0.005813599,0.02339172,0.9996948,-33.74623,0.734314,-22.81102,3.885529,0.5594223,0.5017855,1.0,-0.07850647,0.008895874,0.9968719,34.3112,1.216202,-23.74701,3.748795,0.4582139,0.4945468,0.06196964,1.227804,-0.3267884,-0.20424,0.1433626,-0.01600658,0.5382963,8.661057,31.21
3,-0.07012939,0.01034546,0.9974823,1.0,0.005813599,0.02339172,0.9996948,-33.74623,0.734314,-22.81102,3.885529,0.5594223,0.5017855,1.0,-0.07850647,0.008895874,0.9968719,34.3112,1.216202,-23.74701,3.748795,0.4582139,0.4945468,0.06196964,1.227804,-0.3267884,-0.20424,0.1433626,-0.01600658,0.5382963,8.661057,31.21
3,-0.06729126,0.02511597,0.997406,1.0,-0.0164032,0.01261902,0.9997711,-33.93301,0.7624817,-22.62961,3.921432,0.568892,0.5011415,1.0,-0.1038361,0.03408813,0.9940033,34.0701,1.246536,-23.50972,3.853088,0.4704411,0.4875488,0.0621016,1.227876,-0.3269335,-0.2047188,0.1435507,-0.01646773,0.5382963,8.661057,31.21
3,-0.06729126,0.02511597,0.997406,1.0,-0.0164032,0.01261902,0.9997711,-33.93301,0.7624817,-22.62961,3.921432,0.568892,0.5011415,1.0,-0.1038361,0.03408813,0.9940033,34.0701,1.246536,-23.50972,3.853088,0.4704411,0.4875488,0.0621016,1.227876,-0.3269335,-0.2047188,0.1435507,-0.01646773,0.5382963,8.661057,31.21
4,-0.1303253,0.05796814,0.9897614,1.0,-0.06945801,0.07684326,0.9946136,-34.10037,0.4994812,-21.46822,3.935867,0.5819091,0.4893801,1.0,-0.1303253,0.05796814,0.9897614,33.77335,1.55777,-23.74687,3.814316,0.4847785,0.475656,0.06220734,1.227886,-0.3270568,-0.2052339,0.1433914,-0.01698182,0.5382963,8.661057,31.21
4,-0.1303253,0.05796814,0.9897614,1.0,-0.06945801,0.07684326,0.9946136,-34.10037,0.4994812,-21.46822,3.935867,0.5819091,0.4893801,1.0,-0.1303253,0.05796814,0.9897614,33.77335,1.55777,-23.74687,3.814316,0.4847785,0.475656,0.06220734,1.227886,-0.3270568,-0.2052339,0.1433914,-0.01698182,0.5382963,8.661057,31.21
4,-0.1273651,0.06175232,0.9899292,1.0,-0.06442261,0.07531738,0.9950714,-34.10677,0.4502258,-21.35155,3.978867,0.5812051,0.4902183,1.0,-0.1273651,0.06175232,0.9899292,33.81085,1.45166,-23.56287,3.755157,0.4830486,0.4768288,0.06234109,1.227905,-0.3271418,-0.2055563,0.1434184,-0.01722014,0.5382963,8.661057,31.21
4,-0.1273651,0.06175232,0.9899292,1.0,-0.06442261,0.07531738,0.9950714,-34.10677,0.4502258,-21.35155,3.978867,0.5812051,0.4902183,1.0,-0.1273651,0.06175232,0.9899292,33.81085,1.45166,-23.56287,3.755157,0.4830486,0.4768288,0.06234109,1.227905,-0.3271418,-0.2055563,0.1434184,-0.01722014,0.5382963,8.661057,31.21
4,-0.1273651,0.06175232,0.9899292,1.0,-0.06442261,0.07531738,0.9950714,-34.10677,0.4502258,-21.35155,3.978867,0.5812051,0.4902183,1.0,-0.1273651,0.06175232,0.9899292,33.81085,1.45166,-23.56287,3.755157,0.4830486,0.4768288,0.06245482,1.227976,-0.3272134,-0.2058641,0.1434689,-0.01744367,0.5382963,8.661057,31.21
4,-0.1273651,0.06175232,0.9899292,1.0,-0.06442261,0.07531738,0.9950714,-34.10677,0.4502258,-21.35155,3.978867,0.5812051,0.4902183,1.0,-0.1273651,0.06175232,0.9899292,33.81085,1.45166,-23.56287,3.755157,0.4830486,0.4768288,0.06245482,1.227976,-0.3272134,-0.2058641,0.1434689,-0.01744367,0.5382963,8.661057,31.21
4,-0.1160736,0.02435303,0.9929352,1.0,-0.04127502,0.04067993,0.9983063,-34.07811,0.4346313,-21.71353,4.061996,0.5768372,0.499341,1.0,-0.1160736,0.02435303,0.9929352,33.92752,1.475037,-23.97263,3.784119,0.47721,0.4857603,0.06256688,1.228056,-0.3273401,-0.2062089,0.1437219,-0.01748335,0.5382963,8.661057,31.21
4,-0.1160736,0.02435303,0.9929352,1.0,-0.04127502,0.04067993,0.9983063,-34.07811,0.4346313,-21.71353,4.061996,0.5768372,0.499341,1.0,-0.1160736,0.02435303,0.9929352,33.92752,1.475037,-23.97263,3.784119,0.47721,0.4857603,0.06256688,1.228056,-0.3273401,-0.2062089,0.1437219,-0.01748335,0.5382963,8.661057,31.21
4,-0.1160736,0.02435303,0.9929352,1.0,-0.04127502,0.04067993,0.9983063,-34.07811,0.4346313,-21.71353,4.061996,0.5768372,0.499341,1.0,-0.1160736,0.02435303,0.9929352,33.92752,1.475037,-23.97263,3.784119,0.47721,0.4857603,0.06256688,1.228056,-0.3273401,-0.2062089,0.1437219,-0.01748335,0.5382963,8.661057,31.21
4,-0.1160736,0.02435303,0.9929352,1.0,-0.04127502,0.04067993,0.9983063,-34.07811,0.4346313,-21.71353,4.061996,0.5768372,0.499341,1.0,-0.1160736,0.02435303,0.9929352,33.92752,1.475037,-23.97263,3.784119,0.47721,0.4857603,0.06256688,1.228056,-0.3273401,-0.2062089,0.1437219,-0.01748335,0.5382963,8.661057,31.21
4,-0.1160736,0.02435303,0.9929352,1.0,-0.04127502,0.04067993,0.9983063,-34.07811,0.4346313,-21.71353,4.061996,0.5768372,0.499341,1.0,-0.1160736,0.02435303,0.9929352,33.92752,1.475037,-23.97263,3.784119,0.47721,0.4857603,0.06264269,1.228099,-0.327419,-0.2064482,0.144005,-0.01760777,0.5382963,-23.5025,31.21
4,-0.1160736,0.02435303,0.9929352,1.0,-0.04127502,0.04067993,0.9983063,-34.07811,0.4346313,-21.71353,4.061996,0.5768372,0.499341,1.0,-0.1160736,0.02435303,0.9929352,33.92752,1.475037,-23.97263,3.784119,0.47721,0.4857603,0.06269348,1.228104,-0.3274245,-0.2065462,0.1440706,-0.01776448,0.5382963,-23.5025,31.21
4,-0.1160736,0.02435303,0.9929352,1.0,-0.04127502,0.04067993,0.9983063,-34.07811,0.4346313,-21.71353,4.061996,0.5768372,0.499341,1.0,-0.1160736,0.02435303,0.9929352,33.92752,1.475037,-23.97263,3.784119,0.47721,0.4857603,0.06269348,1.228104,-0.3274245,-0.2065462,0.1440706,-0.01776448,0.5382963,-23.5025,31.21
4,-0.1175079,0.02593994,0.9927216,1.0,-0.04093933,0.03779602,0.9984436,-34.06981,0.4377747,-21.75296,4.026337,0.5765514,0.5000171,1.0,-0.1175232,0.02592468,0.9927216,33.9366,1.478439,-24.04091,3.765747,0.4771591,0.4859816,0.06276882,1.228037,-0.3275155,-0.2065796,0.1440764,-0.01783982,0.5382963,-23.5025,31.21
4,-0.1175079,0.02593994,0.9927216,1.0,-0.04093933,0.03779602,0.9984436,-34.06981,0.4377747,-21.75296,4.026337,0.5765514,0.5000171,1.0,-0.1175232,0.02592468,0.9927216,33.9366,1.478439,-24.04091,3.765747,0.4771591,0.4859816,0.06272352,1.228033,-0.3274747,-0.2066004,0.1440917,-0.01796342,0.5382963,-23.5025,31.21
4,-0.1175079,0.02593994,0.9927216,1.0,-0.04093933,0.03779602,0.9984436,-34.06981,0.4377747,-21.75296,4.026337,0.5765514,0.5000171,1.0,-0.1175232,0.02592468,0.9927216,33.9366,1.478439,-24.04091,3.765747,0.4771591,0.4859816,0.06272352,1.228033,-0.3274747,-0.2066004,0.1440917,-0.01796342,0.5382963,-23.5025,31.21
4,-0.1175079,0.02593994,0.9927216,1.0,-0.04093933,0.03779602,0.9984436,-34.06981,0.4377747,-21.75296,4.026337,0.5765514,0.5000171,1.0,-0.1175232,0.02592468,0.9927216,33.9366,1.478439,-24.04091,3.765747,0.4771591,0.4859816,0.06276894,1.228042,-0.3274388,-0.2067377,0.1440616,-0.018073,0.5382963,-23.5025,31.21
4,-0.1175079,0.02593994,0.9927216,1.0,-0.04093933,0.03779602,0.9984436,-34.06981,0.4377747,-21.75296,4.026337,0.5765514,0.5000171,1.0,-0.1175232,0.02592468,0.9927216,33.9366,1.478439,-24.04091,3.765747,0.4771591,0.4859816,0.06276894,1.228042,-0.3274388,-0.2067377,0.1440616,-0.018073,0.5382963,-23.5025,31.21
4,-0.06840515,0.0116272,0.9975891,1.0,-0.01902771,0.0110321,0.9997559,-34.04166,0.5749817,-22.40714,3.912018,0.57263,0.5054545,1.0,-0.09509277,0.01193237,0.9953918,33.98805,1.581345,-25.17274,3.687958,0.4716589,0.4947479,0.06283712,1.228054,-0.3273171,-0.2066064,0.1440594,-0.01814459,0.5382963,-23.5025,31.21
4,-0.06840515,0.0116272,0.9975891,1.0,-0.01902771,0.0110321,0.9997559,-34.04166,0.5749817,-22.40714,3.912018,0.57263,0.5054545,1.0,-0.09509277,0.01193237,0.9953918,33.98805,1.581345,-25.17274,3.687958,0.4716589,0.4947479,0.06283712,1.228054,-0.3273171,-0.2066064,0.1440594,-0.01814459,0.5382963,-23.5025,31.21
4,-0.09165955,-0.00050354,0.9957886,1.0,-0.009017944,-0.007522583,0.9999237,-33.89888,0.6276855,-23.08986,3.920746,0.5669181,0.5127541,1.0,-0.09165955,-0.00050354,0.9957886,34.14215,1.102188,-23.76724,3.656174,0.46595,0.5000573,0.06288683,1.227945,-0.3272475,-0.2062597,0.1441455,-0.01844878,0.5382963,-23.5025,31.21
4,-0.09165955,-0.00050354,0.9957886,1.0,-0.009017944,-0.007522583,0.9999237,-33.89888,0.6276855,-23.08986,3.920746,0.5669181,0.5127541,1.0,-0.09165955,-0.00050354,0.9957886,34.14215,1.102188,-23.76724,3.656174,0.46595,0.5000573,0.06288683,1.227945,-0.3272475,-0.2062597,0.1441455,-0.01844878,0.5382963,-23.5025,31.21
4,-0.09550476,-0.004730225,0.9954071,1.0,-0.009613037,-0.01622009,0.9998169,-33.85182,0.6237488,-23.27817,3.933472,0.5656223,0.5159659,1.0,-0.09561157,-0.004714966,0.9953918,34.17065,1.088715,-23.7905,3.686737,0.4656377,0.5014365,0.06286442,1.227873,-0.3271008,-0.2058494,0.1440397,-0.01862603,0.5382963,-23.5025,31.21
4,-0.09550476,-0.004730225,0.9954071,1.0,-0.009613037,-0.01622009,0.9998169,-33.85182,0.6237488,-23.27817,3.933472,0.5656223,0.5159659,1.0,-0.09561157,-0.004714966,0.9953918,34.17065,1.088715,-23.7905,3.686737,0.4656377,0.5014365,0.06286442,1.227873,-0.3271008,-0.2058494,0.1440397,-0.01862603,0.5382963,-23.5025,31.21
4,-0.09761047,-0.007858276,0.9951782,1.0,-0.0138855,-0.02229309,0.999649,-33.81618,0.5829315,-23.2529,3.955688,0.5651364,0.5180572,1.0,-0.09770203,-0.007843018,0.9951782,34.19395,1.076279,-23.82397,3.687408,0.4651982,0.5026798,0.06273448,1.227816,-0.3270044,-0.2055825,0.1438109,-0.01832397,0.5382963,-23.5025,31.21
4,-0.09761047,-0.007858276,0.9951782,1.0,-0.0138855,-0.02229309,0.999649,-33.81618,0.5829315,-23.2529,3.955688,0.5651364,0.5180572,1.0,-0.09770203,-0.007843018,0.9951782,34.19395,1.076279,-23.82397,3.687408,0.4651982,0.5026798,0.06273448,1.227816,-0.3270044,-0.2055825,0.1438109,-0.01832397,0.5382963,-23.5025,31.21
4,-0.09002686,-0.01083374,0.9958649,1.0,-0.01091003,-0.01683044,0.9997864,-33.80525,0.5512543,-23.2435,3.792267,0.5642931,0.5179838,1.0,-0.09190369,-0.01068115,0.995697,34.20384,1.076157,-23.86014,3.691925,0.4638983,0.5034562,0.06265223,1.227761,-0.3269794,-0.2052007,0.1437643,-0.01824655,0.5382963,-6.102081,31.21
4,-0.09002686,-0.01083374,0.9958649,1.0,-0.01091003,-0.01683044,0.9997864,-33.80525,0.5512543,-23.2435,3.792267,0.5642931,0.5179838,1.0,-0.09190369,-0.01068115,0.995697,34.20384,1.076157,-23.86014,3.691925,0.4638983,0.5034562,0.06265223,1.227761,-0.3269794,-0.2052007,0.1437643,-0.01824655,0.5382963,-6.102081,31.21
4,-0.07495117,-0.03741455,0.9964752,1.0,-0.009963989,-0.01832581,0.9997711,-33.78955,0.5623779,-23.39214,3.883514,0.5637366,0.5192477,1.0,-0.07626343,-0.03779602,0.9963684,34.28804,1.10556,-24.14926,3.783142,0.4583947,0.509599,0.06266415,1.227716,-0.3269557,-0.204943,0.1436728,-0.01832804,0.5382963,-6.102081,31.21
4,-0.08145142,-0.04528809,0.995636,1.0,-0.01179504,-0.02215576,0.9996796,-33.76593,0.5831909,-23.50743,3.921219,0.5633478,0.5202587,1.0,-0.08358765,-0.04598999,0.9954224,34.31299,1.112823,-24.15282,3.701416,0.4587833,0.510755,0.06263363,1.227675,-0.3269154,-0.2048131,0.1436519,-0.01825431,0.5382963,-6.102081,31.21
4,-0.08145142,-0.04528809,0.995636,1.0,-0.01179504,-0.02215576,0.9996796,-33.76593,0.5831909,-23.50743,3.921219,0.5633478,0.5202587,1.0,-0.08358765,-0.04598999,0.9954224,34.31299,1.112823,-24.15282,3.701416,0.4587833,0.510755,0.06263363,1.227675,-0.3269154,-0.2048131,0.1436519,-0.01825431,0.5382963,-6.102081,31.21
4,-0.07240295,-0.05232239,0.9959869,1.0,-0.01025391,-0.02848816,0.999527,-33.78793,0.467392,-23.04059,3.872345,0.5634871,0.5208553,1.0,-0.07830811,-0.05456543,0.9954224,34.33203,1.172104,-24.33687,3.672867,0.4572465,0.5118555,0.06262672,1.227651,-0.3268811,-0.2048894,0.1435316,-0.01810307,0.5382963,-6.102081,31.21
4,-0.07240295,-0.05232239,0.9959869,1.0,-0.01025391,-0.02848816,0.999527,-33.78793,0.467392,-23.04059,3.872345,0.5634871,0.5208553,1.0,-0.07830811,-0.05456543,0.9954224,34.33203,1.172104,-24.33687,3.672867,0.4572465,0.5118555,0.06257832,1.227668,-0.3268607,-0.2048203,0.143594,-0.01794517,0.5382963,-6.102081,31.21
4,-0.07240295,-0.05232239,0.9959869,1.0,-0.01025391,-0.02848816,0.999527,-33.78793,0.467392,-23.04059,3.872345,0.5634871,0.5208553,1.0,-0.07830811,-0.05456543,0.9954224,34.33203,1.172104,-24.33687,3.672867,0.4572465,0.5118555,0.06257832,1.227668,-0.3268607,-0.2048203,0.143594,-0.01794517,0.5382963,-6.102081,31.21
4,-0.07240295,-0.05232239,0.9959869,1.0,-0.01025391,-0.02848816,0.999527,-33.78793,0.467392,-23.04059,3.872345,0.5634871,0.5208553,1.0,-0.07830811,-0.05456543,0.9954224,34.33203,1.172104,-24.33687,3.672867,0.4572465,0.5118555,0.06257832,1.227668,-0.3268607,-0.2048203,0.143594,-0.01794517,0.5382963,-6.102081,31.21
4,-0.07240295,-0.05232239,0.9959869,1.0,-0.01025391,-0.02848816,0.999527,-33.78793,0.467392,-23.04059,3.872345,0.5634871,0.5208553,1.0,-0.07830811,-0.05456543,0.9954224,34.33203,1.172104,-24.33687,3.672867,0.4572465,0.5118555,0.06250727,1.227667,-0.3268054,-0.2047573,0.1434287,-0.01788986,0.5382963,-6.102081,31.21
4,-1.0,-1.0,-1.0,1.0,0.0,0.0,0.0,-33.81509,0.7621002,-22.8185,-1.0,0.5640283,0.509901,1.0,0.0,0.0,0.0,34.23737,-0.2015533,-24.18213,-1.0,0.4607028,0.5911437,0.06251335,1.227617,-0.3267813,-0.2046783,0.1434146,-0.01786361,0.5382963,-6.102081,31.21
4,-1.0,-1.0,-1.0,1.0,0.0,0.0,0.0,-33.81509,0.7621002,-22.8185,-1.0,0.5640283,0.509901,1.0,0.0,0.0,0.0,34.23737,-0.2015533,-24.18213,-1.0,0.4607028,0.5911437,0.06251335,1.227617,-0.3267813,-0.2046783,0.1434146,-0.01786361,0.5382963,-6.102081,31.21
4,-1.0,-1.0,-1.0,0.6273769,0.0,0.0,0.0,-33.64526,1.142151,-23.55437,-1.0,0.5583071,0.4957496,0.2944775,0.0,0.0,0.0,33.63382,0.3090363,-24.13535,-1.0,0.4788257,0.5670601,0.0625037,1.227614,-0.3267667,-0.2047986,0.1432831,-0.01788112,0.5382963,-6.102081,31.21
4,-1.0,-1.0,-1.0,0.6688086,0.0,0.0,0.0,-33.50975,1.178711,-23.45395,-1.0,0.5522543,0.4917033,0.3225494,0.0,0.0,0.0,34.58569,1.520645,-23.14371,-1.0,0.4708498,0.498689,0.06245267,1.227689,-0.3267527,-0.2049314,0.1432138,-0.01791317,0.5382963,-6.102081,31.21
4,-1.0,-1.0,-1.0,0.6688086,0.0,0.0,0.0,-33.50975,1.178711,-23.45395,-1.0,0.5522543,0.4917033,0.3225494,0.0,0.0,0.0,34.58569,1.520645,-23.14371,-1.0,0.4708498,0.498689,0.06245267,1.227689,-0.3267527,-0.2049314,0.1432138,-0.01791317,0.5382963,-6.102081,31.21
4,-1.0,-1.0,-1.0,0.7148398,0.0,0.0,0.0,-33.5,1.300262,-23.79192,-1.0,0.5481532,0.4877676,0.4844072,0.0,0.0,0.0,34.6488,1.355759,-22.75946,-1.0,0.4440872,0.4963398,0.06238878,1.227726,-0.3267515,-0.2049213,0.1432388,-0.01776364,0.5382963,-6.102081,31.21
4,-1.0,-1.0,-1.0,0.8019997,0.0,0.0,0.0,-33.50392,1.156021,-23.54823,-1.0,0.5498182,0.493553,0.576898,0.0,0.0,0.0,34.66608,1.630859,-24.09743,-1.0,0.4435439,0.4833481,0.06237566,1.227713,-0.3267273,-0.2049094,0.1432786,-0.01780219,0.5382963,7.983276,31.21
4,-1.0,-1.0,-1.0,0.8019997,0.0,0.0,0.0,-33.50392,1.156021,-23.54823,-1.0,0.5498182,0.493553,0.576898,0.0,0.0,0.0,34.66608,1.630859,-24.09743,-1.0,0.4435439,0.4833481,0.06237566,1.227713,-0.3267273,-0.2049094,0.1432786,-0.01780219,0.5382963,7.983276,31.21
4,-1.0,-1.0,-1.0,0.8889408,0.0,0.0,0.0,-33.49022,1.221268,-23.87135,-1.0,0.5498129,0.493008,0.6948532,0.0,0.0,0.0,34.61359,1.732025,-24.4895,-1.0,0.4430936,0.4814617,0.06241643,1.22779,-0.3266819,-0.2049216,0.1435472,-0.01779089,0.5382963,7.983276,31.21
4,-1.0,-1.0,-1.0,0.8889408,0.0,0.0,0.0,-33.49022,1.221268,-23.87135,-1.0,0.5498129,0.493008,0.6948532,0.0,0.0,0.0,34.61359,1.732025,-24.4895,-1.0,0.4430936,0.4814617,0.06242383,1.227783,-0.3266453,-0.2048476,0.1435009,-0.01769515,0.5382963,7.983276,31.21
4,-1.0,-1.0,-1.0,0.8889408,0.0,0.0,0.0,-33.49022,1.221268,-23.87135,-1.0,0.5498129,0.493008,0.6948532,0.0,0.0,0.0,34.61359,1.732025,-24.4895,-1.0,0.4430936,0.4814617,0.06235516,1.227716,-0.3266661,-0.2048002,0.1436099,-0.01771324,0.5382963,7.983276,31.21
4,-1.0,-1.0,-1.0,0.8889408,0.0,0.0,0.0,-33.49022,1.221268,-23.87135,-1.0,0.5498129,0.493008,0.6948532,0.0,0.0,0.0,34.61359,1.732025,-24.4895,-1.0,0.4430936,0.4814617,0.06235516,1.227716,-0.3266661,-0.2048002,0.1436099,-0.01771324,0.5382963,7.983276,31.21
4,-1.0,-1.0,-1.0,0.8889408,0.0,0.0,0.0,-33.49022,1.221268,-23.87135,-1.0,0.5498129,0.493008,0.6948532,0.0,0.0,0.0,34.61359,1.732025,-24.4895,-1.0,0.4430936,0.4814617,0.06231856,1.227726,-0.3266833,-0.2046346,0.1436463,-0.01753229,0.5382963,7.983276,31.21
4,-1.0,-1.0,-1.0,0.8889408,0.0,0.0,0.0,-33.49022,1.221268,-23.87135,-1.0,0.5498129,0.493008,0.6948532,0.0,0.0,0.0,34.61359,1.732025,-24.4895,-1.0,0.4430936,0.4814617,0.06231856,1.227726,-0.3266833,-0.2046346,0.1436463,-0.01753229,0.5382963,7.983276,31.21
4,-1.0,-1.0,-1.0,0.9391114,0.0,0.0,0.0,-33.56212,1.000977,-23.16977,-1.0,0.5486919,0.4933755,0.7710767,0.0,0.0,0.0,34.51782,1.138138,-22.37721,-1.0,0.4417006,0.4814837,0.0623765,1.227715,-0.3267016,-0.2045071,0.1437557,-0.01754418,0.5382963,7.983276,31.21
4,0.03358459,0.03686523,0.9987488,1.0,0.03358459,0.03686523,0.9987488,-33.54601,0.9006958,-23.1082,4.193069,0.5487191,0.4970688,1.0,-0.07658386,0.04951477,0.9958191,34.77771,1.539337,-24.39058,3.821869,0.4424563,0.4828329,0.06239915,1.227695,-0.3267369,-0.204364,0.1437817,-0.01743085,0.5382963,7.983276,31.21
4,0.03358459,0.03686523,0.9987488,1.0,0.03358459,0.03686523,0.9987488,-33.54601,0.9006958,-23.1082,4.193069,0.5487191,0.4970688,1.0,-0.07658386,0.04951477,0.9958191,34.77771,1.539337,-24.39058,3.821869,0.4424563,0.4828329,0.06239915,1.227695,-0.3267369,-0.204364,0.1437817,-0.01743085,0.5382963,7.983276,31.21
4,0.0322113,0.04135132,0.9986115,1.0,0.03227234,0.04136658,0.9986115,-33.55098,0.8578949,-23.02589,4.17514,0.5490397,0.49698,1.0,-0.06378174,0.02676392,0.9975891,34.68962,1.70639,-24.9977,3.856079,0.4430584,0.4864329,0.06238449,1.227659,-0.3266973,-0.2042996,0.1438032,-0.01743342,0.5382963,7.983276,31.21
4,0.0320282,0.04214478,0.9985962,1.0,0.03205872,0.04214478,0.9985962,-33.55037,0.8541718,-23.03052,4.178909,0.5490582,0.4970244,1.0,-0.05789185,0.03167725,0.997818,34.68359,1.647858,-24.71896,3.877426,0.4423515,0.4851042,0.06238377,1.22768,-0.3267016,-0.2042771,0.1439603,-0.0173872,0.5382963,7.983276,31.21
4,0.0320282,0.04214478,0.9985962,1.0,0.03205872,0.04214478,0.9985962,-33.55037,0.8541718,-23.03052,4.178909,0.5490582,0.4970244,1.0,-0.05789185,0.03167725,0.997818,34.68359,1.647858,-24.71896,3.877426,0.4423515,0.4851042,0.06238377,1.22768,-0.3267016,-0.2042771,0.1439603,-0.0173872,0.5382963,7.983276,31.21
4,0.03279114,0.04338074,0.9985046,1.0,0.03279114,0.04338074,0.9985046,-33.54819,0.8465118,-23.04637,4.190094,0.5488794,0.4972101,1.0,-0.05703735,0.02149963,0.9981384,34.69887,1.622986,-24.59361,3.888992,0.4417083,0.4865186,0.06239069,1.227704,-0.3267295,-0.2042832,0.1440981,-0.01723009,0.5382963,7.115845,31.21
4,0.03346252,0.0428009,0.9985199,1.0,0.03390503,0.04283142,0.9985046,-33.54601,0.8421021,-23.03513,4.197388,0.5486249,0.4973516,1.0,-0.06559753,0.0349884,0.9972229,34.72427,1.558899,-24.56522,3.894714,0.4423051,0.4861585,0.06239581,1.227766,-0.3267679,-0.2044505,0.1441319,-0.01720499,0.5382963,10.45544,31.21
4,0.03346252,0.0428009,0.9985199,1.0,0.03390503,0.04283142,0.9985046,-33.54601,0.8421021,-23.03513,4.197388,0.5486249,0.4973516,1.0,-0.06559753,0.0349884,0.9972229,34.72427,1.558899,-24.56522,3.894714,0.4423051,0.4861585,0.06239581,1.227766,-0.3267679,-0.2044505,0.1441319,-0.01720499,0.5382963,10.45544,31.21
4,0.02726746,0.03874207,0.9988708,1.0,0.03146362,0.03915405,0.9987335,-33.54195,0.8401184,-23.02332,4.204422,0.5488794,0.4979086,1.0,-0.06245422,0.02975464,0.9975891,34.71045,1.532318,-24.44774,3.924774,0.442252,0.48689,0.06237781,1.227834,-0.3267717,-0.2044454,0.14405,-0.01714556,0.5382963,10.45544,31.21
4,0.02726746,0.03874207,0.9988708,1.0,0.03146362,0.03915405,0.9987335,-33.54195,0.8401184,-23.02332,4.204422,0.5488794,0.4979086,1.0,-0.06245422,0.02975464,0.9975891,34.71045,1.532318,-24.44774,3.924774,0.442252,0.48689,0.06237781,1.227834,-0.3267717,-0.2044454,0.14405,-0.01714556,0.5382963,10.45544,31.21
4,0.02436829,0.03866577,0.9989471,1.0,0.03034973,0.03921509,0.998764,-33.54155,0.834137,-23.02058,4.213242,0.5490444,0.4980746,1.0,-0.06239319,0.03051758,0.9975739,34.71045,1.513321,-24.43098,3.93895,0.4422404,0.4872435,0.06230915,1.227867,-0.3268189,-0.2047277,0.1438147,-0.01730387,0.5382963,10.45544,31.21
4,0.02438354,0.03909302,0.9989319,1.0,0.03033447,0.03945923,0.9987488,-33.54155,0.8205719,-23.01823,4.215057,0.5490444,0.4984483,1.0,-0.05982971,0.03364563,0.9976349,34.69662,1.518021,-24.53169,3.941528,0.4422509,0.48746,0.062343,1.227897,-0.326847,-0.2047809,0.1435947,-0.01734129,0.5382963,10.45544,31.21
4,0.02438354,0.03909302,0.9989319,1.0,0.03033447,0.03945923,0.9987488,-33.54155,0.8205719,-23.01823,4.215057,0.5490444,0.4984483,1.0,-0.05982971,0.03364563,0.9976349,34.69662,1.518021,-24.53169,3.941528,0.4422509,0.48746,0.062343,1.227897,-0.326847,-0.2047809,0.1435947,-0.01734129,0.5382963,10.45544,31.21
4,0.02033997,0.03625488,0.9991302,1.0,0.03063965,0.03741455,0.9988251,-33.54155,0.7565002,-22.89154,4.260117,0.5489265,0.4997796,1.0,-0.06600952,0.02650452,0.9974518,34.72975,1.404816,-24.06158,3.972061,0.4422624,0.4882668,0.06223249,1.227859,-0.3268878,-0.2049294,0.1434024,-0.0173099,0.5382963,10.45544,31.21
4,0.02836609,0.03625488,0.9989319,1.0,0.03050232,0.03637695,0.9988708,-33.54155,0.7297363,-22.84512,4.298065,0.5489265,0.5004272,1.0,-0.06666565,0.03111267,0.9972839,34.73448,1.303894,-23.79291,3.989975,0.4422739,0.4884581,0.06218314,1.22787,-0.3269153,-0.2051052,0.143252,-0.01724953,0.5382963,10.45544,31.21
4,0.02836609,0.03625488,0.9989319,1.0,0.03050232,0.03637695,0.9988708,-33.54155,0.7297363,-22.84512,4.298065,0.5489265,0.5004272,1.0,-0.06666565,0.03111267,0.9972839,34.73448,1.303894,-23.79291,3.989975,0.4422739,0.4884581,0.06218314,1.22787,-0.3269153,-0.2051052,0.143252,-0.01724953,0.5382963,10.45544,31.21
4,0.03337097,0.03395081,0.9988556,1.0,0.03361511,0.03395081,0.9988556,-33.5675,0.6179504,-22.50305,4.350616,0.5490742,0.501485,1.0,-0.06614685,0.03541565,0.9971771,34.73225,1.202393,-23.5649,4.023682,0.4423051,0.4891043,0.06215477,1.227831,-0.3269832,-0.2051934,0.1431143,-0.01710074,0.5382963,10.45544,31.21
4,0.03303528,0.02853394,0.9990387,1.0,0.0333252,0.02854919,0.9990234,-33.57089,0.6123505,-22.50002,4.358307,0.5492287,0.5025006,1.0,-0.06791687,0.02363586,0.997406,34.73225,1.197678,-23.53879,4.044983,0.4425726,0.4909872,0.06217766,1.227827,-0.3269956,-0.2053145,0.1431423,-0.01696514,0.5382963,10.45544,31.21
4,0.03303528,0.02853394,0.9990387,1.0,0.0333252,0.02854919,0.9990234,-33.57089,0.6123505,-22.50002,4.358307,0.5492287,0.5025006,1.0,-0.06791687,0.02363586,0.997406,34.73225,1.197678,-23.53879,4.044983,0.4425726,0.4909872,0.06217766,1.227827,-0.3269956,-0.2053145,0.1431423,-0.01696514,0.5382963,10.45544,31.21
4,0.00453186,0.02151489,0.9997559,1.0,0.02966309,0.0222168,0.9992981,-33.57452,0.6098175,-22.50002,4.394287,0.5499336,0.5036296,1.0,-0.07092285,0.01937866,0.9972839,34.72559,1.175827,-23.48796,4.095169,0.4432745,0.4920152,0.06217384,1.227849,-0.3270277,-0.2053492,0.1431752,-0.01687796,0.5382963,10.45544,31.23
4,0.00453186,0.02151489,0.9997559,1.0,0.02966309,0.0222168,0.9992981,-33.57452,0.6098175,-22.50002,4.394287,0.5499336,0.5036296,1.0,-0.07092285,0.01937866,0.9972839,34.72559,1.175827,-23.48796,4.095169,0.4432745,0.4920152,0.06217384,1.227849,-0.3270277,-0.2053492,0.1431752,-0.01687796,0.5382963,10.45544,31.23
4,-0.04286194,0.01403809,0.9989777,1.0,0.02920532,0.01876831,0.9993896,-33.58557,0.6098175,-22.50002,4.409714,0.550365,0.5042007,1.0,-0.07192993,0.01210022,0.9973297,34.70689,1.174622,-23.48796,4.100586,0.4440388,0.4932642,0.06220162,1.227893,-0.3270687,-0.2052015,0.1431694,-0.01687619,0.5382963,10.45544,31.23
4,-0.01502991,0.01013184,0.9998322,1.0,0.02963257,0.01596069,0.9994202,-33.59468,0.6123505,-22.53049,4.423859,0.5506098,0.5048386,1.0,-0.07287598,0.002548218,0.9973297,34.70689,1.174622,-23.48796,4.187012,0.4441521,0.4949074,0.06220627,1.227896,-0.3270957,-0.2053652,0.1429781,-0.01684438,0.5382963,-34.23331,31.23
4,-0.02885437,0.009933472,0.999527,1.0,0.02841187,0.02001953,0.9993896,-33.59468,0.6125793,-22.6109,4.465775,0.5508544,0.5049196,1.0,-0.07481384,0.001800537,0.9971924,34.68895,1.174622,-23.50117,4.189194,0.4450554,0.4951656,0.06215382,1.227916,-0.3271472,-0.205493,0.1429108,-0.01690663,0.5382963,-34.23331,31.23
4,-0.02885437,0.009933472,0.999527,1.0,0.02841187,0.02001953,0.9993896,-33.59468,0.6125793,-22.6109,4.465775,0.5508544,0.5049196,1.0,-0.07481384,0.001800537,0.9971924,34.68895,1.174622,-23.50117,4.189194,0.4450554,0.4951656,0.06215382,1.227916,-0.3271472,-0.205493,0.1429108,-0.01690663,0.5382963,-34.23331,31.23
4,-0.03767395,0.007324219,0.9992523,1.0,0.02818298,0.02140808,0.9993591,-33.59468,0.6160278,-22.64951,4.479141,0.5509157,0.5049352,1.0,-0.07676697,-0.001052856,0.9970398,34.68169,1.174622,-23.50117,4.188034,0.4456095,0.4956447,0.06214702,1.227956,-0.3272078,-0.2057172,0.1429848,-0.0168572,0.5382963,-34.23331,31.23
4,-0.03767395,0.007324219,0.9992523,1.0,0.02818298,0.02140808,0.9993591,-33.59468,0.6160278,-22.64951,4.479141,0.5509157,0.5049352,1.0,-0.07676697,-0.001052856,0.9970398,34.68169,1.174622,-23.50117,4.188034,0.4456095,0.4956447,0.06214702,1.227956,-0.3272078,-0.2057172,0.1429848,-0.0168572,0.5382963,-34.23331,31.23
4,-0.02316284,0.005065918,0.9997101,1.0,0.01823425,0.02671814,0.9994659,-33.3679,0.6613922,-23.37727,4.465866,0.5455881,0.5089559,1.0,-0.04879761,-0.008346558,0.998764,34.65631,1.376923,-24.67952,4.126434,0.4415538,0.500539,0.06217849,1.228018,-0.327184,-0.2058866,0.1431786,-0.01696426,0.5382963,-34.23331,31.23
4,-0.02316284,0.005065918,0.9997101,1.0,0.01823425,0.02671814,0.9994659,-33.3679,0.6613922,-23.37727,4.465866,0.5455881,0.5089559,1.0,-0.04879761,-0.008346558,0.998764,34.65631,1.376923,-24.67952,4.126434,0.4415538,0.500539,0.06217849,1.228018,-0.327184,-0.2058866,0.1431786,-0.01696426,0.5382963,-34.23331,31.23
4,0.0136261,-0.0163269,0.9997711,1.0,0.05982971,-0.0164032,0.9980621,-32.8119,0.6662598,-23.66988,4.497101,0.5210407,0.5183209,1.0,0.002212524,-0.01629639,0.9998627,35.14569,0.6812744,-23.06602,4.256317,0.4173881,0.5102002,0.06217265,1.227991,-0.3271948,-0.2058669,0.1432931,-0.01718896,0.5382963,-34.23331,31.23
4,0.0136261,-0.0163269,0.9997711,1.0,0.05982971,-0.0164032,0.9980621,-32.8119,0.6662598,-23.66988,4.497101,0.5210407,0.5183209,1.0,0.002212524,-0.01629639,0.9998627,35.14569,0.6812744,-23.06602,4.256317,0.4173881,0.5102002,0.06217265,1.227991,-0.3271948,-0.2058669,0.1432931,-0.01718896,0.5382963,-34.23331,31.23
4,0.04321289,-0.02554321,0.9987335,1.0,0.04554749,-0.02581787,0.9986267,-32.84007,0.6999054,-23.92839,4.448898,0.524336,0.5210312,1.0,-0.008178711,-0.01957703,0.9997711,35.17569,0.7077484,-23.1329,4.352249,0.4180638,0.510534,0.06223679,1.228007,-0.3272486,-0.2056825,0.1434675,-0.01746544,0.5382963,-34.23331,31.23
4,0.04321289,-0.02554321,0.9987335,1.0,0.04554749,-0.02581787,0.9986267,-32.84007,0.6999054,-23.92839,4.448898,0.524336,0.5210312,1.0,-0.008178711,-0.01957703,0.9997711,35.17569,0.7077484,-23.1329,4.352249,0.4180638,0.510534,0.06223679,1.228007,-0.3272486,-0.2056825,0.1434675,-0.01746544,0.5382963,-34.23331,31.23
4,0.04431152,-0.02571106,0.9986725,1.0,0.04431152,-0.02571106,0.9986725,-32.84024,0.6999054,-23.92978,4.459045,0.5245406,0.5210312,1.0,-0.01379395,-0.02110291,0.9996796,35.20036,0.7144623,-23.18823,4.349915,0.418135,0.5110704,0.06221461,1.227954,-0.3273089,-0.2054936,0.1435784,-0.0174488,0.5382963,-34.23331,31.23
4,0.04431152,-0.02571106,0.9986725,1.0,0.04431152,-0.02571106,0.9986725,-32.84024,0.6999054,-23.92978,4.459045,0.5245406,0.5210312,1.0,-0.01379395,-0.02110291,0.9996796,35.20036,0.7144623,-23.18823,4.349915,0.418135,0.5110704,0.06221461,1.227954,-0.3273089,-0.2054936,0.1435784,-0.0174488,0.5382963,-34.23331,31.23
4,0.005096436,-0.02914429,0.9995575,1.0,0.04338074,-0.0282135,0.9986572,-32.85248,0.6935883,-23.9274,4.485611,0.5250922,0.5216448,1.0,-0.007217407,-0.02944946,0.999527,35.14948,0.7342377,-23.19977,4.355347,0.4187261,0.5119122,0.06226075,1.227951,-0.3273522,-0.2056512,0.1435833,-0.0172599,0.5382963,-34.23331,31.23
4,0.005096436,-0.02914429,0.9995575,1.0,0.04338074,-0.0282135,0.9986572,-32.85248,0.6935883,-23.9274,4.485611,0.5250922,0.5216448,1.0,-0.007217407,-0.02944946,0.999527,35.14948,0.7342377,-23.19977,4.355347,0.4187261,0.5119122,0.06226075,1.227951,-0.3273522,-0.2056512,0.1435833,-0.0172599,0.5382963,-34.23331,31.23
4,0.01351929,-0.02844238,0.9994965,1.0,0.04130554,-0.02871704,0.9987335,-32.86206,0.6902924,-23.92004,4.472702,0.525732,0.5217559,1.0,-0.01243591,-0.02818298,0.9995117,35.17447,0.7272339,-23.23962,4.356659,0.4187328,0.5122803,0.06222785,1.227865,-0.3273976,-0.2056904,0.1436685,-0.0172504,0.5382963,14.24802,31.23
4,0.01351929,-0.02844238,0.9994965,1.0,0.04130554,-0.02871704,0.9987335,-32.86206,0.6902924,-23.92004,4.472702,0.525732,0.5217559,1.0,-0.01243591,-0.02818298,0.9995117,35.17447,0.7272339,-23.23962,4.356659,0.4187328,0.5122803,0.06222785,1.227865,-0.3273976,-0.2056904,0.1436685,-0.0172504,0.5382963,14.24802,31.23
5,0.02026367,-0.02864075,0.9993744,1.0,0.04273987,-0.02957153,0.998642,-32.87317,0.684021,-23.91154,4.468353,0.5258591,0.5220255,1.0,-0.01325989,-0.02723694,0.999527,35.16405,0.7236176,-23.27634,4.353226,0.419194,0.5125772,0.06215799,1.227899,-0.3273869,-0.2056977,0.1434717,-0.01727888,0.5382963,14.24802,31.23
5,0.02026367,-0.02864075,0.9993744,1.0,0.04273987,-0.02957153,0.998642,-32.87317,0.684021,-23.91154,4.468353,0.5258591,0.5220255,1.0,-0.01325989,-0.02723694,0.999527,35.16405,0.7236176,-23.27634,4.353226,0.419194,0.5125772,0.06215799,1.227899,-0.3273869,-0.2056977,0.1434717,-0.01727888,0.5382963,14.24802,31.23
5,0.01971436,-0.03071594,0.9993286,1.0,0.04452515,-0.03126526,0.9985046,-32.89017,0.670929,-23.88651,4.458557,0.5261137,0.5224982,1.0,-0.01347351,-0.02998352,0.9994507,35.15497,0.7228699,-23.27634,4.342484,0.4195226,0.5130537,0.0621208,1.227892,-0.3274041,-0.2057191,0.1432763,-0.01719676,0.5382963,14.24802,31.23
5,0.01971436,-0.03071594,0.9993286,1.0,0.04452515,-0.03126526,0.9985046,-32.89017,0.670929,-23.88651,4.458557,0.5261137,0.5224982,1.0,-0.01347351,-0.02998352,0.9994507,35.15497,0.7228699,-23.27634,4.342484,0.4195226,0.5130537,0.0621208,1.227892,-0.3274041,-0.2057191,0.1432763,-0.01719676,0.5382963,14.24802,31.23
5,0.01278687,-0.03012085,0.9994507,1.0,0.0456543,-0.0307312,0.9984741,-32.91467,0.6321869,-23.8217,4.466507,0.5267018,0.5230938,1.0,-0.01660156,-0.02954102,0.9994202,35.13504,0.7228699,-23.287,4.342331,0.4206858,0.5130835,0.06201422,1.227889,-0.3274196,-0.2056388,0.1430458,-0.01724608,0.5382963,14.24802,31.23
5,0.01278687,-0.03012085,0.9994507,1.0,0.0456543,-0.0307312,0.9984741,-32.91467,0.6321869,-23.8217,4.466507,0.5267018,0.5230938,1.0,-0.01660156,-0.02954102,0.9994202,35.13504,0.7228699,-23.287,4.342331,0.4206858,0.5130835,0.06201422,1.227889,-0.3274196,-0.2056388,0.1430458,-0.01724608,0.5382963,14.24802,31.23
5,0.01077271,-0.03051758,0.9994659,1.0,0.04730225,-0.03074646,0.9983978,-32.93146,0.6277313,-23.8217,4.466522,0.5269825,0.5232505,1.0,-0.01234436,-0.03036499,0.9994507,35.09911,0.7236176,-23.28778,4.336792,0.4211765,0.5131961,0.06195772,1.227915,-0.3273649,-0.2054809,0.1428625,-0.01728405,0.5382963,14.24802,31.23
5,0.01077271,-0.03051758,0.9994659,1.0,0.04730225,-0.03074646,0.9983978,-32.93146,0.6277313,-23.8217,4.466522,0.5269825,0.5232505,1.0,-0.01234436,-0.03036499,0.9994507,35.09911,0.7236176,-23.28778,4.336792,0.4211765,0.5131961,0.06195772,1.227915,-0.3273649,-0.2054809,0.1428625,-0.01728405,0.5382963,14.24802,31.23
5,0.007369995,-0.03672791,0.9992828,1.0,0.04238892,-0.03614807,0.9984436,-32.951,0.6277313,-23.8217,4.464142,0.5284052,0.5241288,1.0,-0.01823425,-0.03710938,0.9991302,35.08551,0.7236176,-23.29005,4.319519,0.4225715,0.5143402,0.06196272,1.227925,-0.3273276,-0.2054149,0.142589,-0.01710118,0.5382963,14.24802,31.23
5,0.007369995,-0.03672791,0.9992828,1.0,0.04238892,-0.03614807,0.9984436,-32.951,0.6277313,-23.8217,4.464142,0.5284052,0.5241288,1.0,-0.01823425,-0.03710938,0.9991302,35.08551,0.7236176,-23.29005,4.319519,0.4225715,0.5143402,0.06196272,1.227925,-0.3273276,-0.2054149,0.142589,-0.01710118,0.5382963,14.24802,31.23
5,0.02677917,-0.03689575,0.9989471,1.0,0.03768921,-0.03622437,0.9986267,-32.98035,0.6277313,-23.86559,4.476715,0.5301316,0.5245503,1.0,-0.01809692,-0.03955078,0.9990387,35.07205,0.7818909,-23.55267,4.315979,0.4228836,0.5152023,0.06184435,1.227879,-0.3272933,-0.2054657,0.1424615,-0.01671561,0.5382963,14.24802,31.23
5,0.02677917,-0.03689575,0.9989471,1.0,0.03768921,-0.03622437,0.9986267,-32.98035,0.6277313,-23.86559,4.476715,0.5301316,0.5245503,1.0,-0.01809692,-0.03955078,0.9990387,35.07205,0.7818909,-23.55267,4.315979,0.4228836,0.5152023,0.06184435,1.227879,-0.3272933,-0.2054657,0.1424615,-0.01671561,0.5382963,14.24802,31.23
5,0.02902222,-0.0355072,0.9989471,1.0,0.04206848,-0.0342865,0.9985199,-33.01541,0.6480713,-24.08307,4.470291,0.5306645,0.5255234,1.0,-0.0214386,-0.04014587,0.9989624,35.05884,0.7845459,-23.56769,4.315399,0.42386,0.5153527,0.06180084,1.227814,-0.327179,-0.2051805,0.1422958,-0.01668394,0.5382963,14.24802,31.23
5,0.02902222,-0.0355072,0.9989471,1.0,0.04206848,-0.0342865,0.9985199,-33.01541,0.6480713,-24.08307,4.470291,0.5306645,0.5255234,1.0,-0.0214386,-0.04014587,0.9989624,35.05884,0.7845459,-23.56769,4.315399,0.42386,0.5153527,0.06180084,1.227814,-0.327179,-0.2051805,0.1422958,-0.01668394,0.5382963,14.24802,31.23
5,0.00100708,-0.03991699,0.9991913,1.0,0.04130554,-0.03535461,0.9985046,-33.03665,0.6480713,-24.08307,4.507889,0.5314838,0.5257372,1.0,-0.02996826,-0.04338074,0.9985962,35.04518,0.7950897,-23.60112,4.326233,0.4256845,0.5158677,0.06174481,1.227743,-0.3270868,-0.2048591,0.142299,-0.01678012,0.5382963,8.311401,31.23
5,0.00100708,-0.03991699,0.9991913,1.0,0.04130554,-0.03535461,0.9985046,-33.03665,0.6480713,-24.08307,4.507889,0.5314838,0.5257372,1.0,-0.02996826,-0.04338074,0.9985962,35.04518,0.7950897,-23.60112,4.326233,0.4256845,0.5158677,0.06174481,1.227743,-0.3270868,-0.2048591,0.142299,-0.01678012,0.5382963,8.311401,31.23
5,-0.007156372,-0.04240417,0.9990692,1.0,0.04275513,-0.03549194,0.9984436,-33.04462,0.6480713,-24.08307,4.515625,0.5315123,0.5257629,1.0,-0.02934265,-0.04544067,0.9985352,35.0314,0.7955475,-23.63002,4.324463,0.4260191,0.5164686,0.0617063,1.227714,-0.3269306,-0.2044403,0.1422711,-0.01652599,0.5382963,8.311401,31.23
5,-0.007156372,-0.04240417,0.9990692,1.0,0.04275513,-0.03549194,0.9984436,-33.04462,0.6480713,-24.08307,4.515625,0.5315123,0.5257629,1.0,-0.02934265,-0.04544067,0.9985352,35.0314,0.7955475,-23.63002,4.324463,0.4260191,0.5164686,0.0617063,1.227714,-0.3269306,-0.2044403,0.1422711,-0.01652599,0.5382963,8.311401,31.23
5,-0.007156372,-0.04240417,0.9990692,1.0,0.04275513,-0.03549194,0.9984436,-33.04462,0.6480713,-24.08307,4.515625,0.5315123,0.5257629,1.0,-0.02934265,-0.04544067,0.9985352,35.0314,0.7955475,-23.63002,4.324463,0.4260191,0.5164686,0.06169522,1.227627,-0.3267896,-0.2038261,0.1423302,-0.01642515,0.5382963,8.311401,31.23
5,-0.007156372,-0.04240417,0.9990692,1.0,0.04275513,-0.03549194,0.9984436,-33.04462,0.6480713,-24.08307,4.515625,0.5315123,0.5257629,1.0,-0.02934265,-0.04544067,0.9985352,35.0314,0.7955475,-23.63002,4.324463,0.4260191,0.5164686,0.06169522,1.227627,-0.3267896,-0.2038261,0.1423302,-0.01642515,0.5382963,8.311401,31.23
5,-0.01300049,-0.04309082,0.9989777,1.0,0.04345703,-0.03662109,0.9983826,-33.05783,0.6480713,-24.08307,4.522934,0.5318322,0.5259538,1.0,-0.03019714,-0.04502869,0.9985199,35.02263,0.7955475,-23.66136,4.324142,0.4264384,0.5166722,0.06173635,1.227473,-0.3266131,-0.2032582,0.1425367,-0.01640291,0.5382963,8.311401,31.23
5,-0.01300049,-0.04309082,0.9989777,1.0,0.04345703,-0.03662109,0.9983826,-33.05783,0.6480713,-24.08307,4.522934,0.5318322,0.5259538,1.0,-0.03019714,-0.04502869,0.9985199,35.02263,0.7955475,-23.66136,4.324142,0.4264384,0.5166722,0.06173635,1.227473,-0.3266131,-0.2032582,0.1425367,-0.01640291,0.5382963,8.311401,31.23
5,-0.004333496,-0.04275513,0.9990692,1.0,0.03131104,-0.03866577,0.9987488,-33.16699,0.6512299,-24.27051,4.640945,0.5374408,0.5279701,1.0,-0.03031921,-0.04570007,0.9984894,34.98634,0.7925262,-23.70833,4.363617,0.4276315,0.5173483,0.06177104,1.227427,-0.326474,-0.2026914,0.1429142,-0.01615807,0.5382963,8.311401,31.23
5,-0.004333496,-0.04275513,0.9990692,1.0,0.03131104,-0.03866577,0.9987488,-33.16699,0.6512299,-24.27051,4.640945,0.5374408,0.5279701,1.0,-0.03031921,-0.04570007,0.9984894,34.98634,0.7925262,-23.70833,4.363617,0.4276315,0.5173483,0.06177104,1.227427,-0.326474,-0.2026914,0.1429142,-0.01615807,0.5382963,8.311401,31.23
5,-0.02124023,-0.04719543,0.9986572,1.0,0.02832031,-0.03887939,0.9988403,-33.17409,0.6674347,-24.33603,4.638443,0.5381844,0.5280729,1.0,-0.03033447,-0.04872131,0.9983368,34.9492,0.8155823,-23.76622,4.369278,0.4288393,0.5176276,0.06175363,1.227375,-0.3263962,-0.2023038,0.1430827,-0.01606095,0.5382963,8.311401,31.23
5,-0.02124023,-0.04719543,0.9986572,1.0,0.02832031,-0.03887939,0.9988403,-33.17409,0.6674347,-24.33603,4.638443,0.5381844,0.5280729,1.0,-0.03033447,-0.04872131,0.9983368,34.9492,0.8155823,-23.76622,4.369278,0.4288393,0.5176276,0.06175363,1.227375,-0.3263962,-0.2023038,0.1430827,-0.01606095,0.5382963,8.311401,31.23
5,-0.001602173,-0.04428101,0.9990082,1.0,0.02632141,-0.03904724,0.9988861,-33.17738,0.680069,-24.38199,4.625031,0.5386337,0.5280998,1.0,-0.03102112,-0.04975891,0.9982758,34.91498,0.8559265,-23.96677,4.373718,0.430014,0.5182911,0.06171429,1.2273,-0.3262292,-0.2018636,0.1431123,-0.01600704,0.5382963,8.311401,31.23
5,-0.001602173,-0.04428101,0.9990082,1.0,0.02632141,-0.03904724,0.9988861,-33.17738,0.680069,-24.38199,4.625031,0.5386337,0.5280998,1.0,-0.03102112,-0.04975891,0.9982758,34.91498,0.8559265,-23.96677,4.373718,0.430014,0.5182911,0.06171429,1.2273,-0.3262292,-0.2018636,0.1431123,-0.01600704,0.5382963,8.311401,31.23
5,0.01594543,-0.04116821,0.9990234,1.0,0.02507019,-0.03941345,0.9989014,-33.17905,0.6783752,-24.37537,4.641495,0.538889,0.5281653,1.0,-0.03562927,-0.05101013,0.9980469,34.90193,0.8678436,-23.98364,4.378937,0.431191,0.5182911,0.06165409,1.227283,-0.3261054,-0.2016383,0.1430939,-0.01612345,0.5382963,-0.8517151,31.23
5,0.01594543,-0.04116821,0.9990234,1.0,0.02507019,-0.03941345,0.9989014,-33.17905,0.6783752,-24.37537,4.641495,0.538889,0.5281653,1.0,-0.03562927,-0.05101013,0.9980469,34.90193,0.8678436,-23.98364,4.378937,0.431191,0.5182911,0.06165409,1.227283,-0.3261054,-0.2016383,0.1430939,-0.01612345,0.5382963,-0.8517151,31.23
5,0.01516724,-0.04042053,0.999054,1.0,0.0249939,-0.03834534,0.9989471,-33.18015,0.6729431,-24.37444,4.644104,0.5389367,0.5281653,1.0,-0.03704834,-0.05142212,0.9979858,34.89925,0.8708649,-23.98703,4.378571,0.431511,0.5182911,0.06160295,1.227289,-0.3260802,-0.2014536,0.1430356,-0.01597583,0.5382963,-0.8517151,31.23
5,0.009567261,-0.0443573,0.9989624,1.0,0.02442932,-0.03913879,0.9989319,-33.18062,0.6729431,-24.35677,4.648026,0.5390341,0.5281268,1.0,-0.03642273,-0.06048584,0.9974976,34.89825,0.8618164,-23.82327,4.495316,0.4314676,0.5186965,0.06156671,1.227277,-0.3260252,-0.2013761,0.1430095,-0.0157844,0.5382963,-0.8517151,31.23
5,0.009567261,-0.0443573,0.9989624,1.0,0.02442932,-0.03913879,0.9989319,-33.18062,0.6729431,-24.35677,4.648026,0.5390341,0.5281268,1.0,-0.03642273,-0.06048584,0.9974976,34.89825,0.8618164,-23.82327,4.495316,0.4314676,0.5186965,0.06156671,1.227277,-0.3260252,-0.2013761,0.1430095,-0.0157844,0.5382963,-0.8517151,31.23
5,-0.04045105,-0.05099487,0.997879,1.0,0.0282135,-0.04681396,0.9984894,-33.2812,0.4398193,-23.33989,4.71759,0.541186,0.5278597,1.0,-0.04052734,-0.05099487,0.9978638,34.88551,0.8209991,-23.78477,4.458084,0.4325892,0.5180994,0.06150091,1.227232,-0.3259795,-0.2012338,0.1427726,-0.01560926,0.5382963,-0.8517151,31.23
5,-0.02763367,-0.06968689,0.9971771,1.0,0.03131104,-0.06028748,0.9976807,-33.29855,0.4739838,-23.40289,4.595078,0.5412767,0.5294325,1.0,-0.02763367,-0.06968689,0.9971771,34.87793,0.7441406,-23.24831,4.562012,0.4308748,0.51893,0.06133461,1.227163,-0.3260257,-0.2009131,0.1427533,-0.01543791,0.5382963,-0.8517151,31.23
5,-0.02763367,-0.06968689,0.9971771,1.0,0.03131104,-0.06028748,0.9976807,-33.29855,0.4739838,-23.40289,4.595078,0.5412767,0.5294325,1.0,-0.02763367,-0.06968689,0.9971771,34.87793,0.7441406,-23.24831,4.562012,0.4308748,0.51893,0.06133461,1.227163,-0.3260257,-0.2009131,0.1427533,-0.01543791,0.5382963,-0.8517151,31.23
5,-0.02124023,-0.07984924,0.9965668,1.0,0.03012085,-0.05097961,0.99823,-33.34096,0.4642487,-23.30124,4.657318,0.5427927,0.5273689,1.0,-0.02612305,-0.08258057,0.9962311,34.85669,0.6950226,-22.9566,4.417206,0.4314285,0.5199534,0.06130564,1.227156,-0.3259983,-0.2008519,0.1427409,-0.01532845,0.5382963,-0.8517151,31.23
5,0.02578735,-0.06828308,0.9973297,1.0,0.03663635,-0.06639099,0.9971161,-33.38828,0.4073029,-23.00652,4.63353,0.543134,0.5290684,1.0,-0.04304504,-0.08006287,0.9958496,34.85524,0.7884521,-23.09789,4.646378,0.4341618,0.5179265,0.06128705,1.227118,-0.3259865,-0.2006995,0.1427295,-0.0149754,0.5382963,-0.8517151,31.23
5,0.02578735,-0.06828308,0.9973297,1.0,0.03663635,-0.06639099,0.9971161,-33.38828,0.4073029,-23.00652,4.63353,0.543134,0.5290684,1.0,-0.04304504,-0.08006287,0.9958496,34.85524,0.7884521,-23.09789,4.646378,0.4341618,0.5179265,0.06128705,1.227118,-0.3259865,-0.2006995,0.1427295,-0.0149754,0.5382963,-0.8517151,31.23
5,0.02154541,-0.05944824,0.9979858,1.0,0.0255127,-0.05941772,0.9978943,-33.36986,0.4013367,-22.95801,4.656601,0.5442761,0.5277017,1.0,-0.0745697,-0.06010437,0.9953918,34.84625,0.7526703,-22.9157,4.568634,0.4396658,0.5142113,0.06124961,1.227138,-0.3260325,-0.200547,0.1428511,-0.01487906,0.5382963,-0.8517151,31.23
5,-0.004425049,-0.1111298,0.9937897,1.0,0.01913452,-0.07096863,0.9972839,-33.4192,0.2494965,-22.33904,4.656143,0.5465322,0.5289505,1.0,-0.01533508,-0.1296692,0.9914246,34.83963,0.7605133,-22.93622,4.116547,0.4302149,0.525332,0.06121266,1.227128,-0.3260357,-0.2004291,0.1429325,-0.01466724,0.5382963,-0.8517151,31.23
5,-0.004425049,-0.1111298,0.9937897,1.0,0.01913452,-0.07096863,0.9972839,-33.4192,0.2494965,-22.33904,4.656143,0.5465322,0.5289505,1.0,-0.01533508,-0.1296692,0.9914246,34.83963,0.7605133,-22.93622,4.116547,0.4302149,0.525332,0.06121266,1.227128,-0.3260357,-0.2004291,0.1429325,-0.01466724,0.5382963,-0.8517151,31.23
5,0.02645874,-0.08459473,0.9960632,0.9658403,0.02645874,-0.08459473,0.9960632,-33.44144,0.2673645,-22.34659,4.568909,0.5460926,0.5306057,0.6985073,0.0,0.0,0.0,34.85611,0.7374268,-22.58997,-1.0,0.4365898,0.5212691,0.06118298,1.22712,-0.3260765,-0.2002657,0.1430089,-0.01451765,0.5382963,-0.8517151,31.23
5,0.02645874,-0.08459473,0.9960632,0.9658403,0.02645874,-0.08459473,0.9960632,-33.44144,0.2673645,-22.34659,4.568909,0.5460926,0.5306057,0.6985073,0.0,0.0,0.0,34.85611,0.7374268,-22.58997,-1.0,0.4365898,0.5212691,0.06118298,1.22712,-0.3260765,-0.2002657,0.1430089,-0.01451765,0.5382963,-0.8517151,31.23
5,-1.0,-1.0,-1.0,0.8339568,0.0,0.0,0.0,-33.62373,0.2414093,-22.15785,-1.0,0.5506177,0.5309785,0.6067692,0.0,0.0,0.0,34.71718,0.1895142,-24.67465,-1.0,0.443727,0.5496885,0.06123531,1.22713,-0.3260802,-0.2000625,0.1434574,-0.01425403,0.5382963,-44.81216,31.23
5,-1.0,-1.0,-1.0,0.7015169,0.0,0.0,0.0,-33.71342,0.280014,-21.61067,-1.0,0.5606235,0.5328437,0.4492367,0.0,0.0,0.0,33.98969,-0.09399414,-23.67957,-1.0,0.4218014,0.60879,0.06124532,1.227107,-0.3260946,-0.1999059,0.1437369,-0.01417488,0.5382963,-44.81216,31.23
5,-1.0,-1.0,-1.0,0.7015169,0.0,0.0,0.0,-33.71342,0.280014,-21.61067,-1.0,0.5606235,0.5328437,0.4492367,0.0,0.0,0.0,33.98969,-0.09399414,-23.67957,-1.0,0.4218014,0.60879,0.06124532,1.227107,-0.3260946,-0.1999059,0.1437369,-0.01417488,0.5382963,-44.81216,31.23
5,-1.0,-1.0,-1.0,0.5117903,0.0,0.0,0.0,-33.67177,0.6309662,-22.37209,-1.0,0.5562891,0.5329982,0.1889682,0.0,0.0,0.0,33.98969,-0.09399414,-23.67957,-1.0,0.3858783,0.616051,0.06136191,1.227076,-0.3260275,-0.1996685,0.144069,-0.01402003,0.5382963,-44.81216,31.23
5,-1.0,-1.0,-1.0,0.4161224,0.0,0.0,0.0,-33.85365,0.6237488,-22.32918,-1.0,0.569094,0.5331649,0.1477685,0.0,0.0,0.0,35.91158,-0.7397003,-23.85585,-1.0,0.3664625,0.6204084,0.06134415,1.227039,-0.3259599,-0.1994834,0.1441737,-0.01399077,0.5382963,-44.81216,31.23
5,-1.0,-1.0,-1.0,0.4181526,0.0,0.0,0.0,-33.99654,0.9119263,-23.4241,-1.0,0.5820107,0.5256595,0.1780292,0.0,0.0,0.0,33.25047,-0.209137,-23.92714,-1.0,0.5338322,0.5898933,0.06132305,1.226951,-0.3258896,-0.1991834,0.144559,-0.01362055,0.5382963,-44.81216,31.23
5,-1.0,-1.0,-1.0,0.4181526,0.0,0.0,0.0,-33.99654,0.9119263,-23.4241,-1.0,0.5820107,0.5256595,0.1780292,0.0,0.0,0.0,33.25047,-0.209137,-23.92714,-1.0,0.5338322,0.5898933,0.06132305,1.226951,-0.3258896,-0.1991834,0.144559,-0.01362055,0.5382963,-44.81216,31.23
5,-1.0,-1.0,-1.0,0.4849937,0.0,0.0,0.0,-34.07158,1.077652,-23.96666,-1.0,0.5843906,0.5200752,0.3132167,0.0,0.0,0.0,33.78624,0.1574707,-23.66183,-1.0,0.500154,0.5620453,0.06131387,1.227025,-0.3258377,-0.1990555,0.1447657,-0.01349415,0.5382963,-44.81216,31.23
5,-1.0,-1.0,-1.0,0.5425455,0.0,0.0,0.0,-34.23192,1.480118,-25.59296,-1.0,0.5912297,0.5196866,0.4522644,0.0,0.0,0.0,33.6846,1.094101,-23.51524,-1.0,0.499902,0.5086117,0.06119573,1.227015,-0.3258348,-0.1988114,0.1451098,-0.0132169,0.5382963,-44.81216,31.23
5,-1.0,-1.0,-1.0,0.5425455,0.0,0.0,0.0,-34.23192,1.480118,-25.59296,-1.0,0.5912297,0.5196866,0.4522644,0.0,0.0,0.0,33.6846,1.094101,-23.51524,-1.0,0.499902,0.5086117,0.06119573,1.227015,-0.3258348,-0.1988114,0.1451098,-0.0132169,0.5382963,-44.81216,31.23
5,-1.0,-1.0,-1.0,0.590142,0.0,0.0,0.0,-34.28633,1.412903,-25.57272,-1.0,0.5926048,0.5140507,0.5905114,0.0,0.0,0.0,33.55081,0.8832703,-23.56667,-1.0,0.5028861,0.5121067,0.06123912,1.22703,-0.3258035,-0.198463,0.1452931,-0.01284583,0.5382963,-44.81216,31.23
5,-1.0,-1.0,-1.0,0.68221,0.0,0.0,0.0,-34.29868,1.397995,-25.57935,-1.0,0.5944329,0.5219863,0.682189,0.0,0.0,0.0,33.50093,0.8364258,-23.53397,-1.0,0.4943703,0.5208068,0.061252,1.227025,-0.3257489,-0.1976191,0.1458419,-0.01113453,0.5382963,-44.81216,31.23
5,-1.0,-1.0,-1.0,0.68221,0.0,0.0,0.0,-34.29868,1.397995,-25.57935,-1.0,0.5944329,0.5219863,0.682189,0.0,0.0,0.0,33.50093,0.8364258,-23.53397,-1.0,0.4943703,0.5208068,0.061252,1.227025,-0.3257489,-0.1976191,0.1458419,-0.01113453,0.5382963,-44.81216,31.23
5,-0.155426,-0.05506897,0.9862976,0.7543632,-0.1009979,-0.06745911,0.9925842,-34.34592,1.36145,-25.77557,4.550858,0.5986845,0.5235872,0.7621572,-0.155426,-0.05506897,0.9862976,33.49304,0.7072601,-23.55862,4.517105,0.497409,0.5213566,0.06111407,1.226915,-0.3257649,-0.196741,0.146508,-0.009042271,0.5382963,-44.81216,31.23
5,-0.155426,-0.05506897,0.9862976,0.7543632,-0.1009979,-0.06745911,0.9925842,-34.34592,1.36145,-25.77557,4.550858,0.5986845,0.5235872,0.7621572,-0.155426,-0.05506897,0.9862976,33.49304,0.7072601,-23.55862,4.517105,0.497409,0.5213566,0.06111407,1.226915,-0.3257649,-0.196741,0.146508,-0.009042271,0.5382963,-44.81216,31.23
5,-0.1591492,-0.05778503,0.9855499,0.8286693,-0.1026154,-0.06774902,0.9924011,-34.38068,1.291077,-25.63193,4.577881,0.5999519,0.5246662,0.8338373,-0.1597748,-0.05766296,0.9854584,33.50566,0.7002411,-23.61734,4.584457,0.4976757,0.5226256,0.06107855,1.226866,-0.3257998,-0.1962499,0.1466809,-0.007987914,0.5344533,-44.81216,31.23
5,-0.1499023,-0.08299255,0.985199,0.875966,-0.1046906,-0.04389954,0.9935303,-34.37265,1.283737,-25.7607,4.777344,0.6001348,0.5222486,0.9026225,-0.1504669,-0.08348083,0.9850769,33.5264,0.6885223,-23.57091,4.289566,0.4955112,0.5266565,0.06107032,1.226828,-0.3257233,-0.1951084,0.147425,-0.005995132,0.5344533,18.65594,31.23
5,-0.1499023,-0.08299255,0.985199,0.875966,-0.1046906,-0.04389954,0.9935303,-34.37265,1.283737,-25.7607,4.777344,0.6001348,0.5222486,0.9026225,-0.1504669,-0.08348083,0.9850769,33.5264,0.6885223,-23.57091,4.289566,0.4955112,0.5266565,0.06107032,1.226828,-0.3257233,-0.1951084,0.147425,-0.005995132,0.5344533,18.65594,31.23
5,-0.1516113,-0.07049561,0.9859161,0.8943905,-0.1029205,-0.04998779,0.9934235,-34.38759,1.206558,-25.50645,4.749741,0.6000917,0.5234645,0.943048,-0.1542053,-0.07157898,0.9854279,33.54228,0.6822968,-23.61304,4.458481,0.4955647,0.5253741,0.06103384,1.226771,-0.325668,-0.1945346,0.1480021,-0.004829112,0.5344533,18.65594,31.23
5,-0.1492157,-0.07054138,0.9862823,0.9204291,-0.1021881,-0.06277466,0.9927673,-34.42195,1.152023,-25.3376,4.775909,0.6009281,0.5258633,0.9674425,-0.1508942,-0.07081604,0.9859924,33.54774,0.6814728,-23.67509,4.4496,0.4948534,0.5258096,0.06088638,1.226702,-0.3255798,-0.1932348,0.1486448,-0.002489756,0.5344533,18.65594,31.23
5,-0.1492157,-0.07054138,0.9862823,0.9204291,-0.1021881,-0.06277466,0.9927673,-34.42195,1.152023,-25.3376,4.775909,0.6009281,0.5258633,0.9674425,-0.1508942,-0.07081604,0.9859924,33.54774,0.6814728,-23.67509,4.4496,0.4948534,0.5258096,0.06088638,1.226702,-0.3255798,-0.1932348,0.1486448,-0.002489756,0.5344533,18.65594,31.23
5,-0.1517792,-0.06835938,0.9860382,0.9179018,-0.1008759,-0.05935669,0.9931183,-34.42195,1.148163,-25.33531,4.788422,0.6007119,0.5254039,0.995047,-0.1557007,-0.06906128,0.9853821,33.60127,0.6611023,-23.65906,4.419876,0.4938784,0.5260402,0.06073129,1.226635,-0.325515,-0.1924231,0.1488124,-0.001268592,0.5344533,18.65594,31.23
5,-0.1518555,-0.07096863,0.9858398,1.0,-0.09960938,-0.05979919,0.9932251,-34.41864,1.141251,-25.32559,4.788483,0.6003864,0.5256031,1.0,-0.1612549,-0.07296753,0.9842072,33.62468,0.6561279,-23.67656,4.517868,0.4939661,0.527105,0.06063533,1.226556,-0.325372,-0.1915089,0.1489941,0.000211432,0.5344533,18.65594,31.23
5,-0.1518555,-0.07096863,0.9858398,1.0,-0.09960938,-0.05979919,0.9932251,-34.41864,1.141251,-25.32559,4.788483,0.6003864,0.5256031,1.0,-0.1612549,-0.07296753,0.9842072,33.62468,0.6561279,-23.67656,4.517868,0.4939661,0.527105,0.06063533,1.226556,-0.325372,-0.1915089,0.1489941,0.000211432,0.5344533,18.65594,31.23
5,-0.1409149,-0.06825256,0.9876556,1.0,-0.1014862,-0.05334473,0.9933929,-34.40714,1.099625,-25.31979,4.790512,0.6003079,0.5258633,1.0,-0.1559448,-0.07391357,0.9849854,33.62468,0.6561279,-23.6852,4.488495,0.4931048,0.5272882,0.06048286,1.226489,-0.3252431,-0.1904541,0.1490249,0.001704619,0.5344533,18.65594,31.23
5,-0.1322174,-0.0645752,0.9891052,1.0,-0.1015472,-0.05308533,0.9934082,-34.40584,1.097641,-25.32269,4.785217,0.600277,0.5258973,1.0,-0.1539917,-0.07272339,0.9853821,33.618,0.6626587,-23.72165,4.5009,0.4930093,0.5271966,0.06010413,1.226193,-0.3249079,-0.188036,0.1488655,0.004751343,0.5344533,18.65594,31.23
5,-0.1233368,-0.06124878,0.9904633,1.0,-0.1008148,-0.05485535,0.9933777,-34.40233,1.094971,-25.32269,4.784454,0.6000444,0.5262783,1.0,-0.1536713,-0.06985474,0.9856415,33.61909,0.6604004,-23.76619,4.499908,0.4929315,0.5271966,0.06010413,1.226193,-0.3249079,-0.188036,0.1488655,0.004751343,0.5344533,18.65594,31.23
5,-0.1212769,-0.06176758,0.9906921,1.0,-0.1000519,-0.05697632,0.9933472,-34.40013,1.094299,-25.31979,4.78952,0.5998428,0.5266255,1.0,-0.1537781,-0.06907654,0.985672,33.62001,0.6561279,-23.77425,4.514114,0.4929139,0.5272882,0.0595001,1.225891,-0.3244098,-0.1852094,0.1481078,0.007921414,0.5344533,18.65594,31.23
5,-0.1212769,-0.06176758,0.9906921,1.0,-0.1000519,-0.05697632,0.9933472,-34.40013,1.094299,-25.31979,4.78952,0.5998428,0.5266255,1.0,-0.1537781,-0.06907654,0.985672,33.62001,0.6561279,-23.77425,4.514114,0.4929139,0.5272882,0.0595001,1.225891,-0.3244098,-0.1852094,0.1481078,0.007921414,0.5344533,18.65594,31.23
5,-0.1148071,-0.06340027,0.9913483,1.0,-0.1011658,-0.06011963,0.993042,-34.39279,1.093109,-25.31979,4.789276,0.5997781,0.5271838,1.0,-0.1412048,-0.06974792,0.9875183,33.62323,0.6448059,-23.83653,4.613022,0.4907117,0.5283224,0.05878174,1.225468,-0.3239378,-0.1823737,0.1469947,0.01115792,0.5344533,18.65594,31.23
5,-0.1153412,-0.06765747,0.9910126,1.0,-0.1023102,-0.06864929,0.9923706,-34.38504,1.088898,-25.31873,4.786652,0.5997061,0.5287367,1.0,-0.1419678,-0.06556702,0.9876862,33.61276,0.658844,-23.86308,4.539124,0.4912247,0.527357,0.05808389,1.225098,-0.3232951,-0.1794039,0.1460599,0.01411589,0.5344533,16.62424,31.23
5,-0.1153412,-0.06765747,0.9910126,1.0,-0.1023102,-0.06864929,0.9923706,-34.38504,1.088898,-25.31873,4.786652,0.5997061,0.5287367,1.0,-0.1419678,-0.06556702,0.9876862,33.61276,0.658844,-23.86308,4.539124,0.4912247,0.527357,0.05808389,1.225098,-0.3232951,-0.1794039,0.1460599,0.01411589,0.5344533,16.62424,31.23
