Second,eye_comb_direction_x,eye_comb_direction_y,eye_comb_direction_z,eye_r_openness,eye_r_direction_x,eye_r_direction_y,eye_r_direction_z,eye_r_origin_x,eye_r_origin_y,eye_r_origin_z,eye_r_pupil_diameter,eye_r_pupil_position_x,eye_r_pupil_position_y,eye_l_openness,eye_l_direction_x,eye_l_direction_y,eye_l_direction_z,eye_l_origin_x,eye_l_origin_y,eye_l_origin_z,eye_l_pupil_diameter,eye_l_pupil_position_x,eye_l_pupil_position_y,head_position_x,head_position_y,head_position_z,head_rotation_roll,head_rotation_pitch,head_rotation_yaw,EDA,BVP,TMP
0,-0.1227263999999999,-0.2469025,0.9612274,1.0,-0.2492828,-0.2848358,0.9255829,-26.45464,10.53654,-27.73376,2.573456,0.364559,0.257364,1.0,-0.04368591,-0.2212677,0.9742279,32.76787,10.80353,-30.4104,2.787674,0.5039608,0.2493493,-0.49427,1.211606,-0.2993695,-0.08992399,0.6474445,0.007595873,4.826193,0.5464402556582564,34.68145390956782
0,-0.1227263999999999,-0.2469025,0.9612274,1.0,-0.2492828,-0.2848358,0.9255829,-26.45464,10.53654,-27.73376,2.573456,0.364559,0.257364,1.0,-0.04368591,-0.2212677,0.9742279,32.76787,10.80353,-30.4104,2.787674,0.5039608,0.2493493,-0.49427,1.211606,-0.2993695,-0.08992399,0.6474445,0.007595873,4.826193,0.5464402556582564,34.68145390956782
0,-0.1227263999999999,-0.2469025,0.9612274,1.0,-0.2492828,-0.2848358,0.9255829,-26.45464,10.53654,-27.73376,2.573456,0.364559,0.257364,1.0,-0.04368591,-0.2212677,0.9742279,32.76787,10.80353,-30.4104,2.787674,0.5039608,0.2493493,-0.49427,1.211606,-0.2993695,-0.08992399,0.6474445,0.007595873,4.826193,0.5464402556582564,34.68145390956782
0,-0.1227263999999999,-0.2469025,0.9612274,1.0,-0.2492828,-0.2848358,0.9255829,-26.45464,10.53654,-27.73376,2.573456,0.364559,0.257364,1.0,-0.04368591,-0.2212677,0.9742279,32.76787,10.80353,-30.4104,2.787674,0.5039608,0.2493493,-0.49427,1.211606,-0.2993695,-0.08992399,0.6474445,0.007595873,4.826193,0.5464402556582564,34.68145390956782
0,-0.1235351999999999,-0.2481995,0.9607849,1.0,-0.2483826,-0.2897949,0.9242859,-26.45078,10.53278,-27.73723,2.533401,0.3643370999999999,0.2582636,1.0,-0.04347229,-0.2195435,0.9746246,32.76883,10.80005,-30.41231,2.786102,0.5039028,0.2492514,-0.4943092,1.211545,-0.2996180999999999,-0.08981541,0.6482015,0.007480979,4.826193,0.5464402556582564,34.68145390956782
0,-0.1235351999999999,-0.2481995,0.9607849,1.0,-0.2483826,-0.2897949,0.9242859,-26.45078,10.53278,-27.73723,2.533401,0.3643370999999999,0.2582636,1.0,-0.04347229,-0.2195435,0.9746246,32.76883,10.80005,-30.41231,2.786102,0.5039028,0.2492514,-0.4943092,1.211545,-0.2996180999999999,-0.08981541,0.6482015,0.007480979,4.826193,0.5464402556582564,34.68145390956782
0,-0.1235351999999999,-0.2481995,0.9607849,1.0,-0.2483826,-0.2897949,0.9242859,-26.45078,10.53278,-27.73723,2.533401,0.3643370999999999,0.2582636,1.0,-0.04347229,-0.2195435,0.9746246,32.76883,10.80005,-30.41231,2.786102,0.5039028,0.2492514,-0.4943092,1.211545,-0.2996180999999999,-0.08981541,0.6482015,0.007480979,4.826193,0.5464402556582564,34.68145390956782
0,-0.1223144999999999,-0.2442017,0.9619751,1.0,-0.2493438999999999,-0.2826232999999999,0.926239,-26.44711,10.5099,-27.751890000000003,2.483063,0.3643370999999999,0.2582636,1.0,-0.04289246,-0.2182465,0.9749451,32.77103,10.79869,-30.41371,2.755066,0.5037912999999999,0.2491572,-0.4943326,1.211512,-0.299759,-0.08964191,0.6486970000000001,0.007394328,4.826193,0.5464402556582564,34.68145390956782
0,-0.1223144999999999,-0.2442017,0.9619751,1.0,-0.2493438999999999,-0.2826232999999999,0.926239,-26.44711,10.5099,-27.751890000000003,2.483063,0.3643370999999999,0.2582636,1.0,-0.04289246,-0.2182465,0.9749451,32.77103,10.79869,-30.41371,2.755066,0.5037912999999999,0.2491572,-0.4943326,1.211512,-0.299759,-0.08964191,0.6486970000000001,0.007394328,4.826193,0.5464402556582564,34.68145390956782
0,-0.1223144999999999,-0.2442017,0.9619751,1.0,-0.2493438999999999,-0.2826232999999999,0.926239,-26.44711,10.5099,-27.751890000000003,2.483063,0.3643370999999999,0.2582636,1.0,-0.04289246,-0.2182465,0.9749451,32.77103,10.79869,-30.41371,2.755066,0.5037912999999999,0.2491572,-0.4943326,1.211512,-0.299759,-0.08964191,0.6486970000000001,0.007394328,4.826193,0.5464402556582564,34.68145390956782
0,-0.1223144999999999,-0.2442017,0.9619751,1.0,-0.2493438999999999,-0.2826232999999999,0.926239,-26.44711,10.5099,-27.751890000000003,2.483063,0.3643370999999999,0.2582636,1.0,-0.04289246,-0.2182465,0.9749451,32.77103,10.79869,-30.41371,2.755066,0.5037912999999999,0.2491572,-0.4943252999999999,1.211414,-0.3000375,-0.08920021,0.6497961999999999,0.006946756,4.826193,0.5464402556582564,34.68145390956782
0,-0.1223144999999999,-0.2442017,0.9619751,1.0,-0.2493438999999999,-0.2826232999999999,0.926239,-26.44711,10.5099,-27.751890000000003,2.483063,0.3643370999999999,0.2582636,1.0,-0.04289246,-0.2182465,0.9749451,32.77103,10.79869,-30.41371,2.755066,0.5037912999999999,0.2491572,-0.4943252999999999,1.211414,-0.3000375,-0.08920021,0.6497961999999999,0.006946756,4.826193,0.5464402556582564,34.68145390956782
0,-0.1223144999999999,-0.2442017,0.9619751,1.0,-0.2493438999999999,-0.2826232999999999,0.926239,-26.44711,10.5099,-27.751890000000003,2.483063,0.3643370999999999,0.2582636,1.0,-0.04289246,-0.2182465,0.9749451,32.77103,10.79869,-30.41371,2.755066,0.5037912999999999,0.2491572,-0.4943252999999999,1.211414,-0.3000375,-0.08920021,0.6497961999999999,0.006946756,4.826193,0.5464402556582564,34.68145390956782
0,-0.1223144999999999,-0.2442017,0.9619751,1.0,-0.2493438999999999,-0.2826232999999999,0.926239,-26.44711,10.5099,-27.751890000000003,2.483063,0.3643370999999999,0.2582636,1.0,-0.04289246,-0.2182465,0.9749451,32.77103,10.79869,-30.41371,2.755066,0.5037912999999999,0.2491572,-0.4943042,1.211403,-0.3002175,-0.08864167,0.6504153,0.006970311,4.826193,0.5464402556582564,34.68145390956782
0,-0.1223144999999999,-0.2442017,0.9619751,1.0,-0.2493438999999999,-0.2826232999999999,0.926239,-26.44711,10.5099,-27.751890000000003,2.483063,0.3643370999999999,0.2582636,1.0,-0.04289246,-0.2182465,0.9749451,32.77103,10.79869,-30.41371,2.755066,0.5037912999999999,0.2491572,-0.4943042,1.211403,-0.3002175,-0.08864167,0.6504153,0.006970311,4.826193,0.5464402556582564,34.68145390956782
0,-0.1223144999999999,-0.2442017,0.9619751,1.0,-0.2493438999999999,-0.2826232999999999,0.926239,-26.44711,10.5099,-27.751890000000003,2.483063,0.3643370999999999,0.2582636,1.0,-0.04289246,-0.2182465,0.9749451,32.77103,10.79869,-30.41371,2.755066,0.5037912999999999,0.2491572,-0.4943042,1.211403,-0.3002175,-0.08864167,0.6504153,0.006970311,4.826193,0.5464402556582564,34.68145390956782
0,-0.1212616,-0.2424773999999999,0.9625397,1.0,-0.249527,-0.2793732,0.9271851,-26.44498,10.50964,-27.75281,2.4682310000000003,0.3642813,0.2578262,1.0,-0.04191589,-0.2177123999999999,0.9750976999999998,32.77397,10.79739,-30.41455,2.731415,0.5035954,0.2491572,-0.4943689999999999,1.211277,-0.3005639,-0.08832759,0.6515102,0.00658784,4.826193,0.5464402556582564,34.68145390956782
0,-0.1212616,-0.2424773999999999,0.9625397,1.0,-0.249527,-0.2793732,0.9271851,-26.44498,10.50964,-27.75281,2.4682310000000003,0.3642813,0.2578262,1.0,-0.04191589,-0.2177123999999999,0.9750976999999998,32.77397,10.79739,-30.41455,2.731415,0.5035954,0.2491572,-0.4943689999999999,1.211277,-0.3005639,-0.08832759,0.6515102,0.00658784,4.826193,0.5464402556582564,34.68145390956782
0,-0.1212616,-0.2424773999999999,0.9625397,1.0,-0.249527,-0.2793732,0.9271851,-26.44498,10.50964,-27.75281,2.4682310000000003,0.3642813,0.2578262,1.0,-0.04191589,-0.2177123999999999,0.9750976999999998,32.77397,10.79739,-30.41455,2.731415,0.5035954,0.2491572,-0.4943689999999999,1.211277,-0.3005639,-0.08832759,0.6515102,0.00658784,4.826193,0.5464402556582564,34.68145390956782
0,-0.1212616,-0.2424773999999999,0.9625397,1.0,-0.249527,-0.2793732,0.9271851,-26.44498,10.50964,-27.75281,2.4682310000000003,0.3642813,0.2578262,1.0,-0.04191589,-0.2177123999999999,0.9750976999999998,32.77397,10.79739,-30.41455,2.731415,0.5035954,0.2491572,-0.4943755,1.211019,-0.301084,-0.08834249,0.6539337,0.005295658,4.826193,11.20367,34.68145390956782
0,-0.1212616,-0.2424773999999999,0.9625397,1.0,-0.249527,-0.2793732,0.9271851,-26.44498,10.50964,-27.75281,2.4682310000000003,0.3642813,0.2578262,1.0,-0.04191589,-0.2177123999999999,0.9750976999999998,32.77397,10.79739,-30.41455,2.731415,0.5035954,0.2491572,-0.4943755,1.211019,-0.301084,-0.08834249,0.6539337,0.005295658,4.826193,11.20367,34.68145390956782
0,-0.1212616,-0.2424773999999999,0.9625397,1.0,-0.249527,-0.2793732,0.9271851,-26.44498,10.50964,-27.75281,2.4682310000000003,0.3642813,0.2578262,1.0,-0.04191589,-0.2177123999999999,0.9750976999999998,32.77397,10.79739,-30.41455,2.731415,0.5035954,0.2491572,-0.4943755,1.211019,-0.301084,-0.08834249,0.6539337,0.005295658,4.826193,11.20367,34.68145390956782
0,-0.2713776,-0.3714752,0.8878784,0.9715101,-0.2948608,-0.3524474999999999,0.8881530999999999,-27.579790000000003,9.635742,-28.19067,2.625809,0.409829,0.3046188,0.9672271,-0.2182922,-0.4125366,0.8843841999999998,31.65636,10.07294,-30.94606,2.626709,0.5639616,0.3086041,-0.4943822,1.210882,-0.3014606999999999,-0.08751921,0.6558347,0.005118408,4.826193,11.20367,34.68145390956782
0,-0.2713776,-0.3714752,0.8878784,0.9715101,-0.2948608,-0.3524474999999999,0.8881530999999999,-27.579790000000003,9.635742,-28.19067,2.625809,0.409829,0.3046188,0.9672271,-0.2182922,-0.4125366,0.8843841999999998,31.65636,10.07294,-30.94606,2.626709,0.5639616,0.3086041,-0.4943822,1.210882,-0.3014606999999999,-0.08751921,0.6558347,0.005118408,4.826193,11.20367,34.68145390956782
0,-0.2713776,-0.3714752,0.8878784,0.9715101,-0.2948608,-0.3524474999999999,0.8881530999999999,-27.579790000000003,9.635742,-28.19067,2.625809,0.409829,0.3046188,0.9672271,-0.2182922,-0.4125366,0.8843841999999998,31.65636,10.07294,-30.94606,2.626709,0.5639616,0.3086041,-0.4943822,1.210882,-0.3014606999999999,-0.08751921,0.6558347,0.005118408,4.826193,11.20367,34.68145390956782
0,-0.3778534,-0.413147,0.8285521999999998,0.8908038,-0.4223479999999999,-0.4132996,0.8067017,-27.08318,9.928314,-28.215670000000003,2.633881,0.4094113,0.3044926,0.8580116,-0.2386627,-0.4065552,0.8818969999999999,31.728990000000003,10.05312,-30.95583,2.596878,0.5640361999999999,0.3087741,-0.494168,1.210492,-0.3022285,-0.08575927,0.6596886,0.0056859419999999,4.826193,11.20367,34.68145390956782
0,-0.3778534,-0.413147,0.8285521999999998,0.8908038,-0.4223479999999999,-0.4132996,0.8067017,-27.08318,9.928314,-28.215670000000003,2.633881,0.4094113,0.3044926,0.8580116,-0.2386627,-0.4065552,0.8818969999999999,31.728990000000003,10.05312,-30.95583,2.596878,0.5640361999999999,0.3087741,-0.494168,1.210492,-0.3022285,-0.08575927,0.6596886,0.0056859419999999,4.826193,11.20367,34.68145390956782
0,-0.3778534,-0.413147,0.8285521999999998,0.8908038,-0.4223479999999999,-0.4132996,0.8067017,-27.08318,9.928314,-28.215670000000003,2.633881,0.4094113,0.3044926,0.8580116,-0.2386627,-0.4065552,0.8818969999999999,31.728990000000003,10.05312,-30.95583,2.596878,0.5640361999999999,0.3087741,-0.494168,1.210492,-0.3022285,-0.08575927,0.6596886,0.0056859419999999,4.826193,11.20367,34.68145390956782
0,-0.3089294,-0.4031219,0.8614197,0.8868603999999999,-0.4138031,-0.4149933,0.810257,-27.07597,9.920364,-28.214920000000003,2.596359,0.408063,0.3049005,0.8770281999999999,-0.2324982,-0.3914185,0.8903351,31.81097,10.06865,-30.93805,2.38974,0.560752,0.3061067999999999,-0.4941263,1.210369,-0.3026072999999999,-0.0854402,0.6615316,0.005553025,4.826193,11.20367,34.68145390956782
0,-0.3089294,-0.4031219,0.8614197,0.8868603999999999,-0.4138031,-0.4149933,0.810257,-27.07597,9.920364,-28.214920000000003,2.596359,0.408063,0.3049005,0.8770281999999999,-0.2324982,-0.3914185,0.8903351,31.81097,10.06865,-30.93805,2.38974,0.560752,0.3061067999999999,-0.4941263,1.210369,-0.3026072999999999,-0.0854402,0.6615316,0.005553025,4.826193,11.20367,34.68145390956782
0,-0.3089294,-0.4031219,0.8614197,0.8868603999999999,-0.4138031,-0.4149933,0.810257,-27.07597,9.920364,-28.214920000000003,2.596359,0.408063,0.3049005,0.8770281999999999,-0.2324982,-0.3914185,0.8903351,31.81097,10.06865,-30.93805,2.38974,0.560752,0.3061067999999999,-0.4941263,1.210369,-0.3026072999999999,-0.0854402,0.6615316,0.005553025,4.826193,11.20367,34.68145390956782
0,-0.288147,-0.3932953,0.8730773999999999,0.929129,-0.4012146,-0.4043732,0.8218841999999998,-27.05411,9.928146,-28.174,2.689865,0.4055529,0.3024266,0.8848902,-0.2295837,-0.3854218,0.8937073,31.8197,10.05946,-30.9301,2.458221,0.5599691,0.3053991,-0.4938465999999999,1.210265,-0.3034929,-0.08511683,0.6654119000000001,0.005578794,4.826193,11.20367,34.68145390956782
0,-0.288147,-0.3932953,0.8730773999999999,0.929129,-0.4012146,-0.4043732,0.8218841999999998,-27.05411,9.928146,-28.174,2.689865,0.4055529,0.3024266,0.8848902,-0.2295837,-0.3854218,0.8937073,31.8197,10.05946,-30.9301,2.458221,0.5599691,0.3053991,-0.4938465999999999,1.210265,-0.3034929,-0.08511683,0.6654119000000001,0.005578794,4.826193,11.20367,34.68145390956782
0,-0.288147,-0.3932953,0.8730773999999999,0.929129,-0.4012146,-0.4043732,0.8218841999999998,-27.05411,9.928146,-28.174,2.689865,0.4055529,0.3024266,0.8848902,-0.2295837,-0.3854218,0.8937073,31.8197,10.05946,-30.9301,2.458221,0.5599691,0.3053991,-0.4938465999999999,1.210265,-0.3034929,-0.08511683,0.6654119000000001,0.005578794,4.826193,11.20367,34.68145390956782
0,-0.3007813,-0.4030304,0.8643341,0.9585544,-0.4033203,-0.4119109999999999,0.8170929,-27.04242,9.928085,-28.18776,2.537369,0.4055529,0.3038368,0.9168247,-0.2187958,-0.3926086,0.89328,31.82677,10.04388,-30.93282,2.458664,0.5583513000000001,0.306904,-0.4935792999999999,1.210395,-0.30391,-0.08545318,0.6669795000000001,0.005589468,4.826193,12.17595,34.68145390956782
0,-0.3007813,-0.4030304,0.8643341,0.9585544,-0.4033203,-0.4119109999999999,0.8170929,-27.04242,9.928085,-28.18776,2.537369,0.4055529,0.3038368,0.9168247,-0.2187958,-0.3926086,0.89328,31.82677,10.04388,-30.93282,2.458664,0.5583513000000001,0.306904,-0.4935792999999999,1.210395,-0.30391,-0.08545318,0.6669795000000001,0.005589468,4.826193,12.17595,34.68145390956782
0,-0.3007813,-0.4030304,0.8643341,0.9585544,-0.4033203,-0.4119109999999999,0.8170929,-27.04242,9.928085,-28.18776,2.537369,0.4055529,0.3038368,0.9168247,-0.2187958,-0.3926086,0.89328,31.82677,10.04388,-30.93282,2.458664,0.5583513000000001,0.306904,-0.4935792999999999,1.210395,-0.30391,-0.08545318,0.6669795000000001,0.005589468,4.826193,12.17595,34.68145390956782
1,-0.2942962999999999,-0.4059448,0.8652039,0.9739643,-0.4015198,-0.4118652,0.8179932,-27.03842,9.92363,-28.18782,2.533112,0.405181,0.3039585,0.9268306,-0.2094421,-0.3976288,0.8933105,31.8295,10.04153,-30.93237,2.45224,0.5570861999999999,0.3076273,-0.4933358,1.210503,-0.3042500999999999,-0.08592156,0.6681066999999999,0.00538218,4.826193,12.17595,34.68145390956782
1,-0.2942962999999999,-0.4059448,0.8652039,0.9739643,-0.4015198,-0.4118652,0.8179932,-27.03842,9.92363,-28.18782,2.533112,0.405181,0.3039585,0.9268306,-0.2094421,-0.3976288,0.8933105,31.8295,10.04153,-30.93237,2.45224,0.5570861999999999,0.3076273,-0.4933358,1.210503,-0.3042500999999999,-0.08592156,0.6681066999999999,0.00538218,4.826193,12.17595,34.68145390956782
1,-0.2942962999999999,-0.4059448,0.8652039,0.9739643,-0.4015198,-0.4118652,0.8179932,-27.03842,9.92363,-28.18782,2.533112,0.405181,0.3039585,0.9268306,-0.2094421,-0.3976288,0.8933105,31.8295,10.04153,-30.93237,2.45224,0.5570861999999999,0.3076273,-0.4933358,1.210503,-0.3042500999999999,-0.08592156,0.6681066999999999,0.00538218,4.826193,12.17595,34.68145390956782
1,-0.2884369,-0.4078674,0.8662719999999999,0.9739643,-0.4019165,-0.4114532,0.8180084,-27.03442,9.919189,-28.18787,2.530334,0.4050959,0.3040802999999999,0.9268306,-0.2039642,-0.4014282,0.8928833,31.83493,10.04117,-30.93164,2.4475860000000003,0.5562133,0.3081328,-0.4931423,1.210532,-0.3045033,-0.08638264,0.6686970999999999,0.005301633,4.826193,12.17595,34.68145390956782
1,-0.2884369,-0.4078674,0.8662719999999999,0.9739643,-0.4019165,-0.4114532,0.8180084,-27.03442,9.919189,-28.18787,2.530334,0.4050959,0.3040802999999999,0.9268306,-0.2039642,-0.4014282,0.8928833,31.83493,10.04117,-30.93164,2.4475860000000003,0.5562133,0.3081328,-0.4931423,1.210532,-0.3045033,-0.08638264,0.6686970999999999,0.005301633,4.826193,12.17595,34.68145390956782
1,-0.2884369,-0.4078674,0.8662719999999999,0.9739643,-0.4019165,-0.4114532,0.8180084,-27.03442,9.919189,-28.18787,2.530334,0.4050959,0.3040802999999999,0.9268306,-0.2039642,-0.4014282,0.8928833,31.83493,10.04117,-30.93164,2.4475860000000003,0.5562133,0.3081328,-0.4931423,1.210532,-0.3045033,-0.08638264,0.6686970999999999,0.005301633,4.826193,12.17595,34.68145390956782
1,-0.1257019,-0.335907,0.9334564,0.9484077,-0.2526093,-0.3564148,0.8995209000000001,-26.16071,10.31058,-27.76341,2.28334,0.3551559999999999,0.27602,0.9003409,-0.03491211,-0.3178710999999999,0.9474792,32.66483,10.5907,-30.50305,2.38588,0.5066807,0.2720301,-0.4930213,1.210426,-0.304638,-0.08647355,0.6689007,0.0049551379999999,4.826193,12.17595,34.68145390956782
1,-0.1257019,-0.335907,0.9334564,0.9484077,-0.2526093,-0.3564148,0.8995209000000001,-26.16071,10.31058,-27.76341,2.28334,0.3551559999999999,0.27602,0.9003409,-0.03491211,-0.3178710999999999,0.9474792,32.66483,10.5907,-30.50305,2.38588,0.5066807,0.2720301,-0.4930213,1.210426,-0.304638,-0.08647355,0.6689007,0.0049551379999999,4.826193,12.17595,34.68145390956782
1,-0.1257019,-0.335907,0.9334564,0.9484077,-0.2526093,-0.3564148,0.8995209000000001,-26.16071,10.31058,-27.76341,2.28334,0.3551559999999999,0.27602,0.9003409,-0.03491211,-0.3178710999999999,0.9474792,32.66483,10.5907,-30.50305,2.38588,0.5066807,0.2720301,-0.4930213,1.210426,-0.304638,-0.08647355,0.6689007,0.0049551379999999,4.826193,12.17595,34.68145390956782
1,-0.1257019,-0.335907,0.9334564,0.9484077,-0.2526093,-0.3564148,0.8995209000000001,-26.16071,10.31058,-27.76341,2.28334,0.3551559999999999,0.27602,0.9003409,-0.03491211,-0.3178710999999999,0.9474792,32.66483,10.5907,-30.50305,2.38588,0.5066807,0.2720301,-0.4928957,1.210304,-0.3047245999999999,-0.08656474,0.6687989000000001,0.003865506,4.826193,12.17595,34.68145390956782
1,-0.1257019,-0.335907,0.9334564,0.9484077,-0.2526093,-0.3564148,0.8995209000000001,-26.16071,10.31058,-27.76341,2.28334,0.3551559999999999,0.27602,0.9003409,-0.03491211,-0.3178710999999999,0.9474792,32.66483,10.5907,-30.50305,2.38588,0.5066807,0.2720301,-0.4928957,1.210304,-0.3047245999999999,-0.08656474,0.6687989000000001,0.003865506,4.826193,12.17595,34.68145390956782
1,-0.1257019,-0.335907,0.9334564,0.9484077,-0.2526093,-0.3564148,0.8995209000000001,-26.16071,10.31058,-27.76341,2.28334,0.3551559999999999,0.27602,0.9003409,-0.03491211,-0.3178710999999999,0.9474792,32.66483,10.5907,-30.50305,2.38588,0.5066807,0.2720301,-0.4928957,1.210304,-0.3047245999999999,-0.08656474,0.6687989000000001,0.003865506,4.826193,12.17595,34.68145390956782
1,-0.1057434,-0.3239136,0.940155,1.0,-0.2326202,-0.3205872,0.9181976,-26.19589,10.30881,-27.74458,2.310211,0.3536978,0.2706439,1.0,-0.02833557,-0.3233185,0.9458618,32.77997,10.58366,-30.49292,2.453094,0.5017867,0.2728776,-0.4927630999999999,1.210137,-0.3048541999999999,-0.08634567,0.6686594,0.002891289,4.826193,9.006222,34.68145390956782
1,-0.1057434,-0.3239136,0.940155,1.0,-0.2326202,-0.3205872,0.9181976,-26.19589,10.30881,-27.74458,2.310211,0.3536978,0.2706439,1.0,-0.02833557,-0.3233185,0.9458618,32.77997,10.58366,-30.49292,2.453094,0.5017867,0.2728776,-0.4927630999999999,1.210137,-0.3048541999999999,-0.08634567,0.6686594,0.002891289,4.826193,9.006222,34.68145390956782
1,-0.1057434,-0.3239136,0.940155,1.0,-0.2326202,-0.3205872,0.9181976,-26.19589,10.30881,-27.74458,2.310211,0.3536978,0.2706439,1.0,-0.02833557,-0.3233185,0.9458618,32.77997,10.58366,-30.49292,2.453094,0.5017867,0.2728776,-0.4927630999999999,1.210137,-0.3048541999999999,-0.08634567,0.6686594,0.002891289,4.826193,9.006222,34.68145390956782
1,-0.09629822,-0.3171082,0.9434814,1.0,-0.246048,-0.322876,0.9138947,-26.19589,10.30254,-27.75598,2.250244,0.3554708,0.2715119,1.0,-0.01550293,-0.3110045999999999,0.9502716,32.78363,10.58366,-30.48788,2.2227330000000003,0.5003287000000001,0.2712882,-0.4926599,1.209952,-0.3049731,-0.08617368,0.6684854,0.002257476,4.826193,9.006222,34.68145390956782
1,-0.09629822,-0.3171082,0.9434814,1.0,-0.246048,-0.322876,0.9138947,-26.19589,10.30254,-27.75598,2.250244,0.3554708,0.2715119,1.0,-0.01550293,-0.3110045999999999,0.9502716,32.78363,10.58366,-30.48788,2.2227330000000003,0.5003287000000001,0.2712882,-0.4926599,1.209952,-0.3049731,-0.08617368,0.6684854,0.002257476,4.826193,9.006222,34.68145390956782
1,-0.09629822,-0.3171082,0.9434814,1.0,-0.246048,-0.322876,0.9138947,-26.19589,10.30254,-27.75598,2.250244,0.3554708,0.2715119,1.0,-0.01550293,-0.3110045999999999,0.9502716,32.78363,10.58366,-30.48788,2.2227330000000003,0.5003287000000001,0.2712882,-0.4926599,1.209952,-0.3049731,-0.08617368,0.6684854,0.002257476,4.826193,9.006222,34.68145390956782
1,-0.09629822,-0.3171082,0.9434814,1.0,-0.246048,-0.322876,0.9138947,-26.19589,10.30254,-27.75598,2.250244,0.3554708,0.2715119,1.0,-0.01550293,-0.3110045999999999,0.9502716,32.78363,10.58366,-30.48788,2.2227330000000003,0.5003287000000001,0.2712882,-0.4925907999999999,1.209758,-0.305151,-0.085926,0.6685651,0.001649644,4.826193,9.006222,34.68145390956782
1,-0.09629822,-0.3171082,0.9434814,1.0,-0.246048,-0.322876,0.9138947,-26.19589,10.30254,-27.75598,2.250244,0.3554708,0.2715119,1.0,-0.01550293,-0.3110045999999999,0.9502716,32.78363,10.58366,-30.48788,2.2227330000000003,0.5003287000000001,0.2712882,-0.4925907999999999,1.209758,-0.305151,-0.085926,0.6685651,0.001649644,4.826193,9.006222,34.68145390956782
1,-0.09629822,-0.3171082,0.9434814,1.0,-0.246048,-0.322876,0.9138947,-26.19589,10.30254,-27.75598,2.250244,0.3554708,0.2715119,1.0,-0.01550293,-0.3110045999999999,0.9502716,32.78363,10.58366,-30.48788,2.2227330000000003,0.5003287000000001,0.2712882,-0.4925907999999999,1.209758,-0.305151,-0.085926,0.6685651,0.001649644,4.826193,9.006222,34.68145390956782
1,-0.1047974,-0.3171692,0.9425507,1.0,-0.2427063,-0.3236389,0.914505,-26.20169,10.30568,-27.756870000000003,2.24968,0.3552367,0.2714733,1.0,-0.02258301,-0.3104095,0.9503174,32.78596,10.58545,-30.485640000000004,2.2956540000000003,0.5010577,0.2710705,-0.4925585999999999,1.209593,-0.3052597999999999,-0.08558945,0.6688092,0.001350381,4.826193,9.006222,34.68145390956782
1,-0.1047974,-0.3171692,0.9425507,1.0,-0.2427063,-0.3236389,0.914505,-26.20169,10.30568,-27.756870000000003,2.24968,0.3552367,0.2714733,1.0,-0.02258301,-0.3104095,0.9503174,32.78596,10.58545,-30.485640000000004,2.2956540000000003,0.5010577,0.2710705,-0.4925585999999999,1.209593,-0.3052597999999999,-0.08558945,0.6688092,0.001350381,4.826193,9.006222,34.68145390956782
1,-0.1047974,-0.3171692,0.9425507,1.0,-0.2427063,-0.3236389,0.914505,-26.20169,10.30568,-27.756870000000003,2.24968,0.3552367,0.2714733,1.0,-0.02258301,-0.3104095,0.9503174,32.78596,10.58545,-30.485640000000004,2.2956540000000003,0.5010577,0.2710705,-0.4925585999999999,1.209593,-0.3052597999999999,-0.08558945,0.6688092,0.001350381,4.826193,9.006222,34.68145390956782
1,-0.1124878,-0.3198853,0.9407501,1.0,-0.2373809999999999,-0.3291779,0.9139252,-26.21484,10.32689,-27.75566,2.248825,0.3550027,0.2714347,1.0,-0.02818298,-0.3107758,0.950058,32.78625,10.59964,-30.4857,2.267975,0.5017867,0.2706625,-0.4923984999999999,1.209591,-0.3054012,-0.08578436,0.6690501999999999,0.001110437,4.826193,9.006222,34.68145390956782
1,-0.1124878,-0.3198853,0.9407501,1.0,-0.2373809999999999,-0.3291779,0.9139252,-26.21484,10.32689,-27.75566,2.248825,0.3550027,0.2714347,1.0,-0.02818298,-0.3107758,0.950058,32.78625,10.59964,-30.4857,2.267975,0.5017867,0.2706625,-0.4923984999999999,1.209591,-0.3054012,-0.08578436,0.6690501999999999,0.001110437,4.826193,9.006222,34.68145390956782
1,-0.1124878,-0.3198853,0.9407501,1.0,-0.2373809999999999,-0.3291779,0.9139252,-26.21484,10.32689,-27.75566,2.248825,0.3550027,0.2714347,1.0,-0.02818298,-0.3107758,0.950058,32.78625,10.59964,-30.4857,2.267975,0.5017867,0.2706625,-0.4923984999999999,1.209591,-0.3054012,-0.08578436,0.6690501999999999,0.001110437,4.826193,9.006222,34.68145390956782
1,-0.1087188999999999,-0.3123169,0.9437256,1.0,-0.235611,-0.3247375,0.9159698,-26.2149,10.3369,-27.75566,2.246796,0.3547524,0.2704101,1.0,-0.02816772,-0.3018035999999999,0.9529419,32.78722,10.60591,-30.48476,2.268295,0.5017651,0.2691499,-0.4922112,1.209657,-0.3054039,-0.08603466,0.6694066,0.001012154,4.826193,-29.55526,34.68145390956782
1,-0.1087188999999999,-0.3123169,0.9437256,1.0,-0.235611,-0.3247375,0.9159698,-26.2149,10.3369,-27.75566,2.246796,0.3547524,0.2704101,1.0,-0.02816772,-0.3018035999999999,0.9529419,32.78722,10.60591,-30.48476,2.268295,0.5017651,0.2691499,-0.4922112,1.209657,-0.3054039,-0.08603466,0.6694066,0.001012154,4.826193,-29.55526,34.68145390956782
1,-0.1087188999999999,-0.3123169,0.9437256,1.0,-0.235611,-0.3247375,0.9159698,-26.2149,10.3369,-27.75566,2.246796,0.3547524,0.2704101,1.0,-0.02816772,-0.3018035999999999,0.9529419,32.78722,10.60591,-30.48476,2.268295,0.5017651,0.2691499,-0.4922112,1.209657,-0.3054039,-0.08603466,0.6694066,0.001012154,4.826193,-29.55526,34.68145390956782
1,-0.1112213,-0.3100890999999999,0.9441681,1.0,-0.2341308999999999,-0.3234406,0.9168091,-26.21349,10.34375,-27.751140000000003,2.220047,0.3545113,0.2699575999999999,1.0,-0.03234863,-0.2990416999999999,0.9536896,32.78955,10.61238,-30.48453,2.352737,0.5021169,0.2684366,-0.4920645,1.209743,-0.3055844,-0.08663082,0.6698155,0.0012373739999999,4.826193,-29.55526,34.68145390956782
1,-0.1112213,-0.3100890999999999,0.9441681,1.0,-0.2341308999999999,-0.3234406,0.9168091,-26.21349,10.34375,-27.751140000000003,2.220047,0.3545113,0.2699575999999999,1.0,-0.03234863,-0.2990416999999999,0.9536896,32.78955,10.61238,-30.48453,2.352737,0.5021169,0.2684366,-0.4920645,1.209743,-0.3055844,-0.08663082,0.6698155,0.0012373739999999,4.826193,-29.55526,34.68145390956782
1,-0.1112213,-0.3100890999999999,0.9441681,1.0,-0.2341308999999999,-0.3234406,0.9168091,-26.21349,10.34375,-27.751140000000003,2.220047,0.3545113,0.2699575999999999,1.0,-0.03234863,-0.2990416999999999,0.9536896,32.78955,10.61238,-30.48453,2.352737,0.5021169,0.2684366,-0.4920645,1.209743,-0.3055844,-0.08663082,0.6698155,0.0012373739999999,4.826193,-29.55526,34.68145390956782
1,-0.108551,-0.3071442,0.9454346,1.0,-0.2319793999999999,-0.3189087,0.9189453000000002,-26.20941,10.34598,-27.74837,2.2169950000000003,0.3540738,0.2691833,1.0,-0.03146362,-0.2974091,0.9542236,32.79405,10.61346,-30.48459,2.339722,0.5018668,0.2681802,-0.4917917,1.209848,-0.3056973,-0.08739328,0.6703816,0.0018121379999999,4.826193,-29.55526,34.68145390956782
1,-0.108551,-0.3071442,0.9454346,1.0,-0.2319793999999999,-0.3189087,0.9189453000000002,-26.20941,10.34598,-27.74837,2.2169950000000003,0.3540738,0.2691833,1.0,-0.03146362,-0.2974091,0.9542236,32.79405,10.61346,-30.48459,2.339722,0.5018668,0.2681802,-0.4917917,1.209848,-0.3056973,-0.08739328,0.6703816,0.0018121379999999,4.826193,-29.55526,34.68145390956782
1,-0.108551,-0.3071442,0.9454346,1.0,-0.2319793999999999,-0.3189087,0.9189453000000002,-26.20941,10.34598,-27.74837,2.2169950000000003,0.3540738,0.2691833,1.0,-0.03146362,-0.2974091,0.9542236,32.79405,10.61346,-30.48459,2.339722,0.5018668,0.2681802,-0.4917917,1.209848,-0.3056973,-0.08739328,0.6703816,0.0018121379999999,4.826193,-29.55526,34.68145390956782
1,-0.1091003,-0.3070830999999999,0.9453888,1.0,-0.2298889,-0.3187103,0.9195404,-26.20782,10.34598,-27.7453,2.224426,0.3537456,0.2690903,1.0,-0.03211975,-0.2973328,0.9542236,32.79642,10.61346,-30.4846,2.339722,0.5018668,0.2681802,-0.4914801,1.210125,-0.3058947,-0.08775438,0.6712197,0.002618117,4.826193,-29.55526,34.68145390956782
1,-0.1091003,-0.3070830999999999,0.9453888,1.0,-0.2298889,-0.3187103,0.9195404,-26.20782,10.34598,-27.7453,2.224426,0.3537456,0.2690903,1.0,-0.03211975,-0.2973328,0.9542236,32.79642,10.61346,-30.4846,2.339722,0.5018668,0.2681802,-0.4914801,1.210125,-0.3058947,-0.08775438,0.6712197,0.002618117,4.826193,-29.55526,34.68145390956782
1,-0.1091003,-0.3070830999999999,0.9453888,1.0,-0.2298889,-0.3187103,0.9195404,-26.20782,10.34598,-27.7453,2.224426,0.3537456,0.2690903,1.0,-0.03211975,-0.2973328,0.9542236,32.79642,10.61346,-30.4846,2.339722,0.5018668,0.2681802,-0.4914801,1.210125,-0.3058947,-0.08775438,0.6712197,0.002618117,4.826193,-29.55526,34.68145390956782
1,-0.1092377,-0.3049011,0.9460907,1.0,-0.2301482999999999,-0.3136444,0.9212189,-26.20255,10.34413,-27.7415,2.224945,0.3535839,0.2684029,1.0,-0.03198242,-0.2969817999999999,0.9543457,32.79816,10.61205,-30.48511,2.330917,0.5018004,0.268185,-0.4912555999999999,1.210314,-0.3060575,-0.08779792,0.6719488,0.003760479,4.826193,-29.55526,34.68145390956782
1,-0.1092377,-0.3049011,0.9460907,1.0,-0.2301482999999999,-0.3136444,0.9212189,-26.20255,10.34413,-27.7415,2.224945,0.3535839,0.2684029,1.0,-0.03198242,-0.2969817999999999,0.9543457,32.79816,10.61205,-30.48511,2.330917,0.5018004,0.268185,-0.4912555999999999,1.210314,-0.3060575,-0.08779792,0.6719488,0.003760479,4.826193,-29.55526,34.68145390956782
1,-0.1092377,-0.3049011,0.9460907,1.0,-0.2301482999999999,-0.3136444,0.9212189,-26.20255,10.34413,-27.7415,2.224945,0.3535839,0.2684029,1.0,-0.03198242,-0.2969817999999999,0.9543457,32.79816,10.61205,-30.48511,2.330917,0.5018004,0.268185,-0.4912555999999999,1.210314,-0.3060575,-0.08779792,0.6719488,0.003760479,4.826193,-29.55526,34.68145390956782
1,-0.1076049999999999,-0.3074341,0.9454498,1.0,-0.2263641,-0.3129119999999999,0.9224091,-26.20255,10.34001,-27.7415,2.2247470000000003,0.3530914,0.2684029,1.0,-0.02749634,-0.3012695,0.953125,32.80003,10.60568,-30.48627,2.271713,0.5012335,0.2690837,-0.4910354999999999,1.210305,-0.3061795,-0.08874259,0.6730321,0.0028864529999999,4.826193,-29.55526,34.68145390956782
1,-0.1076049999999999,-0.3074341,0.9454498,1.0,-0.2263641,-0.3129119999999999,0.9224091,-26.20255,10.34001,-27.7415,2.2247470000000003,0.3530914,0.2684029,1.0,-0.02749634,-0.3012695,0.953125,32.80003,10.60568,-30.48627,2.271713,0.5012335,0.2690837,-0.4910354999999999,1.210305,-0.3061795,-0.08874259,0.6730321,0.0028864529999999,4.826193,-29.55526,34.68145390956782
1,-0.1076049999999999,-0.3074341,0.9454498,1.0,-0.2263641,-0.3129119999999999,0.9224091,-26.20255,10.34001,-27.7415,2.2247470000000003,0.3530914,0.2684029,1.0,-0.02749634,-0.3012695,0.953125,32.80003,10.60568,-30.48627,2.271713,0.5012335,0.2690837,-0.4910354999999999,1.210305,-0.3061795,-0.08874259,0.6730321,0.0028864529999999,4.826193,-29.55526,34.68145390956782
1,-0.1045837,-0.3113708,0.9445038,1.0,-0.2231598,-0.3135375999999999,0.9229736,-26.2023,10.32727,-27.7415,2.223633,0.3526795,0.2689252,1.0,-0.02723694,-0.3075714,0.9511261,32.80733,10.58821,-30.48982,2.274094,0.5009327,0.2706375,-0.4910674,1.210175,-0.3063862,-0.08822228,0.6741473000000001,0.00273571,4.826193,9.153427,34.68145390956782
1,-0.1045837,-0.3113708,0.9445038,1.0,-0.2231598,-0.3135375999999999,0.9229736,-26.2023,10.32727,-27.7415,2.223633,0.3526795,0.2689252,1.0,-0.02723694,-0.3075714,0.9511261,32.80733,10.58821,-30.48982,2.274094,0.5009327,0.2706375,-0.4910674,1.210175,-0.3063862,-0.08822228,0.6741473000000001,0.00273571,4.826193,9.153427,34.68145390956782
1,-0.1045837,-0.3113708,0.9445038,1.0,-0.2231598,-0.3135375999999999,0.9229736,-26.2023,10.32727,-27.7415,2.223633,0.3526795,0.2689252,1.0,-0.02723694,-0.3075714,0.9511261,32.80733,10.58821,-30.48982,2.274094,0.5009327,0.2706375,-0.4910674,1.210175,-0.3063862,-0.08822228,0.6741473000000001,0.00273571,4.826193,9.153427,34.68145390956782
1,-0.09843445,-0.3178253,0.9430237,1.0,-0.2167206,-0.3180847,0.9229431,-26.19679,10.30066,-27.75067,2.223557,0.3516755,0.2705329999999999,1.0,-0.02510071,-0.3153992,0.9486237,32.8167,10.56804,-30.49608,2.334747,0.5002525,0.2724617,-0.4909721999999999,1.209945,-0.3065761,-0.08696245,0.6750613,0.003251519,4.826193,9.153427,34.68145390956782
1,-0.09843445,-0.3178253,0.9430237,1.0,-0.2167206,-0.3180847,0.9229431,-26.19679,10.30066,-27.75067,2.223557,0.3516755,0.2705329999999999,1.0,-0.02510071,-0.3153992,0.9486237,32.8167,10.56804,-30.49608,2.334747,0.5002525,0.2724617,-0.4909721999999999,1.209945,-0.3065761,-0.08696245,0.6750613,0.003251519,4.826193,9.153427,34.68145390956782
1,-0.09843445,-0.3178253,0.9430237,1.0,-0.2167206,-0.3180847,0.9229431,-26.19679,10.30066,-27.75067,2.223557,0.3516755,0.2705329999999999,1.0,-0.02510071,-0.3153992,0.9486237,32.8167,10.56804,-30.49608,2.334747,0.5002525,0.2724617,-0.4909721999999999,1.209945,-0.3065761,-0.08696245,0.6750613,0.003251519,4.826193,9.153427,34.68145390956782
1,-0.09489441,-0.3177337999999999,0.9434052,1.0,-0.2114563,-0.3193207,0.9237366,-26.19611,10.29373,-27.75067,2.2798,0.3509615,0.2708380999999999,1.0,-0.02255249,-0.3145447,0.9489594,32.8251,10.55023,-30.5032,2.334915,0.4996357,0.2730265999999999,-0.4908878,1.209798,-0.3067327999999999,-0.08700752,0.6760001,0.003292223,4.826193,9.153427,34.68145390956782
1,-0.09489441,-0.3177337999999999,0.9434052,1.0,-0.2114563,-0.3193207,0.9237366,-26.19611,10.29373,-27.75067,2.2798,0.3509615,0.2708380999999999,1.0,-0.02255249,-0.3145447,0.9489594,32.8251,10.55023,-30.5032,2.334915,0.4996357,0.2730265999999999,-0.4908878,1.209798,-0.3067327999999999,-0.08700752,0.6760001,0.003292223,4.826193,9.153427,34.68145390956782
1,-0.09489441,-0.3177337999999999,0.9434052,1.0,-0.2114563,-0.3193207,0.9237366,-26.19611,10.29373,-27.75067,2.2798,0.3509615,0.2708380999999999,1.0,-0.02255249,-0.3145447,0.9489594,32.8251,10.55023,-30.5032,2.334915,0.4996357,0.2730265999999999,-0.4908878,1.209798,-0.3067327999999999,-0.08700752,0.6760001,0.003292223,4.826193,9.153427,34.68145390956782
1,-0.09580994,-0.315155,0.9441833,1.0,-0.2072906,-0.3159485,0.9258423,-26.14514,10.28377,-27.74635,2.300781,0.3486265,0.2705329999999999,1.0,-0.02128601,-0.3124237,0.9496918,32.83653,10.54207,-30.50658,2.334808,0.4990808,0.2730337,-0.4908742,1.209726,-0.3069617,-0.08705077,0.6768854000000001,0.003550547,4.826193,9.153427,34.68145390956782
1,-0.09580994,-0.315155,0.9441833,1.0,-0.2072906,-0.3159485,0.9258423,-26.14514,10.28377,-27.74635,2.300781,0.3486265,0.2705329999999999,1.0,-0.02128601,-0.3124237,0.9496918,32.83653,10.54207,-30.50658,2.334808,0.4990808,0.2730337,-0.4908742,1.209726,-0.3069617,-0.08705077,0.6768854000000001,0.003550547,4.826193,9.153427,34.68145390956782
1,-0.09580994,-0.315155,0.9441833,1.0,-0.2072906,-0.3159485,0.9258423,-26.14514,10.28377,-27.74635,2.300781,0.3486265,0.2705329999999999,1.0,-0.02128601,-0.3124237,0.9496918,32.83653,10.54207,-30.50658,2.334808,0.4990808,0.2730337,-0.4908742,1.209726,-0.3069617,-0.08705077,0.6768854000000001,0.003550547,4.826193,9.153427,34.68145390956782
1,-0.09368896,-0.3134308,0.9449615,1.0,-0.203476,-0.3148192999999999,0.9270782,-26.13753,10.28081,-27.74245,2.296005,0.3478644,0.2704014999999999,1.0,-0.02127075,-0.3104248,0.9503479,32.84799,10.54135,-30.5072,2.334274,0.4986862,0.2727772,-0.4907877,1.209905,-0.3072126,-0.08726438,0.6778753000000001,0.003740863,4.826193,9.153427,34.68145390956782
1,-0.09368896,-0.3134308,0.9449615,1.0,-0.203476,-0.3148192999999999,0.9270782,-26.13753,10.28081,-27.74245,2.296005,0.3478644,0.2704014999999999,1.0,-0.02127075,-0.3104248,0.9503479,32.84799,10.54135,-30.5072,2.334274,0.4986862,0.2727772,-0.4907877,1.209905,-0.3072126,-0.08726438,0.6778753000000001,0.003740863,4.826193,9.153427,34.68145390956782
1,-0.09368896,-0.3134308,0.9449615,1.0,-0.203476,-0.3148192999999999,0.9270782,-26.13753,10.28081,-27.74245,2.296005,0.3478644,0.2704014999999999,1.0,-0.02127075,-0.3104248,0.9503479,32.84799,10.54135,-30.5072,2.334274,0.4986862,0.2727772,-0.4907877,1.209905,-0.3072126,-0.08726438,0.6778753000000001,0.003740863,4.826193,9.153427,34.68145390956782
1,-0.08969116,-0.3124389999999999,0.9456787,1.0,-0.2019806,-0.311554,0.9284973,-26.12152,10.27867,-27.73235,2.298706,0.3471094,0.2698973,1.0,-0.01989746,-0.3109894,0.9501953000000002,32.8537,10.54442,-30.50726,2.312637,0.4983422999999999,0.2727599,-0.4906115,1.210043,-0.3075271,-0.0879298,0.6787713000000001,0.0042563,4.826193,11.15157,34.68145390956782
1,-0.08969116,-0.3124389999999999,0.9456787,1.0,-0.2019806,-0.311554,0.9284973,-26.12152,10.27867,-27.73235,2.298706,0.3471094,0.2698973,1.0,-0.01989746,-0.3109894,0.9501953000000002,32.8537,10.54442,-30.50726,2.312637,0.4983422999999999,0.2727599,-0.4906115,1.210043,-0.3075271,-0.0879298,0.6787713000000001,0.0042563,4.826193,11.15157,34.68145390956782
1,-0.08969116,-0.3124389999999999,0.9456787,1.0,-0.2019806,-0.311554,0.9284973,-26.12152,10.27867,-27.73235,2.298706,0.3471094,0.2698973,1.0,-0.01989746,-0.3109894,0.9501953000000002,32.8537,10.54442,-30.50726,2.312637,0.4983422999999999,0.2727599,-0.4906115,1.210043,-0.3075271,-0.0879298,0.6787713000000001,0.0042563,4.826193,11.15157,34.68145390956782
1,-0.08813477,-0.3111725,0.9462433,1.0,-0.1976471,-0.3097839,0.9300232,-26.10512,10.27734,-27.72551,2.272766,0.3459768,0.2695987,1.0,-0.01953125,-0.3101196,0.9504852,32.87502,10.54578,-30.50757,2.326401,0.4975439,0.2725683,-0.4903496,1.210275,-0.3078511,-0.08866152,0.6797208,0.005092322,4.826193,11.15157,34.68145390956782
1,-0.08813477,-0.3111725,0.9462433,1.0,-0.1976471,-0.3097839,0.9300232,-26.10512,10.27734,-27.72551,2.272766,0.3459768,0.2695987,1.0,-0.01953125,-0.3101196,0.9504852,32.87502,10.54578,-30.50757,2.326401,0.4975439,0.2725683,-0.4903496,1.210275,-0.3078511,-0.08866152,0.6797208,0.005092322,4.826193,11.15157,34.68145390956782
1,-0.08813477,-0.3111725,0.9462433,1.0,-0.1976471,-0.3097839,0.9300232,-26.10512,10.27734,-27.72551,2.272766,0.3459768,0.2695987,1.0,-0.01953125,-0.3101196,0.9504852,32.87502,10.54578,-30.50757,2.326401,0.4975439,0.2725683,-0.4903496,1.210275,-0.3078511,-0.08866152,0.6797208,0.005092322,4.826193,11.15157,34.68145390956782
1,-0.08659363,-0.3104553,0.9466248,1.0,-0.1881104,-0.3092345999999999,0.9321747,-26.09886,10.27594,-27.72395,2.263962,0.3445185999999999,0.2694535,1.0,-0.01968384,-0.3094788,0.9506989,32.89197,10.54515,-30.51135,2.289001,0.4970192,0.2725683,-0.490158,1.210514,-0.3081836,-0.08962993,0.6807057,0.005863586,4.826193,11.15157,34.68145390956782
1,-0.08659363,-0.3104553,0.9466248,1.0,-0.1881104,-0.3092345999999999,0.9321747,-26.09886,10.27594,-27.72395,2.263962,0.3445185999999999,0.2694535,1.0,-0.01968384,-0.3094788,0.9506989,32.89197,10.54515,-30.51135,2.289001,0.4970192,0.2725683,-0.490158,1.210514,-0.3081836,-0.08962993,0.6807057,0.005863586,4.826193,11.15157,34.68145390956782
1,-0.08659363,-0.3104553,0.9466248,1.0,-0.1881104,-0.3092345999999999,0.9321747,-26.09886,10.27594,-27.72395,2.263962,0.3445185999999999,0.2694535,1.0,-0.01968384,-0.3094788,0.9506989,32.89197,10.54515,-30.51135,2.289001,0.4970192,0.2725683,-0.490158,1.210514,-0.3081836,-0.08962993,0.6807057,0.005863586,4.826193,11.15157,34.68145390956782
1,-0.08618164,-0.3125763,0.9459686,1.0,-0.1891174,-0.309433,0.9319153,-26.09244,10.27278,-27.72435,2.262589,0.3444255,0.2695987,1.0,-0.01802063,-0.3128052,0.9496307,32.90501,10.54254,-30.514540000000004,2.287125,0.4963555999999999,0.2731491,-0.489915,1.210727,-0.3084604,-0.09080567,0.6817634,0.006851655,4.826193,11.15157,34.68145390956782
1,-0.08618164,-0.3125763,0.9459686,1.0,-0.1891174,-0.309433,0.9319153,-26.09244,10.27278,-27.72435,2.262589,0.3444255,0.2695987,1.0,-0.01802063,-0.3128052,0.9496307,32.90501,10.54254,-30.514540000000004,2.287125,0.4963555999999999,0.2731491,-0.489915,1.210727,-0.3084604,-0.09080567,0.6817634,0.006851655,4.826193,11.15157,34.68145390956782
1,-0.08618164,-0.3125763,0.9459686,1.0,-0.1891174,-0.309433,0.9319153,-26.09244,10.27278,-27.72435,2.262589,0.3444255,0.2695987,1.0,-0.01802063,-0.3128052,0.9496307,32.90501,10.54254,-30.514540000000004,2.287125,0.4963555999999999,0.2731491,-0.489915,1.210727,-0.3084604,-0.09080567,0.6817634,0.006851655,4.826193,11.15157,34.68145390956782
1,-0.08601379,-0.3119354,0.9461823,1.0,-0.1901092999999999,-0.3092804,0.9317627,-26.08153,10.26262,-27.72496,2.259155,0.3441795,0.26996,1.0,-0.01560974,-0.3117980999999999,0.9500122,32.917359999999995,10.53108,-30.517670000000003,2.290009,0.4956221999999999,0.273424,-0.4897318,1.211094,-0.3088489,-0.09231035,0.6827428000000001,0.007800928,4.826193,11.15157,34.68145390956782
1,-0.08601379,-0.3119354,0.9461823,1.0,-0.1901092999999999,-0.3092804,0.9317627,-26.08153,10.26262,-27.72496,2.259155,0.3441795,0.26996,1.0,-0.01560974,-0.3117980999999999,0.9500122,32.917359999999995,10.53108,-30.517670000000003,2.290009,0.4956221999999999,0.273424,-0.4897318,1.211094,-0.3088489,-0.09231035,0.6827428000000001,0.007800928,4.826193,11.15157,34.68145390956782
1,-0.08601379,-0.3119354,0.9461823,1.0,-0.1901092999999999,-0.3092804,0.9317627,-26.08153,10.26262,-27.72496,2.259155,0.3441795,0.26996,1.0,-0.01560974,-0.3117980999999999,0.9500122,32.917359999999995,10.53108,-30.517670000000003,2.290009,0.4956221999999999,0.273424,-0.4897318,1.211094,-0.3088489,-0.09231035,0.6827428000000001,0.007800928,4.826193,11.15157,34.68145390956782
1,-0.07652283,-0.3108825999999999,0.9473572,1.0,-0.1902161,-0.30867,0.9319458,-26.07387,10.25351,-27.72601,2.262253,0.3439299,0.2701943,1.0,-0.001098633,-0.3101044,0.9506836,32.917359999999995,10.52292,-30.517670000000003,2.283295,0.4938032,0.273424,-0.4894767,1.211394,-0.3091929,-0.09375975,0.68365,0.008914895,4.826193,8.420044,34.68145390956782
1,-0.07652283,-0.3108825999999999,0.9473572,1.0,-0.1902161,-0.30867,0.9319458,-26.07387,10.25351,-27.72601,2.262253,0.3439299,0.2701943,1.0,-0.001098633,-0.3101044,0.9506836,32.917359999999995,10.52292,-30.517670000000003,2.283295,0.4938032,0.273424,-0.4894767,1.211394,-0.3091929,-0.09375975,0.68365,0.008914895,4.826193,8.420044,34.68145390956782
1,-0.07652283,-0.3108825999999999,0.9473572,1.0,-0.1902161,-0.30867,0.9319458,-26.07387,10.25351,-27.72601,2.262253,0.3439299,0.2701943,1.0,-0.001098633,-0.3101044,0.9506836,32.917359999999995,10.52292,-30.517670000000003,2.283295,0.4938032,0.273424,-0.4894767,1.211394,-0.3091929,-0.09375975,0.68365,0.008914895,4.826193,8.420044,34.68145390956782
1,-0.07208252,-0.3132477,0.9469147,1.0,-0.1880493,-0.3088989,0.932312,-26.06532,10.24826,-27.72887,2.260803,0.34335,0.2704041,1.0,0.004760742,-0.3137665,0.9494781,32.91295,10.52051,-30.50967,2.262878,0.4932371,0.2739739,-0.4894095,1.211597,-0.309502,-0.09469137,0.6841341,0.009431364,4.826193,8.420044,34.68145390956782
1,-0.07208252,-0.3132477,0.9469147,1.0,-0.1880493,-0.3088989,0.932312,-26.06532,10.24826,-27.72887,2.260803,0.34335,0.2704041,1.0,0.004760742,-0.3137665,0.9494781,32.91295,10.52051,-30.50967,2.262878,0.4932371,0.2739739,-0.4894095,1.211597,-0.309502,-0.09469137,0.6841341,0.009431364,4.826193,8.420044,34.68145390956782
1,-0.07208252,-0.3132477,0.9469147,1.0,-0.1880493,-0.3088989,0.932312,-26.06532,10.24826,-27.72887,2.260803,0.34335,0.2704041,1.0,0.004760742,-0.3137665,0.9494781,32.91295,10.52051,-30.50967,2.262878,0.4932371,0.2739739,-0.4894095,1.211597,-0.309502,-0.09469137,0.6841341,0.009431364,4.826193,8.420044,34.68145390956782
1,-0.05834961,-0.3135986,0.9477539,1.0,-0.1817627,-0.3053894,0.9347076,-26.04884,10.22815,-27.73174,2.253311,0.3419578,0.2705755999999999,1.0,0.01795959,-0.3162384,0.9485016,32.91295,10.51698,-30.508190000000003,2.272919,0.4915607,0.2743840999999999,-0.4890460999999999,1.212353,-0.3098468,-0.09760357,0.6848671,0.01211167,4.826193,8.420044,34.68145390956782
1,-0.05834961,-0.3135986,0.9477539,1.0,-0.1817627,-0.3053894,0.9347076,-26.04884,10.22815,-27.73174,2.253311,0.3419578,0.2705755999999999,1.0,0.01795959,-0.3162384,0.9485016,32.91295,10.51698,-30.508190000000003,2.272919,0.4915607,0.2743840999999999,-0.4890460999999999,1.212353,-0.3098468,-0.09760357,0.6848671,0.01211167,4.826193,8.420044,34.68145390956782
1,-0.05834961,-0.3135986,0.9477539,1.0,-0.1817627,-0.3053894,0.9347076,-26.04884,10.22815,-27.73174,2.253311,0.3419578,0.2705755999999999,1.0,0.01795959,-0.3162384,0.9485016,32.91295,10.51698,-30.508190000000003,2.272919,0.4915607,0.2743840999999999,-0.4890460999999999,1.212353,-0.3098468,-0.09760357,0.6848671,0.01211167,4.826193,8.420044,34.68145390956782
1,-0.05702209,-0.3149109,0.947403,1.0,-0.1812438999999999,-0.3049774,0.9349365,-26.04117,10.21683,-27.73224,2.258224,0.3416289,0.2709160999999999,1.0,0.01887512,-0.3185272,0.9477081,32.92322,10.51257,-30.50914,2.273361,0.4910885999999999,0.2748709,-0.4888598,1.212897,-0.3099924,-0.09964794,0.685052,0.01394403,4.826193,8.420044,34.68145390956782
1,-0.05702209,-0.3149109,0.947403,1.0,-0.1812438999999999,-0.3049774,0.9349365,-26.04117,10.21683,-27.73224,2.258224,0.3416289,0.2709160999999999,1.0,0.01887512,-0.3185272,0.9477081,32.92322,10.51257,-30.50914,2.273361,0.4910885999999999,0.2748709,-0.4888598,1.212897,-0.3099924,-0.09964794,0.685052,0.01394403,4.826193,8.420044,34.68145390956782
1,-0.05702209,-0.3149109,0.947403,1.0,-0.1812438999999999,-0.3049774,0.9349365,-26.04117,10.21683,-27.73224,2.258224,0.3416289,0.2709160999999999,1.0,0.01887512,-0.3185272,0.9477081,32.92322,10.51257,-30.50914,2.273361,0.4910885999999999,0.2748709,-0.4888598,1.212897,-0.3099924,-0.09964794,0.685052,0.01394403,4.826193,8.420044,34.68145390956782
1,-0.06880188,-0.3173828,0.9457855,1.0,-0.1730652,-0.3186188,0.9319305,-26.02347,10.19846,-27.73389,2.253006,0.3399982,0.2734307,1.0,0.002944946,-0.3145142,0.949234,32.99472,10.48335,-30.52562,2.283035,0.4906047999999999,0.2755083,-0.4886835,1.2138870000000002,-0.3100883,-0.10368,0.6852348,0.01740393,4.826193,8.420044,34.68145390956782
1,-0.06880188,-0.3173828,0.9457855,1.0,-0.1730652,-0.3186188,0.9319305,-26.02347,10.19846,-27.73389,2.253006,0.3399982,0.2734307,1.0,0.002944946,-0.3145142,0.949234,32.99472,10.48335,-30.52562,2.283035,0.4906047999999999,0.2755083,-0.4886835,1.2138870000000002,-0.3100883,-0.10368,0.6852348,0.01740393,4.826193,8.420044,34.68145390956782
1,-0.06880188,-0.3173828,0.9457855,1.0,-0.1730652,-0.3186188,0.9319305,-26.02347,10.19846,-27.73389,2.253006,0.3399982,0.2734307,1.0,0.002944946,-0.3145142,0.949234,32.99472,10.48335,-30.52562,2.283035,0.4906047999999999,0.2755083,-0.4886835,1.2138870000000002,-0.3100883,-0.10368,0.6852348,0.01740393,4.826193,8.420044,34.68145390956782
1,-0.0690155,-0.3165588,0.9460449,1.0,-0.173111,-0.3192596,0.9317169,-26.01976,10.18263,-27.73453,2.251709,0.3398919,0.2740991,1.0,0.0034484859999999,-0.3126526,0.9498444,33.00575,10.46776,-30.53142,2.283569,0.4901567,0.2758535,-0.4888096999999999,1.214667,-0.3101764,-0.1067247,0.6849116999999999,0.01995301,4.826193,-16.94397,34.68145390956782
1,-0.0690155,-0.3165588,0.9460449,1.0,-0.173111,-0.3192596,0.9317169,-26.01976,10.18263,-27.73453,2.251709,0.3398919,0.2740991,1.0,0.0034484859999999,-0.3126526,0.9498444,33.00575,10.46776,-30.53142,2.283569,0.4901567,0.2758535,-0.4888096999999999,1.214667,-0.3101764,-0.1067247,0.6849116999999999,0.01995301,4.826193,-16.94397,34.68145390956782
1,-0.0690155,-0.3165588,0.9460449,1.0,-0.173111,-0.3192596,0.9317169,-26.01976,10.18263,-27.73453,2.251709,0.3398919,0.2740991,1.0,0.0034484859999999,-0.3126526,0.9498444,33.00575,10.46776,-30.53142,2.283569,0.4901567,0.2758535,-0.4888096999999999,1.214667,-0.3101764,-0.1067247,0.6849116999999999,0.01995301,4.826193,-16.94397,34.68145390956782
2,-0.07138062,-0.3210144,0.9443665,1.0,-0.1791534,-0.3157501,0.9317627,-25.977970000000003,10.15401,-27.73615,2.226837,0.3392237999999999,0.2746883,1.0,0.0019836429999999,-0.3224182,0.946579,33.00891,10.43016,-30.54143,2.3059540000000003,0.4901864,0.2786585,-0.488806,1.21505,-0.310209,-0.1080030999999999,0.6847429,0.02088199,4.826193,-16.94397,34.68145390956782
2,-0.07138062,-0.3210144,0.9443665,1.0,-0.1791534,-0.3157501,0.9317627,-25.977970000000003,10.15401,-27.73615,2.226837,0.3392237999999999,0.2746883,1.0,0.0019836429999999,-0.3224182,0.946579,33.00891,10.43016,-30.54143,2.3059540000000003,0.4901864,0.2786585,-0.488806,1.21505,-0.310209,-0.1080030999999999,0.6847429,0.02088199,4.826193,-16.94397,34.68145390956782
2,-0.07138062,-0.3210144,0.9443665,1.0,-0.1791534,-0.3157501,0.9317627,-25.977970000000003,10.15401,-27.73615,2.226837,0.3392237999999999,0.2746883,1.0,0.0019836429999999,-0.3224182,0.946579,33.00891,10.43016,-30.54143,2.3059540000000003,0.4901864,0.2786585,-0.488806,1.21505,-0.310209,-0.1080030999999999,0.6847429,0.02088199,4.826193,-16.94397,34.68145390956782
2,-0.07171631,-0.3217316,0.9440918,1.0,-0.1772461,-0.3258057,0.9286652,-25.9726,10.11392,-27.73685,2.215668,0.3388567,0.2775770999999999,1.0,0.0004425048999999,-0.3168793,0.9484558,33.01753,10.35655,-30.55136,2.3155360000000003,0.4900604999999999,0.2806201,-0.4889081,1.215265,-0.3101952,-0.1087706,0.6843098000000001,0.02216585,4.826193,-16.94397,34.68145390956782
2,-0.07171631,-0.3217316,0.9440918,1.0,-0.1772461,-0.3258057,0.9286652,-25.9726,10.11392,-27.73685,2.215668,0.3388567,0.2775770999999999,1.0,0.0004425048999999,-0.3168793,0.9484558,33.01753,10.35655,-30.55136,2.3155360000000003,0.4900604999999999,0.2806201,-0.4889081,1.215265,-0.3101952,-0.1087706,0.6843098000000001,0.02216585,4.826193,-16.94397,34.68145390956782
2,-0.07171631,-0.3217316,0.9440918,1.0,-0.1772461,-0.3258057,0.9286652,-25.9726,10.11392,-27.73685,2.215668,0.3388567,0.2775770999999999,1.0,0.0004425048999999,-0.3168793,0.9484558,33.01753,10.35655,-30.55136,2.3155360000000003,0.4900604999999999,0.2806201,-0.4889081,1.215265,-0.3101952,-0.1087706,0.6843098000000001,0.02216585,4.826193,-16.94397,34.68145390956782
2,-0.07249451,-0.3277587999999999,0.9419708,1.0,-0.1753387,-0.3312225,0.9271088,-25.96996,10.08287,-27.73807,2.169998,0.3385643,0.27953,1.0,-0.001647949,-0.323349,0.9462738000000002,33.01753,10.32982,-30.56601,2.332764,0.4902904,0.2825979,-0.4890233,1.215536,-0.3102902999999999,-0.1100198999999999,0.6836169,0.02271107,4.826193,-16.94397,34.68145390956782
2,-0.07249451,-0.3277587999999999,0.9419708,1.0,-0.1753387,-0.3312225,0.9271088,-25.96996,10.08287,-27.73807,2.169998,0.3385643,0.27953,1.0,-0.001647949,-0.323349,0.9462738000000002,33.01753,10.32982,-30.56601,2.332764,0.4902904,0.2825979,-0.4890233,1.215536,-0.3102902999999999,-0.1100198999999999,0.6836169,0.02271107,4.826193,-16.94397,34.68145390956782
2,-0.07249451,-0.3277587999999999,0.9419708,1.0,-0.1753387,-0.3312225,0.9271088,-25.96996,10.08287,-27.73807,2.169998,0.3385643,0.27953,1.0,-0.001647949,-0.323349,0.9462738000000002,33.01753,10.32982,-30.56601,2.332764,0.4902904,0.2825979,-0.4890233,1.215536,-0.3102902999999999,-0.1100198999999999,0.6836169,0.02271107,4.826193,-16.94397,34.68145390956782
2,-0.07264709,-0.3415375,0.9370421999999998,1.0,-0.1765594,-0.3422394,0.9228668,-25.96996,10.06174,-27.74368,2.152252,0.3387743,0.2819352,1.0,-0.0018463129999999,-0.3389282,0.9407959,33.012440000000005,10.30493,-30.5773,2.316238,0.490487,0.2857982999999999,-0.4890464,1.215436,-0.3102469,-0.1103605,0.6833445,0.02158639,4.826193,-16.94397,34.68145390956782
2,-0.07264709,-0.3415375,0.9370421999999998,1.0,-0.1765594,-0.3422394,0.9228668,-25.96996,10.06174,-27.74368,2.152252,0.3387743,0.2819352,1.0,-0.0018463129999999,-0.3389282,0.9407959,33.012440000000005,10.30493,-30.5773,2.316238,0.490487,0.2857982999999999,-0.4890464,1.215436,-0.3102469,-0.1103605,0.6833445,0.02158639,4.826193,-16.94397,34.68145390956782
2,-0.07264709,-0.3415375,0.9370421999999998,1.0,-0.1765594,-0.3422394,0.9228668,-25.96996,10.06174,-27.74368,2.152252,0.3387743,0.2819352,1.0,-0.0018463129999999,-0.3389282,0.9407959,33.012440000000005,10.30493,-30.5773,2.316238,0.490487,0.2857982999999999,-0.4890464,1.215436,-0.3102469,-0.1103605,0.6833445,0.02158639,4.826193,-16.94397,34.68145390956782
2,-0.0684967,-0.3492279,0.9345245,1.0,-0.1768951,-0.3506317,0.9196472,-25.97729,10.03754,-27.746990000000004,2.144547,0.3391195999999999,0.2840670999999999,1.0,-0.001602173,-0.3462982,0.9381104,33.00136,10.28534,-30.57986,2.283783,0.4908635,0.2876116,-0.4893037,1.21494,-0.3102905999999999,-0.1085162,0.6826493,0.02001265,4.826193,17.0768,34.68145390956782
2,-0.0684967,-0.3492279,0.9345245,1.0,-0.1768951,-0.3506317,0.9196472,-25.97729,10.03754,-27.746990000000004,2.144547,0.3391195999999999,0.2840670999999999,1.0,-0.001602173,-0.3462982,0.9381104,33.00136,10.28534,-30.57986,2.283783,0.4908635,0.2876116,-0.4893037,1.21494,-0.3102905999999999,-0.1085162,0.6826493,0.02001265,4.826193,17.0768,34.68145390956782
2,-0.0684967,-0.3492279,0.9345245,1.0,-0.1768951,-0.3506317,0.9196472,-25.97729,10.03754,-27.746990000000004,2.144547,0.3391195999999999,0.2840670999999999,1.0,-0.001602173,-0.3462982,0.9381104,33.00136,10.28534,-30.57986,2.283783,0.4908635,0.2876116,-0.4893037,1.21494,-0.3102905999999999,-0.1085162,0.6826493,0.02001265,4.826193,17.0768,34.68145390956782
2,-0.07093811,-0.3499603,0.9340668,1.0,-0.1776733,-0.3532715,0.9184875,-25.99666,9.981689,-27.76132,2.119507,0.3399459,0.2866500999999999,1.0,-0.002441406,-0.3457184,0.938324,32.99217,10.25639,-30.59277,2.2409060000000003,0.4913269,0.2887177999999999,-0.4895305,1.214177,-0.3101922,-0.1061691,0.6818522,0.01784122,4.826193,17.0768,34.68145390956782
2,-0.07093811,-0.3499603,0.9340668,1.0,-0.1776733,-0.3532715,0.9184875,-25.99666,9.981689,-27.76132,2.119507,0.3399459,0.2866500999999999,1.0,-0.002441406,-0.3457184,0.938324,32.99217,10.25639,-30.59277,2.2409060000000003,0.4913269,0.2887177999999999,-0.4895305,1.214177,-0.3101922,-0.1061691,0.6818522,0.01784122,4.826193,17.0768,34.68145390956782
2,-0.07093811,-0.3499603,0.9340668,1.0,-0.1776733,-0.3532715,0.9184875,-25.99666,9.981689,-27.76132,2.119507,0.3399459,0.2866500999999999,1.0,-0.002441406,-0.3457184,0.938324,32.99217,10.25639,-30.59277,2.2409060000000003,0.4913269,0.2887177999999999,-0.4895305,1.214177,-0.3101922,-0.1061691,0.6818522,0.01784122,4.826193,17.0768,34.68145390956782
2,-0.07832336,-0.3591614,0.9299774,1.0,-0.1859283,-0.3666534,0.9115753,-26.01178,9.972244,-27.77434,2.08786,0.3415905,0.2891475,1.0,-0.007263184,-0.3519135,0.9359894,32.98389,10.23164,-30.609340000000003,2.225555,0.492221,0.2906586,-0.4896979999999999,1.213794,-0.3099978,-0.1051218,0.6813315999999999,0.01688943,4.826193,17.0768,34.68145390956782
2,-0.07832336,-0.3591614,0.9299774,1.0,-0.1859283,-0.3666534,0.9115753,-26.01178,9.972244,-27.77434,2.08786,0.3415905,0.2891475,1.0,-0.007263184,-0.3519135,0.9359894,32.98389,10.23164,-30.609340000000003,2.225555,0.492221,0.2906586,-0.4896979999999999,1.213794,-0.3099978,-0.1051218,0.6813315999999999,0.01688943,4.826193,17.0768,34.68145390956782
2,-0.07832336,-0.3591614,0.9299774,1.0,-0.1859283,-0.3666534,0.9115753,-26.01178,9.972244,-27.77434,2.08786,0.3415905,0.2891475,1.0,-0.007263184,-0.3519135,0.9359894,32.98389,10.23164,-30.609340000000003,2.225555,0.492221,0.2906586,-0.4896979999999999,1.213794,-0.3099978,-0.1051218,0.6813315999999999,0.01688943,4.826193,17.0768,34.68145390956782
2,-0.07876587,-0.3597107,0.929718,1.0,-0.1866302,-0.3679047,0.9109344,-26.01981,9.972244,-27.7834,2.079971,0.3419592999999999,0.2894208,1.0,-0.007736206,-0.3520203,0.9359436,32.98004,10.23164,-30.61406,2.264236,0.4923672,0.2906586,-0.4897834,1.2136049999999998,-0.3097125999999999,-0.1035942,0.6799554,0.0157523,4.826193,17.0768,34.68145390956782
2,-0.07876587,-0.3597107,0.929718,1.0,-0.1866302,-0.3679047,0.9109344,-26.01981,9.972244,-27.7834,2.079971,0.3419592999999999,0.2894208,1.0,-0.007736206,-0.3520203,0.9359436,32.98004,10.23164,-30.61406,2.264236,0.4923672,0.2906586,-0.4897834,1.2136049999999998,-0.3097125999999999,-0.1035942,0.6799554,0.0157523,4.826193,17.0768,34.68145390956782
2,-0.07876587,-0.3597107,0.929718,1.0,-0.1866302,-0.3679047,0.9109344,-26.01981,9.972244,-27.7834,2.079971,0.3419592999999999,0.2894208,1.0,-0.007736206,-0.3520203,0.9359436,32.98004,10.23164,-30.61406,2.264236,0.4923672,0.2906586,-0.4897834,1.2136049999999998,-0.3097125999999999,-0.1035942,0.6799554,0.0157523,4.826193,17.0768,34.68145390956782
2,-0.07730103,-0.3514709,0.9329987,1.0,-0.1896515,-0.3639679,0.9118805,-26.0298,9.977402,-27.78488,2.088181,0.3426857,0.2887188,1.0,-0.009292603,-0.3417206,0.939743,32.97768,10.23872,-30.614320000000003,2.261871,0.4926590999999999,0.288958,-0.4897342,1.213742,-0.309496,-0.1034882,0.6791928,0.01555077,4.826193,17.0768,34.68145390956782
2,-0.07730103,-0.3514709,0.9329987,1.0,-0.1896515,-0.3639679,0.9118805,-26.0298,9.977402,-27.78488,2.088181,0.3426857,0.2887188,1.0,-0.009292603,-0.3417206,0.939743,32.97768,10.23872,-30.614320000000003,2.261871,0.4926590999999999,0.288958,-0.4897342,1.213742,-0.309496,-0.1034882,0.6791928,0.01555077,4.826193,17.0768,34.68145390956782
2,-0.07730103,-0.3514709,0.9329987,1.0,-0.1896515,-0.3639679,0.9118805,-26.0298,9.977402,-27.78488,2.088181,0.3426857,0.2887188,1.0,-0.009292603,-0.3417206,0.939743,32.97768,10.23872,-30.614320000000003,2.261871,0.4926590999999999,0.288958,-0.4897342,1.213742,-0.309496,-0.1034882,0.6791928,0.01555077,4.826193,17.0768,34.68145390956782
2,-0.07876587,-0.3481293,0.9341278,1.0,-0.1909027,-0.3551940999999999,0.9150848,-26.03853,9.992615,-27.78488,2.1154330000000003,0.3431143,0.2869012,1.0,-0.0067749019999999,-0.3412628,0.9399261,32.96783,10.26192,-30.61235,2.28511,0.4926610999999999,0.2880139,-0.4893727,1.21426,-0.3089442,-0.1050081,0.6770874,0.01690071,4.826193,11.55118,34.68145390956782
2,-0.07876587,-0.3481293,0.9341278,1.0,-0.1909027,-0.3551940999999999,0.9150848,-26.03853,9.992615,-27.78488,2.1154330000000003,0.3431143,0.2869012,1.0,-0.0067749019999999,-0.3412628,0.9399261,32.96783,10.26192,-30.61235,2.28511,0.4926610999999999,0.2880139,-0.4893727,1.21426,-0.3089442,-0.1050081,0.6770874,0.01690071,4.826193,11.55118,34.68145390956782
2,-0.07876587,-0.3481293,0.9341278,1.0,-0.1909027,-0.3551940999999999,0.9150848,-26.03853,9.992615,-27.78488,2.1154330000000003,0.3431143,0.2869012,1.0,-0.0067749019999999,-0.3412628,0.9399261,32.96783,10.26192,-30.61235,2.28511,0.4926610999999999,0.2880139,-0.4893727,1.21426,-0.3089442,-0.1050081,0.6770874,0.01690071,4.826193,11.55118,34.68145390956782
2,-0.08204651,-0.344696,0.9351196,1.0,-0.1950989,-0.3489075,0.9166107,-26.04131,9.997116,-27.78479,2.136765,0.3437324,0.2858626999999999,1.0,-0.007843018,-0.3395233,0.9405518,32.96216,10.26559,-30.61093,2.344528,0.4929268,0.2875591,-0.4891799,1.214672,-0.3085580999999999,-0.1060688,0.6755174,0.01813515,4.826193,11.55118,34.68145390956782
2,-0.08204651,-0.344696,0.9351196,1.0,-0.1950989,-0.3489075,0.9166107,-26.04131,9.997116,-27.78479,2.136765,0.3437324,0.2858626999999999,1.0,-0.007843018,-0.3395233,0.9405518,32.96216,10.26559,-30.61093,2.344528,0.4929268,0.2875591,-0.4891799,1.214672,-0.3085580999999999,-0.1060688,0.6755174,0.01813515,4.826193,11.55118,34.68145390956782
2,-0.08204651,-0.344696,0.9351196,1.0,-0.1950989,-0.3489075,0.9166107,-26.04131,9.997116,-27.78479,2.136765,0.3437324,0.2858626999999999,1.0,-0.007843018,-0.3395233,0.9405518,32.96216,10.26559,-30.61093,2.344528,0.4929268,0.2875591,-0.4891799,1.214672,-0.3085580999999999,-0.1060688,0.6755174,0.01813515,4.826193,11.55118,34.68145390956782
2,-0.08895874,-0.3441467,0.9346771,0.9946195,-0.2007446,-0.3471375,0.9160614,-26.06677,9.997116,-27.78479,2.206726,0.3453442,0.2856293,0.9582573,-0.01377869,-0.3396912,0.9404296999999998,32.94751,10.26559,-30.61093,2.396164,0.4941165,0.2875591,-0.4885358,1.216144,-0.3074305999999999,-0.1113197,0.6706576,0.02258272,4.826193,11.55118,34.68145390956782
2,-0.08895874,-0.3441467,0.9346771,0.9946195,-0.2007446,-0.3471375,0.9160614,-26.06677,9.997116,-27.78479,2.206726,0.3453442,0.2856293,0.9582573,-0.01377869,-0.3396912,0.9404296999999998,32.94751,10.26559,-30.61093,2.396164,0.4941165,0.2875591,-0.4885358,1.216144,-0.3074305999999999,-0.1113197,0.6706576,0.02258272,4.826193,11.55118,34.68145390956782
2,-0.08895874,-0.3441467,0.9346771,0.9946195,-0.2007446,-0.3471375,0.9160614,-26.06677,9.997116,-27.78479,2.206726,0.3453442,0.2856293,0.9582573,-0.01377869,-0.3396912,0.9404296999999998,32.94751,10.26559,-30.61093,2.396164,0.4941165,0.2875591,-0.4885358,1.216144,-0.3074305999999999,-0.1113197,0.6706576,0.02258272,4.826193,11.55118,34.68145390956782
2,-0.08953857,-0.342514,0.9352264,1.0,-0.201355,-0.3465118,0.9161682,-26.07808,9.995178,-27.78479,2.2073970000000003,0.3458196,0.2856293,1.0,-0.01486206,-0.3374329,0.9412231,32.94458,10.25754,-30.61215,2.385391,0.4943646,0.2875591,-0.4883386999999999,1.216855,-0.3067732,-0.1142313999999999,0.6676178,0.02440395,4.826193,11.55118,34.68145390956782
2,-0.08953857,-0.342514,0.9352264,1.0,-0.201355,-0.3465118,0.9161682,-26.07808,9.995178,-27.78479,2.2073970000000003,0.3458196,0.2856293,1.0,-0.01486206,-0.3374329,0.9412231,32.94458,10.25754,-30.61215,2.385391,0.4943646,0.2875591,-0.4883386999999999,1.216855,-0.3067732,-0.1142313999999999,0.6676178,0.02440395,4.826193,11.55118,34.68145390956782
2,-0.08953857,-0.342514,0.9352264,1.0,-0.201355,-0.3465118,0.9161682,-26.07808,9.995178,-27.78479,2.2073970000000003,0.3458196,0.2856293,1.0,-0.01486206,-0.3374329,0.9412231,32.94458,10.25754,-30.61215,2.385391,0.4943646,0.2875591,-0.4883386999999999,1.216855,-0.3067732,-0.1142313999999999,0.6676178,0.02440395,4.826193,11.55118,34.68145390956782
2,-0.1070251,-0.3592834,0.927063,0.9660316,-0.2156677,-0.3566132,0.9089966,-26.19983,9.876465,-27.87793,2.202087,0.3519802999999999,0.2923833,0.9524918,-0.04110718,-0.3587799,0.9325104,32.83968,10.11362,-30.686290000000003,2.36853,0.5012221,0.2964833,-0.4882652,1.2172379999999998,-0.3060501,-0.1154918999999999,0.6646820999999999,0.02419103,4.826193,11.55118,36.17
2,-0.1070251,-0.3592834,0.927063,0.9660316,-0.2156677,-0.3566132,0.9089966,-26.19983,9.876465,-27.87793,2.202087,0.3519802999999999,0.2923833,0.9524918,-0.04110718,-0.3587799,0.9325104,32.83968,10.11362,-30.686290000000003,2.36853,0.5012221,0.2964833,-0.4882652,1.2172379999999998,-0.3060501,-0.1154918999999999,0.6646820999999999,0.02419103,4.826193,11.55118,36.17
2,-0.1070251,-0.3592834,0.927063,0.9660316,-0.2156677,-0.3566132,0.9089966,-26.19983,9.876465,-27.87793,2.202087,0.3519802999999999,0.2923833,0.9524918,-0.04110718,-0.3587799,0.9325104,32.83968,10.11362,-30.686290000000003,2.36853,0.5012221,0.2964833,-0.4882652,1.2172379999999998,-0.3060501,-0.1154918999999999,0.6646820999999999,0.02419103,4.826193,11.55118,36.17
2,-0.08488464,-0.3644867,0.9273224,0.9341868,-0.1997527999999999,-0.3709717,0.9068909,-26.04645,9.900894,-27.84021,2.146164,0.3445887,0.2929242999999999,0.9535629,-0.01823425,-0.3585052,0.9333344,32.96565,10.14433,-30.66402,2.412292,0.4939729,0.2949656,-0.4886425999999999,1.217392,-0.3047853,-0.1159126,0.6595196999999999,0.02434829,4.826193,11.55118,36.17
2,-0.08488464,-0.3644867,0.9273224,0.9341868,-0.1997527999999999,-0.3709717,0.9068909,-26.04645,9.900894,-27.84021,2.146164,0.3445887,0.2929242999999999,0.9535629,-0.01823425,-0.3585052,0.9333344,32.96565,10.14433,-30.66402,2.412292,0.4939729,0.2949656,-0.4886425999999999,1.217392,-0.3047853,-0.1159126,0.6595196999999999,0.02434829,4.826193,11.55118,36.17
2,-0.08488464,-0.3644867,0.9273224,0.9341868,-0.1997527999999999,-0.3709717,0.9068909,-26.04645,9.900894,-27.84021,2.146164,0.3445887,0.2929242999999999,0.9535629,-0.01823425,-0.3585052,0.9333344,32.96565,10.14433,-30.66402,2.412292,0.4939729,0.2949656,-0.4886425999999999,1.217392,-0.3047853,-0.1159126,0.6595196999999999,0.02434829,4.826193,11.55118,36.17
2,0.04405212,-0.3263244999999999,0.9442139,0.9178455,-0.08372498,-0.3346558,0.9385986,-25.59578,9.987549,-27.74841,2.424728,0.3134702,0.281658,0.9157313,0.1062622,-0.3202972,0.94133,33.44223,10.21581,-30.60345,2.422607,0.4619429,0.2859304,-0.4892507,1.2167,-0.3035295999999999,-0.1126838,0.6557368,0.02322759,4.826193,3.129622,36.17
2,0.04405212,-0.3263244999999999,0.9442139,0.9178455,-0.08372498,-0.3346558,0.9385986,-25.59578,9.987549,-27.74841,2.424728,0.3134702,0.281658,0.9157313,0.1062622,-0.3202972,0.94133,33.44223,10.21581,-30.60345,2.422607,0.4619429,0.2859304,-0.4892507,1.2167,-0.3035295999999999,-0.1126838,0.6557368,0.02322759,4.826193,3.129622,36.17
2,0.04405212,-0.3263244999999999,0.9442139,0.9178455,-0.08372498,-0.3346558,0.9385986,-25.59578,9.987549,-27.74841,2.424728,0.3134702,0.281658,0.9157313,0.1062622,-0.3202972,0.94133,33.44223,10.21581,-30.60345,2.422607,0.4619429,0.2859304,-0.4892507,1.2167,-0.3035295999999999,-0.1126838,0.6557368,0.02322759,4.826193,3.129622,36.17
2,0.04255676,-0.3368224999999999,0.9405975,0.9051843,-0.07012939,-0.3527832,0.9330597,-25.66429,9.954315,-27.76213,2.219376,0.3142215,0.2858669,0.9183889,0.09593201,-0.3276978,0.9398956,33.39191,10.20323,-30.60181,2.387421,0.4650104999999999,0.2875005,-0.4893849,1.216464,-0.3028936,-0.1115444,0.6545441,0.02245953,4.826193,3.129622,36.17
2,0.04255676,-0.3368224999999999,0.9405975,0.9051843,-0.07012939,-0.3527832,0.9330597,-25.66429,9.954315,-27.76213,2.219376,0.3142215,0.2858669,0.9183889,0.09593201,-0.3276978,0.9398956,33.39191,10.20323,-30.60181,2.387421,0.4650104999999999,0.2875005,-0.4893849,1.216464,-0.3028936,-0.1115444,0.6545441,0.02245953,4.826193,3.129622,36.17
2,0.04255676,-0.3368224999999999,0.9405975,0.9051843,-0.07012939,-0.3527832,0.9330597,-25.66429,9.954315,-27.76213,2.219376,0.3142215,0.2858669,0.9183889,0.09593201,-0.3276978,0.9398956,33.39191,10.20323,-30.60181,2.387421,0.4650104999999999,0.2875005,-0.4893849,1.216464,-0.3028936,-0.1115444,0.6545441,0.02245953,4.826193,3.129622,36.17
2,0.008514404,-0.3433989999999999,0.9391327,0.9274117,-0.1008911,-0.351593,0.9306946,-25.68411,9.954315,-27.76588,2.18602,0.3189167,0.2860574,0.9214838,0.0745697,-0.336441,0.938736,33.34373,10.21286,-30.59726,2.493607,0.4692590999999999,0.2883035,-0.4894412,1.216238,-0.3023653,-0.1103836,0.6539183000000001,0.02226909,4.826193,3.129622,36.17
2,0.008514404,-0.3433989999999999,0.9391327,0.9274117,-0.1008911,-0.351593,0.9306946,-25.68411,9.954315,-27.76588,2.18602,0.3189167,0.2860574,0.9214838,0.0745697,-0.336441,0.938736,33.34373,10.21286,-30.59726,2.493607,0.4692590999999999,0.2883035,-0.4894412,1.216238,-0.3023653,-0.1103836,0.6539183000000001,0.02226909,4.826193,3.129622,36.17
2,0.008514404,-0.3433989999999999,0.9391327,0.9274117,-0.1008911,-0.351593,0.9306946,-25.68411,9.954315,-27.76588,2.18602,0.3189167,0.2860574,0.9214838,0.0745697,-0.336441,0.938736,33.34373,10.21286,-30.59726,2.493607,0.4692590999999999,0.2883035,-0.4894412,1.216238,-0.3023653,-0.1103836,0.6539183000000001,0.02226909,4.826193,3.129622,36.17
2,0.006103516,-0.3350677,0.9421692,0.9077584,-0.1161499,-0.3505249,0.929306,-25.7271,9.956665,-27.75032,2.157074,0.3224433,0.2859620999999999,0.8988519,0.07409668,-0.324234,0.9430542,33.32974,10.21175,-30.59676,2.432693,0.4698679,0.2867054,-0.4889406,1.214595,-0.3010175,-0.1031033999999999,0.6532762,0.01927494,4.826193,3.129622,36.17
2,0.006103516,-0.3350677,0.9421692,0.9077584,-0.1161499,-0.3505249,0.929306,-25.7271,9.956665,-27.75032,2.157074,0.3224433,0.2859620999999999,0.8988519,0.07409668,-0.324234,0.9430542,33.32974,10.21175,-30.59676,2.432693,0.4698679,0.2867054,-0.4889406,1.214595,-0.3010175,-0.1031033999999999,0.6532762,0.01927494,4.826193,3.129622,36.17
2,0.006103516,-0.3350677,0.9421692,0.9077584,-0.1161499,-0.3505249,0.929306,-25.7271,9.956665,-27.75032,2.157074,0.3224433,0.2859620999999999,0.8988519,0.07409668,-0.324234,0.9430542,33.32974,10.21175,-30.59676,2.432693,0.4698679,0.2867054,-0.4889406,1.214595,-0.3010175,-0.1031033999999999,0.6532762,0.01927494,4.826193,3.129622,36.17
2,-0.01029968,-0.3317261,0.9433136,0.9077584,-0.1313934,-0.3471832,0.9285431,-25.74385,9.951569,-27.75243,2.160431,0.3250146,0.285859,0.8988519,0.06500244,-0.3195952999999999,0.9453125,33.28461,10.24063,-30.58923,2.41275,0.472596,0.2850110999999999,-0.4889406,1.214595,-0.3010175,-0.1031033999999999,0.6532762,0.01927494,4.826193,-23.33455,36.17
2,-0.01029968,-0.3317261,0.9433136,0.9077584,-0.1313934,-0.3471832,0.9285431,-25.74385,9.951569,-27.75243,2.160431,0.3250146,0.285859,0.8988519,0.06500244,-0.3195952999999999,0.9453125,33.28461,10.24063,-30.58923,2.41275,0.472596,0.2850110999999999,-0.4889406,1.214595,-0.3010175,-0.1031033999999999,0.6532762,0.01927494,4.826193,-23.33455,36.17
2,-0.01029968,-0.3317261,0.9433136,0.9077584,-0.1313934,-0.3471832,0.9285431,-25.74385,9.951569,-27.75243,2.160431,0.3250146,0.285859,0.8988519,0.06500244,-0.3195952999999999,0.9453125,33.28461,10.24063,-30.58923,2.41275,0.472596,0.2850110999999999,-0.4889406,1.214595,-0.3010175,-0.1031033999999999,0.6532762,0.01927494,4.826193,-23.33455,36.17
2,0.1208344,-0.373642,0.9196472,0.8662934000000001,-0.000289917,-0.3742523,0.9273224,-25.12326,9.759476,-27.80537,2.216156,0.2859169,0.2948166,0.9192731,0.1810608,-0.3712616,0.9106903,33.87317,10.06761,-30.67287,2.430847,0.4374479,0.2986841,-0.4871268,1.214061,-0.2995884,-0.09874961,0.6521416,0.01723787,4.826193,-23.33455,36.17
2,0.1208344,-0.373642,0.9196472,0.8662934000000001,-0.000289917,-0.3742523,0.9273224,-25.12326,9.759476,-27.80537,2.216156,0.2859169,0.2948166,0.9192731,0.1810608,-0.3712616,0.9106903,33.87317,10.06761,-30.67287,2.430847,0.4374479,0.2986841,-0.4871268,1.214061,-0.2995884,-0.09874961,0.6521416,0.01723787,4.826193,-23.33455,36.17
2,0.1208344,-0.373642,0.9196472,0.8662934000000001,-0.000289917,-0.3742523,0.9273224,-25.12326,9.759476,-27.80537,2.216156,0.2859169,0.2948166,0.9192731,0.1810608,-0.3712616,0.9106903,33.87317,10.06761,-30.67287,2.430847,0.4374479,0.2986841,-0.4871268,1.214061,-0.2995884,-0.09874961,0.6521416,0.01723787,4.826193,-23.33455,36.17
2,0.1947937,-0.4178467,0.8873749,0.763442,0.05203247,-0.4278259,0.9023438,-24.98132,9.630417,-27.88547,2.150299,0.2739502,0.3074544,0.9284354,0.2386474999999999,-0.4129332999999999,0.8789215,33.98143,9.943542,-30.751690000000004,2.387085,0.4261755,0.3097014,-0.4858117999999999,1.213253,-0.2989830999999999,-0.09584409,0.651946,0.01338327,4.826193,-23.33455,36.17
2,0.1947937,-0.4178467,0.8873749,0.763442,0.05203247,-0.4278259,0.9023438,-24.98132,9.630417,-27.88547,2.150299,0.2739502,0.3074544,0.9284354,0.2386474999999999,-0.4129332999999999,0.8789215,33.98143,9.943542,-30.751690000000004,2.387085,0.4261755,0.3097014,-0.4858117999999999,1.213253,-0.2989830999999999,-0.09584409,0.651946,0.01338327,4.826193,-23.33455,36.17
2,0.1947937,-0.4178467,0.8873749,0.763442,0.05203247,-0.4278259,0.9023438,-24.98132,9.630417,-27.88547,2.150299,0.2739502,0.3074544,0.9284354,0.2386474999999999,-0.4129332999999999,0.8789215,33.98143,9.943542,-30.751690000000004,2.387085,0.4261755,0.3097014,-0.4858117999999999,1.213253,-0.2989830999999999,-0.09584409,0.651946,0.01338327,4.826193,-23.33455,36.17
2,0.1718444999999999,-0.4171448,0.8924254999999999,0.7771828000000001,0.05183411,-0.4284668,0.9020538,-25.00198,9.640213,-27.884120000000003,2.151138,0.2747178,0.3072338,0.9105048,0.2330933,-0.4088745,0.882309,33.992740000000005,9.941971,-30.74823,2.410858,0.4265047,0.3090976,-0.4844916,1.2121,-0.2983656,-0.09094189,0.652209,0.01008614,4.826193,-23.33455,36.17
2,0.1718444999999999,-0.4171448,0.8924254999999999,0.7771828000000001,0.05183411,-0.4284668,0.9020538,-25.00198,9.640213,-27.884120000000003,2.151138,0.2747178,0.3072338,0.9105048,0.2330933,-0.4088745,0.882309,33.992740000000005,9.941971,-30.74823,2.410858,0.4265047,0.3090976,-0.4844916,1.2121,-0.2983656,-0.09094189,0.652209,0.01008614,4.826193,-23.33455,36.17
2,0.1718444999999999,-0.4171448,0.8924254999999999,0.7771828000000001,0.05183411,-0.4284668,0.9020538,-25.00198,9.640213,-27.884120000000003,2.151138,0.2747178,0.3072338,0.9105048,0.2330933,-0.4088745,0.882309,33.992740000000005,9.941971,-30.74823,2.410858,0.4265047,0.3090976,-0.4844916,1.2121,-0.2983656,-0.09094189,0.652209,0.01008614,4.826193,-23.33455,36.17
2,0.1708679,-0.4136505,0.8942413,0.7594612,0.04891968,-0.4240417,0.9043121,-25.01385,9.640579,-27.88213,2.177994,0.2755467,0.3065536,0.8836889000000001,0.2281952,-0.4064789,0.8846893,34.00354,9.941284,-30.746140000000004,2.433456,0.4267608,0.3087195,-0.483112,1.210809,-0.2978982,-0.0852648,0.6524689,0.007379703,4.826193,-23.33455,36.17
2,0.1708679,-0.4136505,0.8942413,0.7594612,0.04891968,-0.4240417,0.9043121,-25.01385,9.640579,-27.88213,2.177994,0.2755467,0.3065536,0.8836889000000001,0.2281952,-0.4064789,0.8846893,34.00354,9.941284,-30.746140000000004,2.433456,0.4267608,0.3087195,-0.483112,1.210809,-0.2978982,-0.0852648,0.6524689,0.007379703,4.826193,-23.33455,36.17
2,0.1708679,-0.4136505,0.8942413,0.7594612,0.04891968,-0.4240417,0.9043121,-25.01385,9.640579,-27.88213,2.177994,0.2755467,0.3065536,0.8836889000000001,0.2281952,-0.4064789,0.8846893,34.00354,9.941284,-30.746140000000004,2.433456,0.4267608,0.3087195,-0.483112,1.210809,-0.2978982,-0.0852648,0.6524689,0.007379703,4.826193,-23.33455,36.17
2,0.1418152,-0.3988953,0.9059448,0.7755622,0.05046082,-0.4192505,0.9064484,-25.02136,9.645752,-27.88127,2.176407,0.2755940999999999,0.3056625,0.8669180000000001,0.2071686,-0.3819885,0.9006348,34.04892,10.02512,-30.69147,2.445786,0.4279627,0.3017274,-0.4818847,1.21028,-0.2974310999999999,-0.08190395,0.6520779000000001,0.006030446,4.826193,11.08223,36.17
2,0.1418152,-0.3988953,0.9059448,0.7755622,0.05046082,-0.4192505,0.9064484,-25.02136,9.645752,-27.88127,2.176407,0.2755940999999999,0.3056625,0.8669180000000001,0.2071686,-0.3819885,0.9006348,34.04892,10.02512,-30.69147,2.445786,0.4279627,0.3017274,-0.4818847,1.21028,-0.2974310999999999,-0.08190395,0.6520779000000001,0.006030446,4.826193,11.08223,36.17
2,0.1418152,-0.3988953,0.9059448,0.7755622,0.05046082,-0.4192505,0.9064484,-25.02136,9.645752,-27.88127,2.176407,0.2755940999999999,0.3056625,0.8669180000000001,0.2071686,-0.3819885,0.9006348,34.04892,10.02512,-30.69147,2.445786,0.4279627,0.3017274,-0.4818847,1.21028,-0.2974310999999999,-0.08190395,0.6520779000000001,0.006030446,4.826193,11.08223,36.17
2,0.1447144,-0.3749695,0.9156647,0.7736215999999999,0.04623413,-0.3912964,0.9190979,-25.03891,9.657822,-27.87387,2.161621,0.2767102,0.3011385,0.8594209999999999,0.2227936,-0.3591614,0.9062805,34.06108,10.06238,-30.67572,2.46727,0.4255353,0.2970199,-0.4807537,1.210159,-0.2970599,-0.07965065,0.6515951999999999,0.006436533,4.826193,11.08223,36.17
2,0.1447144,-0.3749695,0.9156647,0.7736215999999999,0.04623413,-0.3912964,0.9190979,-25.03891,9.657822,-27.87387,2.161621,0.2767102,0.3011385,0.8594209999999999,0.2227936,-0.3591614,0.9062805,34.06108,10.06238,-30.67572,2.46727,0.4255353,0.2970199,-0.4807537,1.210159,-0.2970599,-0.07965065,0.6515951999999999,0.006436533,4.826193,11.08223,36.17
2,0.1447144,-0.3749695,0.9156647,0.7736215999999999,0.04623413,-0.3912964,0.9190979,-25.03891,9.657822,-27.87387,2.161621,0.2767102,0.3011385,0.8594209999999999,0.2227936,-0.3591614,0.9062805,34.06108,10.06238,-30.67572,2.46727,0.4255353,0.2970199,-0.4807537,1.210159,-0.2970599,-0.07965065,0.6515951999999999,0.006436533,4.826193,11.08223,36.17
2,0.151413,-0.3654785,0.9184113000000002,0.7374187,0.04760742,-0.3779297,0.9245911,-25.04689,9.723541,-27.86186,2.1864470000000003,0.2767102,0.2966712999999999,0.8337694999999999,0.2195282,-0.3549805,0.9087219,34.08139,10.06888,-30.67198,2.4646,0.4252584,0.296149,-0.4797349,1.210237,-0.2967917,-0.07727868,0.6506810000000001,0.007322439,4.826193,11.08223,36.17
2,0.151413,-0.3654785,0.9184113000000002,0.7374187,0.04760742,-0.3779297,0.9245911,-25.04689,9.723541,-27.86186,2.1864470000000003,0.2767102,0.2966712999999999,0.8337694999999999,0.2195282,-0.3549805,0.9087219,34.08139,10.06888,-30.67198,2.4646,0.4252584,0.296149,-0.4797349,1.210237,-0.2967917,-0.07727868,0.6506810000000001,0.007322439,4.826193,11.08223,36.17
2,0.151413,-0.3654785,0.9184113000000002,0.7374187,0.04760742,-0.3779297,0.9245911,-25.04689,9.723541,-27.86186,2.1864470000000003,0.2767102,0.2966712999999999,0.8337694999999999,0.2195282,-0.3549805,0.9087219,34.08139,10.06888,-30.67198,2.4646,0.4252584,0.296149,-0.4797349,1.210237,-0.2967917,-0.07727868,0.6506810000000001,0.007322439,4.826193,11.08223,36.17
2,0.1636963,-0.3538361,0.9208679,0.7256891,0.0597229,-0.3818665,0.9222717,-25.08879,9.755981,-27.825740000000003,2.187378,0.27664,0.2958407,0.7863101,0.2155304,-0.3381041999999999,0.9160767,34.09097,9.970795,-30.689290000000003,2.555725,0.4254041,0.2973157,-0.4789127,1.210011,-0.296348,-0.07528193,0.6498703,0.006854712,4.826193,11.08223,36.17
2,0.1636963,-0.3538361,0.9208679,0.7256891,0.0597229,-0.3818665,0.9222717,-25.08879,9.755981,-27.825740000000003,2.187378,0.27664,0.2958407,0.7863101,0.2155304,-0.3381041999999999,0.9160767,34.09097,9.970795,-30.689290000000003,2.555725,0.4254041,0.2973157,-0.4789127,1.210011,-0.296348,-0.07528193,0.6498703,0.006854712,4.826193,11.08223,36.17
2,0.1636963,-0.3538361,0.9208679,0.7256891,0.0597229,-0.3818665,0.9222717,-25.08879,9.755981,-27.825740000000003,2.187378,0.27664,0.2958407,0.7863101,0.2155304,-0.3381041999999999,0.9160767,34.09097,9.970795,-30.689290000000003,2.555725,0.4254041,0.2973157,-0.4789127,1.210011,-0.296348,-0.07528193,0.6498703,0.006854712,4.826193,11.08223,36.17
2,0.1444243999999999,-0.3426819,0.9282684,0.7115322,0.02563477,-0.3684692,0.9292755,-25.11998,9.488617,-27.886540000000004,2.390198,0.2826575999999999,0.3041328,0.7671666,0.209137,-0.3262634,0.9218445,34.08585,9.890945,-30.70799,2.471466,0.4264653,0.2987535999999999,-0.4783603,1.209179,-0.295969,-0.07078099,0.6485603,0.004599962,4.826193,11.08223,36.17
2,0.1444243999999999,-0.3426819,0.9282684,0.7115322,0.02563477,-0.3684692,0.9292755,-25.11998,9.488617,-27.886540000000004,2.390198,0.2826575999999999,0.3041328,0.7671666,0.209137,-0.3262634,0.9218445,34.08585,9.890945,-30.70799,2.471466,0.4264653,0.2987535999999999,-0.4783603,1.209179,-0.295969,-0.07078099,0.6485603,0.004599962,4.826193,11.08223,36.17
2,0.1444243999999999,-0.3426819,0.9282684,0.7115322,0.02563477,-0.3684692,0.9292755,-25.11998,9.488617,-27.886540000000004,2.390198,0.2826575999999999,0.3041328,0.7671666,0.209137,-0.3262634,0.9218445,34.08585,9.890945,-30.70799,2.471466,0.4264653,0.2987535999999999,-0.4783603,1.209179,-0.295969,-0.07078099,0.6485603,0.004599962,4.826193,11.08223,36.17
3,0.1455688,-0.3166962,0.9372711,0.6713584,-0.008773804,-0.3210144,0.9470215,-25.06908,9.425323,-27.92284,2.414276,0.2852007,0.2999350999999999,0.697495,0.2125853999999999,-0.3123932,0.9258575,34.06421,9.792557,-30.73138,2.594116,0.4267039999999999,0.3004310999999999,-0.4779584,1.20733,-0.2954319,-0.06204412,0.6470268,0.001293312,4.826193,0.8701534,36.17
3,0.1455688,-0.3166962,0.9372711,0.6713584,-0.008773804,-0.3210144,0.9470215,-25.06908,9.425323,-27.92284,2.414276,0.2852007,0.2999350999999999,0.697495,0.2125853999999999,-0.3123932,0.9258575,34.06421,9.792557,-30.73138,2.594116,0.4267039999999999,0.3004310999999999,-0.4779584,1.20733,-0.2954319,-0.06204412,0.6470268,0.001293312,4.826193,0.8701534,36.17
3,0.1455688,-0.3166962,0.9372711,0.6713584,-0.008773804,-0.3210144,0.9470215,-25.06908,9.425323,-27.92284,2.414276,0.2852007,0.2999350999999999,0.697495,0.2125853999999999,-0.3123932,0.9258575,34.06421,9.792557,-30.73138,2.594116,0.4267039999999999,0.3004310999999999,-0.4779584,1.20733,-0.2954319,-0.06204412,0.6470268,0.001293312,4.826193,0.8701534,36.17
3,0.1370697,-0.3231354,0.9363556,0.659592,0.03495789,-0.3255005,0.9448853000000002,-25.18724,9.331223,-27.885790000000004,2.55191,0.2839654,0.3036316,0.6774526999999999,0.1943207,-0.3202972,0.9271698,34.01175,9.750778,-30.73917,2.732498,0.4307724,0.302984,-0.4773878,1.204906,-0.295163,-0.05139088,0.6469117,-0.003298158,4.826193,0.8701534,36.17
3,0.1370697,-0.3231354,0.9363556,0.659592,0.03495789,-0.3255005,0.9448853000000002,-25.18724,9.331223,-27.885790000000004,2.55191,0.2839654,0.3036316,0.6774526999999999,0.1943207,-0.3202972,0.9271698,34.01175,9.750778,-30.73917,2.732498,0.4307724,0.302984,-0.4773878,1.204906,-0.295163,-0.05139088,0.6469117,-0.003298158,4.826193,0.8701534,36.17
3,0.1370697,-0.3231354,0.9363556,0.659592,0.03495789,-0.3255005,0.9448853000000002,-25.18724,9.331223,-27.885790000000004,2.55191,0.2839654,0.3036316,0.6774526999999999,0.1943207,-0.3202972,0.9271698,34.01175,9.750778,-30.73917,2.732498,0.4307724,0.302984,-0.4773878,1.204906,-0.295163,-0.05139088,0.6469117,-0.003298158,4.826193,0.8701534,36.17
3,0.1517181,-0.2846069,0.9465485,0.6521156,0.0798645,-0.303894,0.9493408,-25.49864,9.374634,-27.85963,2.541428,0.2892185,0.2992675,0.6183584,0.1994476,-0.2707825,0.9417419,33.84953,9.735291,-30.705920000000003,2.759689,0.4357701,0.296577,-0.4750167999999999,1.1995360000000002,-0.2948059,-0.03141882,0.6516377,-0.01613269,4.826193,0.8701534,36.17
3,0.1517181,-0.2846069,0.9465485,0.6521156,0.0798645,-0.303894,0.9493408,-25.49864,9.374634,-27.85963,2.541428,0.2892185,0.2992675,0.6183584,0.1994476,-0.2707825,0.9417419,33.84953,9.735291,-30.705920000000003,2.759689,0.4357701,0.296577,-0.4750167999999999,1.1995360000000002,-0.2948059,-0.03141882,0.6516377,-0.01613269,4.826193,0.8701534,36.17
3,0.1517181,-0.2846069,0.9465485,0.6521156,0.0798645,-0.303894,0.9493408,-25.49864,9.374634,-27.85963,2.541428,0.2892185,0.2992675,0.6183584,0.1994476,-0.2707825,0.9417419,33.84953,9.735291,-30.705920000000003,2.759689,0.4357701,0.296577,-0.4750167999999999,1.1995360000000002,-0.2948059,-0.03141882,0.6516377,-0.01613269,4.826193,0.8701534,36.17
3,-0.03840637,-0.2482146999999999,0.967926,0.644158,-0.1706542999999999,-0.2671356,0.94841,-26.35698,9.381226,-27.907390000000003,2.62384,0.3517382,0.297336,0.6445622,0.01652527,-0.2390594,0.9708557,32.69444,9.817169,-30.68311,2.802567,0.4986392,0.2899219999999999,-0.473122,1.197797,-0.2949934,-0.02572833,0.6561944000000001,-0.02068345,4.826193,0.8701534,36.17
3,-0.03840637,-0.2482146999999999,0.967926,0.644158,-0.1706542999999999,-0.2671356,0.94841,-26.35698,9.381226,-27.907390000000003,2.62384,0.3517382,0.297336,0.6445622,0.01652527,-0.2390594,0.9708557,32.69444,9.817169,-30.68311,2.802567,0.4986392,0.2899219999999999,-0.473122,1.197797,-0.2949934,-0.02572833,0.6561944000000001,-0.02068345,4.826193,0.8701534,36.17
3,-0.03840637,-0.2482146999999999,0.967926,0.644158,-0.1706542999999999,-0.2671356,0.94841,-26.35698,9.381226,-27.907390000000003,2.62384,0.3517382,0.297336,0.6445622,0.01652527,-0.2390594,0.9708557,32.69444,9.817169,-30.68311,2.802567,0.4986392,0.2899219999999999,-0.473122,1.197797,-0.2949934,-0.02572833,0.6561944000000001,-0.02068345,4.826193,0.8701534,36.17
3,-0.1672668,-0.2345123,0.9575958,0.6794358,-0.2437438999999999,-0.2675171,0.9322052,-26.65225,9.532623,-27.92561,2.404175,0.3712935999999999,0.293344,0.7199011,-0.07548523,-0.1933289,0.9782104,32.38843,9.975204,-30.71748,2.868088,0.5206400999999999,0.2785147,-0.4711217,1.1970120000000002,-0.2956449,-0.0221232,0.6625736999999999,-0.0228309,4.826193,0.8701534,36.17
3,-0.1672668,-0.2345123,0.9575958,0.6794358,-0.2437438999999999,-0.2675171,0.9322052,-26.65225,9.532623,-27.92561,2.404175,0.3712935999999999,0.293344,0.7199011,-0.07548523,-0.1933289,0.9782104,32.38843,9.975204,-30.71748,2.868088,0.5206400999999999,0.2785147,-0.4711217,1.1970120000000002,-0.2956449,-0.0221232,0.6625736999999999,-0.0228309,4.826193,0.8701534,36.17
3,-0.1672668,-0.2345123,0.9575958,0.6794358,-0.2437438999999999,-0.2675171,0.9322052,-26.65225,9.532623,-27.92561,2.404175,0.3712935999999999,0.293344,0.7199011,-0.07548523,-0.1933289,0.9782104,32.38843,9.975204,-30.71748,2.868088,0.5206400999999999,0.2785147,-0.4711217,1.1970120000000002,-0.2956449,-0.0221232,0.6625736999999999,-0.0228309,4.826193,0.8701534,36.17
3,-0.1233978,-0.2139434999999999,0.9690094,0.7055384,-0.2119141,-0.2449341,0.9460907,-26.58823,9.618835,-27.88258,2.631012,0.3648889,0.2862335,0.7265822,-0.04692078,-0.1858826,0.9814453000000002,32.49612,10.07167,-30.67725,2.918884,0.5133654000000001,0.2734866,-0.4690622,1.1976,-0.29645,-0.02250071,0.6686482,-0.02131097,4.826193,-3.318392,36.17
3,-0.1233978,-0.2139434999999999,0.9690094,0.7055384,-0.2119141,-0.2449341,0.9460907,-26.58823,9.618835,-27.88258,2.631012,0.3648889,0.2862335,0.7265822,-0.04692078,-0.1858826,0.9814453000000002,32.49612,10.07167,-30.67725,2.918884,0.5133654000000001,0.2734866,-0.4690622,1.1976,-0.29645,-0.02250071,0.6686482,-0.02131097,4.826193,-3.318392,36.17
3,-0.1233978,-0.2139434999999999,0.9690094,0.7055384,-0.2119141,-0.2449341,0.9460907,-26.58823,9.618835,-27.88258,2.631012,0.3648889,0.2862335,0.7265822,-0.04692078,-0.1858826,0.9814453000000002,32.49612,10.07167,-30.67725,2.918884,0.5133654000000001,0.2734866,-0.4690622,1.1976,-0.29645,-0.02250071,0.6686482,-0.02131097,4.826193,-3.318392,36.17
3,-0.1065673999999999,-0.2041779,0.973114,0.7387055,-0.2023621,-0.2359161,0.9504547,-26.50578,9.650452,-27.86372,2.704758,0.360759,0.2834493,0.7420563,-0.03869629,-0.1806029999999999,0.9827881,32.61513,10.09436,-30.68617,2.882874,0.5082715,0.2719717,-0.4672965,1.1988530000000002,-0.297065,-0.02417755,0.6723838000000001,-0.01834277,4.826193,-3.318392,36.17
3,-0.1065673999999999,-0.2041779,0.973114,0.7387055,-0.2023621,-0.2359161,0.9504547,-26.50578,9.650452,-27.86372,2.704758,0.360759,0.2834493,0.7420563,-0.03869629,-0.1806029999999999,0.9827881,32.61513,10.09436,-30.68617,2.882874,0.5082715,0.2719717,-0.4672965,1.1988530000000002,-0.297065,-0.02417755,0.6723838000000001,-0.01834277,4.826193,-3.318392,36.17
3,-0.1065673999999999,-0.2041779,0.973114,0.7387055,-0.2023621,-0.2359161,0.9504547,-26.50578,9.650452,-27.86372,2.704758,0.360759,0.2834493,0.7420563,-0.03869629,-0.1806029999999999,0.9827881,32.61513,10.09436,-30.68617,2.882874,0.5082715,0.2719717,-0.4672965,1.1988530000000002,-0.297065,-0.02417755,0.6723838000000001,-0.01834277,4.826193,-3.318392,36.17
3,-0.06913757,-0.2002563,0.9772949,0.7507454000000001,-0.1708068999999999,-0.2371521,0.9563293,-26.404020000000003,9.604355,-27.85217,2.698746,0.3532307,0.2847591,0.7584871,0.0001373291,-0.1739197,0.9847565,32.61261,10.04962,-30.63934,2.8318790000000003,0.5035934,0.272271,-0.4658542,1.19995,-0.2973430999999999,-0.02555151,0.6743661999999999,-0.01593099,4.826193,-3.318392,36.17
3,-0.06913757,-0.2002563,0.9772949,0.7507454000000001,-0.1708068999999999,-0.2371521,0.9563293,-26.404020000000003,9.604355,-27.85217,2.698746,0.3532307,0.2847591,0.7584871,0.0001373291,-0.1739197,0.9847565,32.61261,10.04962,-30.63934,2.8318790000000003,0.5035934,0.272271,-0.4658542,1.19995,-0.2973430999999999,-0.02555151,0.6743661999999999,-0.01593099,4.826193,-3.318392,36.17
3,-0.06913757,-0.2002563,0.9772949,0.7507454000000001,-0.1708068999999999,-0.2371521,0.9563293,-26.404020000000003,9.604355,-27.85217,2.698746,0.3532307,0.2847591,0.7584871,0.0001373291,-0.1739197,0.9847565,32.61261,10.04962,-30.63934,2.8318790000000003,0.5035934,0.272271,-0.4658542,1.19995,-0.2973430999999999,-0.02555151,0.6743661999999999,-0.01593099,4.826193,-3.318392,36.17
3,-0.08004761,-0.1902924,0.9784546,0.7588279,-0.1663055,-0.2008667,0.9653931,-26.32187,9.499298,-27.85417,2.822952,0.3497572,0.2833868,0.7411175999999999,-0.01383972,-0.1812438999999999,0.9833374,32.78633,10.02904,-30.71552,2.847198,0.4992714,0.2745607,-0.4647497,1.200538,-0.2972367,-0.02578733,0.6740839,-0.01425324,4.822349,-3.318392,36.17
3,-0.08004761,-0.1902924,0.9784546,0.7588279,-0.1663055,-0.2008667,0.9653931,-26.32187,9.499298,-27.85417,2.822952,0.3497572,0.2833868,0.7411175999999999,-0.01383972,-0.1812438999999999,0.9833374,32.78633,10.02904,-30.71552,2.847198,0.4992714,0.2745607,-0.4647497,1.200538,-0.2972367,-0.02578733,0.6740839,-0.01425324,4.822349,-3.318392,36.17
3,-0.08004761,-0.1902924,0.9784546,0.7588279,-0.1663055,-0.2008667,0.9653931,-26.32187,9.499298,-27.85417,2.822952,0.3497572,0.2833868,0.7411175999999999,-0.01383972,-0.1812438999999999,0.9833374,32.78633,10.02904,-30.71552,2.847198,0.4992714,0.2745607,-0.4647497,1.200538,-0.2972367,-0.02578733,0.6740839,-0.01425324,4.822349,-3.318392,36.17
3,-0.06771851,-0.201767,0.9770813,0.7542156,-0.1622314,-0.2134857,0.9633789,-26.31874,9.461441,-27.88403,2.798828,0.3491714,0.2866764,0.7452656999999999,0.00227356,-0.1919556,0.9813843,32.81165,9.971436,-30.69461,2.7479400000000003,0.4964843,0.2780081,-0.4640705,1.200769,-0.2970868,-0.02586508,0.6734155,-0.01362274,4.822349,-30.43773,36.17
3,-0.06771851,-0.201767,0.9770813,0.7542156,-0.1622314,-0.2134857,0.9633789,-26.31874,9.461441,-27.88403,2.798828,0.3491714,0.2866764,0.7452656999999999,0.00227356,-0.1919556,0.9813843,32.81165,9.971436,-30.69461,2.7479400000000003,0.4964843,0.2780081,-0.4640705,1.200769,-0.2970868,-0.02586508,0.6734155,-0.01362274,4.822349,-30.43773,36.17
3,-0.06771851,-0.201767,0.9770813,0.7542156,-0.1622314,-0.2134857,0.9633789,-26.31874,9.461441,-27.88403,2.798828,0.3491714,0.2866764,0.7452656999999999,0.00227356,-0.1919556,0.9813843,32.81165,9.971436,-30.69461,2.7479400000000003,0.4964843,0.2780081,-0.4640705,1.200769,-0.2970868,-0.02586508,0.6734155,-0.01362274,4.822349,-30.43773,36.17
3,-0.05796814,-0.2069855,0.9766083,0.7384516,-0.1556548999999999,-0.2072601,0.9658203000000002,-26.33394,9.322845,-27.887590000000003,2.745209,0.3489603,0.2908962,0.7426196999999999,0.01316833,-0.2055511,0.9785461,32.786559999999994,9.86821,-30.735840000000003,2.879471,0.4958238,0.2838002,-0.4638273,1.200499,-0.2968658,-0.02480852,0.6732515,-0.01339829,4.822349,-30.43773,36.17
3,-0.05796814,-0.2069855,0.9766083,0.7384516,-0.1556548999999999,-0.2072601,0.9658203000000002,-26.33394,9.322845,-27.887590000000003,2.745209,0.3489603,0.2908962,0.7426196999999999,0.01316833,-0.2055511,0.9785461,32.786559999999994,9.86821,-30.735840000000003,2.879471,0.4958238,0.2838002,-0.4638273,1.200499,-0.2968658,-0.02480852,0.6732515,-0.01339829,4.822349,-30.43773,36.17
3,-0.05796814,-0.2069855,0.9766083,0.7384516,-0.1556548999999999,-0.2072601,0.9658203000000002,-26.33394,9.322845,-27.887590000000003,2.745209,0.3489603,0.2908962,0.7426196999999999,0.01316833,-0.2055511,0.9785461,32.786559999999994,9.86821,-30.735840000000003,2.879471,0.4958238,0.2838002,-0.4638273,1.200499,-0.2968658,-0.02480852,0.6732515,-0.01339829,4.822349,-30.43773,36.17
3,-0.05957031,-0.204834,0.9769745,0.7190986999999999,-0.1548309,-0.2059326,0.9662323,-26.33826,9.308533,-27.88908,2.715103,0.3490119,0.2912645,0.7179215999999999,0.007888794,-0.2029418999999999,0.9791565,32.78275,9.849396,-30.734340000000003,2.898193,0.496587,0.284122,-0.4641689,1.200343,-0.2965955,-0.02336328,0.671764,-0.01274517,4.822349,-30.43773,36.17
3,-0.05957031,-0.204834,0.9769745,0.7190986999999999,-0.1548309,-0.2059326,0.9662323,-26.33826,9.308533,-27.88908,2.715103,0.3490119,0.2912645,0.7179215999999999,0.007888794,-0.2029418999999999,0.9791565,32.78275,9.849396,-30.734340000000003,2.898193,0.496587,0.284122,-0.4641689,1.200343,-0.2965955,-0.02336328,0.671764,-0.01274517,4.822349,-30.43773,36.17
3,-0.05957031,-0.204834,0.9769745,0.7190986999999999,-0.1548309,-0.2059326,0.9662323,-26.33826,9.308533,-27.88908,2.715103,0.3490119,0.2912645,0.7179215999999999,0.007888794,-0.2029418999999999,0.9791565,32.78275,9.849396,-30.734340000000003,2.898193,0.496587,0.284122,-0.4641689,1.200343,-0.2965955,-0.02336328,0.671764,-0.01274517,4.822349,-30.43773,36.17
3,-0.05897522,-0.2082214,0.9762878,0.7200671,-0.1573333999999999,-0.2067871,0.9656372,-26.33826,9.298279,-27.88948,2.688766,0.3493414999999999,0.2917949,0.726204,0.005844116,-0.2080536,0.9780884,32.78191,9.827881,-30.73541,2.892761,0.4968657,0.2856220999999999,-0.465157,1.20022,-0.2961634,-0.02273639,0.6689686,-0.01273896,4.822349,-30.43773,36.17
3,-0.05897522,-0.2082214,0.9762878,0.7200671,-0.1573333999999999,-0.2067871,0.9656372,-26.33826,9.298279,-27.88948,2.688766,0.3493414999999999,0.2917949,0.726204,0.005844116,-0.2080536,0.9780884,32.78191,9.827881,-30.73541,2.892761,0.4968657,0.2856220999999999,-0.465157,1.20022,-0.2961634,-0.02273639,0.6689686,-0.01273896,4.822349,-30.43773,36.17
3,-0.05897522,-0.2082214,0.9762878,0.7200671,-0.1573333999999999,-0.2067871,0.9656372,-26.33826,9.298279,-27.88948,2.688766,0.3493414999999999,0.2917949,0.726204,0.005844116,-0.2080536,0.9780884,32.78191,9.827881,-30.73541,2.892761,0.4968657,0.2856220999999999,-0.465157,1.20022,-0.2961634,-0.02273639,0.6689686,-0.01273896,4.822349,-30.43773,36.17
3,-0.06521606,-0.2060242,0.9763641,0.7221768,-0.1585846,-0.2089081,0.9649811,-26.339170000000003,9.281815,-27.88948,2.687073,0.3495487,0.2926864999999999,0.737165,0.0004882813,-0.2029114,0.979187,32.7115,9.774506,-30.75677,3.020004,0.4998162999999999,0.2869584,-0.4664454,1.200397,-0.2960112,-0.02318091,0.6665901,-0.01196709,4.822349,-30.43773,36.17
3,-0.06521606,-0.2060242,0.9763641,0.7221768,-0.1585846,-0.2089081,0.9649811,-26.339170000000003,9.281815,-27.88948,2.687073,0.3495487,0.2926864999999999,0.737165,0.0004882813,-0.2029114,0.979187,32.7115,9.774506,-30.75677,3.020004,0.4998162999999999,0.2869584,-0.4664454,1.200397,-0.2960112,-0.02318091,0.6665901,-0.01196709,4.822349,-30.43773,36.17
3,-0.06521606,-0.2060242,0.9763641,0.7221768,-0.1585846,-0.2089081,0.9649811,-26.339170000000003,9.281815,-27.88948,2.687073,0.3495487,0.2926864999999999,0.737165,0.0004882813,-0.2029114,0.979187,32.7115,9.774506,-30.75677,3.020004,0.4998162999999999,0.2869584,-0.4664454,1.200397,-0.2960112,-0.02318091,0.6665901,-0.01196709,4.822349,-30.43773,36.17
3,-0.06335449,-0.2059174,0.9765015,0.7289058,-0.1795807,-0.2136992999999999,0.9602356,-26.44363,9.285751,-27.927540000000004,2.6535490000000004,0.3558427,0.293825,0.7266734,0.0071563719999999,-0.1998444,0.9797974,32.675340000000006,9.790604,-30.75266,2.957718,0.500315,0.285964,-0.4679051999999999,1.201377,-0.295826,-0.02709218,0.6641615,-0.009244358,4.822349,19.0834,36.17
3,-0.06335449,-0.2059174,0.9765015,0.7289058,-0.1795807,-0.2136992999999999,0.9602356,-26.44363,9.285751,-27.927540000000004,2.6535490000000004,0.3558427,0.293825,0.7266734,0.0071563719999999,-0.1998444,0.9797974,32.675340000000006,9.790604,-30.75266,2.957718,0.500315,0.285964,-0.4679051999999999,1.201377,-0.295826,-0.02709218,0.6641615,-0.009244358,4.822349,19.0834,36.17
3,-0.06335449,-0.2059174,0.9765015,0.7289058,-0.1795807,-0.2136992999999999,0.9602356,-26.44363,9.285751,-27.927540000000004,2.6535490000000004,0.3558427,0.293825,0.7266734,0.0071563719999999,-0.1998444,0.9797974,32.675340000000006,9.790604,-30.75266,2.957718,0.500315,0.285964,-0.4679051999999999,1.201377,-0.295826,-0.02709218,0.6641615,-0.009244358,4.822349,19.0834,36.17
3,-0.08258057,-0.2145081,0.9732208,0.7065336,-0.1880187999999999,-0.2271271,0.9555359,-26.50664,9.292877,-27.93976,2.747726,0.3591152,0.295573,0.7318057,-0.0158844,-0.2053222999999999,0.9785614,32.60902,9.802231,-30.778140000000004,2.930847,0.5054829000000001,0.2865725999999999,-0.4695398,1.203166,-0.2955322999999999,-0.03312047,0.6619286999999999,-0.004596519,4.822349,19.0834,36.17
3,-0.08258057,-0.2145081,0.9732208,0.7065336,-0.1880187999999999,-0.2271271,0.9555359,-26.50664,9.292877,-27.93976,2.747726,0.3591152,0.295573,0.7318057,-0.0158844,-0.2053222999999999,0.9785614,32.60902,9.802231,-30.778140000000004,2.930847,0.5054829000000001,0.2865725999999999,-0.4695398,1.203166,-0.2955322999999999,-0.03312047,0.6619286999999999,-0.004596519,4.822349,19.0834,36.17
3,-0.08258057,-0.2145081,0.9732208,0.7065336,-0.1880187999999999,-0.2271271,0.9555359,-26.50664,9.292877,-27.93976,2.747726,0.3591152,0.295573,0.7318057,-0.0158844,-0.2053222999999999,0.9785614,32.60902,9.802231,-30.778140000000004,2.930847,0.5054829000000001,0.2865725999999999,-0.4695398,1.203166,-0.2955322999999999,-0.03312047,0.6619286999999999,-0.004596519,4.822349,19.0834,36.17
3,-0.0887146,-0.216507,0.972229,0.7047026999999999,-0.1951141,-0.2237701,0.954895,-26.5576,9.210098,-27.958790000000004,2.835373,0.3618005999999999,0.2982975999999999,0.7501028000000001,-0.01998901,-0.2105103,0.9773712,32.53784,9.734024,-30.79314,2.84024,0.5085221999999999,0.2899541,-0.4713552,1.204991,-0.2956934,-0.03851787,0.6612938,0.000706533,4.822349,19.0834,36.17
3,-0.0887146,-0.216507,0.972229,0.7047026999999999,-0.1951141,-0.2237701,0.954895,-26.5576,9.210098,-27.958790000000004,2.835373,0.3618005999999999,0.2982975999999999,0.7501028000000001,-0.01998901,-0.2105103,0.9773712,32.53784,9.734024,-30.79314,2.84024,0.5085221999999999,0.2899541,-0.4713552,1.204991,-0.2956934,-0.03851787,0.6612938,0.000706533,4.822349,19.0834,36.17
3,-0.0887146,-0.216507,0.972229,0.7047026999999999,-0.1951141,-0.2237701,0.954895,-26.5576,9.210098,-27.958790000000004,2.835373,0.3618005999999999,0.2982975999999999,0.7501028000000001,-0.01998901,-0.2105103,0.9773712,32.53784,9.734024,-30.79314,2.84024,0.5085221999999999,0.2899541,-0.4713552,1.204991,-0.2956934,-0.03851787,0.6612938,0.000706533,4.822349,19.0834,36.17
3,-0.08738708,-0.2241821,0.9706116,0.7111001,-0.1918487999999999,-0.2324828999999999,0.953476,-26.60707,9.144043,-27.98091,2.707489,0.3631599,0.302128,0.7391691,-0.02267456,-0.2178192,0.9757233,32.49861,9.688553,-30.80643,2.944992,0.510077,0.29264,-0.4732358,1.20646,-0.296157,-0.04295954,0.6622312,0.006016377,4.822349,19.0834,36.17
3,-0.08738708,-0.2241821,0.9706116,0.7111001,-0.1918487999999999,-0.2324828999999999,0.953476,-26.60707,9.144043,-27.98091,2.707489,0.3631599,0.302128,0.7391691,-0.02267456,-0.2178192,0.9757233,32.49861,9.688553,-30.80643,2.944992,0.510077,0.29264,-0.4732358,1.20646,-0.296157,-0.04295954,0.6622312,0.006016377,4.822349,19.0834,36.17
3,-0.08738708,-0.2241821,0.9706116,0.7111001,-0.1918487999999999,-0.2324828999999999,0.953476,-26.60707,9.144043,-27.98091,2.707489,0.3631599,0.302128,0.7391691,-0.02267456,-0.2178192,0.9757233,32.49861,9.688553,-30.80643,2.944992,0.510077,0.29264,-0.4732358,1.20646,-0.296157,-0.04295954,0.6622312,0.006016377,4.822349,19.0834,36.17
3,-0.08215332,-0.2391052,0.9674988,0.6947336,-0.1841431,-0.2563934,0.9488678,-26.6178,9.055145,-28.0042,2.74791,0.3626145999999999,0.308607,0.7388847,-0.02116394,-0.2276001,0.9735107,32.47615,9.557236,-30.83563,3.068054,0.5104797000000001,0.2988267,-0.4766439,1.208292,-0.2978892,-0.0490450999999999,0.6677644,0.01395177,4.822349,19.0834,36.17
3,-0.08215332,-0.2391052,0.9674988,0.6947336,-0.1841431,-0.2563934,0.9488678,-26.6178,9.055145,-28.0042,2.74791,0.3626145999999999,0.308607,0.7388847,-0.02116394,-0.2276001,0.9735107,32.47615,9.557236,-30.83563,3.068054,0.5104797000000001,0.2988267,-0.4766439,1.208292,-0.2978892,-0.0490450999999999,0.6677644,0.01395177,4.822349,19.0834,36.17
3,-0.08215332,-0.2391052,0.9674988,0.6947336,-0.1841431,-0.2563934,0.9488678,-26.6178,9.055145,-28.0042,2.74791,0.3626145999999999,0.308607,0.7388847,-0.02116394,-0.2276001,0.9735107,32.47615,9.557236,-30.83563,3.068054,0.5104797000000001,0.2988267,-0.4766439,1.208292,-0.2978892,-0.0490450999999999,0.6677644,0.01395177,4.822349,19.0834,36.17
3,-0.08215332,-0.2391052,0.9674988,0.6947336,-0.1841431,-0.2563934,0.9488678,-26.6178,9.055145,-28.0042,2.74791,0.3626145999999999,0.308607,0.7388847,-0.02116394,-0.2276001,0.9735107,32.47615,9.557236,-30.83563,3.068054,0.5104797000000001,0.2988267,-0.4780002,1.20867,-0.2990866,-0.05047069,0.6725719,0.01686173,4.822349,8.003695,36.17
3,-0.08215332,-0.2391052,0.9674988,0.6947336,-0.1841431,-0.2563934,0.9488678,-26.6178,9.055145,-28.0042,2.74791,0.3626145999999999,0.308607,0.7388847,-0.02116394,-0.2276001,0.9735107,32.47615,9.557236,-30.83563,3.068054,0.5104797000000001,0.2988267,-0.4780002,1.20867,-0.2990866,-0.05047069,0.6725719,0.01686173,4.822349,8.003695,36.17
3,-0.08215332,-0.2391052,0.9674988,0.6947336,-0.1841431,-0.2563934,0.9488678,-26.6178,9.055145,-28.0042,2.74791,0.3626145999999999,0.308607,0.7388847,-0.02116394,-0.2276001,0.9735107,32.47615,9.557236,-30.83563,3.068054,0.5104797000000001,0.2988267,-0.4780002,1.20867,-0.2990866,-0.05047069,0.6725719,0.01686173,4.822349,8.003695,36.17
3,-0.06668091,-0.2734528,0.9595642,0.6547748000000001,-0.1775207999999999,-0.2749023,0.944931,-26.57086,8.91803,-28.03827,2.875,0.3601964,0.3160332,0.6809071999999999,0.01620483,-0.2701720999999999,0.9626617,32.49667,9.451874,-30.84758,2.846252,0.5052967,0.3084843,-0.4791127999999999,1.208602,-0.300503,-0.05039729,0.6779655,0.01921789,4.822349,8.003695,36.17
3,-0.06668091,-0.2734528,0.9595642,0.6547748000000001,-0.1775207999999999,-0.2749023,0.944931,-26.57086,8.91803,-28.03827,2.875,0.3601964,0.3160332,0.6809071999999999,0.01620483,-0.2701720999999999,0.9626617,32.49667,9.451874,-30.84758,2.846252,0.5052967,0.3084843,-0.4791127999999999,1.208602,-0.300503,-0.05039729,0.6779655,0.01921789,4.822349,8.003695,36.17
3,-0.06668091,-0.2734528,0.9595642,0.6547748000000001,-0.1775207999999999,-0.2749023,0.944931,-26.57086,8.91803,-28.03827,2.875,0.3601964,0.3160332,0.6809071999999999,0.01620483,-0.2701720999999999,0.9626617,32.49667,9.451874,-30.84758,2.846252,0.5052967,0.3084843,-0.4791127999999999,1.208602,-0.300503,-0.05039729,0.6779655,0.01921789,4.822349,8.003695,36.17
3,-0.0565033,-0.2844085999999999,0.9570313,0.6109365,-0.1590576,-0.2972717,0.9414368,-26.5229,8.931258999999999,-28.02124,2.850067,0.3562349999999999,0.3182462,0.6289107,0.01637268,-0.2734528,0.961731,32.51053,9.436707,-30.84798,2.96373,0.5046733,0.3093732999999999,-0.4795967,1.208454,-0.3022785999999999,-0.0487401,0.6850388000000001,0.0215945,4.822349,8.003695,36.17
3,-0.0565033,-0.2844085999999999,0.9570313,0.6109365,-0.1590576,-0.2972717,0.9414368,-26.5229,8.931258999999999,-28.02124,2.850067,0.3562349999999999,0.3182462,0.6289107,0.01637268,-0.2734528,0.961731,32.51053,9.436707,-30.84798,2.96373,0.5046733,0.3093732999999999,-0.4795967,1.208454,-0.3022785999999999,-0.0487401,0.6850388000000001,0.0215945,4.822349,8.003695,36.17
3,-0.0565033,-0.2844085999999999,0.9570313,0.6109365,-0.1590576,-0.2972717,0.9414368,-26.5229,8.931258999999999,-28.02124,2.850067,0.3562349999999999,0.3182462,0.6289107,0.01637268,-0.2734528,0.961731,32.51053,9.436707,-30.84798,2.96373,0.5046733,0.3093732999999999,-0.4795967,1.208454,-0.3022785999999999,-0.0487401,0.6850388000000001,0.0215945,4.822349,8.003695,36.17
3,-0.04782104,-0.2880859,0.9564056,0.6109365,-0.1544952,-0.2971802,0.9422302,-26.51697,8.931839,-28.02167,2.905045,0.3554502,0.31813,0.6289107,0.02542114,-0.2799377,0.959671,32.57018,9.41983,-30.85831,2.874435,0.5015657,0.3109623,-0.4790675,1.208361,-0.3059669,-0.04524908,0.6987850999999999,0.02608423,4.822349,8.003695,36.17
3,-0.04782104,-0.2880859,0.9564056,0.6109365,-0.1544952,-0.2971802,0.9422302,-26.51697,8.931839,-28.02167,2.905045,0.3554502,0.31813,0.6289107,0.02542114,-0.2799377,0.959671,32.57018,9.41983,-30.85831,2.874435,0.5015657,0.3109623,-0.4790675,1.208361,-0.3059669,-0.04524908,0.6987850999999999,0.02608423,4.822349,8.003695,36.17
3,-0.04782104,-0.2880859,0.9564056,0.6109365,-0.1544952,-0.2971802,0.9422302,-26.51697,8.931839,-28.02167,2.905045,0.3554502,0.31813,0.6289107,0.02542114,-0.2799377,0.959671,32.57018,9.41983,-30.85831,2.874435,0.5015657,0.3109623,-0.4790675,1.208361,-0.3059669,-0.04524908,0.6987850999999999,0.02608423,4.822349,8.003695,36.17
3,-0.02806091,-0.285141,0.9580688,0.5481936,-0.1314392,-0.2862396,0.9490967,-26.22247,8.93811,-27.98325,2.886948,0.3422794,0.3156067999999999,0.5589281,0.03068542,-0.2831573,0.9585724,32.83113,9.437317,-30.83969,2.998764,0.4917904,0.3104456,-0.4779904,1.208661,-0.3075988,-0.0458154,0.7043496,0.02806532,4.822349,-2.289207,36.17
3,-0.02806091,-0.285141,0.9580688,0.5481936,-0.1314392,-0.2862396,0.9490967,-26.22247,8.93811,-27.98325,2.886948,0.3422794,0.3156067999999999,0.5589281,0.03068542,-0.2831573,0.9585724,32.83113,9.437317,-30.83969,2.998764,0.4917904,0.3104456,-0.4779904,1.208661,-0.3075988,-0.0458154,0.7043496,0.02806532,4.822349,-2.289207,36.17
3,-0.02806091,-0.285141,0.9580688,0.5481936,-0.1314392,-0.2862396,0.9490967,-26.22247,8.93811,-27.98325,2.886948,0.3422794,0.3156067999999999,0.5589281,0.03068542,-0.2831573,0.9585724,32.83113,9.437317,-30.83969,2.998764,0.4917904,0.3104456,-0.4779904,1.208661,-0.3075988,-0.0458154,0.7043496,0.02806532,4.822349,-2.289207,36.17
3,-0.01371765,-0.2732239,0.9618378,0.5493901999999999,-0.1242676,-0.2796631,0.9520111,-26.1817,8.944533999999999,-27.97293,2.902695,0.3399432,0.3142927,0.5537071,0.04949951,-0.2680359,0.9621277,32.887240000000006,9.435196,-30.83786,3.049667,0.4875011999999999,0.3083595999999999,-0.4768217999999999,1.20891,-0.3085063,-0.04827908,0.7069814999999999,0.02723946,4.822349,-2.289207,36.17
3,-0.01371765,-0.2732239,0.9618378,0.5493901999999999,-0.1242676,-0.2796631,0.9520111,-26.1817,8.944533999999999,-27.97293,2.902695,0.3399432,0.3142927,0.5537071,0.04949951,-0.2680359,0.9621277,32.887240000000006,9.435196,-30.83786,3.049667,0.4875011999999999,0.3083595999999999,-0.4768217999999999,1.20891,-0.3085063,-0.04827908,0.7069814999999999,0.02723946,4.822349,-2.289207,36.17
3,-0.01371765,-0.2732239,0.9618378,0.5493901999999999,-0.1242676,-0.2796631,0.9520111,-26.1817,8.944533999999999,-27.97293,2.902695,0.3399432,0.3142927,0.5537071,0.04949951,-0.2680359,0.9621277,32.887240000000006,9.435196,-30.83786,3.049667,0.4875011999999999,0.3083595999999999,-0.4768217999999999,1.20891,-0.3085063,-0.04827908,0.7069814999999999,0.02723946,4.822349,-2.289207,36.17
3,-0.01371765,-0.2732239,0.9618378,0.5493901999999999,-0.1242676,-0.2796631,0.9520111,-26.1817,8.944533999999999,-27.97293,2.902695,0.3399432,0.3142927,0.5537071,0.04949951,-0.2680359,0.9621277,32.887240000000006,9.435196,-30.83786,3.049667,0.4875011999999999,0.3083595999999999,-0.4753654,1.2097639999999998,-0.3091708,-0.05294808,0.7089171,0.02714916,4.822349,-2.289207,36.17
3,-0.01371765,-0.2732239,0.9618378,0.5493901999999999,-0.1242676,-0.2796631,0.9520111,-26.1817,8.944533999999999,-27.97293,2.902695,0.3399432,0.3142927,0.5537071,0.04949951,-0.2680359,0.9621277,32.887240000000006,9.435196,-30.83786,3.049667,0.4875011999999999,0.3083595999999999,-0.4753654,1.2097639999999998,-0.3091708,-0.05294808,0.7089171,0.02714916,4.822349,-2.289207,36.17
3,-0.01371765,-0.2732239,0.9618378,0.5493901999999999,-0.1242676,-0.2796631,0.9520111,-26.1817,8.944533999999999,-27.97293,2.902695,0.3399432,0.3142927,0.5537071,0.04949951,-0.2680359,0.9621277,32.887240000000006,9.435196,-30.83786,3.049667,0.4875011999999999,0.3083595999999999,-0.4753654,1.2097639999999998,-0.3091708,-0.05294808,0.7089171,0.02714916,4.822349,-2.289207,36.17
3,0.02702332,-0.3081665,0.950943,0.5200272,-0.072052,-0.3344116,0.9396667,-25.9948,8.966949000000001,-27.966140000000003,2.740128,0.326833,0.3203940999999999,0.524193,0.09970093,-0.2867737,0.9527893,33.09952,9.496216,-30.81166,3.144485,0.4738978,0.3082325999999999,-0.4738202999999999,1.211197,-0.3098978,-0.0602761,0.7100738,0.02714343,4.822349,-2.289207,36.17
3,0.02702332,-0.3081665,0.950943,0.5200272,-0.072052,-0.3344116,0.9396667,-25.9948,8.966949000000001,-27.966140000000003,2.740128,0.326833,0.3203940999999999,0.524193,0.09970093,-0.2867737,0.9527893,33.09952,9.496216,-30.81166,3.144485,0.4738978,0.3082325999999999,-0.4738202999999999,1.211197,-0.3098978,-0.0602761,0.7100738,0.02714343,4.822349,-2.289207,36.17
3,0.02702332,-0.3081665,0.950943,0.5200272,-0.072052,-0.3344116,0.9396667,-25.9948,8.966949000000001,-27.966140000000003,2.740128,0.326833,0.3203940999999999,0.524193,0.09970093,-0.2867737,0.9527893,33.09952,9.496216,-30.81166,3.144485,0.4738978,0.3082325999999999,-0.4738202999999999,1.211197,-0.3098978,-0.0602761,0.7100738,0.02714343,4.822349,-2.289207,36.17
4,0.0406189,-0.311142,0.9494781,0.5122938,-0.05836487,-0.325592,0.9436951,-25.98135,8.944030999999999,-27.96883,2.766586,0.3246290999999999,0.3198957,0.5251513000000001,0.1155243,-0.2980804,0.9475098,33.15062,9.455292,-30.82773,3.173813,0.4701337,0.311284,-0.4722604999999999,1.2128139999999998,-0.3106259,-0.06871995,0.7106776,0.02811197,4.822349,-2.289207,36.17
4,0.0406189,-0.311142,0.9494781,0.5122938,-0.05836487,-0.325592,0.9436951,-25.98135,8.944030999999999,-27.96883,2.766586,0.3246290999999999,0.3198957,0.5251513000000001,0.1155243,-0.2980804,0.9475098,33.15062,9.455292,-30.82773,3.173813,0.4701337,0.311284,-0.4722604999999999,1.2128139999999998,-0.3106259,-0.06871995,0.7106776,0.02811197,4.822349,-2.289207,36.17
4,0.0406189,-0.311142,0.9494781,0.5122938,-0.05836487,-0.325592,0.9436951,-25.98135,8.944030999999999,-27.96883,2.766586,0.3246290999999999,0.3198957,0.5251513000000001,0.1155243,-0.2980804,0.9475098,33.15062,9.455292,-30.82773,3.173813,0.4701337,0.311284,-0.4722604999999999,1.2128139999999998,-0.3106259,-0.06871995,0.7106776,0.02811197,4.822349,-2.289207,36.17
4,0.05134583,-0.3294373,0.9427643,0.5006311999999999,-0.05189514,-0.3583679,0.9321289,-25.91856,8.818207000000001,-28.00108,2.567688,0.3216494,0.3292091,0.5480522,0.1224365,-0.3071747,0.9437256,33.18544,9.300476,-30.87271,3.106171,0.4680827999999999,0.3184024,-0.4708912999999999,1.213866,-0.3113467,-0.07524115,0.7097737,0.029231,4.822349,-11.72991,36.17
4,0.05134583,-0.3294373,0.9427643,0.5006311999999999,-0.05189514,-0.3583679,0.9321289,-25.91856,8.818207000000001,-28.00108,2.567688,0.3216494,0.3292091,0.5480522,0.1224365,-0.3071747,0.9437256,33.18544,9.300476,-30.87271,3.106171,0.4680827999999999,0.3184024,-0.4708912999999999,1.213866,-0.3113467,-0.07524115,0.7097737,0.029231,4.822349,-11.72991,36.17
4,0.05134583,-0.3294373,0.9427643,0.5006311999999999,-0.05189514,-0.3583679,0.9321289,-25.91856,8.818207000000001,-28.00108,2.567688,0.3216494,0.3292091,0.5480522,0.1224365,-0.3071747,0.9437256,33.18544,9.300476,-30.87271,3.106171,0.4680827999999999,0.3184024,-0.4708912999999999,1.213866,-0.3113467,-0.07524115,0.7097737,0.029231,4.822349,-11.72991,36.17
4,0.04403687,-0.3217620999999999,0.9457855,0.4808617999999999,-0.06524658,-0.3319397,0.9410248,-25.89229,8.732346000000001,-28.011640000000003,2.689667,0.3224542999999999,0.3286089,0.5438107,0.1147461,-0.3130645999999999,0.9427643,33.188190000000006,9.183319,-30.90672,3.090027,0.4689188,0.3236288,-0.4698625,1.214451,-0.3118453,-0.08064485,0.7075569,0.02826115,4.822349,-11.72991,36.17
4,0.04403687,-0.3217620999999999,0.9457855,0.4808617999999999,-0.06524658,-0.3319397,0.9410248,-25.89229,8.732346000000001,-28.011640000000003,2.689667,0.3224542999999999,0.3286089,0.5438107,0.1147461,-0.3130645999999999,0.9427643,33.188190000000006,9.183319,-30.90672,3.090027,0.4689188,0.3236288,-0.4698625,1.214451,-0.3118453,-0.08064485,0.7075569,0.02826115,4.822349,-11.72991,36.17
4,0.04403687,-0.3217620999999999,0.9457855,0.4808617999999999,-0.06524658,-0.3319397,0.9410248,-25.89229,8.732346000000001,-28.011640000000003,2.689667,0.3224542999999999,0.3286089,0.5438107,0.1147461,-0.3130645999999999,0.9427643,33.188190000000006,9.183319,-30.90672,3.090027,0.4689188,0.3236288,-0.4698625,1.214451,-0.3118453,-0.08064485,0.7075569,0.02826115,4.822349,-11.72991,36.17
4,0.04257202,-0.3367004,0.9406433,0.4768537,-0.05273438,-0.3574982,0.9324188,-25.88855,8.675018,-28.03828,2.617538,0.3207554,0.334356,0.5383201999999999,0.1087036,-0.3203125,0.94104,33.18117,9.117905,-30.92468,3.036041,0.4699264,0.3271134,-0.4693715999999999,1.214512,-0.3120736,-0.08447978,0.7045363,0.02670224,4.822349,-11.72991,36.17
4,0.04257202,-0.3367004,0.9406433,0.4768537,-0.05273438,-0.3574982,0.9324188,-25.88855,8.675018,-28.03828,2.617538,0.3207554,0.334356,0.5383201999999999,0.1087036,-0.3203125,0.94104,33.18117,9.117905,-30.92468,3.036041,0.4699264,0.3271134,-0.4693715999999999,1.214512,-0.3120736,-0.08447978,0.7045363,0.02670224,4.822349,-11.72991,36.17
4,0.04257202,-0.3367004,0.9406433,0.4768537,-0.05273438,-0.3574982,0.9324188,-25.88855,8.675018,-28.03828,2.617538,0.3207554,0.334356,0.5383201999999999,0.1087036,-0.3203125,0.94104,33.18117,9.117905,-30.92468,3.036041,0.4699264,0.3271134,-0.4693715999999999,1.214512,-0.3120736,-0.08447978,0.7045363,0.02670224,4.822349,-11.72991,36.17
4,0.03118896,-0.3578186,0.9332581,0.4732269,-0.05929565,-0.3717194,0.9264374,-25.8903,8.653732000000002,-28.04623,2.622177,0.3216708,0.3371659999999999,0.5492315,0.09690857,-0.3457947,0.9332733,33.11092,9.069351,-30.96021,3.016693,0.4737798,0.3325994,-0.4690354,1.215036,-0.3120308,-0.08897258,0.7006058000000001,0.02779671,4.822349,-11.72991,36.17
4,0.03118896,-0.3578186,0.9332581,0.4732269,-0.05929565,-0.3717194,0.9264374,-25.8903,8.653732000000002,-28.04623,2.622177,0.3216708,0.3371659999999999,0.5492315,0.09690857,-0.3457947,0.9332733,33.11092,9.069351,-30.96021,3.016693,0.4737798,0.3325994,-0.4690354,1.215036,-0.3120308,-0.08897258,0.7006058000000001,0.02779671,4.822349,-11.72991,36.17
4,0.03118896,-0.3578186,0.9332581,0.4732269,-0.05929565,-0.3717194,0.9264374,-25.8903,8.653732000000002,-28.04623,2.622177,0.3216708,0.3371659999999999,0.5492315,0.09690857,-0.3457947,0.9332733,33.11092,9.069351,-30.96021,3.016693,0.4737798,0.3325994,-0.4690354,1.215036,-0.3120308,-0.08897258,0.7006058000000001,0.02779671,4.822349,-11.72991,36.17
4,0.02709961,-0.3723145,0.9277039,0.4614617,-0.09327698,-0.4170074,0.9040833,-25.9705,8.662521,-28.07405,2.447067,0.3287888,0.3438861,0.5318083,0.09399414,-0.3446655,0.9339905,33.06277,9.07251,-30.95303,2.915115,0.4758882,0.3323977,-0.4688807,1.216413,-0.3119712999999999,-0.09594116,0.6962946999999999,0.03050455,4.822349,-11.72991,36.17
4,0.02709961,-0.3723145,0.9277039,0.4614617,-0.09327698,-0.4170074,0.9040833,-25.9705,8.662521,-28.07405,2.447067,0.3287888,0.3438861,0.5318083,0.09399414,-0.3446655,0.9339905,33.06277,9.07251,-30.95303,2.915115,0.4758882,0.3323977,-0.4688807,1.216413,-0.3119712999999999,-0.09594116,0.6962946999999999,0.03050455,4.822349,-11.72991,36.17
4,0.02709961,-0.3723145,0.9277039,0.4614617,-0.09327698,-0.4170074,0.9040833,-25.9705,8.662521,-28.07405,2.447067,0.3287888,0.3438861,0.5318083,0.09399414,-0.3446655,0.9339905,33.06277,9.07251,-30.95303,2.915115,0.4758882,0.3323977,-0.4688807,1.216413,-0.3119712999999999,-0.09594116,0.6962946999999999,0.03050455,4.822349,-11.72991,36.17
4,0.03799438,-0.3300475999999999,0.9431915,0.4394229,-0.1699677,-0.1559906,0.9730225,-25.78172,7.722351,-28.41338,2.459625,0.3318056,0.3446075999999999,0.5181331,0.08062744,-0.3629761,0.928299,33.01563,9.026459,-30.96883,2.921875,0.4791311,0.3366679999999999,-0.4691485999999999,1.217396,-0.3113774,-0.1014761,0.6918510999999999,0.03200888,4.822349,12.20003,36.17
4,0.03799438,-0.3300475999999999,0.9431915,0.4394229,-0.1699677,-0.1559906,0.9730225,-25.78172,7.722351,-28.41338,2.459625,0.3318056,0.3446075999999999,0.5181331,0.08062744,-0.3629761,0.928299,33.01563,9.026459,-30.96883,2.921875,0.4791311,0.3366679999999999,-0.4691485999999999,1.217396,-0.3113774,-0.1014761,0.6918510999999999,0.03200888,4.822349,12.20003,36.17
4,0.03799438,-0.3300475999999999,0.9431915,0.4394229,-0.1699677,-0.1559906,0.9730225,-25.78172,7.722351,-28.41338,2.459625,0.3318056,0.3446075999999999,0.5181331,0.08062744,-0.3629761,0.928299,33.01563,9.026459,-30.96883,2.921875,0.4791311,0.3366679999999999,-0.4691485999999999,1.217396,-0.3113774,-0.1014761,0.6918510999999999,0.03200888,4.822349,12.20003,36.17
4,0.03616333,-0.3781127999999999,0.9250488,0.4409132,-0.100769,-0.4312744,0.8965607,-26.08794,8.654221000000001,-28.09668,2.421204,0.3338375999999999,0.3465677,0.528532,0.06538391,-0.3656158,0.9284515,32.94269,8.99353,-30.98883,3.0048220000000003,0.4834446,0.3383168,-0.4698174,1.218394,-0.3108243,-0.1052566,0.6876137,0.03366843,4.822349,12.20003,36.17
4,0.03616333,-0.3781127999999999,0.9250488,0.4409132,-0.100769,-0.4312744,0.8965607,-26.08794,8.654221000000001,-28.09668,2.421204,0.3338375999999999,0.3465677,0.528532,0.06538391,-0.3656158,0.9284515,32.94269,8.99353,-30.98883,3.0048220000000003,0.4834446,0.3383168,-0.4698174,1.218394,-0.3108243,-0.1052566,0.6876137,0.03366843,4.822349,12.20003,36.17
4,0.03616333,-0.3781127999999999,0.9250488,0.4409132,-0.100769,-0.4312744,0.8965607,-26.08794,8.654221000000001,-28.09668,2.421204,0.3338375999999999,0.3465677,0.528532,0.06538391,-0.3656158,0.9284515,32.94269,8.99353,-30.98883,3.0048220000000003,0.4834446,0.3383168,-0.4698174,1.218394,-0.3108243,-0.1052566,0.6876137,0.03366843,4.822349,12.20003,36.17
4,0.01997375,-0.3515625,0.9359436,0.4232422,-0.1287537,-0.3990172999999999,0.9078369,-26.11749,8.686172000000001,-28.077820000000003,2.484848,0.338426,0.3409167999999999,0.4967755,0.06401062,-0.3357849,0.939743,32.8306,9.043869,-30.95656,2.861618,0.4876550999999999,0.3323987,-0.4709997,1.218992,-0.3102498,-0.1071565,0.6844577,0.03484106,4.822349,12.20003,36.17
4,0.01997375,-0.3515625,0.9359436,0.4232422,-0.1287537,-0.3990172999999999,0.9078369,-26.11749,8.686172000000001,-28.077820000000003,2.484848,0.338426,0.3409167999999999,0.4967755,0.06401062,-0.3357849,0.939743,32.8306,9.043869,-30.95656,2.861618,0.4876550999999999,0.3323987,-0.4709997,1.218992,-0.3102498,-0.1071565,0.6844577,0.03484106,4.822349,12.20003,36.17
4,0.01997375,-0.3515625,0.9359436,0.4232422,-0.1287537,-0.3990172999999999,0.9078369,-26.11749,8.686172000000001,-28.077820000000003,2.484848,0.338426,0.3409167999999999,0.4967755,0.06401062,-0.3357849,0.939743,32.8306,9.043869,-30.95656,2.861618,0.4876550999999999,0.3323987,-0.4709997,1.218992,-0.3102498,-0.1071565,0.6844577,0.03484106,4.822349,12.20003,36.17
4,-0.02027893,-0.3277435,0.9445343,0.4249454000000001,-0.1473236,-0.3346863,0.9307251,-26.169220000000003,8.802505,-28.02354,2.56781,0.3425284999999999,0.3276573,0.4815457,0.05709839,-0.3208922999999999,0.9453888,32.745940000000004,9.17308,-30.933000000000003,2.9462740000000003,0.491402,0.3256216,-0.4722898,1.219311,-0.3094456,-0.108296,0.6815669,0.0347534,4.822349,12.20003,36.17
4,-0.02027893,-0.3277435,0.9445343,0.4249454000000001,-0.1473236,-0.3346863,0.9307251,-26.169220000000003,8.802505,-28.02354,2.56781,0.3425284999999999,0.3276573,0.4815457,0.05709839,-0.3208922999999999,0.9453888,32.745940000000004,9.17308,-30.933000000000003,2.9462740000000003,0.491402,0.3256216,-0.4722898,1.219311,-0.3094456,-0.108296,0.6815669,0.0347534,4.822349,12.20003,36.17
4,-0.02027893,-0.3277435,0.9445343,0.4249454000000001,-0.1473236,-0.3346863,0.9307251,-26.169220000000003,8.802505,-28.02354,2.56781,0.3425284999999999,0.3276573,0.4815457,0.05709839,-0.3208922999999999,0.9453888,32.745940000000004,9.17308,-30.933000000000003,2.9462740000000003,0.491402,0.3256216,-0.4722898,1.219311,-0.3094456,-0.108296,0.6815669,0.0347534,4.822349,12.20003,36.17
4,-0.02661133,-0.355957,0.9341125,0.4297569,-0.1279297,-0.4199524,0.898468,-26.23897,8.767776,-28.06093,2.26326,0.3425437,0.3412665,0.5087301,0.02648926,-0.3202972,0.9469299,32.73416,9.178894,-30.93294,2.959396,0.4955745,0.325411,-0.4737712,1.218951,-0.308506,-0.1069548,0.6788791999999999,0.03310635,4.822349,12.20003,36.17
4,-0.02661133,-0.355957,0.9341125,0.4297569,-0.1279297,-0.4199524,0.898468,-26.23897,8.767776,-28.06093,2.26326,0.3425437,0.3412665,0.5087301,0.02648926,-0.3202972,0.9469299,32.73416,9.178894,-30.93294,2.959396,0.4955745,0.325411,-0.4737712,1.218951,-0.308506,-0.1069548,0.6788791999999999,0.03310635,4.822349,12.20003,36.17
4,-0.02661133,-0.355957,0.9341125,0.4297569,-0.1279297,-0.4199524,0.898468,-26.23897,8.767776,-28.06093,2.26326,0.3425437,0.3412665,0.5087301,0.02648926,-0.3202972,0.9469299,32.73416,9.178894,-30.93294,2.959396,0.4955745,0.325411,-0.4737712,1.218951,-0.308506,-0.1069548,0.6788791999999999,0.03310635,4.822349,12.20003,36.17
4,-0.01101685,-0.3366699,0.9415436,0.4156037999999999,-0.1329346,-0.3687744,0.9199524,-26.304170000000003,8.753372,-28.05246,2.429657,0.3454286,0.33447,0.5190942,0.04423523,-0.3203125,0.9462738000000002,32.654140000000005,9.126297,-30.95331,3.004791,0.4960883,0.3273592,-0.4752496,1.2178,-0.3073618,-0.1019387,0.6765745,0.02896245,4.822349,12.20003,36.17
4,-0.01101685,-0.3366699,0.9415436,0.4156037999999999,-0.1329346,-0.3687744,0.9199524,-26.304170000000003,8.753372,-28.05246,2.429657,0.3454286,0.33447,0.5190942,0.04423523,-0.3203125,0.9462738000000002,32.654140000000005,9.126297,-30.95331,3.004791,0.4960883,0.3273592,-0.4752496,1.2178,-0.3073618,-0.1019387,0.6765745,0.02896245,4.822349,12.20003,36.17
4,-0.01101685,-0.3366699,0.9415436,0.4156037999999999,-0.1329346,-0.3687744,0.9199524,-26.304170000000003,8.753372,-28.05246,2.429657,0.3454286,0.33447,0.5190942,0.04423523,-0.3203125,0.9462738000000002,32.654140000000005,9.126297,-30.95331,3.004791,0.4960883,0.3273592,-0.4752496,1.2178,-0.3073618,-0.1019387,0.6765745,0.02896245,4.822349,12.20003,36.17
4,-0.02122498,-0.3299103,0.9437561,0.4090333,-0.1380615,-0.3668671,0.9199524,-26.32072,8.753372,-28.04715,2.434601,0.3466616,0.334223,0.5059108,0.03674316,-0.3097075999999999,0.9501038,32.62206,9.127304,-30.96587,2.911026,0.4982132000000001,0.3260916,-0.4766873,1.216429,-0.3063744,-0.09601984,0.6745606,0.02542321,4.822349,11.86848,36.17
4,-0.02122498,-0.3299103,0.9437561,0.4090333,-0.1380615,-0.3668671,0.9199524,-26.32072,8.753372,-28.04715,2.434601,0.3466616,0.334223,0.5059108,0.03674316,-0.3097075999999999,0.9501038,32.62206,9.127304,-30.96587,2.911026,0.4982132000000001,0.3260916,-0.4766873,1.216429,-0.3063744,-0.09601984,0.6745606,0.02542321,4.822349,11.86848,36.17
