Second,eye_comb_direction_x,eye_comb_direction_y,eye_comb_direction_z,eye_r_openness,eye_r_direction_x,eye_r_direction_y,eye_r_direction_z,eye_r_origin_x,eye_r_origin_y,eye_r_origin_z,eye_r_pupil_diameter,eye_r_pupil_position_x,eye_r_pupil_position_y,eye_l_openness,eye_l_direction_x,eye_l_direction_y,eye_l_direction_z,eye_l_origin_x,eye_l_origin_y,eye_l_origin_z,eye_l_pupil_diameter,eye_l_pupil_position_x,eye_l_pupil_position_y,head_position_x,head_position_y,head_position_z,head_rotation_roll,head_rotation_pitch,head_rotation_yaw,EDA,BVP,TMP
0,-1.0,-1.0,-1.0,0.0,0.0,0.0,0.0,0.0,0.0,0.0,-1.0,-1.0,-1.0,0.01631339,0.0,0.0,0.0,0.0,0.0,0.0,-1.0,-1.0,-1.0,-1.47957,4.591425,-0.2592956,-0.05565483,0.7029725,0.05687547,1.615111,0.529197859948849,33.22084910485933
0,-1.0,-1.0,-1.0,0.0,0.0,0.0,0.0,0.0,0.0,0.0,-1.0,-1.0,-1.0,0.01631339,0.0,0.0,0.0,0.0,0.0,0.0,-1.0,-1.0,-1.0,-1.47957,4.591425,-0.2592956,-0.05565483,0.7029725,0.05687547,1.615111,0.529197859948849,33.22084910485933
0,-1.0,-1.0,-1.0,0.0,0.0,0.0,0.0,0.0,0.0,0.0,-1.0,-1.0,-1.0,0.01631339,0.0,0.0,0.0,0.0,0.0,0.0,-1.0,-1.0,-1.0,-1.47957,4.591425,-0.2592956,-0.05565483,0.7029725,0.05687547,1.615111,0.529197859948849,33.22084910485933
0,-1.0,-1.0,-1.0,0.0,0.0,0.0,0.0,0.0,0.0,0.0,-1.0,-1.0,-1.0,0.01631339,0.0,0.0,0.0,0.0,0.0,0.0,-1.0,-1.0,-1.0,-1.47957,4.591425,-0.2592956,-0.05565483,0.7029725,0.05687547,1.615111,0.529197859948849,33.22084910485933
0,-1.0,-1.0,-1.0,0.02577621,0.0,0.0,0.0,0.0,0.0,0.0,-1.0,-1.0,-1.0,0.03898593,0.0,0.0,0.0,0.0,0.0,0.0,-1.0,-1.0,-1.0,-1.479591,4.59143,-0.2596272,-0.05646926,0.703365,0.05593681,1.615111,0.529197859948849,33.22084910485933
0,-1.0,-1.0,-1.0,0.02577621,0.0,0.0,0.0,0.0,0.0,0.0,-1.0,-1.0,-1.0,0.03898593,0.0,0.0,0.0,0.0,0.0,0.0,-1.0,-1.0,-1.0,-1.479591,4.59143,-0.2596272,-0.05646926,0.703365,0.05593681,1.615111,0.529197859948849,33.22084910485933
0,-1.0,-1.0,-1.0,0.02577621,0.0,0.0,0.0,0.0,0.0,0.0,-1.0,-1.0,-1.0,0.03898593,0.0,0.0,0.0,0.0,0.0,0.0,-1.0,-1.0,-1.0,-1.479591,4.59143,-0.2596272,-0.05646926,0.703365,0.05593681,1.615111,0.529197859948849,33.22084910485933
0,-1.0,-1.0,-1.0,0.02562367,0.0,0.0,0.0,0.0,0.0,0.0,-1.0,-1.0,-1.0,0.03501164,0.0,0.0,0.0,0.0,0.0,0.0,-1.0,-1.0,-1.0,-1.479579,4.591324,-0.2598431,-0.05652017,0.7038091,0.05522582,1.615111,0.529197859948849,33.22084910485933
0,-1.0,-1.0,-1.0,0.02562367,0.0,0.0,0.0,0.0,0.0,0.0,-1.0,-1.0,-1.0,0.03501164,0.0,0.0,0.0,0.0,0.0,0.0,-1.0,-1.0,-1.0,-1.479579,4.591324,-0.2598431,-0.05652017,0.7038091,0.05522582,1.615111,0.529197859948849,33.22084910485933
0,-1.0,-1.0,-1.0,0.02562367,0.0,0.0,0.0,0.0,0.0,0.0,-1.0,-1.0,-1.0,0.03501164,0.0,0.0,0.0,0.0,0.0,0.0,-1.0,-1.0,-1.0,-1.479579,4.591324,-0.2598431,-0.05652017,0.7038091,0.05522582,1.615111,0.529197859948849,33.22084910485933
0,-1.0,-1.0,-1.0,0.03258432,0.0,0.0,0.0,0.0,0.0,0.0,-1.0,-1.0,-1.0,0.04100655,0.0,0.0,0.0,0.0,0.0,0.0,-1.0,-1.0,-1.0,-1.479502,4.591163,-0.2599715999999999,-0.05610701,0.7043272,0.05473755,1.615111,0.529197859948849,33.22084910485933
0,-1.0,-1.0,-1.0,0.03258432,0.0,0.0,0.0,0.0,0.0,0.0,-1.0,-1.0,-1.0,0.04100655,0.0,0.0,0.0,0.0,0.0,0.0,-1.0,-1.0,-1.0,-1.479502,4.591163,-0.2599715999999999,-0.05610701,0.7043272,0.05473755,1.615111,0.529197859948849,33.22084910485933
0,-1.0,-1.0,-1.0,0.03258432,0.0,0.0,0.0,0.0,0.0,0.0,-1.0,-1.0,-1.0,0.04100655,0.0,0.0,0.0,0.0,0.0,0.0,-1.0,-1.0,-1.0,-1.479502,4.591163,-0.2599715999999999,-0.05610701,0.7043272,0.05473755,1.615111,0.529197859948849,33.22084910485933
0,-1.0,-1.0,-1.0,0.04778522,0.0,0.0,0.0,0.0,0.0,0.0,-1.0,-1.0,-1.0,0.0480706,0.0,0.0,0.0,0.0,0.0,0.0,-1.0,-1.0,-1.0,-1.479451,4.59083,-0.2601299,-0.05518135,0.7050939,0.05393253,1.615111,0.529197859948849,33.22084910485933
0,-1.0,-1.0,-1.0,0.04778522,0.0,0.0,0.0,0.0,0.0,0.0,-1.0,-1.0,-1.0,0.0480706,0.0,0.0,0.0,0.0,0.0,0.0,-1.0,-1.0,-1.0,-1.479451,4.59083,-0.2601299,-0.05518135,0.7050939,0.05393253,1.615111,0.529197859948849,33.22084910485933
0,-1.0,-1.0,-1.0,0.04778522,0.0,0.0,0.0,0.0,0.0,0.0,-1.0,-1.0,-1.0,0.0480706,0.0,0.0,0.0,0.0,0.0,0.0,-1.0,-1.0,-1.0,-1.479451,4.59083,-0.2601299,-0.05518135,0.7050939,0.05393253,1.615111,0.529197859948849,33.22084910485933
0,-1.0,-1.0,-1.0,0.03606381,0.0,0.0,0.0,0.0,0.0,0.0,-1.0,-1.0,-1.0,0.03764192,0.0,0.0,0.0,0.0,0.0,0.0,-1.0,-1.0,-1.0,-1.479531,4.590725,-0.2603122,-0.05491017,0.7051516,0.05387026,1.615111,0.529197859948849,33.22084910485933
0,-1.0,-1.0,-1.0,0.03606381,0.0,0.0,0.0,0.0,0.0,0.0,-1.0,-1.0,-1.0,0.03764192,0.0,0.0,0.0,0.0,0.0,0.0,-1.0,-1.0,-1.0,-1.479531,4.590725,-0.2603122,-0.05491017,0.7051516,0.05387026,1.615111,0.529197859948849,33.22084910485933
0,-1.0,-1.0,-1.0,0.03606381,0.0,0.0,0.0,0.0,0.0,0.0,-1.0,-1.0,-1.0,0.03764192,0.0,0.0,0.0,0.0,0.0,0.0,-1.0,-1.0,-1.0,-1.479531,4.590725,-0.2603122,-0.05491017,0.7051516,0.05387026,1.615111,0.529197859948849,33.22084910485933
0,-1.0,-1.0,-1.0,0.03359523,0.0,0.0,0.0,0.0,0.0,0.0,-1.0,-1.0,-1.0,0.0415172,0.0,0.0,0.0,0.0,0.0,0.0,-1.0,-1.0,-1.0,-1.479373,4.590731,-0.2603586,-0.05483203,0.7049065999999999,0.05405961,1.615111,0.529197859948849,33.22084910485933
0,-1.0,-1.0,-1.0,0.03359523,0.0,0.0,0.0,0.0,0.0,0.0,-1.0,-1.0,-1.0,0.0415172,0.0,0.0,0.0,0.0,0.0,0.0,-1.0,-1.0,-1.0,-1.479373,4.590731,-0.2603586,-0.05483203,0.7049065999999999,0.05405961,1.615111,0.529197859948849,33.22084910485933
0,-1.0,-1.0,-1.0,0.03359523,0.0,0.0,0.0,0.0,0.0,0.0,-1.0,-1.0,-1.0,0.0415172,0.0,0.0,0.0,0.0,0.0,0.0,-1.0,-1.0,-1.0,-1.479373,4.590731,-0.2603586,-0.05483203,0.7049065999999999,0.05405961,1.615111,0.529197859948849,33.22084910485933
0,-1.0,-1.0,-1.0,0.03928799,0.0,0.0,0.0,0.0,0.0,0.0,-1.0,-1.0,-1.0,0.04503404,0.0,0.0,0.0,0.0,0.0,0.0,-1.0,-1.0,-1.0,-1.479337,4.590707,-0.2603354,-0.05484708,0.7045585999999999,0.05406723,1.615111,0.529197859948849,33.22084910485933
0,-1.0,-1.0,-1.0,0.03928799,0.0,0.0,0.0,0.0,0.0,0.0,-1.0,-1.0,-1.0,0.04503404,0.0,0.0,0.0,0.0,0.0,0.0,-1.0,-1.0,-1.0,-1.479337,4.590707,-0.2603354,-0.05484708,0.7045585999999999,0.05406723,1.615111,0.529197859948849,33.22084910485933
0,-1.0,-1.0,-1.0,0.03928799,0.0,0.0,0.0,0.0,0.0,0.0,-1.0,-1.0,-1.0,0.04503404,0.0,0.0,0.0,0.0,0.0,0.0,-1.0,-1.0,-1.0,-1.479337,4.590707,-0.2603354,-0.05484708,0.7045585999999999,0.05406723,1.615111,0.529197859948849,33.22084910485933
0,-1.0,-1.0,-1.0,0.03429595,0.0,0.0,0.0,0.0,0.0,0.0,-1.0,-1.0,-1.0,0.04020112,0.0,0.0,0.0,0.0,0.0,0.0,-1.0,-1.0,-1.0,-1.479252,4.590663,-0.2601227,-0.05473758,0.7042408,0.05382709,1.615111,-6.770737,33.22084910485933
0,-1.0,-1.0,-1.0,0.03429595,0.0,0.0,0.0,0.0,0.0,0.0,-1.0,-1.0,-1.0,0.04020112,0.0,0.0,0.0,0.0,0.0,0.0,-1.0,-1.0,-1.0,-1.479252,4.590663,-0.2601227,-0.05473758,0.7042408,0.05382709,1.615111,-6.770737,33.22084910485933
0,-1.0,-1.0,-1.0,0.03429595,0.0,0.0,0.0,0.0,0.0,0.0,-1.0,-1.0,-1.0,0.04020112,0.0,0.0,0.0,0.0,0.0,0.0,-1.0,-1.0,-1.0,-1.479252,4.590663,-0.2601227,-0.05473758,0.7042408,0.05382709,1.615111,-6.770737,33.22084910485933
0,-1.0,-1.0,-1.0,0.04611141,0.0,0.0,0.0,0.0,0.0,0.0,-1.0,-1.0,-1.0,0.05258003,0.0,0.0,0.0,0.0,0.0,0.0,-1.0,-1.0,-1.0,-1.479266,4.590535,-0.2600751,-0.05461391,0.7040468000000001,0.05384225,1.615111,-6.770737,33.22084910485933
0,-1.0,-1.0,-1.0,0.04611141,0.0,0.0,0.0,0.0,0.0,0.0,-1.0,-1.0,-1.0,0.05258003,0.0,0.0,0.0,0.0,0.0,0.0,-1.0,-1.0,-1.0,-1.479266,4.590535,-0.2600751,-0.05461391,0.7040468000000001,0.05384225,1.615111,-6.770737,33.22084910485933
0,-1.0,-1.0,-1.0,0.04611141,0.0,0.0,0.0,0.0,0.0,0.0,-1.0,-1.0,-1.0,0.05258003,0.0,0.0,0.0,0.0,0.0,0.0,-1.0,-1.0,-1.0,-1.479266,4.590535,-0.2600751,-0.05461391,0.7040468000000001,0.05384225,1.615111,-6.770737,33.22084910485933
0,-1.0,-1.0,-1.0,0.05025668,0.0,0.0,0.0,0.0,0.0,0.0,-1.0,-1.0,-1.0,0.04484502,0.0,0.0,0.0,0.0,0.0,0.0,-1.0,-1.0,-1.0,-1.479214,4.590562,-0.2599309999999999,-0.05456437,0.7040445,0.05436348,1.615111,-6.770737,33.22084910485933
0,-1.0,-1.0,-1.0,0.05025668,0.0,0.0,0.0,0.0,0.0,0.0,-1.0,-1.0,-1.0,0.04484502,0.0,0.0,0.0,0.0,0.0,0.0,-1.0,-1.0,-1.0,-1.479214,4.590562,-0.2599309999999999,-0.05456437,0.7040445,0.05436348,1.615111,-6.770737,33.22084910485933
0,-1.0,-1.0,-1.0,0.05025668,0.0,0.0,0.0,0.0,0.0,0.0,-1.0,-1.0,-1.0,0.04484502,0.0,0.0,0.0,0.0,0.0,0.0,-1.0,-1.0,-1.0,-1.479214,4.590562,-0.2599309999999999,-0.05456437,0.7040445,0.05436348,1.615111,-6.770737,33.22084910485933
0,-1.0,-1.0,-1.0,0.05295724,0.0,0.0,0.0,0.0,0.0,0.0,-1.0,-1.0,-1.0,0.05030276,0.0,0.0,0.0,0.0,0.0,0.0,-1.0,-1.0,-1.0,-1.479147,4.590622,-0.2598928,-0.05476391,0.7041630999999999,0.05502985,1.615111,-6.770737,33.22084910485933
0,-1.0,-1.0,-1.0,0.05295724,0.0,0.0,0.0,0.0,0.0,0.0,-1.0,-1.0,-1.0,0.05030276,0.0,0.0,0.0,0.0,0.0,0.0,-1.0,-1.0,-1.0,-1.479147,4.590622,-0.2598928,-0.05476391,0.7041630999999999,0.05502985,1.615111,-6.770737,33.22084910485933
0,-1.0,-1.0,-1.0,0.05295724,0.0,0.0,0.0,0.0,0.0,0.0,-1.0,-1.0,-1.0,0.05030276,0.0,0.0,0.0,0.0,0.0,0.0,-1.0,-1.0,-1.0,-1.479147,4.590622,-0.2598928,-0.05476391,0.7041630999999999,0.05502985,1.615111,-6.770737,33.22084910485933
0,-1.0,-1.0,-1.0,0.03987635,0.0,0.0,0.0,0.0,0.0,0.0,-1.0,-1.0,-1.0,0.06006719,0.0,0.0,0.0,0.0,0.0,0.0,-1.0,-1.0,-1.0,-1.47902,4.590763,-0.2599348,-0.05494093,0.7042361,0.0554770999999999,1.615111,-6.770737,33.22084910485933
0,-1.0,-1.0,-1.0,0.03987635,0.0,0.0,0.0,0.0,0.0,0.0,-1.0,-1.0,-1.0,0.06006719,0.0,0.0,0.0,0.0,0.0,0.0,-1.0,-1.0,-1.0,-1.47902,4.590763,-0.2599348,-0.05494093,0.7042361,0.0554770999999999,1.615111,-6.770737,33.22084910485933
0,-1.0,-1.0,-1.0,0.03987635,0.0,0.0,0.0,0.0,0.0,0.0,-1.0,-1.0,-1.0,0.06006719,0.0,0.0,0.0,0.0,0.0,0.0,-1.0,-1.0,-1.0,-1.47902,4.590763,-0.2599348,-0.05494093,0.7042361,0.0554770999999999,1.615111,-6.770737,33.22084910485933
0,-1.0,-1.0,-1.0,0.0,0.0,0.0,0.0,0.0,0.0,0.0,-1.0,-1.0,-1.0,0.1164816,0.0,0.0,0.0,0.0,0.0,0.0,-1.0,-1.0,-1.0,-1.4787709999999998,4.590943,-0.2597474,-0.05545379,0.7042073,0.0564369,1.615111,6.045797,33.22084910485933
0,-1.0,-1.0,-1.0,0.0,0.0,0.0,0.0,0.0,0.0,0.0,-1.0,-1.0,-1.0,0.1164816,0.0,0.0,0.0,0.0,0.0,0.0,-1.0,-1.0,-1.0,-1.4787709999999998,4.590943,-0.2597474,-0.05545379,0.7042073,0.0564369,1.615111,6.045797,33.22084910485933
0,-1.0,-1.0,-1.0,0.0,0.0,0.0,0.0,0.0,0.0,0.0,-1.0,-1.0,-1.0,0.1164816,0.0,0.0,0.0,0.0,0.0,0.0,-1.0,-1.0,-1.0,-1.4787709999999998,4.590943,-0.2597474,-0.05545379,0.7042073,0.0564369,1.615111,6.045797,33.22084910485933
0,-1.0,-1.0,-1.0,0.07113239,0.0,0.0,0.0,0.0,0.0,0.0,-1.0,-1.0,-1.0,0.08631735,0.0,0.0,0.0,0.0,0.0,0.0,-1.0,-1.0,-1.0,-1.478597,4.590981,-0.2597238,-0.0548923,0.7040753000000001,0.05690022,1.615111,6.045797,33.22084910485933
0,-1.0,-1.0,-1.0,0.07113239,0.0,0.0,0.0,0.0,0.0,0.0,-1.0,-1.0,-1.0,0.08631735,0.0,0.0,0.0,0.0,0.0,0.0,-1.0,-1.0,-1.0,-1.478597,4.590981,-0.2597238,-0.0548923,0.7040753000000001,0.05690022,1.615111,6.045797,33.22084910485933
0,-1.0,-1.0,-1.0,0.07113239,0.0,0.0,0.0,0.0,0.0,0.0,-1.0,-1.0,-1.0,0.08631735,0.0,0.0,0.0,0.0,0.0,0.0,-1.0,-1.0,-1.0,-1.478597,4.590981,-0.2597238,-0.0548923,0.7040753000000001,0.05690022,1.615111,6.045797,33.22084910485933
0,-0.1864014,-0.1646729,0.9685669,0.4223289,-0.1864014,-0.1646729,0.9685669,-32.04144,-3.679596,-27.97983,2.733093,0.5467518,0.7350313,0.6778313,-0.1016693,-0.1304932,0.9862213,31.85136,-3.335144,-26.87413,3.2873690000000004,0.538454,0.6917508000000001,-1.478376,4.591004,-0.2595125,-0.05424041,0.7036783000000001,0.05711355,1.615111,6.045797,33.63
0,-0.1864014,-0.1646729,0.9685669,0.4223289,-0.1864014,-0.1646729,0.9685669,-32.04144,-3.679596,-27.97983,2.733093,0.5467518,0.7350313,0.6778313,-0.1016693,-0.1304932,0.9862213,31.85136,-3.335144,-26.87413,3.2873690000000004,0.538454,0.6917508000000001,-1.478376,4.591004,-0.2595125,-0.05424041,0.7036783000000001,0.05711355,1.615111,6.045797,33.63
0,-0.1864014,-0.1646729,0.9685669,0.4223289,-0.1864014,-0.1646729,0.9685669,-32.04144,-3.679596,-27.97983,2.733093,0.5467518,0.7350313,0.6778313,-0.1016693,-0.1304932,0.9862213,31.85136,-3.335144,-26.87413,3.2873690000000004,0.538454,0.6917508000000001,-1.478376,4.591004,-0.2595125,-0.05424041,0.7036783000000001,0.05711355,1.615111,6.045797,33.63
0,-0.1809387,-0.1077881,0.9775543,0.6288038,-0.1809387,-0.1077881,0.9775543,-32.07124,-3.588623,-28.1561,3.042999,0.5473158,0.726649,0.8178163,-0.1085663,-0.1336212,0.9850616,31.8255,-3.363022,-26.88577,3.2839970000000003,0.5401509,0.693272,-1.478237,4.590893,-0.2593357999999999,-0.05355437,0.7032014,0.05697441,1.615111,6.045797,33.63
0,-0.1809387,-0.1077881,0.9775543,0.6288038,-0.1809387,-0.1077881,0.9775543,-32.07124,-3.588623,-28.1561,3.042999,0.5473158,0.726649,0.8178163,-0.1085663,-0.1336212,0.9850616,31.8255,-3.363022,-26.88577,3.2839970000000003,0.5401509,0.693272,-1.478237,4.590893,-0.2593357999999999,-0.05355437,0.7032014,0.05697441,1.615111,6.045797,33.63
0,-0.1809387,-0.1077881,0.9775543,0.6288038,-0.1809387,-0.1077881,0.9775543,-32.07124,-3.588623,-28.1561,3.042999,0.5473158,0.726649,0.8178163,-0.1085663,-0.1336212,0.9850616,31.8255,-3.363022,-26.88577,3.2839970000000003,0.5401509,0.693272,-1.478237,4.590893,-0.2593357999999999,-0.05355437,0.7032014,0.05697441,1.615111,6.045797,33.63
1,-0.1767731,-0.08683777,0.9804077,0.860397,-0.1768188,-0.08686829,0.9803925,-32.07669,-3.614304,-28.11928,3.056381,0.5469694,0.724488,0.9209977,-0.1227569999999999,-0.06796265,0.990097,31.80823,-3.393524,-26.934420000000003,3.432297,0.5422518,0.6868964,-1.478237,4.590893,-0.2593357999999999,-0.05355437,0.7032014,0.05697441,1.615111,6.045797,33.63
1,-0.1767731,-0.08683777,0.9804077,0.860397,-0.1768188,-0.08686829,0.9803925,-32.07669,-3.614304,-28.11928,3.056381,0.5469694,0.724488,0.9209977,-0.1227569999999999,-0.06796265,0.990097,31.80823,-3.393524,-26.934420000000003,3.432297,0.5422518,0.6868964,-1.478237,4.590893,-0.2593357999999999,-0.05355437,0.7032014,0.05697441,1.615111,6.045797,33.63
1,-0.1767731,-0.08683777,0.9804077,0.860397,-0.1768188,-0.08686829,0.9803925,-32.07669,-3.614304,-28.11928,3.056381,0.5469694,0.724488,0.9209977,-0.1227569999999999,-0.06796265,0.990097,31.80823,-3.393524,-26.934420000000003,3.432297,0.5422518,0.6868964,-1.478237,4.590893,-0.2593357999999999,-0.05355437,0.7032014,0.05697441,1.615111,6.045797,33.63
1,-0.1336212,-0.09687805,0.9862823,0.9270494,-0.1757965,-0.0920105,0.9801025,-32.08876,-3.715897,-27.97943,3.091599,0.5471688,0.7272083,0.9608052,-0.1289063,-0.09741211,0.9868469,31.795820000000003,-3.444199,-26.944440000000004,3.336365,0.5435141,0.6923139,-1.478114,4.590678,-0.2591312,-0.05281742,0.7027835,0.05672367,1.615111,6.045797,33.63
1,-0.1336212,-0.09687805,0.9862823,0.9270494,-0.1757965,-0.0920105,0.9801025,-32.08876,-3.715897,-27.97943,3.091599,0.5471688,0.7272083,0.9608052,-0.1289063,-0.09741211,0.9868469,31.795820000000003,-3.444199,-26.944440000000004,3.336365,0.5435141,0.6923139,-1.478114,4.590678,-0.2591312,-0.05281742,0.7027835,0.05672367,1.615111,6.045797,33.63
1,-0.1336212,-0.09687805,0.9862823,0.9270494,-0.1757965,-0.0920105,0.9801025,-32.08876,-3.715897,-27.97943,3.091599,0.5471688,0.7272083,0.9608052,-0.1289063,-0.09741211,0.9868469,31.795820000000003,-3.444199,-26.944440000000004,3.336365,0.5435141,0.6923139,-1.478114,4.590678,-0.2591312,-0.05281742,0.7027835,0.05672367,1.615111,6.045797,33.63
1,-0.1300658999999999,-0.08218384,0.9880829,0.9826524,-0.1744079999999999,-0.09510803,0.9800568,-32.09265,-3.74823,-27.91638,3.066467,0.5470772,0.7280241,0.9818603,-0.1268158,-0.08123779,0.9885864,31.79778,-3.4507449999999995,-26.95522,3.374542,0.5431566999999999,0.6906671999999999,-1.477986,4.590157,-0.2589972,-0.05116603,0.7026560000000001,0.05558068,1.615111,5.733616,33.63
1,-0.1300658999999999,-0.08218384,0.9880829,0.9826524,-0.1744079999999999,-0.09510803,0.9800568,-32.09265,-3.74823,-27.91638,3.066467,0.5470772,0.7280241,0.9818603,-0.1268158,-0.08123779,0.9885864,31.79778,-3.4507449999999995,-26.95522,3.374542,0.5431566999999999,0.6906671999999999,-1.477986,4.590157,-0.2589972,-0.05116603,0.7026560000000001,0.05558068,1.615111,5.733616,33.63
1,-0.1300658999999999,-0.08218384,0.9880829,0.9826524,-0.1744079999999999,-0.09510803,0.9800568,-32.09265,-3.74823,-27.91638,3.066467,0.5470772,0.7280241,0.9818603,-0.1268158,-0.08123779,0.9885864,31.79778,-3.4507449999999995,-26.95522,3.374542,0.5431566999999999,0.6906671999999999,-1.477986,4.590157,-0.2589972,-0.05116603,0.7026560000000001,0.05558068,1.615111,5.733616,33.63
1,-0.1454315,-0.08297729,0.9858704,1.0,-0.1776581,-0.08366394,0.9805145,-32.11768,-3.742538,-27.91325,3.076019,0.548338,0.7263647,1.0,-0.1288452,-0.08258057,0.988205,31.792140000000003,-3.444427,-26.956390000000003,3.3899230000000005,0.5435683000000001,0.6906539,-1.47787,4.589283,-0.258726,-0.04835957,0.7018696999999999,0.05355396,1.615111,5.733616,33.63
1,-0.1454315,-0.08297729,0.9858704,1.0,-0.1776581,-0.08366394,0.9805145,-32.11768,-3.742538,-27.91325,3.076019,0.548338,0.7263647,1.0,-0.1288452,-0.08258057,0.988205,31.792140000000003,-3.444427,-26.956390000000003,3.3899230000000005,0.5435683000000001,0.6906539,-1.47787,4.589283,-0.258726,-0.04835957,0.7018696999999999,0.05355396,1.615111,5.733616,33.63
1,-0.1454315,-0.08297729,0.9858704,1.0,-0.1776581,-0.08366394,0.9805145,-32.11768,-3.742538,-27.91325,3.076019,0.548338,0.7263647,1.0,-0.1288452,-0.08258057,0.988205,31.792140000000003,-3.444427,-26.956390000000003,3.3899230000000005,0.5435683000000001,0.6906539,-1.47787,4.589283,-0.258726,-0.04835957,0.7018696999999999,0.05355396,1.615111,5.733616,33.63
1,-0.1360931,-0.08407593,0.9871063,1.0,-0.1894684,-0.08868408,0.9778595,-32.108509999999995,-3.879608,-27.275340000000003,3.176743,0.5490893,0.7251273,1.0,-0.1331787,-0.08381653,0.9875336,31.79381,-3.4280699999999995,-26.96107,3.4265440000000003,0.5439799,0.6903792,-1.478006,4.588872,-0.2587692,-0.04783225,0.7013104,0.05241808,1.615111,5.733616,33.63
1,-0.1360931,-0.08407593,0.9871063,1.0,-0.1894684,-0.08868408,0.9778595,-32.108509999999995,-3.879608,-27.275340000000003,3.176743,0.5490893,0.7251273,1.0,-0.1331787,-0.08381653,0.9875336,31.79381,-3.4280699999999995,-26.96107,3.4265440000000003,0.5439799,0.6903792,-1.478006,4.588872,-0.2587692,-0.04783225,0.7013104,0.05241808,1.615111,5.733616,33.63
1,-0.1360931,-0.08407593,0.9871063,1.0,-0.1894684,-0.08868408,0.9778595,-32.108509999999995,-3.879608,-27.275340000000003,3.176743,0.5490893,0.7251273,1.0,-0.1331787,-0.08381653,0.9875336,31.79381,-3.4280699999999995,-26.96107,3.4265440000000003,0.5439799,0.6903792,-1.478006,4.588872,-0.2587692,-0.04783225,0.7013104,0.05241808,1.615111,5.733616,33.63
1,-0.1331329,-0.07815552,0.9880065999999998,1.0,-0.186615,-0.09477234,0.9778442,-32.151540000000004,-3.731873,-27.63324,3.058167,0.5504018,0.7244102,1.0,-0.1330719,-0.078125,0.9880065999999998,31.79333,-3.3939510000000004,-26.96309,3.4054260000000003,0.5440161,0.6885081999999999,-1.478118,4.588693,-0.2585704,-0.04760636,0.7011736999999999,0.05157478,1.615111,5.733616,33.63
1,-0.1331329,-0.07815552,0.9880065999999998,1.0,-0.186615,-0.09477234,0.9778442,-32.151540000000004,-3.731873,-27.63324,3.058167,0.5504018,0.7244102,1.0,-0.1330719,-0.078125,0.9880065999999998,31.79333,-3.3939510000000004,-26.96309,3.4054260000000003,0.5440161,0.6885081999999999,-1.478118,4.588693,-0.2585704,-0.04760636,0.7011736999999999,0.05157478,1.615111,5.733616,33.63
1,-0.1331329,-0.07815552,0.9880065999999998,1.0,-0.186615,-0.09477234,0.9778442,-32.151540000000004,-3.731873,-27.63324,3.058167,0.5504018,0.7244102,1.0,-0.1330719,-0.078125,0.9880065999999998,31.79333,-3.3939510000000004,-26.96309,3.4054260000000003,0.5440161,0.6885081999999999,-1.478118,4.588693,-0.2585704,-0.04760636,0.7011736999999999,0.05157478,1.615111,5.733616,33.63
1,-0.1293182,-0.07073975,0.9890747,1.0,-0.186142,-0.05987549,0.9806824,-32.174620000000004,-3.736176,-27.711170000000003,2.936111,0.551127,0.7208464,1.0,-0.1287231,-0.07084656,0.9891357,31.79218,-3.372437,-26.96587,3.38649,0.5435683000000001,0.6868584,-1.478191,4.588668,-0.2586902,-0.04728587,0.7010749,0.05161478,1.615111,5.733616,33.63
1,-0.1293182,-0.07073975,0.9890747,1.0,-0.186142,-0.05987549,0.9806824,-32.174620000000004,-3.736176,-27.711170000000003,2.936111,0.551127,0.7208464,1.0,-0.1287231,-0.07084656,0.9891357,31.79218,-3.372437,-26.96587,3.38649,0.5435683000000001,0.6868584,-1.478191,4.588668,-0.2586902,-0.04728587,0.7010749,0.05161478,1.615111,5.733616,33.63
1,-0.1293182,-0.07073975,0.9890747,1.0,-0.186142,-0.05987549,0.9806824,-32.174620000000004,-3.736176,-27.711170000000003,2.936111,0.551127,0.7208464,1.0,-0.1287231,-0.07084656,0.9891357,31.79218,-3.372437,-26.96587,3.38649,0.5435683000000001,0.6868584,-1.478191,4.588668,-0.2586902,-0.04728587,0.7010749,0.05161478,1.615111,5.733616,33.63
1,-0.1167908,-0.056427,0.9915466,1.0,-0.1704559,-0.06365967,0.9832916,-32.22844,-3.960983,-26.87408,2.900208,0.5503716,0.7200291,1.0,-0.1167908,-0.056427,0.9915466,31.79008,-3.330399,-26.98337,3.3283690000000004,0.5423096,0.6836959,-1.478209,4.58856,-0.2587134,-0.04701744,0.7011996,0.05173398,1.615111,-1.047722,33.63
1,-0.1167908,-0.056427,0.9915466,1.0,-0.1704559,-0.06365967,0.9832916,-32.22844,-3.960983,-26.87408,2.900208,0.5503716,0.7200291,1.0,-0.1167908,-0.056427,0.9915466,31.79008,-3.330399,-26.98337,3.3283690000000004,0.5423096,0.6836959,-1.478209,4.58856,-0.2587134,-0.04701744,0.7011996,0.05173398,1.615111,-1.047722,33.63
1,-0.1167908,-0.056427,0.9915466,1.0,-0.1704559,-0.06365967,0.9832916,-32.22844,-3.960983,-26.87408,2.900208,0.5503716,0.7200291,1.0,-0.1167908,-0.056427,0.9915466,31.79008,-3.330399,-26.98337,3.3283690000000004,0.5423096,0.6836959,-1.478209,4.58856,-0.2587134,-0.04701744,0.7011996,0.05173398,1.615111,-1.047722,33.63
1,-0.1152648999999999,-0.05500793,0.991806,1.0,-0.1718292,-0.05014038,0.9838409,-32.225359999999995,-3.9832,-26.79568,2.781494,0.5503153000000001,0.7181363000000001,1.0,-0.1152648999999999,-0.05500793,0.991806,31.79008,-3.3083339999999994,-26.99768,3.231781,0.5422602,0.6828131,-1.478136,4.588545,-0.2583644,-0.0465859,0.7011404,0.05147421,1.615111,-1.047722,33.63
1,-0.1152648999999999,-0.05500793,0.991806,1.0,-0.1718292,-0.05014038,0.9838409,-32.225359999999995,-3.9832,-26.79568,2.781494,0.5503153000000001,0.7181363000000001,1.0,-0.1152648999999999,-0.05500793,0.991806,31.79008,-3.3083339999999994,-26.99768,3.231781,0.5422602,0.6828131,-1.478136,4.588545,-0.2583644,-0.0465859,0.7011404,0.05147421,1.615111,-1.047722,33.63
1,-0.1152648999999999,-0.05500793,0.991806,1.0,-0.1718292,-0.05014038,0.9838409,-32.225359999999995,-3.9832,-26.79568,2.781494,0.5503153000000001,0.7181363000000001,1.0,-0.1152648999999999,-0.05500793,0.991806,31.79008,-3.3083339999999994,-26.99768,3.231781,0.5422602,0.6828131,-1.478136,4.588545,-0.2583644,-0.0465859,0.7011404,0.05147421,1.615111,-1.047722,33.63
1,-0.128952,-0.05281067,0.9902344,1.0,-0.1762848,-0.05247498,0.9829254,-31.88062,-4.066376,-26.74043,2.606979,0.5389565,0.7203734,1.0,-0.07925415,-0.05303955,0.9954376,32.02652,-3.094177,-27.73181,2.905304,0.5304981,0.6820689,-1.478273,4.588325,-0.2583916,-0.04596806,0.7008284,0.05144576,1.615111,-1.047722,33.63
1,-0.128952,-0.05281067,0.9902344,1.0,-0.1762848,-0.05247498,0.9829254,-31.88062,-4.066376,-26.74043,2.606979,0.5389565,0.7203734,1.0,-0.07925415,-0.05303955,0.9954376,32.02652,-3.094177,-27.73181,2.905304,0.5304981,0.6820689,-1.478273,4.588325,-0.2583916,-0.04596806,0.7008284,0.05144576,1.615111,-1.047722,33.63
1,-0.128952,-0.05281067,0.9902344,1.0,-0.1762848,-0.05247498,0.9829254,-31.88062,-4.066376,-26.74043,2.606979,0.5389565,0.7203734,1.0,-0.07925415,-0.05303955,0.9954376,32.02652,-3.094177,-27.73181,2.905304,0.5304981,0.6820689,-1.478273,4.588325,-0.2583916,-0.04596806,0.7008284,0.05144576,1.615111,-1.047722,33.63
1,0.1180877999999999,-0.1146393,0.9863586,1.0,0.08091736,-0.1088408999999999,0.9907532,-30.10439,-3.954453,-27.79971,2.761612,0.446808,0.7346682,1.0,0.1269379,-0.1160126,0.9850922,33.589659999999995,-3.671173000000001,-26.77188,2.968887,0.4529305,0.6987701999999999,-1.478303,4.588171,-0.2583455,-0.0454911,0.7003564,0.05136945,1.615111,-1.047722,33.63
1,0.1180877999999999,-0.1146393,0.9863586,1.0,0.08091736,-0.1088408999999999,0.9907532,-30.10439,-3.954453,-27.79971,2.761612,0.446808,0.7346682,1.0,0.1269379,-0.1160126,0.9850922,33.589659999999995,-3.671173000000001,-26.77188,2.968887,0.4529305,0.6987701999999999,-1.478303,4.588171,-0.2583455,-0.0454911,0.7003564,0.05136945,1.615111,-1.047722,33.63
1,0.1180877999999999,-0.1146393,0.9863586,1.0,0.08091736,-0.1088408999999999,0.9907532,-30.10439,-3.954453,-27.79971,2.761612,0.446808,0.7346682,1.0,0.1269379,-0.1160126,0.9850922,33.589659999999995,-3.671173000000001,-26.77188,2.968887,0.4529305,0.6987701999999999,-1.478303,4.588171,-0.2583455,-0.0454911,0.7003564,0.05136945,1.615111,-1.047722,33.63
1,0.1290283,-0.1212463,0.9841919,1.0,0.07736206,-0.1241454999999999,0.9892273,-30.1555,-3.839264,-28.10516,2.685562,0.4488727,0.7358975999999999,1.0,0.1296844,-0.1212006,0.9841156,33.69621,-3.630096,-26.88936,2.911346,0.4489665,0.6992027,-1.478161,4.587982,-0.2582487,-0.04475721,0.7000594,0.05065006,1.615111,-1.047722,33.63
1,0.1290283,-0.1212463,0.9841919,1.0,0.07736206,-0.1241454999999999,0.9892273,-30.1555,-3.839264,-28.10516,2.685562,0.4488727,0.7358975999999999,1.0,0.1296844,-0.1212006,0.9841156,33.69621,-3.630096,-26.88936,2.911346,0.4489665,0.6992027,-1.478161,4.587982,-0.2582487,-0.04475721,0.7000594,0.05065006,1.615111,-1.047722,33.63
1,0.1290283,-0.1212463,0.9841919,1.0,0.07736206,-0.1241454999999999,0.9892273,-30.1555,-3.839264,-28.10516,2.685562,0.4488727,0.7358975999999999,1.0,0.1296844,-0.1212006,0.9841156,33.69621,-3.630096,-26.88936,2.911346,0.4489665,0.6992027,-1.478161,4.587982,-0.2582487,-0.04475721,0.7000594,0.05065006,1.615111,-1.047722,33.63
1,0.1334229,-0.1189575,0.9838867,1.0,0.08157349,-0.1183624,0.9896088,-30.1618,-3.832199,-28.109790000000004,2.66333,0.4485531,0.7349387,1.0,0.1358184999999999,-0.118988,0.983551,33.71481,-3.711716000000001,-26.66507,2.79425,0.4477941,0.6992921,-1.477891,4.587551,-0.2580905,-0.04306579,0.6996289000000001,0.04926074,1.615111,-1.047722,33.63
1,0.1334229,-0.1189575,0.9838867,1.0,0.08157349,-0.1183624,0.9896088,-30.1618,-3.832199,-28.109790000000004,2.66333,0.4485531,0.7349387,1.0,0.1358184999999999,-0.118988,0.983551,33.71481,-3.711716000000001,-26.66507,2.79425,0.4477941,0.6992921,-1.477891,4.587551,-0.2580905,-0.04306579,0.6996289000000001,0.04926074,1.615111,-1.047722,33.63
1,0.1334229,-0.1189575,0.9838867,1.0,0.08157349,-0.1183624,0.9896088,-30.1618,-3.832199,-28.109790000000004,2.66333,0.4485531,0.7349387,1.0,0.1358184999999999,-0.118988,0.983551,33.71481,-3.711716000000001,-26.66507,2.79425,0.4477941,0.6992921,-1.477891,4.587551,-0.2580905,-0.04306579,0.6996289000000001,0.04926074,1.615111,-1.047722,33.63
1,0.1058655,-0.09234619,0.9900665,1.0,0.08000183,-0.08914185,0.9927979,-30.13618,-3.5670010000000003,-28.6795,2.481842,0.4476815999999999,0.7278413,1.0,0.1347351,-0.09585571,0.9862213,33.72903,-3.653763,-26.5562,2.527451,0.44776,0.6930351,-1.477573,4.587026,-0.258058,-0.04096596,0.6992246999999999,0.04799324,1.615111,16.55232,33.63
1,0.1058655,-0.09234619,0.9900665,1.0,0.08000183,-0.08914185,0.9927979,-30.13618,-3.5670010000000003,-28.6795,2.481842,0.4476815999999999,0.7278413,1.0,0.1347351,-0.09585571,0.9862213,33.72903,-3.653763,-26.5562,2.527451,0.44776,0.6930351,-1.477573,4.587026,-0.258058,-0.04096596,0.6992246999999999,0.04799324,1.615111,16.55232,33.63
1,0.1058655,-0.09234619,0.9900665,1.0,0.08000183,-0.08914185,0.9927979,-30.13618,-3.5670010000000003,-28.6795,2.481842,0.4476815999999999,0.7278413,1.0,0.1347351,-0.09585571,0.9862213,33.72903,-3.653763,-26.5562,2.527451,0.44776,0.6930351,-1.477573,4.587026,-0.258058,-0.04096596,0.6992246999999999,0.04799324,1.615111,16.55232,33.63
1,-1.0,-1.0,-1.0,0.7076873,0.0,0.0,0.0,-30.155,-3.191803,-29.3246,-1.0,0.4475363,0.7219401,0.4975877,0.0,0.0,0.0,32.31174,-4.721893,-27.06476,-1.0,0.5204099,0.7644102,-1.477267,4.586224,-0.2581327,-0.03848788,0.698814,0.04580655,1.615111,16.55232,33.63
1,-1.0,-1.0,-1.0,0.7076873,0.0,0.0,0.0,-30.155,-3.191803,-29.3246,-1.0,0.4475363,0.7219401,0.4975877,0.0,0.0,0.0,32.31174,-4.721893,-27.06476,-1.0,0.5204099,0.7644102,-1.477267,4.586224,-0.2581327,-0.03848788,0.698814,0.04580655,1.615111,16.55232,33.63
1,-1.0,-1.0,-1.0,0.7076873,0.0,0.0,0.0,-30.155,-3.191803,-29.3246,-1.0,0.4475363,0.7219401,0.4975877,0.0,0.0,0.0,32.31174,-4.721893,-27.06476,-1.0,0.5204099,0.7644102,-1.477267,4.586224,-0.2581327,-0.03848788,0.698814,0.04580655,1.615111,16.55232,33.63
1,-1.0,-1.0,-1.0,0.05769123,0.0,0.0,0.0,-30.20551,-3.179688,-28.85947,-1.0,-1.0,-1.0,0.1283568,0.0,0.0,0.0,32.31174,-4.721893,-27.06476,-1.0,-1.0,-1.0,-1.476473,4.585271,-0.2577617,-0.03471994,0.6983742,0.04248257,1.615111,16.55232,33.63
1,-1.0,-1.0,-1.0,0.05769123,0.0,0.0,0.0,-30.20551,-3.179688,-28.85947,-1.0,-1.0,-1.0,0.1283568,0.0,0.0,0.0,32.31174,-4.721893,-27.06476,-1.0,-1.0,-1.0,-1.476473,4.585271,-0.2577617,-0.03471994,0.6983742,0.04248257,1.615111,16.55232,33.63
1,-1.0,-1.0,-1.0,0.05769123,0.0,0.0,0.0,-30.20551,-3.179688,-28.85947,-1.0,-1.0,-1.0,0.1283568,0.0,0.0,0.0,32.31174,-4.721893,-27.06476,-1.0,-1.0,-1.0,-1.476473,4.585271,-0.2577617,-0.03471994,0.6983742,0.04248257,1.615111,16.55232,33.63
1,-1.0,-1.0,-1.0,0.0,0.0,0.0,0.0,-30.20551,-3.179688,-28.85947,-1.0,-1.0,-1.0,0.1077168,0.0,0.0,0.0,32.31174,-4.721893,-27.06476,-1.0,-1.0,-1.0,-1.4757360000000002,4.583807,-0.2575622,-0.02989882,0.6977681,0.03746559,1.615111,16.55232,33.63
1,-1.0,-1.0,-1.0,0.0,0.0,0.0,0.0,-30.20551,-3.179688,-28.85947,-1.0,-1.0,-1.0,0.1077168,0.0,0.0,0.0,32.31174,-4.721893,-27.06476,-1.0,-1.0,-1.0,-1.4757360000000002,4.583807,-0.2575622,-0.02989882,0.6977681,0.03746559,1.615111,16.55232,33.63
1,-1.0,-1.0,-1.0,0.0,0.0,0.0,0.0,-30.20551,-3.179688,-28.85947,-1.0,-1.0,-1.0,0.1077168,0.0,0.0,0.0,32.31174,-4.721893,-27.06476,-1.0,-1.0,-1.0,-1.4757360000000002,4.583807,-0.2575622,-0.02989882,0.6977681,0.03746559,1.615111,16.55232,33.63
1,-1.0,-1.0,-1.0,0.06113087,0.0,0.0,0.0,-30.20551,-3.179688,-28.85947,-1.0,-1.0,-1.0,0.2546844,0.0,0.0,0.0,32.31174,-4.721893,-27.06476,-1.0,-1.0,-1.0,-1.474913,4.581951,-0.2574517,-0.02508924,0.6966576999999999,0.03141906,1.615111,-103.7201,33.63
1,-1.0,-1.0,-1.0,0.06113087,0.0,0.0,0.0,-30.20551,-3.179688,-28.85947,-1.0,-1.0,-1.0,0.2546844,0.0,0.0,0.0,32.31174,-4.721893,-27.06476,-1.0,-1.0,-1.0,-1.474913,4.581951,-0.2574517,-0.02508924,0.6966576999999999,0.03141906,1.615111,-103.7201,33.63
1,-1.0,-1.0,-1.0,0.06113087,0.0,0.0,0.0,-30.20551,-3.179688,-28.85947,-1.0,-1.0,-1.0,0.2546844,0.0,0.0,0.0,32.31174,-4.721893,-27.06476,-1.0,-1.0,-1.0,-1.474913,4.581951,-0.2574517,-0.02508924,0.6966576999999999,0.03141906,1.615111,-103.7201,33.63
1,-1.0,-1.0,-1.0,0.617344,0.0,0.0,0.0,-31.77058,-3.575729,-27.793640000000003,-1.0,0.5320391999999999,0.7113275,0.6795361999999999,0.0,0.0,0.0,32.04095,-2.854965,-27.41356,-1.0,0.5269741,0.6695733,-1.473526,4.580415,-0.2569532,-0.02030619,0.6952555,0.02579477,1.615111,-103.7201,33.63
1,-1.0,-1.0,-1.0,0.617344,0.0,0.0,0.0,-31.77058,-3.575729,-27.793640000000003,-1.0,0.5320391999999999,0.7113275,0.6795361999999999,0.0,0.0,0.0,32.04095,-2.854965,-27.41356,-1.0,0.5269741,0.6695733,-1.473526,4.580415,-0.2569532,-0.02030619,0.6952555,0.02579477,1.615111,-103.7201,33.63
1,-1.0,-1.0,-1.0,0.617344,0.0,0.0,0.0,-31.77058,-3.575729,-27.793640000000003,-1.0,0.5320391999999999,0.7113275,0.6795361999999999,0.0,0.0,0.0,32.04095,-2.854965,-27.41356,-1.0,0.5269741,0.6695733,-1.473526,4.580415,-0.2569532,-0.02030619,0.6952555,0.02579477,1.615111,-103.7201,33.63
1,-1.0,-1.0,-1.0,0.764363,0.0,0.0,0.0,-31.80086,-3.406372,-28.073970000000003,-1.0,0.5308904999999999,0.7089688000000001,0.8220944,0.0,0.0,0.0,32.055240000000005,-2.928879,-27.10945,-1.0,0.5286857,0.6710311,-1.472002,4.579034,-0.2565504,-0.01583989,0.6939508000000001,0.02050572,1.615111,-103.7201,33.63
1,-1.0,-1.0,-1.0,0.764363,0.0,0.0,0.0,-31.80086,-3.406372,-28.073970000000003,-1.0,0.5308904999999999,0.7089688000000001,0.8220944,0.0,0.0,0.0,32.055240000000005,-2.928879,-27.10945,-1.0,0.5286857,0.6710311,-1.472002,4.579034,-0.2565504,-0.01583989,0.6939508000000001,0.02050572,1.615111,-103.7201,33.63
1,-1.0,-1.0,-1.0,0.764363,0.0,0.0,0.0,-31.80086,-3.406372,-28.073970000000003,-1.0,0.5308904999999999,0.7089688000000001,0.8220944,0.0,0.0,0.0,32.055240000000005,-2.928879,-27.10945,-1.0,0.5286857,0.6710311,-1.472002,4.579034,-0.2565504,-0.01583989,0.6939508000000001,0.02050572,1.615111,-103.7201,33.63
1,-0.08403015,-0.007247925,0.9964294,1.0,-0.1523743,-0.007797241,0.9882813,-31.892090000000003,-3.48671,-27.34317,2.0846560000000003,0.536556,0.700417,1.0,-0.08403015,-0.007247925,0.9964294,32.02109,-2.823181,-27.01138,2.307953,0.5320344,0.6594298000000001,-1.468045,4.576146,-0.2558321,-0.005848875,0.6924607,0.009869028,1.615111,-103.7201,33.63
1,-0.08403015,-0.007247925,0.9964294,1.0,-0.1523743,-0.007797241,0.9882813,-31.892090000000003,-3.48671,-27.34317,2.0846560000000003,0.536556,0.700417,1.0,-0.08403015,-0.007247925,0.9964294,32.02109,-2.823181,-27.01138,2.307953,0.5320344,0.6594298000000001,-1.468045,4.576146,-0.2558321,-0.005848875,0.6924607,0.009869028,1.615111,-103.7201,33.63
1,-0.08403015,-0.007247925,0.9964294,1.0,-0.1523743,-0.007797241,0.9882813,-31.892090000000003,-3.48671,-27.34317,2.0846560000000003,0.536556,0.700417,1.0,-0.08403015,-0.007247925,0.9964294,32.02109,-2.823181,-27.01138,2.307953,0.5320344,0.6594298000000001,-1.468045,4.576146,-0.2558321,-0.005848875,0.6924607,0.009869028,1.615111,-103.7201,33.63
1,-0.07281494,0.01832581,0.9971619,1.0,-0.1497345,0.06472778,0.9866028,-31.91818,-3.30574,-27.72108,2.190796,0.5374395000000001,0.6891549,1.0,-0.07270813,0.01826477,0.9971771,31.98013,-2.781509,-27.20181,2.1859740000000003,0.5322371,0.6565369000000001,-1.465804,4.5744,-0.2557703,-0.00029901,0.6920137,0.004004205,1.615111,16.6039,33.63
1,-0.07281494,0.01832581,0.9971619,1.0,-0.1497345,0.06472778,0.9866028,-31.91818,-3.30574,-27.72108,2.190796,0.5374395000000001,0.6891549,1.0,-0.07270813,0.01826477,0.9971771,31.98013,-2.781509,-27.20181,2.1859740000000003,0.5322371,0.6565369000000001,-1.465804,4.5744,-0.2557703,-0.00029901,0.6920137,0.004004205,1.615111,16.6039,33.63
1,-0.07281494,0.01832581,0.9971619,1.0,-0.1497345,0.06472778,0.9866028,-31.91818,-3.30574,-27.72108,2.190796,0.5374395000000001,0.6891549,1.0,-0.07270813,0.01826477,0.9971771,31.98013,-2.781509,-27.20181,2.1859740000000003,0.5322371,0.6565369000000001,-1.465804,4.5744,-0.2557703,-0.00029901,0.6920137,0.004004205,1.615111,16.6039,33.63
1,-0.09120178,0.0193634,0.995636,1.0,-0.1408386,0.05438232,0.9885254,-31.93848,-2.981262,-28.47932,2.131104,0.5374604000000001,0.6869681,1.0,-0.09120178,0.01934814,0.995636,32.00653,-2.757339,-27.07996,2.25943,0.5334991,0.6545866,-1.46326,4.572639,-0.2555948,0.0058290969999999,0.6916063,-0.002500952,1.615111,16.6039,33.63
1,-0.09120178,0.0193634,0.995636,1.0,-0.1408386,0.05438232,0.9885254,-31.93848,-2.981262,-28.47932,2.131104,0.5374604000000001,0.6869681,1.0,-0.09120178,0.01934814,0.995636,32.00653,-2.757339,-27.07996,2.25943,0.5334991,0.6545866,-1.46326,4.572639,-0.2555948,0.0058290969999999,0.6916063,-0.002500952,1.615111,16.6039,33.63
1,-0.09120178,0.0193634,0.995636,1.0,-0.1408386,0.05438232,0.9885254,-31.93848,-2.981262,-28.47932,2.131104,0.5374604000000001,0.6869681,1.0,-0.09120178,0.01934814,0.995636,32.00653,-2.757339,-27.07996,2.25943,0.5334991,0.6545866,-1.46326,4.572639,-0.2555948,0.0058290969999999,0.6916063,-0.002500952,1.615111,16.6039,33.63
1,-0.09950256,0.1515045,0.983429,1.0,-0.1471863,0.123642,0.9813385,-31.97714,-2.491531,-28.40198,2.189301,0.5396601,0.6607636,1.0,-0.09545898,0.1538391,0.9834595,32.03606,-2.292557,-27.146040000000003,2.422806,0.5330384,0.6234905,-1.450447,4.564426999999999,-0.2548983999999999,0.03274307,0.687458,-0.02870911,1.615111,21.14382,33.63
1,-0.09950256,0.1515045,0.983429,1.0,-0.1471863,0.123642,0.9813385,-31.97714,-2.491531,-28.40198,2.189301,0.5396601,0.6607636,1.0,-0.09545898,0.1538391,0.9834595,32.03606,-2.292557,-27.146040000000003,2.422806,0.5330384,0.6234905,-1.450447,4.564426999999999,-0.2548983999999999,0.03274307,0.687458,-0.02870911,1.615111,21.14382,33.63
1,-0.09950256,0.1515045,0.983429,1.0,-0.1471863,0.123642,0.9813385,-31.97714,-2.491531,-28.40198,2.189301,0.5396601,0.6607636,1.0,-0.09545898,0.1538391,0.9834595,32.03606,-2.292557,-27.146040000000003,2.422806,0.5330384,0.6234905,-1.450447,4.564426999999999,-0.2548983999999999,0.03274307,0.687458,-0.02870911,1.615111,21.14382,33.63
1,-0.1188202,0.1766204999999999,0.977066,1.0,-0.1560974,0.1486816,0.9764709,-31.95052,-2.3992,-28.34851,2.209137,0.5398713,0.654043,1.0,-0.1000671,0.1904448999999999,0.9765778,32.03006,-2.20697,-27.17049,2.299835,0.5340335999999999,0.6163073,-1.448251,4.563226,-0.2546683999999999,0.0371301999999999,0.6865201,-0.03261317,1.615111,21.14382,33.63
1,-0.1188202,0.1766204999999999,0.977066,1.0,-0.1560974,0.1486816,0.9764709,-31.95052,-2.3992,-28.34851,2.209137,0.5398713,0.654043,1.0,-0.1000671,0.1904448999999999,0.9765778,32.03006,-2.20697,-27.17049,2.299835,0.5340335999999999,0.6163073,-1.448251,4.563226,-0.2546683999999999,0.0371301999999999,0.6865201,-0.03261317,1.615111,21.14382,33.63
1,-0.1188202,0.1766204999999999,0.977066,1.0,-0.1560974,0.1486816,0.9764709,-31.95052,-2.3992,-28.34851,2.209137,0.5398713,0.654043,1.0,-0.1000671,0.1904448999999999,0.9765778,32.03006,-2.20697,-27.17049,2.299835,0.5340335999999999,0.6163073,-1.448251,4.563226,-0.2546683999999999,0.0371301999999999,0.6865201,-0.03261317,1.615111,21.14382,33.63
2,-0.1177367999999999,0.1884612999999999,0.9749908000000002,1.0,-0.1537933,0.1758118,0.9723206,-31.941990000000004,-2.325073,-28.37227,2.174469,0.5393142,0.648343,1.0,-0.1006927,0.1943207,0.9757385,32.02904,-2.185028,-27.17427,2.301392,0.5341505999999999,0.6151411999999999,-1.446082,4.562521,-0.254397,0.03970251,0.6856566,-0.0348307,1.615111,21.14382,33.63
2,-0.1177367999999999,0.1884612999999999,0.9749908000000002,1.0,-0.1537933,0.1758118,0.9723206,-31.941990000000004,-2.325073,-28.37227,2.174469,0.5393142,0.648343,1.0,-0.1006927,0.1943207,0.9757385,32.02904,-2.185028,-27.17427,2.301392,0.5341505999999999,0.6151411999999999,-1.446082,4.562521,-0.254397,0.03970251,0.6856566,-0.0348307,1.615111,21.14382,33.63
2,-0.1177367999999999,0.1884612999999999,0.9749908000000002,1.0,-0.1537933,0.1758118,0.9723206,-31.941990000000004,-2.325073,-28.37227,2.174469,0.5393142,0.648343,1.0,-0.1006927,0.1943207,0.9757385,32.02904,-2.185028,-27.17427,2.301392,0.5341505999999999,0.6151411999999999,-1.446082,4.562521,-0.254397,0.03970251,0.6856566,-0.0348307,1.615111,21.14382,33.63
2,-0.1177367999999999,0.1884612999999999,0.9749908000000002,1.0,-0.1537933,0.1758118,0.9723206,-31.941990000000004,-2.325073,-28.37227,2.174469,0.5393142,0.648343,1.0,-0.1006927,0.1943207,0.9757385,32.02904,-2.185028,-27.17427,2.301392,0.5341505999999999,0.6151411999999999,-1.444186,4.562269000000001,-0.2540219999999999,0.04066962,0.6849696,-0.03623674,1.615111,21.14382,33.63
2,-0.1177367999999999,0.1884612999999999,0.9749908000000002,1.0,-0.1537933,0.1758118,0.9723206,-31.941990000000004,-2.325073,-28.37227,2.174469,0.5393142,0.648343,1.0,-0.1006927,0.1943207,0.9757385,32.02904,-2.185028,-27.17427,2.301392,0.5341505999999999,0.6151411999999999,-1.444186,4.562269000000001,-0.2540219999999999,0.04066962,0.6849696,-0.03623674,1.615111,21.14382,33.63
2,-0.1177367999999999,0.1884612999999999,0.9749908000000002,1.0,-0.1537933,0.1758118,0.9723206,-31.941990000000004,-2.325073,-28.37227,2.174469,0.5393142,0.648343,1.0,-0.1006927,0.1943207,0.9757385,32.02904,-2.185028,-27.17427,2.301392,0.5341505999999999,0.6151411999999999,-1.444186,4.562269000000001,-0.2540219999999999,0.04066962,0.6849696,-0.03623674,1.615111,21.14382,33.63
2,-0.1192627,0.188736,0.9747467,1.0,-0.1548462,0.1842803999999999,0.9705811,-31.94046,-2.292892,-28.37041,2.276077,0.5394576999999999,0.6463776999999999,1.0,-0.1009827,0.1909332,0.9763794,32.02873,-2.172272,-27.17337,2.2995,0.5341955,0.6151139,-1.442823,4.5617410000000005,-0.2538553,0.04216668,0.6842688,-0.03761955,1.615111,21.14382,33.63
2,-0.1192627,0.188736,0.9747467,1.0,-0.1548462,0.1842803999999999,0.9705811,-31.94046,-2.292892,-28.37041,2.276077,0.5394576999999999,0.6463776999999999,1.0,-0.1009827,0.1909332,0.9763794,32.02873,-2.172272,-27.17337,2.2995,0.5341955,0.6151139,-1.442823,4.5617410000000005,-0.2538553,0.04216668,0.6842688,-0.03761955,1.615111,21.14382,33.63
2,-0.1192627,0.188736,0.9747467,1.0,-0.1548462,0.1842803999999999,0.9705811,-31.94046,-2.292892,-28.37041,2.276077,0.5394576999999999,0.6463776999999999,1.0,-0.1009827,0.1909332,0.9763794,32.02873,-2.172272,-27.17337,2.2995,0.5341955,0.6151139,-1.442823,4.5617410000000005,-0.2538553,0.04216668,0.6842688,-0.03761955,1.615111,21.14382,33.63
2,-0.1411896,0.1894836,0.9716644,1.0,-0.1683502,0.1724396,0.97052,-31.93771,-2.08165,-28.36127,2.218689,0.5410351,0.6404084,1.0,-0.1188048999999999,0.2032928,0.9718781,32.02785,-1.894318,-27.22768,2.313278,0.5364469000000001,0.6049532,-1.441971,4.562407,-0.2536507999999999,0.04173944,0.6841967,-0.03536549,1.615111,10.75678,33.63
2,-0.1411896,0.1894836,0.9716644,1.0,-0.1683502,0.1724396,0.97052,-31.93771,-2.08165,-28.36127,2.218689,0.5410351,0.6404084,1.0,-0.1188048999999999,0.2032928,0.9718781,32.02785,-1.894318,-27.22768,2.313278,0.5364469000000001,0.6049532,-1.441971,4.562407,-0.2536507999999999,0.04173944,0.6841967,-0.03536549,1.615111,10.75678,33.63
2,-0.1411896,0.1894836,0.9716644,1.0,-0.1683502,0.1724396,0.97052,-31.93771,-2.08165,-28.36127,2.218689,0.5410351,0.6404084,1.0,-0.1188048999999999,0.2032928,0.9718781,32.02785,-1.894318,-27.22768,2.313278,0.5364469000000001,0.6049532,-1.441971,4.562407,-0.2536507999999999,0.04173944,0.6841967,-0.03536549,1.615111,10.75678,33.63
2,-0.1424407999999999,0.2059784,0.9681244,1.0,-0.1826323999999999,0.1707001,0.9682312,-31.95676,-1.923996,-28.37321,2.264221,0.5435273,0.6354635999999999,1.0,-0.1107788,0.2331238,0.9661102,32.00812,-1.714981,-27.28238,2.240295,0.5363131,0.5957293,-1.44168,4.56385,-0.25335,0.03829255,0.6847694000000001,-0.02991271,1.615111,10.75678,33.63
2,-0.1424407999999999,0.2059784,0.9681244,1.0,-0.1826323999999999,0.1707001,0.9682312,-31.95676,-1.923996,-28.37321,2.264221,0.5435273,0.6354635999999999,1.0,-0.1107788,0.2331238,0.9661102,32.00812,-1.714981,-27.28238,2.240295,0.5363131,0.5957293,-1.44168,4.56385,-0.25335,0.03829255,0.6847694000000001,-0.02991271,1.615111,10.75678,33.63
2,-0.1424407999999999,0.2059784,0.9681244,1.0,-0.1826323999999999,0.1707001,0.9682312,-31.95676,-1.923996,-28.37321,2.264221,0.5435273,0.6354635999999999,1.0,-0.1107788,0.2331238,0.9661102,32.00812,-1.714981,-27.28238,2.240295,0.5363131,0.5957293,-1.44168,4.56385,-0.25335,0.03829255,0.6847694000000001,-0.02991271,1.615111,10.75678,33.63
2,-0.1407471,0.203949,0.9687958,1.0,-0.1740417,0.1686249,0.9701843,-31.95059,-1.972824,-28.37003,2.154465,0.5421749,0.6371251,1.0,-0.1150208,0.2306976,0.9662018,32.0121,-1.716141,-27.28329,2.253098,0.5366761999999999,0.5961126,-1.4421959999999998,4.564871,-0.2531399,0.03582312,0.6849303000000001,-0.02623163,1.615111,10.75678,33.63
2,-0.1407471,0.203949,0.9687958,1.0,-0.1740417,0.1686249,0.9701843,-31.95059,-1.972824,-28.37003,2.154465,0.5421749,0.6371251,1.0,-0.1150208,0.2306976,0.9662018,32.0121,-1.716141,-27.28329,2.253098,0.5366761999999999,0.5961126,-1.4421959999999998,4.564871,-0.2531399,0.03582312,0.6849303000000001,-0.02623163,1.615111,10.75678,33.63
2,-0.1407471,0.203949,0.9687958,1.0,-0.1740417,0.1686249,0.9701843,-31.95059,-1.972824,-28.37003,2.154465,0.5421749,0.6371251,1.0,-0.1150208,0.2306976,0.9662018,32.0121,-1.716141,-27.28329,2.253098,0.5366761999999999,0.5961126,-1.4421959999999998,4.564871,-0.2531399,0.03582312,0.6849303000000001,-0.02623163,1.615111,10.75678,33.63
2,-0.1418762,0.1894072999999999,0.9715881,1.0,-0.1690369,0.16362,0.9719238,-31.93188,-2.08493,-28.37158,2.217255,0.5409161,0.6416899,1.0,-0.1220245,0.2079772999999999,0.9704895,32.03365,-1.875534,-27.25566,2.252151,0.5367445,0.6039460999999999,-1.443118,4.565724,-0.2527385,0.03364388,0.6849955,-0.02329169,1.615111,10.75678,33.63
2,-0.1418762,0.1894072999999999,0.9715881,1.0,-0.1690369,0.16362,0.9719238,-31.93188,-2.08493,-28.37158,2.217255,0.5409161,0.6416899,1.0,-0.1220245,0.2079772999999999,0.9704895,32.03365,-1.875534,-27.25566,2.252151,0.5367445,0.6039460999999999,-1.443118,4.565724,-0.2527385,0.03364388,0.6849955,-0.02329169,1.615111,10.75678,33.63
2,-0.1418762,0.1894072999999999,0.9715881,1.0,-0.1690369,0.16362,0.9719238,-31.93188,-2.08493,-28.37158,2.217255,0.5409161,0.6416899,1.0,-0.1220245,0.2079772999999999,0.9704895,32.03365,-1.875534,-27.25566,2.252151,0.5367445,0.6039460999999999,-1.443118,4.565724,-0.2527385,0.03364388,0.6849955,-0.02329169,1.615111,10.75678,33.63
2,-0.1389771,0.1900024,0.9718933,1.0,-0.1687469,0.1817322,0.96875,-31.93922,-2.139297,-28.39728,2.184189,0.5411484000000001,0.6415542,1.0,-0.117691,0.1957703,0.9735565,32.03365,-1.89122,-27.24905,2.277863,0.5361573000000001,0.6058812,-1.444201,4.566357,-0.2523097,0.03211227,0.6849838,-0.0213562,1.615111,10.75678,33.63
2,-0.1389771,0.1900024,0.9718933,1.0,-0.1687469,0.1817322,0.96875,-31.93922,-2.139297,-28.39728,2.184189,0.5411484000000001,0.6415542,1.0,-0.117691,0.1957703,0.9735565,32.03365,-1.89122,-27.24905,2.277863,0.5361573000000001,0.6058812,-1.444201,4.566357,-0.2523097,0.03211227,0.6849838,-0.0213562,1.615111,10.75678,33.63
2,-0.1389771,0.1900024,0.9718933,1.0,-0.1687469,0.1817322,0.96875,-31.93922,-2.139297,-28.39728,2.184189,0.5411484000000001,0.6415542,1.0,-0.117691,0.1957703,0.9735565,32.03365,-1.89122,-27.24905,2.277863,0.5361573000000001,0.6058812,-1.444201,4.566357,-0.2523097,0.03211227,0.6849838,-0.0213562,1.615111,10.75678,33.63
2,-0.1389771,0.1900024,0.9718933,1.0,-0.1687469,0.1817322,0.96875,-31.93922,-2.139297,-28.39728,2.184189,0.5411484000000001,0.6415542,1.0,-0.117691,0.1957703,0.9735565,32.03365,-1.89122,-27.24905,2.277863,0.5361573000000001,0.6058812,-1.445692,4.566584,-0.2522691,0.03098176,0.6855808000000001,-0.02053187,1.615111,41.72528,33.63
2,-0.1389771,0.1900024,0.9718933,1.0,-0.1687469,0.1817322,0.96875,-31.93922,-2.139297,-28.39728,2.184189,0.5411484000000001,0.6415542,1.0,-0.117691,0.1957703,0.9735565,32.03365,-1.89122,-27.24905,2.277863,0.5361573000000001,0.6058812,-1.445692,4.566584,-0.2522691,0.03098176,0.6855808000000001,-0.02053187,1.615111,41.72528,33.63
2,-0.1389771,0.1900024,0.9718933,1.0,-0.1687469,0.1817322,0.96875,-31.93922,-2.139297,-28.39728,2.184189,0.5411484000000001,0.6415542,1.0,-0.117691,0.1957703,0.9735565,32.03365,-1.89122,-27.24905,2.277863,0.5361573000000001,0.6058812,-1.445692,4.566584,-0.2522691,0.03098176,0.6855808000000001,-0.02053187,1.615111,41.72528,33.63
2,-0.1257324,0.1846619,0.9747162,1.0,-0.1639862,0.1889191,0.9682007,-31.98796,-2.249573,-28.41644,2.183243,0.5422319999999999,0.6446656,1.0,-0.09960938,0.1815947999999999,0.978302,31.99498,-2.030472,-27.22284,2.228683,0.5352705,0.6118273,-1.448411,4.5668120000000005,-0.2521943,0.03022301,0.6876448000000001,-0.01787268,1.615111,41.72528,33.63
2,-0.1257324,0.1846619,0.9747162,1.0,-0.1639862,0.1889191,0.9682007,-31.98796,-2.249573,-28.41644,2.183243,0.5422319999999999,0.6446656,1.0,-0.09960938,0.1815947999999999,0.978302,31.99498,-2.030472,-27.22284,2.228683,0.5352705,0.6118273,-1.448411,4.5668120000000005,-0.2521943,0.03022301,0.6876448000000001,-0.01787268,1.615111,41.72528,33.63
2,-0.1257324,0.1846619,0.9747162,1.0,-0.1639862,0.1889191,0.9682007,-31.98796,-2.249573,-28.41644,2.183243,0.5422319999999999,0.6446656,1.0,-0.09960938,0.1815947999999999,0.978302,31.99498,-2.030472,-27.22284,2.228683,0.5352705,0.6118273,-1.448411,4.5668120000000005,-0.2521943,0.03022301,0.6876448000000001,-0.01787268,1.615111,41.72528,33.63
2,-0.1199341,0.184967,0.9753876,1.0,-0.1541595,0.1846924,0.9706268,-31.98601,-2.257828,-28.42191,2.178894,0.5409205,0.6454686,1.0,-0.09831238,0.1850281,0.9777985,31.99815,-2.044083,-27.227290000000004,2.246796,0.5349857,0.6119305,-1.4500309999999998,4.566658,-0.2528056,0.03005348,0.6887438,-0.01624063,1.615111,41.72528,33.63
2,-0.1199341,0.184967,0.9753876,1.0,-0.1541595,0.1846924,0.9706268,-31.98601,-2.257828,-28.42191,2.178894,0.5409205,0.6454686,1.0,-0.09831238,0.1850281,0.9777985,31.99815,-2.044083,-27.227290000000004,2.246796,0.5349857,0.6119305,-1.4500309999999998,4.566658,-0.2528056,0.03005348,0.6887438,-0.01624063,1.615111,41.72528,33.63
2,-0.1199341,0.184967,0.9753876,1.0,-0.1541595,0.1846924,0.9706268,-31.98601,-2.257828,-28.42191,2.178894,0.5409205,0.6454686,1.0,-0.09831238,0.1850281,0.9777985,31.99815,-2.044083,-27.227290000000004,2.246796,0.5349857,0.6119305,-1.4500309999999998,4.566658,-0.2528056,0.03005348,0.6887438,-0.01624063,1.615111,41.72528,33.63
2,-0.1204224,0.1832886,0.975647,1.0,-0.1542053,0.1824646,0.9710388,-31.98375,-2.262833,-28.4221,2.167908,0.5408400999999999,0.6458918,1.0,-0.09867859,0.1837157999999999,0.9780121,32.00006,-2.049637,-27.2305,2.249649,0.5349581,0.612308,-1.451501,4.566627,-0.2530296,0.02935544,0.6893501,-0.0149632,1.615111,41.72528,33.63
2,-0.1204224,0.1832886,0.975647,1.0,-0.1542053,0.1824646,0.9710388,-31.98375,-2.262833,-28.4221,2.167908,0.5408400999999999,0.6458918,1.0,-0.09867859,0.1837157999999999,0.9780121,32.00006,-2.049637,-27.2305,2.249649,0.5349581,0.612308,-1.451501,4.566627,-0.2530296,0.02935544,0.6893501,-0.0149632,1.615111,41.72528,33.63
2,-0.1204224,0.1832886,0.975647,1.0,-0.1542053,0.1824646,0.9710388,-31.98375,-2.262833,-28.4221,2.167908,0.5408400999999999,0.6458918,1.0,-0.09867859,0.1837157999999999,0.9780121,32.00006,-2.049637,-27.2305,2.249649,0.5349581,0.612308,-1.451501,4.566627,-0.2530296,0.02935544,0.6893501,-0.0149632,1.615111,41.72528,33.63
2,-0.1108856,0.1809082,0.9772186,1.0,-0.1349182,0.1727753,0.9756622,-31.954390000000004,-2.274445,-28.44533,2.109177,0.5373687,0.6475105,1.0,-0.0967865,0.1856079,0.9778442,32.03862,-2.063629,-27.2343,2.257492,0.5334243000000001,0.6125855,-1.452807,4.567009,-0.2533306,0.02751934,0.6897506999999999,-0.01289071,1.615111,-20.77386,33.63
2,-0.1108856,0.1809082,0.9772186,1.0,-0.1349182,0.1727753,0.9756622,-31.954390000000004,-2.274445,-28.44533,2.109177,0.5373687,0.6475105,1.0,-0.0967865,0.1856079,0.9778442,32.03862,-2.063629,-27.2343,2.257492,0.5334243000000001,0.6125855,-1.452807,4.567009,-0.2533306,0.02751934,0.6897506999999999,-0.01289071,1.615111,-20.77386,33.63
2,-0.1108856,0.1809082,0.9772186,1.0,-0.1349182,0.1727753,0.9756622,-31.954390000000004,-2.274445,-28.44533,2.109177,0.5373687,0.6475105,1.0,-0.0967865,0.1856079,0.9778442,32.03862,-2.063629,-27.2343,2.257492,0.5334243000000001,0.6125855,-1.452807,4.567009,-0.2533306,0.02751934,0.6897506999999999,-0.01289071,1.615111,-20.77386,33.63
2,-0.1110077,0.1716309,0.9788818,1.0,-0.1493529999999999,0.1549377,0.9765625,-31.90347,-2.230026,-28.43333,2.11647,0.5374262,0.6480965999999999,1.0,-0.08802795,0.1814575,0.9794464,32.05406,-2.063629,-27.2343,2.257736,0.5318307,0.6130201999999999,-1.453968,4.568017,-0.2536703,0.02303622,0.6905618,-0.01000642,1.615111,-20.77386,33.63
2,-0.1110077,0.1716309,0.9788818,1.0,-0.1493529999999999,0.1549377,0.9765625,-31.90347,-2.230026,-28.43333,2.11647,0.5374262,0.6480965999999999,1.0,-0.08802795,0.1814575,0.9794464,32.05406,-2.063629,-27.2343,2.257736,0.5318307,0.6130201999999999,-1.453968,4.568017,-0.2536703,0.02303622,0.6905618,-0.01000642,1.615111,-20.77386,33.63
2,-0.1110077,0.1716309,0.9788818,1.0,-0.1493529999999999,0.1549377,0.9765625,-31.90347,-2.230026,-28.43333,2.11647,0.5374262,0.6480965999999999,1.0,-0.08802795,0.1814575,0.9794464,32.05406,-2.063629,-27.2343,2.257736,0.5318307,0.6130201999999999,-1.453968,4.568017,-0.2536703,0.02303622,0.6905618,-0.01000642,1.615111,-20.77386,33.63
2,-0.1191711,0.1525879,0.9810638,1.0,-0.1536407,0.140976,0.9780121,-31.907290000000003,-2.282654,-28.45334,2.085114,0.5380785,0.6517821999999999,1.0,-0.09770203,0.1596985,0.9823151,32.09578,-2.044754,-27.203740000000003,2.212875,0.5316387,0.6146826,-1.454974,4.569255,-0.2537217,0.01908576,0.6913204000000001,-0.00733286,1.615111,-20.77386,33.63
2,-0.1191711,0.1525879,0.9810638,1.0,-0.1536407,0.140976,0.9780121,-31.907290000000003,-2.282654,-28.45334,2.085114,0.5380785,0.6517821999999999,1.0,-0.09770203,0.1596985,0.9823151,32.09578,-2.044754,-27.203740000000003,2.212875,0.5316387,0.6146826,-1.454974,4.569255,-0.2537217,0.01908576,0.6913204000000001,-0.00733286,1.615111,-20.77386,33.63
2,-0.1191711,0.1525879,0.9810638,1.0,-0.1536407,0.140976,0.9780121,-31.907290000000003,-2.282654,-28.45334,2.085114,0.5380785,0.6517821999999999,1.0,-0.09770203,0.1596985,0.9823151,32.09578,-2.044754,-27.203740000000003,2.212875,0.5316387,0.6146826,-1.454974,4.569255,-0.2537217,0.01908576,0.6913204000000001,-0.00733286,1.615111,-20.77386,33.63
2,-0.09791565,0.1639099,0.9815979,1.0,-0.1408691,0.1055908,0.984375,-31.91415,-2.302567,-28.74075,2.118759,0.5368621,0.6597359,1.0,-0.08981323,0.1747283999999999,0.9804993,32.091159999999995,-2.132019,-27.21536,2.234283,0.5308116999999999,0.6159084,-1.455817,4.570263,-0.2541234,0.01612068,0.6925366,-0.004802811,1.615111,-20.77386,33.63
2,-0.09791565,0.1639099,0.9815979,1.0,-0.1408691,0.1055908,0.984375,-31.91415,-2.302567,-28.74075,2.118759,0.5368621,0.6597359,1.0,-0.08981323,0.1747283999999999,0.9804993,32.091159999999995,-2.132019,-27.21536,2.234283,0.5308116999999999,0.6159084,-1.455817,4.570263,-0.2541234,0.01612068,0.6925366,-0.004802811,1.615111,-20.77386,33.63
2,-0.09791565,0.1639099,0.9815979,1.0,-0.1408691,0.1055908,0.984375,-31.91415,-2.302567,-28.74075,2.118759,0.5368621,0.6597359,1.0,-0.08981323,0.1747283999999999,0.9804993,32.091159999999995,-2.132019,-27.21536,2.234283,0.5308116999999999,0.6159084,-1.455817,4.570263,-0.2541234,0.01612068,0.6925366,-0.004802811,1.615111,-20.77386,33.63
2,-0.08575439,0.1638793999999999,0.9827423,1.0,-0.1294098,0.1091156,0.9855652,-31.91304,-2.25267,-28.95901,2.1924740000000003,0.5355551,0.6598639000000001,1.0,-0.08439636,0.1655579,0.9825745,32.091809999999995,-2.138275,-27.21451,2.230057,0.5301188,0.6171718,-1.456677,4.570997,-0.2550368,0.01336154,0.6940923999999999,-0.003041977,1.615111,-20.77386,33.63
2,-0.08575439,0.1638793999999999,0.9827423,1.0,-0.1294098,0.1091156,0.9855652,-31.91304,-2.25267,-28.95901,2.1924740000000003,0.5355551,0.6598639000000001,1.0,-0.08439636,0.1655579,0.9825745,32.091809999999995,-2.138275,-27.21451,2.230057,0.5301188,0.6171718,-1.456677,4.570997,-0.2550368,0.01336154,0.6940923999999999,-0.003041977,1.615111,-20.77386,33.63
2,-0.08575439,0.1638793999999999,0.9827423,1.0,-0.1294098,0.1091156,0.9855652,-31.91304,-2.25267,-28.95901,2.1924740000000003,0.5355551,0.6598639000000001,1.0,-0.08439636,0.1655579,0.9825745,32.091809999999995,-2.138275,-27.21451,2.230057,0.5301188,0.6171718,-1.456677,4.570997,-0.2550368,0.01336154,0.6940923999999999,-0.003041977,1.615111,-20.77386,33.63
2,-0.07814026,0.1398468,0.9870758,1.0,-0.1230469,0.09880066,0.9874573,-31.87822,-2.151779,-29.59697,2.131439,0.5338889,0.6640328000000001,1.0,-0.07814026,0.1398468,0.9870758,32.12616,-2.2845,-27.19319,2.25444,0.5281117,0.6249664,-1.456866,4.571829,-0.2555124,0.01062485,0.695691,-0.00229755,1.615111,-20.77386,33.63
2,-0.07814026,0.1398468,0.9870758,1.0,-0.1230469,0.09880066,0.9874573,-31.87822,-2.151779,-29.59697,2.131439,0.5338889,0.6640328000000001,1.0,-0.07814026,0.1398468,0.9870758,32.12616,-2.2845,-27.19319,2.25444,0.5281117,0.6249664,-1.456866,4.571829,-0.2555124,0.01062485,0.695691,-0.00229755,1.615111,-20.77386,33.63
2,-0.07814026,0.1398468,0.9870758,1.0,-0.1230469,0.09880066,0.9874573,-31.87822,-2.151779,-29.59697,2.131439,0.5338889,0.6640328000000001,1.0,-0.07814026,0.1398468,0.9870758,32.12616,-2.2845,-27.19319,2.25444,0.5281117,0.6249664,-1.456866,4.571829,-0.2555124,0.01062485,0.695691,-0.00229755,1.615111,-20.77386,33.63
2,-0.07649231,0.113266,0.9906006,1.0,-0.1272278,0.09294128,0.9875031,-31.81166,-2.271698,-29.33093,2.096909,0.5319185000000001,0.6661534,1.0,-0.07627869,0.1133423,0.9906158000000002,32.1624,-2.336929,-27.179240000000004,2.274872,0.5266002,0.6298041,-1.456996,4.572435,-0.2559887,0.008755513,0.6972838000000001,-0.001502507,1.615111,-15.58295,33.63
2,-0.07649231,0.113266,0.9906006,1.0,-0.1272278,0.09294128,0.9875031,-31.81166,-2.271698,-29.33093,2.096909,0.5319185000000001,0.6661534,1.0,-0.07627869,0.1133423,0.9906158000000002,32.1624,-2.336929,-27.179240000000004,2.274872,0.5266002,0.6298041,-1.456996,4.572435,-0.2559887,0.008755513,0.6972838000000001,-0.001502507,1.615111,-15.58295,33.63
2,-0.07649231,0.113266,0.9906006,1.0,-0.1272278,0.09294128,0.9875031,-31.81166,-2.271698,-29.33093,2.096909,0.5319185000000001,0.6661534,1.0,-0.07627869,0.1133423,0.9906158000000002,32.1624,-2.336929,-27.179240000000004,2.274872,0.5266002,0.6298041,-1.456996,4.572435,-0.2559887,0.008755513,0.6972838000000001,-0.001502507,1.615111,-15.58295,33.63
2,-0.06903076,0.1134186,0.9911346,1.0,-0.1084595,0.1008758999999999,0.9889526,-31.821040000000004,-2.385651,-29.05116,2.099182,0.5297103,0.6662176,1.0,-0.06855774,0.1135712,0.9911499,32.1926,-2.373489,-27.20499,2.256104,0.5246645000000001,0.6311734,-1.457069,4.572614,-0.256861,0.0077054309999999,0.6986328,-0.001671517,1.615111,-15.58295,33.63
2,-0.06903076,0.1134186,0.9911346,1.0,-0.1084595,0.1008758999999999,0.9889526,-31.821040000000004,-2.385651,-29.05116,2.099182,0.5297103,0.6662176,1.0,-0.06855774,0.1135712,0.9911499,32.1926,-2.373489,-27.20499,2.256104,0.5246645000000001,0.6311734,-1.457069,4.572614,-0.256861,0.0077054309999999,0.6986328,-0.001671517,1.615111,-15.58295,33.63
2,-0.06903076,0.1134186,0.9911346,1.0,-0.1084595,0.1008758999999999,0.9889526,-31.821040000000004,-2.385651,-29.05116,2.099182,0.5297103,0.6662176,1.0,-0.06855774,0.1135712,0.9911499,32.1926,-2.373489,-27.20499,2.256104,0.5246645000000001,0.6311734,-1.457069,4.572614,-0.256861,0.0077054309999999,0.6986328,-0.001671517,1.615111,-15.58295,33.63
2,-0.0703125,0.1108398,0.991333,1.0,-0.1083831999999999,0.1013184,0.9889221,-31.80818,-2.4541630000000003,-28.84944,2.117828,0.529154,0.6665022,1.0,-0.06999207,0.1109161,0.9913483,32.20238,-2.377426,-27.212840000000003,2.25528,0.5245076,0.6317058000000001,-1.456919,4.572483999999999,-0.2577123999999999,0.007209903,0.6996446,-0.002476253,1.615111,-15.58295,33.63
2,-0.0703125,0.1108398,0.991333,1.0,-0.1083831999999999,0.1013184,0.9889221,-31.80818,-2.4541630000000003,-28.84944,2.117828,0.529154,0.6665022,1.0,-0.06999207,0.1109161,0.9913483,32.20238,-2.377426,-27.212840000000003,2.25528,0.5245076,0.6317058000000001,-1.456919,4.572483999999999,-0.2577123999999999,0.007209903,0.6996446,-0.002476253,1.615111,-15.58295,33.63
2,-0.0703125,0.1108398,0.991333,1.0,-0.1083831999999999,0.1013184,0.9889221,-31.80818,-2.4541630000000003,-28.84944,2.117828,0.529154,0.6665022,1.0,-0.06999207,0.1109161,0.9913483,32.20238,-2.377426,-27.212840000000003,2.25528,0.5245076,0.6317058000000001,-1.456919,4.572483999999999,-0.2577123999999999,0.007209903,0.6996446,-0.002476253,1.615111,-15.58295,33.63
2,-0.06646729,0.1056976,0.9921722,1.0,-0.1095581,0.1048279,0.9884338,-31.78383,-2.508087,-28.71805,2.140594,0.5284041,0.6666278,1.0,-0.0655365,0.1057128999999999,0.9922333,32.21924,-2.373672,-27.218120000000003,2.24147,0.5234116,0.6322063,-1.456786,4.572183,-0.2582817999999999,0.007557769,0.7004126,-0.004330916,1.615111,-15.58295,33.63
2,-0.06646729,0.1056976,0.9921722,1.0,-0.1095581,0.1048279,0.9884338,-31.78383,-2.508087,-28.71805,2.140594,0.5284041,0.6666278,1.0,-0.0655365,0.1057128999999999,0.9922333,32.21924,-2.373672,-27.218120000000003,2.24147,0.5234116,0.6322063,-1.456786,4.572183,-0.2582817999999999,0.007557769,0.7004126,-0.004330916,1.615111,-15.58295,33.63
2,-0.06646729,0.1056976,0.9921722,1.0,-0.1095581,0.1048279,0.9884338,-31.78383,-2.508087,-28.71805,2.140594,0.5284041,0.6666278,1.0,-0.0655365,0.1057128999999999,0.9922333,32.21924,-2.373672,-27.218120000000003,2.24147,0.5234116,0.6322063,-1.456786,4.572183,-0.2582817999999999,0.007557769,0.7004126,-0.004330916,1.615111,-15.58295,33.63
2,-0.07629395,0.1026154,0.9917755,1.0,-0.1062012,0.1023712,0.9890442,-31.71457,-2.496078,-28.759120000000003,2.139114,0.5256145999999999,0.6669037,1.0,-0.07112122,0.1026458999999999,0.992157,32.24577,-2.370239,-27.22144,2.220078,0.5232239000000001,0.6324955,-1.456473,4.571728,-0.258872,0.008652151,0.7011045,-0.006763896,1.615111,-15.58295,33.63
2,-0.07629395,0.1026154,0.9917755,1.0,-0.1062012,0.1023712,0.9890442,-31.71457,-2.496078,-28.759120000000003,2.139114,0.5256145999999999,0.6669037,1.0,-0.07112122,0.1026458999999999,0.992157,32.24577,-2.370239,-27.22144,2.220078,0.5232239000000001,0.6324955,-1.456473,4.571728,-0.258872,0.008652151,0.7011045,-0.006763896,1.615111,-15.58295,33.63
2,-0.07629395,0.1026154,0.9917755,1.0,-0.1062012,0.1023712,0.9890442,-31.71457,-2.496078,-28.759120000000003,2.139114,0.5256145999999999,0.6669037,1.0,-0.07112122,0.1026458999999999,0.992157,32.24577,-2.370239,-27.22144,2.220078,0.5232239000000001,0.6324955,-1.456473,4.571728,-0.258872,0.008652151,0.7011045,-0.006763896,1.615111,-15.58295,33.63
2,-0.08293152,0.0945281999999999,0.9920502,1.0,-0.1015625,0.09986877,0.9897919,-31.67897,-2.464264,-28.770570000000003,2.152069,0.5238183,0.6662291,1.0,-0.05378723,0.08610535,0.9948273,32.32339,-2.306763,-27.38077,2.173279,0.5185494,0.6337243,-1.455924,4.571315,-0.2592179,0.01017806,0.7018047,-0.009136537,1.615111,28.40115,33.63
2,-0.08293152,0.0945281999999999,0.9920502,1.0,-0.1015625,0.09986877,0.9897919,-31.67897,-2.464264,-28.770570000000003,2.152069,0.5238183,0.6662291,1.0,-0.05378723,0.08610535,0.9948273,32.32339,-2.306763,-27.38077,2.173279,0.5185494,0.6337243,-1.455924,4.571315,-0.2592179,0.01017806,0.7018047,-0.009136537,1.615111,28.40115,33.63
2,-0.08293152,0.0945281999999999,0.9920502,1.0,-0.1015625,0.09986877,0.9897919,-31.67897,-2.464264,-28.770570000000003,2.152069,0.5238183,0.6662291,1.0,-0.05378723,0.08610535,0.9948273,32.32339,-2.306763,-27.38077,2.173279,0.5185494,0.6337243,-1.455924,4.571315,-0.2592179,0.01017806,0.7018047,-0.009136537,1.615111,28.40115,33.63
2,-0.265213,-0.06317139,0.9621124,1.0,-0.2638397,-0.04840088,0.9633331,-32.54744,-3.561859,-28.72791,2.131332,0.5744653000000001,0.7239317,1.0,-0.2652283,-0.06324768,0.9620972,31.02328,-3.226501,-27.472240000000003,2.371292,0.5878486999999999,0.6869016,-1.45527,4.571007,-0.2592907,0.01150071,0.7025431,-0.01140149,1.615111,28.40115,33.63
2,-0.265213,-0.06317139,0.9621124,1.0,-0.2638397,-0.04840088,0.9633331,-32.54744,-3.561859,-28.72791,2.131332,0.5744653000000001,0.7239317,1.0,-0.2652283,-0.06324768,0.9620972,31.02328,-3.226501,-27.472240000000003,2.371292,0.5878486999999999,0.6869016,-1.45527,4.571007,-0.2592907,0.01150071,0.7025431,-0.01140149,1.615111,28.40115,33.63
2,-0.265213,-0.06317139,0.9621124,1.0,-0.2638397,-0.04840088,0.9633331,-32.54744,-3.561859,-28.72791,2.131332,0.5744653000000001,0.7239317,1.0,-0.2652283,-0.06324768,0.9620972,31.02328,-3.226501,-27.472240000000003,2.371292,0.5878486999999999,0.6869016,-1.45527,4.571007,-0.2592907,0.01150071,0.7025431,-0.01140149,1.615111,28.40115,33.63
2,-0.3587799,-0.1478423999999999,0.9216309,1.0,-0.3431702,-0.1462097,0.9278107,-32.711490000000005,-3.991638,-28.8867,2.310425,0.5911958,0.7552759,1.0,-0.3588715,-0.1478577,0.9215851,30.79036,-3.574234,-27.62534,2.531494,0.6072890999999999,0.7131513,-1.454701,4.570621,-0.259813,0.01180664,0.7035661,-0.01312086,1.615111,28.40115,33.63
2,-0.3587799,-0.1478423999999999,0.9216309,1.0,-0.3431702,-0.1462097,0.9278107,-32.711490000000005,-3.991638,-28.8867,2.310425,0.5911958,0.7552759,1.0,-0.3588715,-0.1478577,0.9215851,30.79036,-3.574234,-27.62534,2.531494,0.6072890999999999,0.7131513,-1.454701,4.570621,-0.259813,0.01180664,0.7035661,-0.01312086,1.615111,28.40115,33.63
2,-0.3587799,-0.1478423999999999,0.9216309,1.0,-0.3431702,-0.1462097,0.9278107,-32.711490000000005,-3.991638,-28.8867,2.310425,0.5911958,0.7552759,1.0,-0.3588715,-0.1478577,0.9215851,30.79036,-3.574234,-27.62534,2.531494,0.6072890999999999,0.7131513,-1.454701,4.570621,-0.259813,0.01180664,0.7035661,-0.01312086,1.615111,28.40115,33.63
2,-0.342804,-0.1823882999999999,0.921524,1.0,-0.3293457,-0.1801757999999999,0.9268494,-32.780120000000004,-4.009308,-28.8782,2.076752,0.5918616999999999,0.7601346,1.0,-0.3499145999999999,-0.183548,0.9186096,30.91458,-3.634201,-27.57503,2.546158,0.6019085999999999,0.7192318,-1.4540110000000002,4.570505000000001,-0.2603821,0.01201602,0.7053889,-0.01472074,1.615111,28.40115,33.63
2,-0.342804,-0.1823882999999999,0.921524,1.0,-0.3293457,-0.1801757999999999,0.9268494,-32.780120000000004,-4.009308,-28.8782,2.076752,0.5918616999999999,0.7601346,1.0,-0.3499145999999999,-0.183548,0.9186096,30.91458,-3.634201,-27.57503,2.546158,0.6019085999999999,0.7192318,-1.4540110000000002,4.570505000000001,-0.2603821,0.01201602,0.7053889,-0.01472074,1.615111,28.40115,33.63
2,-0.342804,-0.1823882999999999,0.921524,1.0,-0.3293457,-0.1801757999999999,0.9268494,-32.780120000000004,-4.009308,-28.8782,2.076752,0.5918616999999999,0.7601346,1.0,-0.3499145999999999,-0.183548,0.9186096,30.91458,-3.634201,-27.57503,2.546158,0.6019085999999999,0.7192318,-1.4540110000000002,4.570505000000001,-0.2603821,0.01201602,0.7053889,-0.01472074,1.615111,28.40115,33.63
2,-0.3412476,-0.1786957,0.922821,1.0,-0.3328552,-0.1663512999999999,0.9281769,-32.74115,-3.981552,-28.85844,2.266373,0.5908906,0.757177,1.0,-0.3456268,-0.1851959,0.9199066,30.9339,-3.633194,-27.563340000000004,2.537048,0.6007244,0.7191974,-1.453925,4.570492,-0.2608469,0.01191859,0.7060794,-0.01500273,1.615111,41.67285,33.63
2,-0.3412476,-0.1786957,0.922821,1.0,-0.3328552,-0.1663512999999999,0.9281769,-32.74115,-3.981552,-28.85844,2.266373,0.5908906,0.757177,1.0,-0.3456268,-0.1851959,0.9199066,30.9339,-3.633194,-27.563340000000004,2.537048,0.6007244,0.7191974,-1.453925,4.570492,-0.2608469,0.01191859,0.7060794,-0.01500273,1.615111,41.67285,33.63
2,-0.3412476,-0.1786957,0.922821,1.0,-0.3328552,-0.1663512999999999,0.9281769,-32.74115,-3.981552,-28.85844,2.266373,0.5908906,0.757177,1.0,-0.3456268,-0.1851959,0.9199066,30.9339,-3.633194,-27.563340000000004,2.537048,0.6007244,0.7191974,-1.453925,4.570492,-0.2608469,0.01191859,0.7060794,-0.01500273,1.615111,41.67285,33.63
3,-0.3415222,-0.1758118,0.9232788,1.0,-0.3315582,-0.1614227,0.9295044,-32.74167,-3.981476,-28.858320000000003,2.272003,0.5907220000000001,0.7564960999999999,1.0,-0.3478241,-0.1849823,0.9191132,30.95367,-3.634689,-27.55605,2.502945,0.6003795,0.7191612,-1.45389,4.570512,-0.2612232,0.01184617,0.7065776999999999,-0.01490583,1.615111,41.67285,33.63
3,-0.3415222,-0.1758118,0.9232788,1.0,-0.3315582,-0.1614227,0.9295044,-32.74167,-3.981476,-28.858320000000003,2.272003,0.5907220000000001,0.7564960999999999,1.0,-0.3478241,-0.1849823,0.9191132,30.95367,-3.634689,-27.55605,2.502945,0.6003795,0.7191612,-1.45389,4.570512,-0.2612232,0.01184617,0.7065776999999999,-0.01490583,1.615111,41.67285,33.63
3,-0.3415222,-0.1758118,0.9232788,1.0,-0.3315582,-0.1614227,0.9295044,-32.74167,-3.981476,-28.858320000000003,2.272003,0.5907220000000001,0.7564960999999999,1.0,-0.3478241,-0.1849823,0.9191132,30.95367,-3.634689,-27.55605,2.502945,0.6003795,0.7191612,-1.45389,4.570512,-0.2612232,0.01184617,0.7065776999999999,-0.01490583,1.615111,41.67285,33.63
3,-0.3411407,-0.1735535,0.9238434,1.0,-0.3279419,-0.1604462,0.930954,-32.75516,-3.981079,-28.85768,2.254517,0.590711,0.7562779000000001,1.0,-0.3514557,-0.1838684,0.9179535,30.97218,-3.637009,-27.55383,2.508102,0.6001858,0.7191249,-1.453609,4.570661,-0.2609746,0.01194949,0.7069751999999999,-0.01469592,1.615111,41.67285,33.63
3,-0.3411407,-0.1735535,0.9238434,1.0,-0.3279419,-0.1604462,0.930954,-32.75516,-3.981079,-28.85768,2.254517,0.590711,0.7562779000000001,1.0,-0.3514557,-0.1838684,0.9179535,30.97218,-3.637009,-27.55383,2.508102,0.6001858,0.7191249,-1.453609,4.570661,-0.2609746,0.01194949,0.7069751999999999,-0.01469592,1.615111,41.67285,33.63
3,-0.3411407,-0.1735535,0.9238434,1.0,-0.3279419,-0.1604462,0.930954,-32.75516,-3.981079,-28.85768,2.254517,0.590711,0.7562779000000001,1.0,-0.3514557,-0.1838684,0.9179535,30.97218,-3.637009,-27.55383,2.508102,0.6001858,0.7191249,-1.453609,4.570661,-0.2609746,0.01194949,0.7069751999999999,-0.01469592,1.615111,41.67285,33.63
3,-0.3255768,-0.1786041,0.9284821,1.0,-0.3213348,-0.1695862,0.9316406,-32.76062,-3.943512,-28.82286,2.270172,0.5899946999999999,0.7557129,1.0,-0.3289185,-0.1857452,0.9258881,30.97977,-3.64505,-27.54697,2.426895,0.5972753000000001,0.7191249,-1.45349,4.570689,-0.2608904,0.01253363,0.7077342,-0.014292,1.615111,41.67285,33.63
3,-0.3255768,-0.1786041,0.9284821,1.0,-0.3213348,-0.1695862,0.9316406,-32.76062,-3.943512,-28.82286,2.270172,0.5899946999999999,0.7557129,1.0,-0.3289185,-0.1857452,0.9258881,30.97977,-3.64505,-27.54697,2.426895,0.5972753000000001,0.7191249,-1.45349,4.570689,-0.2608904,0.01253363,0.7077342,-0.014292,1.615111,41.67285,33.63
3,-0.3255768,-0.1786041,0.9284821,1.0,-0.3213348,-0.1695862,0.9316406,-32.76062,-3.943512,-28.82286,2.270172,0.5899946999999999,0.7557129,1.0,-0.3289185,-0.1857452,0.9258881,30.97977,-3.64505,-27.54697,2.426895,0.5972753000000001,0.7191249,-1.45349,4.570689,-0.2608904,0.01253363,0.7077342,-0.014292,1.615111,41.67285,33.63
3,-0.3174896,-0.1821594,0.9305878,1.0,-0.3186188,-0.1687622,0.932724,-32.76012,-3.946655,-28.81468,2.2558290000000003,0.5896056,0.7555679,1.0,-0.3165283,-0.1929779,0.9287261999999998,31.00995,-3.650986,-27.517640000000004,2.395905,0.5947496999999999,0.719734,-1.453658,4.570407,-0.2610875,0.01320773,0.7076831,-0.01395838,1.615111,-4.495533,33.63
3,-0.3174896,-0.1821594,0.9305878,1.0,-0.3186188,-0.1687622,0.932724,-32.76012,-3.946655,-28.81468,2.2558290000000003,0.5896056,0.7555679,1.0,-0.3165283,-0.1929779,0.9287261999999998,31.00995,-3.650986,-27.517640000000004,2.395905,0.5947496999999999,0.719734,-1.453658,4.570407,-0.2610875,0.01320773,0.7076831,-0.01395838,1.615111,-4.495533,33.63
3,-0.3174896,-0.1821594,0.9305878,1.0,-0.3186188,-0.1687622,0.932724,-32.76012,-3.946655,-28.81468,2.2558290000000003,0.5896056,0.7555679,1.0,-0.3165283,-0.1929779,0.9287261999999998,31.00995,-3.650986,-27.517640000000004,2.395905,0.5947496999999999,0.719734,-1.453658,4.570407,-0.2610875,0.01320773,0.7076831,-0.01395838,1.615111,-4.495533,33.63
3,-0.3113861,-0.1804199,0.9329834,1.0,-0.3187561,-0.1671753,0.9329681,-32.76003,-3.947739,-28.80998,2.271057,0.5896099,0.755356,1.0,-0.3050537,-0.1916198999999999,0.9328461,31.018690000000003,-3.65004,-27.51015,2.279572,0.5932333000000001,0.7191930000000001,-1.453801,4.570357,-0.2607512,0.01376339,0.7073727,-0.01350823,1.615111,-4.495533,33.63
3,-0.3113861,-0.1804199,0.9329834,1.0,-0.3187561,-0.1671753,0.9329681,-32.76003,-3.947739,-28.80998,2.271057,0.5896099,0.755356,1.0,-0.3050537,-0.1916198999999999,0.9328461,31.018690000000003,-3.65004,-27.51015,2.279572,0.5932333000000001,0.7191930000000001,-1.453801,4.570357,-0.2607512,0.01376339,0.7073727,-0.01350823,1.615111,-4.495533,33.63
3,-0.3113861,-0.1804199,0.9329834,1.0,-0.3187561,-0.1671753,0.9329681,-32.76003,-3.947739,-28.80998,2.271057,0.5896099,0.755356,1.0,-0.3050537,-0.1916198999999999,0.9328461,31.018690000000003,-3.65004,-27.51015,2.279572,0.5932333000000001,0.7191930000000001,-1.453801,4.570357,-0.2607512,0.01376339,0.7073727,-0.01350823,1.615111,-4.495533,33.63
3,-0.3084259,-0.1695250999999999,0.9360046,1.0,-0.316925,-0.1642914,0.9340973,-32.75842,-3.947739,-28.8035,2.273727,0.5892961999999999,0.7548689000000001,1.0,-0.3015747,-0.1737366,0.9374695,31.03653,-3.649216000000001,-27.48901,2.243973,0.5922251000000001,0.7164531,-1.453975,4.570123000000001,-0.2605952,0.01414371,0.7066326,-0.01309585,1.615111,-4.495533,33.63
3,-0.3084259,-0.1695250999999999,0.9360046,1.0,-0.316925,-0.1642914,0.9340973,-32.75842,-3.947739,-28.8035,2.273727,0.5892961999999999,0.7548689000000001,1.0,-0.3015747,-0.1737366,0.9374695,31.03653,-3.649216000000001,-27.48901,2.243973,0.5922251000000001,0.7164531,-1.453975,4.570123000000001,-0.2605952,0.01414371,0.7066326,-0.01309585,1.615111,-4.495533,33.63
3,-0.3084259,-0.1695250999999999,0.9360046,1.0,-0.316925,-0.1642914,0.9340973,-32.75842,-3.947739,-28.8035,2.273727,0.5892961999999999,0.7548689000000001,1.0,-0.3015747,-0.1737366,0.9374695,31.03653,-3.649216000000001,-27.48901,2.243973,0.5922251000000001,0.7164531,-1.453975,4.570123000000001,-0.2605952,0.01414371,0.7066326,-0.01309585,1.615111,-4.495533,33.63
3,-0.3079071,-0.1638641,0.9371796,1.0,-0.3164825,-0.1622009,0.9346161,-32.75627,-3.947739,-28.79976,2.274368,0.5891509,0.7545318,1.0,-0.30159,-0.1650848,0.9390259,31.05048,-3.639984,-27.48276,2.246643,0.5917338000000001,0.7149108000000001,-1.454082,4.569971,-0.2600827,0.01494439,0.7058701999999999,-0.01293729,1.615111,-4.495533,33.63
3,-0.3079071,-0.1638641,0.9371796,1.0,-0.3164825,-0.1622009,0.9346161,-32.75627,-3.947739,-28.79976,2.274368,0.5891509,0.7545318,1.0,-0.30159,-0.1650848,0.9390259,31.05048,-3.639984,-27.48276,2.246643,0.5917338000000001,0.7149108000000001,-1.454082,4.569971,-0.2600827,0.01494439,0.7058701999999999,-0.01293729,1.615111,-4.495533,33.63
3,-0.3079071,-0.1638641,0.9371796,1.0,-0.3164825,-0.1622009,0.9346161,-32.75627,-3.947739,-28.79976,2.274368,0.5891509,0.7545318,1.0,-0.30159,-0.1650848,0.9390259,31.05048,-3.639984,-27.48276,2.246643,0.5917338000000001,0.7149108000000001,-1.454082,4.569971,-0.2600827,0.01494439,0.7058701999999999,-0.01293729,1.615111,-4.495533,33.63
3,-0.3079071,-0.1638641,0.9371796,1.0,-0.3164825,-0.1622009,0.9346161,-32.75627,-3.947739,-28.79976,2.274368,0.5891509,0.7545318,1.0,-0.30159,-0.1650848,0.9390259,31.05048,-3.639984,-27.48276,2.246643,0.5917338000000001,0.7149108000000001,-1.454437,4.569775,-0.2598493,0.01561415,0.7050844000000001,-0.01297898,1.615111,-4.495533,33.63
3,-0.3079071,-0.1638641,0.9371796,1.0,-0.3164825,-0.1622009,0.9346161,-32.75627,-3.947739,-28.79976,2.274368,0.5891509,0.7545318,1.0,-0.30159,-0.1650848,0.9390259,31.05048,-3.639984,-27.48276,2.246643,0.5917338000000001,0.7149108000000001,-1.454437,4.569775,-0.2598493,0.01561415,0.7050844000000001,-0.01297898,1.615111,-4.495533,33.63
3,-0.3079071,-0.1638641,0.9371796,1.0,-0.3164825,-0.1622009,0.9346161,-32.75627,-3.947739,-28.79976,2.274368,0.5891509,0.7545318,1.0,-0.30159,-0.1650848,0.9390259,31.05048,-3.639984,-27.48276,2.246643,0.5917338000000001,0.7149108000000001,-1.454437,4.569775,-0.2598493,0.01561415,0.7050844000000001,-0.01297898,1.615111,-4.495533,33.63
3,-0.3057709,-0.1644897,0.9377747,1.0,-0.3149872,-0.1620178,0.9351501,-32.75627,-3.947739,-28.79976,2.2742,0.588952,0.7544953000000001,1.0,-0.2992705999999999,-0.166214,0.9395752,31.05728,-3.639008,-27.47475,2.26622,0.5911731,0.7149108000000001,-1.454521,4.569917,-0.2592032999999999,0.01623019,0.7046604999999999,-0.01264607,1.615111,-4.495533,33.63
3,-0.3057709,-0.1644897,0.9377747,1.0,-0.3149872,-0.1620178,0.9351501,-32.75627,-3.947739,-28.79976,2.2742,0.588952,0.7544953000000001,1.0,-0.2992705999999999,-0.166214,0.9395752,31.05728,-3.639008,-27.47475,2.26622,0.5911731,0.7149108000000001,-1.454521,4.569917,-0.2592032999999999,0.01623019,0.7046604999999999,-0.01264607,1.615111,-4.495533,33.63
3,-0.3057709,-0.1644897,0.9377747,1.0,-0.3149872,-0.1620178,0.9351501,-32.75627,-3.947739,-28.79976,2.2742,0.588952,0.7544953000000001,1.0,-0.2992705999999999,-0.166214,0.9395752,31.05728,-3.639008,-27.47475,2.26622,0.5911731,0.7149108000000001,-1.454521,4.569917,-0.2592032999999999,0.01623019,0.7046604999999999,-0.01264607,1.615111,-4.495533,33.63
3,-0.3187561,-0.1571654999999999,0.9347076,0.9804426,-0.3139954,-0.1551666,0.9366455,-32.80928,-3.952438,-28.814870000000003,2.322433,0.5906889,0.7539501999999999,0.9544485,-0.3221893,-0.1586151,0.9332886,31.05136,-3.596725,-27.47263,2.332047,0.5940843000000001,0.7128526999999999,-1.454577,4.57002,-0.258857,0.01630713,0.7043708000000001,-0.01211283,1.699679,-32.93557,33.63
3,-0.3187561,-0.1571654999999999,0.9347076,0.9804426,-0.3139954,-0.1551666,0.9366455,-32.80928,-3.952438,-28.814870000000003,2.322433,0.5906889,0.7539501999999999,0.9544485,-0.3221893,-0.1586151,0.9332886,31.05136,-3.596725,-27.47263,2.332047,0.5940843000000001,0.7128526999999999,-1.454577,4.57002,-0.258857,0.01630713,0.7043708000000001,-0.01211283,1.699679,-32.93557,33.63
3,-0.3187561,-0.1571654999999999,0.9347076,0.9804426,-0.3139954,-0.1551666,0.9366455,-32.80928,-3.952438,-28.814870000000003,2.322433,0.5906889,0.7539501999999999,0.9544485,-0.3221893,-0.1586151,0.9332886,31.05136,-3.596725,-27.47263,2.332047,0.5940843000000001,0.7128526999999999,-1.454577,4.57002,-0.258857,0.01630713,0.7043708000000001,-0.01211283,1.699679,-32.93557,33.63
3,-0.3187561,-0.1571654999999999,0.9347076,0.9804426,-0.3139954,-0.1551666,0.9366455,-32.80928,-3.952438,-28.814870000000003,2.322433,0.5906889,0.7539501999999999,0.9544485,-0.3221893,-0.1586151,0.9332886,31.05136,-3.596725,-27.47263,2.332047,0.5940843000000001,0.7128526999999999,-1.454577,4.57002,-0.258857,0.01630713,0.7043708000000001,-0.01211283,1.699679,-32.93557,33.63
3,-0.3187561,-0.1571654999999999,0.9347076,0.9804426,-0.3139954,-0.1551666,0.9366455,-32.80928,-3.952438,-28.814870000000003,2.322433,0.5906889,0.7539501999999999,0.9544485,-0.3221893,-0.1586151,0.9332886,31.05136,-3.596725,-27.47263,2.332047,0.5940843000000001,0.7128526999999999,-1.454577,4.57002,-0.258857,0.01630713,0.7043708000000001,-0.01211283,1.699679,-32.93557,33.63
3,-0.3187561,-0.1571654999999999,0.9347076,0.9804426,-0.3139954,-0.1551666,0.9366455,-32.80928,-3.952438,-28.814870000000003,2.322433,0.5906889,0.7539501999999999,0.9544485,-0.3221893,-0.1586151,0.9332886,31.05136,-3.596725,-27.47263,2.332047,0.5940843000000001,0.7128526999999999,-1.454577,4.57002,-0.258857,0.01630713,0.7043708000000001,-0.01211283,1.699679,-32.93557,33.63
3,-0.3207244999999999,-0.1503142999999999,0.9351501,0.9676722,-0.318985,-0.1489562999999999,0.9359741,-32.80928,-3.945435,-28.814870000000003,2.320267,0.5913289,0.7529191,0.9533405,-0.3219604,-0.1512604,0.9345856,31.04665,-3.5894470000000003,-27.47258,2.290131,0.5942890000000001,0.7115956,-1.454884,4.570297,-0.2587398999999999,0.01593941,0.7040930000000001,-0.0105179,1.699679,-32.93557,33.63
3,-0.3207244999999999,-0.1503142999999999,0.9351501,0.9676722,-0.318985,-0.1489562999999999,0.9359741,-32.80928,-3.945435,-28.814870000000003,2.320267,0.5913289,0.7529191,0.9533405,-0.3219604,-0.1512604,0.9345856,31.04665,-3.5894470000000003,-27.47258,2.290131,0.5942890000000001,0.7115956,-1.454884,4.570297,-0.2587398999999999,0.01593941,0.7040930000000001,-0.0105179,1.699679,-32.93557,33.63
3,-0.3207244999999999,-0.1503142999999999,0.9351501,0.9676722,-0.318985,-0.1489562999999999,0.9359741,-32.80928,-3.945435,-28.814870000000003,2.320267,0.5913289,0.7529191,0.9533405,-0.3219604,-0.1512604,0.9345856,31.04665,-3.5894470000000003,-27.47258,2.290131,0.5942890000000001,0.7115956,-1.454884,4.570297,-0.2587398999999999,0.01593941,0.7040930000000001,-0.0105179,1.699679,-32.93557,33.63
3,-0.3207244999999999,-0.1503142999999999,0.9351501,0.9676722,-0.318985,-0.1489562999999999,0.9359741,-32.80928,-3.945435,-28.814870000000003,2.320267,0.5913289,0.7529191,0.9533405,-0.3219604,-0.1512604,0.9345856,31.04665,-3.5894470000000003,-27.47258,2.290131,0.5942890000000001,0.7115956,-1.454912,4.570551999999999,-0.2584497,0.01563311,0.7040417,-0.009928303,1.699679,-32.93557,33.63
3,-0.3207244999999999,-0.1503142999999999,0.9351501,0.9676722,-0.318985,-0.1489562999999999,0.9359741,-32.80928,-3.945435,-28.814870000000003,2.320267,0.5913289,0.7529191,0.9533405,-0.3219604,-0.1512604,0.9345856,31.04665,-3.5894470000000003,-27.47258,2.290131,0.5942890000000001,0.7115956,-1.454912,4.570551999999999,-0.2584497,0.01563311,0.7040417,-0.009928303,1.699679,-32.93557,33.63
3,-0.3207244999999999,-0.1503142999999999,0.9351501,0.9676722,-0.318985,-0.1489562999999999,0.9359741,-32.80928,-3.945435,-28.814870000000003,2.320267,0.5913289,0.7529191,0.9533405,-0.3219604,-0.1512604,0.9345856,31.04665,-3.5894470000000003,-27.47258,2.290131,0.5942890000000001,0.7115956,-1.454912,4.570551999999999,-0.2584497,0.01563311,0.7040417,-0.009928303,1.699679,-32.93557,33.63
3,-0.231842,-0.1065521,0.9668884,0.8822030999999999,-0.2633972,-0.1167145,0.9575958,-32.48659,-3.630295,-28.695390000000003,2.387268,0.572494,0.7353349,0.8813622999999999,-0.2083282,-0.09896851,0.9730225,31.36932,-3.317596,-27.28665,2.330902,0.5691182,0.6918187,-1.454881,4.57069,-0.2583092,0.01527916,0.7039420999999999,-0.009887884,1.699679,-36.69611,33.63
3,-0.231842,-0.1065521,0.9668884,0.8822030999999999,-0.2633972,-0.1167145,0.9575958,-32.48659,-3.630295,-28.695390000000003,2.387268,0.572494,0.7353349,0.8813622999999999,-0.2083282,-0.09896851,0.9730225,31.36932,-3.317596,-27.28665,2.330902,0.5691182,0.6918187,-1.454881,4.57069,-0.2583092,0.01527916,0.7039420999999999,-0.009887884,1.699679,-36.69611,33.63
3,-0.231842,-0.1065521,0.9668884,0.8822030999999999,-0.2633972,-0.1167145,0.9575958,-32.48659,-3.630295,-28.695390000000003,2.387268,0.572494,0.7353349,0.8813622999999999,-0.2083282,-0.09896851,0.9730225,31.36932,-3.317596,-27.28665,2.330902,0.5691182,0.6918187,-1.454881,4.57069,-0.2583092,0.01527916,0.7039420999999999,-0.009887884,1.699679,-36.69611,33.63
3,-0.09899902,-0.01838684,0.9949036,0.6574601,-0.09899902,-0.01837158,0.9949036,-31.169590000000003,-2.176498,-29.574890000000003,2.012344,0.5060776,0.679082,0.6754013000000001,-0.1712646,-0.2254943999999999,0.9590607,32.62605,-3.3780360000000003,-27.53569,2.83934,0.5213249,0.7125007,-1.454881,4.57069,-0.2583092,0.01527916,0.7039420999999999,-0.009887884,1.699679,-36.69611,33.63
3,-0.09899902,-0.01838684,0.9949036,0.6574601,-0.09899902,-0.01837158,0.9949036,-31.169590000000003,-2.176498,-29.574890000000003,2.012344,0.5060776,0.679082,0.6754013000000001,-0.1712646,-0.2254943999999999,0.9590607,32.62605,-3.3780360000000003,-27.53569,2.83934,0.5213249,0.7125007,-1.454881,4.57069,-0.2583092,0.01527916,0.7039420999999999,-0.009887884,1.699679,-36.69611,33.63
3,-0.09899902,-0.01838684,0.9949036,0.6574601,-0.09899902,-0.01837158,0.9949036,-31.169590000000003,-2.176498,-29.574890000000003,2.012344,0.5060776,0.679082,0.6754013000000001,-0.1712646,-0.2254943999999999,0.9590607,32.62605,-3.3780360000000003,-27.53569,2.83934,0.5213249,0.7125007,-1.454881,4.57069,-0.2583092,0.01527916,0.7039420999999999,-0.009887884,1.699679,-36.69611,33.63
3,-1.0,-1.0,-1.0,0.2487834,0.0,0.0,0.0,-30.94534,2.036362,-46.20137,-1.0,-1.0,-1.0,0.1341249,0.0,0.0,0.0,33.5899,-5.932907,-28.29379,-1.0,-1.0,-1.0,-1.45491,4.570641,-0.2584587,0.01553845,0.7035836999999999,-0.0095207019999999,1.699679,-36.69611,33.63
3,-1.0,-1.0,-1.0,0.2487834,0.0,0.0,0.0,-30.94534,2.036362,-46.20137,-1.0,-1.0,-1.0,0.1341249,0.0,0.0,0.0,33.5899,-5.932907,-28.29379,-1.0,-1.0,-1.0,-1.45491,4.570641,-0.2584587,0.01553845,0.7035836999999999,-0.0095207019999999,1.699679,-36.69611,33.63
3,-1.0,-1.0,-1.0,0.2487834,0.0,0.0,0.0,-30.94534,2.036362,-46.20137,-1.0,-1.0,-1.0,0.1341249,0.0,0.0,0.0,33.5899,-5.932907,-28.29379,-1.0,-1.0,-1.0,-1.45491,4.570641,-0.2584587,0.01553845,0.7035836999999999,-0.0095207019999999,1.699679,-36.69611,33.63
3,-1.0,-1.0,-1.0,0.01882168,0.0,0.0,0.0,-30.94534,2.036362,-46.20137,-1.0,-1.0,-1.0,0.0676005,0.0,0.0,0.0,33.5899,-5.932907,-28.29379,-1.0,-1.0,-1.0,-1.455181,4.570455,-0.2585578999999999,0.01579325,0.7033767,-0.009892405,1.699679,-36.69611,33.63
3,-1.0,-1.0,-1.0,0.01882168,0.0,0.0,0.0,-30.94534,2.036362,-46.20137,-1.0,-1.0,-1.0,0.0676005,0.0,0.0,0.0,33.5899,-5.932907,-28.29379,-1.0,-1.0,-1.0,-1.455181,4.570455,-0.2585578999999999,0.01579325,0.7033767,-0.009892405,1.699679,-36.69611,33.63
3,-1.0,-1.0,-1.0,0.01882168,0.0,0.0,0.0,-30.94534,2.036362,-46.20137,-1.0,-1.0,-1.0,0.0676005,0.0,0.0,0.0,33.5899,-5.932907,-28.29379,-1.0,-1.0,-1.0,-1.455181,4.570455,-0.2585578999999999,0.01579325,0.7033767,-0.009892405,1.699679,-36.69611,33.63
3,-1.0,-1.0,-1.0,0.02597819,0.0,0.0,0.0,-30.94534,2.036362,-46.20137,-1.0,-1.0,-1.0,0.05567796,0.0,0.0,0.0,33.5899,-5.932907,-28.29379,-1.0,-1.0,-1.0,-1.455313,4.570522,-0.2582143999999999,0.01578606,0.7031839,-0.01003096,1.699679,-36.69611,33.63
3,-1.0,-1.0,-1.0,0.02597819,0.0,0.0,0.0,-30.94534,2.036362,-46.20137,-1.0,-1.0,-1.0,0.05567796,0.0,0.0,0.0,33.5899,-5.932907,-28.29379,-1.0,-1.0,-1.0,-1.455313,4.570522,-0.2582143999999999,0.01578606,0.7031839,-0.01003096,1.699679,-36.69611,33.63
3,-1.0,-1.0,-1.0,0.02597819,0.0,0.0,0.0,-30.94534,2.036362,-46.20137,-1.0,-1.0,-1.0,0.05567796,0.0,0.0,0.0,33.5899,-5.932907,-28.29379,-1.0,-1.0,-1.0,-1.455313,4.570522,-0.2582143999999999,0.01578606,0.7031839,-0.01003096,1.699679,-36.69611,33.63
3,-1.0,-1.0,-1.0,0.02597819,0.0,0.0,0.0,-30.94534,2.036362,-46.20137,-1.0,-1.0,-1.0,0.05567796,0.0,0.0,0.0,33.5899,-5.932907,-28.29379,-1.0,-1.0,-1.0,-1.455392,4.5704720000000005,-0.2581418,0.01597373,0.7029938,-0.009861665,1.699679,5.089687,33.63
3,-1.0,-1.0,-1.0,0.02597819,0.0,0.0,0.0,-30.94534,2.036362,-46.20137,-1.0,-1.0,-1.0,0.05567796,0.0,0.0,0.0,33.5899,-5.932907,-28.29379,-1.0,-1.0,-1.0,-1.455392,4.5704720000000005,-0.2581418,0.01597373,0.7029938,-0.009861665,1.699679,5.089687,33.63
3,-1.0,-1.0,-1.0,0.02597819,0.0,0.0,0.0,-30.94534,2.036362,-46.20137,-1.0,-1.0,-1.0,0.05567796,0.0,0.0,0.0,33.5899,-5.932907,-28.29379,-1.0,-1.0,-1.0,-1.455392,4.5704720000000005,-0.2581418,0.01597373,0.7029938,-0.009861665,1.699679,5.089687,33.63
3,-1.0,-1.0,-1.0,0.05345353,0.0,0.0,0.0,-30.94534,2.036362,-46.20137,-1.0,-1.0,-1.0,0.1614971,0.0,0.0,0.0,33.5899,-5.932907,-28.29379,-1.0,-1.0,-1.0,-1.455329,4.570525,-0.2578719,0.01612576,0.7028679,-0.009852974,1.699679,5.089687,33.63
3,-1.0,-1.0,-1.0,0.05345353,0.0,0.0,0.0,-30.94534,2.036362,-46.20137,-1.0,-1.0,-1.0,0.1614971,0.0,0.0,0.0,33.5899,-5.932907,-28.29379,-1.0,-1.0,-1.0,-1.455329,4.570525,-0.2578719,0.01612576,0.7028679,-0.009852974,1.699679,5.089687,33.63
3,-1.0,-1.0,-1.0,0.05345353,0.0,0.0,0.0,-30.94534,2.036362,-46.20137,-1.0,-1.0,-1.0,0.1614971,0.0,0.0,0.0,33.5899,-5.932907,-28.29379,-1.0,-1.0,-1.0,-1.455329,4.570525,-0.2578719,0.01612576,0.7028679,-0.009852974,1.699679,5.089687,33.63
3,-1.0,-1.0,-1.0,0.1251548,0.0,0.0,0.0,-30.94534,2.036362,-46.20137,-1.0,-1.0,-1.0,0.2422985,0.0,0.0,0.0,33.5899,-5.932907,-28.29379,-1.0,-1.0,-1.0,-1.455414,4.570663,-0.2577581,0.01632779,0.7026014,-0.009405754,1.699679,5.089687,33.63
3,-1.0,-1.0,-1.0,0.1251548,0.0,0.0,0.0,-30.94534,2.036362,-46.20137,-1.0,-1.0,-1.0,0.2422985,0.0,0.0,0.0,33.5899,-5.932907,-28.29379,-1.0,-1.0,-1.0,-1.455414,4.570663,-0.2577581,0.01632779,0.7026014,-0.009405754,1.699679,5.089687,33.63
3,-1.0,-1.0,-1.0,0.1251548,0.0,0.0,0.0,-30.94534,2.036362,-46.20137,-1.0,-1.0,-1.0,0.2422985,0.0,0.0,0.0,33.5899,-5.932907,-28.29379,-1.0,-1.0,-1.0,-1.455414,4.570663,-0.2577581,0.01632779,0.7026014,-0.009405754,1.699679,5.089687,33.63
3,-0.04776001,-0.01478577,0.9987488,0.1251548,-0.1158295,0.068573,0.9908905,-31.40062,-1.86734,-30.17215,2.240692,0.5167278000000001,0.6638089,0.2422985,-0.04776001,-0.01478577,0.9987488,32.41127,-1.309662,-30.04361,1.953827,0.515091,0.6380029,-1.455414,4.570663,-0.2577581,0.01632779,0.7026014,-0.009405754,1.699679,5.089687,33.63
3,-0.04776001,-0.01478577,0.9987488,0.1251548,-0.1158295,0.068573,0.9908905,-31.40062,-1.86734,-30.17215,2.240692,0.5167278000000001,0.6638089,0.2422985,-0.04776001,-0.01478577,0.9987488,32.41127,-1.309662,-30.04361,1.953827,0.515091,0.6380029,-1.455414,4.570663,-0.2577581,0.01632779,0.7026014,-0.009405754,1.699679,5.089687,33.63
3,-0.04776001,-0.01478577,0.9987488,0.1251548,-0.1158295,0.068573,0.9908905,-31.40062,-1.86734,-30.17215,2.240692,0.5167278000000001,0.6638089,0.2422985,-0.04776001,-0.01478577,0.9987488,32.41127,-1.309662,-30.04361,1.953827,0.515091,0.6380029,-1.455414,4.570663,-0.2577581,0.01632779,0.7026014,-0.009405754,1.699679,5.089687,33.63
3,-0.02770996,0.07348633,0.9969025,1.0,-0.07771301,0.08926392,0.9929657,-31.51268,-2.466873,-28.75285,2.173172,0.5150867,0.6673941,1.0,-0.02770996,0.07348633,0.9969025,32.44585,-2.075195,-28.00754,2.263474,0.5111194,0.6334639,-1.455544,4.570965,-0.2571384,0.01599459,0.7020238,-0.008430589,1.699679,5.089687,33.63
3,-0.02770996,0.07348633,0.9969025,1.0,-0.07771301,0.08926392,0.9929657,-31.51268,-2.466873,-28.75285,2.173172,0.5150867,0.6673941,1.0,-0.02770996,0.07348633,0.9969025,32.44585,-2.075195,-28.00754,2.263474,0.5111194,0.6334639,-1.455544,4.570965,-0.2571384,0.01599459,0.7020238,-0.008430589,1.699679,5.089687,33.63
3,-0.02770996,0.07348633,0.9969025,1.0,-0.07771301,0.08926392,0.9929657,-31.51268,-2.466873,-28.75285,2.173172,0.5150867,0.6673941,1.0,-0.02770996,0.07348633,0.9969025,32.44585,-2.075195,-28.00754,2.263474,0.5111194,0.6334639,-1.455544,4.570965,-0.2571384,0.01599459,0.7020238,-0.008430589,1.699679,5.089687,33.63
3,-0.07974243,0.09324646,0.9924316,1.0,-0.0798645,0.09327698,0.9924164,-31.51756,-2.481506,-28.7758,2.2278290000000003,0.5155761,0.6677234999999999,1.0,-0.0140686,0.07241821,0.9972687,32.42349,-1.921326,-28.61336,2.24324,0.5101988000000001,0.6341664,-1.455547,4.571178,-0.256609,0.01622594,0.7016356,-0.008122493,1.699679,-11.97102,33.63
3,-0.07974243,0.09324646,0.9924316,1.0,-0.0798645,0.09327698,0.9924164,-31.51756,-2.481506,-28.7758,2.2278290000000003,0.5155761,0.6677234999999999,1.0,-0.0140686,0.07241821,0.9972687,32.42349,-1.921326,-28.61336,2.24324,0.5101988000000001,0.6341664,-1.455547,4.571178,-0.256609,0.01622594,0.7016356,-0.008122493,1.699679,-11.97102,33.63
3,-0.07974243,0.09324646,0.9924316,1.0,-0.0798645,0.09327698,0.9924164,-31.51756,-2.481506,-28.7758,2.2278290000000003,0.5155761,0.6677234999999999,1.0,-0.0140686,0.07241821,0.9972687,32.42349,-1.921326,-28.61336,2.24324,0.5101988000000001,0.6341664,-1.455547,4.571178,-0.256609,0.01622594,0.7016356,-0.008122493,1.699679,-11.97102,33.63
3,-0.07858276,0.08987427,0.9928436,1.0,-0.07861328,0.08987427,0.9928436,-31.52182,-2.48555,-28.7733,2.247345,0.5155761,0.668291,1.0,-0.01502991,0.07933044,0.9967194,32.4241,-1.921326,-28.63033,2.337097,0.5101988000000001,0.6336203,-1.455659,4.571271,-0.2562900999999999,0.0161727,0.7013202,-0.008000263,1.699679,-11.97102,33.63
3,-0.07858276,0.08987427,0.9928436,1.0,-0.07861328,0.08987427,0.9928436,-31.52182,-2.48555,-28.7733,2.247345,0.5155761,0.668291,1.0,-0.01502991,0.07933044,0.9967194,32.4241,-1.921326,-28.63033,2.337097,0.5101988000000001,0.6336203,-1.455659,4.571271,-0.2562900999999999,0.0161727,0.7013202,-0.008000263,1.699679,-11.97102,33.63
3,-0.07858276,0.08987427,0.9928436,1.0,-0.07861328,0.08987427,0.9928436,-31.52182,-2.48555,-28.7733,2.247345,0.5155761,0.668291,1.0,-0.01502991,0.07933044,0.9967194,32.4241,-1.921326,-28.63033,2.337097,0.5101988000000001,0.6336203,-1.455659,4.571271,-0.2562900999999999,0.0161727,0.7013202,-0.008000263,1.699679,-11.97102,33.63
3,-0.0799408,0.08990479,0.9927216,1.0,-0.08021545,0.08995056,0.9927063,-31.5383,-2.5420990000000003,-28.70024,2.253448,0.5163137,0.6695198,1.0,-0.0103302,0.07696533,0.9969788,32.42342,-1.991058,-28.47498,2.301895,0.5096808,0.6347105,-1.455752,4.571363,-0.2561369,0.01590185,0.7009996000000001,-0.0076469519999999,1.699679,-11.97102,33.63
3,-0.0799408,0.08990479,0.9927216,1.0,-0.08021545,0.08995056,0.9927063,-31.5383,-2.5420990000000003,-28.70024,2.253448,0.5163137,0.6695198,1.0,-0.0103302,0.07696533,0.9969788,32.42342,-1.991058,-28.47498,2.301895,0.5096808,0.6347105,-1.455752,4.571363,-0.2561369,0.01590185,0.7009996000000001,-0.0076469519999999,1.699679,-11.97102,33.63
3,-0.0799408,0.08990479,0.9927216,1.0,-0.08021545,0.08995056,0.9927063,-31.5383,-2.5420990000000003,-28.70024,2.253448,0.5163137,0.6695198,1.0,-0.0103302,0.07696533,0.9969788,32.42342,-1.991058,-28.47498,2.301895,0.5096808,0.6347105,-1.455752,4.571363,-0.2561369,0.01590185,0.7009996000000001,-0.0076469519999999,1.699679,-11.97102,33.63
3,-0.0526885999999999,0.08415222,0.9950562,1.0,-0.0838623,0.08670044,0.992691,-31.55113,-2.575134,-28.62569,2.294235,0.5172032999999999,0.670367,1.0,-0.0105896,0.08058167,0.9966888,32.42307,-2.022308,-28.37773,2.263123,0.5097729999999999,0.6343313,-1.455752,4.571363,-0.2561369,0.01590185,0.7009996000000001,-0.0076469519999999,1.699679,-11.97102,33.63
3,-0.0526885999999999,0.08415222,0.9950562,1.0,-0.0838623,0.08670044,0.992691,-31.55113,-2.575134,-28.62569,2.294235,0.5172032999999999,0.670367,1.0,-0.0105896,0.08058167,0.9966888,32.42307,-2.022308,-28.37773,2.263123,0.5097729999999999,0.6343313,-1.455752,4.571363,-0.2561369,0.01590185,0.7009996000000001,-0.0076469519999999,1.699679,-11.97102,33.63
3,-0.0526885999999999,0.08415222,0.9950562,1.0,-0.0838623,0.08670044,0.992691,-31.55113,-2.575134,-28.62569,2.294235,0.5172032999999999,0.670367,1.0,-0.0105896,0.08058167,0.9966888,32.42307,-2.022308,-28.37773,2.263123,0.5097729999999999,0.6343313,-1.455752,4.571363,-0.2561369,0.01590185,0.7009996000000001,-0.0076469519999999,1.699679,-11.97102,33.63
3,-0.06837463,0.07775879,0.9946136,1.0,-0.08927917,0.07655334,0.9930573,-31.56496,-2.61731,-28.54761,2.407471,0.5183907999999999,0.6724684,1.0,-0.0140686,0.08071899,0.9966278,32.40485,-2.023102,-28.42935,2.270004,0.5108095,0.6348647,-1.455991,4.571661,-0.2558304,0.01563715,0.7009076999999999,-0.007328795,1.699679,-11.97102,33.63
3,-0.06837463,0.07775879,0.9946136,1.0,-0.08927917,0.07655334,0.9930573,-31.56496,-2.61731,-28.54761,2.407471,0.5183907999999999,0.6724684,1.0,-0.0140686,0.08071899,0.9966278,32.40485,-2.023102,-28.42935,2.270004,0.5108095,0.6348647,-1.455991,4.571661,-0.2558304,0.01563715,0.7009076999999999,-0.007328795,1.699679,-11.97102,33.63
3,-0.06837463,0.07775879,0.9946136,1.0,-0.08927917,0.07655334,0.9930573,-31.56496,-2.61731,-28.54761,2.407471,0.5183907999999999,0.6724684,1.0,-0.0140686,0.08071899,0.9966278,32.40485,-2.023102,-28.42935,2.270004,0.5108095,0.6348647,-1.455991,4.571661,-0.2558304,0.01563715,0.7009076999999999,-0.007328795,1.699679,-11.97102,33.63
3,-0.06924438,0.07563782,0.9947205,1.0,-0.08122253,0.07409668,0.993927,-31.56328,-2.626587,-28.516340000000003,2.391006,0.5173005,0.6727345,1.0,-0.01387024,0.08259583,0.9964752,32.40396,-2.031479,-28.41232,2.27478,0.5108095,0.6347536,-1.455991,4.571661,-0.2558304,0.01563715,0.7009076999999999,-0.007328795,1.699679,-11.97102,33.63
3,-0.06924438,0.07563782,0.9947205,1.0,-0.08122253,0.07409668,0.993927,-31.56328,-2.626587,-28.516340000000003,2.391006,0.5173005,0.6727345,1.0,-0.01387024,0.08259583,0.9964752,32.40396,-2.031479,-28.41232,2.27478,0.5108095,0.6347536,-1.455991,4.571661,-0.2558304,0.01563715,0.7009076999999999,-0.007328795,1.699679,-11.97102,33.63
3,-0.06924438,0.07563782,0.9947205,1.0,-0.08122253,0.07409668,0.993927,-31.56328,-2.626587,-28.516340000000003,2.391006,0.5173005,0.6727345,1.0,-0.01387024,0.08259583,0.9964752,32.40396,-2.031479,-28.41232,2.27478,0.5108095,0.6347536,-1.455991,4.571661,-0.2558304,0.01563715,0.7009076999999999,-0.007328795,1.699679,-11.97102,33.63
4,-0.07862854,0.07719421,0.9938965,1.0,-0.08630371,0.0763855,0.9933319,-31.56116,-2.623871,-28.52379,2.4228970000000003,0.5178897,0.672489,1.0,-0.01280212,0.0839386,0.9963837,32.3994,-2.037994,-28.40309,2.29599,0.5108095,0.6347536,-1.455876,4.572186,-0.2547368,0.01518095,0.7011595,-0.00657822,1.699679,28.80234,33.63
4,-0.07862854,0.07719421,0.9938965,1.0,-0.08630371,0.0763855,0.9933319,-31.56116,-2.623871,-28.52379,2.4228970000000003,0.5178897,0.672489,1.0,-0.01280212,0.0839386,0.9963837,32.3994,-2.037994,-28.40309,2.29599,0.5108095,0.6347536,-1.455876,4.572186,-0.2547368,0.01518095,0.7011595,-0.00657822,1.699679,28.80234,33.63
4,-0.07862854,0.07719421,0.9938965,1.0,-0.08630371,0.0763855,0.9933319,-31.56116,-2.623871,-28.52379,2.4228970000000003,0.5178897,0.672489,1.0,-0.01280212,0.0839386,0.9963837,32.3994,-2.037994,-28.40309,2.29599,0.5108095,0.6347536,-1.455876,4.572186,-0.2547368,0.01518095,0.7011595,-0.00657822,1.699679,28.80234,33.63
4,-0.07862854,0.07719421,0.9938965,1.0,-0.08630371,0.0763855,0.9933319,-31.56116,-2.623871,-28.52379,2.4228970000000003,0.5178897,0.672489,1.0,-0.01280212,0.0839386,0.9963837,32.3994,-2.037994,-28.40309,2.29599,0.5108095,0.6347536,-1.455911,4.572337999999999,-0.2543833,0.01520474,0.7011465,-0.0060341519999999,1.699679,28.80234,33.63
4,-0.07862854,0.07719421,0.9938965,1.0,-0.08630371,0.0763855,0.9933319,-31.56116,-2.623871,-28.52379,2.4228970000000003,0.5178897,0.672489,1.0,-0.01280212,0.0839386,0.9963837,32.3994,-2.037994,-28.40309,2.29599,0.5108095,0.6347536,-1.455911,4.572337999999999,-0.2543833,0.01520474,0.7011465,-0.0060341519999999,1.699679,28.80234,33.63
4,-0.07862854,0.07719421,0.9938965,1.0,-0.08630371,0.0763855,0.9933319,-31.56116,-2.623871,-28.52379,2.4228970000000003,0.5178897,0.672489,1.0,-0.01280212,0.0839386,0.9963837,32.3994,-2.037994,-28.40309,2.29599,0.5108095,0.6347536,-1.455911,4.572337999999999,-0.2543833,0.01520474,0.7011465,-0.0060341519999999,1.699679,28.80234,33.63
4,-0.0790863,0.07777405,0.9938202,1.0,-0.08613586,0.07699585,0.9933014,-31.5601,-2.623703,-28.53198,2.420273,0.5178343,0.672489,1.0,-0.0112915,0.08508301,0.9963074,32.3994,-2.078415,-28.28687,2.298416,0.5106254,0.6348520000000001,-1.456032,4.572547,-0.2539833,0.01526916,0.7009261999999999,-0.005510431,1.699679,28.80234,33.63
4,-0.0790863,0.07777405,0.9938202,1.0,-0.08613586,0.07699585,0.9933014,-31.5601,-2.623703,-28.53198,2.420273,0.5178343,0.672489,1.0,-0.0112915,0.08508301,0.9963074,32.3994,-2.078415,-28.28687,2.298416,0.5106254,0.6348520000000001,-1.456032,4.572547,-0.2539833,0.01526916,0.7009261999999999,-0.005510431,1.699679,28.80234,33.63
4,-0.0790863,0.07777405,0.9938202,1.0,-0.08613586,0.07699585,0.9933014,-31.5601,-2.623703,-28.53198,2.420273,0.5178343,0.672489,1.0,-0.0112915,0.08508301,0.9963074,32.3994,-2.078415,-28.28687,2.298416,0.5106254,0.6348520000000001,-1.456032,4.572547,-0.2539833,0.01526916,0.7009261999999999,-0.005510431,1.699679,28.80234,33.63
4,-0.0790863,0.07777405,0.9938202,1.0,-0.08613586,0.07699585,0.9933014,-31.5601,-2.623703,-28.53198,2.420273,0.5178343,0.672489,1.0,-0.0112915,0.08508301,0.9963074,32.3994,-2.078415,-28.28687,2.298416,0.5106254,0.6348520000000001,-1.456032,4.572547,-0.2539833,0.01526916,0.7009261999999999,-0.005510431,1.699679,28.80234,33.63
4,-0.0790863,0.07777405,0.9938202,1.0,-0.08613586,0.07699585,0.9933014,-31.5601,-2.623703,-28.53198,2.420273,0.5178343,0.672489,1.0,-0.0112915,0.08508301,0.9963074,32.3994,-2.078415,-28.28687,2.298416,0.5106254,0.6348520000000001,-1.456032,4.572547,-0.2539833,0.01526916,0.7009261999999999,-0.005510431,1.699679,28.80234,33.63
4,-0.0790863,0.07777405,0.9938202,1.0,-0.08613586,0.07699585,0.9933014,-31.5601,-2.623703,-28.53198,2.420273,0.5178343,0.672489,1.0,-0.0112915,0.08508301,0.9963074,32.3994,-2.078415,-28.28687,2.298416,0.5106254,0.6348520000000001,-1.456032,4.572547,-0.2539833,0.01526916,0.7009261999999999,-0.005510431,1.699679,28.80234,33.63
4,-0.07437134,0.07991028,0.9940186,1.0,-0.08535767,0.07878113,0.9932251,-31.55931,-2.626175,-28.529940000000003,2.419937,0.5177082000000001,0.6723292,1.0,-0.01159668,0.08621216,0.9962006,32.4008,-2.081314,-28.28638,2.293961,0.5106202,0.6348028,-1.456322,4.572598,-0.2534136,0.01554169,0.7001201,-0.004997807,1.699679,28.80234,33.63
4,-0.07437134,0.07991028,0.9940186,1.0,-0.08535767,0.07878113,0.9932251,-31.55931,-2.626175,-28.529940000000003,2.419937,0.5177082000000001,0.6723292,1.0,-0.01159668,0.08621216,0.9962006,32.4008,-2.081314,-28.28638,2.293961,0.5106202,0.6348028,-1.456322,4.572598,-0.2534136,0.01554169,0.7001201,-0.004997807,1.699679,28.80234,33.63
4,-0.07437134,0.07991028,0.9940186,1.0,-0.08535767,0.07878113,0.9932251,-31.55931,-2.626175,-28.529940000000003,2.419937,0.5177082000000001,0.6723292,1.0,-0.01159668,0.08621216,0.9962006,32.4008,-2.081314,-28.28638,2.293961,0.5106202,0.6348028,-1.456322,4.572598,-0.2534136,0.01554169,0.7001201,-0.004997807,1.699679,28.80234,33.63
4,-0.07437134,0.07991028,0.9940186,1.0,-0.08535767,0.07878113,0.9932251,-31.55931,-2.626175,-28.529940000000003,2.419937,0.5177082000000001,0.6723292,1.0,-0.01159668,0.08621216,0.9962006,32.4008,-2.081314,-28.28638,2.293961,0.5106202,0.6348028,-1.456492,4.572609,-0.2531902,0.01568259,0.6997395000000001,-0.0043724359999999,1.699679,0.2468414,33.63
4,-0.07437134,0.07991028,0.9940186,1.0,-0.08535767,0.07878113,0.9932251,-31.55931,-2.626175,-28.529940000000003,2.419937,0.5177082000000001,0.6723292,1.0,-0.01159668,0.08621216,0.9962006,32.4008,-2.081314,-28.28638,2.293961,0.5106202,0.6348028,-1.456492,4.572609,-0.2531902,0.01568259,0.6997395000000001,-0.0043724359999999,1.699679,0.2468414,33.63
4,-0.07437134,0.07991028,0.9940186,1.0,-0.08535767,0.07878113,0.9932251,-31.55931,-2.626175,-28.529940000000003,2.419937,0.5177082000000001,0.6723292,1.0,-0.01159668,0.08621216,0.9962006,32.4008,-2.081314,-28.28638,2.293961,0.5106202,0.6348028,-1.456492,4.572609,-0.2531902,0.01568259,0.6997395000000001,-0.0043724359999999,1.699679,0.2468414,33.63
4,-0.02157593,0.08776855,0.9958954,1.0,-0.07225037,0.09568787,0.9927826,-31.56743,-2.7176970000000003,-28.28653,2.355988,0.5162013,0.6707960000000001,1.0,-0.01091003,0.08607483,0.9962158,32.4044,-2.088196,-28.267290000000003,2.292068,0.5104153,0.6348608,-1.456567,4.572729,-0.2530103,0.01577803,0.6994144,-0.0037969559999999,1.699679,0.2468414,33.63
4,-0.02157593,0.08776855,0.9958954,1.0,-0.07225037,0.09568787,0.9927826,-31.56743,-2.7176970000000003,-28.28653,2.355988,0.5162013,0.6707960000000001,1.0,-0.01091003,0.08607483,0.9962158,32.4044,-2.088196,-28.267290000000003,2.292068,0.5104153,0.6348608,-1.456567,4.572729,-0.2530103,0.01577803,0.6994144,-0.0037969559999999,1.699679,0.2468414,33.63
4,-0.02157593,0.08776855,0.9958954,1.0,-0.07225037,0.09568787,0.9927826,-31.56743,-2.7176970000000003,-28.28653,2.355988,0.5162013,0.6707960000000001,1.0,-0.01091003,0.08607483,0.9962158,32.4044,-2.088196,-28.267290000000003,2.292068,0.5104153,0.6348608,-1.456567,4.572729,-0.2530103,0.01577803,0.6994144,-0.0037969559999999,1.699679,0.2468414,33.63
4,-0.02157593,0.08776855,0.9958954,1.0,-0.07225037,0.09568787,0.9927826,-31.56743,-2.7176970000000003,-28.28653,2.355988,0.5162013,0.6707960000000001,1.0,-0.01091003,0.08607483,0.9962158,32.4044,-2.088196,-28.267290000000003,2.292068,0.5104153,0.6348608,-1.456697,4.572876,-0.2529895,0.01569257,0.6993706999999999,-0.003140791,1.699679,0.2468414,33.63
4,-0.02157593,0.08776855,0.9958954,1.0,-0.07225037,0.09568787,0.9927826,-31.56743,-2.7176970000000003,-28.28653,2.355988,0.5162013,0.6707960000000001,1.0,-0.01091003,0.08607483,0.9962158,32.4044,-2.088196,-28.267290000000003,2.292068,0.5104153,0.6348608,-1.456697,4.572876,-0.2529895,0.01569257,0.6993706999999999,-0.003140791,1.699679,0.2468414,33.63
4,-0.02157593,0.08776855,0.9958954,1.0,-0.07225037,0.09568787,0.9927826,-31.56743,-2.7176970000000003,-28.28653,2.355988,0.5162013,0.6707960000000001,1.0,-0.01091003,0.08607483,0.9962158,32.4044,-2.088196,-28.267290000000003,2.292068,0.5104153,0.6348608,-1.456697,4.572876,-0.2529895,0.01569257,0.6993706999999999,-0.003140791,1.699679,0.2468414,33.63
4,-0.07493591,0.1049041999999999,0.9916534,1.0,-0.07493591,0.1049041999999999,0.9916534,-31.59981,-2.720184,-28.24582,2.110672,0.5174488,0.6689581,1.0,-0.04150391,0.09457397,0.9946442,32.484120000000004,-2.613297,-26.70996,2.196014,0.5116154,0.6364665,-1.456961,4.572873,-0.2530897,0.01554816,0.6991873000000001,-0.002473995,1.699679,0.2468414,33.63
4,-0.07493591,0.1049041999999999,0.9916534,1.0,-0.07493591,0.1049041999999999,0.9916534,-31.59981,-2.720184,-28.24582,2.110672,0.5174488,0.6689581,1.0,-0.04150391,0.09457397,0.9946442,32.484120000000004,-2.613297,-26.70996,2.196014,0.5116154,0.6364665,-1.456961,4.572873,-0.2530897,0.01554816,0.6991873000000001,-0.002473995,1.699679,0.2468414,33.63
4,-0.07493591,0.1049041999999999,0.9916534,1.0,-0.07493591,0.1049041999999999,0.9916534,-31.59981,-2.720184,-28.24582,2.110672,0.5174488,0.6689581,1.0,-0.04150391,0.09457397,0.9946442,32.484120000000004,-2.613297,-26.70996,2.196014,0.5116154,0.6364665,-1.456961,4.572873,-0.2530897,0.01554816,0.6991873000000001,-0.002473995,1.699679,0.2468414,33.63
4,-0.05924988,0.1018677,0.9930267,1.0,-0.07287598,0.1052551,0.9917603000000002,-31.6021,-2.722183,-28.25468,2.142288,0.5172974,0.6691208000000001,1.0,-0.03901672,0.09681702,0.9945221,32.481,-2.613297,-26.71667,2.20546,0.5114079,0.6362559,-1.456936,4.572853,-0.2531801,0.01556492,0.6991324000000001,-0.002230081,1.699679,0.2468414,33.63
4,-0.05924988,0.1018677,0.9930267,1.0,-0.07287598,0.1052551,0.9917603000000002,-31.6021,-2.722183,-28.25468,2.142288,0.5172974,0.6691208000000001,1.0,-0.03901672,0.09681702,0.9945221,32.481,-2.613297,-26.71667,2.20546,0.5114079,0.6362559,-1.456936,4.572853,-0.2531801,0.01556492,0.6991324000000001,-0.002230081,1.699679,0.2468414,33.63
4,-0.05924988,0.1018677,0.9930267,1.0,-0.07287598,0.1052551,0.9917603000000002,-31.6021,-2.722183,-28.25468,2.142288,0.5172974,0.6691208000000001,1.0,-0.03901672,0.09681702,0.9945221,32.481,-2.613297,-26.71667,2.20546,0.5114079,0.6362559,-1.456936,4.572853,-0.2531801,0.01556492,0.6991324000000001,-0.002230081,1.699679,0.2468414,33.63
4,-0.06988525,0.1034851,0.992157,1.0,-0.07263184,0.1038666,0.9919281,-31.60289,-2.722183,-28.25468,2.147888,0.5172974,0.6692945,1.0,-0.02990723,0.0978241,0.994751,32.44562,-2.44873,-27.2952,2.195175,0.5114834,0.6361294,-1.456913,4.572888,-0.2533246,0.01525183,0.699118,-0.002125741,1.699679,-21.33617,33.63
4,-0.06988525,0.1034851,0.992157,1.0,-0.07263184,0.1038666,0.9919281,-31.60289,-2.722183,-28.25468,2.147888,0.5172974,0.6692945,1.0,-0.02990723,0.0978241,0.994751,32.44562,-2.44873,-27.2952,2.195175,0.5114834,0.6361294,-1.456913,4.572888,-0.2533246,0.01525183,0.699118,-0.002125741,1.699679,-21.33617,33.63
4,-0.06988525,0.1034851,0.992157,1.0,-0.07263184,0.1038666,0.9919281,-31.60289,-2.722183,-28.25468,2.147888,0.5172974,0.6692945,1.0,-0.02990723,0.0978241,0.994751,32.44562,-2.44873,-27.2952,2.195175,0.5114834,0.6361294,-1.456913,4.572888,-0.2533246,0.01525183,0.699118,-0.002125741,1.699679,-21.33617,33.63
4,-0.07278442,0.103714,0.9919281,1.0,-0.07290649,0.1037292,0.9919281,-31.6021,-2.72493,-28.24582,2.143585,0.5172974,0.6693129,1.0,-0.03091431,0.09777832,0.9947205,32.4454,-2.444107,-27.29996,2.19458,0.5116154,0.6360328000000001,-1.456781,4.573047,-0.2532552,0.01502903,0.6990466999999999,-0.001810595,1.699679,-21.33617,33.63
4,-0.07278442,0.103714,0.9919281,1.0,-0.07290649,0.1037292,0.9919281,-31.6021,-2.72493,-28.24582,2.143585,0.5172974,0.6693129,1.0,-0.03091431,0.09777832,0.9947205,32.4454,-2.444107,-27.29996,2.19458,0.5116154,0.6360328000000001,-1.456781,4.573047,-0.2532552,0.01502903,0.6990466999999999,-0.001810595,1.699679,-21.33617,33.63
4,-0.07278442,0.103714,0.9919281,1.0,-0.07290649,0.1037292,0.9919281,-31.6021,-2.72493,-28.24582,2.143585,0.5172974,0.6693129,1.0,-0.03091431,0.09777832,0.9947205,32.4454,-2.444107,-27.29996,2.19458,0.5116154,0.6360328000000001,-1.456781,4.573047,-0.2532552,0.01502903,0.6990466999999999,-0.001810595,1.699679,-21.33617,33.63
4,-0.07296753,0.1040344,0.9918823,1.0,-0.07304382,0.1040497,0.9918823,-31.6021,-2.728348,-28.238740000000004,2.142166,0.5173092,0.6693129,1.0,-0.03204346,0.09777832,0.9946899,32.4453,-2.441345,-27.30966,2.194519,0.5117579000000001,0.6360328000000001,-1.45685,4.573039,-0.2533356,0.01511862,0.6989214,-0.001576315,1.699679,-21.33617,33.63
4,-0.07296753,0.1040344,0.9918823,1.0,-0.07304382,0.1040497,0.9918823,-31.6021,-2.728348,-28.238740000000004,2.142166,0.5173092,0.6693129,1.0,-0.03204346,0.09777832,0.9946899,32.4453,-2.441345,-27.30966,2.194519,0.5117579000000001,0.6360328000000001,-1.45685,4.573039,-0.2533356,0.01511862,0.6989214,-0.001576315,1.699679,-21.33617,33.63
4,-0.07296753,0.1040344,0.9918823,1.0,-0.07304382,0.1040497,0.9918823,-31.6021,-2.728348,-28.238740000000004,2.142166,0.5173092,0.6693129,1.0,-0.03204346,0.09777832,0.9946899,32.4453,-2.441345,-27.30966,2.194519,0.5117579000000001,0.6360328000000001,-1.45685,4.573039,-0.2533356,0.01511862,0.6989214,-0.001576315,1.699679,-21.33617,33.63
4,-0.03393555,0.0944518999999999,0.9949493,1.0,-0.07679749,0.1009674,0.9919128,-31.58002,-2.6847990000000004,-28.466690000000003,2.075485,0.5170748,0.6704288,1.0,-0.02983093,0.09382629,0.9951324,32.44699,-2.415466,-27.40683,2.151794,0.5114737,0.6365165,-1.45688,4.572948,-0.2533765,0.01447563,0.6987093000000001,-0.001767914,1.699679,-21.33617,33.63
4,-0.03393555,0.0944518999999999,0.9949493,1.0,-0.07679749,0.1009674,0.9919128,-31.58002,-2.6847990000000004,-28.466690000000003,2.075485,0.5170748,0.6704288,1.0,-0.02983093,0.09382629,0.9951324,32.44699,-2.415466,-27.40683,2.151794,0.5114737,0.6365165,-1.45688,4.572948,-0.2533765,0.01447563,0.6987093000000001,-0.001767914,1.699679,-21.33617,33.63
4,-0.03393555,0.0944518999999999,0.9949493,1.0,-0.07679749,0.1009674,0.9919128,-31.58002,-2.6847990000000004,-28.466690000000003,2.075485,0.5170748,0.6704288,1.0,-0.02983093,0.09382629,0.9951324,32.44699,-2.415466,-27.40683,2.151794,0.5114737,0.6365165,-1.45688,4.572948,-0.2533765,0.01447563,0.6987093000000001,-0.001767914,1.699679,-21.33617,33.63
4,-0.0408783,0.09552002,0.9945831,1.0,-0.07904053,0.1035918999999999,0.9914703,-31.57936,-2.716293,-28.36641,2.0877380000000003,0.5172971,0.6701894,1.0,-0.03019714,0.09324646,0.9951782,32.447140000000005,-2.415741,-27.40407,2.144485,0.5115219,0.6365559000000001,-1.45688,4.572948,-0.2533765,0.01447563,0.6987093000000001,-0.001767914,1.699679,-21.33617,33.63
4,-0.0408783,0.09552002,0.9945831,1.0,-0.07904053,0.1035918999999999,0.9914703,-31.57936,-2.716293,-28.36641,2.0877380000000003,0.5172971,0.6701894,1.0,-0.03019714,0.09324646,0.9951782,32.447140000000005,-2.415741,-27.40407,2.144485,0.5115219,0.6365559000000001,-1.45688,4.572948,-0.2533765,0.01447563,0.6987093000000001,-0.001767914,1.699679,-21.33617,33.63
4,-0.0408783,0.09552002,0.9945831,1.0,-0.07904053,0.1035918999999999,0.9914703,-31.57936,-2.716293,-28.36641,2.0877380000000003,0.5172971,0.6701894,1.0,-0.03019714,0.09324646,0.9951782,32.447140000000005,-2.415741,-27.40407,2.144485,0.5115219,0.6365559000000001,-1.45688,4.572948,-0.2533765,0.01447563,0.6987093000000001,-0.001767914,1.699679,-21.33617,33.63
4,-0.04536438,0.09686279,0.9942627,1.0,-0.08088684,0.1031647,0.9913635,-31.57559,-2.679169,-28.4754,2.080978,0.5174454,0.6700550999999999,1.0,-0.0304718,0.09417725,0.9950867,32.446909999999995,-2.41507,-27.40848,2.15033,0.5115572,0.6364747,-1.457043,4.572954,-0.2535324,0.01439899,0.6985918999999999,-0.001915571,1.699679,-21.33617,33.63
4,-0.04536438,0.09686279,0.9942627,1.0,-0.08088684,0.1031647,0.9913635,-31.57559,-2.679169,-28.4754,2.080978,0.5174454,0.6700550999999999,1.0,-0.0304718,0.09417725,0.9950867,32.446909999999995,-2.41507,-27.40848,2.15033,0.5115572,0.6364747,-1.457043,4.572954,-0.2535324,0.01439899,0.6985918999999999,-0.001915571,1.699679,-21.33617,33.63
4,-0.04536438,0.09686279,0.9942627,1.0,-0.08088684,0.1031647,0.9913635,-31.57559,-2.679169,-28.4754,2.080978,0.5174454,0.6700550999999999,1.0,-0.0304718,0.09417725,0.9950867,32.446909999999995,-2.41507,-27.40848,2.15033,0.5115572,0.6364747,-1.457043,4.572954,-0.2535324,0.01439899,0.6985918999999999,-0.001915571,1.699679,-21.33617,33.63
4,-0.04956055,0.09707642,0.9940338,1.0,-0.0806427,0.1026458999999999,0.9914398,-31.57466,-2.671997,-28.49405,2.075211,0.5173865,0.6700550999999999,1.0,-0.03059387,0.09362793,0.9951324,32.44463,-2.397659,-27.46091,2.156693,0.5116397,0.6364747,-1.456969,4.572996,-0.2537475,0.01405917,0.6986587,-0.002061688,1.699679,-1.931892,33.63
4,-0.04956055,0.09707642,0.9940338,1.0,-0.0806427,0.1026458999999999,0.9914398,-31.57466,-2.671997,-28.49405,2.075211,0.5173865,0.6700550999999999,1.0,-0.03059387,0.09362793,0.9951324,32.44463,-2.397659,-27.46091,2.156693,0.5116397,0.6364747,-1.456969,4.572996,-0.2537475,0.01405917,0.6986587,-0.002061688,1.699679,-1.931892,33.63
4,-0.04956055,0.09707642,0.9940338,1.0,-0.0806427,0.1026458999999999,0.9914398,-31.57466,-2.671997,-28.49405,2.075211,0.5173865,0.6700550999999999,1.0,-0.03059387,0.09362793,0.9951324,32.44463,-2.397659,-27.46091,2.156693,0.5116397,0.6364747,-1.456969,4.572996,-0.2537475,0.01405917,0.6986587,-0.002061688,1.699679,-1.931892,33.63
4,-0.1290894,0.1117706,0.9853058,1.0,-0.1302643,0.1118317,0.9851379,-31.95181,-2.439819,-29.21153,2.090714,0.5370789,0.6684532,1.0,-0.06507874,0.1078186,0.9920349,32.01155,-2.2656560000000003,-27.763340000000003,2.130005,0.5305456999999999,0.6334706999999999,-1.457052,4.573028,-0.2544987999999999,0.01291813,0.6988133000000001,-0.001730645,1.699679,-1.931892,33.63
4,-0.1290894,0.1117706,0.9853058,1.0,-0.1302643,0.1118317,0.9851379,-31.95181,-2.439819,-29.21153,2.090714,0.5370789,0.6684532,1.0,-0.06507874,0.1078186,0.9920349,32.01155,-2.2656560000000003,-27.763340000000003,2.130005,0.5305456999999999,0.6334706999999999,-1.457052,4.573028,-0.2544987999999999,0.01291813,0.6988133000000001,-0.001730645,1.699679,-1.931892,33.63
4,-0.1290894,0.1117706,0.9853058,1.0,-0.1302643,0.1118317,0.9851379,-31.95181,-2.439819,-29.21153,2.090714,0.5370789,0.6684532,1.0,-0.06507874,0.1078186,0.9920349,32.01155,-2.2656560000000003,-27.763340000000003,2.130005,0.5305456999999999,0.6334706999999999,-1.457052,4.573028,-0.2544987999999999,0.01291813,0.6988133000000001,-0.001730645,1.699679,-1.931892,33.63
4,-0.3019409,0.1327057,0.9440308,1.0,-0.3024292,0.1328582999999999,0.9438629,-32.78375,-2.8296810000000003,-28.68796,2.067978,0.5876004,0.6753161999999999,1.0,-0.2692413,0.1226501,0.9552155,31.11043,-2.278732,-28.03653,2.235428,0.5861121,0.6369249,-1.457111,4.573171,-0.2548972,0.01210898,0.6988663,-0.001444355,1.699679,-1.931892,33.63
4,-0.3019409,0.1327057,0.9440308,1.0,-0.3024292,0.1328582999999999,0.9438629,-32.78375,-2.8296810000000003,-28.68796,2.067978,0.5876004,0.6753161999999999,1.0,-0.2692413,0.1226501,0.9552155,31.11043,-2.278732,-28.03653,2.235428,0.5861121,0.6369249,-1.457111,4.573171,-0.2548972,0.01210898,0.6988663,-0.001444355,1.699679,-1.931892,33.63
4,-0.3019409,0.1327057,0.9440308,1.0,-0.3024292,0.1328582999999999,0.9438629,-32.78375,-2.8296810000000003,-28.68796,2.067978,0.5876004,0.6753161999999999,1.0,-0.2692413,0.1226501,0.9552155,31.11043,-2.278732,-28.03653,2.235428,0.5861121,0.6369249,-1.457111,4.573171,-0.2548972,0.01210898,0.6988663,-0.001444355,1.699679,-1.931892,33.63
4,-0.3059998,0.1207428,0.9443359,1.0,-0.3232269,0.1351166,0.936615,-32.88345,-2.81636,-28.7206,2.076859,0.593823,0.6751627,1.0,-0.291748,0.1089172,0.9502716,31.09331,-2.316895,-28.04616,2.219437,0.5895026999999999,0.6402689,-1.457134,4.573267,-0.2552059,0.01131885,0.6986535,-0.001093535,1.699679,9.227785,33.63
4,-0.3059998,0.1207428,0.9443359,1.0,-0.3232269,0.1351166,0.936615,-32.88345,-2.81636,-28.7206,2.076859,0.593823,0.6751627,1.0,-0.291748,0.1089172,0.9502716,31.09331,-2.316895,-28.04616,2.219437,0.5895026999999999,0.6402689,-1.457134,4.573267,-0.2552059,0.01131885,0.6986535,-0.001093535,1.699679,9.227785,33.63
4,-0.3059998,0.1207428,0.9443359,1.0,-0.3232269,0.1351166,0.936615,-32.88345,-2.81636,-28.7206,2.076859,0.593823,0.6751627,1.0,-0.291748,0.1089172,0.9502716,31.09331,-2.316895,-28.04616,2.219437,0.5895026999999999,0.6402689,-1.457134,4.573267,-0.2552059,0.01131885,0.6986535,-0.001093535,1.699679,9.227785,33.63
4,-0.3059998,0.1207428,0.9443359,1.0,-0.3232269,0.1351166,0.936615,-32.88345,-2.81636,-28.7206,2.076859,0.593823,0.6751627,1.0,-0.291748,0.1089172,0.9502716,31.09331,-2.316895,-28.04616,2.219437,0.5895026999999999,0.6402689,-1.457202,4.57342,-0.2551840999999999,0.01073785,0.6985028,-0.001197596,1.699679,9.227785,33.63
4,-0.3059998,0.1207428,0.9443359,1.0,-0.3232269,0.1351166,0.936615,-32.88345,-2.81636,-28.7206,2.076859,0.593823,0.6751627,1.0,-0.291748,0.1089172,0.9502716,31.09331,-2.316895,-28.04616,2.219437,0.5895026999999999,0.6402689,-1.457202,4.57342,-0.2551840999999999,0.01073785,0.6985028,-0.001197596,1.699679,9.227785,33.63
4,-0.3059998,0.1207428,0.9443359,1.0,-0.3232269,0.1351166,0.936615,-32.88345,-2.81636,-28.7206,2.076859,0.593823,0.6751627,1.0,-0.291748,0.1089172,0.9502716,31.09331,-2.316895,-28.04616,2.219437,0.5895026999999999,0.6402689,-1.457202,4.57342,-0.2551840999999999,0.01073785,0.6985028,-0.001197596,1.699679,9.227785,33.63
4,-0.3032074,0.1245117,0.9447479,1.0,-0.319931,0.1437836,0.9364624,-32.88368,-2.818954,-28.72116,2.106583,0.5934045,0.6742021,1.0,-0.2890167,0.1082611,0.9511719,31.09558,-2.318756,-28.04472,2.178955,0.5891586999999999,0.6403154999999999,-1.457202,4.57342,-0.2551840999999999,0.01073785,0.6985028,-0.001197596,1.699679,9.227785,33.63
4,-0.3032074,0.1245117,0.9447479,1.0,-0.319931,0.1437836,0.9364624,-32.88368,-2.818954,-28.72116,2.106583,0.5934045,0.6742021,1.0,-0.2890167,0.1082611,0.9511719,31.09558,-2.318756,-28.04472,2.178955,0.5891586999999999,0.6403154999999999,-1.457202,4.57342,-0.2551840999999999,0.01073785,0.6985028,-0.001197596,1.699679,9.227785,33.63
4,-0.3032074,0.1245117,0.9447479,1.0,-0.319931,0.1437836,0.9364624,-32.88368,-2.818954,-28.72116,2.106583,0.5934045,0.6742021,1.0,-0.2890167,0.1082611,0.9511719,31.09558,-2.318756,-28.04472,2.178955,0.5891586999999999,0.6403154999999999,-1.457202,4.57342,-0.2551840999999999,0.01073785,0.6985028,-0.001197596,1.699679,9.227785,33.63
4,-0.3032074,0.1245117,0.9447479,1.0,-0.319931,0.1437836,0.9364624,-32.88368,-2.818954,-28.72116,2.106583,0.5934045,0.6742021,1.0,-0.2890167,0.1082611,0.9511719,31.09558,-2.318756,-28.04472,2.178955,0.5891586999999999,0.6403154999999999,-1.457314,4.573339,-0.2553402,0.01036736,0.6982499,-0.001286091,1.699679,9.227785,33.63
4,-0.3032074,0.1245117,0.9447479,1.0,-0.319931,0.1437836,0.9364624,-32.88368,-2.818954,-28.72116,2.106583,0.5934045,0.6742021,1.0,-0.2890167,0.1082611,0.9511719,31.09558,-2.318756,-28.04472,2.178955,0.5891586999999999,0.6403154999999999,-1.457314,4.573339,-0.2553402,0.01036736,0.6982499,-0.001286091,1.699679,9.227785,33.63
4,-0.3032074,0.1245117,0.9447479,1.0,-0.319931,0.1437836,0.9364624,-32.88368,-2.818954,-28.72116,2.106583,0.5934045,0.6742021,1.0,-0.2890167,0.1082611,0.9511719,31.09558,-2.318756,-28.04472,2.178955,0.5891586999999999,0.6403154999999999,-1.457314,4.573339,-0.2553402,0.01036736,0.6982499,-0.001286091,1.699679,9.227785,33.63
4,-0.2942657,0.1161041,0.9486389,1.0,-0.3115387,0.1324463,0.9409485,-32.897870000000005,-2.837311,-28.70741,2.026718,0.5927718000000001,0.6758966,1.0,-0.2821349999999999,0.1047058,0.9536285,31.1208,-2.355499,-28.02528,2.169617,0.5874483,0.6417056,-1.4574120000000002,4.573256,-0.2555414,0.01000567,0.6981218000000001,-0.001192921,1.708649,9.227785,33.63
4,-0.2942657,0.1161041,0.9486389,1.0,-0.3115387,0.1324463,0.9409485,-32.897870000000005,-2.837311,-28.70741,2.026718,0.5927718000000001,0.6758966,1.0,-0.2821349999999999,0.1047058,0.9536285,31.1208,-2.355499,-28.02528,2.169617,0.5874483,0.6417056,-1.4574120000000002,4.573256,-0.2555414,0.01000567,0.6981218000000001,-0.001192921,1.708649,9.227785,33.63
4,-0.2942657,0.1161041,0.9486389,1.0,-0.3115387,0.1324463,0.9409485,-32.897870000000005,-2.837311,-28.70741,2.026718,0.5927718000000001,0.6758966,1.0,-0.2821349999999999,0.1047058,0.9536285,31.1208,-2.355499,-28.02528,2.169617,0.5874483,0.6417056,-1.4574120000000002,4.573256,-0.2555414,0.01000567,0.6981218000000001,-0.001192921,1.708649,9.227785,33.63
4,-0.2960052,0.1183928999999999,0.9478149,1.0,-0.3130950999999999,0.1341095,0.9401855,-32.90073,-2.834976,-28.7065,2.03421,0.5930749,0.6756241,1.0,-0.2847137,0.1080627,0.9524994,31.119090000000003,-2.355804,-28.029740000000004,2.154572,0.5878606,0.6413605,-1.457455,4.573263,-0.2559506,0.00957552,0.6986728,-0.0015283179999999,1.708649,9.227785,33.63
4,-0.2960052,0.1183928999999999,0.9478149,1.0,-0.3130950999999999,0.1341095,0.9401855,-32.90073,-2.834976,-28.7065,2.03421,0.5930749,0.6756241,1.0,-0.2847137,0.1080627,0.9524994,31.119090000000003,-2.355804,-28.029740000000004,2.154572,0.5878606,0.6413605,-1.457455,4.573263,-0.2559506,0.00957552,0.6986728,-0.0015283179999999,1.708649,9.227785,33.63
4,-0.2960052,0.1183928999999999,0.9478149,1.0,-0.3130950999999999,0.1341095,0.9401855,-32.90073,-2.834976,-28.7065,2.03421,0.5930749,0.6756241,1.0,-0.2847137,0.1080627,0.9524994,31.119090000000003,-2.355804,-28.029740000000004,2.154572,0.5878606,0.6413605,-1.457455,4.573263,-0.2559506,0.00957552,0.6986728,-0.0015283179999999,1.708649,12.08089,33.63
4,-0.2957764,0.1174926999999999,0.947998,1.0,-0.312027,0.1323395,0.9407959,-32.89925,-2.831909,-28.70618,2.050247,0.5928808000000001,0.6757441999999999,1.0,-0.285202,0.1078796,0.9523621,31.11928,-2.356659,-28.02782,2.184769,0.5878593000000001,0.6414288,-1.457421,4.57334,-0.2560136,0.009477563,0.6991467,-0.0015148529999999,1.708649,21.5747,33.63
