Second,eye_comb_direction_x,eye_comb_direction_y,eye_comb_direction_z,eye_r_openness,eye_r_direction_x,eye_r_direction_y,eye_r_direction_z,eye_r_origin_x,eye_r_origin_y,eye_r_origin_z,eye_r_pupil_diameter,eye_r_pupil_position_x,eye_r_pupil_position_y,eye_l_openness,eye_l_direction_x,eye_l_direction_y,eye_l_direction_z,eye_l_origin_x,eye_l_origin_y,eye_l_origin_z,eye_l_pupil_diameter,eye_l_pupil_position_x,eye_l_pupil_position_y,head_position_x,head_position_y,head_position_z,head_rotation_roll,head_rotation_pitch,head_rotation_yaw,EDA,BVP,TMP
0,0.0,0.0,0.0,0.0,0.0,0.0,0.0,0.0,0.0,0.0,0.0,0.0,0.0,0.0,0.0,0.0,0.0,0.0,0.0,0.0,0.0,0.0,0.0,0.0,0.0,0.0,0.0,0.0,0.0,2.5659213855625302,0.03901709422984053,32.160379043940125
0,-0.01171875,-0.1258392,0.9919739,0.933545,-0.05142212,-0.1128387,0.9922791,-32.09196,6.994934,-27.78409,6.178574,0.5174462,0.3606976,0.9989644,0.02635193,-0.138092,0.9900665,35.10318,4.908936,-29.15977,6.050064,0.4123174,0.4439491,0.0349437,1.231393,-0.04533774,-0.02252685,0.00571649,-0.003949876,2.5659213855625302,0.03901709422984053,32.160379043940125
1,-0.01248169,-0.1284027,0.9916382,1.0,-0.05249023,-0.1166382,0.9917755,-32.08385,6.994934,-27.75859,6.154526,0.5173318,0.3611458,1.0,0.02597046,-0.1395111,0.9898682,35.10469,4.920074,-29.17566,6.059265,0.4123174,0.4439491,0.03441226,1.230985,-0.0455094,-0.02028388,0.004751343,-0.003241191,2.5659213855625302,0.03901709422984053,32.160379043940125
1,-0.01248169,-0.1284027,0.9916382,1.0,-0.05249023,-0.1166382,0.9917755,-32.08385,6.994934,-27.75859,6.154526,0.5173318,0.3611458,1.0,0.02597046,-0.1395111,0.9898682,35.10469,4.920074,-29.17566,6.059265,0.4123174,0.4439491,0.03441226,1.230985,-0.0455094,-0.02028388,0.004751343,-0.003241191,2.5659213855625302,0.03901709422984053,32.160379043940125
1,-0.01248169,-0.1284027,0.9916382,1.0,-0.05249023,-0.1166382,0.9917755,-32.08385,6.994934,-27.75859,6.154526,0.5173318,0.3611458,1.0,0.02597046,-0.1395111,0.9898682,35.10469,4.920074,-29.17566,6.059265,0.4123174,0.4439491,0.03441226,1.230985,-0.0455094,-0.02028388,0.004751343,-0.003241191,2.5659213855625302,0.03901709422984053,32.160379043940125
1,-0.01248169,-0.1284027,0.9916382,1.0,-0.05249023,-0.1166382,0.9917755,-32.08385,6.994934,-27.75859,6.154526,0.5173318,0.3611458,1.0,0.02597046,-0.1395111,0.9898682,35.10469,4.920074,-29.17566,6.059265,0.4123174,0.4439491,0.03441226,1.230985,-0.0455094,-0.02028388,0.004751343,-0.003241191,2.5659213855625302,0.03901709422984053,32.160379043940125
1,-0.01248169,-0.1284027,0.9916382,1.0,-0.05249023,-0.1166382,0.9917755,-32.08385,6.994934,-27.75859,6.154526,0.5173318,0.3611458,1.0,0.02597046,-0.1395111,0.9898682,35.10469,4.920074,-29.17566,6.059265,0.4123174,0.4439491,0.03441226,1.230985,-0.0455094,-0.02028388,0.004751343,-0.003241191,2.5659213855625302,0.03901709422984053,32.160379043940125
1,-0.01248169,-0.1284027,0.9916382,1.0,-0.05249023,-0.1166382,0.9917755,-32.08385,6.994934,-27.75859,6.154526,0.5173318,0.3611458,1.0,0.02597046,-0.1395111,0.9898682,35.10469,4.920074,-29.17566,6.059265,0.4123174,0.4439491,0.03441226,1.230985,-0.0455094,-0.02028388,0.004751343,-0.003241191,2.5659213855625302,0.03901709422984053,32.160379043940125
1,-0.01248169,-0.1284027,0.9916382,1.0,-0.05249023,-0.1166382,0.9917755,-32.08385,6.994934,-27.75859,6.154526,0.5173318,0.3611458,1.0,0.02597046,-0.1395111,0.9898682,35.10469,4.920074,-29.17566,6.059265,0.4123174,0.4439491,0.03441226,1.230985,-0.0455094,-0.02028388,0.004751343,-0.003241191,2.5659213855625302,0.03901709422984053,32.160379043940125
1,-0.01248169,-0.1284027,0.9916382,1.0,-0.05249023,-0.1166382,0.9917755,-32.08385,6.994934,-27.75859,6.154526,0.5173318,0.3611458,1.0,0.02597046,-0.1395111,0.9898682,35.10469,4.920074,-29.17566,6.059265,0.4123174,0.4439491,0.03441226,1.230985,-0.0455094,-0.02028388,0.004751343,-0.003241191,2.5659213855625302,0.03901709422984053,32.160379043940125
1,-0.01248169,-0.1284027,0.9916382,1.0,-0.05249023,-0.1166382,0.9917755,-32.08385,6.994934,-27.75859,6.154526,0.5173318,0.3611458,1.0,0.02597046,-0.1395111,0.9898682,35.10469,4.920074,-29.17566,6.059265,0.4123174,0.4439491,0.03441226,1.230985,-0.0455094,-0.02028388,0.004751343,-0.003241191,2.5659213855625302,0.03901709422984053,32.160379043940125
1,-0.07458496,0.07762146,0.9941864,1.0,-0.07777405,0.07862854,0.9938507,-32.20782,7.49144,-26.74525,6.216003,0.525714,0.3033922,1.0,0.05245972,0.03672791,0.9979401,35.12956,5.622025,-29.28453,5.840424,0.4070574,0.3901486,0.03377903,1.229744,-0.04495049,-0.01629444,0.002335343,-0.002335343,2.5659213855625302,0.03901709422984053,32.160379043940125
1,-0.07458496,0.07762146,0.9941864,1.0,-0.07777405,0.07862854,0.9938507,-32.20782,7.49144,-26.74525,6.216003,0.525714,0.3033922,1.0,0.05245972,0.03672791,0.9979401,35.12956,5.622025,-29.28453,5.840424,0.4070574,0.3901486,0.03377903,1.229744,-0.04495049,-0.01629444,0.002335343,-0.002335343,2.5659213855625302,0.03901709422984053,32.160379043940125
1,-0.07458496,0.07762146,0.9941864,1.0,-0.07777405,0.07862854,0.9938507,-32.20782,7.49144,-26.74525,6.216003,0.525714,0.3033922,1.0,0.05245972,0.03672791,0.9979401,35.12956,5.622025,-29.28453,5.840424,0.4070574,0.3901486,0.03377903,1.229744,-0.04495049,-0.01629444,0.002335343,-0.002335343,2.5659213855625302,0.03901709422984053,32.160379043940125
1,-0.07458496,0.07762146,0.9941864,1.0,-0.07777405,0.07862854,0.9938507,-32.20782,7.49144,-26.74525,6.216003,0.525714,0.3033922,1.0,0.05245972,0.03672791,0.9979401,35.12956,5.622025,-29.28453,5.840424,0.4070574,0.3901486,0.03377903,1.229744,-0.04495049,-0.01629444,0.002335343,-0.002335343,2.5659213855625302,0.03901709422984053,32.160379043940125
1,-0.07458496,0.07762146,0.9941864,1.0,-0.07777405,0.07862854,0.9938507,-32.20782,7.49144,-26.74525,6.216003,0.525714,0.3033922,1.0,0.05245972,0.03672791,0.9979401,35.12956,5.622025,-29.28453,5.840424,0.4070574,0.3901486,0.03377903,1.229744,-0.04495049,-0.01629444,0.002335343,-0.002335343,2.5659213855625302,0.03901709422984053,32.160379043940125
1,0.00970459,0.05807495,0.9982605,1.0,-0.07182312,0.07958984,0.9942322,-32.21747,7.413864,-26.41022,6.173828,0.5249248,0.3033922,1.0,0.05723572,0.04534912,0.9973297,35.15794,5.539429,-29.06331,5.91362,0.4053847,0.3897282,0.03344369,1.229556,-0.04493457,-0.01530997,0.001960739,-0.001682623,2.5659213855625302,0.03901709422984053,32.160379043940125
1,0.00970459,0.05807495,0.9982605,1.0,-0.07182312,0.07958984,0.9942322,-32.21747,7.413864,-26.41022,6.173828,0.5249248,0.3033922,1.0,0.05723572,0.04534912,0.9973297,35.15794,5.539429,-29.06331,5.91362,0.4053847,0.3897282,0.03344369,1.229556,-0.04493457,-0.01530997,0.001960739,-0.001682623,2.5659213855625302,0.03901709422984053,32.160379043940125
1,-0.003112793,0.06149292,0.9980927,1.0,-0.07145691,0.07933044,0.994278,-32.21925,7.415466,-26.41205,6.161942,0.5249248,0.3033922,1.0,0.05773926,0.04534912,0.9972992,35.1559,5.534027,-29.04041,5.907913,0.4053847,0.3897282,0.03329325,1.22949,-0.04489255,-0.01516868,0.001687045,-0.00133163,2.5659213855625302,0.03901709422984053,32.160379043940125
1,-0.003311157,0.06298828,0.9980011,1.0,-0.07139587,0.07835388,0.9943542,-32.21951,7.419952,-26.41289,6.147812,0.5249248,0.3033922,1.0,0.0586853,0.04872131,0.9970856,35.15794,5.534027,-29.03461,5.864212,0.4051664,0.3890823,0.03323174,1.229505,-0.0448699,-0.01518929,0.001669286,-0.00105716,2.5659213855625302,0.03901709422984053,32.160379043940125
1,-0.003311157,0.06298828,0.9980011,1.0,-0.07139587,0.07835388,0.9943542,-32.21951,7.419952,-26.41289,6.147812,0.5249248,0.3033922,1.0,0.0586853,0.04872131,0.9970856,35.15794,5.534027,-29.03461,5.864212,0.4051664,0.3890823,0.03323174,1.229505,-0.0448699,-0.01518929,0.001669286,-0.00105716,2.5659213855625302,0.03901709422984053,32.160379043940125
1,0.03062439,0.05490112,0.9980164,1.0,-0.07489014,0.08270264,0.9937439,-32.22023,7.49144,-26.74525,6.112717,0.5256771,0.3027116,1.0,0.05841064,0.04745483,0.9971619,35.15982,5.53476,-29.04041,5.85585,0.4051432,0.3893198,0.03309286,1.229535,-0.04472584,-0.01508594,0.001375663,-0.0008188726,2.5659213855625302,0.03901709422984053,32.160379043940125
1,0.05995178,0.04586792,0.9971313,1.0,-0.06964111,0.08224487,0.9941711,-32.23625,7.529083,-26.87788,5.985794,0.5254416,0.302361,1.0,0.06129456,0.04548645,0.9970703,35.15916,5.539703,-29.04735,5.812912,0.4046846,0.3895193,0.03302538,1.229534,-0.04470038,-0.01510519,0.001381068,-0.0008097229,2.5659213855625302,0.03901709422984053,32.160379043940125
1,0.05995178,0.04586792,0.9971313,1.0,-0.06964111,0.08224487,0.9941711,-32.23625,7.529083,-26.87788,5.985794,0.5254416,0.302361,1.0,0.06129456,0.04548645,0.9970703,35.15916,5.539703,-29.04735,5.812912,0.4046846,0.3895193,0.03302538,1.229534,-0.04470038,-0.01510519,0.001381068,-0.0008097229,2.5659213855625302,0.03901709422984053,32.160379043940125
1,0.05827332,0.0464325,0.9972076,1.0,-0.06922913,0.08251953,0.9941711,-32.23814,7.529144,-26.88052,5.985184,0.5254416,0.302328,1.0,0.0592041,0.04615784,0.9971771,35.15852,5.539993,-29.04041,5.80809,0.4050655,0.3893414,0.03295243,1.229476,-0.04463136,-0.01483343,0.001381068,-0.000422864,2.5659213855625302,0.03901709422984053,32.160379043940125
1,0.05664063,0.04534912,0.9973602,1.0,-0.06906128,0.08424377,0.9940338,-32.24564,7.530289,-26.89561,5.944962,0.5256771,0.3021034,1.0,0.05934143,0.04449463,0.9972382,35.15852,5.5457,-29.03461,5.709564,0.4050655,0.3893414,0.03293598,1.22944,-0.04455352,-0.01483092,0.001397159,-0.0001220703,2.5659213855625302,0.03901709422984053,32.160379043940125
1,0.03137207,0.05271912,0.9981079,1.0,-0.06748962,0.08218384,0.9943237,-32.25322,7.534607,-26.90309,5.908463,0.5256771,0.302361,1.0,0.05934143,0.04426575,0.9972534,35.1559,5.546799,-29.03461,5.661713,0.4051664,0.3893198,0.03287494,1.229418,-0.04454267,-0.01476647,0.001397159,0.0001220703,2.5659213855625302,0.03901709422984053,32.160379043940125
1,0.03137207,0.05271912,0.9981079,1.0,-0.06748962,0.08218384,0.9943237,-32.25322,7.534607,-26.90309,5.908463,0.5256771,0.302361,1.0,0.05934143,0.04426575,0.9972534,35.1559,5.546799,-29.03461,5.661713,0.4051664,0.3893198,0.03287494,1.229418,-0.04454267,-0.01476647,0.001397159,0.0001220703,2.5659213855625302,0.03901709422984053,32.160379043940125
1,0.00163269,0.05897522,0.9982452,1.0,-0.06645203,0.07618713,0.994873,-32.26073,7.536224,-26.90657,5.820984,0.5257479,0.3033485,1.0,0.06013489,0.04396057,0.9972076,35.15202,5.549454,-29.04202,5.646698,0.4051664,0.3893414,0.03282559,1.229401,-0.04454792,-0.01489758,0.001454636,0.0001726335,2.5659213855625302,0.03901709422984053,32.160379043940125
1,0.00163269,0.05897522,0.9982452,1.0,-0.06645203,0.07618713,0.994873,-32.26073,7.536224,-26.90657,5.820984,0.5257479,0.3033485,1.0,0.06013489,0.04396057,0.9972076,35.15202,5.549454,-29.04202,5.646698,0.4051664,0.3893414,0.03279793,1.229378,-0.04453456,-0.01496196,0.001722014,0.0001220703,2.5659213855625302,0.03901709422984053,32.160379043940125
1,0.00163269,0.05897522,0.9982452,1.0,-0.06645203,0.07618713,0.994873,-32.26073,7.536224,-26.90657,5.820984,0.5257479,0.3033485,1.0,0.06013489,0.04396057,0.9972076,35.15202,5.549454,-29.04202,5.646698,0.4051664,0.3893414,0.03279793,1.229378,-0.04453456,-0.01496196,0.001722014,0.0001220703,2.5659213855625302,0.03901709422984053,32.160379043940125
1,0.00163269,0.05897522,0.9982452,1.0,-0.06645203,0.07618713,0.994873,-32.26073,7.536224,-26.90657,5.820984,0.5257479,0.3033485,1.0,0.06013489,0.04396057,0.9972076,35.15202,5.549454,-29.04202,5.646698,0.4051664,0.3893414,0.03272152,1.229327,-0.04450774,-0.01503795,0.001968325,0.0,2.5659213855625302,0.03901709422984053,32.160379043940125
1,0.00163269,0.05897522,0.9982452,1.0,-0.06645203,0.07618713,0.994873,-32.26073,7.536224,-26.90657,5.820984,0.5257479,0.3033485,1.0,0.06013489,0.04396057,0.9972076,35.15202,5.549454,-29.04202,5.646698,0.4051664,0.3893414,0.03271544,1.229298,-0.04449779,-0.01506221,0.002131867,0.000211432,2.5659213855625302,0.03901709422984053,32.160379043940125
1,0.00163269,0.05897522,0.9982452,1.0,-0.06645203,0.07618713,0.994873,-32.26073,7.536224,-26.90657,5.820984,0.5257479,0.3033485,1.0,0.06013489,0.04396057,0.9972076,35.15202,5.549454,-29.04202,5.646698,0.4051664,0.3893414,0.03271544,1.229298,-0.04449779,-0.01506221,0.002131867,0.000211432,2.5659213855625302,0.03901709422984053,32.160379043940125
1,0.0001373291,0.06135559,0.9981079,1.0,-0.06524658,0.07917786,0.9947205,-32.26627,7.538223,-26.91537,5.750092,0.5257479,0.3028388,1.0,0.06211853,0.04418945,0.9970856,35.14529,5.550507,-29.05081,5.60553,0.4050655,0.3893198,0.0326395,1.229306,-0.04447246,-0.01504142,0.002344894,0.000211432,2.5659213855625302,0.03901709422984053,32.160379043940125
1,0.0004577637,0.05769348,0.9983215,1.0,-0.06367493,0.0712738,0.9954071,-32.26791,7.542145,-26.93651,5.663177,0.5255392,0.3041984,1.0,0.06156921,0.04454041,0.9971008,35.14529,5.551819,-29.04715,5.480835,0.4051812,0.3891413,0.03266609,1.229272,-0.04454267,-0.01503002,0.00269109,0.00029901,2.5659213855625302,0.03901709422984053,32.160379043940125
1,0.003417969,0.05732727,0.9983368,1.0,-0.06254578,0.0716095,0.9954681,-32.27036,7.542145,-26.94925,5.618698,0.5254416,0.3042392,1.0,0.06135559,0.04455566,0.9971161,35.14529,5.551819,-29.03728,5.459564,0.4052252,0.3890401,0.0326792,1.229288,-0.0445708,-0.01501018,0.002826132,0.0002441407,2.501948,0.03901709422984053,32.160379043940125
1,0.003417969,0.05732727,0.9983368,1.0,-0.06254578,0.0716095,0.9954681,-32.27036,7.542145,-26.94925,5.618698,0.5254416,0.3042392,1.0,0.06135559,0.04455566,0.9971161,35.14529,5.551819,-29.03728,5.459564,0.4052252,0.3890401,0.0326792,1.229288,-0.0445708,-0.01501018,0.002826132,0.0002441407,2.501948,0.03901709422984053,32.160379043940125
1,0.003982544,0.05751038,0.9983215,1.0,-0.06169128,0.07168579,0.9955139,-32.27036,7.542145,-26.95163,5.584198,0.5253025,0.3042392,1.0,0.06124878,0.04493713,0.9971008,35.14529,5.550629,-29.0349,5.439255,0.4052496,0.3889945,0.03273571,1.229238,-0.04454207,-0.01500472,0.003363032,0.0001220703,2.501948,14.54928,32.160379043940125
1,0.003250122,0.05792236,0.9983063,1.0,-0.05786133,0.07164001,0.9957428,-32.27036,7.542145,-26.95163,5.362595,0.5246772,0.3042392,1.0,0.0594635,0.04510498,0.9972076,35.15422,5.554306,-29.0349,5.387466,0.4052496,0.3888043,0.03277385,1.229203,-0.04453635,-0.01495548,0.003558931,0.0,2.501948,14.54928,32.160379043940125
1,0.003250122,0.05792236,0.9983063,1.0,-0.05786133,0.07164001,0.9957428,-32.27036,7.542145,-26.95163,5.362595,0.5246772,0.3042392,1.0,0.0594635,0.04510498,0.9972076,35.15422,5.554306,-29.0349,5.387466,0.4052496,0.3888043,0.03277385,1.229203,-0.04453635,-0.01495548,0.003558931,0.0,2.501948,14.54928,32.160379043940125
1,0.002700806,0.05885315,0.9982605,1.0,-0.05592346,0.07246399,0.9957886,-32.26875,7.544968,-26.97261,5.319351,0.5243144,0.3041512,1.0,0.06008911,0.0453186,0.9971619,35.16106,5.557678,-29.02502,5.306473,0.4049239,0.3885421,0.03282022,1.229155,-0.04446006,-0.01464233,0.004019062,0.0,2.501948,14.54928,32.160379043940125
1,0.004486084,0.05975342,0.9981995,1.0,-0.05386353,0.0723877,0.9959106,-32.26807,7.545578,-26.97354,5.314758,0.5239549,0.3041512,1.0,0.06054688,0.04742432,0.9970245,35.1618,5.557678,-29.02502,5.265366,0.4048238,0.3881569,0.03297925,1.229154,-0.04438818,-0.01453816,0.004305467,0.0,2.501948,14.54928,32.160379043940125
1,0.005706787,0.06010437,0.9981689,1.0,-0.05278015,0.0723877,0.9959717,-32.2664,7.546158,-26.97609,5.267899,0.5237215,0.3041446,1.0,0.0609436,0.04832458,0.9969635,35.16257,5.557678,-29.02502,5.228943,0.4047371,0.3879904,0.03303587,1.229135,-0.04436469,-0.01451559,0.004567453,0.0,2.501948,14.54928,32.160379043940125
1,0.005706787,0.06010437,0.9981689,1.0,-0.05278015,0.0723877,0.9959717,-32.2664,7.546158,-26.97609,5.267899,0.5237215,0.3041446,1.0,0.0609436,0.04832458,0.9969635,35.16257,5.557678,-29.02502,5.228943,0.4047371,0.3879904,0.03303587,1.229135,-0.04436469,-0.01451559,0.004567453,0.0,2.501948,14.54928,32.160379043940125
1,0.005783081,0.06053162,0.9981384,1.0,-0.05297852,0.07341003,0.9958801,-32.26535,7.546219,-26.97893,5.257416,0.5237215,0.3039961,1.0,0.06098938,0.04823303,0.9969635,35.16463,5.557678,-29.02502,5.19693,0.4046608,0.3879904,0.03318667,1.229085,-0.04426801,-0.01432806,0.004905647,-0.0001220703,2.501948,14.54928,32.160379043940125
1,0.005630493,0.06231689,0.9980316,1.0,-0.05271912,0.07696533,0.995636,-32.26396,7.546219,-26.98969,5.238602,0.5236437,0.3034652,1.0,0.06054688,0.04830933,0.996994,35.16942,5.557678,-29.01935,5.171066,0.4045758,0.3879239,0.03320599,1.229057,-0.04422641,-0.01425246,0.005161713,0.0,2.501948,14.54928,32.160379043940125
1,0.005355835,0.06266785,0.9980164,1.0,-0.054245,0.07775879,0.9954834,-32.25635,7.548859,-26.99301,5.230804,0.5236437,0.3032658,1.0,0.06193542,0.04812622,0.9969177,35.17616,5.557739,-29.01935,5.13504,0.40411,0.3879239,0.03327417,1.229046,-0.04416645,-0.01417698,0.005354423,0.0,2.501948,14.54928,32.160379043940125
1,0.0050354,0.06227112,0.9980316,1.0,-0.05467224,0.07710266,0.9955139,-32.25053,7.552597,-26.99599,5.227661,0.5235206,0.3032658,1.0,0.06141663,0.04806519,0.9969482,35.17879,5.557953,-29.02231,5.112244,0.40411,0.3879378,0.03333986,1.228963,-0.04405004,-0.0140418,0.005516174,0.0,2.501948,14.54928,32.160379043940125
1,0.0050354,0.06227112,0.9980316,1.0,-0.05467224,0.07710266,0.9955139,-32.25053,7.552597,-26.99599,5.227661,0.5235206,0.3032658,1.0,0.06141663,0.04806519,0.9969482,35.17879,5.557953,-29.02231,5.112244,0.40411,0.3879378,0.03333986,1.228963,-0.04405004,-0.0140418,0.005516174,0.0,2.501948,14.54928,32.160379043940125
1,-0.0052948,0.02043152,0.9997711,1.0,-0.07704163,0.05570984,0.9954681,-32.30334,7.450302,-27.10754,5.101959,0.5289491,0.3112818,1.0,0.02201843,0.006973267,0.9997253,34.96771,5.447235,-29.04117,4.681076,0.4182202,0.3990008,0.03339243,1.228915,-0.04391241,-0.01385754,0.005661484,-0.0001220703,2.501948,14.54928,32.160379043940125
1,-0.01295471,0.004699707,0.9998932,1.0,-0.09013367,0.03338623,0.9953613,-32.39993,7.387802,-27.31369,4.986282,0.5343588,0.3189248,1.0,0.002822876,-0.001144409,0.9999847,34.84077,5.268387,-28.75046,4.883545,0.4259395,0.4042763,0.03347969,1.228887,-0.0438537,-0.01370345,0.005785154,-0.0001726335,2.501948,14.54928,32.160379043940125
1,-0.02183533,0.006164551,0.9997406,1.0,-0.09434509,0.03425598,0.9949341,-32.42087,7.341034,-27.11903,4.959442,0.535665,0.3188646,1.0,0.009719849,-0.00604248,0.9999237,34.90263,5.381592,-29.11995,4.813202,0.4225018,0.4043094,0.03347337,1.228827,-0.04384959,-0.01354816,0.005952727,-0.0001726335,2.501948,-3.027108,32.160379043940125
1,-0.02183533,0.006164551,0.9997406,1.0,-0.09434509,0.03425598,0.9949341,-32.42087,7.341034,-27.11903,4.959442,0.535665,0.3188646,1.0,0.009719849,-0.00604248,0.9999237,34.90263,5.381592,-29.11995,4.813202,0.4225018,0.4043094,0.03347337,1.228827,-0.04384959,-0.01354816,0.005952727,-0.0001726335,2.501948,-3.027108,32.160379043940125
1,-0.03504944,0.009384155,0.9993286,1.0,-0.09333801,0.0317688,0.9951172,-32.42229,7.341537,-27.12299,4.957962,0.5355369,0.3193178,1.0,0.006912231,-0.006713867,0.999939,34.90083,5.387222,-29.13843,4.78363,0.4230324,0.4043578,0.03354776,1.228759,-0.04381716,-0.0133079,0.006072921,-0.0001220703,2.501948,-3.027108,32.160379043940125
1,-0.05853271,0.01780701,0.9981232,1.0,-0.09283447,0.03071594,0.9951935,-32.42517,7.335785,-27.09406,4.934937,0.5355369,0.3194662,1.0,0.006835938,-0.006729126,0.999939,34.90134,5.387222,-29.13843,4.755646,0.4230324,0.4043578,0.03359687,1.228695,-0.04378057,-0.01307293,0.006235153,-0.000211432,2.501948,-3.027108,32.160379043940125
1,-0.06748962,0.02146912,0.9974823,1.0,-0.09179688,0.03076172,0.9953003,-32.42662,7.341034,-27.07935,4.919922,0.5354088,0.3191708,1.0,0.006515503,-0.006835938,0.9999542,34.90398,5.392059,-29.15332,4.731415,0.4229924,0.4043213,0.03373134,1.228631,-0.0436765,-0.01278071,0.006580485,-0.00029901,2.501948,-3.027108,32.160379043940125
1,-0.07206726,0.0243988,0.9970856,1.0,-0.08924866,0.0309906,0.9955139,-32.43015,7.342041,-27.08763,4.9133,0.5351113,0.3191614,1.0,0.007064819,-0.005966187,0.9999542,34.90977,5.398636,-29.1722,4.753387,0.4226859,0.4041094,0.03376186,1.228615,-0.04365337,-0.01255961,0.006710537,-0.0003860202,2.501948,-3.027108,32.160379043940125
1,-0.07206726,0.0243988,0.9970856,1.0,-0.08924866,0.0309906,0.9955139,-32.43015,7.342041,-27.08763,4.9133,0.5351113,0.3191614,1.0,0.007064819,-0.005966187,0.9999542,34.90977,5.398636,-29.1722,4.753387,0.4226859,0.4041094,0.03376186,1.228615,-0.04365337,-0.01255961,0.006710537,-0.0003860202,2.501948,-3.027108,32.160379043940125
1,-0.05247498,0.01782227,0.9984589,1.0,-0.08862305,0.0317688,0.9955444,-32.43283,7.343216,-27.11105,4.909103,0.5351113,0.3191614,1.0,0.007720947,-0.005401611,0.9999542,34.91435,5.404816,-29.18796,4.728577,0.4224156,0.4039175,0.03376687,1.228538,-0.04361248,-0.01234239,0.006871811,-0.0004727763,2.501948,-3.027108,32.160379043940125
1,-0.04371643,0.01353455,0.9989471,1.0,-0.08934021,0.03068542,0.9955139,-32.43356,7.348053,-27.10625,4.908676,0.5352513,0.3191369,1.0,0.007446289,-0.005661011,0.9999542,34.91577,5.409225,-29.19974,4.705322,0.4224117,0.4039008,0.03377032,1.2285,-0.04351318,-0.01210221,0.006998579,-0.0004401308,2.501948,-3.027108,32.160379043940125
1,-0.04441833,0.01263428,0.9989319,1.0,-0.08914185,0.02894592,0.9955902,-32.43449,7.357727,-27.11032,4.907288,0.5352513,0.3191369,1.0,0.007247925,-0.00617981,0.9999542,34.92148,5.416,-29.21791,4.672287,0.4222442,0.4038962,0.03379643,1.228385,-0.04341066,-0.01161016,0.007203183,-0.0005179005,2.501948,-3.027108,32.160379043940125
1,-0.04431152,0.01257324,0.9989319,1.0,-0.08825684,0.02810669,0.995697,-32.43469,7.362579,-27.11105,4.906708,0.5351113,0.3191123,1.0,0.007278442,-0.005645752,0.9999542,34.92354,5.418243,-29.2245,4.669205,0.4221662,0.403784,0.03382981,1.228354,-0.04331219,-0.01133612,0.007217649,-0.0005179005,2.501948,-3.027108,32.160379043940125
1,-0.04478455,0.01315308,0.9989014,1.0,-0.08990479,0.02876282,0.9955292,-32.43481,7.363861,-27.11105,4.906097,0.5353912,0.3189551,1.0,0.008468628,-0.005233765,0.999939,34.92667,5.422943,-29.23958,4.665894,0.4218494,0.4036703,0.03375113,1.228274,-0.04320133,-0.01099446,0.007250607,-0.0004567453,2.501948,-3.027108,32.160379043940125
1,-0.04478455,0.01315308,0.9989014,1.0,-0.08990479,0.02876282,0.9955292,-32.43481,7.363861,-27.11105,4.906097,0.5353912,0.3189551,1.0,0.008468628,-0.005233765,0.999939,34.92667,5.422943,-29.23958,4.665894,0.4218494,0.4036703,0.03375113,1.228274,-0.04320133,-0.01099446,0.007250607,-0.0004567453,2.501948,-3.027108,32.160379043940125
1,-0.04515076,0.01434326,0.9988708,1.0,-0.08854675,0.02957153,0.9956207,-32.43668,7.364166,-27.11105,4.860519,0.5352323,0.3188125,1.0,0.007659912,-0.004165649,0.9999542,34.93048,5.428116,-29.24805,4.665665,0.4218546,0.4033737,0.03379714,1.228255,-0.04314739,-0.01073039,0.007222809,-0.0004048614,2.501948,-3.027108,32.160379043940125
1,-0.04225159,0.01757813,0.9989471,1.0,-0.08589172,0.0342865,0.9957123,-32.43826,7.373138,-27.12045,4.840317,0.5348682,0.3177535,1.0,0.008529663,-0.001861572,0.9999542,34.93434,5.436356,-29.25737,4.651855,0.4215716,0.4027643,0.03381073,1.228154,-0.04305613,-0.010481,0.007230026,-0.00029901,2.501948,-3.027108,32.160379043940125
1,-0.04232788,0.01612854,0.9989624,1.0,-0.0884552,0.03361511,0.9954987,-32.43988,7.38562,-27.12254,4.799072,0.5353525,0.31745,1.0,0.007553101,-0.0027771,0.9999542,34.93979,5.444077,-29.25737,4.638687,0.4215505,0.4026524,0.03379524,1.228081,-0.04299033,-0.01035441,0.007173124,-0.0003229677,2.501948,-30.10445,32.160379043940125
1,-0.04232788,0.01612854,0.9989624,1.0,-0.0884552,0.03361511,0.9954987,-32.43988,7.38562,-27.12254,4.799072,0.5353525,0.31745,1.0,0.007553101,-0.0027771,0.9999542,34.93979,5.444077,-29.25737,4.638687,0.4215505,0.4026524,0.03379524,1.228081,-0.04299033,-0.01035441,0.007173124,-0.0003229677,2.501948,-30.10445,32.160379043940125
1,-0.03907776,0.01445007,0.9991302,1.0,-0.08824158,0.03288269,0.9955444,-32.44026,7.397659,-27.15944,4.773331,0.5353525,0.31745,1.0,0.007415771,-0.002975464,0.9999542,34.94054,5.447678,-29.25748,4.635391,0.4215505,0.4025526,0.03375757,1.227962,-0.04287159,-0.009773252,0.007113673,-0.0002441406,2.501948,-45.3596,32.160379043940125
1,-0.0330658,0.01211548,0.9993744,1.0,-0.08743286,0.03128052,0.9956665,-32.44354,7.414688,-27.20889,4.766312,0.5353525,0.3175143,1.0,0.008346558,-0.002487183,0.9999542,34.94054,5.448883,-29.25748,4.617828,0.421395,0.4024144,0.03373373,1.227891,-0.04279339,-0.009437386,0.007053721,-0.0001220703,2.501948,-45.3596,32.160379043940125
1,-0.0330658,0.01211548,0.9993744,1.0,-0.08743286,0.03128052,0.9956665,-32.44354,7.414688,-27.20889,4.766312,0.5353525,0.3175143,1.0,0.008346558,-0.002487183,0.9999542,34.94054,5.448883,-29.25748,4.617828,0.421395,0.4024144,0.03373373,1.227891,-0.04279339,-0.009437386,0.007053721,-0.0001220703,2.501948,-45.3596,32.160379043940125
1,-0.03085327,0.0118866,0.9994507,1.0,-0.08717346,0.03158569,0.9956818,-32.44469,7.415848,-27.21423,4.749634,0.5353525,0.31745,1.0,0.008346558,-0.001815796,0.9999542,34.94054,5.448883,-29.25748,4.613373,0.421395,0.4023006,0.03372419,1.227764,-0.04272377,-0.009173973,0.007012406,0.0,2.501948,-45.3596,32.160379043940125
1,-0.02862549,0.01094055,0.999527,1.0,-0.08659363,0.03143311,0.9957428,-32.44724,7.419159,-27.22639,4.717087,0.5353525,0.31745,1.0,0.007736206,-0.00189209,0.9999542,34.94054,5.449127,-29.2446,4.60289,0.4215081,0.4021996,0.03366339,1.227682,-0.04268193,-0.00884652,0.006991124,0.0,2.501948,-45.3596,32.160379043940125
1,-0.02890015,0.01133728,0.9995117,1.0,-0.08651733,0.03291321,0.995697,-32.44746,7.419312,-27.22946,4.702957,0.5353525,0.3172105,1.0,0.007736206,-0.002365112,0.9999542,34.94054,5.450027,-29.23746,4.600418,0.4215125,0.4021922,0.03363121,1.227521,-0.0426538,-0.00829719,0.006894541,0.0,2.501948,-45.3596,32.160379043940125
1,-0.03427124,0.01463318,0.9992981,1.0,-0.08610535,0.03282166,0.9957428,-32.44939,7.421005,-27.23575,4.692017,0.5353525,0.3172105,1.0,0.008514404,-0.0003814697,0.9999542,34.93703,5.453964,-29.21834,4.592667,0.4215125,0.4015437,0.03359544,1.227459,-0.04258811,-0.00794958,0.006852267,-0.0001220703,2.501948,-45.3596,32.160379043940125
1,-0.03427124,0.01463318,0.9992981,1.0,-0.08610535,0.03282166,0.9957428,-32.44939,7.421005,-27.23575,4.692017,0.5353525,0.3172105,1.0,0.008514404,-0.0003814697,0.9999542,34.93703,5.453964,-29.21834,4.592667,0.4215125,0.4015437,0.03359544,1.227459,-0.04258811,-0.00794958,0.006852267,-0.0001220703,2.501948,-45.3596,32.160379043940125
1,-0.0398407,0.01707458,0.999054,1.0,-0.0856781,0.03198242,0.9958038,-32.45297,7.425995,-27.23668,4.680588,0.5354046,0.3171869,1.0,0.009124756,0.00112915,0.9999542,34.93323,5.450638,-29.20325,4.576538,0.4215505,0.4012581,0.03354084,1.227315,-0.04248893,-0.007392061,0.006932261,0.0,2.501948,-45.3596,32.160379043940125
1,-0.0428772,0.01760864,0.9989166,1.0,-0.08555603,0.03196716,0.9958191,-32.45511,7.428513,-27.24803,4.679474,0.5354623,0.3171869,1.0,0.008621216,0.0002746582,0.9999542,34.92766,5.450027,-29.17552,4.510757,0.4218538,0.4011684,0.0335182,1.227301,-0.04239035,-0.007050551,0.006954795,0.0001726335,2.501948,-45.3596,32.160379043940125
1,-0.04298401,0.01763916,0.9989166,1.0,-0.08509827,0.03187561,0.9958496,-32.45731,7.430466,-27.25375,4.674774,0.5354623,0.3171869,1.0,0.009155273,0.0,0.9999542,34.9252,5.448883,-29.16264,4.505783,0.4218538,0.4011422,0.03346825,1.227258,-0.04232275,-0.006865303,0.007055833,0.000211432,2.501948,-45.3596,32.160379043940125
1,-0.04170227,0.01702881,0.9989777,1.0,-0.08465576,0.03149414,0.9959106,-32.46092,7.438538,-27.27094,4.654404,0.5355217,0.3170974,1.0,0.0100708,-0.0003967285,0.999939,34.92101,5.450027,-29.14149,4.494415,0.4218538,0.4009893,0.03347933,1.227213,-0.04228967,-0.006768025,0.007039976,0.0001726335,2.501948,-45.3596,32.160379043940125
1,-0.04170227,0.01702881,0.9989777,1.0,-0.08465576,0.03149414,0.9959106,-32.46092,7.438538,-27.27094,4.654404,0.5355217,0.3170974,1.0,0.0100708,-0.0003967285,0.999939,34.92101,5.450027,-29.14149,4.494415,0.4218538,0.4009893,0.03347933,1.227213,-0.04228967,-0.006768025,0.007039976,0.0001726335,2.501948,-45.3596,32.160379043940125
1,-0.04434204,0.01971436,0.9988098,1.0,-0.08389282,0.03416443,0.9958801,-32.46643,7.44165,-27.27823,4.624298,0.5355927,0.3165824,1.0,0.01094055,-0.0004882813,0.999939,34.91417,5.450592,-29.08214,4.495239,0.4219705,0.4004831,0.03347278,1.227081,-0.04222894,-0.0064996,0.007108434,0.0002729575,2.501948,-45.3596,32.160379043940125
1,-0.04434204,0.01971436,0.9988098,1.0,-0.08389282,0.03416443,0.9958801,-32.46643,7.44165,-27.27823,4.624298,0.5355927,0.3165824,1.0,0.01094055,-0.0004882813,0.999939,34.91417,5.450592,-29.08214,4.495239,0.4219705,0.4004831,0.03349841,1.227018,-0.04218984,-0.006367579,0.007141896,0.0003229677,2.501948,-45.3596,32.160379043940125
1,-0.04434204,0.01971436,0.9988098,1.0,-0.08389282,0.03416443,0.9958801,-32.46643,7.44165,-27.27823,4.624298,0.5355927,0.3165824,1.0,0.01094055,-0.0004882813,0.999939,34.91417,5.450592,-29.08214,4.495239,0.4219705,0.4004831,0.03350794,1.226976,-0.04216284,-0.006178736,0.007145025,0.0003860203,2.501948,28.6247,32.160379043940125
1,-0.04434204,0.01971436,0.9988098,1.0,-0.08389282,0.03416443,0.9958801,-32.46643,7.44165,-27.27823,4.624298,0.5355927,0.3165824,1.0,0.01094055,-0.0004882813,0.999939,34.91417,5.450592,-29.08214,4.495239,0.4219705,0.4004831,0.03350794,1.226976,-0.04216284,-0.006178736,0.007145025,0.0003860203,2.501948,28.6247,32.160379043940125
1,-0.04434204,0.01971436,0.9988098,1.0,-0.08389282,0.03416443,0.9958801,-32.46643,7.44165,-27.27823,4.624298,0.5355927,0.3165824,1.0,0.01094055,-0.0004882813,0.999939,34.91417,5.450592,-29.08214,4.495239,0.4219705,0.4004831,0.0335474,1.22695,-0.04204893,-0.005922612,0.00728955,0.00029901,2.501948,28.6247,32.160379043940125
1,-0.04434204,0.01971436,0.9988098,1.0,-0.08389282,0.03416443,0.9958801,-32.46643,7.44165,-27.27823,4.624298,0.5355927,0.3165824,1.0,0.01094055,-0.0004882813,0.999939,34.91417,5.450592,-29.08214,4.495239,0.4219705,0.4004831,0.03354192,1.226943,-0.04201066,-0.005746388,0.007409176,0.0,2.501948,28.6247,32.160379043940125
1,-0.04434204,0.01971436,0.9988098,1.0,-0.08389282,0.03416443,0.9958801,-32.46643,7.44165,-27.27823,4.624298,0.5355927,0.3165824,1.0,0.01094055,-0.0004882813,0.999939,34.91417,5.450592,-29.08214,4.495239,0.4219705,0.4004831,0.03354192,1.226943,-0.04201066,-0.005746388,0.007409176,0.0,2.501948,28.6247,32.160379043940125
1,-0.03944397,0.02545166,0.9988861,1.0,-0.08389282,0.04013062,0.9956512,-32.48735,7.540176,-27.54109,4.602936,0.5364607,0.3142098,1.0,0.004638672,0.01086426,0.9999237,34.89598,5.483932,-29.05508,4.44342,0.4237099,0.3971342,0.03360832,1.226912,-0.0419215,-0.005327918,0.007604696,0.0,2.501948,28.6247,32.160379043940125
1,0.002944946,0.01210022,0.9999084,1.0,-0.08406067,0.04017639,0.995636,-32.49245,7.558975,-27.64888,4.590591,0.5367318,0.3142871,1.0,0.008560181,0.01026917,0.9999084,34.89536,5.476822,-29.04123,4.451981,0.4230646,0.3973628,0.03367627,1.226845,-0.04191017,-0.00468502,0.007792448,0.0001220703,2.501948,28.6247,32.160379043940125
2,0.006744385,0.01101685,0.9999084,1.0,-0.08296204,0.04376221,0.995575,-32.49286,7.558975,-27.64915,4.589111,0.5365745,0.313677,1.0,0.008392334,0.01040649,0.9999084,34.89589,5.479599,-29.06122,4.466751,0.4230646,0.3974191,0.03367627,1.226845,-0.04191017,-0.00468502,0.007792448,0.0001220703,2.501948,28.6247,32.160379043940125
2,0.004882813,0.01397705,0.9998779,1.0,-0.08361816,0.04452515,0.9954987,-32.49373,7.565674,-27.68156,4.586472,0.5367318,0.3135608,1.0,0.007919312,0.01292419,0.9998779,34.89796,5.481552,-29.08276,4.466187,0.4230646,0.397095,0.03372705,1.226756,-0.04191041,-0.004380947,0.00798045,0.0001726335,2.501948,28.6247,32.160379043940125
2,0.004882813,0.01397705,0.9998779,1.0,-0.08361816,0.04452515,0.9954987,-32.49373,7.565674,-27.68156,4.586472,0.5367318,0.3135608,1.0,0.007919312,0.01292419,0.9998779,34.89796,5.481552,-29.08276,4.466187,0.4230646,0.397095,0.03372705,1.226756,-0.04191041,-0.004380947,0.00798045,0.0001726335,2.501948,28.6247,32.160379043940125
2,0.006500244,0.01516724,0.9998627,1.0,-0.07769775,0.02528381,0.9966431,-32.51494,7.808456,-28.34375,4.541626,0.5368044,0.3135361,1.0,0.008010864,0.01498413,0.9998474,34.90178,5.483917,-29.09891,4.463074,0.4229128,0.3967984,0.03379345,1.226665,-0.04184085,-0.004162938,0.00820781,0.0001220703,2.501948,28.6247,32.160379043940125
2,0.007843018,0.01350403,0.9998779,1.0,-0.07713318,0.02554321,0.9966888,-32.51495,7.811539,-28.34799,4.541046,0.5367318,0.3133104,1.0,0.007995605,0.01348877,0.9998627,34.90244,5.487305,-29.0938,4.46257,0.4228925,0.3968903,0.03390563,1.226584,-0.04172814,-0.003760479,0.008303474,0.0001220703,2.501948,28.6247,32.160379043940125
2,0.007843018,0.01350403,0.9998779,1.0,-0.07713318,0.02554321,0.9966888,-32.51495,7.811539,-28.34799,4.541046,0.5367318,0.3133104,1.0,0.007995605,0.01348877,0.9998627,34.90244,5.487305,-29.0938,4.46257,0.4228925,0.3968903,0.03390563,1.226584,-0.04172814,-0.003760479,0.008303474,0.0001220703,2.501948,28.6247,32.160379043940125
2,0.008026123,0.01445007,0.9998627,1.0,-0.07774353,0.02593994,0.9966278,-32.51517,7.820923,-28.35429,4.53569,0.5368494,0.3129651,1.0,0.008041382,0.01445007,0.9998627,34.90587,5.494186,-29.09241,4.452805,0.4227689,0.3964687,0.03392756,1.226473,-0.04171133,-0.003059073,0.008508222,0.0,2.501948,28.6247,32.160379043940125
2,0.008026123,0.01445007,0.9998627,1.0,-0.07774353,0.02593994,0.9966278,-32.51517,7.820923,-28.35429,4.53569,0.5368494,0.3129651,1.0,0.008041382,0.01445007,0.9998627,34.90587,5.494186,-29.09241,4.452805,0.4227689,0.3964687,0.03392756,1.226473,-0.04171133,-0.003059073,0.008508222,0.0,2.501948,28.6247,32.160379043940125
2,0.007034302,0.01567078,0.9998474,1.0,-0.07806396,0.0275116,0.9965668,-32.52028,7.846542,-28.45425,4.53157,0.5371342,0.3125729,1.0,0.008758545,0.01542664,0.9998322,34.90828,5.497726,-29.09743,4.451004,0.422563,0.3962171,0.03399646,1.226301,-0.04162824,-0.002064397,0.008595346,-0.0001726335,2.501948,63.64968,32.160379043940125
2,0.007034302,0.01567078,0.9998474,1.0,-0.07806396,0.0275116,0.9965668,-32.52028,7.846542,-28.45425,4.53157,0.5371342,0.3125729,1.0,0.008758545,0.01542664,0.9998322,34.90828,5.497726,-29.09743,4.451004,0.422563,0.3962171,0.03399646,1.226301,-0.04162824,-0.002064397,0.008595346,-0.0001726335,2.501948,63.64968,32.160379043940125
2,-0.01359558,0.01974487,0.9997101,1.0,-0.0770874,0.02809143,0.9966125,-32.52336,7.870499,-28.5425,4.526077,0.5371342,0.3122995,1.0,0.009918213,0.01663208,0.9998016,34.90964,5.501007,-29.09891,4.449875,0.4223175,0.3959071,0.03413975,1.226142,-0.04160774,-0.001407783,0.008778036,-0.0001220703,2.501948,63.64968,32.160379043940125
2,-0.01359558,0.01974487,0.9997101,1.0,-0.0770874,0.02809143,0.9966125,-32.52336,7.870499,-28.5425,4.526077,0.5371342,0.3122995,1.0,0.009918213,0.01663208,0.9998016,34.90964,5.501007,-29.09891,4.449875,0.4223175,0.3959071,0.03413975,1.226142,-0.04160774,-0.001407783,0.008778036,-0.0001220703,2.501948,63.64968,32.160379043940125
2,-0.006149292,0.02359009,0.9996948,1.0,-0.07681274,0.03102112,0.9965515,-32.52431,7.875763,-28.55046,4.532349,0.5371342,0.3116479,1.0,0.01077271,0.02178955,0.9996948,34.91594,5.508774,-29.09891,4.448486,0.4219553,0.3947408,0.03422141,1.226057,-0.04147071,-0.0008004686,0.008974452,-0.0002729575,2.501948,63.64968,32.160379043940125
2,-0.006149292,0.02359009,0.9996948,1.0,-0.07681274,0.03102112,0.9965515,-32.52431,7.875763,-28.55046,4.532349,0.5371342,0.3116479,1.0,0.01077271,0.02178955,0.9996948,34.91594,5.508774,-29.09891,4.448486,0.4219553,0.3947408,0.03422141,1.226057,-0.04147071,-0.0008004686,0.008974452,-0.0002729575,2.501948,63.64968,32.160379043940125
2,-0.02059937,0.02668762,0.9994202,1.0,-0.07620239,0.03277588,0.9965515,-32.52684,7.87767,-28.56581,4.565903,0.5371304,0.3113834,1.0,0.0111084,0.02316284,0.9996643,34.92143,5.511566,-29.10036,4.44458,0.4217097,0.3944067,0.0342778,1.225898,-0.04133308,-0.0001220703,0.009218533,-0.0002729575,2.501948,63.64968,32.160379043940125
2,-0.02059937,0.02668762,0.9994202,1.0,-0.07620239,0.03277588,0.9965515,-32.52684,7.87767,-28.56581,4.565903,0.5371304,0.3113834,1.0,0.0111084,0.02316284,0.9996643,34.92143,5.511566,-29.10036,4.44458,0.4217097,0.3944067,0.0342778,1.225898,-0.04133308,-0.0001220703,0.009218533,-0.0002729575,2.501948,63.64968,32.160379043940125
2,-0.0309906,0.02975464,0.9990692,1.0,-0.07595825,0.03430176,0.9965057,-32.52782,7.888046,-28.56581,4.564941,0.5371304,0.3107497,1.0,0.01042175,0.0255127,0.9996185,34.92564,5.522202,-29.10564,4.444778,0.4216804,0.393691,0.03437555,1.225725,-0.04120171,0.0007623289,0.009213681,-0.0001220703,2.501948,63.64968,32.160379043940125
2,-0.0309906,0.02975464,0.9990692,1.0,-0.07595825,0.03430176,0.9965057,-32.52782,7.888046,-28.56581,4.564941,0.5371304,0.3107497,1.0,0.01042175,0.0255127,0.9996185,34.92564,5.522202,-29.10564,4.444778,0.4216804,0.393691,0.03437555,1.225725,-0.04120171,0.0007623289,0.009213681,-0.0001220703,2.501948,63.64968,32.160379043940125
2,-0.02902222,0.02874756,0.9991608,1.0,-0.07345581,0.03619385,0.9966278,-32.52933,7.929062,-28.64299,4.575287,0.5368198,0.3095686,1.0,0.008789063,0.02236938,0.9997101,34.93602,5.559647,-29.13286,4.449966,0.4215881,0.3931591,0.03435147,1.225437,-0.04106081,0.00187528,0.009322208,-0.0002441406,2.501948,63.64968,32.160379043940125
2,-0.02902222,0.02874756,0.9991608,1.0,-0.07345581,0.03619385,0.9966278,-32.52933,7.929062,-28.64299,4.575287,0.5368198,0.3095686,1.0,0.008789063,0.02236938,0.9997101,34.93602,5.559647,-29.13286,4.449966,0.4215881,0.3931591,0.03435147,1.225437,-0.04106081,0.00187528,0.009322208,-0.0002441406,2.501948,63.64968,32.160379043940125
2,-0.01887512,-0.01390076,0.9997101,1.0,-0.03800964,-0.008514404,0.9992371,-32.25722,7.687592,-28.91187,4.638916,0.5215467,0.3280016,1.0,0.03909302,-0.03019714,0.998764,34.96043,5.366623,-29.49654,4.409714,0.4153357,0.4119941,0.03431952,1.22516,-0.04090047,0.003046871,0.009424745,-0.0001220703,2.501948,63.64968,32.160379043940125
2,-0.01887512,-0.01390076,0.9997101,1.0,-0.03800964,-0.008514404,0.9992371,-32.25722,7.687592,-28.91187,4.638916,0.5215467,0.3280016,1.0,0.03909302,-0.03019714,0.998764,34.96043,5.366623,-29.49654,4.409714,0.4153357,0.4119941,0.03431952,1.22516,-0.04090047,0.003046871,0.009424745,-0.0001220703,2.501948,63.64968,32.160379043940125
2,0.06022644,-0.0879364,0.9942932,1.0,-0.03875732,-0.05711365,0.9976044,-32.03674,6.878067,-27.09538,4.718414,0.5133991,0.3498576,1.0,0.06025696,-0.08795166,0.9942932,34.98886,5.094666,-29.53754,4.475098,0.4106189,0.4318302,0.0343281,1.224905,-0.04078716,0.003957413,0.009446854,0.0001220703,2.501948,63.64968,32.160379043940125
2,0.06022644,-0.0879364,0.9942932,1.0,-0.03875732,-0.05711365,0.9976044,-32.03674,6.878067,-27.09538,4.718414,0.5133991,0.3498576,1.0,0.06025696,-0.08795166,0.9942932,34.98886,5.094666,-29.53754,4.475098,0.4106189,0.4318302,0.0343281,1.224905,-0.04078716,0.003957413,0.009446854,0.0001220703,2.501948,63.64968,32.160379043940125
2,0.0587616,-0.09196472,0.9940186,1.0,-0.03509521,-0.06477356,0.9972687,-32.09839,7.033051,-27.58266,4.672104,0.5150147,0.3498516,1.0,0.0587616,-0.09196472,0.9940186,35.05902,5.119644,-29.62448,4.468857,0.4083864,0.4323998,0.03423727,1.224746,-0.04057437,0.004622582,0.009447643,0.0001726335,2.501948,31.84273,32.160379043940125
2,0.0587616,-0.09196472,0.9940186,1.0,-0.03509521,-0.06477356,0.9972687,-32.09839,7.033051,-27.58266,4.672104,0.5150147,0.3498516,1.0,0.0587616,-0.09196472,0.9940186,35.05902,5.119644,-29.62448,4.468857,0.4083864,0.4323998,0.03423727,1.224746,-0.04057437,0.004622582,0.009447643,0.0001726335,2.501948,31.84273,32.160379043940125
2,0.05363464,-0.08738708,0.9947205,1.0,-0.01473999,-0.07661438,0.9969482,-32.18338,7.573364,-29.59099,4.581329,0.5152472,0.3492585,1.0,0.05363464,-0.08738708,0.9947205,35.08427,5.196091,-29.83197,4.470825,0.4082794,0.4307704,0.03428102,1.224521,-0.04030895,0.00547142,0.009666705,0.0001220703,2.501948,31.84273,32.160379043940125
2,0.05363464,-0.08738708,0.9947205,1.0,-0.01473999,-0.07661438,0.9969482,-32.18338,7.573364,-29.59099,4.581329,0.5152472,0.3492585,1.0,0.05363464,-0.08738708,0.9947205,35.08427,5.196091,-29.83197,4.470825,0.4082794,0.4307704,0.03428102,1.224521,-0.04030895,0.00547142,0.009666705,0.0001220703,2.501948,31.84273,32.160379043940125
2,0.04727173,-0.08848572,0.9949493,1.0,-0.02449036,-0.07070923,0.9971924,-32.15063,7.28775,-28.50066,4.637833,0.5153826,0.3492374,1.0,0.04727173,-0.08848572,0.9949493,35.09676,5.187149,-29.76859,4.437973,0.4089711,0.4306946,0.03435934,1.224396,-0.04018998,0.006259006,0.009825713,-0.0001220703,2.501948,31.84273,32.160379043940125
2,0.04727173,-0.08848572,0.9949493,1.0,-0.02449036,-0.07070923,0.9971924,-32.15063,7.28775,-28.50066,4.637833,0.5153826,0.3492374,1.0,0.04727173,-0.08848572,0.9949493,35.09676,5.187149,-29.76859,4.437973,0.4089711,0.4306946,0.03435934,1.224396,-0.04018998,0.006259006,0.009825713,-0.0001220703,2.501948,31.84273,32.160379043940125
2,0.04832458,-0.08865356,0.9948883,1.0,-0.02713013,-0.07009888,0.9971619,-32.1526,7.145615,-27.83836,4.671982,0.515645,0.3487767,1.0,0.04832458,-0.08865356,0.9948883,35.10516,5.180161,-29.71867,4.445572,0.4085242,0.4305319,0.03439534,1.224217,-0.03999555,0.00673492,0.01004098,-0.0001726335,2.501948,31.84273,32.160379043940125
2,0.04832458,-0.08865356,0.9948883,1.0,-0.02713013,-0.07009888,0.9971619,-32.1526,7.145615,-27.83836,4.671982,0.515645,0.3487767,1.0,0.04832458,-0.08865356,0.9948883,35.10516,5.180161,-29.71867,4.445572,0.4085242,0.4305319,0.03439534,1.224217,-0.03999555,0.00673492,0.01004098,-0.0001726335,2.501948,31.84273,32.160379043940125
2,0.04838562,-0.08410645,0.9952698,1.0,-0.02824402,-0.06834412,0.9972534,-32.15662,7.147018,-27.8179,4.693497,0.5159482,0.3483498,1.0,0.04838562,-0.08410645,0.9952698,35.11943,5.165924,-29.63017,4.453705,0.4080691,0.4294394,0.03438652,1.224127,-0.03997415,0.007141896,0.0103328,-0.0004727763,2.501948,31.84273,32.160379043940125
2,0.04838562,-0.08410645,0.9952698,1.0,-0.02824402,-0.06834412,0.9972534,-32.15662,7.147018,-27.8179,4.693497,0.5159482,0.3483498,1.0,0.04838562,-0.08410645,0.9952698,35.11943,5.165924,-29.63017,4.453705,0.4080691,0.4294394,0.03438652,1.224127,-0.03997415,0.007141896,0.0103328,-0.0004727763,2.501948,31.84273,32.160379043940125
2,0.05093384,-0.08283997,0.9952545,1.0,-0.02854919,-0.06690979,0.997345,-32.1606,7.151657,-27.82707,4.708939,0.5161384,0.3480186,1.0,0.05093384,-0.08283997,0.9952545,35.12527,5.155273,-29.58057,4.464951,0.4074569,0.4291545,0.03443789,1.223948,-0.03991026,0.007804867,0.01062222,-0.0006686067,2.501948,31.84273,32.160379043940125
2,0.05093384,-0.08283997,0.9952545,1.0,-0.02854919,-0.06690979,0.997345,-32.1606,7.151657,-27.82707,4.708939,0.5161384,0.3480186,1.0,0.05093384,-0.08283997,0.9952545,35.12527,5.155273,-29.58057,4.464951,0.4074569,0.4291545,0.03443789,1.223948,-0.03991026,0.007804867,0.01062222,-0.0006686067,2.501948,31.84273,32.160379043940125
2,0.03239441,-0.07676697,0.996521,1.0,-0.02749634,-0.05979919,0.997818,-32.16541,7.16246,-27.83836,4.737656,0.5161424,0.3465193,1.0,0.05155945,-0.08215332,0.9952698,35.13249,5.15007,-29.51543,4.482513,0.407135,0.4286439,0.03456497,1.223764,-0.03976905,0.008922831,0.01100869,-0.000836872,2.501948,31.84273,32.160379043940125
2,0.03239441,-0.07676697,0.996521,1.0,-0.02749634,-0.05979919,0.997818,-32.16541,7.16246,-27.83836,4.737656,0.5161424,0.3465193,1.0,0.05155945,-0.08215332,0.9952698,35.13249,5.15007,-29.51543,4.482513,0.407135,0.4286439,0.03456497,1.223764,-0.03976905,0.008922831,0.01100869,-0.000836872,2.501948,31.84273,32.160379043940125
2,-0.004150391,-0.06689453,0.9977417,1.0,-0.03157043,-0.05921936,0.9977417,-32.16759,7.170593,-27.8593,4.762192,0.5168928,0.346311,1.0,0.05297852,-0.0827179,0.995163,35.13759,5.147583,-29.45267,4.509171,0.4067496,0.4282832,0.03456628,1.22354,-0.03963125,0.01016267,0.01142189,-0.001028583,2.501948,-24.55009,32.160379043940125
2,-0.004150391,-0.06689453,0.9977417,1.0,-0.03157043,-0.05921936,0.9977417,-32.16759,7.170593,-27.8593,4.762192,0.5168928,0.346311,1.0,0.05297852,-0.0827179,0.995163,35.13759,5.147583,-29.45267,4.509171,0.4067496,0.4282832,0.03456628,1.22354,-0.03963125,0.01016267,0.01142189,-0.001028583,2.501948,-24.55009,32.160379043940125
2,-0.00352478,-0.06440735,0.9979095,1.0,-0.03118896,-0.05780029,0.9978333,-32.16899,7.175827,-27.88857,4.770279,0.5168928,0.3461155,1.0,0.05178833,-0.07746887,0.995636,35.14868,5.118561,-29.3625,4.53566,0.406618,0.4275924,0.03463137,1.223386,-0.03948009,0.01095101,0.0117543,-0.0008802616,2.501948,-24.55009,32.160379043940125
2,-0.00352478,-0.06440735,0.9979095,1.0,-0.03118896,-0.05780029,0.9978333,-32.16899,7.175827,-27.88857,4.770279,0.5168928,0.3461155,1.0,0.05178833,-0.07746887,0.995636,35.14868,5.118561,-29.3625,4.53566,0.406618,0.4275924,0.03463137,1.223386,-0.03948009,0.01095101,0.0117543,-0.0008802616,2.501948,-24.55009,32.160379043940125
2,-0.007659912,-0.0632782,0.9979553,1.0,-0.0308075,-0.0574646,0.9978638,-32.17088,7.177795,-27.88857,4.776169,0.5168928,0.3459896,1.0,0.05122375,-0.0778656,0.995636,35.15291,5.116058,-29.33226,4.536758,0.4065854,0.427481,0.03465545,1.223279,-0.03937542,0.01163004,0.01199461,-0.0007816314,2.501948,-24.55009,32.160379043940125
2,-0.007659912,-0.0632782,0.9979553,1.0,-0.0308075,-0.0574646,0.9978638,-32.17088,7.177795,-27.88857,4.776169,0.5168928,0.3459896,1.0,0.05122375,-0.0778656,0.995636,35.15291,5.116058,-29.33226,4.536758,0.4065854,0.427481,0.03465545,1.223279,-0.03937542,0.01163004,0.01199461,-0.0007816314,2.501948,-24.55009,32.160379043940125
2,-0.007659912,-0.0632782,0.9979553,1.0,-0.0308075,-0.0574646,0.9978638,-32.17088,7.177795,-27.88857,4.776169,0.5168928,0.3459896,1.0,0.05122375,-0.0778656,0.995636,35.15291,5.116058,-29.33226,4.536758,0.4065854,0.427481,0.03463364,1.223125,-0.03934503,0.01255011,0.01229097,-0.0006686067,2.501948,-24.55009,32.160379043940125
2,-0.007659912,-0.0632782,0.9979553,1.0,-0.0308075,-0.0574646,0.9978638,-32.17088,7.177795,-27.88857,4.776169,0.5168928,0.3459896,1.0,0.05122375,-0.0778656,0.995636,35.15291,5.116058,-29.33226,4.536758,0.4065854,0.427481,0.03463364,1.223125,-0.03934503,0.01255011,0.01229097,-0.0006686067,2.501948,-24.55009,32.160379043940125
2,0.04840088,-0.07496643,0.9960022,1.0,-0.02983093,-0.05187988,0.9981995,-32.1747,7.241882,-27.98715,4.900253,0.5169435,0.3434255,1.0,0.04949951,-0.07528687,0.9959259,35.16577,5.102997,-29.30797,4.5466,0.406447,0.4272646,0.03464043,1.223007,-0.03931224,0.01317568,0.01235868,-0.0007117862,2.501948,-24.55009,32.160379043940125
2,0.05134583,-0.07373047,0.9959412,1.0,-0.03149414,-0.05050659,0.9982147,-32.16847,7.227295,-27.86382,4.922638,0.5169435,0.3428872,1.0,0.05247498,-0.0740509,0.9958649,35.17108,5.102997,-29.27937,4.564926,0.4057704,0.4268001,0.03463638,1.222851,-0.03923166,0.01385968,0.01249001,-0.0006342959,2.501948,-24.55009,32.160379043940125
2,0.0531311,-0.06817627,0.9962463,1.0,-0.02920532,-0.05041504,0.998291,-32.16867,7.227295,-27.86382,4.91655,0.5165703,0.3428872,1.0,0.05377197,-0.0683136,0.9962006,35.17943,5.102997,-29.27937,4.628494,0.405259,0.4258173,0.03463686,1.222703,-0.03918898,0.01455455,0.01264003,-0.0005725605,2.501948,-24.55009,32.160379043940125
2,0.0531311,-0.06817627,0.9962463,1.0,-0.02920532,-0.05041504,0.998291,-32.16867,7.227295,-27.86382,4.91655,0.5165703,0.3428872,1.0,0.05377197,-0.0683136,0.9962006,35.17943,5.102997,-29.27937,4.628494,0.405259,0.4258173,0.03463686,1.222703,-0.03918898,0.01455455,0.01264003,-0.0005725605,2.501948,-24.55009,32.160379043940125
2,0.05439758,-0.065979,0.9963226,1.0,-0.03146362,-0.04960632,0.9982605,-32.16867,7.231659,-27.86382,4.916687,0.5169435,0.3425928,1.0,0.05482483,-0.0660553,0.9962921,35.18759,5.102997,-29.27937,4.636963,0.4047946,0.4254265,0.03471339,1.222465,-0.03909051,0.016073,0.01285569,-0.0006103516,2.501948,-24.55009,32.160379043940125
2,0.05439758,-0.065979,0.9963226,1.0,-0.03146362,-0.04960632,0.9982605,-32.16867,7.231659,-27.86382,4.916687,0.5169435,0.3425928,1.0,0.05482483,-0.0660553,0.9962921,35.18759,5.102997,-29.27937,4.636963,0.4047946,0.4254265,0.0347091,1.222289,-0.03900397,0.01678101,0.01294751,-0.0005179005,2.501948,-24.55009,32.160379043940125
2,0.05439758,-0.065979,0.9963226,1.0,-0.03146362,-0.04960632,0.9982605,-32.16867,7.231659,-27.86382,4.916687,0.5169435,0.3425928,1.0,0.05482483,-0.0660553,0.9962921,35.18759,5.102997,-29.27937,4.636963,0.4047946,0.4254265,0.03473485,1.222144,-0.038957,0.01745478,0.01301409,-0.0004567453,2.501948,-24.55009,32.160379043940125
2,0.05439758,-0.065979,0.9963226,1.0,-0.03146362,-0.04960632,0.9982605,-32.16867,7.231659,-27.86382,4.916687,0.5169435,0.3425928,1.0,0.05482483,-0.0660553,0.9962921,35.18759,5.102997,-29.27937,4.636963,0.4047946,0.4254265,0.03479862,1.222009,-0.03886372,0.01828286,0.01315757,-0.000345267,2.501948,-24.55009,32.160379043940125
2,0.05439758,-0.065979,0.9963226,1.0,-0.03146362,-0.04960632,0.9982605,-32.16867,7.231659,-27.86382,4.916687,0.5169435,0.3425928,1.0,0.05482483,-0.0660553,0.9962921,35.18759,5.102997,-29.27937,4.636963,0.4047946,0.4254265,0.03481877,1.221836,-0.03881222,0.01922443,0.01333866,-0.000345267,2.501948,-42.17439,32.160379043940125
2,0.03939819,-0.07446289,0.9964447,1.0,-0.04373169,-0.06669617,0.9968109,-32.16469,7.263443,-28.28914,4.884964,0.5189422,0.3478804,1.0,0.03979492,-0.07449341,0.9964142,35.09216,5.187683,-29.75407,4.751556,0.4104102,0.4282059,0.03484857,1.221625,-0.03874576,0.02022834,0.01352504,-0.000422864,2.501948,-42.17439,32.160379043940125
2,0.03939819,-0.07446289,0.9964447,1.0,-0.04373169,-0.06669617,0.9968109,-32.16469,7.263443,-28.28914,4.884964,0.5189422,0.3478804,1.0,0.03979492,-0.07449341,0.9964142,35.09216,5.187683,-29.75407,4.751556,0.4104102,0.4282059,0.03480482,1.221463,-0.03869033,0.0214309,0.01379341,-0.000345267,2.501948,-42.17439,32.160379043940125
2,0.03939819,-0.07446289,0.9964447,1.0,-0.04373169,-0.06669617,0.9968109,-32.16469,7.263443,-28.28914,4.884964,0.5189422,0.3478804,1.0,0.03979492,-0.07449341,0.9964142,35.09216,5.187683,-29.75407,4.751556,0.4104102,0.4282059,0.03482497,1.221233,-0.03866982,0.02273295,0.01417856,-0.000366211,2.501948,-42.17439,32.160379043940125
2,0.03939819,-0.07446289,0.9964447,1.0,-0.04373169,-0.06669617,0.9968109,-32.16469,7.263443,-28.28914,4.884964,0.5189422,0.3478804,1.0,0.03979492,-0.07449341,0.9964142,35.09216,5.187683,-29.75407,4.751556,0.4104102,0.4282059,0.03486335,1.220974,-0.03861952,0.02418132,0.0144791,-0.0003662109,2.501948,-42.17439,32.160379043940125
2,0.03939819,-0.07446289,0.9964447,1.0,-0.04373169,-0.06669617,0.9968109,-32.16469,7.263443,-28.28914,4.884964,0.5189422,0.3478804,1.0,0.03979492,-0.07449341,0.9964142,35.09216,5.187683,-29.75407,4.751556,0.4104102,0.4282059,0.03493094,1.220715,-0.03861618,0.02602933,0.01493055,-0.0002441407,2.501948,-42.17439,32.160379043940125
2,-0.008575439,-0.1203613,0.992691,1.0,-0.09307861,-0.1120758,0.9893188,-32.54501,7.259598,-29.51357,4.740982,0.54045,0.365952,1.0,-0.008514404,-0.1203766,0.992691,34.61356,4.731583,-29.11798,4.669891,0.4353754,0.4465717,0.03498399,1.220412,-0.03868133,0.02780123,0.01535419,-0.0001220703,2.501948,-42.17439,32.160379043940125
2,-0.008575439,-0.1203613,0.992691,1.0,-0.09307861,-0.1120758,0.9893188,-32.54501,7.259598,-29.51357,4.740982,0.54045,0.365952,1.0,-0.008514404,-0.1203766,0.992691,34.61356,4.731583,-29.11798,4.669891,0.4353754,0.4465717,0.03498399,1.220412,-0.03868133,0.02780123,0.01535419,-0.0001220703,2.501948,-42.17439,32.160379043940125
2,-0.01017761,-0.1010437,0.9948273,1.0,-0.09495544,-0.08946228,0.9914398,-32.63184,7.642029,-30.98401,4.913498,0.5446485,0.3607314,1.0,-0.01017761,-0.1010437,0.9948273,34.69113,4.787949,-29.14842,4.753571,0.4329952,0.4415424,0.0351547,1.219753,-0.03869307,0.03189658,0.01648627,0.0,2.501948,-42.17439,32.160379043940125
2,-0.0136261,-0.09642029,0.9952393,1.0,-0.09570313,-0.08984375,0.991333,-32.63097,7.64595,-30.8148,4.803741,0.5447226,0.3590513,1.0,-0.0136261,-0.09642029,0.9952393,34.70775,4.800827,-29.1526,4.736938,0.4330126,0.4403256,0.03524101,1.219368,-0.03871799,0.03412078,0.01717942,0.0001726335,2.501948,-42.17439,32.160379043940125
2,-0.01817322,-0.1039886,0.9944,1.0,-0.09771729,-0.08187866,0.9918365,-32.62898,7.607681,-30.59969,4.893661,0.544881,0.3572132,1.0,-0.01817322,-0.1039886,0.9944,34.71989,4.875214,-29.27811,4.753677,0.4333178,0.4402064,0.03534591,1.218993,-0.03884268,0.03610765,0.01798622,0.0004567453,2.501948,-42.17439,32.160379043940125
2,-0.0199585,-0.09275818,0.9954834,1.0,-0.1025085,-0.0814209,0.9913788,-32.62193,7.570526,-30.27702,4.972198,0.5452568,0.3557901,1.0,-0.0199585,-0.09275818,0.9954834,34.73735,4.937576,-29.33372,4.775345,0.4330148,0.4365951,0.03550923,1.218704,-0.03889364,0.03776967,0.01877503,0.0006459354,2.501948,-42.17439,32.160379043940125
2,-0.01705933,-0.09013367,0.9957733,1.0,-0.09547424,-0.06968689,0.992981,-32.61821,7.655945,-30.40356,5.069122,0.5440547,0.3517537,1.0,-0.01705933,-0.09013367,0.9957733,34.75093,4.966171,-29.19678,4.753723,0.432118,0.433938,0.03565419,1.218502,-0.03898931,0.03942021,0.01977087,0.0007911061,2.501948,-42.17439,32.160379043940125
2,-0.01705933,-0.09013367,0.9957733,1.0,-0.09547424,-0.06968689,0.992981,-32.61821,7.655945,-30.40356,5.069122,0.5440547,0.3517537,1.0,-0.01705933,-0.09013367,0.9957733,34.75093,4.966171,-29.19678,4.753723,0.432118,0.433938,0.03565419,1.218502,-0.03898931,0.03942021,0.01977087,0.0007911061,2.501948,-42.17439,32.160379043940125
2,-0.01361084,-0.08453369,0.9963226,1.0,-0.09936523,-0.07225037,0.9924164,-32.60484,7.6147,-30.05225,5.040543,0.5440626,0.3507356,1.0,-0.01353455,-0.08454895,0.9963226,34.76866,4.991577,-29.10823,4.878204,0.4309324,0.4313387,0.03597867,1.218152,-0.03916657,0.04211036,0.02183967,0.0006796587,2.501948,-42.17439,32.160379043940125
2,-0.009841919,-0.06616211,0.997757,1.0,-0.09701538,-0.07810974,0.9922028,-32.58922,7.578964,-29.81729,5.025726,0.5429796,0.3511288,1.0,-0.009506226,-0.06611633,0.997757,34.77504,4.988144,-29.05174,4.929245,0.4300678,0.4277786,0.0361613,1.218008,-0.039267,0.04347588,0.02295636,0.0007720405,2.501948,-42.17439,32.160379043940125
2,-0.01179504,-0.0665741,0.9976959,1.0,-0.1004639,-0.06147766,0.9930267,-32.56767,7.557846,-29.64153,5.103836,0.5427443,0.347564,1.0,-0.01141357,-0.06660461,0.9977112,34.78186,4.971649,-28.98706,4.898148,0.4301828,0.4278526,0.03635085,1.21785,-0.03945565,0.04485914,0.02402584,0.0009917039,2.501948,-42.17439,32.160379043940125
2,-0.01220703,-0.06616211,0.9977264,1.0,-0.09069824,-0.05532837,0.9943237,-32.55713,7.574982,-29.68501,5.181686,0.5407881,0.3462105,1.0,-0.01182556,-0.06620789,0.9977264,34.7858,4.963089,-28.9556,4.904846,0.4301253,0.4278156,0.03650331,1.217659,-0.03961611,0.04626707,0.02512752,0.001145121,2.501948,16.57597,32.160379043940125
2,-0.0125885,-0.06634521,0.9977112,1.0,-0.09307861,-0.05999756,0.9938354,-32.54358,7.566849,-29.6436,5.129257,0.5406913,0.3469837,1.0,-0.01222229,-0.06636047,0.9977112,34.78975,4.954544,-28.92413,4.900833,0.4300678,0.4278526,0.03650331,1.217659,-0.03961611,0.04626707,0.02512752,0.001145121,2.501948,16.57597,32.160379043940125
2,-0.0125885,-0.06634521,0.9977112,1.0,-0.09307861,-0.05999756,0.9938354,-32.54358,7.566849,-29.6436,5.129257,0.5406913,0.3469837,1.0,-0.01222229,-0.06636047,0.9977112,34.78975,4.954544,-28.92413,4.900833,0.4300678,0.4278526,0.03650331,1.217659,-0.03961611,0.04626707,0.02512752,0.001145121,2.501948,16.57597,32.160379043940125
2,-0.005081177,-0.05160522,0.998642,1.0,-0.08734131,-0.05030823,0.9949036,-32.53568,7.593613,-29.69933,5.174683,0.5395159,0.3447961,1.0,0.002059937,-0.05169678,0.9986572,34.8327,4.833054,-28.52744,4.908264,0.4263411,0.4260272,0.03697896,1.217171,-0.03993082,0.04921402,0.02705586,0.001375663,2.501948,16.57597,32.160379043940125
2,-0.09828186,-0.02104187,0.9949341,1.0,-0.1104889,-0.01741028,0.9937134,-32.71645,7.731903,-29.65587,5.078201,0.5497024,0.3339459,1.0,-0.02828979,-0.04167175,0.9987183,34.59879,5.059723,-28.7424,4.864334,0.4394906,0.4185265,0.03731132,1.216795,-0.0401119,0.05147041,0.02892036,0.001687045,2.501948,16.57597,32.160379043940125
2,-0.1248932,-0.01412964,0.9920654,1.0,-0.1332092,-0.01556396,0.9909515,-32.85597,7.964447,-30.2153,5.020828,0.5588112,0.3298638,1.0,-0.06184387,-0.003250122,0.9980774,34.43225,5.066513,-28.37592,5.076736,0.4509666,0.4088481,0.0375067,1.216609,-0.04029614,0.0533119,0.03051172,0.001998377,2.501948,16.57597,32.160379043940125
2,-0.1248932,-0.01412964,0.9920654,1.0,-0.1332092,-0.01556396,0.9909515,-32.85597,7.964447,-30.2153,5.020828,0.5588112,0.3298638,1.0,-0.06184387,-0.003250122,0.9980774,34.43225,5.066513,-28.37592,5.076736,0.4509666,0.4088481,0.0375067,1.216609,-0.04029614,0.0533119,0.03051172,0.001998377,2.501948,16.57597,32.160379043940125
2,-0.1929169,0.04808044,0.9800262,1.0,-0.1997986,0.04876709,0.9786072,-33.02516,8.071045,-29.53519,5.261871,0.5759863,0.3090385,1.0,-0.1109924,0.0397644,0.9930115,34.15485,5.262878,-28.04446,5.046234,0.4689373,0.3923577,0.03764141,1.216264,-0.04047322,0.05511796,0.03164848,0.002057165,2.494261,16.57597,32.160379043940125
2,-0.1929169,0.04808044,0.9800262,1.0,-0.1997986,0.04876709,0.9786072,-33.02516,8.071045,-29.53519,5.261871,0.5759863,0.3090385,1.0,-0.1109924,0.0397644,0.9930115,34.15485,5.262878,-28.04446,5.046234,0.4689373,0.3923577,0.03764141,1.216264,-0.04047322,0.05511796,0.03164848,0.002057165,2.494261,16.57597,32.160379043940125
2,-0.1749878,0.04533386,0.9835205,1.0,-0.1943207,0.04333496,0.9799652,-33.0679,8.010452,-29.3922,5.283508,0.5763103,0.3111184,1.0,-0.1009979,0.05281067,0.9934692,34.21739,5.182693,-27.83167,5.143951,0.4651121,0.3910938,0.03786695,1.21587,-0.04060841,0.05682291,0.0326948,0.002027984,2.494261,16.57597,32.160379043940125
2,-0.1749878,0.04533386,0.9835205,1.0,-0.1943207,0.04333496,0.9799652,-33.0679,8.010452,-29.3922,5.283508,0.5763103,0.3111184,1.0,-0.1009979,0.05281067,0.9934692,34.21739,5.182693,-27.83167,5.143951,0.4651121,0.3910938,0.03786695,1.21587,-0.04060841,0.05682291,0.0326948,0.002027984,2.494261,16.57597,32.160379043940125
2,-0.101944,0.0642395,0.9927063,1.0,-0.1841125,0.06016541,0.9810486,-33.06531,7.985199,-29.26091,5.248032,0.5744473,0.3080101,1.0,-0.09814453,0.06442261,0.9930725,34.23161,5.241776,-28.05562,5.175034,0.4641434,0.3889905,0.03805149,1.215749,-0.0406518,0.05771822,0.03327799,0.002257476,2.494261,16.57597,32.160379043940125
2,-0.101944,0.0642395,0.9927063,1.0,-0.1841125,0.06016541,0.9810486,-33.06531,7.985199,-29.26091,5.248032,0.5744473,0.3080101,1.0,-0.09814453,0.06442261,0.9930725,34.23161,5.241776,-28.05562,5.175034,0.4641434,0.3889905,0.03805149,1.215749,-0.0406518,0.05771822,0.03327799,0.002257476,2.494261,16.57597,32.160379043940125
2,-0.1131744,0.0592804,0.9917908,1.0,-0.1835175,0.06494141,0.9808655,-33.07214,8.034576,-29.3495,5.229828,0.5747041,0.3061036,1.0,-0.0958252,0.05784607,0.9937134,34.28763,5.222733,-27.86829,5.199783,0.461832,0.3891581,0.0381099,1.215668,-0.04061711,0.05793146,0.03377865,0.002060784,2.494261,4.734222,32.160379043940125
2,-0.1131744,0.0592804,0.9917908,1.0,-0.1835175,0.06494141,0.9808655,-33.07214,8.034576,-29.3495,5.229828,0.5747041,0.3061036,1.0,-0.0958252,0.05784607,0.9937134,34.28763,5.222733,-27.86829,5.199783,0.461832,0.3891581,0.0381099,1.215668,-0.04061711,0.05793146,0.03377865,0.002060784,2.494261,4.734222,32.160379043940125
2,-0.1473999,0.06378174,0.9870148,1.0,-0.1893616,0.06213379,0.9799347,-33.07216,8.048096,-29.3447,5.224442,0.575693,0.3061037,1.0,-0.0982666,0.06556702,0.9929962,34.30208,5.235458,-27.86362,5.173935,0.4617775,0.3873849,0.03813732,1.21562,-0.04064047,0.05812996,0.03401953,0.002075195,2.494261,4.734222,32.160379043940125
2,-0.1473999,0.06378174,0.9870148,1.0,-0.1893616,0.06213379,0.9799347,-33.07216,8.048096,-29.3447,5.224442,0.575693,0.3061037,1.0,-0.0982666,0.06556702,0.9929962,34.30208,5.235458,-27.86362,5.173935,0.4617775,0.3873849,0.03813732,1.21562,-0.04064047,0.05812996,0.03401953,0.002075195,2.494261,4.734222,32.160379043940125
2,-0.1512146,0.06355286,0.9864502,1.0,-0.1850281,0.06190491,0.9807739,-33.07216,8.041229,-29.33672,5.253281,0.5749373,0.3063069,1.0,-0.09959412,0.06588745,0.9928284,34.3094,5.237045,-27.87714,5.173721,0.4617499,0.3873849,0.03818643,1.215529,-0.04054403,0.05812842,0.03397482,0.002293493,2.494261,4.734222,32.160379043940125
2,-0.1512146,0.06355286,0.9864502,1.0,-0.1850281,0.06190491,0.9807739,-33.07216,8.041229,-29.33672,5.253281,0.5749373,0.3063069,1.0,-0.09959412,0.06588745,0.9928284,34.3094,5.237045,-27.87714,5.173721,0.4617499,0.3873849,0.03818643,1.215529,-0.04054403,0.05812842,0.03397482,0.002293493,2.494261,4.734222,32.160379043940125
3,-0.1564331,0.0670929,0.9853973,1.0,-0.1951141,0.05557251,0.9792023,-33.12245,8.069443,-29.3644,5.222107,0.5784067,0.3066689,1.0,-0.1042175,0.08235168,0.9911346,34.24559,5.1875,-27.68486,5.231308,0.4647372,0.3847881,0.03822911,1.215567,-0.04043484,0.05777022,0.03396605,0.002152734,2.494261,4.734222,33.73
3,-0.1564331,0.0670929,0.9853973,1.0,-0.1951141,0.05557251,0.9792023,-33.12245,8.069443,-29.3644,5.222107,0.5784067,0.3066689,1.0,-0.1042175,0.08235168,0.9911346,34.24559,5.1875,-27.68486,5.231308,0.4647372,0.3847881,0.03822911,1.215567,-0.04043484,0.05777022,0.03396605,0.002152734,2.494261,4.734222,33.73
3,-0.2814941,0.1132202,0.9528503,1.0,-0.2991486,0.1153412,0.9472046,-33.65211,8.279984,-29.59622,5.311981,0.6160246,0.2898749,1.0,-0.2104034,0.1044006,0.9720154,33.57196,5.590622,-28.36314,5.230911,0.5059733,0.3737198,0.03826272,1.215739,-0.04027367,0.05706536,0.03411401,0.002131867,2.494261,4.734222,33.73
3,-0.2814941,0.1132202,0.9528503,1.0,-0.2991486,0.1153412,0.9472046,-33.65211,8.279984,-29.59622,5.311981,0.6160246,0.2898749,1.0,-0.2104034,0.1044006,0.9720154,33.57196,5.590622,-28.36314,5.230911,0.5059733,0.3737198,0.03826272,1.215739,-0.04027367,0.05706536,0.03411401,0.002131867,2.494261,4.734222,33.73
3,-0.3752136,0.1459198,0.9153748,1.0,-0.3771515,0.1465302,0.9144745,-33.91606,8.3992,-29.74336,5.129379,0.6403497,0.2808417,1.0,-0.2822723,0.1158142,0.952301,33.16922,5.714645,-28.51192,5.246918,0.5323138,0.3694304,0.03826666,1.215848,-0.04023087,0.05658166,0.03448524,0.002303218,2.494261,4.734222,33.73
3,-0.3752136,0.1459198,0.9153748,1.0,-0.3771515,0.1465302,0.9144745,-33.91606,8.3992,-29.74336,5.129379,0.6403497,0.2808417,1.0,-0.2822723,0.1158142,0.952301,33.16922,5.714645,-28.51192,5.246918,0.5323138,0.3694304,0.03826666,1.215848,-0.04023087,0.05658166,0.03448524,0.002303218,2.494261,4.734222,33.73
3,-0.3684692,0.1419525,0.9187164,1.0,-0.3692017,0.1421051,0.9184113,-34.04649,8.358902,-29.75728,5.226913,0.643513,0.282866,1.0,-0.2831421,0.1233826,0.9510956,33.1653,5.693069,-28.52043,5.253464,0.5326343,0.3689665,0.03833497,1.215875,-0.04020232,0.05649627,0.03505098,0.002441406,2.494261,4.734222,33.73
3,-0.3684692,0.1419525,0.9187164,1.0,-0.3692017,0.1421051,0.9184113,-34.04649,8.358902,-29.75728,5.226913,0.643513,0.282866,1.0,-0.2831421,0.1233826,0.9510956,33.1653,5.693069,-28.52043,5.253464,0.5326343,0.3689665,0.03833497,1.215875,-0.04020232,0.05649627,0.03505098,0.002441406,2.494261,4.734222,33.73
3,-0.3501282,0.1493988,0.9246979,1.0,-0.3895111,0.1634064,0.9064026,-34.07184,8.349396,-29.80963,5.185043,0.6485399,0.2798023,1.0,-0.2843475,0.125885,0.9504089,33.18272,5.683289,-28.5226,5.25235,0.5322576,0.3689132,0.038463,1.215901,-0.04014111,0.05623879,0.0359198,0.002441406,2.494261,4.734222,33.73
3,-0.3501282,0.1493988,0.9246979,1.0,-0.3895111,0.1634064,0.9064026,-34.07184,8.349396,-29.80963,5.185043,0.6485399,0.2798023,1.0,-0.2843475,0.125885,0.9504089,33.18272,5.683289,-28.5226,5.25235,0.5322576,0.3689132,0.038463,1.215901,-0.04014111,0.05623879,0.0359198,0.002441406,2.494261,4.734222,33.73
3,-0.3264618,0.1411896,0.9345856,1.0,-0.3793335,0.1570435,0.9118195,-34.08069,8.348434,-29.79164,5.28949,0.6468527,0.2807394,1.0,-0.2839355,0.1283264,0.9502106,33.18852,5.683289,-28.51953,5.253464,0.5319992,0.3684672,0.03864682,1.216032,-0.04003918,0.05596934,0.03684198,0.002152734,2.494261,4.734222,33.73
3,-0.3264618,0.1411896,0.9345856,1.0,-0.3793335,0.1570435,0.9118195,-34.08069,8.348434,-29.79164,5.28949,0.6468527,0.2807394,1.0,-0.2839355,0.1283264,0.9502106,33.18852,5.683289,-28.51953,5.253464,0.5319992,0.3684672,0.03864682,1.216032,-0.04003918,0.05596934,0.03684198,0.002152734,2.494261,4.734222,33.73
3,-0.3237,0.1407013,0.9356232,1.0,-0.3670502,0.1539459,0.9173584,-34.108,8.334915,-29.78323,5.234314,0.6454721,0.2817053,1.0,-0.2848816,0.1287537,0.9498596,33.19727,5.684799,-28.51933,5.26239,0.5318578,0.368349,0.0388912,1.216156,-0.03992558,0.05571304,0.03801506,0.001867317,2.494261,-22.11334,33.73
3,-0.3237,0.1407013,0.9356232,1.0,-0.3670502,0.1539459,0.9173584,-34.108,8.334915,-29.78323,5.234314,0.6454721,0.2817053,1.0,-0.2848816,0.1287537,0.9498596,33.19727,5.684799,-28.51933,5.26239,0.5318578,0.368349,0.0388912,1.216156,-0.03992558,0.05571304,0.03801506,0.001867317,2.494261,-22.11334,33.73
3,-0.3237762,0.1385803,0.9359131,1.0,-0.3678284,0.1479034,0.918045,-34.11707,8.334839,-29.78607,5.231689,0.6458638,0.2828396,1.0,-0.2816315,0.1295013,0.9507294,33.20483,5.683289,-28.51779,5.265503,0.5310346,0.3682308,0.03923166,1.216259,-0.03985035,0.05537016,0.03933809,0.001370236,2.494261,-22.11334,33.73
3,-0.3237762,0.1385803,0.9359131,1.0,-0.3678284,0.1479034,0.918045,-34.11707,8.334839,-29.78607,5.231689,0.6458638,0.2828396,1.0,-0.2816315,0.1295013,0.9507294,33.20483,5.683289,-28.51779,5.265503,0.5310346,0.3682308,0.03923166,1.216259,-0.03985035,0.05537016,0.03933809,0.001370236,2.494261,-22.11334,33.73
3,-0.3258972,0.1404877,0.9348907,1.0,-0.3703003,0.1511383,0.9165192,-34.11954,8.334839,-29.78607,5.228149,0.6464557,0.2822458,1.0,-0.282135,0.129837,0.950531,33.2133,5.683105,-28.51736,5.270477,0.5308278,0.3681827,0.03967369,1.216267,-0.03964484,0.05498086,0.04130543,0.0004048615,2.494261,-22.11334,33.73
3,-0.3258972,0.1404877,0.9348907,1.0,-0.3703003,0.1511383,0.9165192,-34.11954,8.334839,-29.78607,5.228149,0.6464557,0.2822458,1.0,-0.282135,0.129837,0.950531,33.2133,5.683105,-28.51736,5.270477,0.5308278,0.3681827,0.03967369,1.216267,-0.03964484,0.05498086,0.04130543,0.0004048615,2.494261,-22.11334,33.73
3,-0.3252869,0.1423187,0.9348297,1.0,-0.3651123,0.1517944,0.9184875,-34.1243,8.33519,-29.78568,5.222015,0.645679,0.2820801,1.0,-0.2836609,0.1322784,0.9497528,33.22842,5.684555,-28.51596,5.2556,0.5305961,0.3677093,0.04022181,1.216206,-0.03924835,0.05471515,0.04385519,-0.0004048614,2.494261,-22.11334,33.73
3,-0.3252869,0.1423187,0.9348297,1.0,-0.3651123,0.1517944,0.9184875,-34.1243,8.33519,-29.78568,5.222015,0.645679,0.2820801,1.0,-0.2836609,0.1322784,0.9497528,33.22842,5.684555,-28.51596,5.2556,0.5305961,0.3677093,0.04022181,1.216206,-0.03924835,0.05471515,0.04385519,-0.0004048614,2.494261,-22.11334,33.73
3,-0.322876,0.1433716,0.9355011,1.0,-0.3592834,0.1524658,0.9206848,-34.13736,8.334946,-29.78477,5.215302,0.6450805,0.2819144,1.0,-0.2855835,0.1339569,0.9489288,33.26244,5.683105,-28.51218,5.251801,0.5297685,0.3674525,0.0408473,1.216129,-0.03890544,0.0547097,0.04694314,-0.001071163,2.494261,-22.11334,33.73
3,-0.322876,0.1433716,0.9355011,1.0,-0.3592834,0.1524658,0.9206848,-34.13736,8.334946,-29.78477,5.215302,0.6450805,0.2819144,1.0,-0.2855835,0.1339569,0.9489288,33.26244,5.683105,-28.51218,5.251801,0.5297685,0.3674525,0.0408473,1.216129,-0.03890544,0.0547097,0.04694314,-0.001071163,2.494261,-22.11334,33.73
3,-0.3178101,0.1424866,0.9373779,1.0,-0.3571167,0.1524048,0.921524,-34.13148,8.334839,-29.78371,5.215805,0.6444662,0.2819144,1.0,-0.2773743,0.1321716,0.9516144,33.2717,5.682495,-28.51155,5.244751,0.5280181,0.3676827,0.04168248,1.216046,-0.03874874,0.05470357,0.05055657,-0.001673744,2.494261,-22.11334,33.73
3,-0.3178101,0.1424866,0.9373779,1.0,-0.3571167,0.1524048,0.921524,-34.13148,8.334839,-29.78371,5.215805,0.6444662,0.2819144,1.0,-0.2773743,0.1321716,0.9516144,33.2717,5.682495,-28.51155,5.244751,0.5280181,0.3676827,0.04168248,1.216046,-0.03874874,0.05470357,0.05055657,-0.001673744,2.494261,-22.11334,33.73
3,-0.3136749,0.1424103,0.9387817,1.0,-0.3554077,0.1559143,0.9216003,-34.13148,8.334259,-29.78371,5.223221,0.6442007,0.2812749,1.0,-0.2704163,0.1283417,0.9541321,33.27902,5.681335,-28.50351,5.18483,0.5265755,0.3682083,0.04262519,1.21596,-0.03850269,0.05459969,0.05464553,-0.002027984,2.494261,-22.11334,33.73
3,-0.3136749,0.1424103,0.9387817,1.0,-0.3554077,0.1559143,0.9216003,-34.13148,8.334259,-29.78371,5.223221,0.6442007,0.2812749,1.0,-0.2704163,0.1283417,0.9541321,33.27902,5.681335,-28.50351,5.18483,0.5265755,0.3682083,0.04262519,1.21596,-0.03850269,0.05459969,0.05464553,-0.002027984,2.494261,-22.11334,33.73
3,-0.3040161,0.1459198,0.9414063,1.0,-0.3510742,0.1582184,0.9228668,-34.13148,8.334564,-29.78389,5.212708,0.6434354,0.2808234,1.0,-0.2436981,0.1298828,0.9611053,33.38307,5.656799,-28.44151,5.014069,0.518459,0.3679217,0.04355812,1.215762,-0.03827435,0.05489243,0.05935191,-0.002038976,2.494261,-46.3098,33.73
3,-0.3040161,0.1459198,0.9414063,1.0,-0.3510742,0.1582184,0.9228668,-34.13148,8.334564,-29.78389,5.212708,0.6434354,0.2808234,1.0,-0.2436981,0.1298828,0.9611053,33.38307,5.656799,-28.44151,5.014069,0.518459,0.3679217,0.04355812,1.215762,-0.03827435,0.05489243,0.05935191,-0.002038976,2.494261,-46.3098,33.73
3,-0.2931061,0.149765,0.9442749,1.0,-0.3291016,0.1665039,0.9294891,-34.02284,8.327805,-29.75591,5.250839,0.635546,0.2794474,1.0,-0.2421875,0.1260681,0.9619904,33.44514,5.656006,-28.42253,5.050507,0.5160193,0.3684327,0.04404747,1.215659,-0.03818154,0.05522801,0.06163584,-0.001949307,2.494261,-46.3098,33.73
3,-0.2766724,0.1490326,0.9493256,1.0,-0.3210602,0.1660614,0.932373,-33.97458,8.332275,-29.73657,5.191727,0.632336,0.2792559,1.0,-0.2207794,0.1274567,0.9669495,33.43755,5.640549,-28.42862,5.071625,0.5125836,0.3686119,0.04454374,1.215523,-0.03805411,0.05544586,0.0638976,-0.001956936,2.494261,-46.3098,33.73
3,-0.2766724,0.1490326,0.9493256,1.0,-0.3210602,0.1660614,0.932373,-33.97458,8.332275,-29.73657,5.191727,0.632336,0.2792559,1.0,-0.2207794,0.1274567,0.9669495,33.43755,5.640549,-28.42862,5.071625,0.5125836,0.3686119,0.04454374,1.215523,-0.03805411,0.05544586,0.0638976,-0.001956936,2.494261,-46.3098,33.73
3,-0.2671051,0.1490936,0.9520569,1.0,-0.3184967,0.1589661,0.934494,-33.907,8.384918,-29.70058,5.247482,0.6293965,0.2783697,1.0,-0.2178497,0.1393433,0.9659729,33.47105,5.66153,-28.43143,5.043915,0.5109987,0.3658404,0.04546487,1.215447,-0.0378722,0.05567878,0.06839751,-0.001514853,2.494261,-46.3098,33.73
3,-0.249939,0.1479187,0.9568787,1.0,-0.3067627,0.1655121,0.9372711,-33.87619,8.424133,-29.69087,5.309158,0.6262935,0.2755861,1.0,-0.2045593,0.133667,0.9696808,33.53125,5.671509,-28.40294,5.116806,0.5065776,0.3661466,0.04592764,1.215436,-0.03779137,0.0555727,0.07056572,-0.001158061,2.494261,-46.3098,33.73
3,-0.2407532,0.1418152,0.9601593,1.0,-0.2950897,0.1558838,0.9426575,-33.86095,8.43129,-29.66478,5.256149,0.6235024,0.2769111,1.0,-0.1952209,0.1298218,0.9721222,33.58354,5.663315,-28.38588,5.09462,0.5031697,0.3668449,0.04637814,1.215384,-0.03768063,0.05563059,0.07264917,-0.0009455526,2.494261,-46.3098,33.73
3,-0.239975,0.1398926,0.9606323,1.0,-0.2962036,0.141571,0.9445648,-33.8474,8.423141,-29.64796,5.203018,0.6230192,0.2797698,1.0,-0.1929016,0.1381531,0.9714355,33.60979,5.662842,-28.38797,5.066162,0.5019182,0.3654222,0.04683411,1.215359,-0.03762341,0.05557726,0.07471461,-0.0008457279,2.494261,-46.3098,33.73
3,-0.239975,0.1398926,0.9606323,1.0,-0.2962036,0.141571,0.9445648,-33.8474,8.423141,-29.64796,5.203018,0.6230192,0.2797698,1.0,-0.1929016,0.1381531,0.9714355,33.60979,5.662842,-28.38797,5.066162,0.5019182,0.3654222,0.04683411,1.215359,-0.03762341,0.05557726,0.07471461,-0.0008457279,2.494261,-46.3098,33.73
3,-0.2359467,0.138916,0.9617767,1.0,-0.2826538,0.1503143,0.9473572,-33.81926,8.426926,-29.6411,5.216003,0.6196775,0.2779711,1.0,-0.1936493,0.1284027,0.9726257,33.65332,5.671738,-28.37521,5.011642,0.5005397,0.3666326,0.04729414,1.215342,-0.03759372,0.05558262,0.07674952,-0.000690534,2.494261,-46.3098,33.73
3,-0.2344055,0.1342468,0.9628143,1.0,-0.2831879,0.1380768,0.9490662,-33.79176,8.424179,-29.625,5.150284,0.6186365,0.2802712,1.0,-0.1886902,0.1303864,0.9733276,33.66006,5.673309,-28.37131,5.006104,0.4994673,0.366162,0.04825604,1.215316,-0.03748477,0.05526065,0.0812419,-0.0005033088,2.494261,-46.3098,33.73
3,-0.2313385,0.1469269,0.9617004,1.0,-0.2798157,0.1546478,0.9475098,-33.75726,8.436157,-29.63248,5.128983,0.6170138,0.2768764,1.0,-0.1863556,0.1395111,0.9725189,33.69836,5.681183,-28.37677,5.07222,0.4977551,0.364402,0.04869139,1.215288,-0.03739321,0.05508253,0.08320128,-0.0003860203,2.494261,-46.3098,33.73
3,-0.2313385,0.1469269,0.9617004,1.0,-0.2798157,0.1546478,0.9475098,-33.75726,8.436157,-29.63248,5.128983,0.6170138,0.2768764,1.0,-0.1863556,0.1395111,0.9725189,33.69836,5.681183,-28.37677,5.07222,0.4977551,0.364402,0.04869139,1.215288,-0.03739321,0.05508253,0.08320128,-0.0003860203,2.494261,-46.3098,33.73
3,-0.2237549,0.1349182,0.9652557,1.0,-0.2717285,0.1384735,0.9523468,-33.69717,8.43013,-29.59694,5.174789,0.6132183,0.2798391,1.0,-0.1786499,0.1313019,0.9750977,33.75447,5.668701,-28.354,5.044937,0.4944848,0.3659554,0.04911613,1.215285,-0.03736621,0.05487505,0.08514393,-0.0003229677,2.494261,-46.3098,33.73
3,-0.2170868,0.1406403,0.9659576,1.0,-0.2641907,0.150589,0.9526367,-33.6507,8.436142,-29.59578,5.227921,0.6103542,0.277407,1.0,-0.1727142,0.1310577,0.9761963,33.77504,5.66597,-28.34538,5.043427,0.4927605,0.3659645,0.0499326,1.215293,-0.03731322,0.05459969,0.08878063,0.0,2.494261,-46.3098,33.73
3,-0.2183838,0.1384277,0.9659882,1.0,-0.2682953,0.1458893,0.9522095,-33.63464,8.434372,-29.59381,5.155212,0.6104648,0.2783849,1.0,-0.1715851,0.1311798,0.9763947,33.78273,5.663544,-28.34424,5.022186,0.4923124,0.3660049,0.05034912,1.21528,-0.03730053,0.0543953,0.09060833,0.0001220703,2.494261,29.51648,33.73
3,-0.2075195,0.1455078,0.9673462,1.0,-0.2563324,0.1518555,0.9545746,-33.60252,8.430618,-29.58907,5.185287,0.6072512,0.2773916,1.0,-0.1588135,0.1388702,0.977478,33.83723,5.647659,-28.29591,5.057388,0.48826,0.3647642,0.05090415,1.215443,-0.03728664,0.05428795,0.09245536,0.0001726335,2.494261,29.51648,33.73
3,-0.2075195,0.1455078,0.9673462,1.0,-0.2563324,0.1518555,0.9545746,-33.60252,8.430618,-29.58907,5.185287,0.6072512,0.2773916,1.0,-0.1588135,0.1388702,0.977478,33.83723,5.647659,-28.29591,5.057388,0.48826,0.3647642,0.05090415,1.215443,-0.03728664,0.05428795,0.09245536,0.0001726335,2.494261,29.51648,33.73
3,-0.2050781,0.1463318,0.9677277,1.0,-0.2493744,0.1555939,0.9558105,-33.59258,8.428146,-29.58591,5.256424,0.6056966,0.2767362,1.0,-0.1517181,0.1348724,0.9791718,33.85428,5.627975,-28.24261,5.138947,0.4864046,0.365686,0.05170619,1.215445,-0.03727144,0.05381017,0.09626852,0.0,2.494261,29.51648,33.73
3,-0.2050781,0.1463318,0.9677277,1.0,-0.2493744,0.1555939,0.9558105,-33.59258,8.428146,-29.58591,5.256424,0.6056966,0.2767362,1.0,-0.1517181,0.1348724,0.9791718,33.85428,5.627975,-28.24261,5.138947,0.4864046,0.365686,0.05214059,1.215457,-0.03727168,0.05354881,0.09826372,0.0001220703,2.494261,29.51648,33.73
3,-0.2050781,0.1463318,0.9677277,1.0,-0.2493744,0.1555939,0.9558105,-33.59258,8.428146,-29.58591,5.256424,0.6056966,0.2767362,1.0,-0.1517181,0.1348724,0.9791718,33.85428,5.627975,-28.24261,5.138947,0.4864046,0.365686,0.05258155,1.215459,-0.03728896,0.05327499,0.100153,0.0,2.494261,29.51648,33.73
3,-0.2050781,0.1463318,0.9677277,1.0,-0.2493744,0.1555939,0.9558105,-33.59258,8.428146,-29.58591,5.256424,0.6056966,0.2767362,1.0,-0.1517181,0.1348724,0.9791718,33.85428,5.627975,-28.24261,5.138947,0.4864046,0.365686,0.05258155,1.215459,-0.03728896,0.05327499,0.100153,0.0,2.494261,29.51648,33.73
3,-0.2050781,0.1463318,0.9677277,1.0,-0.2493744,0.1555939,0.9558105,-33.59258,8.428146,-29.58591,5.256424,0.6056966,0.2767362,1.0,-0.1517181,0.1348724,0.9791718,33.85428,5.627975,-28.24261,5.138947,0.4864046,0.365686,0.05330563,1.215476,-0.03723949,0.05319437,0.1038496,0.0,2.494261,29.51648,33.73
3,-0.2111359,0.1434479,0.9668579,1.0,-0.2492676,0.1434631,0.9577332,-33.58337,8.415329,-29.57343,5.21048,0.6052039,0.2793739,1.0,-0.145813,0.1429138,0.9789276,33.87819,5.619598,-28.19966,5.107742,0.4846134,0.3642091,0.05365598,1.215521,-0.03723758,0.0531271,0.1053414,0.0001726335,2.494261,29.51648,33.73
3,-0.2111359,0.1434479,0.9668579,1.0,-0.2492676,0.1434631,0.9577332,-33.58337,8.415329,-29.57343,5.21048,0.6052039,0.2793739,1.0,-0.145813,0.1429138,0.9789276,33.87819,5.619598,-28.19966,5.107742,0.4846134,0.3642091,0.05399263,1.215504,-0.03725559,0.05291632,0.1067699,0.000345267,2.494261,29.51648,33.73
3,-0.2111359,0.1434479,0.9668579,1.0,-0.2492676,0.1434631,0.9577332,-33.58337,8.415329,-29.57343,5.21048,0.6052039,0.2793739,1.0,-0.145813,0.1429138,0.9789276,33.87819,5.619598,-28.19966,5.107742,0.4846134,0.3642091,0.05428994,1.21549,-0.03723156,0.05274229,0.1080857,0.000422864,2.494261,29.51648,33.73
3,-0.2111359,0.1434479,0.9668579,1.0,-0.2492676,0.1434631,0.9577332,-33.58337,8.415329,-29.57343,5.21048,0.6052039,0.2793739,1.0,-0.145813,0.1429138,0.9789276,33.87819,5.619598,-28.19966,5.107742,0.4846134,0.3642091,0.05460536,1.215508,-0.0372287,0.05260522,0.1095465,0.0002729575,2.494261,29.51648,33.73
3,-0.2111359,0.1434479,0.9668579,1.0,-0.2492676,0.1434631,0.9577332,-33.58337,8.415329,-29.57343,5.21048,0.6052039,0.2793739,1.0,-0.145813,0.1429138,0.9789276,33.87819,5.619598,-28.19966,5.107742,0.4846134,0.3642091,0.05460536,1.215508,-0.0372287,0.05260522,0.1095465,0.0002729575,2.494261,29.51648,33.73
3,-0.2111359,0.1434479,0.9668579,1.0,-0.2492676,0.1434631,0.9577332,-33.58337,8.415329,-29.57343,5.21048,0.6052039,0.2793739,1.0,-0.145813,0.1429138,0.9789276,33.87819,5.619598,-28.19966,5.107742,0.4846134,0.3642091,0.05534756,1.215633,-0.03720415,0.052207,0.1121767,0.00029901,2.494261,29.51648,33.73
3,-0.2111359,0.1434479,0.9668579,1.0,-0.2492676,0.1434631,0.9577332,-33.58337,8.415329,-29.57343,5.21048,0.6052039,0.2793739,1.0,-0.145813,0.1429138,0.9789276,33.87819,5.619598,-28.19966,5.107742,0.4846134,0.3642091,0.05534756,1.215633,-0.03720415,0.052207,0.1121767,0.00029901,2.494261,29.51648,33.73
3,-0.3070221,0.05497742,0.9501038,1.0,-0.333725,0.0639801,0.9404907,-33.79318,7.940338,-29.64711,5.100616,0.6263483,0.3122237,1.0,-0.2312317,0.02961731,0.9724426,33.40497,5.19165,-28.4138,5.058334,0.5149946,0.400695,0.05600417,1.215669,-0.03713751,0.05210759,0.1146442,-0.0001726335,2.494261,29.51648,33.73
3,-0.3037567,0.04782104,0.9515381,1.0,-0.3261414,0.05119324,0.943924,-33.77921,7.92334,-29.63153,5.240875,0.6243309,0.3149139,1.0,-0.2246399,0.03590393,0.9737701,33.44858,5.190964,-28.42236,5.127914,0.5123596,0.3996865,0.05600417,1.215669,-0.03713751,0.05210759,0.1146442,-0.0001726335,2.494261,17.14761,33.73
3,-0.302124,0.04338074,0.9522705,1.0,-0.3218079,0.04728699,0.9456177,-33.7653,7.920959,-29.62262,5.271637,0.6230148,0.3156155,1.0,-0.2204285,0.0272522,0.9750061,33.47824,5.194092,-28.43039,5.104904,0.5106076,0.4010657,0.05647647,1.215689,-0.03715587,0.05211588,0.1168699,-0.0001726335,2.494261,17.14761,33.73
3,-0.2943878,0.03872681,0.954895,1.0,-0.3209076,0.04150391,0.9461823,-33.76463,7.926208,-29.61763,5.242142,0.6227847,0.3164228,1.0,-0.2168427,0.03057861,0.9757233,33.49208,5.20079,-28.4447,5.13829,0.5095189,0.4003741,0.05704677,1.215676,-0.03726041,0.05197171,0.1191411,-0.0001220703,2.494261,17.14761,33.73
3,-0.2943878,0.03872681,0.954895,1.0,-0.3209076,0.04150391,0.9461823,-33.76463,7.926208,-29.61763,5.242142,0.6227847,0.3164228,1.0,-0.2168427,0.03057861,0.9757233,33.49208,5.20079,-28.4447,5.13829,0.5095189,0.4003741,0.05704677,1.215676,-0.03726041,0.05197171,0.1191411,-0.0001220703,2.494261,17.14761,33.73
3,-0.2715607,0.04389954,0.9614105,1.0,-0.3224487,0.05293274,0.9450989,-33.72092,7.894363,-29.58482,5.283752,0.6215377,0.3153265,1.0,-0.2172699,0.03427124,0.9754944,33.50571,5.207306,-28.45534,5.131744,0.509145,0.3996065,0.05762708,1.215583,-0.03729725,0.05200625,0.1214134,-0.000545915,2.494261,17.14761,33.73
3,-0.2715607,0.04389954,0.9614105,1.0,-0.3224487,0.05293274,0.9450989,-33.72092,7.894363,-29.58482,5.283752,0.6215377,0.3153265,1.0,-0.2172699,0.03427124,0.9754944,33.50571,5.207306,-28.45534,5.131744,0.509145,0.3996065,0.05762708,1.215583,-0.03729725,0.05200625,0.1214134,-0.000545915,2.494261,17.14761,33.73
3,-0.2633209,0.04301453,0.9637451,1.0,-0.3139191,0.0526886,0.9479675,-33.72092,7.894363,-29.58482,5.282074,0.62002,0.3153265,1.0,-0.2146301,0.03372192,0.9761047,33.51517,5.210251,-28.46046,5.1306,0.5083705,0.399617,0.0581032,1.215488,-0.03731441,0.05230182,0.1237683,-0.0009376399,2.494261,17.14761,33.73
3,-0.2633209,0.04301453,0.9637451,1.0,-0.3139191,0.0526886,0.9479675,-33.72092,7.894363,-29.58482,5.282074,0.62002,0.3153265,1.0,-0.2146301,0.03372192,0.9761047,33.51517,5.210251,-28.46046,5.1306,0.5083705,0.399617,0.0581032,1.215488,-0.03731441,0.05230182,0.1237683,-0.0009376399,2.494261,17.14761,33.73
3,-0.2634583,0.0348053,0.964035,1.0,-0.3063049,0.03514099,0.9512787,-33.72929,7.895081,-29.59254,5.312042,0.618829,0.3184184,1.0,-0.2099152,0.0342865,0.9771118,33.61038,5.156784,-28.40739,5.178772,0.5042517,0.4008601,0.05844557,1.215312,-0.03741205,0.05251493,0.1255796,-0.001078096,2.494261,17.14761,33.73
3,-0.2634583,0.0348053,0.964035,1.0,-0.3063049,0.03514099,0.9512787,-33.72929,7.895081,-29.59254,5.312042,0.618829,0.3184184,1.0,-0.2099152,0.0342865,0.9771118,33.61038,5.156784,-28.40739,5.178772,0.5042517,0.4008601,0.05844557,1.215312,-0.03741205,0.05251493,0.1255796,-0.001078096,2.494261,17.14761,33.73
3,-0.2606964,0.04762268,0.9642334,1.0,-0.2979279,0.05366516,0.953064,-33.70134,7.917786,-29.59387,5.414581,0.6165392,0.314231,1.0,-0.1946869,0.03691101,0.9801636,33.66508,5.149841,-28.36241,5.081528,0.4998399,0.4000918,0.05872571,1.215335,-0.03749347,0.05245701,0.1268417,-0.001132034,2.494261,17.14761,33.73
3,-0.2606964,0.04762268,0.9642334,1.0,-0.2979279,0.05366516,0.953064,-33.70134,7.917786,-29.59387,5.414581,0.6165392,0.314231,1.0,-0.1946869,0.03691101,0.9801636,33.66508,5.149841,-28.36241,5.081528,0.4998399,0.4000918,0.05872571,1.215335,-0.03749347,0.05245701,0.1268417,-0.001132034,2.494261,17.14761,33.73
3,-0.26091,0.0440979,0.9643402,1.0,-0.2901154,0.04626465,0.9558563,-33.6938,7.929688,-29.57857,5.35553,0.6148369,0.3149848,1.0,-0.196991,0.03927612,0.9796143,33.6752,5.155319,-28.36241,5.123581,0.4998698,0.3995444,0.05899882,1.215341,-0.03750777,0.05238054,0.1281054,-0.001064184,2.494261,17.14761,33.73
3,-0.26091,0.0440979,0.9643402,1.0,-0.2901154,0.04626465,0.9558563,-33.6938,7.929688,-29.57857,5.35553,0.6148369,0.3149848,1.0,-0.196991,0.03927612,0.9796143,33.6752,5.155319,-28.36241,5.123581,0.4998698,0.3995444,0.05899882,1.215341,-0.03750777,0.05238054,0.1281054,-0.001064184,2.494261,17.14761,33.73
3,-0.2529449,0.04109192,0.9665985,1.0,-0.2910614,0.04212952,0.9557648,-33.68939,7.930664,-29.57564,5.364975,0.6148107,0.3156677,1.0,-0.1976013,0.039505,0.9794769,33.6861,5.162735,-28.37091,5.148071,0.4995915,0.3993373,0.05924737,1.215381,-0.03750777,0.05239874,0.1289442,-0.001145121,2.494261,17.14761,33.73
3,-0.2529449,0.04109192,0.9665985,1.0,-0.2910614,0.04212952,0.9557648,-33.68939,7.930664,-29.57564,5.364975,0.6148107,0.3156677,1.0,-0.1976013,0.039505,0.9794769,33.6861,5.162735,-28.37091,5.148071,0.4995915,0.3993373,0.05924737,1.215381,-0.03750777,0.05239874,0.1289442,-0.001145121,2.494261,17.14761,33.73
3,-0.244812,0.04225159,0.9686432,1.0,-0.2910004,0.04452515,0.9556732,-33.68361,7.928864,-29.57759,5.365356,0.6146157,0.3153254,1.0,-0.1969604,0.0398407,0.979599,33.69481,5.166931,-28.38359,5.154114,0.499184,0.3992444,0.05935752,1.215297,-0.03749979,0.05238552,0.1293565,-0.001042969,2.494261,0.1865082,33.73
3,-0.244812,0.04225159,0.9686432,1.0,-0.2910004,0.04452515,0.9556732,-33.68361,7.928864,-29.57759,5.365356,0.6146157,0.3153254,1.0,-0.1969604,0.0398407,0.979599,33.69481,5.166931,-28.38359,5.154114,0.499184,0.3992444,0.05935752,1.215297,-0.03749979,0.05238552,0.1293565,-0.001042969,2.494261,0.1865082,33.73
3,-0.2457123,0.04351807,0.9683533,1.0,-0.2921295,0.04580688,0.9552765,-33.66946,7.923141,-29.57874,5.377304,0.6143222,0.315335,1.0,-0.1923676,0.040802,0.9804688,33.70856,5.170929,-28.40729,5.170303,0.497932,0.3991049,0.05934703,1.215262,-0.03750479,0.05247065,0.1293322,-0.001021314,2.494261,0.1865082,33.73
3,-0.2457123,0.04351807,0.9683533,1.0,-0.2921295,0.04580688,0.9552765,-33.66946,7.923141,-29.57874,5.377304,0.6143222,0.315335,1.0,-0.1923676,0.040802,0.9804688,33.70856,5.170929,-28.40729,5.170303,0.497932,0.3991049,0.05934703,1.215262,-0.03750479,0.05247065,0.1293322,-0.001021314,2.494261,0.1865082,33.73
3,-0.2462463,0.04455566,0.9681702,1.0,-0.2908783,0.04536438,0.9556732,-33.65533,7.926834,-29.57825,5.387512,0.6136044,0.3152691,1.0,-0.1902008,0.04342651,0.9807739,33.72217,5.174759,-28.43437,5.189514,0.4970996,0.3987469,0.05932534,1.215254,-0.03743351,0.05242433,0.1288836,-0.001170857,2.494261,0.1865082,33.73
3,-0.2462463,0.04455566,0.9681702,1.0,-0.2908783,0.04536438,0.9556732,-33.65533,7.926834,-29.57825,5.387512,0.6136044,0.3152691,1.0,-0.1902008,0.04342651,0.9807739,33.72217,5.174759,-28.43437,5.189514,0.4970996,0.3987469,0.05932534,1.215254,-0.03743351,0.05242433,0.1288836,-0.001170857,2.494261,0.1865082,33.73
3,-0.2456207,0.04544067,0.9682922,1.0,-0.2891541,0.0451355,0.9562073,-33.6432,7.927353,-29.57774,5.405106,0.612874,0.3152846,1.0,-0.190033,0.04568481,0.9806976,33.74251,5.178619,-28.45575,5.21257,0.4963733,0.3984128,0.05933869,1.215276,-0.03722632,0.05259474,0.1281396,-0.001660336,2.494261,0.1865082,33.73
3,-0.2456207,0.04544067,0.9682922,1.0,-0.2891541,0.0451355,0.9562073,-33.6432,7.927353,-29.57774,5.405106,0.612874,0.3152846,1.0,-0.190033,0.04568481,0.9806976,33.74251,5.178619,-28.45575,5.21257,0.4963733,0.3984128,0.05933869,1.215276,-0.03722632,0.05259474,0.1281396,-0.001660336,2.494261,0.1865082,33.73
3,-0.2436218,0.0463562,0.96875,1.0,-0.2841949,0.045578,0.9576721,-33.63321,7.923141,-29.5766,5.405457,0.6116486,0.315335,1.0,-0.1924591,0.04722595,0.9801636,33.7585,5.182571,-28.47653,5.232819,0.4962334,0.3982243,0.05929565,1.215256,-0.03710371,0.05293772,0.127418,-0.001743513,2.494261,0.1865082,33.73
3,-0.2436218,0.0463562,0.96875,1.0,-0.2841949,0.045578,0.9576721,-33.63321,7.923141,-29.5766,5.405457,0.6116486,0.315335,1.0,-0.1924591,0.04722595,0.9801636,33.7585,5.182571,-28.47653,5.232819,0.4962334,0.3982243,0.05929565,1.215256,-0.03710371,0.05293772,0.127418,-0.001743513,2.494261,0.1865082,33.73
3,-0.2408142,0.04548645,0.9694977,1.0,-0.282608,0.04507446,0.9581604,-33.63321,7.922531,-29.57191,5.411118,0.6113619,0.3153972,1.0,-0.1899109,0.04586792,0.9807129,33.76424,5.194672,-28.48233,5.281754,0.4955759,0.3980875,0.0593487,1.215209,-0.03696555,0.05302252,0.1267852,-0.001855308,2.494261,0.1865082,33.73
3,-0.2408142,0.04548645,0.9694977,1.0,-0.282608,0.04507446,0.9581604,-33.63321,7.922531,-29.57191,5.411118,0.6113619,0.3153972,1.0,-0.1899109,0.04586792,0.9807129,33.76424,5.194672,-28.48233,5.281754,0.4955759,0.3980875,0.0593487,1.215209,-0.03696555,0.05302252,0.1267852,-0.001855308,2.494261,0.1865082,33.73
3,-0.2390442,0.04522705,0.9699402,1.0,-0.2826385,0.04515076,0.9581604,-33.63321,7.923141,-29.57063,5.441345,0.6113619,0.315335,1.0,-0.1896973,0.04519653,0.9807892,33.76527,5.198334,-28.48233,5.284103,0.4955008,0.3980745,0.05934131,1.215164,-0.03685665,0.05311827,0.126259,-0.001933958,2.494261,0.1865082,33.73
3,-0.2390442,0.04522705,0.9699402,1.0,-0.2826385,0.04515076,0.9581604,-33.63321,7.923141,-29.57063,5.441345,0.6113619,0.315335,1.0,-0.1896973,0.04519653,0.9807892,33.76527,5.198334,-28.48233,5.284103,0.4955008,0.3980745,0.05934131,1.215164,-0.03685665,0.05311827,0.126259,-0.001933958,2.494261,0.1865082,33.73
3,-0.2361908,0.04393005,0.9707031,1.0,-0.2826538,0.04350281,0.9582214,-33.63353,7.925171,-29.56758,5.45256,0.6113619,0.3155313,1.0,-0.1897278,0.04426575,0.980835,33.76527,5.205063,-28.47784,5.291626,0.4955008,0.3979653,0.05936527,1.215099,-0.03688794,0.05322462,0.126084,-0.00210726,2.494261,-30.14012,33.73
3,-0.2361908,0.04393005,0.9707031,1.0,-0.2826538,0.04350281,0.9582214,-33.63353,7.925171,-29.56758,5.45256,0.6113619,0.3155313,1.0,-0.1897278,0.04426575,0.980835,33.76527,5.205063,-28.47784,5.291626,0.4955008,0.3979653,0.05936527,1.215099,-0.03688794,0.05322462,0.126084,-0.00210726,2.494261,-30.14012,33.73
4,-0.2480316,0.04034424,0.9678955,1.0,-0.2817535,0.043396,0.9584961,-33.64644,7.922531,-29.56528,5.457855,0.6116486,0.3156075,1.0,-0.1940002,0.03543091,0.9803467,33.76424,5.222992,-28.36633,5.300186,0.4962143,0.3979509,0.0595175,1.215067,-0.03683197,0.05299342,0.1263867,-0.002373318,2.494261,-30.14012,33.73
4,-0.2480316,0.04034424,0.9678955,1.0,-0.2817535,0.043396,0.9584961,-33.64644,7.922531,-29.56528,5.457855,0.6116486,0.3156075,1.0,-0.1940002,0.03543091,0.9803467,33.76424,5.222992,-28.36633,5.300186,0.4962143,0.3979509,0.0595175,1.215067,-0.03683197,0.05299342,0.1263867,-0.002373318,2.494261,-30.14012,33.73
4,-0.2595825,0.04226685,0.9647827,1.0,-0.2863464,0.04499817,0.9570618,-33.66165,7.925171,-29.56497,5.469208,0.6130021,0.3152276,1.0,-0.1943817,0.03553772,0.9802704,33.75194,5.224808,-28.36633,5.337784,0.4966827,0.3978901,0.0596751,1.215029,-0.03682351,0.05293955,0.1270753,-0.002319336,2.494261,-30.14012,33.73
4,-0.2595825,0.04226685,0.9647827,1.0,-0.2863464,0.04499817,0.9570618,-33.66165,7.925171,-29.56497,5.469208,0.6130021,0.3152276,1.0,-0.1943817,0.03553772,0.9802704,33.75194,5.224808,-28.36633,5.337784,0.4966827,0.3978901,0.0596751,1.215029,-0.03682351,0.05293955,0.1270753,-0.002319336,2.494261,-30.14012,33.73
4,-0.2571716,0.04216003,0.9654388,1.0,-0.2880402,0.04478455,0.9565582,-33.67084,7.927216,-29.56497,5.468918,0.6136246,0.3152003,1.0,-0.1954803,0.03684998,0.980011,33.74507,5.22522,-28.36633,5.34816,0.4971023,0.3976704,0.05974877,1.215005,-0.0367825,0.0531756,0.1276361,-0.002316121,2.494261,-30.14012,33.73
4,-0.2571716,0.04216003,0.9654388,1.0,-0.2880402,0.04478455,0.9565582,-33.67084,7.927216,-29.56497,5.468918,0.6136246,0.3152003,1.0,-0.1954803,0.03684998,0.980011,33.74507,5.22522,-28.36633,5.34816,0.4971023,0.3976704,0.05974877,1.215005,-0.0367825,0.0531756,0.1276361,-0.002316121,2.494261,-30.14012,33.73
4,-0.2350006,0.05743408,0.9702911,1.0,-0.2552643,0.06077576,0.9649506,-33.47049,7.950348,-29.53346,5.593491,0.6009839,0.3112099,1.0,-0.148941,0.04309082,0.9878998,33.91835,5.365234,-28.82272,5.391174,0.4833305,0.3952849,0.0597893,1.214977,-0.03676742,0.05313523,0.1280516,-0.002435295,2.494261,-30.14012,33.73
4,-0.2350006,0.05743408,0.9702911,1.0,-0.2552643,0.06077576,0.9649506,-33.47049,7.950348,-29.53346,5.593491,0.6009839,0.3112099,1.0,-0.148941,0.04309082,0.9878998,33.91835,5.365234,-28.82272,5.391174,0.4833305,0.3952849,0.0597893,1.214977,-0.03676742,0.05313523,0.1280516,-0.002435295,2.494261,-30.14012,33.73
4,-0.03137207,0.07173157,0.9969177,1.0,-0.1595306,0.08805847,0.9832458,-32.66875,7.509277,-27.11417,5.631943,0.5551928,0.3030977,1.0,-0.03135681,0.07173157,0.9969177,34.60287,5.228455,-27.91887,5.453293,0.4401318,0.38677,0.0598073,1.214982,-0.03677702,0.05309399,0.1279293,-0.002309679,2.494261,-30.14012,33.73
4,-0.03137207,0.07173157,0.9969177,1.0,-0.1595306,0.08805847,0.9832458,-32.66875,7.509277,-27.11417,5.631943,0.5551928,0.3030977,1.0,-0.03135681,0.07173157,0.9969177,34.60287,5.228455,-27.91887,5.453293,0.4401318,0.38677,0.0598073,1.214982,-0.03677702,0.05309399,0.1279293,-0.002309679,2.494261,-30.14012,33.73
4,0.006072998,0.08853149,0.996048,1.0,-0.1240082,0.1063232,0.986557,-32.47171,7.571945,-27.06511,5.668015,0.5425019,0.2982842,1.0,0.006072998,0.08853149,0.996048,34.76207,5.361008,-28.23395,5.443222,0.42828,0.3818306,0.05984318,1.215104,-0.03662467,0.05267217,0.1278352,-0.002013235,2.494261,-30.14012,33.73
4,0.006072998,0.08853149,0.996048,1.0,-0.1240082,0.1063232,0.986557,-32.47171,7.571945,-27.06511,5.668015,0.5425019,0.2982842,1.0,0.006072998,0.08853149,0.996048,34.76207,5.361008,-28.23395,5.443222,0.42828,0.3818306,0.05984318,1.215104,-0.03662467,0.05267217,0.1278352,-0.002013235,2.494261,-30.14012,33.73
4,0.004226685,0.08074951,0.9967194,1.0,-0.121994,0.09706116,0.9877625,-32.515,7.576538,-27.09737,5.58989,0.543626,0.2998992,1.0,0.004226685,0.08074951,0.9967194,34.79874,5.328995,-28.12616,5.418304,0.4273737,0.3833266,0.05978453,1.215213,-0.03656578,0.05250698,0.1280255,-0.001682623,2.494261,-46.71159,33.73
4,0.004226685,0.08074951,0.9967194,1.0,-0.121994,0.09706116,0.9877625,-32.515,7.576538,-27.09737,5.58989,0.543626,0.2998992,1.0,0.004226685,0.08074951,0.9967194,34.79874,5.328995,-28.12616,5.418304,0.4273737,0.3833266,0.05978453,1.215213,-0.03656578,0.05250698,0.1280255,-0.001682623,2.494261,-46.71159,33.73
4,0.003646851,0.08633423,0.9962463,1.0,-0.1204681,0.09700012,0.9879608,-32.52309,7.567688,-27.05579,5.541977,0.543626,0.2998992,1.0,0.003646851,0.08633423,0.9962463,34.80696,5.328384,-28.11485,5.420822,0.4271942,0.3823039,0.05976903,1.215178,-0.03657454,0.05235166,0.128111,-0.001586914,2.494261,-2.995636,33.73
4,-0.07060242,0.09170532,0.9932709,1.0,-0.1202087,0.09664917,0.9880219,-32.53413,7.558365,-27.02711,5.560181,0.5439321,0.3000842,1.0,0.005020142,0.08377075,0.99646,34.81148,5.327164,-28.11179,5.415253,0.426809,0.3827513,0.05974782,1.215181,-0.03655028,0.05251933,0.1281242,-0.001490058,2.494261,-2.995636,33.73
4,-0.07060242,0.09170532,0.9932709,1.0,-0.1202087,0.09664917,0.9880219,-32.53413,7.558365,-27.02711,5.560181,0.5439321,0.3000842,1.0,0.005020142,0.08377075,0.99646,34.81148,5.327164,-28.11179,5.415253,0.426809,0.3827513,0.05974782,1.215181,-0.03655028,0.05251933,0.1281242,-0.001490058,2.494261,-2.995636,33.73
4,-0.06161499,0.09237671,0.9938049,1.0,-0.1217804,0.09881592,0.9876099,-32.5434,7.549911,-27.05293,5.560303,0.5445213,0.3002107,1.0,0.00617981,0.08476257,0.9963684,34.81396,5.323929,-28.11896,5.421051,0.426524,0.3827513,0.05970323,1.215147,-0.03657037,0.05275641,0.1279593,-0.001158061,2.494261,-2.995636,33.73
4,-0.05352783,0.08935547,0.9945526,1.0,-0.1216888,0.09750366,0.9877625,-32.54941,7.549911,-27.05579,5.559753,0.5447068,0.3004509,1.0,0.005371094,0.08200073,0.9966125,34.81812,5.321259,-28.12138,5.427582,0.4265131,0.3833388,0.05966961,1.215131,-0.03653896,0.05291153,0.1279482,-0.001021313,2.494261,-2.995636,33.73
4,-0.05505371,0.08927917,0.9944763,1.0,-0.1208344,0.09814453,0.987793,-32.55086,7.549774,-27.05435,5.576385,0.544614,0.3003308,1.0,0.005233765,0.08084106,0.9967041,34.82115,5.320953,-28.11905,5.424286,0.4264333,0.3835158,0.0596143,1.2151,-0.03653765,0.05278126,0.1279213,-0.001035801,2.494261,-2.995636,33.73
4,-0.05632019,0.0904541,0.9942932,1.0,-0.1203461,0.09707642,0.9879608,-32.55347,7.549484,-27.04724,5.580276,0.544614,0.300467,1.0,0.005340576,0.08374023,0.99646,34.82578,5.31691,-28.11885,5.431091,0.426255,0.3831617,0.05960274,1.215152,-0.03651226,0.05271049,0.1279998,-0.001028583,2.494261,-2.995636,33.73
4,-0.05680847,0.09008789,0.9943085,1.0,-0.1199799,0.09689331,0.9880219,-32.5553,7.549774,-27.04964,5.580292,0.544614,0.300511,1.0,0.005218506,0.08306885,0.996521,34.83037,5.31691,-28.10474,5.429184,0.4261246,0.3831617,0.05966449,1.215207,-0.03647459,0.05271459,0.1281,-0.0009611826,2.494261,-2.995636,33.73
4,-0.05821228,0.09039307,0.9942017,1.0,-0.1197968,0.09655762,0.9880829,-32.55595,7.549911,-27.04633,5.58046,0.544605,0.3005389,1.0,0.004226685,0.08381653,0.99646,34.83519,5.316376,-28.10474,5.429626,0.4261246,0.3830502,0.05965793,1.215181,-0.03648162,0.0526709,0.1283913,-0.0009841623,2.494261,-2.995636,33.73
4,-0.05821228,0.09039307,0.9942017,1.0,-0.1197968,0.09655762,0.9880829,-32.55595,7.549911,-27.04633,5.58046,0.544605,0.3005389,1.0,0.004226685,0.08381653,0.99646,34.83519,5.316376,-28.10474,5.429626,0.4261246,0.3830502,0.05965793,1.215181,-0.03648162,0.0526709,0.1283913,-0.0009841623,2.494261,-2.995636,33.73
4,-0.05992126,0.08938599,0.9941864,1.0,-0.1214447,0.09541321,0.9879913,-32.55818,7.549911,-27.04633,5.580399,0.5449457,0.3007307,1.0,0.005340576,0.08262634,0.9965515,34.83688,5.31572,-28.09106,5.449982,0.4258793,0.3831744,0.05969703,1.21517,-0.03645307,0.05272887,0.1287082,-0.0007012406,2.494261,-2.995636,33.73
4,-0.06089783,0.08798218,0.9942474,1.0,-0.1213226,0.09500122,0.9880524,-32.56061,7.549911,-27.05293,5.579926,0.5450085,0.3008519,1.0,0.005386353,0.07992554,0.9967804,34.83699,5.314636,-28.07387,5.431564,0.4258793,0.3835158,0.05977595,1.215123,-0.03648794,0.05266482,0.1286989,-0.0004567453,2.494261,-2.995636,33.73
4,-0.06089783,0.08798218,0.9942474,1.0,-0.1213226,0.09500122,0.9880524,-32.56061,7.549911,-27.05293,5.579926,0.5450085,0.3008519,1.0,0.005386353,0.07992554,0.9967804,34.83699,5.314636,-28.07387,5.431564,0.4258793,0.3835158,0.05977595,1.215123,-0.03648794,0.05266482,0.1286989,-0.0004567453,2.494261,-2.995636,33.73
4,-0.0617981,0.08625793,0.994339,1.0,-0.120285,0.09280396,0.9883881,-32.56671,7.553818,-27.05125,5.596817,0.5450374,0.3010716,1.0,0.006057739,0.07832336,0.9969025,34.83913,5.313141,-28.06708,5.43103,0.4256946,0.3837732,0.05981052,1.215077,-0.03649807,0.05259021,0.1290635,-0.0002729575,2.494261,-2.995636,33.73
4,-0.0718689,0.08590698,0.9936981,1.0,-0.1308594,0.09773254,0.986557,-32.70799,7.511383,-26.84999,5.762985,0.5514414,0.3001357,1.0,-0.0214386,0.07557678,0.9969025,34.73303,5.285385,-27.96309,5.44426,0.4340006,0.3844588,0.05976713,1.215027,-0.03650635,0.05253408,0.1293323,-0.0001220703,2.494261,-2.995636,33.73
4,-0.09579468,0.09135437,0.9911957,1.0,-0.2259674,0.095047,0.9694824,-33.19325,7.787643,-27.73856,5.695145,0.5846673,0.2975878,1.0,-0.09480286,0.09132385,0.9912872,34.17796,5.292984,-27.78839,5.530762,0.4653789,0.3806635,0.0598582,1.215109,-0.03642976,0.05249705,0.1298441,-0.0001726335,2.494261,26.88144,33.73
4,-0.1428528,0.08589172,0.9860077,1.0,-0.2707825,0.1152954,0.9557037,-33.43269,7.83017,-27.81514,5.733322,0.6008061,0.2931713,1.0,-0.1427612,0.08586121,0.9860229,33.87639,5.386505,-27.9015,5.525513,0.4837603,0.3796871,0.05992138,1.215113,-0.03640509,0.05256272,0.1302068,0.0001220703,2.494261,19.37846,33.73
4,-0.1933594,0.09049988,0.976944,1.0,-0.3083038,0.1137543,0.9444427,-33.67348,7.908646,-27.87538,5.720139,0.6158077,0.2909798,1.0,-0.1933441,0.09048462,0.976944,33.6001,5.520401,-28.17911,5.438904,0.5018858,0.3769463,0.05999577,1.215094,-0.03625715,0.05261344,0.1307014,0.0001220703,2.494261,19.37846,33.73
4,-0.1933594,0.09049988,0.976944,1.0,-0.3083038,0.1137543,0.9444427,-33.67348,7.908646,-27.87538,5.720139,0.6158077,0.2909798,1.0,-0.1933441,0.09048462,0.976944,33.6001,5.520401,-28.17911,5.438904,0.5018858,0.3769463,0.05999577,1.215094,-0.03625715,0.05261344,0.1307014,0.0001220703,2.494261,19.37846,33.73
4,-0.2009735,0.09217834,0.975235,1.0,-0.3121338,0.1215363,0.9422302,-33.70457,7.903961,-27.89322,5.6017,0.6176759,0.2899188,1.0,-0.200943,0.09217834,0.9752502,33.63213,5.514511,-28.18117,5.459839,0.5020703,0.376932,0.06021094,1.21512,-0.03617072,0.05275811,0.1316756,0.00059802,2.484012,19.37846,33.73
4,-0.2019958,0.09777832,0.9744873,1.0,-0.3157806,0.1215057,0.9410095,-33.70586,7.902206,-27.89558,5.655914,0.618346,0.2900174,1.0,-0.2015076,0.09767151,0.9745941,33.65329,5.520264,-28.18733,5.507904,0.5014382,0.375881,0.06019068,1.215061,-0.03627974,0.05263751,0.1321747,0.0006796588,2.484012,19.37846,33.73
4,-0.2960968,0.1100159,0.9487915,1.0,-0.3170776,0.114975,0.941391,-33.70978,7.901764,-27.89488,5.63942,0.6186491,0.2911793,1.0,-0.1982117,0.08659363,0.9763184,33.66866,5.518982,-28.17284,5.440689,0.5003439,0.3776162,0.06026828,1.215085,-0.03624618,0.05267557,0.1326563,0.0007524919,2.484012,19.37846,33.73
4,-0.2971954,0.1156311,0.9477844,1.0,-0.316925,0.1211243,0.9406738,-33.71242,7.901245,-27.89655,5.675629,0.6187701,0.290116,1.0,-0.1922607,0.08616638,0.9775391,33.67288,5.517883,-28.16525,5.398376,0.4992075,0.3775949,0.06041253,1.215055,-0.03622943,0.05275457,0.1330166,0.0008368719,2.484012,19.37846,33.73
4,-0.2555542,0.1046143,0.9611053,1.0,-0.3155365,0.1211395,0.9411316,-33.71242,7.901245,-27.89655,5.674835,0.618528,0.290116,1.0,-0.1923676,0.08705139,0.9774475,33.67929,5.511932,-28.15849,5.399231,0.4990068,0.3775949,0.06051099,1.215079,-0.0361619,0.05265732,0.1333739,0.0008004686,2.484012,19.37846,33.73
4,-0.2555542,0.1046143,0.9611053,1.0,-0.3155365,0.1211395,0.9411316,-33.71242,7.901245,-27.89655,5.674835,0.618528,0.290116,1.0,-0.1923676,0.08705139,0.9774475,33.67929,5.511932,-28.15849,5.399231,0.4990068,0.3775949,0.06051099,1.215079,-0.0361619,0.05265732,0.1333739,0.0008004686,2.484012,19.37846,33.73
4,-0.2557373,0.1092224,0.9605408,1.0,-0.3120117,0.1219788,0.9421997,-33.70912,7.901337,-27.89584,5.707153,0.617799,0.2899188,1.0,-0.1938324,0.09500122,0.9764099,33.68689,5.505753,-28.16029,5.44519,0.4989992,0.3765095,0.06064093,1.215003,-0.03610903,0.05275118,0.1335055,0.0007221777,2.484012,19.37846,33.73
4,-0.2518921,0.1112213,0.9613342,1.0,-0.3115234,0.1250458,0.9419708,-33.70712,7.903076,-27.89571,5.707077,0.6176759,0.2893157,1.0,-0.1864166,0.09579468,0.9777832,33.69394,5.50441,-28.15947,5.443222,0.4975005,0.3763576,0.06066132,1.214968,-0.03602213,0.05272279,0.1335167,0.0005725605,2.484012,19.37846,33.73
4,-0.2503204,0.1118469,0.9616699,1.0,-0.3095856,0.1256409,0.9425201,-33.70586,7.903519,-27.89522,5.709305,0.6172974,0.289184,1.0,-0.1871185,0.09690857,0.9775391,33.69783,5.503601,-28.15898,5.437241,0.4974931,0.3761974,0.06066883,1.214878,-0.03597653,0.05281245,0.1332096,0.0004048614,2.484012,19.37846,33.73
4,-0.2496185,0.1116943,0.9618683,1.0,-0.3076324,0.125351,0.9432068,-33.70439,7.904388,-27.8945,5.708755,0.6169029,0.289184,1.0,-0.1883545,0.09703064,0.9772797,33.70531,5.502594,-28.15842,5.416962,0.4974579,0.3761974,0.06067657,1.214847,-0.03591824,0.05272732,0.132866,0.00029901,2.484012,19.37846,33.73
4,-0.2496185,0.1116943,0.9618683,1.0,-0.3076324,0.125351,0.9432068,-33.70439,7.904388,-27.8945,5.708755,0.6169029,0.289184,1.0,-0.1883545,0.09703064,0.9772797,33.70531,5.502594,-28.15842,5.416962,0.4974579,0.3761974,0.06067657,1.214847,-0.03591824,0.05272732,0.132866,0.00029901,2.484012,19.37846,33.73
4,-0.2502899,0.1118317,0.9616852,1.0,-0.3076324,0.1244965,0.9433136,-33.70419,7.904816,-27.89426,5.711319,0.6168869,0.2893157,1.0,-0.1889038,0.09805298,0.9770813,33.70889,5.50238,-28.15833,5.419128,0.4974301,0.3760372,0.06054652,1.214889,-0.03584814,0.05251607,0.1318329,-0.0001726335,2.484012,17.42996,33.73
4,-0.2502136,0.1114044,0.9617462,1.0,-0.307373,0.1242371,0.9434357,-33.69931,7.906128,-27.89389,5.723404,0.6166704,0.2893157,1.0,-0.190506,0.09779358,0.9767914,33.72049,5.502792,-28.15445,5.40358,0.4973115,0.3760372,0.06047952,1.21491,-0.03583467,0.0524803,0.1312924,-0.0005725606,2.484012,17.42996,33.73
4,-0.2481079,0.1121368,0.962204,1.0,-0.307663,0.1255341,0.9431763,-33.69734,7.906799,-27.89288,5.724365,0.6166632,0.2890524,1.0,-0.1863556,0.0980072,0.9775696,33.73111,5.50238,-28.15094,5.402466,0.496242,0.3759534,0.06047952,1.21491,-0.03583467,0.0524803,0.1312924,-0.0005725606,2.484012,17.42996,33.73
4,-0.2462158,0.1128235,0.962616,1.0,-0.3056335,0.1256104,0.9438171,-33.69687,7.906891,-27.89282,5.724365,0.6162946,0.2890317,1.0,-0.1838684,0.09916687,0.9779205,33.74399,5.500534,-28.1461,5.431473,0.4953678,0.3757777,0.06026423,1.214872,-0.03584296,0.05234198,0.1300939,-0.0008886853,2.484012,17.42996,33.73
4,-0.2458954,0.1142273,0.9625244,1.0,-0.3049622,0.1285248,0.9436493,-33.69687,7.906998,-27.89282,5.724899,0.6162049,0.288503,1.0,-0.1828918,0.09872437,0.9781494,33.75084,5.500259,-28.13731,5.431412,0.4949642,0.3757777,0.060166,1.214959,-0.03585482,0.05201083,0.1288445,-0.0008631675,2.484012,17.42996,33.73
4,-0.2458954,0.1142273,0.9625244,1.0,-0.3049622,0.1285248,0.9436493,-33.69687,7.906998,-27.89282,5.724899,0.6162049,0.288503,1.0,-0.1828918,0.09872437,0.9781494,33.75084,5.500259,-28.13731,5.431412,0.4949642,0.3757777,0.060166,1.214959,-0.03585482,0.05201083,0.1288445,-0.0008631675,2.484012,17.42996,33.73
4,-0.2465668,0.1157379,0.9621735,1.0,-0.3035278,0.1280823,0.9441681,-33.69687,7.908905,-27.89282,5.730453,0.6159512,0.288503,1.0,-0.1838074,0.1018524,0.9776611,33.75859,5.498642,-28.12569,5.433319,0.4948606,0.3752158,0.06003022,1.215082,-0.03584558,0.0515157,0.1278009,-0.001050089,2.484012,17.42996,33.73
4,-0.2465668,0.1157379,0.9621735,1.0,-0.3035278,0.1280823,0.9441681,-33.69687,7.908905,-27.89282,5.730453,0.6159512,0.288503,1.0,-0.1838074,0.1018524,0.9776611,33.75859,5.498642,-28.12569,5.433319,0.4948606,0.3752158,0.06003022,1.215082,-0.03584558,0.0515157,0.1278009,-0.001050089,2.484012,17.42996,33.73
4,-0.2509613,0.1143341,0.9612122,1.0,-0.3056488,0.1251678,0.9438629,-33.69687,7.908905,-27.89282,5.727997,0.6162946,0.2890317,1.0,-0.1828613,0.1005402,0.9779663,33.75859,5.487,-28.07915,5.430283,0.4946912,0.3754472,0.0599736,1.215096,-0.03589416,0.05105984,0.1270712,-0.00109183,2.484012,17.42996,33.73
4,-0.2509613,0.1143341,0.9612122,1.0,-0.3056488,0.1251678,0.9438629,-33.69687,7.908905,-27.89282,5.727997,0.6162946,0.2890317,1.0,-0.1828613,0.1005402,0.9779663,33.75859,5.487,-28.07915,5.430283,0.4946912,0.3754472,0.0599736,1.215096,-0.03589416,0.05105984,0.1270712,-0.00109183,2.484012,17.42996,33.73
4,-0.2570038,0.1176453,0.9592133,1.0,-0.3041382,0.1289215,0.9438477,-33.70462,7.906891,-27.89432,5.72908,0.6163346,0.2884309,1.0,-0.1845398,0.1000214,0.9777069,33.75859,5.472382,-28.045,5.437485,0.4949642,0.3757777,0.0597719,1.215166,-0.03598499,0.05050865,0.1264338,-0.001238878,2.484012,17.42996,33.73
4,-0.2570038,0.1176453,0.9592133,1.0,-0.3041382,0.1289215,0.9438477,-33.70462,7.906891,-27.89432,5.72908,0.6163346,0.2884309,1.0,-0.1845398,0.1000214,0.9777069,33.75859,5.472382,-28.045,5.437485,0.4949642,0.3757777,0.0597719,1.215166,-0.03598499,0.05050865,0.1264338,-0.001238878,2.484012,17.42996,33.73
4,-0.25737,0.1192932,0.9589081,1.0,-0.3045502,0.1304932,0.9434967,-33.70976,7.903931,-27.8949,5.744476,0.6165981,0.2882693,1.0,-0.1849823,0.1018372,0.9774475,33.75723,5.469727,-28.02844,5.447372,0.4950833,0.375432,0.05961382,1.215256,-0.03605032,0.05007755,0.125789,-0.001386452,2.484012,17.42996,33.73
4,-0.25737,0.1192932,0.9589081,1.0,-0.3045502,0.1304932,0.9434967,-33.70976,7.903931,-27.8949,5.744476,0.6165981,0.2882693,1.0,-0.1849823,0.1018372,0.9774475,33.75723,5.469727,-28.02844,5.447372,0.4950833,0.375432,0.05961382,1.215256,-0.03605032,0.05007755,0.125789,-0.001386452,2.484012,17.42996,33.73
4,-0.249649,0.121109,0.9607239,1.0,-0.3027191,0.1348877,0.9434814,-33.71997,7.887833,-27.90268,5.75528,0.6166646,0.2881136,1.0,-0.1834564,0.1036682,0.9775391,33.74896,5.459229,-28.02237,5.448349,0.4951112,0.375432,0.05958414,1.215429,-0.03610861,0.04974736,0.1252284,-0.001407783,2.484012,17.42996,33.73
4,-0.249649,0.121109,0.9607239,1.0,-0.3027191,0.1348877,0.9434814,-33.71997,7.887833,-27.90268,5.75528,0.6166646,0.2881136,1.0,-0.1834564,0.1036682,0.9775391,33.74896,5.459229,-28.02237,5.448349,0.4951112,0.375432,0.05958414,1.215429,-0.03610861,0.04974736,0.1252284,-0.001407783,2.484012,17.42996,33.73
4,-0.24646,0.1187286,0.9618378,1.0,-0.302597,0.135376,0.9434509,-33.72043,7.884247,-27.90639,5.756393,0.6166646,0.2881876,1.0,-0.1858063,0.1005707,0.977417,33.74896,5.453674,-28.0123,5.448502,0.4954959,0.3760812,0.05949056,1.215559,-0.03608131,0.04942551,0.1244359,-0.001397159,2.484012,-2.580017,33.73
4,-0.24646,0.1187286,0.9618378,1.0,-0.302597,0.135376,0.9434509,-33.72043,7.884247,-27.90639,5.756393,0.6166646,0.2881876,1.0,-0.1858063,0.1005707,0.977417,33.74896,5.453674,-28.0123,5.448502,0.4954959,0.3760812,0.05949056,1.215559,-0.03608131,0.04942551,0.1244359,-0.001397159,2.484012,-2.580017,33.73
4,-0.2456818,0.1181946,0.9621124,1.0,-0.3025513,0.13591,0.9433746,-33.72043,7.882111,-27.90938,5.759583,0.6166646,0.2881876,1.0,-0.1858215,0.09936523,0.9775391,33.74896,5.450226,-28.00815,5.445984,0.4954959,0.3763581,0.05931461,1.215605,-0.03602922,0.0491466,0.1234071,-0.001359317,2.484012,-2.580017,33.73
4,-0.2456818,0.1181946,0.9621124,1.0,-0.3025513,0.13591,0.9433746,-33.72043,7.882111,-27.90938,5.759583,0.6166646,0.2881876,1.0,-0.1858215,0.09936523,0.9775391,33.74896,5.450226,-28.00815,5.445984,0.4954959,0.3763581,0.05931461,1.215605,-0.03602922,0.0491466,0.1234071,-0.001359317,2.484012,-2.580017,33.73
4,-0.2671509,0.1130219,0.9570007,1.0,-0.2909851,0.1166229,0.949585,-33.56346,7.852249,-27.86676,5.749176,0.6089413,0.292432,1.0,-0.1643677,0.0969696,0.9816132,33.91963,5.279007,-27.55725,5.480331,0.4859351,0.3787268,0.05908823,1.215616,-0.03599203,0.04898018,0.1220951,-0.001303354,2.484012,-2.580017,33.73
4,-0.2671509,0.1130219,0.9570007,1.0,-0.2909851,0.1166229,0.949585,-33.56346,7.852249,-27.86676,5.749176,0.6089413,0.292432,1.0,-0.1643677,0.0969696,0.9816132,33.91963,5.279007,-27.55725,5.480331,0.4859351,0.3787268,0.05908823,1.215616,-0.03599203,0.04898018,0.1220951,-0.001303354,2.484012,-2.580017,33.73
4,-0.01350403,0.100235,0.9948578,1.0,-0.1387634,0.1070251,0.9845123,-32.54997,7.690292,-27.13161,5.678482,0.5477431,0.2942337,1.0,0.002105713,0.09928894,0.9950562,34.75542,5.462372,-28.26651,5.450653,0.4291668,0.3767789,0.05884469,1.215676,-0.03597379,0.04872976,0.1204754,-0.001145121,2.484012,-2.580017,33.73
4,-0.01350403,0.100235,0.9948578,1.0,-0.1387634,0.1070251,0.9845123,-32.54997,7.690292,-27.13161,5.678482,0.5477431,0.2942337,1.0,0.002105713,0.09928894,0.9950562,34.75542,5.462372,-28.26651,5.450653,0.4291668,0.3767789,0.05884469,1.215676,-0.03597379,0.04872976,0.1204754,-0.001145121,2.484012,-2.580017,33.73
4,0.1071472,0.1156006,0.9874878,1.0,0.02365112,0.131546,0.9910126,-31.68974,7.539246,-26.61333,5.801376,0.4918576,0.2915906,1.0,0.1533966,0.1063538,0.9824219,35.49126,5.65596,-28.92273,5.571243,0.3772508,0.3735683,0.05844605,1.215647,-0.03596234,0.04833722,0.11834,-0.001509926,2.484012,-2.580017,33.73
4,0.1071472,0.1156006,0.9874878,1.0,0.02365112,0.131546,0.9910126,-31.68974,7.539246,-26.61333,5.801376,0.4918576,0.2915906,1.0,0.1533966,0.1063538,0.9824219,35.49126,5.65596,-28.92273,5.571243,0.3772508,0.3735683,0.05844605,1.215647,-0.03596234,0.04833722,0.11834,-0.001509926,2.484012,-2.580017,33.73
4,0.1903992,0.1117554,0.9753113,1.0,0.1016541,0.1375275,0.98526,-31.3275,7.606949,-26.87973,5.814499,0.4669108,0.2900578,1.0,0.2233429,0.1018219,0.9693909,35.7794,5.459045,-28.27066,5.523087,0.3557194,0.3758385,0.05800831,1.215657,-0.03588611,0.04816196,0.1158342,-0.001717682,2.484012,-2.580017,33.73
4,0.1903992,0.1117554,0.9753113,1.0,0.1016541,0.1375275,0.98526,-31.3275,7.606949,-26.87973,5.814499,0.4669108,0.2900578,1.0,0.2233429,0.1018219,0.9693909,35.7794,5.459045,-28.27066,5.523087,0.3557194,0.3758385,0.05800831,1.215657,-0.03588611,0.04816196,0.1158342,-0.001717682,2.484012,-2.580017,33.73
4,0.1045074,0.1281738,0.9862213,1.0,0.09500122,0.1296844,0.9869843,-31.40189,7.535599,-26.68777,5.84433,0.4705265,0.2924803,1.0,0.2174988,0.1091766,0.9699249,35.8255,5.426758,-28.28337,5.594437,0.3550956,0.3758084,0.05746758,1.215669,-0.03583413,0.04810081,0.1131153,-0.001831055,2.484012,-2.580017,33.73
4,0.1045074,0.1281738,0.9862213,1.0,0.09500122,0.1296844,0.9869843,-31.40189,7.535599,-26.68777,5.84433,0.4705265,0.2924803,1.0,0.2174988,0.1091766,0.9699249,35.8255,5.426758,-28.28337,5.594437,0.3550956,0.3758084,0.05746758,1.215669,-0.03583413,0.04810081,0.1131153,-0.001831055,2.484012,-2.580017,33.73
4,0.09474182,0.1329803,0.9865723,1.0,0.0944519,0.1330414,0.9865875,-31.41164,7.554977,-26.76088,5.82373,0.4709383,0.2918385,1.0,0.213089,0.1050568,0.9713593,35.83009,5.424286,-28.28712,5.60466,0.3557155,0.3766064,0.05685389,1.215642,-0.03580761,0.04794645,0.1099396,-0.002135358,2.484012,-2.580017,33.73
4,0.09474182,0.1329803,0.9865723,1.0,0.0944519,0.1330414,0.9865875,-31.41164,7.554977,-26.76088,5.82373,0.4709383,0.2918385,1.0,0.213089,0.1050568,0.9713593,35.83009,5.424286,-28.28712,5.60466,0.3557155,0.3766064,0.05685389,1.215642,-0.03580761,0.04794645,0.1099396,-0.002135358,2.484012,-2.580017,33.73
4,0.1633148,0.1123962,0.9801483,1.0,0.07759094,0.1265106,0.9889221,-31.45096,7.55278,-26.75989,5.740875,0.4750167,0.2929782,1.0,0.2086029,0.1045074,0.9723969,35.83606,5.421143,-28.28778,5.599899,0.3562884,0.3767973,0.05619013,1.21567,-0.03570533,0.0476154,0.1066037,-0.002273918,2.484012,-26.56851,33.73
4,0.1633148,0.1123962,0.9801483,1.0,0.07759094,0.1265106,0.9889221,-31.45096,7.55278,-26.75989,5.740875,0.4750167,0.2929782,1.0,0.2086029,0.1045074,0.9723969,35.83606,5.421143,-28.28778,5.599899,0.3562884,0.3767973,0.05619013,1.21567,-0.03570533,0.0476154,0.1066037,-0.002273918,2.484012,-26.56851,33.73
4,0.1974792,0.1049194,0.9746704,1.0,0.05847168,0.1280518,0.990036,-31.52609,7.371216,-26.08456,5.775543,0.4806278,0.2939101,1.0,0.2046204,0.103653,0.9733276,35.83406,5.422272,-28.28925,5.603287,0.3570535,0.3769051,0.05547476,1.215706,-0.03559041,0.04730756,0.1030422,-0.002724111,2.484012,-26.56851,33.73
4,0.1974792,0.1049194,0.9746704,1.0,0.05847168,0.1280518,0.990036,-31.52609,7.371216,-26.08456,5.775543,0.4806278,0.2939101,1.0,0.2046204,0.103653,0.9733276,35.83406,5.422272,-28.28925,5.603287,0.3570535,0.3769051,0.05547476,1.215706,-0.03559041,0.04730756,0.1030422,-0.002724111,2.484012,-26.56851,33.73
4,0.2023773,0.1025391,0.9739075,1.0,0.07223511,0.1260834,0.9893799,-31.53551,7.513519,-26.6633,5.789124,0.4787399,0.2940515,1.0,0.203064,0.1024017,0.9737854,35.83168,5.42421,-28.2896,5.593811,0.3574114,0.3770489,0.054649,1.215735,-0.03558367,0.04708308,0.09941621,-0.002914389,2.484012,-26.56851,33.73
4,0.2023773,0.1025391,0.9739075,1.0,0.07223511,0.1260834,0.9893799,-31.53551,7.513519,-26.6633,5.789124,0.4787399,0.2940515,1.0,0.203064,0.1024017,0.9737854,35.83168,5.42421,-28.2896,5.593811,0.3574114,0.3770489,0.054649,1.215735,-0.03558367,0.04708308,0.09941621,-0.002914389,2.484012,-26.56851,33.73
4,0.2014313,0.1021423,0.9741516,1.0,0.05993652,0.1336975,0.9891968,-31.62132,7.433548,-26.4059,5.855652,0.4836102,0.293468,1.0,0.201767,0.1020508,0.9740906,35.8286,5.425171,-28.29028,5.588974,0.3577435,0.3770848,0.05385888,1.215828,-0.03552496,0.04678591,0.09549832,-0.003102604,2.484012,-26.56851,33.73
4,0.2014313,0.1021423,0.9741516,1.0,0.05993652,0.1336975,0.9891968,-31.62132,7.433548,-26.4059,5.855652,0.4836102,0.293468,1.0,0.201767,0.1020508,0.9740906,35.8286,5.425171,-28.29028,5.588974,0.3577435,0.3770848,0.05385888,1.215828,-0.03552496,0.04678591,0.09549832,-0.003102604,2.484012,-26.56851,33.73
4,0.1882935,0.1025848,0.9767303,1.0,0.04338074,0.1126709,0.9926758,-31.68939,7.455078,-26.45343,5.733292,0.4885806,0.2965632,1.0,0.1934357,0.1021881,0.975769,35.82404,5.426605,-28.30797,5.58519,0.3593311,0.3771401,0.05305374,1.215987,-0.0354389,0.04624886,0.0914714,-0.003227369,2.484012,-26.56851,33.73
4,0.1882935,0.1025848,0.9767303,1.0,0.04338074,0.1126709,0.9926758,-31.68939,7.455078,-26.45343,5.733292,0.4885806,0.2965632,1.0,0.1934357,0.1021881,0.975769,35.82404,5.426605,-28.30797,5.58519,0.3593311,0.3771401,0.05305374,1.215987,-0.0354389,0.04624886,0.0914714,-0.003227369,2.484012,-26.56851,33.73
4,0.1766815,0.1009369,0.9790649,1.0,0.03929138,0.1152191,0.9925537,-31.72212,7.479141,-26.55859,5.704208,0.4903561,0.2960882,1.0,0.1897736,0.09945679,0.9767609,35.81102,5.439819,-28.31697,5.566681,0.3604217,0.3772114,0.05217826,1.216136,-0.03539729,0.04567665,0.08704726,-0.003259529,2.484012,-26.56851,33.73
4,0.1766815,0.1009369,0.9790649,1.0,0.03929138,0.1152191,0.9925537,-31.72212,7.479141,-26.55859,5.704208,0.4903561,0.2960882,1.0,0.1897736,0.09945679,0.9767609,35.81102,5.439819,-28.31697,5.566681,0.3604217,0.3772114,0.05217826,1.216136,-0.03539729,0.04567665,0.08704726,-0.003259529,2.484012,-26.56851,33.73
4,0.03042603,0.1279144,0.9913177,1.0,0.02996826,0.1280365,0.9913025,-31.78163,7.45401,-26.47513,5.791077,0.4938721,0.2941587,1.0,0.136673,0.09738159,0.9858093,35.67711,5.587067,-28.92117,5.489563,0.3736978,0.3773776,0.05127347,1.216323,-0.03532839,0.04477202,0.08251556,-0.003320672,2.484012,-26.56851,33.73
4,0.03042603,0.1279144,0.9913177,1.0,0.02996826,0.1280365,0.9913025,-31.78163,7.45401,-26.47513,5.791077,0.4938721,0.2941587,1.0,0.136673,0.09738159,0.9858093,35.67711,5.587067,-28.92117,5.489563,0.3736978,0.3773776,0.05127347,1.216323,-0.03532839,0.04477202,0.08251556,-0.003320672,2.484012,-26.56851,33.73
4,0.0927887,0.121521,0.9882355,1.0,0.09248352,0.121582,0.9882507,-31.34178,7.421173,-26.59999,5.822281,0.4689286,0.2973055,1.0,0.2245331,0.09118652,0.9701843,35.93091,5.374588,-28.45534,5.516357,0.3500408,0.3819923,0.0507549,1.216423,-0.03535372,0.04439602,0.08007887,-0.003404865,2.484012,-26.56851,33.73
5,0.1291962,0.1038513,0.9861603,1.0,0.1273041,0.1043549,0.9863434,-31.08189,7.507553,-27.06461,5.915985,0.4544878,0.3007019,1.0,0.2467194,0.07104492,0.9664612,36.19278,5.337952,-28.49677,5.58136,0.3369629,0.3869322,0.05027926,1.216527,-0.03528577,0.0438788,0.07742299,-0.003343033,2.484012,-26.56851,33.73
5,0.1291962,0.1038513,0.9861603,1.0,0.1273041,0.1043549,0.9863434,-31.08189,7.507553,-27.06461,5.915985,0.4544878,0.3007019,1.0,0.2467194,0.07104492,0.9664612,36.19278,5.337952,-28.49677,5.58136,0.3369629,0.3869322,0.05027926,1.216527,-0.03528577,0.0438788,0.07742299,-0.003343033,2.484012,-26.56851,33.73
5,0.3276367,0.07124329,0.9421082,1.0,0.1986694,0.08465576,0.9763947,-30.67628,7.371628,-26.94775,5.842285,0.4290863,0.307658,1.0,0.3343201,0.07049561,0.9398041,36.55829,5.285904,-28.64357,5.70665,0.3081082,0.3901388,0.04925096,1.216738,-0.03520167,0.04300775,0.0721103,-0.003476326,2.484012,-24.80502,33.69
5,0.3216095,0.0602417,0.9449463,1.0,0.2059631,0.09294128,0.9741211,-30.69991,7.364761,-26.95361,5.817429,0.4286411,0.3065901,1.0,0.3267059,0.05874634,0.9432831,36.56985,5.280426,-28.63127,5.661331,0.3091443,0.392176,0.04871404,1.216769,-0.03519374,0.04253323,0.06945737,-0.003627358,2.484012,-24.80502,33.69
5,0.3159332,0.0725708,0.9459991,1.0,0.1915283,0.09992981,0.9763794,-30.79541,7.337433,-26.94423,5.807648,0.434236,0.3063016,1.0,0.3192596,0.07180786,0.944931,36.54272,5.269775,-28.63237,5.6194,0.3113931,0.3902823,0.04822958,1.216846,-0.03523445,0.04203741,0.06689063,-0.003724645,2.484012,-24.80502,33.69
5,0.27005,0.06652832,0.9605408,1.0,0.1856842,0.09681702,0.9778137,-30.84903,7.34166,-26.95053,5.743729,0.437,0.3067464,1.0,0.3078613,0.05250549,0.9499664,36.50055,5.264648,-28.60297,5.61644,0.3151071,0.3935309,0.04770887,1.216915,-0.03521806,0.04167016,0.06441543,-0.00385634,2.484012,-24.80502,33.69
5,0.2658386,0.06816101,0.9615936,1.0,0.1755676,0.08831787,0.980484,-30.87444,7.349747,-26.98892,5.737671,0.4395413,0.3081904,1.0,0.3118896,0.05741882,0.9483795,36.48172,5.268616,-28.60661,5.637894,0.315034,0.3926305,0.04673994,1.217009,-0.03518009,0.04060613,0.0592778,-0.003946101,2.484012,-24.80502,33.69
5,0.2658386,0.06816101,0.9615936,1.0,0.1755676,0.08831787,0.980484,-30.87444,7.349747,-26.98892,5.737671,0.4395413,0.3081904,1.0,0.3118896,0.05741882,0.9483795,36.48172,5.268616,-28.60661,5.637894,0.315034,0.3926305,0.04673994,1.217009,-0.03518009,0.04060613,0.0592778,-0.003946101,2.484012,-24.80502,33.69
5,0.254303,0.06695557,0.964798,1.0,0.171875,0.08985901,0.9810028,-30.91411,7.380112,-27.11284,5.699158,0.4414333,0.3077856,1.0,0.3060608,0.05201721,0.9505768,36.46159,5.265564,-28.59758,5.579391,0.316837,0.3935712,0.04626536,1.217107,-0.0351994,0.0400692,0.05653556,-0.003825303,2.484012,-24.80502,33.69
5,0.2625885,0.05685425,0.9632263,1.0,0.1640778,0.09346008,0.9819946,-30.96198,7.378036,-27.10382,5.81369,0.4443627,0.3071879,1.0,0.2990875,0.04283142,0.9532471,36.43446,5.265045,-28.58046,5.630264,0.3191275,0.3950389,0.04571927,1.217182,-0.03518111,0.03960199,0.0537797,-0.00378221,2.484012,-24.80502,33.69
5,0.2547455,0.06022644,0.9651184,1.0,0.1639099,0.08192444,0.9830627,-30.98131,7.370682,-27.08125,5.778259,0.4450631,0.3092246,1.0,0.2879639,0.05201721,0.9562225,36.42719,5.264343,-28.5764,5.639496,0.3213309,0.3933911,0.04525375,1.217255,-0.03510559,0.03901135,0.05107064,-0.00376246,2.484012,-24.80502,33.69
5,0.2547455,0.06022644,0.9651184,1.0,0.1639099,0.08192444,0.9830627,-30.98131,7.370682,-27.08125,5.778259,0.4450631,0.3092246,1.0,0.2879639,0.05201721,0.9562225,36.42719,5.264343,-28.5764,5.639496,0.3213309,0.3933911,0.04525375,1.217255,-0.03510559,0.03901135,0.05107064,-0.00376246,2.484012,-24.80502,33.69
5,0.2418976,0.06187439,0.9683228,1.0,0.1522064,0.08190918,0.9849396,-31.03673,7.353531,-27.01787,5.856094,0.4488904,0.3093314,1.0,0.2862701,0.05158997,0.9567566,36.36737,5.243774,-28.57092,5.603455,0.3237816,0.3941931,0.04429984,1.21745,-0.0350123,0.03781147,0.04596624,-0.003871766,2.484012,-24.80502,33.69
