Second,eye_comb_direction_x,eye_comb_direction_y,eye_comb_direction_z,eye_r_openness,eye_r_direction_x,eye_r_direction_y,eye_r_direction_z,eye_r_origin_x,eye_r_origin_y,eye_r_origin_z,eye_r_pupil_diameter,eye_r_pupil_position_x,eye_r_pupil_position_y,eye_l_openness,eye_l_direction_x,eye_l_direction_y,eye_l_direction_z,eye_l_origin_x,eye_l_origin_y,eye_l_origin_z,eye_l_pupil_diameter,eye_l_pupil_position_x,eye_l_pupil_position_y,head_position_x,head_position_y,head_position_z,head_rotation_roll,head_rotation_pitch,head_rotation_yaw,EDA,BVP,TMP
0,0.0,0.0,0.0,0.0,0.0,0.0,0.0,0.0,0.0,0.0,0.0,0.0,0.0,0.0,0.0,0.0,0.0,0.0,0.0,0.0,0.0,0.0,0.0,0.0,0.0,0.0,0.0,0.0,0.0,2.89177020183265,-0.6027641117771882,32.19836267181095
0,-0.03044128,-0.08018494,0.9963074,0.8554387,-0.07948303,-0.0819397,0.993454,-32.11212,7.362564,-26.79317,6.055511,0.5224282,0.3351771,0.9751638,0.01438904,-0.07841492,0.9968109,35.20477,5.226929,-28.73305,5.798325,0.4111569,0.4189013,0.03114653,1.234397,-0.034917,-0.0007623289,0.005695597,-0.01775064,2.89177020183265,-0.6027641117771882,32.19836267181095
1,-0.03448486,-0.07978821,0.9962006,0.8576727,-0.07818604,-0.08039856,0.9936829,-32.11554,7.354904,-26.79376,6.055496,0.5223356,0.3351771,0.9835441,0.01463318,-0.07891846,0.9967651,35.2038,5.225281,-28.72038,5.798431,0.4111569,0.4189381,0.0308789,1.235049,-0.03528643,-0.002759437,0.005099268,-0.01682402,2.600599,-0.6027641117771882,32.19836267181095
1,-0.03448486,-0.07978821,0.9962006,0.8576727,-0.07818604,-0.08039856,0.9936829,-32.11554,7.354904,-26.79376,6.055496,0.5223356,0.3351771,0.9835441,0.01463318,-0.07891846,0.9967651,35.2038,5.225281,-28.72038,5.798431,0.4111569,0.4189381,0.0308789,1.235049,-0.03528643,-0.002759437,0.005099268,-0.01682402,2.600599,-0.6027641117771882,32.19836267181095
1,-0.03448486,-0.07978821,0.9962006,0.8576727,-0.07818604,-0.08039856,0.9936829,-32.11554,7.354904,-26.79376,6.055496,0.5223356,0.3351771,0.9835441,0.01463318,-0.07891846,0.9967651,35.2038,5.225281,-28.72038,5.798431,0.4111569,0.4189381,0.0308789,1.235049,-0.03528643,-0.002759437,0.005099268,-0.01682402,2.600599,-0.6027641117771882,32.19836267181095
1,-0.03448486,-0.07978821,0.9962006,0.8576727,-0.07818604,-0.08039856,0.9936829,-32.11554,7.354904,-26.79376,6.055496,0.5223356,0.3351771,0.9835441,0.01463318,-0.07891846,0.9967651,35.2038,5.225281,-28.72038,5.798431,0.4111569,0.4189381,0.0308789,1.235049,-0.03528643,-0.002759437,0.005099268,-0.01682402,2.600599,-0.6027641117771882,32.19836267181095
1,-0.03448486,-0.07978821,0.9962006,0.8576727,-0.07818604,-0.08039856,0.9936829,-32.11554,7.354904,-26.79376,6.055496,0.5223356,0.3351771,0.9835441,0.01463318,-0.07891846,0.9967651,35.2038,5.225281,-28.72038,5.798431,0.4111569,0.4189381,0.0308789,1.235049,-0.03528643,-0.002759437,0.005099268,-0.01682402,2.600599,-0.6027641117771882,32.19836267181095
1,-0.03448486,-0.07978821,0.9962006,0.8576727,-0.07818604,-0.08039856,0.9936829,-32.11554,7.354904,-26.79376,6.055496,0.5223356,0.3351771,0.9835441,0.01463318,-0.07891846,0.9967651,35.2038,5.225281,-28.72038,5.798431,0.4111569,0.4189381,0.0308789,1.235049,-0.03528643,-0.002759437,0.005099268,-0.01682402,2.600599,-0.6027641117771882,32.19836267181095
1,-0.03448486,-0.07978821,0.9962006,0.8576727,-0.07818604,-0.08039856,0.9936829,-32.11554,7.354904,-26.79376,6.055496,0.5223356,0.3351771,0.9835441,0.01463318,-0.07891846,0.9967651,35.2038,5.225281,-28.72038,5.798431,0.4111569,0.4189381,0.0308789,1.235049,-0.03528643,-0.002759437,0.005099268,-0.01682402,2.600599,-0.6027641117771882,32.19836267181095
1,-0.03448486,-0.07978821,0.9962006,0.8576727,-0.07818604,-0.08039856,0.9936829,-32.11554,7.354904,-26.79376,6.055496,0.5223356,0.3351771,0.9835441,0.01463318,-0.07891846,0.9967651,35.2038,5.225281,-28.72038,5.798431,0.4111569,0.4189381,0.0308789,1.235049,-0.03528643,-0.002759437,0.005099268,-0.01682402,2.600599,-0.6027641117771882,32.19836267181095
1,-0.03448486,-0.07978821,0.9962006,0.8576727,-0.07818604,-0.08039856,0.9936829,-32.11554,7.354904,-26.79376,6.055496,0.5223356,0.3351771,0.9835441,0.01463318,-0.07891846,0.9967651,35.2038,5.225281,-28.72038,5.798431,0.4111569,0.4189381,0.0308789,1.235049,-0.03528643,-0.002759437,0.005099268,-0.01682402,2.600599,-0.6027641117771882,32.19836267181095
1,0.004989624,-0.03955078,0.9991913,0.8081571,-0.09683228,-0.03665161,0.9946136,-32.08556,7.696426,-26.99254,6.091293,0.5246021,0.3174891,0.9688255,0.03875732,-0.04043579,0.9984283,35.22462,5.606873,-28.96431,5.908173,0.406293,0.4012161,0.03147686,1.234496,-0.03405154,-0.002441406,0.006976188,-0.01646185,2.600599,-0.6027641117771882,32.19836267181095
1,0.004989624,-0.03955078,0.9991913,0.8081571,-0.09683228,-0.03665161,0.9946136,-32.08556,7.696426,-26.99254,6.091293,0.5246021,0.3174891,0.9688255,0.03875732,-0.04043579,0.9984283,35.22462,5.606873,-28.96431,5.908173,0.406293,0.4012161,0.03147686,1.234496,-0.03405154,-0.002441406,0.006976188,-0.01646185,2.600599,-0.6027641117771882,32.19836267181095
1,0.004989624,-0.03955078,0.9991913,0.8081571,-0.09683228,-0.03665161,0.9946136,-32.08556,7.696426,-26.99254,6.091293,0.5246021,0.3174891,0.9688255,0.03875732,-0.04043579,0.9984283,35.22462,5.606873,-28.96431,5.908173,0.406293,0.4012161,0.03147686,1.234496,-0.03405154,-0.002441406,0.006976188,-0.01646185,2.600599,-0.6027641117771882,32.19836267181095
1,0.004989624,-0.03955078,0.9991913,0.8081571,-0.09683228,-0.03665161,0.9946136,-32.08556,7.696426,-26.99254,6.091293,0.5246021,0.3174891,0.9688255,0.03875732,-0.04043579,0.9984283,35.22462,5.606873,-28.96431,5.908173,0.406293,0.4012161,0.03147686,1.234496,-0.03405154,-0.002441406,0.006976188,-0.01646185,2.600599,-0.6027641117771882,32.19836267181095
1,0.004989624,-0.03955078,0.9991913,0.8081571,-0.09683228,-0.03665161,0.9946136,-32.08556,7.696426,-26.99254,6.091293,0.5246021,0.3174891,0.9688255,0.03875732,-0.04043579,0.9984283,35.22462,5.606873,-28.96431,5.908173,0.406293,0.4012161,0.03147686,1.234496,-0.03405154,-0.002441406,0.006976188,-0.01646185,2.600599,-0.6027641117771882,32.19836267181095
1,0.004989624,-0.03955078,0.9991913,0.8081571,-0.09683228,-0.03665161,0.9946136,-32.08556,7.696426,-26.99254,6.091293,0.5246021,0.3174891,0.9688255,0.03875732,-0.04043579,0.9984283,35.22462,5.606873,-28.96431,5.908173,0.406293,0.4012161,0.03147686,1.234496,-0.03405154,-0.002441406,0.006976188,-0.01646185,2.600599,-0.6027641117771882,32.19836267181095
1,-0.06985474,0.03709412,0.9968567,0.9309342,-0.07055664,0.03735352,0.9967957,-32.07416,7.77713,-27.01433,6.303909,0.5201479,0.3021915,0.9486639,0.08010864,-0.01869202,0.9965973,35.27478,5.522461,-28.23294,5.893829,0.3980241,0.3941012,0.03183579,1.234555,-0.03412354,-0.003318427,0.007616444,-0.01691764,2.600599,-0.6027641117771882,32.19836267181095
1,-0.06985474,0.03709412,0.9968567,0.9309342,-0.07055664,0.03735352,0.9967957,-32.07416,7.77713,-27.01433,6.303909,0.5201479,0.3021915,0.9486639,0.08010864,-0.01869202,0.9965973,35.27478,5.522461,-28.23294,5.893829,0.3980241,0.3941012,0.03183579,1.234555,-0.03412354,-0.003318427,0.007616444,-0.01691764,2.600599,-0.6027641117771882,32.19836267181095
1,-0.06835938,0.03691101,0.9969635,0.949998,-0.06838989,0.03691101,0.9969635,-32.08083,7.77652,-27.0273,6.276169,0.5200297,0.3023766,0.9618593,0.07116699,0.000213623,0.9974518,35.28773,5.517059,-28.34929,5.959549,0.3990006,0.3921073,0.03184044,1.234559,-0.03419745,-0.003185544,0.007940202,-0.01701513,2.600599,-0.6027641117771882,32.19836267181095
1,-0.06835938,0.03691101,0.9969635,0.949998,-0.06838989,0.03691101,0.9969635,-32.08083,7.77652,-27.0273,6.276169,0.5200297,0.3023766,0.9618593,0.07116699,0.000213623,0.9974518,35.28773,5.517059,-28.34929,5.959549,0.3990006,0.3921073,0.03184044,1.234559,-0.03419745,-0.003185544,0.007940202,-0.01701513,2.600599,-0.6027641117771882,32.19836267181095
1,-0.06796265,0.03390503,0.9971008,0.953945,-0.06796265,0.03390503,0.9971008,-32.08096,7.776001,-27.00136,6.244797,0.5199463,0.3027156,0.9595691,0.05883789,-0.006484985,0.9982452,35.35802,5.66861,-29.14709,5.695358,0.3981444,0.3945819,0.03193367,1.234627,-0.03418541,-0.003176175,0.008158645,-0.01702213,2.600599,-0.6027641117771882,32.19836267181095
1,-0.06723022,0.03192139,0.9972229,0.9462543,-0.06724548,0.03192139,0.9972229,-32.08299,7.773392,-26.944,6.243271,0.5198738,0.3027156,0.9675954,0.0582428,-0.002151489,0.998291,35.35872,5.644379,-29.0175,5.738678,0.3982789,0.3935733,0.03202093,1.234645,-0.03419232,-0.003234287,0.008277412,-0.01711685,2.600599,-0.6027641117771882,32.19836267181095
1,-0.06463623,0.04438782,0.9969177,0.9498866,-0.06465149,0.04438782,0.9969177,-32.09744,7.673859,-26.7612,6.254059,0.5198738,0.3027156,0.9708812,0.05807495,0.007110596,0.9982758,35.35912,5.652054,-29.04782,5.735153,0.3982789,0.3919904,0.03212559,1.234716,-0.03428847,-0.003313933,0.008510849,-0.01708069,2.600599,-0.6027641117771882,32.19836267181095
1,-0.06463623,0.04438782,0.9969177,0.9498866,-0.06465149,0.04438782,0.9969177,-32.09744,7.673859,-26.7612,6.254059,0.5198738,0.3027156,0.9708812,0.05807495,0.007110596,0.9982758,35.35912,5.652054,-29.04782,5.735153,0.3982789,0.3919904,0.03212559,1.234716,-0.03428847,-0.003313933,0.008510849,-0.01708069,2.600599,-0.6027641117771882,32.19836267181095
1,-0.06025696,0.04515076,0.9971466,0.944849,-0.0640564,0.04670715,0.9968414,-32.09976,7.672714,-26.75481,6.192535,0.5198545,0.3023766,0.9811099,0.05513,-0.00213623,0.9984741,35.36012,5.652054,-29.04782,5.723343,0.3987465,0.3935733,0.03218234,1.234684,-0.03436124,-0.003450511,0.008613529,-0.01726033,2.600599,-0.6027641117771882,32.19836267181095
1,-0.06025696,0.04515076,0.9971466,0.944849,-0.0640564,0.04670715,0.9968414,-32.09976,7.672714,-26.75481,6.192535,0.5198545,0.3023766,0.9811099,0.05513,-0.00213623,0.9984741,35.36012,5.652054,-29.04782,5.723343,0.3987465,0.3935733,0.03218234,1.234684,-0.03436124,-0.003450511,0.008613529,-0.01726033,2.600599,-0.6027641117771882,32.19836267181095
1,0.04469299,0.002197266,0.9989929,0.9461917,-0.05912781,0.04963684,0.9970093,-32.10751,7.633163,-26.58376,6.153915,0.5192536,0.3019678,0.9802599,0.05436707,-0.002227783,0.9985046,35.36121,5.644379,-29.0175,5.640305,0.3988782,0.3935733,0.03226328,1.23468,-0.03441823,-0.003649882,0.008773791,-0.01736061,2.600599,-0.6027641117771882,32.19836267181095
1,0.04623413,0.001174927,0.9989166,0.9498187,-0.05741882,0.04954529,0.9971161,-32.10751,7.610703,-26.49092,6.137238,0.518934,0.3021178,0.9850281,0.0532074,-0.002075195,0.9985809,35.36282,5.642624,-29.01361,5.608795,0.3990286,0.3935733,0.03231585,1.234679,-0.03446448,-0.003608825,0.008827971,-0.01743,2.600599,-0.6027641117771882,32.19836267181095
1,0.04623413,0.001174927,0.9989166,0.9498187,-0.05741882,0.04954529,0.9971161,-32.10751,7.610703,-26.49092,6.137238,0.518934,0.3021178,0.9850281,0.0532074,-0.002075195,0.9985809,35.36282,5.642624,-29.01361,5.608795,0.3990286,0.3935733,0.03231585,1.234679,-0.03446448,-0.003608825,0.008827971,-0.01743,2.600599,-0.6027641117771882,32.19836267181095
1,0.04507446,0.003143311,0.9989777,0.9608049,-0.05740356,0.05012512,0.9970856,-32.10751,7.602188,-26.44447,6.133865,0.5189134,0.3019678,0.9883493,0.05181885,3.051758e-05,0.998642,35.3649,5.635345,-29.01042,5.608459,0.3991924,0.3934425,0.0324024,1.234685,-0.03451312,-0.003643753,0.008987725,-0.0174552,2.600599,-0.6027641117771882,32.19836267181095
1,0.0425415,0.004928589,0.9990692,0.9538552,-0.05741882,0.05033875,0.9970703,-32.10751,7.600937,-26.44012,6.077164,0.5189134,0.3019678,0.9864651,0.05206299,0.0005950928,0.998642,35.36626,5.634109,-29.00011,5.609558,0.3991105,0.3932982,0.03245449,1.23467,-0.0344727,-0.003639661,0.009025777,-0.01758024,2.600599,-0.6027641117771882,32.19836267181095
1,0.0425415,0.004928589,0.9990692,0.9538552,-0.05741882,0.05033875,0.9970703,-32.10751,7.600937,-26.44012,6.077164,0.5189134,0.3019678,0.9864651,0.05206299,0.0005950928,0.998642,35.36626,5.634109,-29.00011,5.609558,0.3991105,0.3932982,0.03245449,1.23467,-0.0344727,-0.003639661,0.009025777,-0.01758024,2.600599,-0.6027641117771882,32.19836267181095
1,0.0425415,0.004928589,0.9990692,0.9538552,-0.05741882,0.05033875,0.9970703,-32.10751,7.600937,-26.44012,6.077164,0.5189134,0.3019678,0.9864651,0.05206299,0.0005950928,0.998642,35.36626,5.634109,-29.00011,5.609558,0.3991105,0.3932982,0.03246081,1.234707,-0.03451687,-0.003658038,0.009134905,-0.01768461,2.600599,-0.6027641117771882,32.19836267181095
1,0.0425415,0.004928589,0.9990692,0.9538552,-0.05741882,0.05033875,0.9970703,-32.10751,7.600937,-26.44012,6.077164,0.5189134,0.3019678,0.9864651,0.05206299,0.0005950928,0.998642,35.36626,5.634109,-29.00011,5.609558,0.3991105,0.3932982,0.03251016,1.234682,-0.0345155,-0.003768396,0.009215298,-0.0177372,2.600599,-0.6027641117771882,32.19836267181095
1,0.0425415,0.004928589,0.9990692,0.9538552,-0.05741882,0.05033875,0.9970703,-32.10751,7.600937,-26.44012,6.077164,0.5189134,0.3019678,0.9864651,0.05206299,0.0005950928,0.998642,35.36626,5.634109,-29.00011,5.609558,0.3991105,0.3932982,0.03251016,1.234682,-0.0345155,-0.003768396,0.009215298,-0.0177372,2.600599,-0.6027641117771882,32.19836267181095
1,0.0425415,0.004928589,0.9990692,0.9538552,-0.05741882,0.05033875,0.9970703,-32.10751,7.600937,-26.44012,6.077164,0.5189134,0.3019678,0.9864651,0.05206299,0.0005950928,0.998642,35.36626,5.634109,-29.00011,5.609558,0.3991105,0.3932982,0.03256214,1.234655,-0.03452396,-0.003911968,0.009268505,-0.0177145,2.600599,-0.6027641117771882,32.19836267181095
1,0.03335571,0.009933472,0.9993896,0.9538552,-0.05763245,0.05224609,0.9969635,-32.10751,7.588348,-26.40002,6.036179,0.518934,0.3017847,0.9864651,0.05166626,0.001373291,0.9986572,35.36847,5.63118,-28.98438,5.608871,0.3991105,0.3931318,0.03258872,1.234643,-0.03452861,-0.004007923,0.009278949,-0.01758575,2.600599,-0.6027641117771882,32.19836267181095
1,0.03335571,0.009933472,0.9993896,0.9538552,-0.05763245,0.05224609,0.9969635,-32.10751,7.588348,-26.40002,6.036179,0.518934,0.3017847,0.9864651,0.05166626,0.001373291,0.9986572,35.36847,5.63118,-28.98438,5.608871,0.3991105,0.3931318,0.03258872,1.234643,-0.03452861,-0.004007923,0.009278949,-0.01758575,2.600599,-0.6027641117771882,32.19836267181095
1,0.04614258,0.00479126,0.9989166,0.9564438,-0.05213928,0.0214386,0.9983978,-32.04872,7.724777,-26.98073,5.476974,0.5162452,0.3066957,0.9913533,0.05123901,0.003921509,0.9986725,35.37007,5.619675,-28.96545,5.600616,0.3991406,0.392932,0.03255725,1.234657,-0.03456199,-0.004321013,0.009416836,-0.01766649,2.600599,-0.6027641117771882,32.19836267181095
1,0.05088806,0.005447388,0.9986877,0.9649603,-0.05516052,0.04101563,0.9976196,-32.04887,7.726074,-26.99228,5.539871,0.5167953,0.3033154,0.9859253,0.05102539,0.00541687,0.9986725,35.37007,5.616348,-28.96284,5.54126,0.3991924,0.392759,0.03255725,1.234657,-0.03456199,-0.004321013,0.009416836,-0.01766649,2.600599,-0.6027641117771882,32.19836267181095
1,0.05072021,0.01139832,0.998642,0.9615378,-0.0519104,0.03483582,0.9980316,-32.04887,7.726074,-26.99228,5.493469,0.516252,0.30437,0.9919732,0.05097961,0.01135254,0.9986267,35.37007,5.616348,-28.96284,5.495621,0.3992072,0.3917269,0.032601,1.234676,-0.03453648,-0.004136004,0.009585435,-0.01770735,2.600599,20.28983,32.19836267181095
1,0.05072021,0.01139832,0.998642,0.9615378,-0.0519104,0.03483582,0.9980316,-32.04887,7.726074,-26.99228,5.493469,0.516252,0.30437,0.9919732,0.05097961,0.01135254,0.9986267,35.37007,5.616348,-28.96284,5.495621,0.3992072,0.3917269,0.032601,1.234676,-0.03453648,-0.004136004,0.009585435,-0.01770735,2.600599,20.28983,32.19836267181095
1,0.04893494,0.01390076,0.998703,0.9636168,-0.04878235,0.04226685,0.9979095,-32.06795,7.626953,-26.57933,5.511459,0.516252,0.3033238,0.995778,0.05055237,0.01342773,0.9986267,35.37007,5.616348,-28.96284,5.318253,0.3993162,0.3913097,0.03268874,1.234636,-0.03441477,-0.003979941,0.009680568,-0.01736962,2.600599,20.28983,32.19836267181095
1,0.05099487,0.01370239,0.9985962,0.9583344,-0.05062866,0.04571533,0.9976654,-32.07741,7.549255,-26.26523,5.53685,0.5167239,0.3033238,0.9934391,0.05105591,0.01367188,0.9985962,35.3676,5.619675,-28.976,5.271149,0.3993167,0.3912616,0.03274477,1.234591,-0.03429288,-0.003854407,0.009761809,-0.01734043,2.600599,20.28983,32.19836267181095
1,0.05099487,0.01370239,0.9985962,0.9583344,-0.05062866,0.04571533,0.9976654,-32.07741,7.549255,-26.26523,5.53685,0.5167239,0.3033238,0.9934391,0.05105591,0.01367188,0.9985962,35.3676,5.619675,-28.976,5.271149,0.3993167,0.3912616,0.03274477,1.234591,-0.03429288,-0.003854407,0.009761809,-0.01734043,2.600599,20.28983,32.19836267181095
1,0.05142212,0.01499939,0.9985504,0.9659135,-0.05244446,0.04541016,0.9975891,-32.07272,7.563263,-26.32845,5.522171,0.5168903,0.3033238,0.991505,0.05143738,0.01499939,0.9985504,35.36314,5.62085,-29.01129,5.205154,0.3993968,0.3912616,0.03278255,1.234563,-0.03423119,-0.003838912,0.009988157,-0.0174099,2.600599,20.28983,32.19836267181095
1,0.05142212,0.01499939,0.9985504,0.9659135,-0.05244446,0.04541016,0.9975891,-32.07272,7.563263,-26.32845,5.522171,0.5168903,0.3033238,0.991505,0.05143738,0.01499939,0.9985504,35.36314,5.62085,-29.01129,5.205154,0.3993968,0.3912616,0.03278255,1.234563,-0.03423119,-0.003838912,0.009988157,-0.0174099,2.600599,20.28983,32.19836267181095
1,0.05024719,0.01519775,0.9986115,0.9717312,-0.05136108,0.04751587,0.9975433,-32.06998,7.570786,-26.36885,5.504364,0.5166425,0.3030114,0.9986749,0.05059814,0.01509094,0.9985962,35.36035,5.627029,-29.03523,5.17392,0.3996268,0.3912306,0.03285992,1.234596,-0.03425229,-0.003811644,0.01018464,-0.01771871,2.600599,20.28983,32.19836267181095
1,0.05024719,0.01519775,0.9986115,0.9717312,-0.05136108,0.04751587,0.9975433,-32.06998,7.570786,-26.36885,5.504364,0.5166425,0.3030114,0.9986749,0.05059814,0.01509094,0.9985962,35.36035,5.627029,-29.03523,5.17392,0.3996268,0.3912306,0.03285992,1.234596,-0.03425229,-0.003811644,0.01018464,-0.01771871,2.600599,20.28983,32.19836267181095
1,0.01460266,0.02784729,0.9994965,1.0,-0.05303955,0.05027771,0.9973145,-32.06998,7.570786,-26.36885,5.481842,0.5169232,0.302541,1.0,0.05039978,0.01591492,0.9985962,35.35986,5.629044,-29.04979,5.10701,0.3996816,0.391114,0.03288758,1.234548,-0.03425586,-0.003996754,0.01035801,-0.01770146,2.600599,20.28983,32.19836267181095
1,0.01460266,0.02784729,0.9994965,1.0,-0.05303955,0.05027771,0.9973145,-32.06998,7.570786,-26.36885,5.481842,0.5169232,0.302541,1.0,0.05039978,0.01591492,0.9985962,35.35986,5.629044,-29.04979,5.10701,0.3996816,0.391114,0.03288758,1.234548,-0.03425586,-0.003996754,0.01035801,-0.01770146,2.600599,20.28983,32.19836267181095
1,-0.002441406,0.03388977,0.9994202,1.0,-0.05200195,0.05052185,0.9973602,-32.06967,7.571716,-26.37939,5.435059,0.5167479,0.302541,1.0,0.05110168,0.01582336,0.9985657,35.35442,5.640427,-29.09596,5.048035,0.3997309,0.3911046,0.03294718,1.234527,-0.034284,-0.004116141,0.0104945,-0.01778502,2.600599,20.28983,32.19836267181095
1,-0.002441406,0.03388977,0.9994202,1.0,-0.05200195,0.05052185,0.9973602,-32.06967,7.571716,-26.37939,5.435059,0.5167479,0.302541,1.0,0.05110168,0.01582336,0.9985657,35.35442,5.640427,-29.09596,5.048035,0.3997309,0.3911046,0.03294718,1.234527,-0.034284,-0.004116141,0.0104945,-0.01778502,2.600599,20.28983,32.19836267181095
1,-0.01196289,0.0378418,0.9992065,1.0,-0.05262756,0.05122375,0.9972839,-32.06335,7.571716,-26.37939,5.378113,0.5166425,0.3024316,1.0,0.04811096,0.01792908,0.9986725,35.35011,5.654694,-29.12764,4.963501,0.4003854,0.3904863,0.03300893,1.234554,-0.03431404,-0.004293336,0.01057794,-0.01788528,2.600599,20.28983,32.19836267181095
1,-0.01196289,0.0378418,0.9992065,1.0,-0.05262756,0.05122375,0.9972839,-32.06335,7.571716,-26.37939,5.378113,0.5166425,0.3024316,1.0,0.04811096,0.01792908,0.9986725,35.35011,5.654694,-29.12764,4.963501,0.4003854,0.3904863,0.03300893,1.234554,-0.03431404,-0.004293336,0.01057794,-0.01788528,2.600599,20.28983,32.19836267181095
1,-0.01165771,0.03979492,0.9991302,1.0,-0.05091858,0.05355835,0.9972534,-32.05962,7.571716,-26.37939,5.360703,0.5162443,0.302032,1.0,0.04794312,0.01879883,0.9986725,35.34956,5.657516,-29.15273,4.94426,0.4004213,0.3904327,0.03301907,1.234615,-0.03433144,-0.004458492,0.01069074,-0.0180003,2.600599,20.28983,32.19836267181095
1,-0.01165771,0.03979492,0.9991302,1.0,-0.05091858,0.05355835,0.9972534,-32.05962,7.571716,-26.37939,5.360703,0.5162443,0.302032,1.0,0.04794312,0.01879883,0.9986725,35.34956,5.657516,-29.15273,4.94426,0.4004213,0.3904327,0.03301907,1.234615,-0.03433144,-0.004458492,0.01069074,-0.0180003,2.600599,20.28983,32.19836267181095
1,-0.01879883,0.08320618,0.9963531,1.0,-0.04870605,0.09689331,0.9940948,-32.00034,7.781784,-26.28134,5.246246,0.5140211,0.2865977,1.0,0.06561279,0.04411316,0.9968567,35.25755,5.751846,-28.77267,4.791946,0.4008159,0.3795328,0.03311217,1.234674,-0.03431368,-0.004677061,0.0108471,-0.01805981,2.600599,-19.48524,32.19836267181095
1,-0.01879883,0.08320618,0.9963531,1.0,-0.04870605,0.09689331,0.9940948,-32.00034,7.781784,-26.28134,5.246246,0.5140211,0.2865977,1.0,0.06561279,0.04411316,0.9968567,35.25755,5.751846,-28.77267,4.791946,0.4008159,0.3795328,0.03311217,1.234674,-0.03431368,-0.004677061,0.0108471,-0.01805981,2.600599,-19.48524,32.19836267181095
1,-0.04653931,0.1631622,0.9854889,1.0,-0.04669189,0.163269,0.9854736,-31.91142,8.080536,-26.18219,5.319962,0.5109018,0.2640903,1.0,0.05725098,0.09307861,0.9940033,35.21324,5.982941,-28.39632,4.69162,0.4040346,0.3600693,0.03315771,1.234707,-0.03421009,-0.004920811,0.01091079,-0.01806104,2.600599,-19.48524,32.19836267181095
1,-0.04653931,0.1631622,0.9854889,1.0,-0.04669189,0.163269,0.9854736,-31.91142,8.080536,-26.18219,5.319962,0.5109018,0.2640903,1.0,0.05725098,0.09307861,0.9940033,35.21324,5.982941,-28.39632,4.69162,0.4040346,0.3600693,0.03315771,1.234707,-0.03421009,-0.004920811,0.01091079,-0.01806104,2.600599,-19.48524,32.19836267181095
1,-0.04077148,0.1931458,0.9803162,1.0,-0.0448761,0.1941833,0.9799347,-31.91757,8.111786,-25.87778,5.139847,0.5107982,0.2555807,1.0,0.08204651,0.1604156,0.9836273,35.25829,6.16568,-28.64694,4.805237,0.397852,0.3439995,0.03319442,1.234736,-0.0341351,-0.005027163,0.01103775,-0.0181076,2.600599,-19.48524,32.19836267181095
1,-0.04077148,0.1931458,0.9803162,1.0,-0.0448761,0.1941833,0.9799347,-31.91757,8.111786,-25.87778,5.139847,0.5107982,0.2555807,1.0,0.08204651,0.1604156,0.9836273,35.25829,6.16568,-28.64694,4.805237,0.397852,0.3439995,0.03319442,1.234736,-0.0341351,-0.005027163,0.01103775,-0.0181076,2.600599,-19.48524,32.19836267181095
1,0.03933716,0.1683502,0.9849243,1.0,-0.0406189,0.1963501,0.9796906,-31.92931,8.086319,-25.82442,5.116348,0.5104756,0.2556241,1.0,0.07640076,0.1549377,0.9849548,35.26855,6.103989,-28.45386,4.818466,0.3986181,0.3455758,0.03321397,1.234719,-0.03408098,-0.005036048,0.01112247,-0.01802843,2.600599,-19.48524,32.19836267181095
1,0.03933716,0.1683502,0.9849243,1.0,-0.0406189,0.1963501,0.9796906,-31.92931,8.086319,-25.82442,5.116348,0.5104756,0.2556241,1.0,0.07640076,0.1549377,0.9849548,35.26855,6.103989,-28.45386,4.818466,0.3986181,0.3455758,0.03321397,1.234719,-0.03408098,-0.005036048,0.01112247,-0.01802843,2.600599,-19.48524,32.19836267181095
2,0.07771301,0.1607513,0.9839172,1.0,-0.04133606,0.211731,0.9764404,-31.97092,8.108292,-26.13519,5.065964,0.5121124,0.2544721,1.0,0.08291626,0.1584473,0.9838715,35.28166,6.105911,-28.52156,4.733215,0.397019,0.3454416,0.03330815,1.23472,-0.03411055,-0.004895004,0.01130716,-0.01808784,2.600599,-19.48524,32.19836267181095
2,0.07771301,0.1607513,0.9839172,1.0,-0.04133606,0.211731,0.9764404,-31.97092,8.108292,-26.13519,5.065964,0.5121124,0.2544721,1.0,0.08291626,0.1584473,0.9838715,35.28166,6.105911,-28.52156,4.733215,0.397019,0.3454416,0.03330815,1.23472,-0.03411055,-0.004895004,0.01130716,-0.01808784,2.600599,-19.48524,32.19836267181095
2,0.03485107,0.1702576,0.9847717,1.0,-0.03782654,0.2019043,0.9786682,-31.98648,8.02742,-25.81056,5.118866,0.5119204,0.2566146,1.0,0.07711792,0.1513214,0.9854584,35.29408,6.05069,-28.30074,4.726074,0.3977442,0.3467931,0.03333819,1.234707,-0.03408349,-0.004802811,0.01156258,-0.01814706,2.600599,-19.48524,32.19836267181095
2,0.03485107,0.1702576,0.9847717,1.0,-0.03782654,0.2019043,0.9786682,-31.98648,8.02742,-25.81056,5.118866,0.5119204,0.2566146,1.0,0.07711792,0.1513214,0.9854584,35.29408,6.05069,-28.30074,4.726074,0.3977442,0.3467931,0.03333819,1.234707,-0.03408349,-0.004802811,0.01156258,-0.01814706,2.600599,-19.48524,32.19836267181095
2,0.02096558,0.1800537,0.983429,1.0,-0.04075623,0.2092743,0.977005,-31.99763,7.997314,-25.76878,5.066376,0.5127671,0.2561935,1.0,0.08139038,0.1505737,0.9852295,35.29893,6.047775,-28.29967,4.719406,0.3968484,0.3470188,0.03335822,1.234664,-0.03409153,-0.004490131,0.01169902,-0.01818602,2.600599,-19.48524,32.19836267181095
2,0.02096558,0.1800537,0.983429,1.0,-0.04075623,0.2092743,0.977005,-31.99763,7.997314,-25.76878,5.066376,0.5127671,0.2561935,1.0,0.08139038,0.1505737,0.9852295,35.29893,6.047775,-28.29967,4.719406,0.3968484,0.3470188,0.03335822,1.234664,-0.03409153,-0.004490131,0.01169902,-0.01818602,2.600599,-19.48524,32.19836267181095
2,0.03987122,0.1713409,0.9843903,1.0,-0.04110718,0.2084045,0.9771729,-31.99286,8.013397,-25.81532,5.042114,0.5126816,0.2561238,1.0,0.08007813,0.1523895,0.9850616,35.30489,6.05246,-28.32196,4.733887,0.3968484,0.3467326,0.0333941,1.234648,-0.03414744,-0.004339939,0.01178974,-0.01826981,2.600599,-58.71339,32.19836267181095
2,0.03987122,0.1713409,0.9843903,1.0,-0.04110718,0.2084045,0.9771729,-31.99286,8.013397,-25.81532,5.042114,0.5126816,0.2561238,1.0,0.08007813,0.1523895,0.9850616,35.30489,6.05246,-28.32196,4.733887,0.3968484,0.3467326,0.0333941,1.234648,-0.03414744,-0.004339939,0.01178974,-0.01826981,2.600599,-58.71339,32.19836267181095
2,0.04527283,0.1705322,0.9842987,1.0,-0.0393219,0.2136536,0.9761047,-31.99049,8.023422,-25.83842,5.046936,0.5123298,0.2550061,1.0,0.07945251,0.1526184,0.9850769,35.30722,6.054214,-28.34319,4.740952,0.3968579,0.3467931,0.03341067,1.234628,-0.03414452,-0.004506693,0.01187349,-0.01809072,2.600599,-58.71339,32.19836267181095
2,0.04527283,0.1705322,0.9842987,1.0,-0.0393219,0.2136536,0.9761047,-31.99049,8.023422,-25.83842,5.046936,0.5123298,0.2550061,1.0,0.07945251,0.1526184,0.9850769,35.30722,6.054214,-28.34319,4.740952,0.3968579,0.3467931,0.03341067,1.234628,-0.03414452,-0.004506693,0.01187349,-0.01809072,2.600599,-58.71339,32.19836267181095
2,0.04527283,0.1705322,0.9842987,1.0,-0.0393219,0.2136536,0.9761047,-31.99049,8.023422,-25.83842,5.046936,0.5123298,0.2550061,1.0,0.07945251,0.1526184,0.9850769,35.30722,6.054214,-28.34319,4.740952,0.3968579,0.3467931,0.03341115,1.234633,-0.03412914,-0.004773246,0.01188228,-0.01818192,2.600599,-58.71339,32.19836267181095
2,0.04527283,0.1705322,0.9842987,1.0,-0.0393219,0.2136536,0.9761047,-31.99049,8.023422,-25.83842,5.046936,0.5123298,0.2550061,1.0,0.07945251,0.1526184,0.9850769,35.30722,6.054214,-28.34319,4.740952,0.3968579,0.3467931,0.03341115,1.234633,-0.03412914,-0.004773246,0.01188228,-0.01818192,2.600599,-58.71339,32.19836267181095
2,0.04527283,0.1705322,0.9842987,1.0,-0.0393219,0.2136536,0.9761047,-31.99049,8.023422,-25.83842,5.046936,0.5123298,0.2550061,1.0,0.07945251,0.1526184,0.9850769,35.30722,6.054214,-28.34319,4.740952,0.3968579,0.3467931,0.03339207,1.234654,-0.03413004,-0.004985493,0.01188917,-0.01811747,2.600599,-58.71339,32.19836267181095
2,0.04527283,0.1705322,0.9842987,1.0,-0.0393219,0.2136536,0.9761047,-31.99049,8.023422,-25.83842,5.046936,0.5123298,0.2550061,1.0,0.07945251,0.1526184,0.9850769,35.30722,6.054214,-28.34319,4.740952,0.3968579,0.3467931,0.03339207,1.234654,-0.03413004,-0.004985493,0.01188917,-0.01811747,2.600599,-58.71339,32.19836267181095
2,0.03768921,0.1727753,0.9842377,1.0,-0.03918457,0.2084656,0.9772339,-31.98987,8.024048,-25.83249,5.072495,0.5122749,0.2558132,1.0,0.07943726,0.1528168,0.9850464,35.30742,6.055298,-28.34456,4.74498,0.3968484,0.3467326,0.03338325,1.234663,-0.03420538,-0.005251862,0.01177267,-0.0177867,2.600599,-58.71339,32.19836267181095
2,0.03768921,0.1727753,0.9842377,1.0,-0.03918457,0.2084656,0.9772339,-31.98987,8.024048,-25.83249,5.072495,0.5122749,0.2558132,1.0,0.07943726,0.1528168,0.9850464,35.30742,6.055298,-28.34456,4.74498,0.3968484,0.3467326,0.03338325,1.234663,-0.03420538,-0.005251862,0.01177267,-0.0177867,2.600599,-58.71339,32.19836267181095
2,0.03768921,0.1727753,0.9842377,1.0,-0.03918457,0.2084656,0.9772339,-31.98987,8.024048,-25.83249,5.072495,0.5122749,0.2558132,1.0,0.07943726,0.1528168,0.9850464,35.30742,6.055298,-28.34456,4.74498,0.3968484,0.3467326,0.03335512,1.234702,-0.03421116,-0.005413925,0.01172193,-0.01791358,2.600599,-58.71339,32.19836267181095
2,0.03768921,0.1727753,0.9842377,1.0,-0.03918457,0.2084656,0.9772339,-31.98987,8.024048,-25.83249,5.072495,0.5122749,0.2558132,1.0,0.07943726,0.1528168,0.9850464,35.30742,6.055298,-28.34456,4.74498,0.3968484,0.3467326,0.03335512,1.234702,-0.03421116,-0.005413925,0.01172193,-0.01791358,2.600599,-58.71339,32.19836267181095
2,0.02262878,0.1818085,0.9830627,1.0,-0.03933716,0.213089,0.9762268,-31.99049,8.023422,-25.82655,5.100693,0.5123298,0.2550061,1.0,0.07946777,0.1522827,0.9851227,35.3076,6.056366,-28.34593,4.74028,0.3968389,0.3467931,0.03324389,1.23474,-0.03418809,-0.005350246,0.01179922,-0.01808908,2.600599,-58.71339,32.19836267181095
2,0.02262878,0.1818085,0.9830627,1.0,-0.03933716,0.213089,0.9762268,-31.99049,8.023422,-25.82655,5.100693,0.5123298,0.2550061,1.0,0.07946777,0.1522827,0.9851227,35.3076,6.056366,-28.34593,4.74028,0.3968389,0.3467931,0.03324389,1.23474,-0.03418809,-0.005350246,0.01179922,-0.01808908,2.600599,-58.71339,32.19836267181095
2,0.02262878,0.1818085,0.9830627,1.0,-0.03933716,0.213089,0.9762268,-31.99049,8.023422,-25.82655,5.100693,0.5123298,0.2550061,1.0,0.07946777,0.1522827,0.9851227,35.3076,6.056366,-28.34593,4.74028,0.3968389,0.3467931,0.03321242,1.234747,-0.03419447,-0.005254698,0.01183704,-0.01791941,2.600599,-58.71339,32.19836267181095
2,0.02262878,0.1818085,0.9830627,1.0,-0.03933716,0.213089,0.9762268,-31.99049,8.023422,-25.82655,5.100693,0.5123298,0.2550061,1.0,0.07946777,0.1522827,0.9851227,35.3076,6.056366,-28.34593,4.74028,0.3968389,0.3467931,0.03332531,1.234856,-0.03414309,-0.005102189,0.01165564,-0.01773804,2.600599,-58.71339,32.19836267181095
2,0.02262878,0.1818085,0.9830627,1.0,-0.03933716,0.213089,0.9762268,-31.99049,8.023422,-25.82655,5.100693,0.5123298,0.2550061,1.0,0.07946777,0.1522827,0.9851227,35.3076,6.056366,-28.34593,4.74028,0.3968389,0.3467931,0.03332531,1.234856,-0.03414309,-0.005102189,0.01165564,-0.01773804,2.600599,-58.71339,32.19836267181095
2,0.0206604,0.1804199,0.9833679,1.0,-0.0401001,0.2084503,0.9772034,-31.99158,8.018234,-25.80365,5.073944,0.5124735,0.2558132,1.0,0.08024597,0.1520996,0.9850922,35.30763,6.055298,-28.34456,4.73233,0.3967046,0.3468522,0.03326046,1.234871,-0.03419363,-0.005113857,0.0115761,-0.01747141,2.600599,55.04068,32.19836267181095
2,0.0163269,0.01359558,0.9997711,1.0,-0.06291199,0.03146362,0.9975128,-31.9481,7.582886,-26.81105,4.727921,0.5145736,0.3089313,1.0,0.03132629,0.01019287,0.9994507,34.99344,5.553772,-29.04033,4.300613,0.4158289,0.3946067,0.03328276,1.234841,-0.03420526,-0.00515449,0.01158382,-0.01740219,2.600599,55.04068,32.19836267181095
2,0.0163269,0.01359558,0.9997711,1.0,-0.06291199,0.03146362,0.9975128,-31.9481,7.582886,-26.81105,4.727921,0.5145736,0.3089313,1.0,0.03132629,0.01019287,0.9994507,34.99344,5.553772,-29.04033,4.300613,0.4158289,0.3946067,0.03328276,1.234841,-0.03420526,-0.00515449,0.01158382,-0.01740219,2.600599,55.04068,32.19836267181095
2,0.03193665,0.003463745,0.9994812,1.0,-0.07121277,0.02424622,0.9971619,-32.01616,7.505661,-26.75894,4.662125,0.5182065,0.3121156,1.0,0.03538513,0.002761841,0.9993591,35.04921,5.501358,-29.04427,4.27713,0.413164,0.3976437,0.03319418,1.234816,-0.03423965,-0.005201972,0.01160888,-0.01729612,2.600599,55.04068,32.19836267181095
2,0.03193665,0.003463745,0.9994812,1.0,-0.07121277,0.02424622,0.9971619,-32.01616,7.505661,-26.75894,4.662125,0.5182065,0.3121156,1.0,0.03538513,0.002761841,0.9993591,35.04921,5.501358,-29.04427,4.27713,0.413164,0.3976437,0.03319418,1.234816,-0.03423965,-0.005201972,0.01160888,-0.01729612,2.600599,55.04068,32.19836267181095
2,0.03193665,0.003463745,0.9994812,1.0,-0.07121277,0.02424622,0.9971619,-32.01616,7.505661,-26.75894,4.662125,0.5182065,0.3121156,1.0,0.03538513,0.002761841,0.9993591,35.04921,5.501358,-29.04427,4.27713,0.413164,0.3976437,0.03311193,1.23477,-0.03430009,-0.005390479,0.01145121,-0.01724953,2.600599,55.04068,32.19836267181095
2,0.03193665,0.003463745,0.9994812,1.0,-0.07121277,0.02424622,0.9971619,-32.01616,7.505661,-26.75894,4.662125,0.5182065,0.3121156,1.0,0.03538513,0.002761841,0.9993591,35.04921,5.501358,-29.04427,4.27713,0.413164,0.3976437,0.03308856,1.234788,-0.03430545,-0.005295657,0.01135844,-0.01721321,2.600599,55.04068,32.19836267181095
2,0.03193665,0.003463745,0.9994812,1.0,-0.07121277,0.02424622,0.9971619,-32.01616,7.505661,-26.75894,4.662125,0.5182065,0.3121156,1.0,0.03538513,0.002761841,0.9993591,35.04921,5.501358,-29.04427,4.27713,0.413164,0.3976437,0.0330205,1.23484,-0.03432119,-0.005541777,0.01130255,-0.01708243,2.600599,55.04068,32.19836267181095
2,0.03193665,0.003463745,0.9994812,1.0,-0.07121277,0.02424622,0.9971619,-32.01616,7.505661,-26.75894,4.662125,0.5182065,0.3121156,1.0,0.03538513,0.002761841,0.9993591,35.04921,5.501358,-29.04427,4.27713,0.413164,0.3976437,0.0330205,1.23484,-0.03432119,-0.005541777,0.01130255,-0.01708243,2.600599,55.04068,32.19836267181095
2,0.03193665,0.003463745,0.9994812,1.0,-0.07121277,0.02424622,0.9971619,-32.01616,7.505661,-26.75894,4.662125,0.5182065,0.3121156,1.0,0.03538513,0.002761841,0.9993591,35.04921,5.501358,-29.04427,4.27713,0.413164,0.3976437,0.0330205,1.23484,-0.03432119,-0.005541777,0.01130255,-0.01708243,2.600599,55.04068,32.19836267181095
2,0.03370667,0.004257202,0.9994202,1.0,-0.06933594,0.03782654,0.9968719,-32.08342,7.524979,-26.85449,4.644196,0.5202056,0.3098928,1.0,0.04090881,0.001907349,0.9991608,35.09273,5.585678,-29.31291,4.294113,0.4105711,0.3971273,0.03295839,1.234823,-0.03441441,-0.005824942,0.01123776,-0.01701688,2.600599,55.04068,32.19836267181095
2,-0.01686096,0.02168274,0.9996185,1.0,-0.06506348,0.03361511,0.9972992,-32.09091,7.532684,-26.8963,4.5905,0.5197685,0.310612,1.0,0.03713989,0.008270264,0.9992676,35.09367,5.587982,-29.30894,4.287781,0.4111841,0.3959058,0.03294957,1.234875,-0.03440201,-0.005827499,0.01118593,-0.017009,2.600599,55.04068,32.19836267181095
2,-0.01686096,0.02168274,0.9996185,1.0,-0.06506348,0.03361511,0.9972992,-32.09091,7.532684,-26.8963,4.5905,0.5197685,0.310612,1.0,0.03713989,0.008270264,0.9992676,35.09367,5.587982,-29.30894,4.287781,0.4111841,0.3959058,0.03294957,1.234875,-0.03440201,-0.005827499,0.01118593,-0.017009,2.600599,55.04068,32.19836267181095
2,-0.03591919,0.02558899,0.9990234,1.0,-0.06581116,0.03445435,0.9972229,-32.09251,7.524429,-26.87566,4.591614,0.5199359,0.310596,1.0,0.03668213,0.003997803,0.9993134,35.09552,5.593628,-29.33839,4.285568,0.4111841,0.3967037,0.03295887,1.234816,-0.03443563,-0.006011266,0.01131441,-0.01699761,2.600599,55.04068,32.19836267181095
2,-0.01451111,0.02052307,0.9996796,1.0,-0.0665741,0.03491211,0.9971619,-32.09579,7.521805,-26.87566,4.592133,0.5201731,0.310612,1.0,0.03662109,0.006347656,0.9992981,35.09575,5.59465,-29.33931,4.286102,0.4111841,0.3962623,0.03299487,1.234837,-0.03443921,-0.006014983,0.01133612,-0.01695503,2.600599,45.59978,32.19836267181095
2,-0.01374817,0.01922607,0.9997101,1.0,-0.06539917,0.03488159,0.9972382,-32.10059,7.51709,-26.86963,4.592545,0.5201353,0.3107326,1.0,0.03773499,0.003570557,0.9992676,35.09749,5.595932,-29.34056,4.270905,0.4109342,0.3967037,0.03297746,1.234839,-0.03448713,-0.00615215,0.01131243,-0.01684393,2.600599,45.59978,32.19836267181095
2,-0.01374817,0.01922607,0.9997101,1.0,-0.06539917,0.03488159,0.9972382,-32.10059,7.51709,-26.86963,4.592545,0.5201353,0.3107326,1.0,0.03773499,0.003570557,0.9992676,35.09749,5.595932,-29.34056,4.270905,0.4109342,0.3967037,0.03297746,1.234839,-0.03448713,-0.00615215,0.01131243,-0.01684393,2.600599,45.59978,32.19836267181095
2,-0.0136261,0.01791382,0.9997406,1.0,-0.06526184,0.0315094,0.9973602,-32.10149,7.516922,-26.86795,4.592346,0.5201353,0.3113053,1.0,0.03872681,0.004089355,0.9992371,35.09831,5.596176,-29.35234,4.26561,0.4107288,0.3967037,0.03298318,1.234865,-0.03451097,-0.006123016,0.01123843,-0.01659707,2.600599,45.59978,32.19836267181095
2,-0.0144043,0.0173645,0.9997406,1.0,-0.06488037,0.03166199,0.9973755,-32.10452,7.516205,-26.86867,4.592438,0.5201731,0.3113053,1.0,0.0375824,0.002609253,0.9992828,35.09842,5.596817,-29.35252,4.251419,0.410923,0.3969373,0.03299296,1.234857,-0.03449315,-0.006158202,0.01118193,-0.0166674,2.600599,45.59978,32.19836267181095
2,-0.0144043,0.0173645,0.9997406,1.0,-0.06488037,0.03166199,0.9973755,-32.10452,7.516205,-26.86867,4.592438,0.5201731,0.3113053,1.0,0.0375824,0.002609253,0.9992828,35.09842,5.596817,-29.35252,4.251419,0.410923,0.3969373,0.03299296,1.234857,-0.03449315,-0.006158202,0.01118193,-0.0166674,2.600599,45.59978,32.19836267181095
2,-0.01573181,0.01756287,0.9997101,1.0,-0.06443787,0.03092957,0.9974365,-32.10674,7.516922,-26.86963,4.592255,0.5201731,0.3114186,1.0,0.03694153,0.003051758,0.9992981,35.10126,5.600998,-29.37958,4.248093,0.410923,0.3969373,0.03299177,1.234846,-0.03452504,-0.006159412,0.01127153,-0.01676146,2.600599,45.59978,32.19836267181095
2,-0.01701355,0.01774597,0.9996948,1.0,-0.06349182,0.03089905,0.9974976,-32.11215,7.516922,-26.86963,4.593857,0.5201983,0.3114186,1.0,0.03616333,0.002655029,0.9993286,35.10512,5.602386,-29.37958,4.241028,0.410923,0.3969544,0.03297317,1.234801,-0.03452551,-0.006119364,0.01133809,-0.01661816,2.600599,45.59978,32.19836267181095
2,-0.01701355,0.01774597,0.9996948,1.0,-0.06349182,0.03089905,0.9974976,-32.11215,7.516922,-26.86963,4.593857,0.5201983,0.3114186,1.0,0.03616333,0.002655029,0.9993286,35.10512,5.602386,-29.37958,4.241028,0.410923,0.3969544,0.03297317,1.234801,-0.03452551,-0.006119364,0.01133809,-0.01661816,2.600599,45.59978,32.19836267181095
2,-0.01701355,0.01774597,0.9996948,1.0,-0.06349182,0.03089905,0.9974976,-32.11215,7.516922,-26.86963,4.593857,0.5201983,0.3114186,1.0,0.03616333,0.002655029,0.9993286,35.10512,5.602386,-29.37958,4.241028,0.410923,0.3969544,0.03302777,1.23477,-0.03442037,-0.005983936,0.01126028,-0.01651833,2.600599,45.59978,32.19836267181095
2,-0.01701355,0.01774597,0.9996948,1.0,-0.06349182,0.03089905,0.9974976,-32.11215,7.516922,-26.86963,4.593857,0.5201983,0.3114186,1.0,0.03616333,0.002655029,0.9993286,35.10512,5.602386,-29.37958,4.241028,0.410923,0.3969544,0.03298533,1.234784,-0.03433508,-0.005951475,0.01129991,-0.01646411,2.600599,45.59978,32.19836267181095
2,-0.01701355,0.01774597,0.9996948,1.0,-0.06349182,0.03089905,0.9974976,-32.11215,7.516922,-26.86963,4.593857,0.5201983,0.3114186,1.0,0.03616333,0.002655029,0.9993286,35.10512,5.602386,-29.37958,4.241028,0.410923,0.3969544,0.03300869,1.234776,-0.03431809,-0.005869539,0.01135057,-0.01643649,2.600599,45.59978,32.19836267181095
2,-0.01701355,0.01774597,0.9996948,1.0,-0.06349182,0.03089905,0.9974976,-32.11215,7.516922,-26.86963,4.593857,0.5201983,0.3114186,1.0,0.03616333,0.002655029,0.9993286,35.10512,5.602386,-29.37958,4.241028,0.410923,0.3969544,0.03300869,1.234776,-0.03431809,-0.005869539,0.01135057,-0.01643649,2.600599,45.59978,32.19836267181095
2,-0.01701355,0.01774597,0.9996948,1.0,-0.06349182,0.03089905,0.9974976,-32.11215,7.516922,-26.86963,4.593857,0.5201983,0.3114186,1.0,0.03616333,0.002655029,0.9993286,35.10512,5.602386,-29.37958,4.241028,0.410923,0.3969544,0.0330025,1.234793,-0.03434181,-0.005896135,0.01148305,-0.01665667,2.600599,45.59978,32.19836267181095
2,-0.01646423,0.01557922,0.9997406,1.0,-0.0642395,0.02912903,0.9974976,-32.11215,7.516205,-26.87407,4.576035,0.5203207,0.3117714,1.0,0.03604126,0.0006561279,0.9993439,35.10555,5.603912,-29.37958,4.201157,0.4109342,0.3972279,0.03302801,1.234766,-0.03430104,-0.00590245,0.01157417,-0.0168218,2.600599,45.59978,32.19836267181095
2,-0.01646423,0.01557922,0.9997406,1.0,-0.0642395,0.02912903,0.9974976,-32.11215,7.516205,-26.87407,4.576035,0.5203207,0.3117714,1.0,0.03604126,0.0006561279,0.9993439,35.10555,5.603912,-29.37958,4.201157,0.4109342,0.3972279,0.03302801,1.234766,-0.03430104,-0.00590245,0.01157417,-0.0168218,2.600599,45.59978,32.19836267181095
2,-0.01615906,0.01565552,0.9997406,1.0,-0.0647583,0.03001404,0.9974365,-32.11215,7.516205,-26.87407,4.569107,0.5204083,0.3116303,1.0,0.03601074,0.0001983643,0.9993439,35.106,5.606277,-29.37958,4.197128,0.410923,0.3972279,0.03305411,1.23478,-0.03429174,-0.005889813,0.01163196,-0.01690927,2.600599,-10.10239,32.19836267181095
2,-0.01615906,0.01565552,0.9997406,1.0,-0.0647583,0.03001404,0.9974365,-32.11215,7.516205,-26.87407,4.569107,0.5204083,0.3116303,1.0,0.03601074,0.0001983643,0.9993439,35.106,5.606277,-29.37958,4.197128,0.410923,0.3972279,0.03306115,1.234766,-0.03427744,-0.00578,0.01166905,-0.01689252,2.600599,-10.10239,32.19836267181095
2,-0.01615906,0.01565552,0.9997406,1.0,-0.0647583,0.03001404,0.9974365,-32.11215,7.516205,-26.87407,4.569107,0.5204083,0.3116303,1.0,0.03601074,0.0001983643,0.9993439,35.106,5.606277,-29.37958,4.197128,0.410923,0.3972279,0.03306115,1.234766,-0.03427744,-0.00578,0.01166905,-0.01689252,2.600599,-10.10239,32.19836267181095
2,-0.01615906,0.01565552,0.9997406,1.0,-0.0647583,0.03001404,0.9974365,-32.11215,7.516205,-26.87407,4.569107,0.5204083,0.3116303,1.0,0.03601074,0.0001983643,0.9993439,35.106,5.606277,-29.37958,4.197128,0.410923,0.3972279,0.03304029,1.23477,-0.03430724,-0.005685123,0.01175367,-0.01697129,2.600599,-10.10239,32.19836267181095
2,-0.01615906,0.01565552,0.9997406,1.0,-0.0647583,0.03001404,0.9974365,-32.11215,7.516205,-26.87407,4.569107,0.5204083,0.3116303,1.0,0.03601074,0.0001983643,0.9993439,35.106,5.606277,-29.37958,4.197128,0.410923,0.3972279,0.03313613,1.23478,-0.03425109,-0.005678566,0.01184271,-0.0169031,2.600599,-10.10239,32.19836267181095
2,-0.0161438,0.01538086,0.9997406,1.0,-0.06607056,0.03001404,0.9973602,-32.11215,7.516205,-26.86867,4.569351,0.5206244,0.3115841,1.0,0.03587341,0.0001220703,0.9993439,35.10669,5.607376,-29.38257,4.191116,0.410923,0.3972279,0.03313613,1.23478,-0.03425109,-0.005678566,0.01184271,-0.0169031,2.600599,-10.10239,32.19836267181095
2,-0.0161438,0.01538086,0.9997406,1.0,-0.06607056,0.03001404,0.9973602,-32.11215,7.516205,-26.86867,4.569351,0.5206244,0.3115841,1.0,0.03587341,0.0001220703,0.9993439,35.10669,5.607376,-29.38257,4.191116,0.410923,0.3972279,0.03313613,1.23478,-0.03425109,-0.005678566,0.01184271,-0.0169031,2.600599,-10.10239,32.19836267181095
2,-0.0161438,0.01538086,0.9997406,1.0,-0.06607056,0.03001404,0.9973602,-32.11215,7.516205,-26.86867,4.569351,0.5206244,0.3115841,1.0,0.03587341,0.0001220703,0.9993439,35.10669,5.607376,-29.38257,4.191116,0.410923,0.3972279,0.03317893,1.234798,-0.03427923,-0.005723002,0.01188792,-0.01682977,2.600599,-10.10239,32.19836267181095
2,-0.0161438,0.01538086,0.9997406,1.0,-0.06607056,0.03001404,0.9973602,-32.11215,7.516205,-26.86867,4.569351,0.5206244,0.3115841,1.0,0.03587341,0.0001220703,0.9993439,35.10669,5.607376,-29.38257,4.191116,0.410923,0.3972279,0.03320515,1.234723,-0.03411818,-0.005652264,0.01190295,-0.01671784,2.600599,-10.10239,32.19836267181095
2,-0.0161438,0.01538086,0.9997406,1.0,-0.06607056,0.03001404,0.9973602,-32.11215,7.516205,-26.86867,4.569351,0.5206244,0.3115841,1.0,0.03587341,0.0001220703,0.9993439,35.10669,5.607376,-29.38257,4.191116,0.410923,0.3972279,0.03310943,1.234684,-0.0340184,-0.005543121,0.01195292,-0.01671071,2.600599,-10.10239,32.19836267181095
2,-0.0161438,0.01538086,0.9997406,1.0,-0.06607056,0.03001404,0.9973602,-32.11215,7.516205,-26.86867,4.569351,0.5206244,0.3115841,1.0,0.03587341,0.0001220703,0.9993439,35.10669,5.607376,-29.38257,4.191116,0.410923,0.3972279,0.03310943,1.234684,-0.0340184,-0.005543121,0.01195292,-0.01671071,2.600599,-10.10239,32.19836267181095
2,-0.01846313,0.01313782,0.9997406,1.0,-0.0683136,0.02745056,0.9972839,-32.10919,7.522232,-26.80263,4.450043,0.5208755,0.3113358,1.0,0.03663635,-0.002700806,0.9993134,35.12843,5.644699,-29.48967,4.195877,0.4099759,0.3973218,0.03307664,1.234648,-0.03400707,-0.005386331,0.01195105,-0.0168125,2.600599,-10.10239,32.19836267181095
2,-0.01846313,0.01313782,0.9997406,1.0,-0.0683136,0.02745056,0.9972839,-32.10919,7.522232,-26.80263,4.450043,0.5208755,0.3113358,1.0,0.03663635,-0.002700806,0.9993134,35.12843,5.644699,-29.48967,4.195877,0.4099759,0.3973218,0.03307664,1.234648,-0.03400707,-0.005386331,0.01195105,-0.0168125,2.600599,-10.10239,32.19836267181095
2,-0.04382324,0.04844666,0.9978485,1.0,-0.05517578,0.05030823,0.9972076,-32.0166,7.682159,-26.85538,4.596802,0.5157101,0.3022285,1.0,0.04977417,0.03289795,0.9982147,35.13939,5.589844,-28.75584,4.112213,0.4077198,0.3867352,0.03307807,1.234687,-0.03400064,-0.005241922,0.01181625,-0.01673833,2.600599,-10.10239,32.19836267181095
2,-0.04382324,0.04844666,0.9978485,1.0,-0.05517578,0.05030823,0.9972076,-32.0166,7.682159,-26.85538,4.596802,0.5157101,0.3022285,1.0,0.04977417,0.03289795,0.9982147,35.13939,5.589844,-28.75584,4.112213,0.4077198,0.3867352,0.03307807,1.234687,-0.03400064,-0.005241922,0.01181625,-0.01673833,2.600599,-10.10239,32.19836267181095
2,-0.04252625,0.09790039,0.994278,1.0,-0.0425415,0.09790039,0.994278,-31.90788,7.916397,-26.70364,4.570694,0.5100813,0.2848312,1.0,0.06176758,0.06886292,0.995697,35.15012,5.821564,-28.64383,4.325745,0.405365,0.3717332,0.0330404,1.234684,-0.03399599,-0.005231963,0.01177393,-0.0166334,2.600599,-10.10239,32.19836267181095
2,-0.04252625,0.09790039,0.994278,1.0,-0.0425415,0.09790039,0.994278,-31.90788,7.916397,-26.70364,4.570694,0.5100813,0.2848312,1.0,0.06176758,0.06886292,0.995697,35.15012,5.821564,-28.64383,4.325745,0.405365,0.3717332,0.0330404,1.234684,-0.03399599,-0.005231963,0.01177393,-0.0166334,2.600599,-10.10239,32.19836267181095
2,-0.04351807,0.1289978,0.9906769,1.0,-0.04353333,0.1289978,0.9906769,-31.91623,7.837418,-26.32541,4.658386,0.5104589,0.279486,1.0,0.06469727,0.1000061,0.9928741,35.18553,5.832611,-28.45476,4.471146,0.4036943,0.3644595,0.03302729,1.234672,-0.0339812,-0.005261783,0.01173146,-0.01660336,2.600599,-71.41591,32.19836267181095
2,-0.04351807,0.1289978,0.9906769,1.0,-0.04353333,0.1289978,0.9906769,-31.91623,7.837418,-26.32541,4.658386,0.5104589,0.279486,1.0,0.06469727,0.1000061,0.9928741,35.18553,5.832611,-28.45476,4.471146,0.4036943,0.3644595,0.03302729,1.234672,-0.0339812,-0.005261783,0.01173146,-0.01660336,2.600599,-71.41591,32.19836267181095
2,-0.02651978,0.1351929,0.990448,1.0,-0.04634094,0.1420898,0.9887543,-31.9567,7.859772,-26.42612,4.682312,0.5123405,0.2771723,1.0,0.06489563,0.1027069,0.9925842,35.21385,5.81813,-28.46904,4.445618,0.402669,0.3645792,0.03295529,1.23466,-0.03394926,-0.005311111,0.0117638,-0.01653816,2.600599,-71.41591,32.19836267181095
2,-0.02651978,0.1351929,0.990448,1.0,-0.04634094,0.1420898,0.9887543,-31.9567,7.859772,-26.42612,4.682312,0.5123405,0.2771723,1.0,0.06489563,0.1027069,0.9925842,35.21385,5.81813,-28.46904,4.445618,0.402669,0.3645792,0.03295529,1.23466,-0.03394926,-0.005311111,0.0117638,-0.01653816,2.600599,-71.41591,32.19836267181095
2,0.03782654,0.1155243,0.992569,1.0,-0.05180359,0.1393127,0.9888763,-31.96205,7.857925,-26.4175,4.707718,0.5134173,0.2776491,1.0,0.06365967,0.1084747,0.9920502,35.21826,5.819977,-28.47388,4.477402,0.4027177,0.3635814,0.03299105,1.234664,-0.033988,-0.005193371,0.01171875,-0.01655482,2.600599,-71.41591,32.19836267181095
2,0.03782654,0.1155243,0.992569,1.0,-0.05180359,0.1393127,0.9888763,-31.96205,7.857925,-26.4175,4.707718,0.5134173,0.2776491,1.0,0.06365967,0.1084747,0.9920502,35.21826,5.819977,-28.47388,4.477402,0.4027177,0.3635814,0.03299105,1.234664,-0.033988,-0.005193371,0.01171875,-0.01655482,2.600599,-71.41591,32.19836267181095
2,0.01582336,0.1187592,0.9927826,1.0,-0.04879761,0.1382751,0.9891815,-31.97224,7.850876,-26.39699,4.710114,0.5132504,0.2779278,1.0,0.06428528,0.1037598,0.9925079,35.22227,5.815704,-28.45914,4.466309,0.4024877,0.3644088,0.03300321,1.234666,-0.03401291,-0.005126953,0.01170093,-0.01642107,2.600599,-71.41591,32.19836267181095
2,0.01582336,0.1187592,0.9927826,1.0,-0.04879761,0.1382751,0.9891815,-31.97224,7.850876,-26.39699,4.710114,0.5132504,0.2779278,1.0,0.06428528,0.1037598,0.9925079,35.22227,5.815704,-28.45914,4.466309,0.4024877,0.3644088,0.03300321,1.234666,-0.03401291,-0.005126953,0.01170093,-0.01642107,2.600599,-71.41591,32.19836267181095
2,0.005126953,0.1214752,0.992569,1.0,-0.05038452,0.1369781,0.9892883,-31.97453,7.849457,-26.39307,4.7146,0.5135843,0.2781798,1.0,0.06443787,0.1044617,0.9924316,35.22366,5.815582,-28.42421,4.459366,0.4024345,0.3640012,0.03288877,1.234614,-0.03403735,-0.005124046,0.01168819,-0.01635378,2.595474,-71.41591,32.19836267181095
2,0.005126953,0.1214752,0.992569,1.0,-0.05038452,0.1369781,0.9892883,-31.97453,7.849457,-26.39307,4.7146,0.5135843,0.2781798,1.0,0.06443787,0.1044617,0.9924316,35.22366,5.815582,-28.42421,4.459366,0.4024345,0.3640012,0.03288877,1.234614,-0.03403735,-0.005124046,0.01168819,-0.01635378,2.595474,-71.41591,32.19836267181095
2,0.006378174,0.1243591,0.9922028,1.0,-0.0489502,0.1427917,0.9885406,-31.9872,7.838699,-26.36589,4.746567,0.5137702,0.2773705,1.0,0.06495667,0.1043854,0.9924011,35.22382,5.815582,-28.42209,4.467987,0.4023398,0.3640012,0.03277957,1.234655,-0.03403777,-0.005161712,0.01165244,-0.01625507,2.595474,-71.41591,32.19836267181095
2,0.006378174,0.1243591,0.9922028,1.0,-0.0489502,0.1427917,0.9885406,-31.9872,7.838699,-26.36589,4.746567,0.5137702,0.2773705,1.0,0.06495667,0.1043854,0.9924011,35.22382,5.815582,-28.42209,4.467987,0.4023398,0.3640012,0.03277957,1.234655,-0.03403777,-0.005161712,0.01165244,-0.01625507,2.595474,-71.41591,32.19836267181095
2,0.0100708,0.1234436,0.9922943,1.0,-0.04756165,0.1429901,0.9885712,-31.9944,7.832642,-26.33882,4.764603,0.5137702,0.2773446,1.0,0.06492615,0.1043854,0.9924011,35.22395,5.815582,-28.42046,4.477493,0.4023398,0.3640012,0.03269923,1.234654,-0.03399885,-0.005305497,0.01165436,-0.01621698,2.595474,-71.41591,32.19836267181095
2,0.0100708,0.1234436,0.9922943,1.0,-0.04756165,0.1429901,0.9885712,-31.9944,7.832642,-26.33882,4.764603,0.5137702,0.2773446,1.0,0.06492615,0.1043854,0.9924011,35.22395,5.815582,-28.42046,4.477493,0.4023398,0.3640012,0.03269923,1.234654,-0.03399885,-0.005305497,0.01165436,-0.01621698,2.595474,-71.41591,32.19836267181095
2,0.02459717,0.1173859,0.9927673,1.0,-0.0458374,0.1433411,0.9886017,-32.00716,7.809464,-26.23227,4.784653,0.5138741,0.277336,1.0,0.06484985,0.1022186,0.99263,35.22607,5.815521,-28.41537,4.488022,0.4022859,0.3643349,0.03267968,1.234666,-0.03402215,-0.005449588,0.01163901,-0.01620963,2.595474,14.76027,32.19836267181095
2,0.02459717,0.1173859,0.9927673,1.0,-0.0458374,0.1433411,0.9886017,-32.00716,7.809464,-26.23227,4.784653,0.5138741,0.277336,1.0,0.06484985,0.1022186,0.99263,35.22607,5.815521,-28.41537,4.488022,0.4022859,0.3643349,0.03267968,1.234666,-0.03402215,-0.005449588,0.01163901,-0.01620963,2.595474,14.76027,32.19836267181095
2,0.03723145,0.1132355,0.9928589,1.0,-0.04504395,0.1448822,0.9884186,-32.01477,7.788116,-26.13826,4.789536,0.5139663,0.2771266,1.0,0.06570435,0.1020508,0.9925995,35.2267,5.815582,-28.41537,4.500458,0.4021157,0.3643698,0.03262866,1.234679,-0.03413039,-0.005487736,0.01163132,-0.01615807,2.595474,14.76027,32.19836267181095
2,0.03723145,0.1132355,0.9928589,1.0,-0.04504395,0.1448822,0.9884186,-32.01477,7.788116,-26.13826,4.789536,0.5139663,0.2771266,1.0,0.06570435,0.1020508,0.9925995,35.2267,5.815582,-28.41537,4.500458,0.4021157,0.3643698,0.03262866,1.234679,-0.03413039,-0.005487736,0.01163132,-0.01615807,2.595474,14.76027,32.19836267181095
2,0.04748535,0.108551,0.9929504,1.0,-0.04447937,0.1454926,0.9883575,-32.02029,7.771729,-26.05673,4.795868,0.5140254,0.2770389,1.0,0.06535339,0.1012268,0.9927063,35.22838,5.818527,-28.43193,4.5177,0.4021077,0.3645446,0.03270972,1.234637,-0.03417587,-0.005357204,0.01158704,-0.01622296,2.595474,14.76027,32.19836267181095
2,0.04748535,0.108551,0.9929504,1.0,-0.04447937,0.1454926,0.9883575,-32.02029,7.771729,-26.05673,4.795868,0.5140254,0.2770389,1.0,0.06535339,0.1012268,0.9927063,35.22838,5.818527,-28.43193,4.5177,0.4021077,0.3645446,0.03270972,1.234637,-0.03417587,-0.005357204,0.01158704,-0.01622296,2.595474,14.76027,32.19836267181095
3,0.04602051,0.1091919,0.9929504,1.0,-0.04388428,0.1456451,0.9883575,-32.02516,7.757248,-25.9886,4.801514,0.514064,0.2770389,1.0,0.06495667,0.1013641,0.9927216,35.22966,5.826706,-28.47377,4.543854,0.4021027,0.3646004,0.03273714,1.234671,-0.03422844,-0.005358595,0.01159154,-0.01627019,2.595474,14.76027,33.49
3,0.04602051,0.1091919,0.9929504,1.0,-0.04388428,0.1456451,0.9883575,-32.02516,7.757248,-25.9886,4.801514,0.514064,0.2770389,1.0,0.06495667,0.1013641,0.9927216,35.22966,5.826706,-28.47377,4.543854,0.4021027,0.3646004,0.03273714,1.234671,-0.03422844,-0.005358595,0.01159154,-0.01627019,2.595474,14.76027,33.49
3,0.01287842,0.1215363,0.9924927,1.0,-0.04554749,0.1459656,0.9882355,-32.0307,7.747238,-25.94855,4.818481,0.5145071,0.2770606,1.0,0.06408691,0.09970093,0.9929352,35.23077,5.860657,-28.61761,4.560287,0.4021157,0.3648865,0.03272688,1.234694,-0.03426176,-0.005475503,0.01162427,-0.01611883,2.595474,14.76027,33.49
3,0.01287842,0.1215363,0.9924927,1.0,-0.04554749,0.1459656,0.9882355,-32.0307,7.747238,-25.94855,4.818481,0.5145071,0.2770606,1.0,0.06408691,0.09970093,0.9929352,35.23077,5.860657,-28.61761,4.560287,0.4021157,0.3648865,0.03272688,1.234694,-0.03426176,-0.005475503,0.01162427,-0.01611883,2.595474,14.76027,33.49
3,-0.01956177,0.1355286,0.9905701,1.0,-0.04481506,0.1460114,0.988266,-32.03468,7.742157,-25.92265,4.857269,0.5145071,0.2770606,1.0,0.06300354,0.1005859,0.9929199,35.23526,5.860657,-28.66302,4.579315,0.4021157,0.3650972,0.03274786,1.234723,-0.03431302,-0.005521574,0.01164733,-0.01608366,2.595474,14.76027,33.49
3,-0.01956177,0.1355286,0.9905701,1.0,-0.04481506,0.1460114,0.988266,-32.03468,7.742157,-25.92265,4.857269,0.5145071,0.2770606,1.0,0.06300354,0.1005859,0.9929199,35.23526,5.860657,-28.66302,4.579315,0.4021157,0.3650972,0.03274786,1.234723,-0.03431302,-0.005521574,0.01164733,-0.01608366,2.595474,14.76027,33.49
3,-0.01312256,0.1336212,0.9909363,1.0,-0.04556274,0.1480255,0.9879303,-32.03877,7.740723,-25.9039,4.969574,0.5147642,0.2766482,1.0,0.06240845,0.09945679,0.9930725,35.23819,5.860657,-28.66302,4.583725,0.4021157,0.3652953,0.03271234,1.234646,-0.03431004,-0.005637746,0.01145446,-0.01588369,2.595474,14.76027,33.49
3,-0.01312256,0.1336212,0.9909363,1.0,-0.04556274,0.1480255,0.9879303,-32.03877,7.740723,-25.9039,4.969574,0.5147642,0.2766482,1.0,0.06240845,0.09945679,0.9930725,35.23819,5.860657,-28.66302,4.583725,0.4021157,0.3652953,0.03271234,1.234646,-0.03431004,-0.005637746,0.01145446,-0.01588369,2.595474,14.76027,33.49
3,-0.01312256,0.1336212,0.9909363,1.0,-0.04556274,0.1480255,0.9879303,-32.03877,7.740723,-25.9039,4.969574,0.5147642,0.2766482,1.0,0.06240845,0.09945679,0.9930725,35.23819,5.860657,-28.66302,4.583725,0.4021157,0.3652953,0.03272963,1.23468,-0.03424257,-0.005666745,0.01134729,-0.01574612,2.595474,14.76027,33.49
3,-0.01312256,0.1336212,0.9909363,1.0,-0.04556274,0.1480255,0.9879303,-32.03877,7.740723,-25.9039,4.969574,0.5147642,0.2766482,1.0,0.06240845,0.09945679,0.9930725,35.23819,5.860657,-28.66302,4.583725,0.4021157,0.3652953,0.03272963,1.23468,-0.03424257,-0.005666745,0.01134729,-0.01574612,2.595474,14.76027,33.49
3,-0.01312256,0.1336212,0.9909363,1.0,-0.04556274,0.1480255,0.9879303,-32.03877,7.740723,-25.9039,4.969574,0.5147642,0.2766482,1.0,0.06240845,0.09945679,0.9930725,35.23819,5.860657,-28.66302,4.583725,0.4021157,0.3652953,0.03271437,1.234727,-0.03419697,-0.005543121,0.01142385,-0.01611513,2.595474,24.27236,33.49
3,-0.01312256,0.1336212,0.9909363,1.0,-0.04556274,0.1480255,0.9879303,-32.03877,7.740723,-25.9039,4.969574,0.5147642,0.2766482,1.0,0.06240845,0.09945679,0.9930725,35.23819,5.860657,-28.66302,4.583725,0.4021157,0.3652953,0.03271437,1.234727,-0.03419697,-0.005543121,0.01142385,-0.01611513,2.595474,24.27236,33.49
3,0.01049805,0.1216888,0.9925079,1.0,-0.04576111,0.1448517,0.9883881,-32.04204,7.736679,-25.87332,4.975937,0.5148877,0.2771086,1.0,0.06147766,0.100296,0.993042,35.23949,5.860382,-28.66302,4.606812,0.4022281,0.3651757,0.03278792,1.234709,-0.03418535,-0.005319521,0.01156193,-0.01622801,2.595474,24.27236,33.49
3,0.01049805,0.1216888,0.9925079,1.0,-0.04576111,0.1448517,0.9883881,-32.04204,7.736679,-25.87332,4.975937,0.5148877,0.2771086,1.0,0.06147766,0.100296,0.993042,35.23949,5.860382,-28.66302,4.606812,0.4022281,0.3651757,0.03278792,1.234709,-0.03418535,-0.005319521,0.01156193,-0.01622801,2.595474,24.27236,33.49
3,0.02148438,0.1164246,0.9929657,1.0,-0.04728699,0.1452789,0.9882507,-32.04404,7.73259,-25.85588,4.998093,0.5151989,0.2770728,1.0,0.05989075,0.1000061,0.9931793,35.23949,5.858627,-28.66302,4.622696,0.4025015,0.3652953,0.03280556,1.234708,-0.03420162,-0.005109485,0.01149926,-0.01618801,2.595474,24.27236,33.49
3,0.01350403,0.120224,0.9926453,1.0,-0.04394531,0.1453552,0.9883881,-32.04639,7.724686,-25.82101,5.055222,0.5147135,0.2770728,1.0,0.05995178,0.09953308,0.9932251,35.2393,5.8526,-28.65417,4.631592,0.4025015,0.3655191,0.03277385,1.234735,-0.03423703,-0.0051255,0.01153871,-0.01613592,2.595474,24.27236,33.49
3,0.01350403,0.120224,0.9926453,1.0,-0.04394531,0.1453552,0.9883881,-32.04639,7.724686,-25.82101,5.055222,0.5147135,0.2770728,1.0,0.05995178,0.09953308,0.9932251,35.2393,5.8526,-28.65417,4.631592,0.4025015,0.3655191,0.03277385,1.234735,-0.03423703,-0.0051255,0.01153871,-0.01613592,2.595474,24.27236,33.49
3,0.01412964,0.1210938,0.9925385,1.0,-0.04240417,0.1469879,0.9882202,-32.04756,7.716949,-25.78726,5.058914,0.5144892,0.2768261,1.0,0.06060791,0.09942627,0.9931946,35.23618,5.850525,-28.64169,4.648346,0.4025015,0.3655191,0.03283525,1.234695,-0.0342437,-0.005273099,0.01157546,-0.01605306,2.595474,24.27236,33.49
3,0.01647949,0.1211853,0.9924774,1.0,-0.04356384,0.1487579,0.9878998,-32.04866,7.711121,-25.77042,5.108078,0.5147135,0.2766303,1.0,0.0602417,0.1007385,0.9930725,35.23354,5.849716,-28.63461,4.678268,0.4026554,0.3652836,0.0328387,1.23472,-0.03425503,-0.005323721,0.01163324,-0.01603541,2.595474,24.27236,33.49
3,0.01664734,0.1213837,0.9924622,1.0,-0.04496765,0.1489563,0.9878082,-32.04897,7.708969,-25.76344,5.109344,0.5149503,0.2766303,1.0,0.06031799,0.1014862,0.9929962,35.23306,5.849716,-28.6371,4.687515,0.4026554,0.3651757,0.03284466,1.234722,-0.03427768,-0.005411172,0.01170794,-0.01604888,2.595474,24.27236,33.49
3,0.01664734,0.1213837,0.9924622,1.0,-0.04496765,0.1489563,0.9878082,-32.04897,7.708969,-25.76344,5.109344,0.5149503,0.2766303,1.0,0.06031799,0.1014862,0.9929962,35.23306,5.849716,-28.6371,4.687515,0.4026554,0.3651757,0.03284466,1.234722,-0.03427768,-0.005411172,0.01170794,-0.01604888,2.595474,24.27236,33.49
3,0.01559448,0.1222534,0.9923706,1.0,-0.04356384,0.1491241,0.987854,-32.04897,7.705673,-25.74205,5.118866,0.5147135,0.2765595,1.0,0.05984497,0.1018066,0.9929962,35.23306,5.848679,-28.6371,4.714294,0.4027335,0.3651757,0.03283226,1.234717,-0.03423524,-0.005483661,0.01166139,-0.01616222,2.595474,24.27236,33.49
3,0.01341248,0.1239624,0.9921875,1.0,-0.04364014,0.1504517,0.9876404,-32.04866,7.704575,-25.73041,5.122162,0.5147135,0.2763065,1.0,0.05961609,0.1021423,0.9929657,35.23273,5.843536,-28.63461,4.730896,0.4027831,0.3652836,0.03277791,1.23473,-0.03433037,-0.005498587,0.01166586,-0.01611097,2.595474,24.27236,33.49
3,0.01341248,0.1239624,0.9921875,1.0,-0.04364014,0.1504517,0.9876404,-32.04866,7.704575,-25.73041,5.122162,0.5147135,0.2763065,1.0,0.05961609,0.1021423,0.9929657,35.23273,5.843536,-28.63461,4.730896,0.4027831,0.3652836,0.03277791,1.23473,-0.03433037,-0.005498587,0.01166586,-0.01611097,2.595474,24.27236,33.49
3,0.01289368,0.1251068,0.9920502,1.0,-0.04521179,0.1487274,0.9878387,-32.04819,7.704117,-25.72041,5.13591,0.5149503,0.2765413,1.0,0.05984497,0.1056519,0.9925995,35.23273,5.843323,-28.64169,4.741196,0.4027335,0.3647479,0.03287387,1.234759,-0.03444159,-0.005595296,0.01171811,-0.01609153,2.595474,24.27236,33.49
3,0.04570007,0.09228516,0.9946747,1.0,-0.04043579,0.1290283,0.990799,-31.91513,7.669174,-26.17596,5.272293,0.5097928,0.284589,1.0,0.07164001,0.08102417,0.9941254,35.23689,5.722397,-28.68777,4.805405,0.4005565,0.3735851,0.03290951,1.23479,-0.03446615,-0.005661484,0.01164541,-0.01607393,2.595474,9.365387,33.49
3,0.0799408,0.06161499,0.9948883,1.0,-0.04232788,0.09378052,0.9946899,-31.84102,7.585495,-26.28314,5.081299,0.5075932,0.2940471,1.0,0.08488464,0.06028748,0.9945526,35.23952,5.687866,-28.81427,4.877457,0.398138,0.3794466,0.03291953,1.23485,-0.03452617,-0.005787729,0.01158961,-0.01615669,2.595474,9.365387,33.49
3,0.0799408,0.06161499,0.9948883,1.0,-0.04232788,0.09378052,0.9946899,-31.84102,7.585495,-26.28314,5.081299,0.5075932,0.2940471,1.0,0.08488464,0.06028748,0.9945526,35.23952,5.687866,-28.81427,4.877457,0.398138,0.3794466,0.03291953,1.23485,-0.03452617,-0.005787729,0.01158961,-0.01615669,2.595474,9.365387,33.49
3,-0.03152466,0.08830261,0.9955902,1.0,-0.03381348,0.0892334,0.9954224,-31.87984,7.506287,-26.30087,5.123917,0.5074731,0.2976483,1.0,0.07662964,0.04394531,0.9960785,35.30067,5.841003,-29.7007,4.766968,0.3968391,0.3842205,0.03290737,1.234898,-0.0344916,-0.005901188,0.01158254,-0.01597536,2.595474,9.365387,33.49
3,-0.03443909,0.07876587,0.9962921,1.0,-0.03465271,0.07884216,0.9962769,-31.88316,7.501297,-26.29164,5.109406,0.5077032,0.2994967,1.0,0.07797241,0.04289246,0.9960175,35.30801,5.848816,-29.74068,4.747192,0.3963255,0.3844441,0.03287971,1.234909,-0.03443551,-0.006027357,0.01158704,-0.01606976,2.595474,9.365387,33.49
3,-0.02947998,0.08097839,0.9962769,1.0,-0.02949524,0.08097839,0.9962769,-31.88316,7.498016,-26.28374,5.147415,0.5068597,0.299183,1.0,0.07679749,0.04066467,0.9962158,35.30928,5.844589,-29.74068,4.746399,0.396483,0.3849748,0.03285515,1.234919,-0.03446102,-0.006125449,0.01156644,-0.01610311,2.595474,9.365387,33.49
3,-0.02947998,0.08097839,0.9962769,1.0,-0.02949524,0.08097839,0.9962769,-31.88316,7.498016,-26.28374,5.147415,0.5068597,0.299183,1.0,0.07679749,0.04066467,0.9962158,35.30928,5.844589,-29.74068,4.746399,0.396483,0.3849748,0.03285515,1.234919,-0.03446102,-0.006125449,0.01156644,-0.01610311,2.595474,9.365387,33.49
3,-0.03089905,0.08113098,0.9962158,1.0,-0.03092957,0.08114624,0.9962158,-31.88609,7.498016,-26.28656,5.143539,0.5071919,0.299183,1.0,0.07395935,0.04165649,0.9963837,35.3119,5.833878,-29.71523,4.782944,0.3968916,0.3849748,0.03283024,1.234989,-0.03450131,-0.006350003,0.0114785,-0.01579667,2.595474,9.365387,33.49
3,-0.03063965,0.08190918,0.9961548,1.0,-0.0320282,0.08244324,0.9960785,-31.88741,7.498764,-26.28909,5.141434,0.507418,0.2989555,1.0,0.07357788,0.04151917,0.9964142,35.31346,5.833328,-29.70964,4.788147,0.3969072,0.3849761,0.03279984,1.235046,-0.03447622,-0.006460507,0.01133152,-0.0157234,2.595474,9.365387,33.49
3,-0.03063965,0.08190918,0.9961548,1.0,-0.0320282,0.08244324,0.9960785,-31.88741,7.498764,-26.28909,5.141434,0.507418,0.2989555,1.0,0.07357788,0.04151917,0.9964142,35.31346,5.833328,-29.70964,4.788147,0.3969072,0.3849761,0.03279984,1.235046,-0.03447622,-0.006460507,0.01133152,-0.0157234,2.595474,9.365387,33.49
3,0.01599121,0.06306458,0.997879,1.0,-0.03274536,0.08129883,0.9961395,-31.89058,7.501297,-26.30415,5.142807,0.5076441,0.299183,1.0,0.07336426,0.04136658,0.9964447,35.31587,5.8246,-29.66933,4.808456,0.3968839,0.3849775,0.03273809,1.235093,-0.03448433,-0.006637977,0.01131441,-0.01585458,2.595474,9.365387,33.49
3,0.01522827,0.06454468,0.9977875,1.0,-0.03295898,0.08399963,0.9959106,-31.89098,7.506134,-26.32762,5.141876,0.5077032,0.2987279,1.0,0.07316589,0.0408783,0.9964752,35.31686,5.824448,-29.65874,4.814453,0.3968916,0.3849775,0.03271449,1.235113,-0.03451276,-0.006682722,0.0112854,-0.01585176,2.595474,9.365387,33.49
3,0.01538086,0.06356812,0.9978485,1.0,-0.03437805,0.082901,0.9959564,-31.89232,7.506592,-26.33543,5.143097,0.5079814,0.2989555,1.0,0.07307434,0.04092407,0.9964752,35.31741,5.823608,-29.65729,4.818359,0.3968877,0.3849918,0.03270543,1.2351,-0.03449816,-0.00666486,0.01126954,-0.01578865,2.595474,9.365387,33.49
3,0.01538086,0.06356812,0.9978485,1.0,-0.03437805,0.082901,0.9959564,-31.89232,7.506592,-26.33543,5.143097,0.5079814,0.2989555,1.0,0.07307434,0.04092407,0.9964752,35.31741,5.823608,-29.65729,4.818359,0.3968877,0.3849918,0.03270543,1.2351,-0.03449816,-0.00666486,0.01126954,-0.01578865,2.595474,9.365387,33.49
3,0.01982117,0.06178284,0.997879,1.0,-0.0357666,0.08287048,0.9959106,-31.89455,7.508636,-26.34419,5.144836,0.5082846,0.2989555,1.0,0.07354736,0.04116821,0.9964294,35.31815,5.822006,-29.65398,4.831696,0.396783,0.3849761,0.03275669,1.235141,-0.03451824,-0.006674914,0.0111479,-0.01550821,2.595474,9.365387,33.49
3,0.01982117,0.06178284,0.997879,1.0,-0.0357666,0.08287048,0.9959106,-31.89455,7.508636,-26.34419,5.144836,0.5082846,0.2989555,1.0,0.07354736,0.04116821,0.9964294,35.31815,5.822006,-29.65398,4.831696,0.396783,0.3849761,0.03275669,1.235141,-0.03451824,-0.006674914,0.0111479,-0.01550821,2.595474,9.365387,33.49
3,0.02272034,0.06167603,0.9978333,1.0,-0.03544617,0.08491516,0.9957428,-31.90004,7.51088,-26.38147,5.20018,0.5084279,0.2988124,1.0,0.07279968,0.04145813,0.9964752,35.31898,5.819565,-29.64928,4.84108,0.3968839,0.3849775,0.03272355,1.235214,-0.03455102,-0.006740448,0.0111151,-0.01540071,2.595474,-44.16732,33.49
3,0.02394104,0.06208801,0.9977722,1.0,-0.03607178,0.08598328,0.995636,-31.90269,7.514511,-26.39915,5.207336,0.5086277,0.2986413,1.0,0.07279968,0.04240417,0.9964294,35.31898,5.814209,-29.64644,4.844757,0.3968839,0.3849775,0.03274977,1.235221,-0.034549,-0.006842474,0.0111479,-0.01539442,2.595474,-44.16732,33.49
3,0.02575684,0.06091309,0.9978027,1.0,-0.03614807,0.08483887,0.9957275,-31.90326,7.516571,-26.40668,5.220306,0.5086597,0.2988124,1.0,0.07279968,0.04252625,0.9964294,35.31898,5.812332,-29.63933,4.872192,0.3968839,0.384968,0.03273928,1.235253,-0.03457344,-0.006929036,0.01121586,-0.01550533,2.595474,-44.16732,33.49
3,0.02575684,0.06091309,0.9978027,1.0,-0.03614807,0.08483887,0.9957275,-31.90326,7.516571,-26.40668,5.220306,0.5086597,0.2988124,1.0,0.07279968,0.04252625,0.9964294,35.31898,5.812332,-29.63933,4.872192,0.3968839,0.384968,0.03273928,1.235253,-0.03457344,-0.006929036,0.01121586,-0.01550533,2.595474,-44.16732,33.49
3,0.02438354,0.06126404,0.997818,1.0,-0.03689575,0.08399963,0.9957733,-31.90457,7.520844,-26.42244,5.23497,0.5088293,0.298925,1.0,0.07270813,0.0431366,0.9964142,35.31894,5.806854,-29.62204,4.886902,0.3969108,0.3849185,0.03266442,1.235304,-0.03455347,-0.007129366,0.0111846,-0.01569684,2.595474,-44.16732,33.49
3,0.02438354,0.06126404,0.997818,1.0,-0.03689575,0.08399963,0.9957733,-31.90457,7.520844,-26.42244,5.23497,0.5088293,0.298925,1.0,0.07270813,0.0431366,0.9964142,35.31894,5.806854,-29.62204,4.886902,0.3969108,0.3849185,0.03266442,1.235304,-0.03455347,-0.007129366,0.0111846,-0.01569684,2.595474,-44.16732,33.49
3,0.0168457,0.06266785,0.997879,1.0,-0.03753662,0.08328247,0.9958038,-31.90884,7.521469,-26.43056,5.259323,0.5090792,0.299086,1.0,0.07214355,0.04144287,0.996521,35.32008,5.804688,-29.5773,4.900253,0.3969969,0.3849185,0.03264916,1.235247,-0.03456306,-0.007203183,0.01118926,-0.01565834,2.595474,-44.16732,33.49
3,0.01225281,0.06347656,0.9978943,1.0,-0.03688049,0.08103943,0.9960175,-31.91365,7.521469,-26.43188,5.284286,0.5091271,0.2994785,1.0,0.07228088,0.04179382,0.9965057,35.32191,5.80452,-29.56635,4.942154,0.3969108,0.3847905,0.03260672,1.235242,-0.03452694,-0.007231056,0.01119924,-0.01585552,2.595474,-44.16732,33.49
3,0.01225281,0.06347656,0.9978943,1.0,-0.03688049,0.08103943,0.9960175,-31.91365,7.521469,-26.43188,5.284286,0.5091271,0.2994785,1.0,0.07228088,0.04179382,0.9965057,35.32191,5.80452,-29.56635,4.942154,0.3969108,0.3847905,0.03260672,1.235242,-0.03452694,-0.007231056,0.01119924,-0.01585552,2.595474,-44.16732,33.49
3,0.01225281,0.06347656,0.9978943,1.0,-0.03688049,0.08103943,0.9960175,-31.91365,7.521469,-26.43188,5.284286,0.5091271,0.2994785,1.0,0.07228088,0.04179382,0.9965057,35.32191,5.80452,-29.56635,4.942154,0.3969108,0.3847905,0.03260672,1.235242,-0.03452694,-0.007231056,0.01119924,-0.01585552,2.595474,-44.16732,33.49
3,0.01184082,0.06277466,0.9979553,1.0,-0.03677368,0.07850647,0.9962311,-31.91826,7.523178,-26.43503,5.295074,0.5092611,0.299875,1.0,0.07156372,0.04321289,0.9964905,35.32297,5.798691,-29.56082,4.967072,0.3969969,0.3847104,0.03259611,1.235269,-0.03450382,-0.007271129,0.01113988,-0.01587853,2.595474,-44.16732,33.49
3,0.01184082,0.06277466,0.9979553,1.0,-0.03677368,0.07850647,0.9962311,-31.91826,7.523178,-26.43503,5.295074,0.5092611,0.299875,1.0,0.07156372,0.04321289,0.9964905,35.32297,5.798691,-29.56082,4.967072,0.3969969,0.3847104,0.03259611,1.235269,-0.03450382,-0.007271129,0.01113988,-0.01587853,2.595474,-44.16732,33.49
3,0.01516724,0.06135559,0.9979858,1.0,-0.03709412,0.07769775,0.9962769,-31.91998,7.523178,-26.43915,5.300842,0.5093713,0.3000385,1.0,0.07119751,0.04362488,0.9965057,35.32651,5.796921,-29.56029,4.980103,0.3969367,0.3846981,0.03249586,1.235291,-0.0345822,-0.007437279,0.0110943,-0.01595156,2.595474,-44.16732,33.49
3,0.01657104,0.06167603,0.9979553,1.0,-0.0370636,0.0783844,0.9962311,-31.92009,7.522003,-26.43915,5.294937,0.5093713,0.2999589,1.0,0.07106018,0.04450989,0.9964752,35.32709,5.796509,-29.55971,4.981216,0.3969367,0.3845581,0.03249991,1.235179,-0.0345853,-0.007428257,0.01095441,-0.01605259,2.595474,-44.16732,33.49
3,0.01672363,0.06158447,0.9979553,1.0,-0.03796387,0.07804871,0.9962158,-31.92314,7.521469,-26.43915,5.295151,0.5096192,0.3000385,1.0,0.07081604,0.04508972,0.99646,35.32944,5.793793,-29.56029,4.984512,0.3968963,0.3845535,0.03245056,1.235097,-0.03446162,-0.00746328,0.01070467,-0.01597769,2.595474,-44.16732,33.49
3,0.01672363,0.06158447,0.9979553,1.0,-0.03796387,0.07804871,0.9962158,-31.92314,7.521469,-26.43915,5.295151,0.5096192,0.3000385,1.0,0.07081604,0.04508972,0.99646,35.32944,5.793793,-29.56029,4.984512,0.3968963,0.3845535,0.03245056,1.235097,-0.03446162,-0.00746328,0.01070467,-0.01597769,2.595474,-44.16732,33.49
3,0.01689148,0.06225586,0.9979095,1.0,-0.03765869,0.07826233,0.9962158,-31.92465,7.519867,-26.44,5.290985,0.5096192,0.3000678,1.0,0.07115173,0.04611206,0.9963837,35.33156,5.790817,-29.56427,4.996307,0.3967589,0.3845175,0.03235686,1.235065,-0.034428,-0.007331336,0.01049876,-0.01604702,2.595474,-44.16732,33.49
3,0.01689148,0.06225586,0.9979095,1.0,-0.03765869,0.07826233,0.9962158,-31.92465,7.519867,-26.44,5.290985,0.5096192,0.3000678,1.0,0.07115173,0.04611206,0.9963837,35.33156,5.790817,-29.56427,4.996307,0.3967589,0.3845175,0.03235686,1.235065,-0.034428,-0.007331336,0.01049876,-0.01604702,2.595474,-44.16732,33.49
3,0.01689148,0.06225586,0.9979095,1.0,-0.03765869,0.07826233,0.9962158,-31.92465,7.519867,-26.44,5.290985,0.5096192,0.3000678,1.0,0.07115173,0.04611206,0.9963837,35.33156,5.790817,-29.56427,4.996307,0.3967589,0.3845175,0.03226578,1.234982,-0.03440672,-0.00724341,0.01039606,-0.01604981,2.595474,17.43084,33.49
3,0.01689148,0.06225586,0.9979095,1.0,-0.03765869,0.07826233,0.9962158,-31.92465,7.519867,-26.44,5.290985,0.5096192,0.3000678,1.0,0.07115173,0.04611206,0.9963837,35.33156,5.790817,-29.56427,4.996307,0.3967589,0.3845175,0.03226578,1.234982,-0.03440672,-0.00724341,0.01039606,-0.01604981,2.595474,17.43084,33.49
3,0.01689148,0.06225586,0.9979095,1.0,-0.03765869,0.07826233,0.9962158,-31.92465,7.519867,-26.44,5.290985,0.5096192,0.3000678,1.0,0.07115173,0.04611206,0.9963837,35.33156,5.790817,-29.56427,4.996307,0.3967589,0.3845175,0.03218126,1.23495,-0.0343166,-0.007016654,0.01018099,-0.01589447,2.595474,17.43084,33.49
3,0.01689148,0.06225586,0.9979095,1.0,-0.03765869,0.07826233,0.9962158,-31.92465,7.519867,-26.44,5.290985,0.5096192,0.3000678,1.0,0.07115173,0.04611206,0.9963837,35.33156,5.790817,-29.56427,4.996307,0.3967589,0.3845175,0.03218126,1.23495,-0.0343166,-0.007016654,0.01018099,-0.01589447,2.595474,17.43084,33.49
3,0.01634216,0.06225586,0.9979248,1.0,-0.03796387,0.07826233,0.9962006,-31.92488,7.519867,-26.44104,5.295135,0.5096768,0.3000678,1.0,0.07096863,0.04594421,0.9964142,35.33238,5.792145,-29.56635,4.996246,0.3967589,0.3845175,0.03207779,1.234857,-0.03423536,-0.006770227,0.009930553,-0.01580799,2.595474,17.43084,33.49
3,0.01634216,0.06225586,0.9979248,1.0,-0.03796387,0.07826233,0.9962006,-31.92488,7.519867,-26.44104,5.295135,0.5096768,0.3000678,1.0,0.07096863,0.04594421,0.9964142,35.33238,5.792145,-29.56635,4.996246,0.3967589,0.3845175,0.03207779,1.234857,-0.03423536,-0.006770227,0.009930553,-0.01580799,2.595474,17.43084,33.49
3,0.0160675,0.06173706,0.9979553,1.0,-0.03747559,0.07814026,0.9962311,-31.92548,7.521866,-26.44695,5.290649,0.5096192,0.3000678,1.0,0.07055664,0.04481506,0.9964905,35.33246,5.796295,-29.57181,4.985428,0.3968264,0.3846069,0.03196847,1.234786,-0.03418565,-0.006483531,0.009846921,-0.01566358,2.595474,17.43084,33.49
3,0.0160675,0.06173706,0.9979553,1.0,-0.03747559,0.07814026,0.9962311,-31.92548,7.521866,-26.44695,5.290649,0.5096192,0.3000678,1.0,0.07055664,0.04481506,0.9964905,35.33246,5.796295,-29.57181,4.985428,0.3968264,0.3846069,0.03196847,1.234786,-0.03418565,-0.006483531,0.009846921,-0.01566358,2.595474,17.43084,33.49
3,0.01696777,0.06185913,0.9979248,1.0,-0.0375824,0.07801819,0.9962311,-31.92993,7.522003,-26.44824,5.288483,0.509787,0.3000909,1.0,0.07064819,0.04576111,0.9964447,35.33246,5.796295,-29.58548,5.00766,0.3967988,0.3845724,0.03196871,1.234753,-0.03411174,-0.006378101,0.009501117,-0.01559923,2.595474,17.43084,33.49
3,0.01696777,0.06185913,0.9979248,1.0,-0.0375824,0.07801819,0.9962311,-31.92993,7.522003,-26.44824,5.288483,0.509787,0.3000909,1.0,0.07064819,0.04576111,0.9964447,35.33246,5.796295,-29.58548,5.00766,0.3967988,0.3845724,0.03196871,1.234753,-0.03411174,-0.006378101,0.009501117,-0.01559923,2.595474,17.43084,33.49
3,0.01472473,0.06123352,0.9980011,1.0,-0.03649902,0.07627869,0.9964142,-31.93655,7.526672,-26.44728,5.279678,0.5098295,0.3002175,1.0,0.07102966,0.04447937,0.9964752,35.32724,5.80513,-29.60098,4.984146,0.3969094,0.3846069,0.03192818,1.234685,-0.03402972,-0.006200403,0.009461828,-0.0157106,2.595474,17.43084,33.49
3,0.01472473,0.06123352,0.9980011,1.0,-0.03649902,0.07627869,0.9964142,-31.93655,7.526672,-26.44728,5.279678,0.5098295,0.3002175,1.0,0.07102966,0.04447937,0.9964752,35.32724,5.80513,-29.60098,4.984146,0.3969094,0.3846069,0.03192818,1.234685,-0.03402972,-0.006200403,0.009461828,-0.0157106,2.595474,17.43084,33.49
3,0.0153656,0.06033325,0.9980469,1.0,-0.0357666,0.07580566,0.9964752,-31.94179,7.528214,-26.444,5.274185,0.509882,0.3002175,1.0,0.07133484,0.04318237,0.9965057,35.32555,5.811493,-29.60098,4.982483,0.3969161,0.3846069,0.03188443,1.234594,-0.03398538,-0.005921354,0.009274934,-0.01559206,2.595474,36.0401,33.49
3,0.0153656,0.06033325,0.9980469,1.0,-0.0357666,0.07580566,0.9964752,-31.94179,7.528214,-26.444,5.274185,0.509882,0.3002175,1.0,0.07133484,0.04318237,0.9965057,35.32555,5.811493,-29.60098,4.982483,0.3969161,0.3846069,0.03188443,1.234594,-0.03398538,-0.005921354,0.009274934,-0.01559206,2.595474,36.0401,33.49
3,0.01452637,0.05978394,0.9980927,1.0,-0.03659058,0.07676697,0.9963684,-31.94513,7.529373,-26.44292,5.255966,0.5101322,0.3000095,1.0,0.06700134,0.04217529,0.9968567,35.32288,5.811493,-29.60098,4.969193,0.3977611,0.3847765,0.03183198,1.234495,-0.03395402,-0.005615234,0.009230646,-0.01555714,2.595474,36.0401,33.49
3,0.01452637,0.05978394,0.9980927,1.0,-0.03659058,0.07676697,0.9963684,-31.94513,7.529373,-26.44292,5.255966,0.5101322,0.3000095,1.0,0.06700134,0.04217529,0.9968567,35.32288,5.811493,-29.60098,4.969193,0.3977611,0.3847765,0.03183198,1.234495,-0.03395402,-0.005615234,0.009230646,-0.01555714,2.595474,36.0401,33.49
3,0.01481628,0.05984497,0.9980927,1.0,-0.03820801,0.07785034,0.9962311,-31.94785,7.529602,-26.43137,5.237808,0.5104863,0.2997322,1.0,0.06713867,0.04188538,0.9968567,35.32088,5.811493,-29.59424,4.963486,0.3978129,0.3847765,0.0317595,1.234494,-0.03389621,-0.005460515,0.009058736,-0.01563596,2.595474,36.0401,33.49
3,0.01481628,0.05984497,0.9980927,1.0,-0.03820801,0.07785034,0.9962311,-31.94785,7.529602,-26.43137,5.237808,0.5104863,0.2997322,1.0,0.06713867,0.04188538,0.9968567,35.32088,5.811493,-29.59424,4.963486,0.3978129,0.3847765,0.0317595,1.234494,-0.03389621,-0.005460515,0.009058736,-0.01563596,2.595474,36.0401,33.49
3,0.01365662,0.06031799,0.9980774,1.0,-0.03726196,0.07948303,0.9961243,-31.95135,7.531052,-26.43137,5.237991,0.5104493,0.2994063,1.0,0.06758118,0.03981018,0.9969177,35.3188,5.811157,-29.55046,4.959671,0.3978375,0.3847765,0.03177917,1.234473,-0.03379202,-0.005419427,0.00897113,-0.01550677,2.595474,36.0401,33.49
3,0.01365662,0.06031799,0.9980774,1.0,-0.03726196,0.07948303,0.9961243,-31.95135,7.531052,-26.43137,5.237991,0.5104493,0.2994063,1.0,0.06758118,0.03981018,0.9969177,35.3188,5.811157,-29.55046,4.959671,0.3978375,0.3847765,0.03177917,1.234473,-0.03379202,-0.005419427,0.00897113,-0.01550677,2.595474,36.0401,33.49
3,0.006561279,0.06367493,0.9979401,1.0,-0.03808594,0.08079529,0.9960022,-31.95329,7.531769,-26.43137,5.237885,0.5106515,0.2991615,1.0,0.06677246,0.0403595,0.9969482,35.31874,5.805588,-29.52623,4.945877,0.3980002,0.3846667,0.03173256,1.234454,-0.03374279,-0.005281569,0.008789063,-0.01560018,2.595474,36.0401,33.49
3,0.006561279,0.06367493,0.9979401,1.0,-0.03808594,0.08079529,0.9960022,-31.95329,7.531769,-26.43137,5.237885,0.5106515,0.2991615,1.0,0.06677246,0.0403595,0.9969482,35.31874,5.805588,-29.52623,4.945877,0.3980002,0.3846667,0.03173256,1.234454,-0.03374279,-0.005281569,0.008789063,-0.01560018,2.595474,36.0401,33.49
3,0.00440979,0.06350708,0.9979706,1.0,-0.03770447,0.07885742,0.99617,-31.9557,7.541199,-26.43137,5.234238,0.5106708,0.2991615,1.0,0.06735229,0.04031372,0.9969025,35.31816,5.803726,-29.48642,4.937195,0.3979474,0.3844089,0.03173339,1.234351,-0.03376555,-0.005214846,0.008585805,-0.01577543,2.595474,36.0401,33.49
3,0.00440979,0.06350708,0.9979706,1.0,-0.03770447,0.07885742,0.99617,-31.9557,7.541199,-26.43137,5.234238,0.5106708,0.2991615,1.0,0.06735229,0.04031372,0.9969025,35.31816,5.803726,-29.48642,4.937195,0.3979474,0.3844089,0.03173339,1.234351,-0.03376555,-0.005214846,0.008585805,-0.01577543,2.595474,36.0401,33.49
3,0.002334595,0.0650177,0.997879,1.0,-0.03741455,0.07949829,0.9961243,-31.9588,7.551132,-26.42891,5.224457,0.5107298,0.2986915,1.0,0.0675354,0.04103088,0.9968719,35.31816,5.802567,-29.44775,4.909103,0.3979474,0.3839867,0.03167653,1.234322,-0.03361088,-0.005161713,0.008372281,-0.01559827,2.595474,36.0401,33.49
3,0.002334595,0.0650177,0.997879,1.0,-0.03741455,0.07949829,0.9961243,-31.9588,7.551132,-26.42891,5.224457,0.5107298,0.2986915,1.0,0.0675354,0.04103088,0.9968719,35.31816,5.802567,-29.44775,4.909103,0.3979474,0.3839867,0.03167653,1.234322,-0.03361088,-0.005161713,0.008372281,-0.01559827,2.595474,36.0401,33.49
3,0.003341675,0.06616211,0.9978027,1.0,-0.03729248,0.08164978,0.9959564,-31.95953,7.553619,-26.42891,5.236526,0.5107389,0.2982447,1.0,0.06764221,0.04139709,0.9968414,35.31816,5.799515,-29.41574,4.927658,0.3979474,0.38378,0.03154063,1.23436,-0.03349054,-0.005231963,0.008238615,-0.01588087,2.595474,36.0401,33.49
3,0.003341675,0.06616211,0.9978027,1.0,-0.03729248,0.08164978,0.9959564,-31.95953,7.553619,-26.42891,5.236526,0.5107389,0.2982447,1.0,0.06764221,0.04139709,0.9968414,35.31816,5.799515,-29.41574,4.927658,0.3979474,0.38378,0.03154063,1.23436,-0.03349054,-0.005231963,0.008238615,-0.01588087,2.595474,36.0401,33.49
3,0.006469727,0.06440735,0.9978943,1.0,-0.03985596,0.08166504,0.9958496,-31.95975,7.555435,-26.4269,5.234268,0.5111635,0.2981545,1.0,0.06777954,0.04130554,0.9968414,35.31769,5.798676,-29.41226,4.907898,0.3979474,0.38378,0.03144443,1.234344,-0.03341663,-0.004981007,0.008022351,-0.01615991,2.595474,38.06293,33.49
3,0.006469727,0.06440735,0.9978943,1.0,-0.03985596,0.08166504,0.9958496,-31.95975,7.555435,-26.4269,5.234268,0.5111635,0.2981545,1.0,0.06777954,0.04130554,0.9968414,35.31769,5.798676,-29.41226,4.907898,0.3979474,0.38378,0.03144443,1.234344,-0.03341663,-0.004981007,0.008022351,-0.01615991,2.595474,38.06293,33.49
3,0.01060486,0.06283569,0.9979553,1.0,-0.04090881,0.08070374,0.9958954,-31.96019,7.555435,-26.41544,5.234055,0.5113459,0.2982447,1.0,0.06729126,0.04296875,0.9967957,35.31651,5.798676,-29.41014,4.907104,0.3980704,0.3834758,0.03137469,1.234327,-0.03348875,-0.004748206,0.007913887,-0.01582636,2.595474,38.06293,33.49
3,0.01060486,0.06283569,0.9979553,1.0,-0.04090881,0.08070374,0.9958954,-31.96019,7.555435,-26.41544,5.234055,0.5113459,0.2982447,1.0,0.06729126,0.04296875,0.9967957,35.31651,5.798676,-29.41014,4.907104,0.3980704,0.3834758,0.03137469,1.234327,-0.03348875,-0.004748206,0.007913887,-0.01582636,2.595474,38.06293,33.49
4,0.01573181,0.05867004,0.9981384,1.0,-0.04273987,0.07902527,0.9959412,-31.96109,7.551132,-26.35832,5.245758,0.5116575,0.2982447,1.0,0.0670166,0.0406189,0.9969177,35.31723,5.800385,-29.41574,4.918427,0.3980906,0.3838664,0.03133786,1.234375,-0.03355014,-0.00481211,0.007562451,-0.01578535,2.595474,38.06293,33.49
4,0.01573181,0.05867004,0.9981384,1.0,-0.04273987,0.07902527,0.9959412,-31.96109,7.551132,-26.35832,5.245758,0.5116575,0.2982447,1.0,0.0670166,0.0406189,0.9969177,35.31723,5.800385,-29.41574,4.918427,0.3980906,0.3838664,0.03133786,1.234375,-0.03355014,-0.00481211,0.007562451,-0.01578535,2.595474,38.06293,33.49
4,0.02500916,0.05526733,0.9981537,1.0,-0.0435791,0.07891846,0.9959259,-31.96153,7.535431,-26.27361,5.254547,0.5117782,0.2981877,1.0,0.06671143,0.04071045,0.996933,35.31613,5.806854,-29.44435,4.917007,0.3981624,0.3838664,0.03132343,1.234411,-0.03356808,-0.004893482,0.007541733,-0.01581411,2.595474,38.06293,33.49
4,0.02500916,0.05526733,0.9981537,1.0,-0.0435791,0.07891846,0.9959259,-31.96153,7.535431,-26.27361,5.254547,0.5117782,0.2981877,1.0,0.06671143,0.04071045,0.996933,35.31613,5.806854,-29.44435,4.917007,0.3981624,0.3838664,0.03132343,1.234411,-0.03356808,-0.004893482,0.007541733,-0.01581411,2.595474,38.06293,33.49
4,0.03091431,0.05323792,0.9980927,1.0,-0.04350281,0.07868958,0.9959412,-31.9622,7.530533,-26.24353,5.262161,0.5117782,0.2981877,1.0,0.06660461,0.04089355,0.996933,35.31583,5.809921,-29.46022,4.916382,0.3981815,0.3838664,0.03124404,1.234383,-0.03360343,-0.005022715,0.007266005,-0.01566738,2.595474,38.06293,33.49
4,0.03091431,0.05323792,0.9980927,1.0,-0.04350281,0.07868958,0.9959412,-31.9622,7.530533,-26.24353,5.262161,0.5117782,0.2981877,1.0,0.06660461,0.04089355,0.996933,35.31583,5.809921,-29.46022,4.916382,0.3981815,0.3838664,0.03124404,1.234383,-0.03360343,-0.005022715,0.007266005,-0.01566738,2.595474,38.06293,33.49
4,0.02764893,0.05540466,0.9980774,1.0,-0.04386902,0.07867432,0.9959259,-31.96336,7.529007,-26.23524,5.267593,0.5118732,0.2981877,1.0,0.06587219,0.04281616,0.9969025,35.31506,5.813049,-29.46681,4.907822,0.3983264,0.3834736,0.03118265,1.234372,-0.03363168,-0.005116771,0.007208353,-0.01574423,2.595474,38.06293,33.49
4,0.02764893,0.05540466,0.9980774,1.0,-0.04386902,0.07867432,0.9959259,-31.96336,7.529007,-26.23524,5.267593,0.5118732,0.2981877,1.0,0.06587219,0.04281616,0.9969025,35.31506,5.813049,-29.46681,4.907822,0.3983264,0.3834736,0.03118265,1.234372,-0.03363168,-0.005116771,0.007208353,-0.01574423,2.595474,38.06293,33.49
4,0.01707458,0.05860901,0.9981232,1.0,-0.04640198,0.07862854,0.9958191,-31.96382,7.527954,-26.22887,5.270172,0.5122974,0.2981877,1.0,0.06637573,0.04286194,0.9968719,35.31221,5.814774,-29.47485,4.916153,0.3983337,0.3834736,0.03112304,1.234364,-0.03372067,-0.005030126,0.007006028,-0.01584377,2.595474,38.06293,33.49
4,0.01707458,0.05860901,0.9981232,1.0,-0.04640198,0.07862854,0.9958191,-31.96382,7.527954,-26.22887,5.270172,0.5122974,0.2981877,1.0,0.06637573,0.04286194,0.9968719,35.31221,5.814774,-29.47485,4.916153,0.3983337,0.3834736,0.03112066,1.234363,-0.03375077,-0.005068491,0.00687723,-0.01581741,2.595474,38.06293,33.49
4,0.01707458,0.05860901,0.9981232,1.0,-0.04640198,0.07862854,0.9958191,-31.96382,7.527954,-26.22887,5.270172,0.5122974,0.2981877,1.0,0.06637573,0.04286194,0.9968719,35.31221,5.814774,-29.47485,4.916153,0.3983337,0.3834736,0.03112066,1.234363,-0.03375077,-0.005068491,0.00687723,-0.01581741,2.595474,38.06293,33.49
4,0.01707458,0.05860901,0.9981232,1.0,-0.04640198,0.07862854,0.9958191,-31.96382,7.527954,-26.22887,5.270172,0.5122974,0.2981877,1.0,0.06637573,0.04286194,0.9968719,35.31221,5.814774,-29.47485,4.916153,0.3983337,0.3834736,0.03112304,1.234333,-0.03381073,-0.005270272,0.006796588,-0.01586726,2.595474,5.003323,33.49
4,0.01707458,0.05860901,0.9981232,1.0,-0.04640198,0.07862854,0.9958191,-31.96382,7.527954,-26.22887,5.270172,0.5122974,0.2981877,1.0,0.06637573,0.04286194,0.9968719,35.31221,5.814774,-29.47485,4.916153,0.3983337,0.3834736,0.03112304,1.234333,-0.03381073,-0.005270272,0.006796588,-0.01586726,2.595474,5.003323,33.49
4,0.01707458,0.05860901,0.9981232,1.0,-0.04640198,0.07862854,0.9958191,-31.96382,7.527954,-26.22887,5.270172,0.5122974,0.2981877,1.0,0.06637573,0.04286194,0.9968719,35.31221,5.814774,-29.47485,4.916153,0.3983337,0.3834736,0.03115809,1.23436,-0.03386772,-0.00544001,0.006679378,-0.01605863,2.595474,5.003323,33.49
4,0.008621216,0.0614624,0.9980621,1.0,-0.04771423,0.07966614,0.9956665,-31.96935,7.529007,-26.22484,5.277557,0.5126972,0.2979531,1.0,0.06698608,0.0423584,0.9968414,35.30524,5.819504,-29.48314,4.918427,0.398466,0.3834736,0.0311712,1.234334,-0.03384566,-0.005617888,0.006657031,-0.01622112,2.595474,5.003323,33.49
4,0.007537842,0.06207275,0.9980316,1.0,-0.04811096,0.07992554,0.995636,-31.97008,7.529465,-26.22484,5.295105,0.5127882,0.297894,1.0,0.06726074,0.04266357,0.9968109,35.30315,5.831223,-29.52431,4.9216,0.3984679,0.383367,0.03119242,1.234336,-0.03385615,-0.00560461,0.006712758,-0.01631912,2.595474,5.003323,33.49
4,0.007537842,0.06207275,0.9980316,1.0,-0.04811096,0.07992554,0.995636,-31.97008,7.529465,-26.22484,5.295105,0.5127882,0.297894,1.0,0.06726074,0.04266357,0.9968109,35.30315,5.831223,-29.52431,4.9216,0.3984679,0.383367,0.03119242,1.234336,-0.03385615,-0.00560461,0.006712758,-0.01631912,2.595474,5.003323,33.49
4,-0.0002288818,0.06454468,0.9979095,1.0,-0.05007935,0.07958984,0.9955597,-31.97095,7.529465,-26.22484,5.304947,0.5131368,0.2979531,1.0,0.06393433,0.04492188,0.996933,35.30154,5.832245,-29.54234,4.925385,0.3990782,0.3830866,0.03124702,1.234278,-0.0338366,-0.005707359,0.006750389,-0.01623214,2.595474,5.003323,33.49
4,-0.002059937,0.06523132,0.9978638,1.0,-0.05052185,0.07997131,0.9955139,-31.97099,7.529465,-26.22484,5.315292,0.5132109,0.297894,1.0,0.06439209,0.04473877,0.9969177,35.29797,5.833435,-29.54308,4.925186,0.3991244,0.3830866,0.03127635,1.234275,-0.03383809,-0.00569952,0.006708316,-0.01627614,2.595474,5.003323,33.49
4,-0.002059937,0.06523132,0.9978638,1.0,-0.05052185,0.07997131,0.9955139,-31.97099,7.529465,-26.22484,5.315292,0.5132109,0.297894,1.0,0.06439209,0.04473877,0.9969177,35.29797,5.833435,-29.54308,4.925186,0.3991244,0.3830866,0.03127635,1.234275,-0.03383809,-0.00569952,0.006708316,-0.01627614,2.595474,5.003323,33.49
4,-0.002059937,0.06523132,0.9978638,1.0,-0.05052185,0.07997131,0.9955139,-31.97099,7.529465,-26.22484,5.315292,0.5132109,0.297894,1.0,0.06439209,0.04473877,0.9969177,35.29797,5.833435,-29.54308,4.925186,0.3991244,0.3830866,0.03135908,1.234223,-0.03378105,-0.005673315,0.006787812,-0.0165872,2.595474,5.003323,33.49
4,-0.002059937,0.06523132,0.9978638,1.0,-0.05052185,0.07997131,0.9955139,-31.97099,7.529465,-26.22484,5.315292,0.5132109,0.297894,1.0,0.06439209,0.04473877,0.9969177,35.29797,5.833435,-29.54308,4.925186,0.3991244,0.3830866,0.03140378,1.23418,-0.03375757,-0.005641709,0.006931186,-0.01659618,2.595474,5.003323,33.49
4,-0.002059937,0.06523132,0.9978638,1.0,-0.05052185,0.07997131,0.9955139,-31.97099,7.529465,-26.22484,5.315292,0.5132109,0.297894,1.0,0.06439209,0.04473877,0.9969177,35.29797,5.833435,-29.54308,4.925186,0.3991244,0.3830866,0.03142083,1.234232,-0.03373057,-0.005569939,0.007061111,-0.01653411,2.595474,5.003323,33.49
4,-0.0006103516,0.0652771,0.9978638,1.0,-0.04896545,0.0789032,0.9956665,-31.9807,7.531143,-26.23347,5.321854,0.5132816,0.2980803,1.0,0.06555176,0.04634094,0.9967651,35.29007,5.833435,-29.54308,4.952759,0.3991959,0.3828201,0.03151834,1.234232,-0.03368562,-0.005497232,0.007094795,-0.01652239,2.595474,5.003323,33.49
4,-0.0006103516,0.0652771,0.9978638,1.0,-0.04896545,0.0789032,0.9956665,-31.9807,7.531143,-26.23347,5.321854,0.5132816,0.2980803,1.0,0.06555176,0.04634094,0.9967651,35.29007,5.833435,-29.54308,4.952759,0.3991959,0.3828201,0.03151834,1.234232,-0.03368562,-0.005497232,0.007094795,-0.01652239,2.595474,5.003323,33.49
4,0.00402832,0.06454468,0.9978943,1.0,-0.05014038,0.07951355,0.9955597,-31.98409,7.531891,-26.25114,5.345184,0.5135929,0.2980803,1.0,0.06625366,0.04708862,0.9966888,35.28865,5.833435,-29.54308,4.953751,0.3991244,0.3826937,0.03158283,1.23419,-0.03362751,-0.005559227,0.007178315,-0.0164709,2.595474,5.003323,33.49
4,0.01416016,0.06263733,0.9979248,1.0,-0.04983521,0.08067322,0.9954834,-31.98611,7.532516,-26.28131,5.440689,0.51362,0.2980803,1.0,0.06648254,0.04768372,0.9966431,35.28723,5.831879,-29.54234,5.000839,0.3991244,0.3826607,0.03162158,1.234219,-0.03366947,-0.005449588,0.007187651,-0.01660381,2.595474,5.003323,33.49
4,0.01416016,0.06263733,0.9979248,1.0,-0.04983521,0.08067322,0.9954834,-31.98611,7.532516,-26.28131,5.440689,0.51362,0.2980803,1.0,0.06648254,0.04768372,0.9966431,35.28723,5.831879,-29.54234,5.000839,0.3991244,0.3826607,0.03162158,1.234219,-0.03366947,-0.005449588,0.007187651,-0.01660381,2.595474,5.003323,33.49
4,-0.04489136,0.07939148,0.9958191,1.0,-0.05058289,0.08070374,0.9954376,-31.98705,7.532562,-26.28142,5.445984,0.5137713,0.2980803,1.0,0.07196045,0.05174255,0.9960632,35.27345,5.609055,-28.76164,5.040878,0.3991244,0.383146,0.03175724,1.23421,-0.03371191,-0.005568601,0.007282392,-0.01690971,2.595474,-41.51477,33.49
4,-0.050354,0.08067322,0.9954529,1.0,-0.05053711,0.08071899,0.9954529,-31.98726,7.532562,-26.28142,5.457718,0.5137713,0.2980803,1.0,0.07200623,0.05220032,0.9960327,35.27345,5.607788,-28.75014,5.072784,0.3991822,0.383146,0.03181136,1.234208,-0.03370261,-0.005532358,0.007332353,-0.01712381,2.595474,-41.51477,33.49
4,-0.050354,0.08067322,0.9954529,1.0,-0.05053711,0.08071899,0.9954529,-31.98726,7.532562,-26.28142,5.457718,0.5137713,0.2980803,1.0,0.07200623,0.05220032,0.9960327,35.27345,5.607788,-28.75014,5.072784,0.3991822,0.383146,0.03187251,1.234191,-0.03375804,-0.005531011,0.00745229,-0.01742017,2.595474,-41.51477,33.49
4,-0.050354,0.08067322,0.9954529,1.0,-0.05053711,0.08071899,0.9954529,-31.98726,7.532562,-26.28142,5.457718,0.5137713,0.2980803,1.0,0.07200623,0.05220032,0.9960327,35.27345,5.607788,-28.75014,5.072784,0.3991822,0.383146,0.03187251,1.234191,-0.03375804,-0.005531011,0.00745229,-0.01742017,2.595474,-41.51477,33.49
4,-0.050354,0.08067322,0.9954529,1.0,-0.05053711,0.08071899,0.9954529,-31.98726,7.532562,-26.28142,5.457718,0.5137713,0.2980803,1.0,0.07200623,0.05220032,0.9960327,35.27345,5.607788,-28.75014,5.072784,0.3991822,0.383146,0.03201997,1.234114,-0.03378606,-0.005584633,0.00752591,-0.01762342,2.581381,-41.51477,33.49
4,-0.0506134,0.07991028,0.9955139,1.0,-0.05062866,0.07991028,0.9955139,-31.99069,7.532562,-26.28142,5.459381,0.5138988,0.2982201,1.0,0.07254028,0.05308533,0.9959412,35.27345,5.598038,-28.68927,5.100403,0.3991244,0.3828307,0.03208435,1.234129,-0.03377712,-0.005545809,0.007576231,-0.01773006,2.572413,-41.51477,33.49
4,-0.0506134,0.07991028,0.9955139,1.0,-0.05062866,0.07991028,0.9955139,-31.99069,7.532562,-26.28142,5.459381,0.5138988,0.2982201,1.0,0.07254028,0.05308533,0.9959412,35.27345,5.598038,-28.68927,5.100403,0.3991244,0.3828307,0.03208435,1.234129,-0.03377712,-0.005545809,0.007576231,-0.01773006,2.572413,-41.51477,33.49
4,-0.0506134,0.07991028,0.9955139,1.0,-0.05062866,0.07991028,0.9955139,-31.99069,7.532562,-26.28142,5.459381,0.5138988,0.2982201,1.0,0.07254028,0.05308533,0.9959412,35.27345,5.598038,-28.68927,5.100403,0.3991244,0.3828307,0.03212881,1.234133,-0.03379321,-0.00561258,0.007776176,-0.01805981,2.572413,-41.51477,33.49
4,-0.0506134,0.07991028,0.9955139,1.0,-0.05062866,0.07991028,0.9955139,-31.99069,7.532562,-26.28142,5.459381,0.5138988,0.2982201,1.0,0.07254028,0.05308533,0.9959412,35.27345,5.598038,-28.68927,5.100403,0.3991244,0.3828307,0.03215683,1.234123,-0.03380495,-0.005607268,0.007768507,-0.01830159,2.572413,-41.51477,33.49
4,-0.0506134,0.07991028,0.9955139,1.0,-0.05062866,0.07991028,0.9955139,-31.99069,7.532562,-26.28142,5.459381,0.5138988,0.2982201,1.0,0.07254028,0.05308533,0.9959412,35.27345,5.598038,-28.68927,5.100403,0.3991244,0.3828307,0.03219783,1.234149,-0.03381217,-0.005694289,0.008060339,-0.01835119,2.572413,-41.51477,33.49
4,-0.0506134,0.07991028,0.9955139,1.0,-0.05062866,0.07991028,0.9955139,-31.99069,7.532562,-26.28142,5.459381,0.5138988,0.2982201,1.0,0.07254028,0.05308533,0.9959412,35.27345,5.598038,-28.68927,5.100403,0.3991244,0.3828307,0.03219783,1.234149,-0.03381217,-0.005694289,0.008060339,-0.01835119,2.572413,-41.51477,33.49
4,-0.0506134,0.07991028,0.9955139,1.0,-0.05062866,0.07991028,0.9955139,-31.99069,7.532562,-26.28142,5.459381,0.5138988,0.2982201,1.0,0.07254028,0.05308533,0.9959412,35.27345,5.598038,-28.68927,5.100403,0.3991244,0.3828307,0.03219783,1.234149,-0.03381217,-0.005694289,0.008060339,-0.01835119,2.572413,-41.51477,33.49
4,-0.05244446,0.08374023,0.9951019,1.0,-0.05244446,0.08374023,0.9951019,-31.98189,7.54512,-26.33351,5.553085,0.5139259,0.2975311,1.0,0.0645752,0.03689575,0.9972229,35.33919,5.857391,-29.60115,5.315216,0.3975522,0.3842148,0.03229582,1.234185,-0.03377533,-0.00574898,0.008126619,-0.01829834,2.572413,-41.51477,33.49
4,-0.05184937,0.09103394,0.9944916,1.0,-0.05184937,0.09103394,0.9944916,-31.98366,7.563339,-26.39427,5.578354,0.5139259,0.2961141,1.0,0.06207275,0.03645325,0.9973907,35.34245,5.85025,-29.56546,5.308914,0.3978823,0.3842148,0.0323056,1.234153,-0.03383505,-0.005892343,0.008124785,-0.01832763,2.572413,-41.51477,33.49
4,-0.05184937,0.09103394,0.9944916,1.0,-0.05184937,0.09103394,0.9944916,-31.98366,7.563339,-26.39427,5.578354,0.5139259,0.2961141,1.0,0.06207275,0.03645325,0.9973907,35.34245,5.85025,-29.56546,5.308914,0.3978823,0.3842148,0.0323056,1.234153,-0.03383505,-0.005892343,0.008124785,-0.01832763,2.572413,-41.51477,33.49
4,-0.04702759,0.08985901,0.9948273,1.0,-0.04704285,0.08985901,0.9948273,-31.98235,7.574493,-26.42181,5.575073,0.5131068,0.2961141,1.0,0.06219482,0.03517151,0.9974365,35.34441,5.844772,-29.5181,5.273849,0.3978319,0.3842148,0.03229558,1.23413,-0.03383553,-0.005796733,0.008153164,-0.01831665,2.572413,-52.40511,33.49
4,-0.04589844,0.09223938,0.9946747,1.0,-0.04602051,0.09230042,0.9946594,-31.98366,7.576248,-26.42519,5.591782,0.5129918,0.2956531,1.0,0.0632019,0.0353241,0.9973602,35.3476,5.843124,-29.51445,5.274048,0.3975522,0.3842148,0.03229558,1.23413,-0.03383553,-0.005796733,0.008153164,-0.01831665,2.572413,-52.40511,33.49
4,-0.04589844,0.09223938,0.9946747,1.0,-0.04602051,0.09230042,0.9946594,-31.98366,7.576248,-26.42519,5.591782,0.5129918,0.2956531,1.0,0.0632019,0.0353241,0.9973602,35.3476,5.843124,-29.51445,5.274048,0.3975522,0.3842148,0.03229558,1.23413,-0.03383553,-0.005796733,0.008153164,-0.01831665,2.572413,-52.40511,33.49
4,0.04598999,0.04115295,0.9980927,1.0,-0.04298401,0.07592773,0.99617,-32.00214,7.730881,-26.71774,5.667068,0.513215,0.295168,1.0,0.06321716,0.03436279,0.997406,35.3476,5.842743,-29.51257,5.272247,0.3975522,0.3843843,0.03222156,1.234086,-0.03383374,-0.005899925,0.00816321,-0.01816675,2.572413,-52.40511,33.49
4,0.05955505,0.03631592,0.9975586,1.0,-0.04519653,0.06980896,0.996521,-32.0049,7.743149,-26.71774,5.650009,0.5136624,0.2957615,1.0,0.06387329,0.03492737,0.997345,35.34441,5.842667,-29.51242,5.274094,0.3975522,0.3842892,0.0322293,1.234111,-0.03378558,-0.00582622,0.007995373,-0.01824288,2.572413,-52.40511,33.49
4,0.0592804,0.0352478,0.9976044,1.0,-0.04411316,0.0693512,0.9966125,-32.01015,7.744324,-26.71774,5.625198,0.5136624,0.2957961,1.0,0.0635376,0.03382874,0.9973907,35.34441,5.842667,-29.48079,5.275238,0.3976295,0.3842148,0.03217471,1.234099,-0.03383756,-0.005976461,0.007910118,-0.01821386,2.572413,-52.40511,33.49
4,0.0592804,0.0352478,0.9976044,1.0,-0.04411316,0.0693512,0.9966125,-32.01015,7.744324,-26.71774,5.625198,0.5136624,0.2957961,1.0,0.0635376,0.03382874,0.9973907,35.34441,5.842667,-29.48079,5.275238,0.3976295,0.3842148,0.03217471,1.234099,-0.03383756,-0.005976461,0.007910118,-0.01821386,2.572413,-52.40511,33.49
4,-0.03111267,0.05075073,0.9982147,1.0,-0.03436279,0.05210876,0.9980469,-32.02292,7.781219,-26.66551,5.516129,0.5124508,0.2971703,1.0,0.06344604,0.01101685,0.9979095,35.37775,5.794403,-29.14598,5.250671,0.3967863,0.3870956,0.03206956,1.234174,-0.0338062,-0.005992645,0.007701079,-0.01814049,2.572413,-52.40511,33.49
4,-0.03111267,0.05075073,0.9982147,1.0,-0.03436279,0.05210876,0.9980469,-32.02292,7.781219,-26.66551,5.516129,0.5124508,0.2971703,1.0,0.06344604,0.01101685,0.9979095,35.37775,5.794403,-29.14598,5.250671,0.3967863,0.3870956,0.03206956,1.234174,-0.0338062,-0.005992645,0.007701079,-0.01814049,2.572413,-52.40511,33.49
4,-1.0,-1.0,-1.0,0.9929705,0.0,0.0,0.0,-32.06186,7.807953,-26.3278,-1.0,0.5128575,0.3039844,0.9933403,0.0,0.0,0.0,35.35654,5.746552,-28.51921,-1.0,0.3993985,0.3832321,0.03196514,1.234153,-0.03381318,-0.006052029,0.007459285,-0.01803586,2.572413,-52.40511,33.49
4,-1.0,-1.0,-1.0,0.9929705,0.0,0.0,0.0,-32.06186,7.807953,-26.3278,-1.0,0.5128575,0.3039844,0.9933403,0.0,0.0,0.0,35.35654,5.746552,-28.51921,-1.0,0.3993985,0.3832321,0.03196514,1.234153,-0.03381318,-0.006052029,0.007459285,-0.01803586,2.572413,-52.40511,33.49
4,-1.0,-1.0,-1.0,0.5609201,0.0,0.0,0.0,-32.15872,8.032028,-26.21184,-1.0,0.516373,0.3123819,0.5863541,0.0,0.0,0.0,35.49283,5.400253,-25.62244,-1.0,0.4022315,0.4105843,0.03187847,1.234173,-0.03388512,-0.005995132,0.007301805,-0.01813884,2.572413,-52.40511,33.49
4,-1.0,-1.0,-1.0,0.5609201,0.0,0.0,0.0,-32.15872,8.032028,-26.21184,-1.0,0.516373,0.3123819,0.5863541,0.0,0.0,0.0,35.49283,5.400253,-25.62244,-1.0,0.4022315,0.4105843,0.03187847,1.234173,-0.03388512,-0.005995132,0.007301805,-0.01813884,2.572413,-52.40511,33.49
4,-1.0,-1.0,-1.0,0.4144531,0.0,0.0,0.0,-33.06367,5.777466,-27.03374,-1.0,-1.0,-1.0,0.2870172,0.0,0.0,0.0,34.73874,8.885635,-42.54434,-1.0,-1.0,-1.0,0.03187287,1.23413,-0.03390616,-0.006141241,0.00724341,-0.01793935,2.572413,-52.40511,33.49
4,-1.0,-1.0,-1.0,0.4144531,0.0,0.0,0.0,-33.06367,5.777466,-27.03374,-1.0,-1.0,-1.0,0.2870172,0.0,0.0,0.0,34.73874,8.885635,-42.54434,-1.0,-1.0,-1.0,0.03187287,1.23413,-0.03390616,-0.006141241,0.00724341,-0.01793935,2.572413,-52.40511,33.49
4,-1.0,-1.0,-1.0,0.2657513,0.0,0.0,0.0,-33.06367,5.777466,-27.03374,-1.0,-1.0,-1.0,0.1102081,0.0,0.0,0.0,34.73874,8.885635,-42.54434,-1.0,-1.0,-1.0,0.03186452,1.234174,-0.03394794,-0.006247091,0.007220746,-0.01790776,2.572413,30.62558,33.49
4,-1.0,-1.0,-1.0,0.2657513,0.0,0.0,0.0,-33.06367,5.777466,-27.03374,-1.0,-1.0,-1.0,0.1102081,0.0,0.0,0.0,34.73874,8.885635,-42.54434,-1.0,-1.0,-1.0,0.03186452,1.234174,-0.03394794,-0.006247091,0.007220746,-0.01790776,2.572413,30.62558,33.49
4,-1.0,-1.0,-1.0,0.228024,0.0,0.0,0.0,-33.06367,5.777466,-27.03374,-1.0,-1.0,-1.0,0.1772675,0.0,0.0,0.0,34.73874,8.885635,-42.54434,-1.0,-1.0,-1.0,0.03189385,1.234168,-0.03395092,-0.006540737,0.007239294,-0.018122,2.572413,30.62558,33.49
4,-1.0,-1.0,-1.0,0.228024,0.0,0.0,0.0,-33.06367,5.777466,-27.03374,-1.0,-1.0,-1.0,0.1772675,0.0,0.0,0.0,34.73874,8.885635,-42.54434,-1.0,-1.0,-1.0,0.03189385,1.234168,-0.03395092,-0.006540737,0.007239294,-0.018122,2.572413,30.62558,33.49
4,-1.0,-1.0,-1.0,0.3454316,0.0,0.0,0.0,-32.21883,7.66803,-24.20543,-1.0,0.5215374,0.3225433,0.3287558,0.0,0.0,0.0,35.06294,8.757523,-43.82709,-1.0,0.4058289,0.4174091,0.03192246,1.234161,-0.03393686,-0.006580485,0.00735062,-0.01809854,2.572413,30.62558,33.49
4,-1.0,-1.0,-1.0,0.3454316,0.0,0.0,0.0,-32.21883,7.66803,-24.20543,-1.0,0.5215374,0.3225433,0.3287558,0.0,0.0,0.0,35.06294,8.757523,-43.82709,-1.0,0.4058289,0.4174091,0.03192246,1.234161,-0.03393686,-0.006580485,0.00735062,-0.01809854,2.572413,30.62558,33.49
4,-1.0,-1.0,-1.0,0.4675748,0.0,0.0,0.0,-32.06458,8.052933,-26.4352,-1.0,0.5155871,0.3078532,0.4939065,0.0,0.0,0.0,35.26079,5.761078,-27.43739,-1.0,0.4059496,0.3920382,0.0319804,1.234204,-0.0338968,-0.006621119,0.007427254,-0.01796467,2.572413,30.62558,33.49
4,-1.0,-1.0,-1.0,0.4675748,0.0,0.0,0.0,-32.06458,8.052933,-26.4352,-1.0,0.5155871,0.3078532,0.4939065,0.0,0.0,0.0,35.26079,5.761078,-27.43739,-1.0,0.4059496,0.3920382,0.0319804,1.234204,-0.0338968,-0.006621119,0.007427254,-0.01796467,2.572413,30.62558,33.49
4,-1.0,-1.0,-1.0,0.5294549,0.0,0.0,0.0,-32.08008,8.063782,-26.55058,-1.0,0.5173936,0.300655,0.6116469,0.0,0.0,0.0,35.23972,5.917709,-28.40083,-1.0,0.4058565,0.3865818,0.03198016,1.234347,-0.03382427,-0.006718304,0.007637935,-0.01825227,2.572413,30.62558,33.49
4,-1.0,-1.0,-1.0,0.5294549,0.0,0.0,0.0,-32.08008,8.063782,-26.55058,-1.0,0.5173936,0.300655,0.6116469,0.0,0.0,0.0,35.23972,5.917709,-28.40083,-1.0,0.4058565,0.3865818,0.03198016,1.234347,-0.03382427,-0.006718304,0.007637935,-0.01825227,2.572413,30.62558,33.49
4,-0.06062317,0.01330566,0.9980621,0.6273157,-0.06062317,0.01330566,0.9980621,-32.0799,8.090744,-26.80449,5.255051,0.5187207,0.294017,0.7892849,0.04666138,-0.02485657,0.9985962,35.25267,5.897995,-28.42009,4.927795,0.4044853,0.3835715,0.03196108,1.234342,-0.03387058,-0.00664695,0.00780773,-0.01832397,2.572413,30.62558,33.49
4,-0.06062317,0.01330566,0.9980621,0.6273157,-0.06062317,0.01330566,0.9980621,-32.0799,8.090744,-26.80449,5.255051,0.5187207,0.294017,0.7892849,0.04666138,-0.02485657,0.9985962,35.25267,5.897995,-28.42009,4.927795,0.4044853,0.3835715,0.03196108,1.234342,-0.03387058,-0.00664695,0.00780773,-0.01832397,2.572413,30.62558,33.49
4,-0.007507324,0.01707458,0.9998169,0.6806821,-0.06785583,0.0227356,0.9974213,-32.093,8.108124,-27.19716,5.394867,0.5205208,0.2945676,0.8336477,0.04086304,0.01249695,0.9990845,35.2765,5.867493,-28.61667,5.09491,0.4045175,0.3799245,0.03200471,1.234369,-0.03388989,-0.006504183,0.007752186,-0.01796757,2.572413,30.62558,33.49
4,-0.007507324,0.01707458,0.9998169,0.6806821,-0.06785583,0.0227356,0.9974213,-32.093,8.108124,-27.19716,5.394867,0.5205208,0.2945676,0.8336477,0.04086304,0.01249695,0.9990845,35.2765,5.867493,-28.61667,5.09491,0.4045175,0.3799245,0.03200471,1.234369,-0.03388989,-0.006504183,0.007752186,-0.01796757,2.572413,30.62558,33.49
4,0.05892944,0.05476379,0.9967499,0.8033246,-0.05429077,0.03218079,0.9980011,-32.06178,8.08342,-27.17488,5.433258,0.5171824,0.2941739,0.8815498,0.05935669,0.05484009,0.9967194,35.26102,5.823883,-28.46086,5.378036,0.401897,0.3729131,0.03200138,1.234401,-0.03391713,-0.006791104,0.007734867,-0.018122,2.572413,30.62558,33.49
4,0.05892944,0.05476379,0.9967499,0.8033246,-0.05429077,0.03218079,0.9980011,-32.06178,8.08342,-27.17488,5.433258,0.5171824,0.2941739,0.8815498,0.05935669,0.05484009,0.9967194,35.26102,5.823883,-28.46086,5.378036,0.401897,0.3729131,0.03200138,1.234401,-0.03391713,-0.006791104,0.007734867,-0.018122,2.572413,30.62558,33.49
4,0.04051208,0.02008057,0.9989624,0.840144,-0.05891418,0.04464722,0.9972534,-32.10283,7.81041,-26.10133,5.44458,0.5189713,0.2929927,0.8960549,0.04052734,0.02008057,0.9989624,35.26538,5.800354,-28.3624,5.270752,0.4050378,0.37885,0.03200746,1.23445,-0.03396094,-0.007002837,0.007784795,-0.01815239,2.572413,36.41519,33.49
4,0.04051208,0.02008057,0.9989624,0.840144,-0.05891418,0.04464722,0.9972534,-32.10283,7.81041,-26.10133,5.44458,0.5189713,0.2929927,0.8960549,0.04052734,0.02008057,0.9989624,35.26538,5.800354,-28.3624,5.270752,0.4050378,0.37885,0.03200746,1.23445,-0.03396094,-0.007002837,0.007784795,-0.01815239,2.572413,36.41519,33.49
4,0.0425415,0.02307129,0.9988251,0.8664485,-0.0609436,0.05130005,0.9968109,-32.09193,7.851425,-26.21487,5.495483,0.5189713,0.2915271,0.9152432,0.0425415,0.02307129,0.9988251,35.2556,5.799774,-28.3624,5.271835,0.4050378,0.3783631,0.03195345,1.234408,-0.03411317,-0.007096895,0.007580163,-0.01810266,2.572413,36.41519,33.49
4,0.0425415,0.02307129,0.9988251,0.8664485,-0.0609436,0.05130005,0.9968109,-32.09193,7.851425,-26.21487,5.495483,0.5189713,0.2915271,0.9152432,0.0425415,0.02307129,0.9988251,35.2556,5.799774,-28.3624,5.271835,0.4050378,0.3783631,0.03195345,1.234408,-0.03411317,-0.007096895,0.007580163,-0.01810266,2.572413,36.41519,33.49
4,0.04560852,0.0269928,0.9985809,0.8964778,-0.05702209,0.05331421,0.996933,-32.09714,7.833694,-26.15811,5.536438,0.5184909,0.2913257,0.9387161,0.04562378,0.0269928,0.9985809,35.26903,5.800064,-28.40289,5.267365,0.4040278,0.3780099,0.03196514,1.234442,-0.03419167,-0.007244438,0.007601757,-0.01826737,2.572413,36.41519,33.49
4,0.04560852,0.0269928,0.9985809,0.8964778,-0.05702209,0.05331421,0.996933,-32.09714,7.833694,-26.15811,5.536438,0.5184909,0.2913257,0.9387161,0.04562378,0.0269928,0.9985809,35.26903,5.800064,-28.40289,5.267365,0.4040278,0.3780099,0.03196514,1.234442,-0.03419167,-0.007244438,0.007601757,-0.01826737,2.572413,36.41519,33.49
4,0.04972839,0.02926636,0.9983215,0.922248,-0.06079102,0.05516052,0.9966125,-32.09302,7.856003,-26.24933,5.549774,0.5190055,0.2909462,0.9428462,0.05050659,0.02908325,0.998291,35.27402,5.805069,-28.4682,5.264557,0.4029889,0.3780099,0.03195453,1.23455,-0.03429359,-0.007398106,0.007622311,-0.01831909,2.572413,36.41519,33.49
4,0.04972839,0.02926636,0.9983215,0.922248,-0.06079102,0.05516052,0.9966125,-32.09302,7.856003,-26.24933,5.549774,0.5190055,0.2909462,0.9428462,0.05050659,0.02908325,0.998291,35.27402,5.805069,-28.4682,5.264557,0.4029889,0.3780099,0.03195453,1.23455,-0.03429359,-0.007398106,0.007622311,-0.01831909,2.572413,36.41519,33.49
4,0.0008544922,0.03945923,0.9992065,0.9163957,-0.06311035,0.05691528,0.9963684,-32.08887,7.866623,-26.28912,5.562881,0.5192662,0.2905498,0.9445641,0.05293274,0.02511597,0.9982758,35.27135,5.799774,-28.41666,5.268661,0.4026996,0.3784339,0.03191602,1.234547,-0.03443104,-0.00775795,0.007637935,-0.01837756,2.572413,36.41519,33.49
4,0.0008544922,0.03945923,0.9992065,0.9163957,-0.06311035,0.05691528,0.9963684,-32.08887,7.866623,-26.28912,5.562881,0.5192662,0.2905498,0.9445641,0.05293274,0.02511597,0.9982758,35.27135,5.799774,-28.41666,5.268661,0.4026996,0.3784339,0.03191602,1.234547,-0.03443104,-0.00775795,0.007637935,-0.01837756,2.572413,36.41519,33.49
4,0.03686523,0.0499115,0.9980621,0.9323583,-0.07125854,0.05911255,0.995697,-32.0567,7.966019,-26.77779,5.57106,0.5197313,0.2902482,0.9498053,0.06889343,0.04707336,0.9965057,35.23943,5.695496,-28.08005,5.421997,0.4012905,0.3756074,0.03197896,1.234562,-0.03446543,-0.00805849,0.007745455,-0.01850886,2.572413,36.41519,33.49
4,0.03686523,0.0499115,0.9980621,0.9323583,-0.07125854,0.05911255,0.995697,-32.0567,7.966019,-26.77779,5.57106,0.5197313,0.2902482,0.9498053,0.06889343,0.04707336,0.9965057,35.23943,5.695496,-28.08005,5.421997,0.4012905,0.3756074,0.03197896,1.234562,-0.03446543,-0.00805849,0.007745455,-0.01850886,2.572413,36.41519,33.49
4,0.0473938,0.04693604,0.9977722,0.9396629,-0.0740509,0.06420898,0.9951782,-32.0567,7.966019,-26.77805,5.605118,0.5201966,0.2893789,0.953844,0.06808472,0.04389954,0.9967041,35.23434,5.70929,-28.1378,5.403122,0.4015723,0.3761494,0.0319885,1.23456,-0.03445506,-0.00832677,0.007796271,-0.01824655,2.572413,36.41519,33.49
4,0.0473938,0.04693604,0.9977722,0.9396629,-0.0740509,0.06420898,0.9951782,-32.0567,7.966019,-26.77805,5.605118,0.5201966,0.2893789,0.953844,0.06808472,0.04389954,0.9967041,35.23434,5.70929,-28.1378,5.403122,0.4015723,0.3761494,0.0319885,1.23456,-0.03445506,-0.00832677,0.007796271,-0.01824655,2.572413,36.41519,33.49
4,0.04594421,0.04524231,0.9979095,0.9549419,-0.07392883,0.06672668,0.9950256,-32.0567,7.966019,-26.77805,5.62027,0.5201849,0.2889438,0.9606448,0.06619263,0.04153442,0.996933,35.23763,5.742676,-28.27379,5.397324,0.4016916,0.3765032,0.03203821,1.234632,-0.03445596,-0.008561472,0.007798182,-0.01810637,2.572413,12.46846,33.49
4,0.04594421,0.04524231,0.9979095,0.9549419,-0.07392883,0.06672668,0.9950256,-32.0567,7.966019,-26.77805,5.62027,0.5201849,0.2889438,0.9606448,0.06619263,0.04153442,0.996933,35.23763,5.742676,-28.27379,5.397324,0.4016916,0.3765032,0.03203821,1.234632,-0.03445596,-0.008561472,0.007798182,-0.01810637,2.572413,12.46846,33.49
5,-0.03691101,0.0620575,0.9973755,0.9571183,-0.07518005,0.0693512,0.994751,-32.0567,7.966019,-26.77805,5.669571,0.5203924,0.2884869,0.9555379,0.0667572,0.04185486,0.9968872,35.24123,5.745972,-28.29623,5.395981,0.401453,0.3765032,0.03201926,1.23466,-0.03445792,-0.008635127,0.00785435,-0.01829589,2.572413,12.46846,33.49
5,0.02926636,0.05162048,0.99823,0.9713502,-0.06845093,0.0758667,0.994751,-32.10059,7.803009,-26.10837,5.758911,0.5205222,0.287875,0.961517,0.06416321,0.04281616,0.9970093,35.24556,5.745972,-28.37489,5.39267,0.4016916,0.3769816,0.03203285,1.23465,-0.03445208,-0.008648921,0.007892202,-0.01848872,2.572413,12.46846,33.49
5,0.06155396,0.0431366,0.9971619,0.9751601,-0.06861877,0.07887268,0.9945068,-32.10101,7.799835,-26.10411,5.787888,0.5205222,0.2878156,0.9641759,0.0635376,0.04258728,0.9970551,35.25197,5.746506,-28.37312,5.394028,0.4015723,0.3769868,0.03202987,1.234635,-0.03446853,-0.008771243,0.00793457,-0.01840268,2.572413,12.46846,33.49
5,0.06155396,0.0431366,0.9971619,0.9751601,-0.06861877,0.07887268,0.9945068,-32.10101,7.799835,-26.10411,5.787888,0.5205222,0.2878156,0.9641759,0.0635376,0.04258728,0.9970551,35.25197,5.746506,-28.37312,5.394028,0.4015723,0.3769868,0.03202987,1.234635,-0.03446853,-0.008771243,0.00793457,-0.01840268,2.572413,12.46846,33.49
5,0.06155396,0.0431366,0.9971619,0.9751601,-0.06861877,0.07887268,0.9945068,-32.10101,7.799835,-26.10411,5.787888,0.5205222,0.2878156,0.9641759,0.0635376,0.04258728,0.9970551,35.25197,5.746506,-28.37312,5.394028,0.4015723,0.3769868,0.03209913,1.234639,-0.03449583,-0.008571909,0.008046461,-0.01816552,2.572413,12.46846,33.49
5,0.06155396,0.0431366,0.9971619,0.9751601,-0.06861877,0.07887268,0.9945068,-32.10101,7.799835,-26.10411,5.787888,0.5205222,0.2878156,0.9641759,0.0635376,0.04258728,0.9970551,35.25197,5.746506,-28.37312,5.394028,0.4015723,0.3769868,0.0320822,1.23465,-0.03458953,-0.008530959,0.008089864,-0.01820281,2.572413,12.46846,33.49
5,0.06155396,0.0431366,0.9971619,0.9751601,-0.06861877,0.07887268,0.9945068,-32.10101,7.799835,-26.10411,5.787888,0.5205222,0.2878156,0.9641759,0.0635376,0.04258728,0.9970551,35.25197,5.746506,-28.37312,5.394028,0.4015723,0.3769868,0.0320822,1.23465,-0.03458953,-0.008530959,0.008089864,-0.01820281,2.572413,12.46846,33.49
5,0.06155396,0.0431366,0.9971619,0.9751601,-0.06861877,0.07887268,0.9945068,-32.10101,7.799835,-26.10411,5.787888,0.5205222,0.2878156,0.9641759,0.0635376,0.04258728,0.9970551,35.25197,5.746506,-28.37312,5.394028,0.4015723,0.3769868,0.03214419,1.234683,-0.03460366,-0.008561472,0.008109181,-0.01838567,2.572413,12.46846,33.49
5,0.04394531,0.02323914,0.9987488,0.9742777,-0.06529236,0.08486938,0.9942474,-32.1075,7.782089,-26.04128,5.807709,0.5201849,0.2869435,0.9644003,0.04396057,0.02323914,0.9987488,35.26958,5.720657,-28.34473,5.265182,0.4043292,0.3809212,0.03221428,1.234684,-0.03462386,-0.00854405,0.0080871,-0.01842696,2.572413,12.46846,33.49
5,0.04394531,0.02323914,0.9987488,0.9742777,-0.06529236,0.08486938,0.9942474,-32.1075,7.782089,-26.04128,5.807709,0.5201849,0.2869435,0.9644003,0.04396057,0.02323914,0.9987488,35.26958,5.720657,-28.34473,5.265182,0.4043292,0.3809212,0.03221428,1.234684,-0.03462386,-0.00854405,0.0080871,-0.01842696,2.572413,12.46846,33.49
5,0.05705261,0.03485107,0.997757,0.9905727,-0.06251526,0.08522034,0.9943848,-32.10982,7.780899,-26.04123,5.815735,0.5198103,0.2869435,0.9737514,0.0574646,0.03468323,0.9977417,35.26758,5.739136,-28.40901,5.400421,0.4020416,0.3788821,0.03230369,1.234684,-0.03462988,-0.008600544,0.008253976,-0.01877979,2.572413,12.46846,33.49
5,0.05003357,0.03794861,0.9980164,0.9958042,-0.06507874,0.08607483,0.9941559,-32.10852,7.780899,-26.04123,5.820709,0.5201849,0.2868043,0.9823115,0.05851746,0.03436279,0.9976807,35.26749,5.738632,-28.40369,5.386078,0.401873,0.3789127,0.03234637,1.234699,-0.03464234,-0.008663554,0.008274712,-0.01875002,2.572413,12.46846,33.49
5,-0.00453186,0.06280518,0.9980011,0.9902301,-0.06300354,0.08901978,0.9940338,-32.10747,7.775436,-26.02538,5.897873,0.5198103,0.286379,0.9680814,0.05740356,0.03477478,0.9977417,35.26833,5.73291,-28.38512,5.40181,0.4020416,0.3788821,0.03238332,1.234674,-0.03459132,-0.008654949,0.008308857,-0.01879843,2.572413,12.46846,33.49
5,-0.00453186,0.06280518,0.9980011,0.9902301,-0.06300354,0.08901978,0.9940338,-32.10747,7.775436,-26.02538,5.897873,0.5198103,0.286379,0.9680814,0.05740356,0.03477478,0.9977417,35.26833,5.73291,-28.38512,5.40181,0.4020416,0.3788821,0.03238332,1.234674,-0.03459132,-0.008654949,0.008308857,-0.01879843,2.572413,12.46846,33.49
5,-0.006668091,0.06350708,0.9979553,0.9963962,-0.06304932,0.08840942,0.9940796,-32.10747,7.775208,-26.01099,5.901245,0.5198103,0.286379,0.970791,0.05732727,0.03495789,0.9977417,35.26923,5.723892,-28.34946,5.424973,0.4020416,0.3788821,0.03242218,1.234676,-0.03458107,-0.00875679,0.00849946,-0.01904297,2.572413,12.46846,33.49
5,-0.008392334,0.06321716,0.9979553,1.0,-0.06642151,0.08810425,0.9938812,-32.10461,7.775208,-26.01099,5.901779,0.5202609,0.2864432,1.0,0.05569458,0.03543091,0.997818,35.26949,5.725113,-28.3636,5.429337,0.4023003,0.3788821,0.03245246,1.234714,-0.03458494,-0.008876787,0.008579729,-0.01914754,2.572413,12.46846,33.49
5,-0.007873535,0.06283569,0.9979858,1.0,-0.06726074,0.08860779,0.9937897,-32.10028,7.776337,-26.02777,5.900742,0.5202609,0.2864432,1.0,0.05555725,0.03501892,0.9978333,35.2697,5.732376,-28.38512,5.439941,0.4023003,0.3788821,0.03249776,1.234738,-0.03457379,-0.008986896,0.008768694,-0.01921745,2.572413,-24.81458,33.49
5,-0.007873535,0.06283569,0.9979858,1.0,-0.06726074,0.08860779,0.9937897,-32.10028,7.776337,-26.02777,5.900742,0.5202609,0.2864432,1.0,0.05555725,0.03501892,0.9978333,35.2697,5.732376,-28.38512,5.439941,0.4023003,0.3788821,0.03249776,1.234738,-0.03457379,-0.008986896,0.008768694,-0.01921745,2.572413,-24.81458,33.49
5,-0.006988525,0.06323242,0.9979706,1.0,-0.0692749,0.08856201,0.9936523,-32.09889,7.781845,-26.0437,5.891922,0.5205494,0.2863718,1.0,0.06085205,0.03533936,0.9975128,35.28232,5.72226,-28.43214,5.448898,0.4009369,0.3795663,0.0325855,1.234816,-0.03460574,-0.009251609,0.009018345,-0.01931645,2.572413,-24.81458,33.49
5,-0.03341675,0.07176208,0.9968567,1.0,-0.06922913,0.08988953,0.9935303,-32.0988,7.781845,-26.07346,5.891281,0.5205494,0.2863718,1.0,0.06332397,0.02230835,0.9977417,35.30537,5.743378,-28.73399,5.455902,0.3995484,0.3835776,0.03262246,1.23483,-0.03459769,-0.009376398,0.009105496,-0.01930255,2.572413,-24.81458,33.49
5,0.02931213,0.02302551,0.9992981,0.9856014,-0.0475769,0.04789734,0.9977112,-31.93675,7.774521,-26.91844,5.718353,0.5117863,0.2998745,0.9927387,0.06034851,0.01293945,0.9980927,35.33194,5.740097,-29.0377,5.548935,0.3988693,0.3877697,0.03264296,1.23486,-0.03461254,-0.009464189,0.009270113,-0.01928363,2.572413,-24.81458,33.49
5,0.02931213,0.02302551,0.9992981,0.9856014,-0.0475769,0.04789734,0.9977112,-31.93675,7.774521,-26.91844,5.718353,0.5117863,0.2998745,0.9927387,0.06034851,0.01293945,0.9980927,35.33194,5.740097,-29.0377,5.548935,0.3988693,0.3877697,0.03264296,1.23486,-0.03461254,-0.009464189,0.009270113,-0.01928363,2.572413,-24.81458,33.49
5,0.05039978,0.02627563,0.9983826,1.0,-0.04011536,0.05715942,0.9975433,-31.9883,7.70929,-26.62135,5.80069,0.5122253,0.2982652,1.0,0.06262207,0.02207947,0.9977875,35.36433,5.757904,-29.10384,5.513123,0.397326,0.3861333,0.03272259,1.234844,-0.03467095,-0.009605623,0.009376398,-0.01928556,2.572413,-24.81458,33.49
5,0.03965759,0.02461243,0.9989014,0.9785226,-0.04032898,0.0567627,0.9975586,-31.98755,7.708084,-26.62698,5.805283,0.5122253,0.298516,0.9988288,0.057724,0.01731873,0.9981689,35.36366,5.754715,-29.11487,5.538025,0.3981616,0.3871502,0.03274357,1.23485,-0.03461516,-0.009688262,0.00954415,-0.01930989,2.572413,-24.81458,33.49
5,0.04081726,0.02664185,0.9988098,0.9882722,-0.04032898,0.05253601,0.9978027,-31.98778,7.706741,-26.62135,5.794662,0.5122253,0.2992327,0.9978189,0.0584259,0.02098083,0.9980621,35.36568,5.743042,-29.08842,5.540039,0.3979876,0.3867069,0.0327661,1.234834,-0.03454816,-0.009558192,0.009537903,-0.01938152,2.572413,-24.81458,33.49
5,0.04624939,0.02346802,0.998642,0.9901901,-0.04048157,0.05526733,0.9976349,-31.98767,7.702515,-26.61441,5.80072,0.5122468,0.2988743,0.9990254,0.05937195,0.01863098,0.9980469,35.36703,5.736938,-29.07437,5.52124,0.3977973,0.3871953,0.03282344,1.234842,-0.03450215,-0.009452374,0.009518354,-0.01940265,2.572413,-24.81458,33.49
5,0.04624939,0.02346802,0.998642,0.9901901,-0.04048157,0.05526733,0.9976349,-31.98767,7.702515,-26.61441,5.80072,0.5122468,0.2988743,0.9990254,0.05937195,0.01863098,0.9980469,35.36703,5.736938,-29.07437,5.52124,0.3977973,0.3871953,0.03282344,1.234842,-0.03450215,-0.009452374,0.009518354,-0.01940265,2.572413,-24.81458,33.49
5,0.03475952,0.0324707,0.9988556,1.0,-0.04046631,0.05639648,0.9975739,-31.98767,7.703629,-26.61441,5.800659,0.5122468,0.2986459,1.0,0.05851746,0.02487183,0.9979706,35.3712,5.735687,-29.06839,5.509781,0.3977973,0.3861173,0.03281081,1.234828,-0.03451693,-0.009434227,0.009498765,-0.01932532,2.572413,-24.81458,33.49
5,0.03475952,0.0324707,0.9988556,1.0,-0.04046631,0.05639648,0.9975739,-31.98767,7.703629,-26.61441,5.800659,0.5122468,0.2986459,1.0,0.05851746,0.02487183,0.9979706,35.3712,5.735687,-29.06839,5.509781,0.3977973,0.3861173,0.03281081,1.234828,-0.03451693,-0.009434227,0.009498765,-0.01932532,2.572413,-24.81458,33.49
5,0.00453186,0.03819275,0.9992523,0.9847967,-0.04039001,0.0541687,0.9977112,-31.98804,7.707413,-26.62416,5.792877,0.5122468,0.2989604,0.9932677,0.05860901,0.0188446,0.9980927,35.3712,5.731308,-29.05515,5.508957,0.3977973,0.3871953,0.03279352,1.234814,-0.03451395,-0.009509739,0.009604847,-0.01921474,2.572413,-34.28174,33.49
5,0.006637573,0.03721619,0.9992828,1.0,-0.0402832,0.05288696,0.9977722,-31.9886,7.708694,-26.62866,5.792175,0.5122468,0.2991608,1.0,0.06047058,0.01911926,0.9979858,35.37015,5.727524,-29.04555,5.509262,0.3975244,0.3871953,0.03279841,1.234821,-0.03447711,-0.009517571,0.009551954,-0.01919844,2.572413,-34.28174,33.49
5,0.01048279,0.03585815,0.9992981,1.0,-0.03913879,0.05273438,0.9978333,-31.99449,7.72258,-26.68752,5.786041,0.5122776,0.2991608,1.0,0.0606842,0.0186615,0.9979706,35.36929,5.727524,-29.03534,5.509735,0.3975244,0.3871953,0.03281224,1.234822,-0.03446323,-0.009713607,0.00948385,-0.01918175,2.572413,-34.28174,33.49
5,0.01048279,0.03585815,0.9992981,1.0,-0.03913879,0.05273438,0.9978333,-31.99449,7.72258,-26.68752,5.786041,0.5122776,0.2991608,1.0,0.0606842,0.0186615,0.9979706,35.36929,5.727524,-29.03534,5.509735,0.3975244,0.3871953,0.03281224,1.234822,-0.03446323,-0.009713607,0.00948385,-0.01918175,2.572413,-34.28174,33.49
5,0.01048279,0.03585815,0.9992981,1.0,-0.03913879,0.05273438,0.9978333,-31.99449,7.72258,-26.68752,5.786041,0.5122776,0.2991608,1.0,0.0606842,0.0186615,0.9979706,35.36929,5.727524,-29.03534,5.509735,0.3975244,0.3871953,0.03281224,1.234822,-0.03446323,-0.009713607,0.00948385,-0.01918175,2.572413,-34.28174,33.49
5,0.0302124,0.02850342,0.9991302,1.0,-0.03860474,0.05195618,0.9978943,-32.00098,7.743698,-26.7751,5.7715,0.5124427,0.2991766,1.0,0.06192017,0.0176239,0.9979248,35.36832,5.730591,-29.03061,5.458847,0.3973636,0.3872086,0.0327698,1.234861,-0.03456569,-0.009772489,0.009407338,-0.01921784,2.572413,-34.28174,33.49
5,0.0302124,0.02850342,0.9991302,1.0,-0.03860474,0.05195618,0.9978943,-32.00098,7.743698,-26.7751,5.7715,0.5124427,0.2991766,1.0,0.06192017,0.0176239,0.9979248,35.36832,5.730591,-29.03061,5.458847,0.3973636,0.3872086,0.03282094,1.234815,-0.03461182,-0.009830261,0.009282963,-0.01919534,2.572413,-34.28174,33.49
5,0.0302124,0.02850342,0.9991302,1.0,-0.03860474,0.05195618,0.9978943,-32.00098,7.743698,-26.7751,5.7715,0.5124427,0.2991766,1.0,0.06192017,0.0176239,0.9979248,35.36832,5.730591,-29.03061,5.458847,0.3973636,0.3872086,0.03282094,1.234815,-0.03461182,-0.009830261,0.009282963,-0.01919534,2.572413,-34.28174,33.49
