Second,eye_comb_direction_x,eye_comb_direction_y,eye_comb_direction_z,eye_r_openness,eye_r_direction_x,eye_r_direction_y,eye_r_direction_z,eye_r_origin_x,eye_r_origin_y,eye_r_origin_z,eye_r_pupil_diameter,eye_r_pupil_position_x,eye_r_pupil_position_y,eye_l_openness,eye_l_direction_x,eye_l_direction_y,eye_l_direction_z,eye_l_origin_x,eye_l_origin_y,eye_l_origin_z,eye_l_pupil_diameter,eye_l_pupil_position_x,eye_l_pupil_position_y,head_position_x,head_position_y,head_position_z,head_rotation_roll,head_rotation_pitch,head_rotation_yaw,EDA,BVP,TMP
0,0.0,0.0,0.0,0.0,0.0,0.0,0.0,0.0,0.0,0.0,0.0,0.0,0.0,0.0,0.0,0.0,0.0,0.0,0.0,0.0,0.0,0.0,0.0,0.0,0.0,0.0,0.0,0.0,0.0,3.3996319788749694,0.6364751248096291,31.686885286170476
0,-0.0189209,-0.1199036,0.9925995,0.5591739,-0.05761719,-0.1065521,0.99263,-31.99828,7.825546,-26.83659,5.761139,0.5152138,0.323761,0.8895522,0.01754761,-0.132309,0.9910431,35.27423,5.74675,-28.56841,5.537888,0.4083813,0.4087243,0.02487528,1.223523,-0.01164007,-0.006651432,-0.003218122,-0.03093971,3.3996319788749694,0.6364751248096291,31.686885286170476
1,-0.01792908,-0.119751,0.99263,0.5639243,-0.05375671,-0.1061554,0.9928894,-31.99828,7.824661,-26.83307,5.771439,0.514588,0.3236944,0.8887712,0.0160675,-0.1324921,0.9910431,35.27353,5.74675,-28.56256,5.595871,0.4086414,0.4087195,0.0257951,1.223575,-0.01209837,-0.006680492,-0.001539248,-0.03210821,3.272014,0.6364751248096291,31.686885286170476
1,-0.01792908,-0.119751,0.99263,0.5639243,-0.05375671,-0.1061554,0.9928894,-31.99828,7.824661,-26.83307,5.771439,0.514588,0.3236944,0.8887712,0.0160675,-0.1324921,0.9910431,35.27353,5.74675,-28.56256,5.595871,0.4086414,0.4087195,0.0257951,1.223575,-0.01209837,-0.006680492,-0.001539248,-0.03210821,3.272014,0.6364751248096291,31.686885286170476
1,-0.01792908,-0.119751,0.99263,0.5639243,-0.05375671,-0.1061554,0.9928894,-31.99828,7.824661,-26.83307,5.771439,0.514588,0.3236944,0.8887712,0.0160675,-0.1324921,0.9910431,35.27353,5.74675,-28.56256,5.595871,0.4086414,0.4087195,0.0257951,1.223575,-0.01209837,-0.006680492,-0.001539248,-0.03210821,3.272014,0.6364751248096291,31.686885286170476
1,-0.01792908,-0.119751,0.99263,0.5639243,-0.05375671,-0.1061554,0.9928894,-31.99828,7.824661,-26.83307,5.771439,0.514588,0.3236944,0.8887712,0.0160675,-0.1324921,0.9910431,35.27353,5.74675,-28.56256,5.595871,0.4086414,0.4087195,0.0257951,1.223575,-0.01209837,-0.006680492,-0.001539248,-0.03210821,3.272014,0.6364751248096291,31.686885286170476
1,-0.01792908,-0.119751,0.99263,0.5639243,-0.05375671,-0.1061554,0.9928894,-31.99828,7.824661,-26.83307,5.771439,0.514588,0.3236944,0.8887712,0.0160675,-0.1324921,0.9910431,35.27353,5.74675,-28.56256,5.595871,0.4086414,0.4087195,0.0257951,1.223575,-0.01209837,-0.006680492,-0.001539248,-0.03210821,3.272014,0.6364751248096291,31.686885286170476
1,-0.01792908,-0.119751,0.99263,0.5639243,-0.05375671,-0.1061554,0.9928894,-31.99828,7.824661,-26.83307,5.771439,0.514588,0.3236944,0.8887712,0.0160675,-0.1324921,0.9910431,35.27353,5.74675,-28.56256,5.595871,0.4086414,0.4087195,0.0257951,1.223575,-0.01209837,-0.006680492,-0.001539248,-0.03210821,3.272014,0.6364751248096291,31.686885286170476
1,-0.01792908,-0.119751,0.99263,0.5639243,-0.05375671,-0.1061554,0.9928894,-31.99828,7.824661,-26.83307,5.771439,0.514588,0.3236944,0.8887712,0.0160675,-0.1324921,0.9910431,35.27353,5.74675,-28.56256,5.595871,0.4086414,0.4087195,0.0257951,1.223575,-0.01209837,-0.006680492,-0.001539248,-0.03210821,3.272014,0.6364751248096291,31.686885286170476
1,-0.01792908,-0.119751,0.99263,0.5639243,-0.05375671,-0.1061554,0.9928894,-31.99828,7.824661,-26.83307,5.771439,0.514588,0.3236944,0.8887712,0.0160675,-0.1324921,0.9910431,35.27353,5.74675,-28.56256,5.595871,0.4086414,0.4087195,0.0257951,1.223575,-0.01209837,-0.006680492,-0.001539248,-0.03210821,3.272014,0.6364751248096291,31.686885286170476
1,-0.01792908,-0.119751,0.99263,0.5639243,-0.05375671,-0.1061554,0.9928894,-31.99828,7.824661,-26.83307,5.771439,0.514588,0.3236944,0.8887712,0.0160675,-0.1324921,0.9910431,35.27353,5.74675,-28.56256,5.595871,0.4086414,0.4087195,0.0257951,1.223575,-0.01209837,-0.006680492,-0.001539248,-0.03210821,3.272014,0.6364751248096291,31.686885286170476
1,0.04576111,-0.04493713,0.9979248,0.7586724,-0.06098938,0.01429749,0.9980316,-31.97237,8.016495,-26.35991,5.752777,0.5149913,0.2930349,0.9243526,0.04655457,-0.04537964,0.997879,35.51927,5.920593,-28.25125,5.390289,0.3952886,0.3848335,0.02585185,1.223992,-0.01294565,-0.006771327,-0.001084985,-0.03092526,3.272014,0.6364751248096291,31.686885286170476
1,0.04576111,-0.04493713,0.9979248,0.7586724,-0.06098938,0.01429749,0.9980316,-31.97237,8.016495,-26.35991,5.752777,0.5149913,0.2930349,0.9243526,0.04655457,-0.04537964,0.997879,35.51927,5.920593,-28.25125,5.390289,0.3952886,0.3848335,0.02585185,1.223992,-0.01294565,-0.006771327,-0.001084985,-0.03092526,3.272014,0.6364751248096291,31.686885286170476
1,0.04576111,-0.04493713,0.9979248,0.7586724,-0.06098938,0.01429749,0.9980316,-31.97237,8.016495,-26.35991,5.752777,0.5149913,0.2930349,0.9243526,0.04655457,-0.04537964,0.997879,35.51927,5.920593,-28.25125,5.390289,0.3952886,0.3848335,0.02585185,1.223992,-0.01294565,-0.006771327,-0.001084985,-0.03092526,3.272014,0.6364751248096291,31.686885286170476
1,0.04576111,-0.04493713,0.9979248,0.7586724,-0.06098938,0.01429749,0.9980316,-31.97237,8.016495,-26.35991,5.752777,0.5149913,0.2930349,0.9243526,0.04655457,-0.04537964,0.997879,35.51927,5.920593,-28.25125,5.390289,0.3952886,0.3848335,0.02585185,1.223992,-0.01294565,-0.006771327,-0.001084985,-0.03092526,3.272014,0.6364751248096291,31.686885286170476
1,0.04576111,-0.04493713,0.9979248,0.7586724,-0.06098938,0.01429749,0.9980316,-31.97237,8.016495,-26.35991,5.752777,0.5149913,0.2930349,0.9243526,0.04655457,-0.04537964,0.997879,35.51927,5.920593,-28.25125,5.390289,0.3952886,0.3848335,0.02585185,1.223992,-0.01294565,-0.006771327,-0.001084985,-0.03092526,3.272014,0.6364751248096291,31.686885286170476
1,0.03744507,-0.03807068,0.9985657,0.7712183,-0.05915833,0.01081848,0.9981842,-31.97762,8.08847,-26.68019,5.654419,0.5149913,0.2934708,0.9314823,0.04434204,-0.04154968,0.9981384,35.51888,5.905197,-28.21968,5.328644,0.3957079,0.3844455,0.02589345,1.223935,-0.01293129,-0.00667603,-0.001013992,-0.03099985,3.272014,0.6364751248096291,31.686885286170476
1,0.03753662,-0.0377655,0.9985657,0.7712183,-0.05851746,0.0118103,0.9982147,-31.97986,8.09787,-26.71881,5.64476,0.514981,0.2932528,0.9314823,0.04438782,-0.04129028,0.9981537,35.51888,5.905197,-28.21297,5.325638,0.3957079,0.3843433,0.02592242,1.223943,-0.01290655,-0.006657031,-0.0009917039,-0.03113104,3.272014,0.6364751248096291,31.686885286170476
1,0.03718567,-0.0372467,0.9986115,0.778218,-0.05603027,0.01000977,0.9983673,-31.98656,8.114594,-26.7878,5.618515,0.5148258,0.2934708,0.9258488,0.04521179,-0.04130554,0.9981079,35.51207,5.905197,-28.21297,5.312042,0.3958077,0.3843433,0.02592599,1.223919,-0.01283479,-0.006595187,-0.001071163,-0.03100802,3.272014,0.6364751248096291,31.686885286170476
1,0.03016663,-0.02726746,0.9991608,0.7752921,-0.0544281,0.01002502,0.9984589,-31.98671,8.114594,-26.7878,5.543472,0.514574,0.2934708,0.9348691,0.04527283,-0.03390503,0.9983978,35.5119,5.903442,-28.21297,5.293121,0.3958065,0.383134,0.02593052,1.223881,-0.01279593,-0.006528195,-0.001035801,-0.03102316,3.272014,0.6364751248096291,31.686885286170476
1,0.02540588,-0.02418518,0.9993744,0.7849272,-0.0539856,0.005935669,0.9985199,-31.98671,8.114594,-26.7878,5.481171,0.5144966,0.2941902,0.9352446,0.04640198,-0.03213501,0.9983978,35.50934,5.903442,-28.21297,5.276901,0.3957079,0.3828197,0.02593172,1.223868,-0.01278669,-0.006411888,-0.001071163,-0.03094838,3.272014,0.6364751248096291,31.686885286170476
1,0.019104,-0.02145386,0.9995728,0.7849272,-0.05445862,0.005996704,0.9984894,-31.98671,8.114594,-26.7878,5.431503,0.514574,0.2941902,0.9352446,0.0478363,-0.03215027,0.9983368,35.50827,5.903442,-28.21297,5.257156,0.3955061,0.3828197,0.02593708,1.22387,-0.01276875,-0.006345308,-0.001021313,-0.0309438,3.272014,0.6364751248096291,31.686885286170476
1,0.006561279,-0.01651001,0.9998322,0.7770704,-0.05238342,0.005111694,0.9986115,-31.98917,8.114594,-26.7878,5.355301,0.5143179,0.2943596,0.9249189,0.04844666,-0.03184509,0.9983063,35.50739,5.907639,-28.21297,5.180176,0.3954509,0.3826101,0.02595377,1.223833,-0.01278681,-0.006309985,-0.0009765626,-0.03101739,3.272014,0.6364751248096291,31.686885286170476
1,0.006561279,-0.01651001,0.9998322,0.7770704,-0.05238342,0.005111694,0.9986115,-31.98917,8.114594,-26.7878,5.355301,0.5143179,0.2943596,0.9249189,0.04844666,-0.03184509,0.9983063,35.50739,5.907639,-28.21297,5.180176,0.3954509,0.3826101,0.02595377,1.223833,-0.01278681,-0.006309985,-0.0009765626,-0.03101739,3.272014,0.6364751248096291,31.686885286170476
1,0.005981445,-0.01358032,0.9998779,0.7900133,-0.04873657,0.005111694,0.9987946,-31.99011,8.100113,-26.69983,5.30719,0.513728,0.2941902,0.9418195,0.05044556,-0.02874756,0.9983063,35.50652,5.9095,-28.21297,5.170944,0.3951449,0.3820102,0.02597392,1.223822,-0.01276779,-0.006369919,-0.0009841623,-0.03097148,3.272014,0.6364751248096291,31.686885286170476
1,0.01496887,-0.01911926,0.9996948,0.7945156,-0.04893494,0.004547119,0.9987793,-31.9888,8.094986,-26.67426,5.249756,0.5137038,0.2943272,0.9382296,0.05047607,-0.03224182,0.9981995,35.50652,5.9095,-28.21297,5.146973,0.3951449,0.3826101,0.02594757,1.223767,-0.01274598,-0.006281582,-0.0009611826,-0.03092742,3.272014,0.6364751248096291,31.686885286170476
1,0.01496887,-0.01911926,0.9996948,0.7945156,-0.04893494,0.004547119,0.9987793,-31.9888,8.094986,-26.67426,5.249756,0.5137038,0.2943272,0.9382296,0.05047607,-0.03224182,0.9981995,35.50652,5.9095,-28.21297,5.146973,0.3951449,0.3826101,0.02594757,1.223767,-0.01274598,-0.006281582,-0.0009611826,-0.03092742,3.272014,0.6364751248096291,31.686885286170476
1,0.03384399,-0.02087402,0.9992065,0.7907057,-0.05024719,0.01426697,0.9986267,-31.98502,7.991379,-26.39304,5.244705,0.5137038,0.2941095,0.9416522,0.0521698,-0.02851868,0.99823,35.50739,5.908264,-28.21297,5.135971,0.3948309,0.3820102,0.02594078,1.223767,-0.01268411,-0.006175118,-0.0009841624,-0.03094019,3.272014,0.6364751248096291,31.686885286170476
1,0.04603577,-0.02630615,0.9985809,0.7974412,-0.05052185,0.01293945,0.9986267,-31.98474,7.983612,-26.32269,5.241989,0.5137038,0.2941902,0.9405987,0.05316162,-0.02920532,0.9981537,35.50819,5.908264,-28.19991,5.121582,0.3946446,0.3820102,0.02595019,1.223758,-0.01264,-0.006189579,-0.001098633,-0.03094838,3.272014,0.6364751248096291,31.686885286170476
1,0.05337524,-0.03311157,0.9980164,0.8008481,-0.05076599,0.01368713,0.9986115,-31.98366,7.980988,-26.31261,5.209702,0.5137038,0.2941095,0.9234964,0.05459595,-0.03366089,0.9979248,35.50827,5.903442,-28.17285,5.056686,0.3944344,0.3827106,0.02589715,1.223764,-0.01253176,-0.006076601,-0.001145121,-0.03082076,3.272014,0.6364751248096291,31.686885286170476
1,0.0539856,-0.03477478,0.9979248,0.8008481,-0.05107117,0.01371765,0.9985962,-31.98221,7.980988,-26.31181,5.20488,0.5137038,0.2941095,0.9234964,0.05589294,-0.03565979,0.9977875,35.50998,5.861557,-27.95523,5.058197,0.3942946,0.3826682,0.02582538,1.223729,-0.01250792,-0.005970225,-0.001220703,-0.03076753,3.272014,0.6364751248096291,31.686885286170476
1,0.0539856,-0.03477478,0.9979248,0.8008481,-0.05107117,0.01371765,0.9985962,-31.98221,7.980988,-26.31181,5.20488,0.5137038,0.2941095,0.9234964,0.05589294,-0.03565979,0.9977875,35.50998,5.861557,-27.95523,5.058197,0.3942946,0.3826682,0.02582538,1.223729,-0.01250792,-0.005970225,-0.001220703,-0.03076753,3.272014,0.6364751248096291,31.686885286170476
1,0.02909851,-0.0243988,0.9992676,0.7983897,-0.05329895,0.01399231,0.9984741,-31.97722,7.980988,-26.31181,5.204956,0.5139023,0.2940579,0.923568,0.05630493,-0.0370636,0.9977112,35.51108,5.856613,-27.90334,4.972595,0.3942556,0.3826682,0.02579713,1.223719,-0.01244724,-0.005867,-0.001348311,-0.03073167,3.272014,0.6364751248096291,31.686885286170476
1,-0.03967285,0.009262085,0.9991608,0.8049448,-0.05328369,0.01577759,0.9984436,-31.97722,7.980988,-26.30745,5.176727,0.5139023,0.2937277,0.9396986,0.05636597,-0.03663635,0.9977264,35.51163,5.851349,-27.89558,4.956192,0.3942374,0.3827106,0.02575421,1.223698,-0.01241255,-0.005752867,-0.001309058,-0.03062214,3.272014,0.6364751248096291,31.686885286170476
1,-0.04446411,0.01611328,0.9988708,0.8020921,-0.05340576,0.02113342,0.9983368,-31.97722,7.981491,-26.31181,5.1586,0.5139337,0.2928315,0.9376349,0.05638123,-0.0403595,0.9975891,35.51163,5.851288,-27.87556,4.919312,0.3942556,0.383182,0.02568877,1.223632,-0.01234549,-0.005505357,-0.001474981,-0.03062481,3.272014,0.6364751248096291,31.686885286170476
1,-0.04446411,0.01611328,0.9988708,0.8020921,-0.05340576,0.02113342,0.9983368,-31.97722,7.981491,-26.31181,5.1586,0.5139337,0.2928315,0.9376349,0.05638123,-0.0403595,0.9975891,35.51163,5.851288,-27.87556,4.919312,0.3942556,0.383182,0.02568877,1.223632,-0.01234549,-0.005505357,-0.001474981,-0.03062481,3.272014,0.6364751248096291,31.686885286170476
1,-0.03503418,0.01063538,0.9993286,0.8090452,-0.05340576,0.02108765,0.9983368,-31.97722,7.981491,-26.30745,5.147659,0.5139337,0.2928098,0.9439313,0.05641174,-0.04129028,0.9975433,35.51163,5.851288,-27.87556,4.900269,0.3942556,0.383342,0.02562416,1.223558,-0.01225662,-0.00534746,-0.00162404,-0.03048265,3.272014,0.6364751248096291,31.686885286170476
1,-0.005401611,-0.005065918,0.9999695,0.7942204,-0.0534668,0.02290344,0.9983063,-31.97722,7.986298,-26.30426,5.13063,0.5139456,0.292304,0.9358313,0.05555725,-0.0405426,0.9976196,35.51163,5.851288,-27.87376,4.801941,0.3944186,0.383182,0.02562416,1.223558,-0.01225662,-0.00534746,-0.00162404,-0.03048265,3.272014,34.69028,31.686885286170476
1,-0.0002593994,-0.006607056,0.9999695,0.8173981,-0.05229187,0.02246094,0.9983673,-31.98299,7.98671,-26.29465,5.071045,0.5139456,0.292304,0.944949,0.0557251,-0.03790283,0.9977112,35.50998,5.851761,-27.87556,4.741959,0.3944536,0.3827106,0.02554357,1.223581,-0.01220036,-0.0051255,-0.001605584,-0.03037442,3.272014,34.69028,31.686885286170476
1,0.0004425049,-0.004623413,0.9999847,0.8173981,-0.05192566,0.02711487,0.9982758,-31.98448,7.98671,-26.29465,5.07132,0.5139456,0.2915144,0.944949,0.0552063,-0.03779602,0.997757,35.5099,5.854675,-27.88962,4.740387,0.3945362,0.3827106,0.02549303,1.223516,-0.01213819,-0.00487059,-0.001673744,-0.03032655,3.272014,34.69028,31.686885286170476
1,0.003433228,-0.001571655,0.9999847,0.8095832,-0.05117798,0.03179932,0.9981689,-31.9877,7.987793,-26.30426,4.964386,0.5139456,0.2907575,0.9317982,0.05534363,-0.03330994,0.9979095,35.50887,5.856613,-27.90334,4.729523,0.3945375,0.3819737,0.02541244,1.223507,-0.0120275,-0.004813658,-0.00176475,-0.03020815,3.272014,34.69028,31.686885286170476
1,0.003433228,-0.001571655,0.9999847,0.8095832,-0.05117798,0.03179932,0.9981689,-31.9877,7.987793,-26.30426,4.964386,0.5139456,0.2907575,0.9317982,0.05534363,-0.03330994,0.9979095,35.50887,5.856613,-27.90334,4.729523,0.3945375,0.3819737,0.02541244,1.223507,-0.0120275,-0.004813658,-0.00176475,-0.03020815,3.272014,34.69028,31.686885286170476
1,-0.003662109,0.0005187988,0.9999847,0.8153405,-0.05047607,0.03785706,0.9980011,-31.99086,7.989868,-26.29465,4.957764,0.5139456,0.2895728,0.9433892,0.05212402,-0.04397583,0.9976654,35.50758,5.87677,-27.95442,4.687195,0.3951022,0.3835419,0.02533495,1.223496,-0.01198417,-0.004591856,-0.001747781,-0.03003996,3.272014,34.69028,31.686885286170476
1,-0.003662109,0.0005187988,0.9999847,0.8153405,-0.05047607,0.03785706,0.9980011,-31.99086,7.989868,-26.29465,4.957764,0.5139456,0.2895728,0.9433892,0.05212402,-0.04397583,0.9976654,35.50758,5.87677,-27.95442,4.687195,0.3951022,0.3835419,0.02533495,1.223496,-0.01198417,-0.004591856,-0.001747781,-0.03003996,3.272014,34.69028,31.686885286170476
1,-0.01142883,0.009124756,0.9998779,0.8300249,-0.0504303,0.04104614,0.997879,-31.99086,7.990601,-26.29465,4.948669,0.5139456,0.2890024,0.9431061,0.05082703,-0.04182434,0.997818,35.50502,5.894516,-28.02863,4.669556,0.3953626,0.383182,0.02536905,1.223484,-0.01195586,-0.004635458,-0.001768967,-0.03013135,3.272014,34.69028,31.686885286170476
1,-0.01142883,0.009124756,0.9998779,0.8300249,-0.0504303,0.04104614,0.997879,-31.99086,7.990601,-26.29465,4.948669,0.5139456,0.2890024,0.9431061,0.05082703,-0.04182434,0.997818,35.50502,5.894516,-28.02863,4.669556,0.3953626,0.383182,0.02536905,1.223484,-0.01195586,-0.004635458,-0.001768967,-0.03013135,3.272014,34.69028,31.686885286170476
1,-0.02980042,0.02510071,0.9992371,0.8315224,-0.05126953,0.04148865,0.997818,-31.99086,7.993149,-26.31537,4.92955,0.5140898,0.2890024,0.9508519,0.04917908,-0.03517151,0.9981689,35.50142,5.924545,-28.15274,4.47934,0.3957111,0.3819737,0.02529562,1.223434,-0.01195627,-0.004567453,-0.001843221,-0.03001441,3.272014,34.69028,31.686885286170476
1,-0.02980042,0.02510071,0.9992371,0.8315224,-0.05126953,0.04148865,0.997818,-31.99086,7.993149,-26.31537,4.92955,0.5140898,0.2890024,0.9508519,0.04917908,-0.03517151,0.9981689,35.50142,5.924545,-28.15274,4.47934,0.3957111,0.3819737,0.02529562,1.223434,-0.01195627,-0.004567453,-0.001843221,-0.03001441,3.272014,34.69028,31.686885286170476
1,-0.03178406,0.03083801,0.9990082,0.8228828,-0.05018616,0.0476532,0.9975891,-31.99086,7.994873,-26.32269,4.918594,0.5139288,0.2879307,0.9493381,0.04933167,-0.04327393,0.9978333,35.49881,5.930161,-28.17189,4.459442,0.3957635,0.3833391,0.02524674,1.223484,-0.0119192,-0.00479194,-0.001910703,-0.02969974,3.272014,34.69028,31.686885286170476
1,-0.03178406,0.03083801,0.9990082,0.8228828,-0.05018616,0.0476532,0.9975891,-31.99086,7.994873,-26.32269,4.918594,0.5139288,0.2879307,0.9493381,0.04933167,-0.04327393,0.9978333,35.49881,5.930161,-28.17189,4.459442,0.3957635,0.3833391,0.02524674,1.223484,-0.0119192,-0.00479194,-0.001910703,-0.02969974,3.272014,34.69028,31.686885286170476
1,-0.03160095,0.03067017,0.9990234,0.8398801,-0.05039978,0.0479126,0.9975739,-31.98981,7.995728,-26.32564,4.910675,0.5139288,0.2878785,0.9581043,0.04931641,-0.04356384,0.997818,35.49733,5.937607,-28.19678,4.452744,0.3958009,0.3833391,0.0251838,1.223518,-0.01196069,-0.004978015,-0.001987161,-0.03007566,3.272014,34.69028,31.686885286170476
1,-0.03160095,0.03067017,0.9990234,0.8398801,-0.05039978,0.0479126,0.9975739,-31.98981,7.995728,-26.32564,4.910675,0.5139288,0.2878785,0.9581043,0.04931641,-0.04356384,0.997818,35.49733,5.937607,-28.19678,4.452744,0.3958009,0.3833391,0.0251838,1.223518,-0.01196069,-0.004978015,-0.001987161,-0.03007566,3.272014,34.69028,31.686885286170476
1,-0.03160095,0.03067017,0.9990234,0.8398801,-0.05039978,0.0479126,0.9975739,-31.98981,7.995728,-26.32564,4.910675,0.5139288,0.2878785,0.9581043,0.04931641,-0.04356384,0.997818,35.49733,5.937607,-28.19678,4.452744,0.3958009,0.3833391,0.0251807,1.223441,-0.01204431,-0.004710396,-0.001855308,-0.03012467,3.272014,62.35089,31.686885286170476
1,-0.03160095,0.03067017,0.9990234,0.8398801,-0.05039978,0.0479126,0.9975739,-31.98981,7.995728,-26.32564,4.910675,0.5139288,0.2878785,0.9581043,0.04931641,-0.04356384,0.997818,35.49733,5.937607,-28.19678,4.452744,0.3958009,0.3833391,0.0251807,1.223441,-0.01204431,-0.004710396,-0.001855308,-0.03012467,3.272014,62.35089,31.686885286170476
1,-0.02960205,0.02850342,0.9991455,0.8398801,-0.05091858,0.04893494,0.9974976,-31.9861,8.00293,-26.36928,4.86142,0.5139092,0.2877749,0.9581043,0.04707336,-0.04498291,0.9978638,35.49254,5.96698,-28.31525,4.415268,0.3962756,0.3835419,0.02527142,1.22346,-0.01213431,-0.00446684,-0.001972106,-0.0299142,3.272014,62.35089,31.686885286170476
1,-0.02960205,0.02850342,0.9991455,0.8398801,-0.05091858,0.04893494,0.9974976,-31.9861,8.00293,-26.36928,4.86142,0.5139092,0.2877749,0.9581043,0.04707336,-0.04498291,0.9978638,35.49254,5.96698,-28.31525,4.415268,0.3962756,0.3835419,0.02527142,1.22346,-0.01213431,-0.00446684,-0.001972106,-0.0299142,3.272014,62.35089,31.686885286170476
1,-0.04650879,0.04229736,0.9980164,0.8646549,-0.04779053,0.04328918,0.9979095,-31.97169,7.952881,-26.23714,4.591476,0.5128594,0.2895281,0.9638551,0.05099487,-0.03276062,0.9981537,35.48308,6.017868,-28.65918,4.265167,0.3957129,0.3824683,0.02526605,1.223471,-0.01213259,-0.00468661,-0.002064396,-0.02982165,3.272014,62.35089,31.686885286170476
1,-0.04650879,0.04229736,0.9980164,0.8646549,-0.04779053,0.04328918,0.9979095,-31.97169,7.952881,-26.23714,4.591476,0.5128594,0.2895281,0.9638551,0.05099487,-0.03276062,0.9981537,35.48308,6.017868,-28.65918,4.265167,0.3957129,0.3824683,0.02526605,1.223471,-0.01213259,-0.00468661,-0.002064396,-0.02982165,3.272014,62.35089,31.686885286170476
1,-0.04492188,0.03623962,0.9983215,0.8762765,-0.04759216,0.03794861,0.9981384,-31.96541,7.960129,-26.26624,4.537354,0.5126199,0.2903995,0.9695604,0.05335999,-0.02668762,0.9982147,35.48308,6.037064,-28.70973,4.285583,0.3952691,0.3811609,0.02524793,1.223471,-0.01215351,-0.004810561,-0.001941647,-0.02983889,3.272014,62.35089,31.686885286170476
1,-0.04492188,0.03623962,0.9983215,0.8762765,-0.04759216,0.03794861,0.9981384,-31.96541,7.960129,-26.26624,4.537354,0.5126199,0.2903995,0.9695604,0.05335999,-0.02668762,0.9982147,35.48308,6.037064,-28.70973,4.285583,0.3952691,0.3811609,0.02524793,1.223471,-0.01215351,-0.004810561,-0.001941647,-0.02983889,3.272014,62.35089,31.686885286170476
1,-0.01591492,0.01893616,0.9996796,0.8785427,-0.04840088,0.03979492,0.9980316,-31.96094,7.967316,-26.30089,4.53569,0.5126199,0.2900926,0.9636295,0.05395508,-0.02593994,0.9981995,35.4818,6.045776,-28.73407,4.284195,0.395195,0.380932,0.02526057,1.223476,-0.01219672,-0.00487059,-0.001983408,-0.02995975,3.272014,62.35089,31.686885286170476
1,-0.01591492,0.01893616,0.9996796,0.8785427,-0.04840088,0.03979492,0.9980316,-31.96094,7.967316,-26.30089,4.53569,0.5126199,0.2900926,0.9636295,0.05395508,-0.02593994,0.9981995,35.4818,6.045776,-28.73407,4.284195,0.395195,0.380932,0.02526057,1.223476,-0.01219672,-0.00487059,-0.001983408,-0.02995975,3.272014,62.35089,31.686885286170476
1,0.05178833,-0.02470398,0.9983521,0.8849292,-0.05526733,0.03134155,0.9979706,-31.92046,8.160202,-26.94414,4.502792,0.5126188,0.2896538,0.96128,0.05427551,-0.02600098,0.9981842,35.4799,6.047485,-28.75243,4.278381,0.395192,0.3810333,0.02531505,1.223494,-0.01224554,-0.00493442,-0.002071602,-0.02985162,3.272014,62.35089,31.686885286170476
1,0.05178833,-0.02470398,0.9983521,0.8849292,-0.05526733,0.03134155,0.9979706,-31.92046,8.160202,-26.94414,4.502792,0.5126188,0.2896538,0.96128,0.05427551,-0.02600098,0.9981842,35.4799,6.047485,-28.75243,4.278381,0.395192,0.3810333,0.02531505,1.223494,-0.01224554,-0.00493442,-0.002071602,-0.02985162,3.272014,62.35089,31.686885286170476
1,0.05490112,-0.02571106,0.9981537,0.8909656,-0.05525208,0.02354431,0.9981842,-31.91991,8.162247,-26.95673,4.477127,0.5126004,0.2909012,0.9718584,0.05493164,-0.02572632,0.9981537,35.47659,6.049026,-28.75261,4.272781,0.395195,0.380932,0.02529585,1.223538,-0.01218855,-0.004913236,-0.001867317,-0.02986759,3.272014,62.35089,31.686885286170476
1,0.05490112,-0.02571106,0.9981537,0.8909656,-0.05525208,0.02354431,0.9981842,-31.91991,8.162247,-26.95673,4.477127,0.5126004,0.2909012,0.9718584,0.05493164,-0.02572632,0.9981537,35.47659,6.049026,-28.75261,4.272781,0.395195,0.380932,0.02529585,1.223538,-0.01218855,-0.004913236,-0.001867317,-0.02986759,3.272014,62.35089,31.686885286170476
1,0.05490112,-0.02571106,0.9981537,0.8909656,-0.05525208,0.02354431,0.9981842,-31.91991,8.162247,-26.95673,4.477127,0.5126004,0.2909012,0.9718584,0.05493164,-0.02572632,0.9981537,35.47659,6.049026,-28.75261,4.272781,0.395195,0.380932,0.02529585,1.223538,-0.01218855,-0.004913236,-0.001867317,-0.02986759,3.272014,62.35089,31.686885286170476
1,0.05487061,-0.02363586,0.9981995,0.9082608,-0.05609131,0.02171326,0.9981842,-31.91531,8.167191,-26.9752,4.4496,0.5125917,0.2911896,0.9724949,0.05517578,-0.02375793,0.9981842,35.47527,6.051163,-28.76466,4.266479,0.395192,0.3806174,0.02529728,1.223547,-0.01224077,-0.004988481,-0.001891105,-0.03004021,3.272014,62.35089,31.686885286170476
1,0.02218628,-0.009063721,0.9997101,0.9051523,-0.05670166,0.02520752,0.9980621,-31.91283,8.167801,-26.9827,4.449066,0.5126188,0.2906128,0.9683448,0.05537415,-0.02346802,0.9981842,35.47372,6.055344,-28.78473,4.260895,0.3951979,0.3805882,0.02537239,1.2236,-0.0122745,-0.005109485,-0.001843221,-0.03021826,3.272014,22.33405,31.686885286170476
1,0.02218628,-0.009063721,0.9997101,0.9051523,-0.05670166,0.02520752,0.9980621,-31.91283,8.167801,-26.9827,4.449066,0.5126188,0.2906128,0.9683448,0.05537415,-0.02346802,0.9981842,35.47372,6.055344,-28.78473,4.260895,0.3951979,0.3805882,0.02537239,1.2236,-0.0122745,-0.005109485,-0.001843221,-0.03021826,3.272014,22.33405,31.686885286170476
1,0.003189087,-0.002365112,0.9999847,0.9051523,-0.05683899,0.0219574,0.9981384,-31.91235,8.167801,-26.98334,4.430328,0.5126188,0.2911896,0.9683448,0.05627441,-0.02388,0.9981232,35.47107,6.0569,-28.78712,4.251785,0.3951335,0.3806174,0.02547121,1.22353,-0.0123024,-0.0052405,-0.001831055,-0.03012121,3.272014,22.33405,31.686885286170476
1,0.003189087,-0.002365112,0.9999847,0.9051523,-0.05683899,0.0219574,0.9981384,-31.91235,8.167801,-26.98334,4.430328,0.5126188,0.2911896,0.9683448,0.05627441,-0.02388,0.9981232,35.47107,6.0569,-28.78712,4.251785,0.3951335,0.3806174,0.02547121,1.22353,-0.0123024,-0.0052405,-0.001831055,-0.03012121,3.272014,22.33405,31.686885286170476
1,0.003189087,-0.002365112,0.9999847,0.9051523,-0.05683899,0.0219574,0.9981384,-31.91235,8.167801,-26.98334,4.430328,0.5126188,0.2911896,0.9683448,0.05627441,-0.02388,0.9981232,35.47107,6.0569,-28.78712,4.251785,0.3951335,0.3806174,0.0254854,1.223588,-0.01228738,-0.005364154,-0.001678189,-0.03024414,3.272014,22.33405,31.686885286170476
1,0.003189087,-0.002365112,0.9999847,0.9051523,-0.05683899,0.0219574,0.9981384,-31.91235,8.167801,-26.98334,4.430328,0.5126188,0.2911896,0.9683448,0.05627441,-0.02388,0.9981232,35.47107,6.0569,-28.78712,4.251785,0.3951335,0.3806174,0.0254854,1.223588,-0.01228738,-0.005364154,-0.001678189,-0.03024414,3.272014,22.33405,31.686885286170476
1,0.003189087,-0.002365112,0.9999847,0.9051523,-0.05683899,0.0219574,0.9981384,-31.91235,8.167801,-26.98334,4.430328,0.5126188,0.2911896,0.9683448,0.05627441,-0.02388,0.9981232,35.47107,6.0569,-28.78712,4.251785,0.3951335,0.3806174,0.0255717,1.223512,-0.01225269,-0.005216275,-0.00148505,-0.03051465,3.272014,22.33405,31.686885286170476
1,0.003189087,-0.002365112,0.9999847,0.9051523,-0.05683899,0.0219574,0.9981384,-31.91235,8.167801,-26.98334,4.430328,0.5126188,0.2911896,0.9683448,0.05627441,-0.02388,0.9981232,35.47107,6.0569,-28.78712,4.251785,0.3951335,0.3806174,0.0255717,1.223512,-0.01225269,-0.005216275,-0.00148505,-0.03051465,3.272014,22.33405,31.686885286170476
1,-0.1382294,0.1010742,0.9852142,0.9185742,-0.1384583,0.1012115,0.9851685,-32.2919,8.283203,-26.31805,4.476746,0.5389475,0.268647,0.9602075,-0.02510071,0.03884888,0.9989166,34.92747,5.939743,-27.47122,4.226166,0.4284745,0.3634978,0.0256325,1.22343,-0.01220953,-0.004929888,-0.001342773,-0.03041952,3.272014,22.33405,31.686885286170476
1,-0.1382294,0.1010742,0.9852142,0.9185742,-0.1384583,0.1012115,0.9851685,-32.2919,8.283203,-26.31805,4.476746,0.5389475,0.268647,0.9602075,-0.02510071,0.03884888,0.9989166,34.92747,5.939743,-27.47122,4.226166,0.4284745,0.3634978,0.0256325,1.22343,-0.01220953,-0.004929888,-0.001342773,-0.03041952,3.272014,22.33405,31.686885286170476
1,-0.1511993,0.07804871,0.9854126,0.9693035,-0.1512146,0.07804871,0.9854126,-32.31184,8.263565,-26.33321,4.332962,0.5416697,0.2736158,0.9702833,-0.02900696,0.03501892,0.9989624,34.9507,5.928741,-27.45676,4.208511,0.428362,0.3644392,0.02565098,1.223398,-0.0120545,-0.004735636,-0.001407783,-0.03031549,3.272014,22.33405,31.686885286170476
1,-0.1511993,0.07804871,0.9854126,0.9693035,-0.1512146,0.07804871,0.9854126,-32.31184,8.263565,-26.33321,4.332962,0.5416697,0.2736158,0.9702833,-0.02900696,0.03501892,0.9989624,34.9507,5.928741,-27.45676,4.208511,0.428362,0.3644392,0.02565098,1.223398,-0.0120545,-0.004735636,-0.001407783,-0.03031549,3.272014,22.33405,31.686885286170476
1,-0.1472931,0.05917358,0.9873199,0.9741988,-0.1492767,0.05973816,0.9869843,-32.31464,8.262222,-26.31256,4.317413,0.5413624,0.276694,0.9686205,-0.03175354,0.026474,0.9991302,34.96495,5.918457,-27.43042,4.171082,0.428355,0.3660398,0.02566564,1.223356,-0.01206803,-0.004707231,-0.001177203,-0.03033908,3.272014,22.33405,31.686885286170476
1,-0.1472931,0.05917358,0.9873199,0.9741988,-0.1492767,0.05973816,0.9869843,-32.31464,8.262222,-26.31256,4.317413,0.5413624,0.276694,0.9686205,-0.03175354,0.026474,0.9991302,34.96495,5.918457,-27.43042,4.171082,0.428355,0.3660398,0.02566564,1.223356,-0.01206803,-0.004707231,-0.001177203,-0.03033908,3.272014,22.33405,31.686885286170476
1,-0.08580017,0.04170227,0.9954376,1.0,-0.1471558,0.06442261,0.9869995,-32.31992,8.237762,-26.21056,4.32196,0.5411368,0.2759806,1.0,-0.03469849,0.0227356,0.9991302,34.97998,5.914322,-27.41968,4.156631,0.428348,0.3667321,0.02563226,1.223327,-0.01201624,-0.004612901,-0.001170857,-0.0303403,3.272014,-35.36743,31.686885286170476
1,-0.08580017,0.04170227,0.9954376,1.0,-0.1471558,0.06442261,0.9869995,-32.31992,8.237762,-26.21056,4.32196,0.5411368,0.2759806,1.0,-0.03469849,0.0227356,0.9991302,34.97998,5.914322,-27.41968,4.156631,0.428348,0.3667321,0.02563226,1.223327,-0.01201624,-0.004612901,-0.001170857,-0.0303403,3.272014,-35.36743,31.686885286170476
1,-0.08348083,0.03927612,0.9957275,1.0,-0.1475372,0.06123352,0.9871521,-32.32512,8.254517,-26.28308,4.30159,0.5414059,0.2765106,1.0,-0.03466797,0.02250671,0.9991302,34.97995,5.914322,-27.42761,4.132278,0.428348,0.366819,0.02566397,1.223244,-0.01192105,-0.004409763,-0.001084985,-0.03033662,3.272014,-35.36743,31.686885286170476
1,-0.08198547,0.03970337,0.9958344,1.0,-0.1451416,0.061203,0.9875031,-32.3282,8.261581,-26.32069,4.298782,0.5411368,0.2765106,1.0,-0.03448486,0.02348328,0.999115,34.97888,5.912689,-27.44115,4.128281,0.428348,0.366819,0.02565563,1.223222,-0.01190221,-0.004321013,-0.0009841623,-0.03033318,3.272014,-35.36743,31.686885286170476
1,-0.08198547,0.03970337,0.9958344,1.0,-0.1451416,0.061203,0.9875031,-32.3282,8.261581,-26.32069,4.298782,0.5411368,0.2765106,1.0,-0.03448486,0.02348328,0.999115,34.97888,5.912689,-27.44115,4.128281,0.428348,0.366819,0.02565563,1.223222,-0.01190221,-0.004321013,-0.0009841623,-0.03033318,3.272014,-35.36743,31.686885286170476
1,-0.08082581,0.03988647,0.9959259,1.0,-0.1457977,0.06367493,0.9872589,-32.33138,8.247482,-26.32585,4.28186,0.5413624,0.2766031,1.0,-0.0335083,0.02253723,0.999176,34.97888,5.911438,-27.41968,4.121246,0.4281937,0.3668465,0.02559054,1.223143,-0.01181489,-0.004030169,-0.001006618,-0.03040556,3.272014,-35.36743,31.686885286170476
1,-0.08082581,0.03988647,0.9959259,1.0,-0.1457977,0.06367493,0.9872589,-32.33138,8.247482,-26.32585,4.28186,0.5413624,0.2766031,1.0,-0.0335083,0.02253723,0.999176,34.97888,5.911438,-27.41968,4.121246,0.4281937,0.3668465,0.02559054,1.223143,-0.01181489,-0.004030169,-0.001006618,-0.03040556,3.272014,-35.36743,31.686885286170476
1,-0.08247375,0.03971863,0.9957886,1.0,-0.1456757,0.06292725,0.9873199,-32.3331,8.237228,-26.27028,4.280716,0.5413624,0.276694,1.0,-0.03411865,0.02194214,0.999176,34.97888,5.904999,-27.39449,4.113312,0.428306,0.3669575,0.02561593,1.223071,-0.01176447,-0.004068807,-0.001098633,-0.03055247,3.272014,-35.36743,31.686885286170476
1,-0.08399963,0.04042053,0.995636,1.0,-0.1462402,0.06187439,0.9873047,-32.334,8.228714,-26.20844,4.283295,0.5414495,0.2767175,1.0,-0.03364563,0.02302551,0.9991608,34.97681,5.898819,-27.39188,4.098053,0.428306,0.3669575,0.0255729,1.223083,-0.01179135,-0.00378418,-0.001112113,-0.03046211,3.272014,-35.36743,31.686885286170476
2,-0.07951355,0.0395813,0.9960327,1.0,-0.1464233,0.06369019,0.9871674,-32.33597,8.22374,-26.20844,4.284225,0.5415452,0.2766031,1.0,-0.03355408,0.022995,0.9991608,34.97629,5.898819,-27.39188,4.098114,0.428306,0.3669575,0.02547038,1.22294,-0.0116052,-0.003556837,-0.001071163,-0.03069601,3.272014,-35.36743,31.686885286170476
2,-0.07951355,0.0395813,0.9960327,1.0,-0.1464233,0.06369019,0.9871674,-32.33597,8.22374,-26.20844,4.284225,0.5415452,0.2766031,1.0,-0.03355408,0.022995,0.9991608,34.97629,5.898819,-27.39188,4.098114,0.428306,0.3669575,0.02547038,1.22294,-0.0116052,-0.003556837,-0.001071163,-0.03069601,3.272014,-35.36743,31.686885286170476
2,-0.08004761,0.04324341,0.9958496,1.0,-0.1459656,0.06367493,0.9872284,-32.34021,8.22374,-26.20844,4.252945,0.5416195,0.2766031,1.0,-0.0344696,0.02906799,0.9989777,34.97537,5.895874,-27.37634,4.090088,0.4285069,0.3658999,0.02542281,1.222774,-0.01148266,-0.003376298,-0.001286091,-0.03089826,3.272014,-35.36743,31.686885286170476
2,-0.08004761,0.04324341,0.9958496,1.0,-0.1459656,0.06367493,0.9872284,-32.34021,8.22374,-26.20844,4.252945,0.5416195,0.2766031,1.0,-0.0344696,0.02906799,0.9989777,34.97537,5.895874,-27.37634,4.090088,0.4285069,0.3658999,0.02542281,1.222774,-0.01148266,-0.003376298,-0.001286091,-0.03089826,3.272014,-35.36743,31.686885286170476
2,-0.08163452,0.04371643,0.995697,1.0,-0.1459808,0.06216431,0.9873199,-32.34167,8.211914,-26.13437,4.247482,0.541626,0.2767175,1.0,-0.03327942,0.02978516,0.9989929,34.97534,5.895584,-27.375,4.090469,0.428306,0.365774,0.02539968,1.222641,-0.01133293,-0.003039526,-0.001337213,-0.03069965,3.272014,-35.36743,31.686885286170476
2,-0.08163452,0.04371643,0.995697,1.0,-0.1459808,0.06216431,0.9873199,-32.34167,8.211914,-26.13437,4.247482,0.541626,0.2767175,1.0,-0.03327942,0.02978516,0.9989929,34.97534,5.895584,-27.375,4.090469,0.428306,0.365774,0.02528417,1.222587,-0.01120406,-0.002828767,-0.001459749,-0.03073822,3.272014,-35.36743,31.686885286170476
2,-0.08163452,0.04371643,0.995697,1.0,-0.1459808,0.06216431,0.9873199,-32.34167,8.211914,-26.13437,4.247482,0.541626,0.2767175,1.0,-0.03327942,0.02978516,0.9989929,34.97534,5.895584,-27.375,4.090469,0.428306,0.365774,0.02526009,1.222519,-0.01112604,-0.002693857,-0.001548899,-0.03069019,3.272014,-35.36743,31.686885286170476
2,-0.08163452,0.04371643,0.995697,1.0,-0.1459808,0.06216431,0.9873199,-32.34167,8.211914,-26.13437,4.247482,0.541626,0.2767175,1.0,-0.03327942,0.02978516,0.9989929,34.97534,5.895584,-27.375,4.090469,0.428306,0.365774,0.02526009,1.222519,-0.01112604,-0.002693857,-0.001548899,-0.03069019,3.272014,-35.36743,31.686885286170476
2,-0.08163452,0.04371643,0.995697,1.0,-0.1459808,0.06216431,0.9873199,-32.34167,8.211914,-26.13437,4.247482,0.541626,0.2767175,1.0,-0.03327942,0.02978516,0.9989929,34.97534,5.895584,-27.375,4.090469,0.428306,0.365774,0.02515137,1.222507,-0.01097822,-0.002401406,-0.00162404,-0.03072367,3.272014,-84.59824,31.686885286170476
2,-0.08148193,0.04347229,0.9957123,1.0,-0.1458588,0.06213379,0.9873352,-32.3427,8.208435,-26.11362,4.236755,0.541626,0.2767175,1.0,-0.03471375,0.02986145,0.9989471,34.97513,5.895111,-27.37463,4.088608,0.428558,0.365774,0.02511191,1.222455,-0.01090324,-0.002220875,-0.001509926,-0.03067416,3.272014,-84.59824,31.686885286170476
2,-0.08148193,0.04347229,0.9957123,1.0,-0.1458588,0.06213379,0.9873352,-32.3427,8.208435,-26.11362,4.236755,0.541626,0.2767175,1.0,-0.03471375,0.02986145,0.9989471,34.97513,5.895111,-27.37463,4.088608,0.428558,0.365774,0.02511191,1.222455,-0.01090324,-0.002220875,-0.001509926,-0.03067416,3.272014,-84.59824,31.686885286170476
2,-0.04530334,0.03118896,0.9984741,1.0,-0.1478119,0.05062866,0.9877167,-32.37001,8.169922,-25.79533,4.152069,0.5426534,0.2777716,1.0,-0.03431702,0.02909851,0.9989777,34.96764,5.893463,-27.35303,4.059158,0.4287627,0.365774,0.02508104,1.222406,-0.01083708,-0.001964536,-0.001519763,-0.03075421,3.272014,-84.59824,31.686885286170476
2,-0.03578186,0.02838135,0.9989471,1.0,-0.1473083,0.0459137,0.9880219,-32.37138,8.16835,-25.79533,4.153625,0.5425905,0.2786793,1.0,-0.03372192,0.02806091,0.9990234,34.96364,5.893463,-27.34586,4.058731,0.4288002,0.3658999,0.02503216,1.222296,-0.01070368,-0.001687045,-0.001614838,-0.03077262,3.272014,-84.59824,31.686885286170476
2,-0.03578186,0.02838135,0.9989471,1.0,-0.1473083,0.0459137,0.9880219,-32.37138,8.16835,-25.79533,4.153625,0.5425905,0.2786793,1.0,-0.03372192,0.02806091,0.9990234,34.96364,5.893463,-27.34586,4.058731,0.4288002,0.3658999,0.02503216,1.222296,-0.01070368,-0.001687045,-0.001614838,-0.03077262,3.272014,-84.59824,31.686885286170476
2,-0.03904724,0.02961731,0.9987946,1.0,-0.1467743,0.05076599,0.987854,-32.37349,8.16922,-25.79834,4.155579,0.5425899,0.2778251,1.0,-0.03230286,0.02827454,0.9990692,34.95732,5.893997,-27.32864,4.059601,0.4287814,0.3657035,0.02505672,1.222169,-0.01057506,-0.001326023,-0.001572766,-0.03070111,3.272014,-84.59824,31.686885286170476
2,-0.06782532,0.03448486,0.9970856,1.0,-0.1462097,0.05073547,0.9879456,-32.37622,8.16922,-25.79834,4.145844,0.5425899,0.2778251,1.0,-0.0322876,0.02706909,0.9990997,34.95674,5.89859,-27.32268,4.059723,0.4288002,0.3657035,0.02504551,1.222083,-0.0104804,-0.001145121,-0.001524658,-0.03061605,3.272014,-84.59824,31.686885286170476
2,-0.06782532,0.03448486,0.9970856,1.0,-0.1462097,0.05073547,0.9879456,-32.37622,8.16922,-25.79834,4.145844,0.5425899,0.2778251,1.0,-0.0322876,0.02706909,0.9990997,34.95674,5.89859,-27.32268,4.059723,0.4288002,0.3657035,0.02504551,1.222083,-0.0104804,-0.001145121,-0.001524658,-0.03061605,3.272014,-84.59824,31.686885286170476
2,-0.09265137,0.03953552,0.9949036,1.0,-0.1459656,0.05058289,0.9879913,-32.37758,8.169083,-25.7933,4.152481,0.5425899,0.2778251,1.0,-0.03396606,0.02729797,0.9990387,34.95674,5.91066,-27.31458,4.074127,0.4290867,0.3651999,0.02505887,1.222008,-0.01041454,-0.001013992,-0.001614838,-0.03066687,3.272014,-84.59824,31.686885286170476
2,-0.0925293,0.04092407,0.9948578,1.0,-0.1459045,0.05104065,0.9879761,-32.37872,8.168686,-25.78973,4.148514,0.5426186,0.2777318,1.0,-0.03518677,0.02998352,0.9989166,34.95674,5.911469,-27.30681,4.058777,0.4293032,0.3646445,0.02497578,1.221909,-0.01025915,-0.0005725605,-0.001582212,-0.03068557,3.272014,-84.59824,31.686885286170476
2,-0.09217834,0.04096985,0.9948883,1.0,-0.1459961,0.05128479,0.9879456,-32.37915,8.16835,-25.78819,4.147919,0.5426466,0.2776919,1.0,-0.03518677,0.02996826,0.9989166,34.95674,5.911469,-27.30597,4.058853,0.4293032,0.3646445,0.02494133,1.221833,-0.01017582,-0.0005033088,-0.001651337,-0.03061094,3.272014,-84.59824,31.686885286170476
2,-0.09217834,0.04096985,0.9948883,1.0,-0.1459961,0.05128479,0.9879456,-32.37915,8.16835,-25.78819,4.147919,0.5426466,0.2776919,1.0,-0.03518677,0.02996826,0.9989166,34.95674,5.911469,-27.30597,4.058853,0.4293032,0.3646445,0.02494133,1.221833,-0.01017582,-0.0005033088,-0.001651337,-0.03061094,3.272014,-84.59824,31.686885286170476
2,-0.08987427,0.04350281,0.9949951,1.0,-0.1455536,0.05657959,0.9877167,-32.37915,8.16835,-25.78819,4.147736,0.542591,0.2767764,1.0,-0.03561401,0.03068542,0.9988861,34.95708,5.912567,-27.30367,4.059387,0.4293662,0.3644649,0.02491462,1.221828,-0.01008809,-0.000345267,-0.001600937,-0.03062384,3.272014,-84.59824,31.686885286170476
2,-0.07028198,0.06971741,0.9950714,1.0,-0.1353912,0.08770752,0.9868927,-32.26392,8.296997,-26.15186,4.321594,0.537343,0.269636,1.0,-0.01199341,0.05343628,0.9984894,35.02019,6.004074,-27.64516,4.190765,0.4230477,0.3601716,0.02491772,1.221764,-0.01006949,-0.000345267,-0.001600937,-0.03063503,3.272014,-9.998688,31.686885286170476
2,-0.0663147,0.1202087,0.9905243,1.0,-0.0668335,0.1207123,0.9904327,-32.03148,8.234543,-26.12567,4.441147,0.5182514,0.2653445,1.0,0.03988647,0.01820374,0.9990234,35.18588,6.285889,-28.73128,4.064026,0.4078984,0.3650258,0.02488315,1.221723,-0.00996232,-0.000211432,-0.001687045,-0.03073967,3.272014,-9.998688,31.686885286170476
2,-0.0663147,0.1202087,0.9905243,1.0,-0.0668335,0.1207123,0.9904327,-32.03148,8.234543,-26.12567,4.441147,0.5182514,0.2653445,1.0,0.03988647,0.01820374,0.9990234,35.18588,6.285889,-28.73128,4.064026,0.4078984,0.3650258,0.02488315,1.221723,-0.00996232,-0.000211432,-0.001687045,-0.03073967,3.272014,-9.998688,31.686885286170476
2,-0.06369019,0.07707214,0.9949799,1.0,-0.06369019,0.07707214,0.9949799,-32.004,8.18306,-26.04846,4.299011,0.5166546,0.2743346,1.0,0.03855896,0.0146637,0.9991455,35.23946,6.271118,-28.7679,4.028107,0.4062414,0.3663772,0.02487469,1.221642,-0.009910285,-0.000211432,-0.001687045,-0.03082293,3.272014,-9.998688,31.686885286170476
2,-0.06269836,0.07781982,0.9949799,1.0,-0.06269836,0.07781982,0.9949799,-32.00923,8.171371,-26.00772,4.265518,0.51665,0.2743222,1.0,0.03697205,-0.004867554,0.9992981,35.24364,6.24556,-28.68814,3.86647,0.4064447,0.369981,0.0248512,1.221501,-0.009853601,0.0001726335,-0.001867317,-0.03076995,3.272014,-9.998688,31.686885286170476
2,-0.06138611,0.08273315,0.9946747,1.0,-0.06138611,0.08273315,0.9946747,-32.01595,8.162003,-25.98038,4.337021,0.51665,0.2736139,1.0,0.03993225,0.0007019043,0.9991913,35.24815,6.225784,-28.61679,3.86998,0.405821,0.3691014,0.02481961,1.221424,-0.009824157,0.000211432,-0.001863322,-0.03066201,3.272014,-9.998688,31.686885286170476
2,-0.06138611,0.08273315,0.9946747,1.0,-0.06138611,0.08273315,0.9946747,-32.01595,8.162003,-25.98038,4.337021,0.51665,0.2736139,1.0,0.03993225,0.0007019043,0.9991913,35.24815,6.225784,-28.61679,3.86998,0.405821,0.3691014,0.02481961,1.221424,-0.009824157,0.000211432,-0.001863322,-0.03066201,3.272014,-9.998688,31.686885286170476
2,-0.05142212,0.07250977,0.9960327,1.0,-0.06141663,0.08041382,0.9948578,-32.01643,8.168991,-25.95686,4.337463,0.5166591,0.2736139,1.0,0.03857422,0.001037598,0.9992523,35.25598,6.214081,-28.55688,3.872025,0.405821,0.368956,0.02479255,1.221444,-0.009817719,0.0,-0.001898968,-0.03064865,3.272014,-9.998688,31.686885286170476
2,-0.05142212,0.07250977,0.9960327,1.0,-0.06141663,0.08041382,0.9948578,-32.01643,8.168991,-25.95686,4.337463,0.5166591,0.2736139,1.0,0.03857422,0.001037598,0.9992523,35.25598,6.214081,-28.55688,3.872025,0.405821,0.368956,0.02479255,1.221444,-0.009817719,0.0,-0.001898968,-0.03064865,3.272014,-9.998688,31.686885286170476
2,-0.03579712,0.06007385,0.9975433,1.0,-0.06655884,0.08164978,0.9944305,-32.01949,8.173309,-25.96022,4.301147,0.5176199,0.2732875,1.0,0.03887939,0.007476807,0.9992065,35.2605,6.219101,-28.55258,3.901382,0.4056118,0.3676333,0.02476203,1.22145,-0.009681046,0.0001220703,-0.001871303,-0.03121016,3.275857,-9.998688,31.686885286170476
2,-0.03062439,0.008361816,0.9994812,1.0,-0.07333374,0.02322388,0.9970245,-31.99193,8.079971,-26.11757,4.151474,0.5177273,0.2878213,1.0,0.03869629,-0.01574707,0.999115,35.15527,6.120438,-28.75287,3.816864,0.4091891,0.3768245,0.02468526,1.22134,-0.009579241,0.0005320922,-0.001747781,-0.03117911,3.275857,-9.998688,31.686885286170476
2,-0.03062439,0.008361816,0.9994812,1.0,-0.07333374,0.02322388,0.9970245,-31.99193,8.079971,-26.11757,4.151474,0.5177273,0.2878213,1.0,0.03869629,-0.01574707,0.999115,35.15527,6.120438,-28.75287,3.816864,0.4091891,0.3768245,0.02468526,1.22134,-0.009579241,0.0005320922,-0.001747781,-0.03117911,3.275857,-9.998688,31.686885286170476
2,0.01812744,-0.05163574,0.9984894,1.0,-0.08016968,-0.006576538,0.9967499,-31.91925,8.100189,-27.17374,4.0457,0.5167083,0.3003614,1.0,0.0199585,-0.05247498,0.9984131,35.08112,5.961456,-28.92928,3.776886,0.4148656,0.3902837,0.02468526,1.22134,-0.009579241,0.0005320922,-0.001747781,-0.03117911,3.275857,-9.998688,31.686885286170476
2,0.006759644,-0.1213684,0.992569,1.0,-0.09262085,-0.08131409,0.9923706,-31.88213,7.723724,-27.09061,4.125687,0.5173072,0.3253449,1.0,0.006759644,-0.1213684,0.992569,34.91312,5.502182,-28.76726,3.785248,0.4228825,0.4169488,0.02456796,1.221264,-0.009508371,0.001098633,-0.001855308,-0.03098447,3.275857,-9.998688,31.686885286170476
2,0.006759644,-0.1213684,0.992569,1.0,-0.09262085,-0.08131409,0.9923706,-31.88213,7.723724,-27.09061,4.125687,0.5173072,0.3253449,1.0,0.006759644,-0.1213684,0.992569,34.91312,5.502182,-28.76726,3.785248,0.4228825,0.4169488,0.02456796,1.221264,-0.009508371,0.001098633,-0.001855308,-0.03098447,3.275857,-9.998688,31.686885286170476
2,0.01037598,-0.1963806,0.9804688,1.0,-0.09309387,-0.1672211,0.9815063,-31.80373,7.22496,-26.48683,3.980621,0.514398,0.352433,1.0,0.01037598,-0.1963806,0.9804688,34.80943,5.088577,-28.33162,3.815521,0.4258193,0.4406424,0.02447712,1.221175,-0.009418249,0.001280284,-0.002057165,-0.03097605,3.275857,-9.998688,31.686885286170476
2,0.01036072,-0.1980133,0.9801331,1.0,-0.0982666,-0.1828461,0.9782104,-31.88516,7.152161,-26.42444,4.069794,0.5178702,0.3571725,1.0,0.01037598,-0.1980133,0.9801331,34.90675,5.020264,-28.35489,3.841446,0.422447,0.4434354,0.02441645,1.221185,-0.009314775,0.00149505,-0.002210787,-0.03077915,3.275857,-9.998688,31.686885286170476
2,0.008865356,-0.2135925,0.9768677,1.0,-0.09205627,-0.1909485,0.9772644,-31.90585,7.159744,-26.40039,4.031647,0.517529,0.3581164,1.0,0.009124756,-0.2136383,0.9768524,34.91739,5.065811,-28.3432,3.718719,0.4222954,0.4445732,0.02431035,1.221093,-0.009298563,0.001806476,-0.002306451,-0.03087365,3.275857,5.450943,31.686885286170476
2,0.008865356,-0.2135925,0.9768677,1.0,-0.09205627,-0.1909485,0.9772644,-31.90585,7.159744,-26.40039,4.031647,0.517529,0.3581164,1.0,0.009124756,-0.2136383,0.9768524,34.91739,5.065811,-28.3432,3.718719,0.4222954,0.4445732,0.02431035,1.221093,-0.009298563,0.001806476,-0.002306451,-0.03087365,3.275857,5.450943,31.686885286170476
2,0.01278687,-0.1989594,0.9799194,0.6987835,-0.09402466,-0.182251,0.9787445,-31.93544,7.160385,-26.40184,4.079407,0.5188341,0.3565964,0.9942842,0.01383972,-0.1991119,0.9798737,34.93204,5.072159,-28.34525,3.837097,0.4210068,0.441768,0.02421534,1.22105,-0.009289622,0.00214927,-0.002441406,-0.03085072,3.275857,5.450943,31.686885286170476
2,0.01278687,-0.1989594,0.9799194,0.6987835,-0.09402466,-0.182251,0.9787445,-31.93544,7.160385,-26.40184,4.079407,0.5188341,0.3565964,0.9942842,0.01383972,-0.1991119,0.9798737,34.93204,5.072159,-28.34525,3.837097,0.4210068,0.441768,0.02421534,1.22105,-0.009289622,0.00214927,-0.002441406,-0.03085072,3.275857,5.450943,31.686885286170476
2,-0.03941345,-0.1921692,0.9805603,0.6963211,-0.09729004,-0.1820526,0.9784546,-31.93793,7.16777,-26.40504,4.044708,0.5194602,0.3563654,0.9733278,0.01179504,-0.2005463,0.979599,34.94084,5.07428,-28.35016,3.845581,0.4210479,0.4419875,0.02419913,1.221037,-0.009320378,0.002210787,-0.002404506,-0.03084106,3.275857,5.450943,31.686885286170476
2,-0.03941345,-0.1921692,0.9805603,0.6963211,-0.09729004,-0.1820526,0.9784546,-31.93793,7.16777,-26.40504,4.044708,0.5194602,0.3563654,0.9733278,0.01179504,-0.2005463,0.979599,34.94084,5.07428,-28.35016,3.845581,0.4210479,0.4419875,0.02419913,1.221037,-0.009320378,0.002210787,-0.002404506,-0.03084106,3.275857,5.450943,31.686885286170476
2,-0.04418945,-0.1882019,0.9811249,0.6905285,-0.09767151,-0.1804047,0.978714,-31.94334,7.169662,-26.40889,4.109756,0.5196959,0.35604,0.9729383,0.01025391,-0.1955414,0.9806366,34.95055,5.078094,-28.35539,3.861053,0.4209812,0.4410144,0.0242058,1.221041,-0.009292781,0.002283726,-0.002447502,-0.03081786,3.275857,5.450943,31.686885286170476
2,-0.04418945,-0.1882019,0.9811249,0.6905285,-0.09767151,-0.1804047,0.978714,-31.94334,7.169662,-26.40889,4.109756,0.5196959,0.35604,0.9729383,0.01025391,-0.1955414,0.9806366,34.95055,5.078094,-28.35539,3.861053,0.4209812,0.4410144,0.0242058,1.221041,-0.009292781,0.002283726,-0.002447502,-0.03081786,3.275857,5.450943,31.686885286170476
2,-0.04389954,-0.1858368,0.9815826,0.6959469,-0.09666443,-0.1756744,0.9796753,-31.94841,7.170044,-26.40924,4.14624,0.5196959,0.3551967,0.9666493,0.01000977,-0.1956635,0.9806061,34.95416,5.082596,-28.35603,3.861145,0.420899,0.4408858,0.02419364,1.221036,-0.00930208,0.002163092,-0.002373318,-0.0308628,3.275857,5.450943,31.686885286170476
2,-0.04389954,-0.1858368,0.9815826,0.6959469,-0.09666443,-0.1756744,0.9796753,-31.94841,7.170044,-26.40924,4.14624,0.5196959,0.3551967,0.9666493,0.01000977,-0.1956635,0.9806061,34.95416,5.082596,-28.35603,3.861145,0.420899,0.4408858,0.02419364,1.221036,-0.00930208,0.002163092,-0.002373318,-0.0308628,3.275857,5.450943,31.686885286170476
2,-0.04389954,-0.1858368,0.9815826,0.6959469,-0.09666443,-0.1756744,0.9796753,-31.94841,7.170044,-26.40924,4.14624,0.5196959,0.3551967,0.9666493,0.01000977,-0.1956635,0.9806061,34.95416,5.082596,-28.35603,3.861145,0.420899,0.4408858,0.02419364,1.221036,-0.00930208,0.002163092,-0.002373318,-0.0308628,3.275857,5.450943,31.686885286170476
2,-0.04179382,-0.1847687,0.9818878,0.6816484,-0.09646606,-0.1745453,0.9799042,-31.94981,7.170395,-26.40927,4.147629,0.5197125,0.3549882,0.9640394,0.01097107,-0.1940918,0.9809113,34.9572,5.084976,-28.35724,3.86673,0.4206333,0.4405296,0.02419579,1.221031,-0.009422064,0.002078783,-0.002410696,-0.03057855,3.275857,5.450943,31.686885286170476
2,-0.04179382,-0.1847687,0.9818878,0.6816484,-0.09646606,-0.1745453,0.9799042,-31.94981,7.170395,-26.40927,4.147629,0.5197125,0.3549882,0.9640394,0.01097107,-0.1940918,0.9809113,34.9572,5.084976,-28.35724,3.86673,0.4206333,0.4405296,0.02418017,1.221075,-0.009425998,0.001789902,-0.002432234,-0.03055442,3.275857,5.450943,31.686885286170476
2,-0.04179382,-0.1847687,0.9818878,0.6816484,-0.09646606,-0.1745453,0.9799042,-31.94981,7.170395,-26.40927,4.147629,0.5197125,0.3549882,0.9640394,0.01097107,-0.1940918,0.9809113,34.9572,5.084976,-28.35724,3.86673,0.4206333,0.4405296,0.02418017,1.221075,-0.009425998,0.001789902,-0.002432234,-0.03055442,3.275857,5.450943,31.686885286170476
2,-0.04270935,-0.1837311,0.9820404,0.6878873,-0.09811401,-0.1743927,0.9797668,-31.95184,7.169846,-26.41023,4.147705,0.5200509,0.3549882,0.9642222,0.01187134,-0.1923523,0.9812469,34.96198,5.08873,-28.35956,3.866577,0.4203185,0.440117,0.02418029,1.221103,-0.009432614,0.001664817,-0.002471736,-0.03076802,3.275857,5.450943,31.686885286170476
2,-0.04270935,-0.1837311,0.9820404,0.6878873,-0.09811401,-0.1743927,0.9797668,-31.95184,7.169846,-26.41023,4.147705,0.5200509,0.3549882,0.9642222,0.01187134,-0.1923523,0.9812469,34.96198,5.08873,-28.35956,3.866577,0.4203185,0.440117,0.02418029,1.221103,-0.009432614,0.001664817,-0.002471736,-0.03076802,3.275857,5.450943,31.686885286170476
2,-0.0415802,-0.183075,0.9822083,0.6806191,-0.1003113,-0.1719971,0.9799652,-31.95505,7.170731,-26.414,4.153793,0.5205196,0.354589,0.9648502,0.015625,-0.1931915,0.9810333,34.96979,5.096329,-28.36671,3.867905,0.4194109,0.4400608,0.02413666,1.221168,-0.009491563,0.00163319,-0.00241995,-0.0304934,3.275857,1.127884,31.686885286170476
2,-0.0415802,-0.183075,0.9822083,0.6806191,-0.1003113,-0.1719971,0.9799652,-31.95505,7.170731,-26.414,4.153793,0.5205196,0.354589,0.9648502,0.015625,-0.1931915,0.9810333,34.96979,5.096329,-28.36671,3.867905,0.4194109,0.4400608,0.02413666,1.221168,-0.009491563,0.00163319,-0.00241995,-0.0304934,3.275857,1.127884,31.686885286170476
2,-0.04148865,-0.1819305,0.9824219,0.6828957,-0.1005249,-0.1696014,0.9803619,-31.95563,7.171112,-26.41769,4.171036,0.5205758,0.3541842,0.9576003,0.01626587,-0.1933136,0.9809875,34.9715,5.098572,-28.36909,3.867798,0.4192413,0.4400221,0.02413142,1.221212,-0.009600639,0.001572766,-0.002566381,-0.03026802,3.275857,1.127884,31.686885286170476
2,-0.04148865,-0.1819305,0.9824219,0.6828957,-0.1005249,-0.1696014,0.9803619,-31.95563,7.171112,-26.41769,4.171036,0.5205758,0.3541842,0.9576003,0.01626587,-0.1933136,0.9809875,34.9715,5.098572,-28.36909,3.867798,0.4192413,0.4400221,0.02413142,1.221212,-0.009600639,0.001572766,-0.002566381,-0.03026802,3.275857,1.127884,31.686885286170476
2,-0.04148865,-0.1819305,0.9824219,0.6828957,-0.1005249,-0.1696014,0.9803619,-31.95563,7.171112,-26.41769,4.171036,0.5205758,0.3541842,0.9576003,0.01626587,-0.1933136,0.9809875,34.9715,5.098572,-28.36909,3.867798,0.4192413,0.4400221,0.02416217,1.22121,-0.009652019,0.001529537,-0.002592378,-0.03029533,3.275857,1.127884,31.686885286170476
2,-0.04148865,-0.1819305,0.9824219,0.6828957,-0.1005249,-0.1696014,0.9803619,-31.95563,7.171112,-26.41769,4.171036,0.5205758,0.3541842,0.9576003,0.01626587,-0.1933136,0.9809875,34.9715,5.098572,-28.36909,3.867798,0.4192413,0.4400221,0.02416217,1.22121,-0.009652019,0.001529537,-0.002592378,-0.03029533,3.275857,1.127884,31.686885286170476
2,-0.0415802,-0.1817169,0.9824677,0.6828957,-0.100235,-0.1696472,0.9803772,-31.95798,7.171524,-26.41841,4.174881,0.5206034,0.3541842,0.9576003,0.01576233,-0.1928711,0.9810944,34.974,5.100754,-28.37082,3.867691,0.4192413,0.4398827,0.02416837,1.221234,-0.009778619,0.001572766,-0.002668849,-0.03056685,3.275857,1.127884,31.686885286170476
2,-0.0415802,-0.1817169,0.9824677,0.6828957,-0.100235,-0.1696472,0.9803772,-31.95798,7.171524,-26.41841,4.174881,0.5206034,0.3541842,0.9576003,0.01576233,-0.1928711,0.9810944,34.974,5.100754,-28.37082,3.867691,0.4192413,0.4398827,0.02416837,1.221234,-0.009778619,0.001572766,-0.002668849,-0.03056685,3.275857,1.127884,31.686885286170476
2,-0.03556824,-0.1857147,0.9819489,0.6772953,-0.09121704,-0.1733246,0.9806213,-31.91664,7.134796,-26.46283,4.317444,0.517738,0.3563219,0.9452849,0.01948547,-0.1973419,0.9801331,35.02281,5.06041,-28.40013,3.976089,0.4168926,0.4422936,0.02420628,1.221215,-0.00983566,0.001798208,-0.00262664,-0.03054808,3.275857,1.127884,31.686885286170476
2,-0.03556824,-0.1857147,0.9819489,0.6772953,-0.09121704,-0.1733246,0.9806213,-31.91664,7.134796,-26.46283,4.317444,0.517738,0.3563219,0.9452849,0.01948547,-0.1973419,0.9801331,35.02281,5.06041,-28.40013,3.976089,0.4168926,0.4422936,0.02420628,1.221215,-0.00983566,0.001798208,-0.00262664,-0.03054808,3.275857,1.127884,31.686885286170476
2,0.01811218,-0.2283173,0.9734039,0.6853693,-0.03884888,-0.2163696,0.9755249,-31.58636,6.90834,-26.47469,4.33342,0.4981698,0.3712278,0.9249262,0.05924988,-0.2364807,0.9698181,35.22383,4.884567,-28.42256,4.042938,0.4031098,0.4554337,0.02415347,1.221159,-0.009915531,0.00185932,-0.002696621,-0.03063649,3.275857,1.127884,31.686885286170476
2,0.01811218,-0.2283173,0.9734039,0.6853693,-0.03884888,-0.2163696,0.9755249,-31.58636,6.90834,-26.47469,4.33342,0.4981698,0.3712278,0.9249262,0.05924988,-0.2364807,0.9698181,35.22383,4.884567,-28.42256,4.042938,0.4031098,0.4554337,0.02415347,1.221159,-0.009915531,0.00185932,-0.002696621,-0.03063649,3.275857,1.127884,31.686885286170476
2,0.03187561,-0.2403259,0.9701538,0.6522807,-0.02340698,-0.2253418,0.9739838,-31.54385,6.847427,-26.49689,4.226959,0.4942423,0.3749743,0.877526,0.07284546,-0.2509308,0.9652557,35.30391,4.825851,-28.45256,4.059616,0.3979868,0.4602853,0.02415442,1.221163,-0.009965658,0.001945481,-0.002640785,-0.03079513,3.275857,-45.60223,31.686885286170476
2,0.03187561,-0.2403259,0.9701538,0.6522807,-0.02340698,-0.2253418,0.9739838,-31.54385,6.847427,-26.49689,4.226959,0.4942423,0.3749743,0.877526,0.07284546,-0.2509308,0.9652557,35.30391,4.825851,-28.45256,4.059616,0.3979868,0.4602853,0.02415442,1.221163,-0.009965658,0.001945481,-0.002640785,-0.03079513,3.275857,-45.60223,31.686885286170476
2,0.02474976,-0.2381134,0.9709167,0.6587827,-0.02635193,-0.2258301,0.9738007,-31.5475,6.850418,-26.49907,4.281189,0.4948387,0.3749743,0.8626261,0.07347107,-0.2492065,0.9656525,35.30614,4.826157,-28.45259,4.05954,0.3978057,0.4599705,0.02419221,1.221164,-0.01000696,0.001990907,-0.002507646,-0.03081544,3.275857,-45.60223,31.686885286170476
2,0.02474976,-0.2381134,0.9709167,0.6587827,-0.02635193,-0.2258301,0.9738007,-31.5475,6.850418,-26.49907,4.281189,0.4948387,0.3749743,0.8626261,0.07347107,-0.2492065,0.9656525,35.30614,4.826157,-28.45259,4.05954,0.3978057,0.4599705,0.02419221,1.221164,-0.01000696,0.001990907,-0.002507646,-0.03081544,3.275857,-45.60223,31.686885286170476
2,0.02302551,-0.2372131,0.9711761,0.6406819,-0.02635193,-0.2265625,0.9736328,-31.5475,6.855133,-26.50069,4.294342,0.4948387,0.3749509,0.8525592,0.0748291,-0.2477417,0.9659271,35.30966,4.82692,-28.45248,4.083878,0.3974579,0.4596681,0.02423251,1.221117,-0.01002514,0.002163091,-0.002501697,-0.03070062,3.275857,-45.60223,31.686885286170476
2,0.02302551,-0.2372131,0.9711761,0.6406819,-0.02635193,-0.2265625,0.9736328,-31.5475,6.855133,-26.50069,4.294342,0.4948387,0.3749509,0.8525592,0.0748291,-0.2477417,0.9659271,35.30966,4.82692,-28.45248,4.083878,0.3974579,0.4596681,0.02423251,1.221117,-0.01002514,0.002163091,-0.002501697,-0.03070062,3.275857,-45.60223,31.686885286170476
2,0.02302551,-0.2372131,0.9711761,0.6406819,-0.02635193,-0.2265625,0.9736328,-31.5475,6.855133,-26.50069,4.294342,0.4948387,0.3749509,0.8525592,0.0748291,-0.2477417,0.9659271,35.30966,4.82692,-28.45248,4.083878,0.3974579,0.4596681,0.02423251,1.221117,-0.01002514,0.002163091,-0.002501697,-0.03070062,3.275857,-45.60223,31.686885286170476
2,0.0223999,-0.2331238,0.9721832,0.648795,-0.02658081,-0.2203827,0.9750366,-31.54773,6.863037,-26.50124,4.312439,0.4948899,0.3736175,0.8447908,0.07058716,-0.2450714,0.9669189,35.32053,4.827286,-28.45248,4.105881,0.3978057,0.4591736,0.02429235,1.221125,-0.01002395,0.002156192,-0.002572181,-0.03064524,3.275857,-45.60223,31.686885286170476
2,0.02128601,-0.2302094,0.9729004,0.6368856,-0.02641296,-0.2180786,0.9755707,-31.54852,6.867142,-26.50069,4.35289,0.4948899,0.3730661,0.8363605,0.06990051,-0.2420197,0.9677429,35.32407,4.828033,-28.45244,4.119873,0.3978057,0.4585841,0.02427113,1.221148,-0.009984493,0.002142326,-0.002629475,-0.03062627,3.275857,-45.60223,31.686885286170476
2,0.02128601,-0.2302094,0.9729004,0.6368856,-0.02641296,-0.2180786,0.9755707,-31.54852,6.867142,-26.50069,4.35289,0.4948899,0.3730661,0.8363605,0.06990051,-0.2420197,0.9677429,35.32407,4.828033,-28.45244,4.119873,0.3978057,0.4585841,0.02427113,1.221148,-0.009984493,0.002142326,-0.002629475,-0.03062627,3.275857,-45.60223,31.686885286170476
2,0.01838684,-0.2284851,0.9733582,0.6208889,-0.02633667,-0.2178802,0.9756165,-31.54887,6.869568,-26.50124,4.353699,0.4948899,0.3729555,0.8335159,0.06967163,-0.2400513,0.9682465,35.32524,4.828781,-28.45235,4.140884,0.3978072,0.4582063,0.02421045,1.221175,-0.009947777,0.001979648,-0.00277559,-0.03047922,3.275857,-45.60223,31.686885286170476
2,0.01838684,-0.2284851,0.9733582,0.6208889,-0.02633667,-0.2178802,0.9756165,-31.54887,6.869568,-26.50124,4.353699,0.4948899,0.3729555,0.8335159,0.06967163,-0.2400513,0.9682465,35.32524,4.828781,-28.45235,4.140884,0.3978072,0.4582063,0.02421045,1.221175,-0.009947777,0.001979648,-0.00277559,-0.03047922,3.275857,-45.60223,31.686885286170476
2,0.02081299,-0.22966,0.9730377,0.6141029,-0.02746582,-0.2184296,0.9754639,-31.55264,6.883026,-26.50261,4.387741,0.4951982,0.3726046,0.8252445,0.07008362,-0.2405701,0.9680939,35.32733,4.83136,-28.44936,4.160873,0.3976692,0.4581806,0.02416384,1.221193,-0.009946585,0.002046271,-0.00281292,-0.03046602,3.275857,-45.60223,31.686885286170476
2,0.02081299,-0.22966,0.9730377,0.6141029,-0.02746582,-0.2184296,0.9754639,-31.55264,6.883026,-26.50261,4.387741,0.4951982,0.3726046,0.8252445,0.07008362,-0.2405701,0.9680939,35.32733,4.83136,-28.44936,4.160873,0.3976692,0.4581806,0.02416384,1.221193,-0.009946585,0.002046271,-0.00281292,-0.03046602,3.275857,-45.60223,31.686885286170476
2,0.0209198,-0.2283478,0.9733429,0.6216061,-0.02676392,-0.2155609,0.97612,-31.55611,6.883926,-26.5042,4.479645,0.4951982,0.3720639,0.8089468,0.06968689,-0.2408447,0.9680481,35.32918,4.835358,-28.44936,4.16716,0.3976723,0.4580946,0.02413738,1.221191,-0.009938836,0.001918486,-0.002839283,-0.03046455,3.275857,-45.60223,31.686885286170476
2,0.01959229,-0.2293549,0.9731293,0.6208044,-0.02659607,-0.2155151,0.9761353,-31.55949,6.885742,-26.50513,4.514236,0.4952813,0.3720016,0.8180652,0.06719971,-0.2430878,0.9676666,35.33272,4.852219,-28.44936,4.186966,0.3979731,0.4579202,0.02413714,1.221206,-0.009952486,0.001855308,-0.002922048,-0.03056905,3.275857,-45.60223,31.686885286170476
2,0.0196228,-0.2292938,0.9731445,0.6155378,-0.02700806,-0.2149963,0.9762268,-31.55966,6.885742,-26.50743,4.519989,0.4953533,0.3719308,0.8061582,0.06764221,-0.2434692,0.9675446,35.33281,4.854248,-28.44936,4.187195,0.397894,0.4579202,0.02411842,1.221216,-0.009980738,0.001914598,-0.003159712,-0.03048583,3.275857,-45.60223,31.686885286170476
2,0.01924133,-0.227066,0.9736786,0.5995928,-0.0269928,-0.2126617,0.9767456,-31.55966,6.885742,-26.51257,4.547989,0.4953533,0.3715583,0.8090175,0.06759644,-0.2415771,0.9680176,35.33318,4.857819,-28.44936,4.225433,0.397894,0.4574523,0.02406776,1.221244,-0.00998193,0.001883209,-0.003183204,-0.03039919,3.275857,-26.74133,31.686885286170476
2,0.01924133,-0.227066,0.9736786,0.5995928,-0.0269928,-0.2126617,0.9767456,-31.55966,6.885742,-26.51257,4.547989,0.4953533,0.3715583,0.8090175,0.06759644,-0.2415771,0.9680176,35.33318,4.857819,-28.44936,4.225433,0.397894,0.4574523,0.02406776,1.221244,-0.00998193,0.001883209,-0.003183204,-0.03039919,3.275857,-26.74133,31.686885286170476
2,0.02183533,-0.2274933,0.973526,0.6144726,-0.02690125,-0.212265,0.9768372,-31.56013,6.88472,-26.5175,4.567917,0.4953533,0.3715583,0.7985461,0.06864929,-0.2415619,0.9679413,35.33441,4.857819,-28.45026,4.262375,0.3976723,0.4574523,0.02401304,1.221218,-0.009954691,0.001887161,-0.003286844,-0.03037049,3.275857,-26.74133,31.686885286170476
2,0.02183533,-0.2274933,0.973526,0.6144726,-0.02690125,-0.212265,0.9768372,-31.56013,6.88472,-26.5175,4.567917,0.4953533,0.3715583,0.7985461,0.06864929,-0.2415619,0.9679413,35.33441,4.857819,-28.45026,4.262375,0.3976723,0.4574523,0.02401304,1.221218,-0.009954691,0.001887161,-0.003286844,-0.03037049,3.275857,-26.74133,31.686885286170476
2,0.009460449,-0.2626343,0.9648438,0.6047783,-0.04286194,-0.2496948,0.9673615,-31.50775,6.744675,-26.58978,4.691498,0.4961456,0.3832972,0.7824186,0.0581665,-0.2740021,0.9599609,35.19078,4.695496,-28.51108,4.269501,0.4042701,0.4694365,0.02398181,1.221209,-0.009943843,0.002057165,-0.00327549,-0.0303678,3.275857,-26.74133,31.686885286170476
2,0.00390625,-0.3197784,0.9474792,0.6432153,-0.05831909,-0.3114929,0.9484406,-31.46495,6.443237,-26.70386,4.553146,0.4971641,0.4051615,0.7674849,0.05747986,-0.3259277,0.943634,34.94194,4.398224,-28.61638,4.285339,0.4127254,0.4901024,0.02390778,1.221133,-0.009958088,0.002531304,-0.003404865,-0.03013283,3.275857,-26.74133,33.17
2,0.00390625,-0.3197784,0.9474792,0.6432153,-0.05831909,-0.3114929,0.9484406,-31.46495,6.443237,-26.70386,4.553146,0.4971641,0.4051615,0.7674849,0.05747986,-0.3259277,0.943634,34.94194,4.398224,-28.61638,4.285339,0.4127254,0.4901024,0.02390778,1.221133,-0.009958088,0.002531304,-0.003404865,-0.03013283,3.275857,-26.74133,33.17
3,-0.00630188,-0.3668671,0.9302368,0.6167321,-0.06083679,-0.362442,0.9300079,-31.47734,6.127747,-26.82584,4.471802,0.4979361,0.4257664,0.7065655,0.03033447,-0.3692017,0.9288483,34.80875,4.145706,-28.72849,4.370789,0.4216647,0.5077926,0.02395713,1.22108,-0.00995338,0.002844526,-0.003548448,-0.03008755,3.275857,-26.74133,33.17
3,-0.01289368,-0.3796692,0.9250183,0.5189558,-0.06912231,-0.3665924,0.9277954,-31.51038,6.115631,-26.849,4.393723,0.5003889,0.4271893,0.6310422,0.0302124,-0.3888397,0.9208069,34.8382,4.165405,-28.72516,4.280396,0.4206286,0.5107973,0.02393532,1.220975,-0.009947777,0.003046871,-0.003631464,-0.0298229,3.275857,-26.74133,33.17
3,-0.008209229,-0.3789978,0.925354,0.447442,-0.06890869,-0.3783417,0.9230804,-31.55806,6.164429,-26.84833,4.405685,0.5019367,0.427687,0.5559232,0.03593445,-0.3786011,0.9248505,34.88287,4.193466,-28.71213,4.408707,0.4181618,0.5077308,0.02390134,1.221005,-0.009907246,0.003056637,-0.00364784,-0.0297789,3.275857,-26.74133,33.17
3,-0.008209229,-0.3789978,0.925354,0.447442,-0.06890869,-0.3783417,0.9230804,-31.55806,6.164429,-26.84833,4.405685,0.5019367,0.427687,0.5559232,0.03593445,-0.3786011,0.9248505,34.88287,4.193466,-28.71213,4.408707,0.4181618,0.5077308,0.02390134,1.221005,-0.009907246,0.003056637,-0.00364784,-0.0297789,3.275857,-26.74133,33.17
3,-0.01460266,-0.3792725,0.9251556,0.3960553,-0.07183838,-0.3749237,0.9242554,-31.57845,6.182922,-26.85274,4.423843,0.5030931,0.4264995,0.4965062,0.03723145,-0.3821411,0.9233398,34.88817,4.19899,-28.7108,4.305573,0.4177534,0.5082297,0.02392685,1.221031,-0.009822905,0.003059073,-0.003694518,-0.02985512,3.275857,-26.74133,33.17
3,-0.0145874,-0.381897,0.9240723,0.3911511,-0.0655365,-0.3813629,0.9220886,-31.57755,6.166397,-26.86098,4.458618,0.5020354,0.428239,0.4749431,0.03318787,-0.3815002,0.9237671,34.90172,4.201843,-28.71056,4.330139,0.4179693,0.5079966,0.02384531,1.221038,-0.009753883,0.003327396,-0.003704588,-0.02997491,3.275857,-26.74133,33.17
3,-0.01533508,-0.3839569,0.9232178,0.3911511,-0.06025696,-0.3725433,0.9260406,-31.57843,6.162735,-26.86473,4.468216,0.5012122,0.4267679,0.4749431,0.03231812,-0.3951569,0.9180298,34.89407,4.190872,-28.72984,4.231445,0.4183306,0.5111721,0.02381372,1.221015,-0.00973022,0.003619133,-0.003728644,-0.02986185,3.275857,-26.74133,33.17
3,-0.02183533,-0.3835602,0.9232483,0.3535585,-0.07020569,-0.3827057,0.9211884,-31.59151,6.15509,-26.87625,4.428085,0.5032599,0.4290226,0.4411646,0.03318787,-0.3834381,0.9229584,34.89142,4.180283,-28.73256,4.229721,0.4183009,0.5093512,0.02381516,1.220957,-0.009723902,0.003860202,-0.003694518,-0.02972707,3.275857,-26.74133,33.17
3,-0.02182007,-0.3784027,0.9253693,0.3268093,-0.07041931,-0.3726196,0.925293,-31.60068,6.156113,-26.87408,4.363846,0.5036152,0.42719,0.4191782,0.03335571,-0.3838654,0.9227753,34.89165,4.185303,-28.7312,4.250092,0.4182672,0.5092351,0.0237962,1.220934,-0.009742618,0.003925277,-0.003913872,-0.02962815,3.275857,-26.74133,33.17
3,-0.02182007,-0.3784027,0.9253693,0.3268093,-0.07041931,-0.3726196,0.925293,-31.60068,6.156113,-26.87408,4.363846,0.5036152,0.42719,0.4191782,0.03335571,-0.3838654,0.9227753,34.89165,4.185303,-28.7312,4.250092,0.4182672,0.5092351,0.0237962,1.220934,-0.009742618,0.003925277,-0.003913872,-0.02962815,3.275857,-26.74133,33.17
3,-0.02078247,-0.3741455,0.927124,0.3123543,-0.07037354,-0.3682251,0.927063,-31.60149,6.157669,-26.87408,4.497955,0.5036152,0.4262741,0.397564,0.03630066,-0.3797913,0.9243469,34.89297,4.190598,-28.7296,4.264542,0.4177381,0.5082685,0.02378213,1.220904,-0.009744048,0.004000481,-0.003829196,-0.02969697,3.275857,35.60635,33.17
3,-0.02079773,-0.3750763,0.9267578,0.2841232,-0.06958008,-0.3676147,0.9273529,-31.60518,6.156174,-26.87971,4.47287,0.5036152,0.4262741,0.3916621,0.03225708,-0.3821411,0.9235229,34.90669,4.196594,-28.72804,4.266449,0.4179403,0.5084813,0.02377868,1.220857,-0.009706259,0.004210983,-0.003867915,-0.0297401,3.275857,35.60635,33.17
3,-0.02267456,-0.3775635,0.9256897,0.2622804,-0.07060242,-0.3671417,0.927475,-31.60666,6.156113,-26.8857,4.412949,0.5038425,0.4262741,0.3694935,0.02888489,-0.3877563,0.9212952,34.92276,4.205887,-28.7296,4.267044,0.4179403,0.5092351,0.0237633,1.220803,-0.009693742,0.004348514,-0.00385054,-0.02975437,3.275857,35.60635,33.17
3,-0.02267456,-0.3775635,0.9256897,0.2622804,-0.07060242,-0.3671417,0.927475,-31.60666,6.156113,-26.8857,4.412949,0.5038425,0.4262741,0.3694935,0.02888489,-0.3877563,0.9212952,34.92276,4.205887,-28.7296,4.267044,0.4179403,0.5092351,0.0237633,1.220803,-0.009693742,0.004348514,-0.00385054,-0.02975437,3.275857,35.60635,33.17
3,-0.0193634,-0.3769989,0.9259949,0.2622804,-0.07048035,-0.3661346,0.927887,-31.60794,6.153946,-26.88747,4.440414,0.503861,0.4261602,0.3694935,0.02989197,-0.3864899,0.9217987,34.91931,4.202316,-28.72984,4.270813,0.4178932,0.5091191,0.02370882,1.220702,-0.009662628,0.004633851,-0.003938541,-0.02968568,3.275857,35.60635,33.17
3,-0.01861572,-0.3768158,0.9260864,0.2589079,-0.07008362,-0.3662109,0.927887,-31.60921,6.151794,-26.88922,4.412628,0.5038425,0.4262741,0.3692073,0.03091431,-0.3860168,0.9219666,34.90939,4.196594,-28.73055,4.266922,0.4180633,0.5092351,0.02364552,1.220694,-0.009624958,0.004917783,-0.003957413,-0.02952411,3.275857,35.60635,33.17
3,-0.01673889,-0.3762054,0.9263763,0.2427394,-0.06835938,-0.3661041,0.9280548,-31.61076,6.151794,-26.89294,4.416763,0.5036152,0.4262741,0.3596349,0.03242493,-0.3848572,0.9223938,34.90201,4.190598,-28.73175,4.266769,0.4180633,0.5092351,0.02359283,1.220562,-0.009658813,0.0057217,-0.00402462,-0.02939564,3.275857,35.60635,33.17
3,-0.01725769,-0.3751526,0.9267883,0.2461851,-0.06930542,-0.3660126,0.928009,-31.61299,6.152466,-26.89728,4.431763,0.5038425,0.4262741,0.3560014,0.032547,-0.3829041,0.9232025,34.90611,4.180283,-28.73256,4.270035,0.4179012,0.5092275,0.02353823,1.220534,-0.009730458,0.006013745,-0.003953647,-0.02919166,3.275857,35.60635,33.17
3,-0.03009033,-0.3761597,0.9260559,0.2246332,-0.08157349,-0.3689423,0.9258575,-31.61063,6.13414,-26.92819,4.44252,0.5057531,0.4277232,0.3325268,0.02375793,-0.3826294,0.923584,34.92654,4.206055,-28.73436,4.435516,0.4186792,0.5082433,0.02358353,1.220519,-0.009801388,0.006260197,-0.004088901,-0.02916791,3.275857,35.60635,33.17
3,-0.03009033,-0.3761597,0.9260559,0.2246332,-0.08157349,-0.3689423,0.9258575,-31.61063,6.13414,-26.92819,4.44252,0.5057531,0.4277232,0.3325268,0.02375793,-0.3826294,0.923584,34.92654,4.206055,-28.73436,4.435516,0.4186792,0.5082433,0.02358353,1.220519,-0.009801388,0.006260197,-0.004088901,-0.02916791,3.275857,35.60635,33.17
3,-0.01904297,-0.4080505,0.9127502,0.2246332,-0.08129883,-0.4089355,0.9089203,-31.58325,6.076309,-26.9502,4.349701,0.5047895,0.437127,0.3325268,0.03981018,-0.4057465,0.9131012,34.81468,4.104614,-28.79015,4.46814,0.4197345,0.5166197,0.02355063,1.22047,-0.009793878,0.006577087,-0.004130597,-0.02919165,3.275857,35.60635,33.17
3,-0.04443359,-0.4445496,0.8946381,0.2009377,-0.08853149,-0.4314117,0.8977966,-31.57158,5.784576,-27.06822,4.496994,0.5055239,0.4519019,0.3335333,0.001403809,-0.4571838,0.8893585,34.67133,3.909698,-28.88112,4.328064,0.4309217,0.5341521,0.02356625,1.22047,-0.009684205,0.006981526,-0.00418436,-0.02910168,3.275857,35.60635,33.17
3,-0.05116272,-0.4549255,0.8890533,0.1449602,-0.09356689,-0.4528961,0.8866272,-31.52518,5.680176,-27.16052,4.448639,0.5048029,0.4602145,0.3456949,0.001281738,-0.4562836,0.8898163,34.54451,3.769836,-28.965,4.442108,0.4352554,0.5395575,0.02338839,1.220318,-0.00958097,0.008201455,-0.004343371,-0.02908708,3.275857,35.60635,33.17
3,-0.05026245,-0.4665375,0.8830566,0.08442803,-0.08390808,-0.4563599,0.8858185,-31.56772,5.669693,-27.16588,4.469177,0.5046498,0.461192,0.3118249,0.007141113,-0.4825134,0.8758392,34.58063,3.765579,-28.99063,4.373917,0.4329385,0.5451145,0.02321923,1.220092,-0.009491801,0.01019853,-0.004528134,-0.02859365,3.275857,47.87431,33.17
3,-0.05026245,-0.4665375,0.8830566,0.08442803,-0.08390808,-0.4563599,0.8858185,-31.56772,5.669693,-27.16588,4.469177,0.5046498,0.461192,0.3118249,0.007141113,-0.4825134,0.8758392,34.58063,3.765579,-28.99063,4.373917,0.4329385,0.5451145,0.02321923,1.220092,-0.009491801,0.01019853,-0.004528134,-0.02859365,3.275857,47.87431,33.17
3,-0.06465149,-0.4687042,0.8809662,0.008943862,-0.1033325,-0.4507446,0.8866425,-31.52599,5.678909,-27.14088,4.520554,0.5063919,0.4597015,0.2939736,0.004211426,-0.4984283,0.8669128,34.58968,3.824249,-28.97302,4.311111,0.4331026,0.5461033,0.02321923,1.220092,-0.009491801,0.01019853,-0.004528134,-0.02859365,3.275857,47.87431,33.17
3,-0.06037903,-0.463562,0.8839874,0.0,-0.1040192,-0.4573364,0.8831787,-31.53281,5.683685,-27.1443,4.526031,0.5067307,0.4607972,0.2826597,0.004333496,-0.4711151,0.8820496,34.6017,3.815262,-28.95432,4.41333,0.4327415,0.5407808,0.02307868,1.219669,-0.009359241,0.01339273,-0.004643488,-0.02813052,3.275857,47.87431,33.17
3,-0.05526733,-0.460968,0.8856812,0.0,-0.1072388,-0.4525146,0.8852692,-31.54333,5.680786,-27.15091,4.524704,0.5076071,0.4600857,0.2637655,0.00994873,-0.4697418,0.8827362,34.61301,3.807312,-28.95445,4.412766,0.4314052,0.5407808,0.02302015,1.219053,-0.009136677,0.01808372,-0.004567453,-0.02704457,3.275857,47.87431,33.17
3,-0.05526733,-0.460968,0.8856812,0.0,-0.1072388,-0.4525146,0.8852692,-31.54333,5.680786,-27.15091,4.524704,0.5076071,0.4600857,0.2637655,0.00994873,-0.4697418,0.8827362,34.61301,3.807312,-28.95445,4.412766,0.4314052,0.5407808,0.02302015,1.219053,-0.009136677,0.01808372,-0.004567453,-0.02704457,3.275857,47.87431,33.17
3,-0.05371094,-0.4537048,0.8895111,0.0,-0.105896,-0.4453888,0.8890381,-31.54994,5.683685,-27.14815,4.552628,0.5076071,0.458612,0.2651198,0.01393127,-0.4625854,0.8864594,34.6142,3.808929,-28.95445,4.510376,0.4307097,0.5392674,0.02294469,1.218224,-0.008968234,0.02433826,-0.004414829,-0.02556375,3.275857,47.87431,33.17
3,-0.05371094,-0.4537048,0.8895111,0.0,-0.105896,-0.4453888,0.8890381,-31.54994,5.683685,-27.14815,4.552628,0.5076071,0.458612,0.2651198,0.01393127,-0.4625854,0.8864594,34.6142,3.808929,-28.95445,4.510376,0.4307097,0.5392674,0.02294469,1.218224,-0.008968234,0.02433826,-0.004414829,-0.02556375,3.275857,47.87431,33.17
3,-0.05537415,-0.4567261,0.8878632,0.0,-0.1048126,-0.4458618,0.8889313,-31.56142,5.683929,-27.1443,4.624649,0.5077941,0.4586059,0.2438887,0.009597778,-0.4692078,0.8830261,34.61618,3.815262,-28.95432,4.412674,0.4313581,0.540403,0.02290809,1.217204,-0.008690655,0.03170352,-0.004438393,-0.02414031,3.275857,47.87431,33.17
3,-0.05537415,-0.4567261,0.8878632,0.0,-0.1048126,-0.4458618,0.8889313,-31.56142,5.683929,-27.1443,4.624649,0.5077941,0.4586059,0.2438887,0.009597778,-0.4692078,0.8830261,34.61618,3.815262,-28.95432,4.412674,0.4313581,0.540403,0.02290809,1.217204,-0.008690655,0.03170352,-0.004438393,-0.02414031,3.275857,47.87431,33.17
3,-0.06216431,-0.4501648,0.8907776,0.1,-0.1159515,-0.4362946,0.8922882,-31.54665,5.690048,-27.14053,4.625961,0.5091089,0.4566765,0.2523739,0.01016235,-0.4665527,0.8844299,34.61519,3.815353,-28.952,4.462021,0.4313049,0.5398352,0.02290976,1.216105,-0.008371115,0.03832794,-0.00442326,-0.0229333,3.275857,47.87431,33.17
3,-0.06216431,-0.4501648,0.8907776,0.1,-0.1159515,-0.4362946,0.8922882,-31.54665,5.690048,-27.14053,4.625961,0.5091089,0.4566765,0.2523739,0.01016235,-0.4665527,0.8844299,34.61519,3.815353,-28.952,4.462021,0.4313049,0.5398352,0.02290976,1.216105,-0.008371115,0.03832794,-0.00442326,-0.0229333,3.275857,47.87431,33.17
3,-0.03233337,-0.4440308,0.8954163,0.1,-0.0934906,-0.4322815,0.8968658,-31.68622,5.902939,-27.05533,4.723541,0.5101194,0.4479318,0.2512061,0.0005645752,-0.4496307,0.8932037,34.71252,3.974747,-28.87468,4.518524,0.4296644,0.5302777,0.02285588,1.215064,-0.00798595,0.04463502,-0.004471841,-0.02189725,3.275857,47.87431,33.17
3,-0.03233337,-0.4440308,0.8954163,0.1,-0.0934906,-0.4322815,0.8968658,-31.68622,5.902939,-27.05533,4.723541,0.5101194,0.4479318,0.2512061,0.0005645752,-0.4496307,0.8932037,34.71252,3.974747,-28.87468,4.518524,0.4296644,0.5302777,0.02285588,1.215064,-0.00798595,0.04463502,-0.004471841,-0.02189725,3.275857,47.87431,33.17
3,-0.04164124,-0.4270935,0.9032288,0.1,-0.099823,-0.4266663,0.8988647,-31.69275,5.946884,-27.03928,4.723511,0.511364,0.4453434,0.2570442,0.005340576,-0.4263763,0.9045258,34.73447,4.025421,-28.84763,4.504013,0.4281931,0.523814,0.02278149,1.213973,-0.007677794,0.05146346,-0.004917782,-0.02083329,3.275857,47.87431,33.17
3,-0.04164124,-0.4270935,0.9032288,0.1,-0.099823,-0.4266663,0.8988647,-31.69275,5.946884,-27.03928,4.723511,0.511364,0.4453434,0.2570442,0.005340576,-0.4263763,0.9045258,34.73447,4.025421,-28.84763,4.504013,0.4281931,0.523814,0.02278149,1.213973,-0.007677794,0.05146346,-0.004917782,-0.02083329,3.275857,47.87431,33.17
3,-0.05253601,-0.4291534,0.9016876,0.1,-0.1024628,-0.4268951,0.898468,-31.68297,5.946884,-27.03137,4.691879,0.5114682,0.4453434,0.263503,0.004699707,-0.4304199,0.9026031,34.74359,4.04361,-28.83188,4.497559,0.4279888,0.523814,0.02275252,1.212572,-0.007459104,0.06006244,-0.005801872,-0.01958572,3.275857,47.87431,33.17
3,-0.05253601,-0.4291534,0.9016876,0.1,-0.1024628,-0.4268951,0.898468,-31.68297,5.946884,-27.03137,4.691879,0.5114682,0.4453434,0.263503,0.004699707,-0.4304199,0.9026031,34.74359,4.04361,-28.83188,4.497559,0.4279888,0.523814,0.02275252,1.212572,-0.007459104,0.06006244,-0.005801872,-0.01958572,3.275857,47.87431,33.17
3,-0.06152344,-0.4293671,0.9010162,0.1,-0.1059113,-0.4234161,0.899704,-31.66473,5.963226,-27.02576,4.707977,0.5114161,0.4441314,0.2541978,0.003707886,-0.4365234,0.8996735,34.7576,4.073532,-28.82455,4.489731,0.4276673,0.5238922,0.02269399,1.21096,-0.007166684,0.06902394,-0.006606474,-0.01848912,3.275857,47.87431,33.17
3,-0.06152344,-0.4293671,0.9010162,0.1,-0.1059113,-0.4234161,0.899704,-31.66473,5.963226,-27.02576,4.707977,0.5114161,0.4441314,0.2541978,0.003707886,-0.4365234,0.8996735,34.7576,4.073532,-28.82455,4.489731,0.4276673,0.5238922,0.02269399,1.21096,-0.007166684,0.06902394,-0.006606474,-0.01848912,3.275857,47.87431,33.17
3,-0.05200195,-0.4163208,0.9077148,0.1,-0.1023254,-0.4213257,0.9011078,-31.68224,5.981674,-27.0284,4.741501,0.5114161,0.4431124,0.2667745,0.02796936,-0.4061584,0.9133606,34.78166,4.151993,-28.77487,4.481583,0.4228886,0.5149322,0.02264345,1.209542,-0.006777525,0.07652397,-0.007380965,-0.0171386,3.275857,-0.4671173,33.17
3,-0.05200195,-0.4163208,0.9077148,0.1,-0.1023254,-0.4213257,0.9011078,-31.68224,5.981674,-27.0284,4.741501,0.5114161,0.4431124,0.2667745,0.02796936,-0.4061584,0.9133606,34.78166,4.151993,-28.77487,4.481583,0.4228886,0.5149322,0.02264345,1.209542,-0.006777525,0.07652397,-0.007380965,-0.0171386,3.275857,-0.4671173,33.17
3,-0.04281616,-0.3676453,0.9289703,0.1,-0.1003113,-0.3507996,0.9310608,-31.67119,6.105347,-26.94426,4.84613,0.5107303,0.4254842,0.2529935,0.03463745,-0.3882141,0.9209137,34.79691,4.28688,-28.71971,4.536606,0.4213549,0.5063806,0.02259624,1.208399,-0.00640583,0.08236139,-0.008205087,-0.01594409,3.275857,-0.4671173,33.17
3,-0.04281616,-0.3676453,0.9289703,0.1,-0.1003113,-0.3507996,0.9310608,-31.67119,6.105347,-26.94426,4.84613,0.5107303,0.4254842,0.2529935,0.03463745,-0.3882141,0.9209137,34.79691,4.28688,-28.71971,4.536606,0.4213549,0.5063806,0.02259624,1.208399,-0.00640583,0.08236139,-0.008205087,-0.01594409,3.275857,-0.4671173,33.17
3,-0.05726624,-0.3707275,0.9269714,0.08299936,-0.1083374,-0.3544159,0.928772,-31.74353,6.273392,-26.91191,4.852264,0.5144474,0.4203262,0.2368262,0.01083374,-0.3907471,0.9204254,34.80251,4.407104,-28.67531,4.608154,0.4251968,0.5023023,0.02254915,1.207244,-0.006224751,0.0880644,-0.008822906,-0.01486253,3.275857,-0.4671173,33.17
3,-0.05726624,-0.3707275,0.9269714,0.08299936,-0.1083374,-0.3544159,0.928772,-31.74353,6.273392,-26.91191,4.852264,0.5144474,0.4203262,0.2368262,0.01083374,-0.3907471,0.9204254,34.80251,4.407104,-28.67531,4.608154,0.4251968,0.5023023,0.02254915,1.207244,-0.006224751,0.0880644,-0.008822906,-0.01486253,3.275857,-0.4671173,33.17
3,-0.05210876,-0.3713837,0.927002,0.08945109,-0.1079407,-0.348877,0.9309235,-31.75298,6.290771,-26.9057,4.747513,0.5147272,0.4187472,0.2347552,0.02911377,-0.4016113,0.915329,34.79164,4.414093,-28.67575,4.430359,0.422493,0.5041878,0.02260554,1.205707,-0.006174266,0.09472217,-0.009134906,-0.01333643,3.275857,-0.4671173,33.17
3,-0.05210876,-0.3713837,0.927002,0.08945109,-0.1079407,-0.348877,0.9309235,-31.75298,6.290771,-26.9057,4.747513,0.5147272,0.4187472,0.2347552,0.02911377,-0.4016113,0.915329,34.79164,4.414093,-28.67575,4.430359,0.422493,0.5041878,0.02260554,1.205707,-0.006174266,0.09472217,-0.009134906,-0.01333643,3.275857,-0.4671173,33.17
3,-0.05744934,-0.3653564,0.9290771,0.1026485,-0.1079254,-0.3509216,0.9301605,-31.75298,6.300278,-26.9057,4.743484,0.5147272,0.4187982,0.2472503,0.0171051,-0.3847656,0.9228516,34.79103,4.425598,-28.66409,4.539566,0.4245741,0.5004771,0.02270615,1.204348,-0.006071448,0.1008766,-0.009143058,-0.01214093,3.275857,-0.4671173,33.17
3,-0.05744934,-0.3653564,0.9290771,0.1026485,-0.1079254,-0.3509216,0.9301605,-31.75298,6.300278,-26.9057,4.743484,0.5147272,0.4187982,0.2472503,0.0171051,-0.3847656,0.9228516,34.79103,4.425598,-28.66409,4.539566,0.4245741,0.5004771,0.02270615,1.204348,-0.006071448,0.1008766,-0.009143058,-0.01214093,3.275857,-0.4671173,33.17
3,-0.05744934,-0.3653564,0.9290771,0.1026485,-0.1079254,-0.3509216,0.9301605,-31.75298,6.300278,-26.9057,4.743484,0.5147272,0.4187982,0.2472503,0.0171051,-0.3847656,0.9228516,34.79103,4.425598,-28.66409,4.539566,0.4245741,0.5004771,0.02270615,1.204348,-0.006071448,0.1008766,-0.009143058,-0.01214093,3.275857,-0.4671173,33.17
3,-0.05322266,-0.3456421,0.9368439,0.1239326,-0.106781,-0.3280487,0.9385986,-31.78944,6.447937,-26.87074,4.808563,0.5157713,0.4094922,0.2548994,0.01527405,-0.3664703,0.9302979,34.78351,4.578659,-28.60664,4.482605,0.425257,0.4913157,0.0227828,1.203462,-0.005758166,0.1056451,-0.00862563,-0.01135648,3.275857,-0.4671173,33.17
3,-0.0531311,-0.347168,0.9362793,0.1352179,-0.1106415,-0.3239746,0.9395599,-31.81564,6.458359,-26.86139,4.854172,0.517259,0.4083579,0.244123,0.01173401,-0.3716431,0.928299,34.78204,4.586548,-28.60631,4.363998,0.4258969,0.4920583,0.02299416,1.202549,-0.005511701,0.1099693,-0.007929874,-0.01095781,3.275857,-51.05304,33.17
3,-0.0531311,-0.347168,0.9362793,0.1352179,-0.1106415,-0.3239746,0.9395599,-31.81564,6.458359,-26.86139,4.854172,0.517259,0.4083579,0.244123,0.01173401,-0.3716431,0.928299,34.78204,4.586548,-28.60631,4.363998,0.4258969,0.4920583,0.02299416,1.202549,-0.005511701,0.1099693,-0.007929874,-0.01095781,3.275857,-51.05304,33.17
3,-0.08943176,-0.3326874,0.9387817,0.1289278,-0.09843445,-0.337204,0.936264,-31.63837,6.326111,-26.88181,4.999527,0.5093277,0.4151028,0.2383451,-0.02381897,-0.2987976,0.95401,35.01564,4.072372,-28.95081,4.644485,0.4236187,0.4993345,0.02313769,1.201488,-0.005362034,0.1145969,-0.006966569,-0.01072483,3.275857,-51.05304,33.17
3,-0.08943176,-0.3326874,0.9387817,0.1289278,-0.09843445,-0.337204,0.936264,-31.63837,6.326111,-26.88181,4.999527,0.5093277,0.4151028,0.2383451,-0.02381897,-0.2987976,0.95401,35.01564,4.072372,-28.95081,4.644485,0.4236187,0.4993345,0.02313769,1.201488,-0.005362034,0.1145969,-0.006966569,-0.01072483,3.275857,-51.05304,33.17
3,-0.07319641,-0.3383484,0.9381561,0.114673,-0.0940094,-0.3312531,0.9388428,-31.67033,6.215622,-26.94502,5.003723,0.5096836,0.4182411,0.26658,0.0491333,-0.3764954,0.9251099,34.82889,4.354782,-28.69394,4.736893,0.4178855,0.5015499,0.02335107,1.20065,-0.005286098,0.1182377,-0.005970224,-0.01034217,3.275857,-51.05304,33.17
3,-0.07319641,-0.3383484,0.9381561,0.114673,-0.0940094,-0.3312531,0.9388428,-31.67033,6.215622,-26.94502,5.003723,0.5096836,0.4182411,0.26658,0.0491333,-0.3764954,0.9251099,34.82889,4.354782,-28.69394,4.736893,0.4178855,0.5015499,0.02335107,1.20065,-0.005286098,0.1182377,-0.005970224,-0.01034217,3.275857,-51.05304,33.17
3,-0.07307434,-0.3489838,0.9342651,0.1256811,-0.07569885,-0.3506317,0.9334412,-31.69762,6.276871,-26.94102,4.9776,0.5076448,0.4195314,0.2629472,-0.01556396,-0.3122559,0.9498596,35.10884,4.05574,-28.96571,4.609833,0.4189664,0.5024561,0.0235256,1.200116,-0.00507617,0.1205115,-0.005179005,-0.009888449,3.275857,-51.05304,33.17
3,-0.07307434,-0.3489838,0.9342651,0.1256811,-0.07569885,-0.3506317,0.9334412,-31.69762,6.276871,-26.94102,4.9776,0.5076448,0.4195314,0.2629472,-0.01556396,-0.3122559,0.9498596,35.10884,4.05574,-28.96571,4.609833,0.4189664,0.5024561,0.0235256,1.200116,-0.00507617,0.1205115,-0.005179005,-0.009888449,3.275857,-51.05304,33.17
3,-0.07138062,-0.3423157,0.9368591,0.1522067,-0.07666016,-0.3402557,0.9371948,-31.71645,6.328125,-26.92915,4.993683,0.5084345,0.4158858,0.2591681,0.02845764,-0.3791351,0.9248962,34.90887,4.43425,-28.66983,4.625458,0.418608,0.499106,0.02371061,1.199665,-0.004826725,0.1223143,-0.004537996,-0.009468125,3.275857,-51.05304,33.17
3,-0.07138062,-0.3423157,0.9368591,0.1522067,-0.07666016,-0.3402557,0.9371948,-31.71645,6.328125,-26.92915,4.993683,0.5084345,0.4158858,0.2591681,0.02845764,-0.3791351,0.9248962,34.90887,4.43425,-28.66983,4.625458,0.418608,0.499106,0.02371061,1.199665,-0.004826725,0.1223143,-0.004537996,-0.009468125,3.275857,-51.05304,33.17
3,-0.04414368,-0.3475494,0.936615,0.1636189,-0.05569458,-0.3442383,0.9372253,-31.71989,6.358139,-26.93091,4.756561,0.505207,0.4156302,0.3001766,0.03126526,-0.3678741,0.9293365,34.92746,4.4422,-28.66501,4.751221,0.4175216,0.4966481,0.02382195,1.199385,-0.004621148,0.1231944,-0.003819455,-0.009434227,3.275857,-51.05304,33.17
3,-0.04414368,-0.3475494,0.936615,0.1636189,-0.05569458,-0.3442383,0.9372253,-31.71989,6.358139,-26.93091,4.756561,0.505207,0.4156302,0.3001766,0.03126526,-0.3678741,0.9293365,34.92746,4.4422,-28.66501,4.751221,0.4175216,0.4966481,0.02382195,1.199385,-0.004621148,0.1231944,-0.003819455,-0.009434227,3.275857,-51.05304,33.17
3,-0.05680847,-0.3477173,0.9358673,0.2132429,-0.07110596,-0.3441772,0.936203,-31.72133,6.363968,-26.93307,4.915359,0.5077187,0.415431,0.2961023,0.03149414,-0.3678894,0.9293213,34.93233,4.4422,-28.66501,4.751312,0.4173169,0.4966481,0.02387536,1.199355,-0.004376292,0.1233717,-0.003307182,-0.009285371,3.275857,-51.05304,33.17
3,-0.05680847,-0.3477173,0.9358673,0.2132429,-0.07110596,-0.3441772,0.936203,-31.72133,6.363968,-26.93307,4.915359,0.5077187,0.415431,0.2961023,0.03149414,-0.3678894,0.9293213,34.93233,4.4422,-28.66501,4.751312,0.4173169,0.4966481,0.02387536,1.199355,-0.004376292,0.1233717,-0.003307182,-0.009285371,3.275857,-51.05304,33.17
3,-0.01985168,-0.3532257,0.935318,0.2449305,-0.07223511,-0.3437958,0.9362488,-31.72519,6.373642,-26.93762,4.92424,0.5080307,0.415076,0.330948,0.03471375,-0.3619843,0.9315338,34.95338,4.449738,-28.6685,4.754837,0.4160632,0.4953138,0.02390969,1.19932,-0.004306197,0.1234381,-0.003049315,-0.009331794,3.275857,-51.05304,33.17
3,-0.01525879,-0.3524933,0.9356842,0.2506,-0.06794739,-0.3452759,0.9360352,-31.7274,6.381073,-26.93767,4.923615,0.507414,0.415076,0.3326915,0.03662109,-0.3586273,0.9327545,34.96965,4.453964,-28.66902,4.775055,0.4151882,0.4945456,0.02388203,1.199314,-0.004192591,0.1235718,-0.002967589,-0.009210446,3.275857,-54.07855,33.17
3,-0.01525879,-0.3524933,0.9356842,0.2506,-0.06794739,-0.3452759,0.9360352,-31.7274,6.381073,-26.93767,4.923615,0.507414,0.415076,0.3326915,0.03662109,-0.3586273,0.9327545,34.96965,4.453964,-28.66902,4.775055,0.4151882,0.4945456,0.02388203,1.199314,-0.004192591,0.1235718,-0.002967589,-0.009210446,3.275857,11.39163,33.17
3,-0.01654053,-0.3522339,0.9357605,0.243519,-0.06964111,-0.3447418,0.9360962,-31.72955,6.378601,-26.9379,4.924072,0.5077606,0.415076,0.3298224,0.03530884,-0.358551,0.9328308,34.97797,4.45752,-28.66988,4.782547,0.4151212,0.4944117,0.02388489,1.199235,-0.004168391,0.1240796,-0.002947436,-0.009194253,3.275857,37.36598,33.17
3,-0.01687622,-0.3514099,0.9360657,0.2669918,-0.0693512,-0.3438568,0.9364471,-31.72971,6.37767,-26.938,4.918976,0.5077187,0.4149495,0.3569963,0.03474426,-0.3578644,0.9331207,34.98183,4.455383,-28.67055,4.792465,0.4150819,0.4943592,0.0238694,1.199182,-0.00416106,0.1245606,-0.002967589,-0.009252414,3.275857,37.36598,33.17
3,-0.01391602,-0.3509216,0.9362946,0.2707549,-0.06924438,-0.3435059,0.9365845,-31.7291,6.376144,-26.93881,4.918854,0.5076813,0.4149495,0.3636619,0.03642273,-0.3567047,0.9334869,34.98853,4.452545,-28.67276,4.806854,0.4145706,0.4942579,0.02391064,1.199136,-0.004196942,0.1248726,-0.003100201,-0.009247581,3.309168,37.36598,33.17
3,-0.01391602,-0.3509216,0.9362946,0.2707549,-0.06924438,-0.3435059,0.9365845,-31.7291,6.376144,-26.93881,4.918854,0.5076813,0.4149495,0.3636619,0.03642273,-0.3567047,0.9334869,34.98853,4.452545,-28.67276,4.806854,0.4145706,0.4942579,0.02391064,1.199136,-0.004196942,0.1248726,-0.003100201,-0.009247581,3.309168,37.36598,33.17
3,-0.01437378,-0.3461914,0.9380493,0.2746131,-0.06951904,-0.3415985,0.9372559,-31.72778,6.369629,-26.93988,4.928131,0.5076813,0.4148345,0.3576096,0.03468323,-0.3493652,0.9363251,35.00507,4.452545,-28.67509,4.85907,0.4143035,0.4929056,0.02385032,1.199031,-0.004106939,0.1255323,-0.003610889,-0.009297401,3.309168,37.36598,33.17
3,-0.01437378,-0.3461914,0.9380493,0.2746131,-0.06951904,-0.3415985,0.9372559,-31.72778,6.369629,-26.93988,4.928131,0.5076813,0.4148345,0.3576096,0.03468323,-0.3493652,0.9363251,35.00507,4.452545,-28.67509,4.85907,0.4143035,0.4929056,0.02385032,1.199031,-0.004106939,0.1255323,-0.003610889,-0.009297401,3.309168,37.36598,33.17
3,-0.01820374,-0.3422699,0.9394073,0.2790857,-0.07901001,-0.3347931,0.9389648,-31.71936,6.290695,-26.99205,4.973999,0.5089274,0.4167052,0.385008,0.03800964,-0.348053,0.9366913,35.02118,4.446655,-28.67972,4.842743,0.4131888,0.4929056,0.02380812,1.199035,-0.004056334,0.1259201,-0.003981814,-0.009430278,3.309168,37.36598,33.17
3,-0.01683044,-0.3358002,0.9417725,0.2811374,-0.08164978,-0.321991,0.9432068,-31.72774,6.263855,-26.99945,5.054352,0.5096258,0.4153822,0.3757758,0.03842163,-0.346405,0.9372864,35.02849,4.43837,-28.68204,4.858353,0.4128671,0.4929056,0.02365196,1.19889,-0.00398618,0.1266418,-0.004451802,-0.009479135,3.309168,37.36598,33.17
3,-0.01683044,-0.3358002,0.9417725,0.2811374,-0.08164978,-0.321991,0.9432068,-31.72774,6.263855,-26.99945,5.054352,0.5096258,0.4153822,0.3757758,0.03842163,-0.346405,0.9372864,35.02849,4.43837,-28.68204,4.858353,0.4128671,0.4929056,0.02365196,1.19889,-0.00398618,0.1266418,-0.004451802,-0.009479135,3.309168,37.36598,33.17
3,-0.02142334,-0.3332672,0.9425812,0.2506256,-0.07164001,-0.3335114,0.9400177,-31.74036,6.187256,-27.0406,5.018951,0.5084336,0.4202906,0.3692143,0.02828979,-0.3321991,0.9427795,35.03522,4.300583,-28.72879,4.813766,0.4142948,0.4954504,0.02357578,1.198825,-0.003944397,0.1274744,-0.004638672,-0.009290185,3.309168,37.36598,33.17
3,-0.02337646,-0.3395691,0.9402771,0.2492787,-0.08157349,-0.3214264,0.9434052,-31.75294,6.106247,-27.0694,4.960251,0.510466,0.4211681,0.3872136,0.03025818,-0.3551483,0.9343109,35.01791,4.249527,-28.76001,4.800003,0.4144804,0.5017153,0.02338016,1.198522,-0.003900707,0.129013,-0.005062608,-0.008958664,3.309168,37.36598,33.17
3,-0.01901245,-0.3365326,0.9414673,0.2222103,-0.08712769,-0.3409576,0.9360199,-31.75307,5.99527,-27.12605,4.889206,0.5113655,0.4288563,0.4009836,0.04350281,-0.3310852,0.9425812,34.98759,4.111557,-28.81248,4.829742,0.4132959,0.5025177,0.02345467,1.198308,-0.003940582,0.129863,-0.0051255,-0.008776338,3.309168,37.36598,33.17
3,-0.01901245,-0.3365326,0.9414673,0.2222103,-0.08712769,-0.3409576,0.9360199,-31.75307,5.99527,-27.12605,4.889206,0.5113655,0.4288563,0.4009836,0.04350281,-0.3310852,0.9425812,34.98759,4.111557,-28.81248,4.829742,0.4132959,0.5025177,0.02345467,1.198308,-0.003940582,0.129863,-0.0051255,-0.008776338,3.309168,37.36598,33.17
3,-0.01895142,-0.3280792,0.944458,0.2167009,-0.07086182,-0.3107452,0.9478302,-31.75581,5.901306,-27.14603,5.019547,0.5088247,0.4266939,0.4061605,0.04290771,-0.3474121,0.9367218,34.97559,4.055191,-28.85094,4.872696,0.4137371,0.5078054,0.0233866,1.198079,-0.003946543,0.1306118,-0.005126954,-0.008836408,3.309168,37.36598,33.17
3,-0.01948547,-0.3223877,0.9463959,0.1957584,-0.0973053,-0.3053436,0.9472504,-31.76289,5.882553,-27.15372,4.98848,0.5133352,0.4265791,0.3777887,0.04827881,-0.335556,0.9407806,34.91626,3.983536,-28.84171,4.908859,0.4149022,0.5080024,0.02327836,1.19761,-0.003977656,0.1313625,-0.005251862,-0.0090686,3.309168,21.10066,33.17
3,-0.01948547,-0.3223877,0.9463959,0.1957584,-0.0973053,-0.3053436,0.9472504,-31.76289,5.882553,-27.15372,4.98848,0.5133352,0.4265791,0.3777887,0.04827881,-0.335556,0.9407806,34.91626,3.983536,-28.84171,4.908859,0.4149022,0.5080024,0.02327836,1.19761,-0.003977656,0.1313625,-0.005251862,-0.0090686,3.309168,21.10066,33.17
3,-0.02732849,-0.3450012,0.9381866,0.1957584,-0.09124756,-0.3222809,0.9422302,-31.78372,6.100861,-27.0921,5.017822,0.5130465,0.4217228,0.3777887,0.06317139,-0.3744049,0.9251099,35.03592,4.215088,-28.78983,4.349701,0.4082517,0.5069369,0.02318156,1.197425,-0.003988087,0.1317855,-0.005256116,-0.008973622,3.309168,21.10066,33.17
3,-1.0,-1.0,-1.0,0.1450809,0.0,0.0,0.0,-31.7506,6.57045,-26.94801,-1.0,0.5065098,0.4173781,0.2955242,0.0,0.0,0.0,34.87875,4.213242,-28.76352,-1.0,0.4211479,0.5053833,0.023,1.197154,-0.004156232,0.1328975,-0.005536397,-0.008813612,3.309168,21.10066,33.17
4,-1.0,-1.0,-1.0,0.0,0.0,0.0,0.0,-31.76892,6.270584,-26.98582,-1.0,0.5118086,0.4142237,0.06366913,0.0,0.0,0.0,34.70261,4.159103,-28.78728,-1.0,0.432594,0.5093898,0.02297676,1.197075,-0.004146874,0.1332697,-0.005828777,-0.008700454,3.309168,21.10066,33.17
4,-1.0,-1.0,-1.0,0.0,0.0,0.0,0.0,-31.11201,5.991058,-27.08215,-1.0,-1.0,-1.0,0.0,0.0,0.0,0.0,34.70261,4.159103,-28.78728,-1.0,-1.0,-1.0,0.02283394,1.19695,-0.004200101,0.13352,-0.00601746,-0.008671289,3.309168,21.10066,33.17
4,-1.0,-1.0,-1.0,0.0,0.0,0.0,0.0,-31.11201,5.991058,-27.08215,-1.0,-1.0,-1.0,0.0,0.0,0.0,0.0,34.70261,4.159103,-28.78728,-1.0,-1.0,-1.0,0.02283394,1.19695,-0.004200101,0.13352,-0.00601746,-0.008671289,3.309168,21.10066,33.17
4,-1.0,-1.0,-1.0,0.0,0.0,0.0,0.0,-31.11201,5.991058,-27.08215,-1.0,-1.0,-1.0,0.0,0.0,0.0,0.0,34.70261,4.159103,-28.78728,-1.0,-1.0,-1.0,0.02273619,1.196851,-0.004255116,0.1338137,-0.006220797,-0.008509098,3.309168,21.10066,33.17
4,-1.0,-1.0,-1.0,0.0,0.0,0.0,0.0,-31.11201,5.991058,-27.08215,-1.0,-1.0,-1.0,0.0,0.0,0.0,0.0,34.70261,4.159103,-28.78728,-1.0,-1.0,-1.0,0.02248144,1.196676,-0.004360557,0.1336091,-0.006737131,-0.008377617,3.309168,21.10066,33.17
4,-1.0,-1.0,-1.0,0.0,0.0,0.0,0.0,-31.11201,5.991058,-27.08215,-1.0,-1.0,-1.0,0.0,0.0,0.0,0.0,34.70261,4.159103,-28.78728,-1.0,-1.0,-1.0,0.02233934,1.19671,-0.004410267,0.1336809,-0.006881562,-0.008322295,3.309168,21.10066,33.17
4,-1.0,-1.0,-1.0,0.0,0.0,0.0,0.0,-31.11201,5.991058,-27.08215,-1.0,-1.0,-1.0,0.0,0.0,0.0,0.0,34.70261,4.159103,-28.78728,-1.0,-1.0,-1.0,0.02233934,1.19671,-0.004410267,0.1336809,-0.006881562,-0.008322295,3.309168,21.10066,33.17
4,-1.0,-1.0,-1.0,0.0,0.0,0.0,0.0,-31.11201,5.991058,-27.08215,-1.0,-1.0,-1.0,0.0,0.0,0.0,0.0,34.70261,4.159103,-28.78728,-1.0,-1.0,-1.0,0.02223313,1.196591,-0.004449248,0.1337601,-0.007109482,-0.008333031,3.309168,21.10066,33.17
4,-1.0,-1.0,-1.0,0.004739895,0.0,0.0,0.0,-31.77341,7.407211,-26.69009,-1.0,0.5118664,0.357311,0.0,0.0,0.0,0.0,34.70261,4.159103,-28.78728,-1.0,-1.0,-1.0,0.0219959,1.196444,-0.004538476,0.1342493,-0.007372885,-0.008078805,3.309168,21.10066,33.17
4,-1.0,-1.0,-1.0,0.004739895,0.0,0.0,0.0,-31.77341,7.407211,-26.69009,-1.0,0.5118664,0.357311,0.0,0.0,0.0,0.0,34.70261,4.159103,-28.78728,-1.0,-1.0,-1.0,0.0219959,1.196444,-0.004538476,0.1342493,-0.007372885,-0.008078805,3.309168,21.10066,33.17
4,-1.0,-1.0,-1.0,0.1580567,0.0,0.0,0.0,-31.77794,7.38974,-26.75331,-1.0,0.5122526,0.34561,0.1673911,0.0,0.0,0.0,35.22429,5.576035,-28.35672,-1.0,0.4089702,0.4412907,0.02186537,1.19646,-0.004623652,0.1344447,-0.007423241,-0.007897865,3.309168,21.10066,33.17
4,-1.0,-1.0,-1.0,0.1580567,0.0,0.0,0.0,-31.82991,7.44606,-26.95856,-1.0,0.5166671,0.3343474,0.1673911,0.0,0.0,0.0,35.21075,5.565277,-28.36519,-1.0,0.417632,0.449082,0.0217036,1.196473,-0.00466466,0.1342111,-0.007377936,-0.007637935,3.309168,21.10066,33.17
4,-1.0,-1.0,-1.0,0.2503492,0.0,0.0,0.0,-31.84586,7.436478,-27.04935,-1.0,0.5130421,0.332713,0.2940738,0.0,0.0,0.0,35.25301,5.53569,-28.35899,-1.0,0.4043064,0.4219896,0.02166641,1.196477,-0.004642963,0.1339365,-0.007243411,-0.007734867,3.309168,21.10066,33.17
4,-1.0,-1.0,-1.0,0.3560582,0.0,0.0,0.0,-31.88649,7.413635,-27.09326,-1.0,0.5152388,0.3260152,0.3804199,0.0,0.0,0.0,35.23495,5.571091,-28.58118,-1.0,0.4060022,0.4127338,0.02163577,1.196418,-0.004637539,0.1336566,-0.007136678,-0.007550619,3.309168,6.582039,33.17
4,-1.0,-1.0,-1.0,0.3560582,0.0,0.0,0.0,-31.88649,7.413635,-27.09326,-1.0,0.5152388,0.3260152,0.3804199,0.0,0.0,0.0,35.23495,5.571091,-28.58118,-1.0,0.4060022,0.4127338,0.02163577,1.196418,-0.004637539,0.1336566,-0.007136678,-0.007550619,3.309168,6.582039,33.17
4,-0.05540466,-0.03300476,0.9979095,0.4180278,-0.05540466,-0.03300476,0.9979095,-31.91121,7.333664,-26.76321,4.847748,0.5119643,0.3276783,0.4653141,0.0,0.0,0.0,35.25972,5.535828,-28.56876,-1.0,0.4100375,0.4074529,0.0215863,1.196422,-0.004688501,0.1334768,-0.006908576,-0.00746827,3.309168,6.582039,33.17
4,-0.08398438,0.02536011,0.9961395,0.4406946,-0.08398438,0.02536011,0.9961395,-31.91513,7.350906,-26.84186,5.152924,0.5168699,0.3178978,0.5256463,0.02861023,-0.07807922,0.996521,35.2733,5.47348,-28.4808,4.378632,0.4068454,0.4078182,0.02150953,1.196385,-0.004653037,0.1329374,-0.006582749,-0.007376926,3.309168,6.582039,33.17
4,-0.08398438,0.02536011,0.9961395,0.4406946,-0.08398438,0.02536011,0.9961395,-31.91513,7.350906,-26.84186,5.152924,0.5168699,0.3178978,0.5256463,0.02861023,-0.07807922,0.996521,35.2733,5.47348,-28.4808,4.378632,0.4068454,0.4078182,0.02150953,1.196385,-0.004653037,0.1329374,-0.006582749,-0.007376926,3.309168,6.582039,33.17
4,0.0003509521,-0.0440979,0.9990234,0.5458699,-0.09228516,0.02259827,0.9954681,-31.9239,7.351639,-26.80507,5.052078,0.5185143,0.3181162,0.6145629,0.02648926,-0.06282043,0.9976654,35.26874,5.511032,-28.5157,4.621155,0.4073278,0.4042554,0.02150953,1.196385,-0.004653037,0.1329374,-0.006582749,-0.007376926,3.309168,6.582039,33.17
4,0.0194397,-0.02528381,0.9994812,0.5759913,-0.07957458,0.03250122,0.9962921,-31.9342,7.477859,-27.42265,5.216125,0.5169789,0.3170158,0.7017682,0.03356934,-0.0335083,0.9988708,35.28983,5.471191,-28.31743,4.645248,0.4055206,0.3988622,0.0214678,1.196361,-0.004581988,0.1327322,-0.006527053,-0.007093745,3.309168,6.582039,33.17
4,-0.04495239,0.03572083,0.9983368,0.6266305,-0.06498718,0.04850769,0.9967041,-31.93002,7.421494,-27.11713,5.278625,0.5143953,0.3135794,0.7729622,0.02474976,-0.008789063,0.999649,35.35674,5.337387,-27.83524,4.883255,0.404958,0.3952509,0.02143216,1.196336,-0.004534721,0.1324188,-0.006439715,-0.006906419,3.309168,6.582039,33.17
4,-0.01264954,0.01748657,0.9997559,0.6378705,-0.06478882,0.05548096,0.9963531,-31.93011,7.455734,-27.23758,5.30603,0.5144184,0.3121727,0.8027945,0.01898193,-0.005599976,0.9998016,35.33693,5.460098,-28.24876,4.929291,0.406356,0.393968,0.02139676,1.1963,-0.004392743,0.1321666,-0.006193189,-0.007073761,3.309168,6.582039,33.17
4,-0.01264954,0.01748657,0.9997559,0.6378705,-0.06478882,0.05548096,0.9963531,-31.93011,7.455734,-27.23758,5.30603,0.5144184,0.3121727,0.8027945,0.01898193,-0.005599976,0.9998016,35.33693,5.460098,-28.24876,4.929291,0.406356,0.393968,0.02139676,1.1963,-0.004392743,0.1321666,-0.006193189,-0.007073761,3.309168,6.582039,33.17
4,-0.0007019043,0.02593994,0.999649,0.6559975,-0.07762146,0.03070068,0.9965057,-31.94601,7.402191,-27.03905,5.158661,0.5169519,0.3166753,0.834083,0.02253723,0.0244751,0.9994354,35.33469,5.43132,-28.20691,5.182114,0.405794,0.3895392,0.02132046,1.196041,-0.004328847,0.1319714,-0.006129097,-0.007557523,3.309168,6.582039,33.17
4,-0.0007019043,0.02593994,0.999649,0.6559975,-0.07762146,0.03070068,0.9965057,-31.94601,7.402191,-27.03905,5.158661,0.5169519,0.3166753,0.834083,0.02253723,0.0244751,0.9994354,35.33469,5.43132,-28.20691,5.182114,0.405794,0.3895392,0.02132046,1.196041,-0.004328847,0.1319714,-0.006129097,-0.007557523,3.309168,6.582039,33.17
4,-0.02250671,0.0353241,0.999115,0.6857849,-0.07601929,0.04878235,0.9959106,-31.93527,7.432693,-27.27548,5.286194,0.5164182,0.3145251,0.8643147,0.03656006,0.02035522,0.999115,35.34335,5.508743,-28.66864,5.089157,0.4028953,0.3914163,0.02135813,1.195799,-0.004209995,0.1322151,-0.006066784,-0.007795315,3.309168,6.582039,33.17
4,-0.02250671,0.0353241,0.999115,0.6857849,-0.07601929,0.04878235,0.9959106,-31.93527,7.432693,-27.27548,5.286194,0.5164182,0.3145251,0.8643147,0.03656006,0.02035522,0.999115,35.34335,5.508743,-28.66864,5.089157,0.4028953,0.3914163,0.02135813,1.195799,-0.004209995,0.1322151,-0.006066784,-0.007795315,3.309168,6.582039,33.17
4,-0.07693481,0.06965637,0.9945984,0.7187439,-0.08239746,0.070755,0.9940796,-31.94556,7.487534,-27.42978,5.388947,0.5179354,0.3099417,0.8620993,0.04582214,0.04469299,0.9979401,35.34244,5.538345,-28.73984,5.238922,0.4012496,0.3868325,0.02131617,1.195585,-0.004126668,0.1325855,-0.006034769,-0.008361594,3.309168,-43.1695,33.17
4,-0.07693481,0.06965637,0.9945984,0.7187439,-0.08239746,0.070755,0.9940796,-31.94556,7.487534,-27.42978,5.388947,0.5179354,0.3099417,0.8620993,0.04582214,0.04469299,0.9979401,35.34244,5.538345,-28.73984,5.238922,0.4012496,0.3868325,0.02131617,1.195585,-0.004126668,0.1325855,-0.006034769,-0.008361594,3.309168,-43.1695,33.17
4,-0.07820129,0.08895874,0.9929504,0.7820914,-0.07887268,0.08943176,0.9928589,-31.93642,7.550659,-27.46568,5.556015,0.5171087,0.3048211,0.9155328,0.01023865,0.02597046,0.9996033,35.37331,5.70491,-29.30968,5.100082,0.4059011,0.3889873,0.02125955,1.195325,-0.003979623,0.1326893,-0.006013745,-0.008942849,3.309168,-43.1695,33.17
4,-0.07820129,0.08895874,0.9929504,0.7820914,-0.07887268,0.08943176,0.9928589,-31.93642,7.550659,-27.46568,5.556015,0.5171087,0.3048211,0.9155328,0.01023865,0.02597046,0.9996033,35.37331,5.70491,-29.30968,5.100082,0.4059011,0.3889873,0.02125955,1.195325,-0.003979623,0.1326893,-0.006013745,-0.008942849,3.309168,-43.1695,33.17
4,-0.07846069,0.08479309,0.9933014,0.8072511,-0.07852173,0.08482361,0.9932861,-31.92717,7.599442,-27.51941,5.53363,0.5167621,0.3042973,0.9143464,0.01821899,0.03889465,0.9990692,35.39137,5.744934,-29.30272,5.065567,0.4039121,0.3852479,0.02120459,1.195078,-0.003751397,0.1324026,-0.005968977,-0.009189391,3.309168,-43.1695,33.17
4,-0.07846069,0.08479309,0.9933014,0.8072511,-0.07852173,0.08482361,0.9932861,-31.92717,7.599442,-27.51941,5.53363,0.5167621,0.3042973,0.9143464,0.01821899,0.03889465,0.9990692,35.39137,5.744934,-29.30272,5.065567,0.4039121,0.3852479,0.02120459,1.195078,-0.003751397,0.1324026,-0.005968977,-0.009189391,3.309168,-43.1695,33.17
4,-0.0677948,0.06037903,0.9958649,0.8412204,-0.07110596,0.06091309,0.9956055,-31.96098,7.470398,-26.7997,5.432755,0.516373,0.3073477,0.9167455,0.02175903,0.04568481,0.9987183,35.37357,5.819519,-29.50705,5.175674,0.4037637,0.3832184,0.0211606,1.194746,-0.00368166,0.1326111,-0.005948971,-0.009356514,3.309168,-43.1695,33.17
4,-0.0677948,0.06037903,0.9958649,0.8412204,-0.07110596,0.06091309,0.9956055,-31.96098,7.470398,-26.7997,5.432755,0.516373,0.3073477,0.9167455,0.02175903,0.04568481,0.9987183,35.37357,5.819519,-29.50705,5.175674,0.4037637,0.3832184,0.0211606,1.194746,-0.00368166,0.1326111,-0.005948971,-0.009356514,3.309168,-43.1695,33.17
4,0.01531982,0.03288269,0.9993286,0.8704123,-0.07542419,0.06904602,0.994751,-31.95148,7.552536,-27.08974,5.477356,0.5168868,0.3053613,0.9410449,0.01675415,0.03230286,0.9993286,35.37947,5.791245,-29.37892,5.151093,0.4045102,0.385446,0.02116311,1.194326,-0.003719389,0.1334497,-0.005864459,-0.009554294,3.309168,-43.1695,33.17
4,0.01531982,0.03288269,0.9993286,0.8704123,-0.07542419,0.06904602,0.994751,-31.95148,7.552536,-27.08974,5.477356,0.5168868,0.3053613,0.9410449,0.01675415,0.03230286,0.9993286,35.37947,5.791245,-29.37892,5.151093,0.4045102,0.385446,0.02116311,1.194326,-0.003719389,0.1334497,-0.005864459,-0.009554294,3.309168,-43.1695,33.17
4,0.01127625,0.03608704,0.9992828,0.8953951,-0.08525085,0.05685425,0.9947205,-31.94551,7.570389,-27.02838,5.418243,0.5182555,0.3064016,0.9607055,0.01651001,0.03494263,0.9992371,35.37947,5.810043,-29.44492,5.148361,0.4045102,0.3848907,0.02122402,1.194009,-0.003760695,0.1342151,-0.006001342,-0.009787725,3.309168,-43.1695,33.17
4,0.01127625,0.03608704,0.9992828,0.8953951,-0.08525085,0.05685425,0.9947205,-31.94551,7.570389,-27.02838,5.418243,0.5182555,0.3064016,0.9607055,0.01651001,0.03494263,0.9992371,35.37947,5.810043,-29.44492,5.148361,0.4045102,0.3848907,0.02122402,1.194009,-0.003760695,0.1342151,-0.006001342,-0.009787725,3.309168,-43.1695,33.17
4,-0.00692749,0.05625916,0.9983826,0.9232807,-0.07473755,0.06713867,0.9949341,-31.95357,7.674271,-27.15315,5.506638,0.5168899,0.3019135,0.9757871,0.03007507,0.05021667,0.9982758,35.36575,5.805878,-29.2421,5.212555,0.4027696,0.3806926,0.02125084,1.193759,-0.003683209,0.1345098,-0.006072921,-0.009878649,3.309168,-43.1695,33.17
4,-0.00692749,0.05625916,0.9983826,0.9232807,-0.07473755,0.06713867,0.9949341,-31.95357,7.674271,-27.15315,5.506638,0.5168899,0.3019135,0.9757871,0.03007507,0.05021667,0.9982758,35.36575,5.805878,-29.2421,5.212555,0.4027696,0.3806926,0.02125084,1.193759,-0.003683209,0.1345098,-0.006072921,-0.009878649,3.309168,-43.1695,33.17
4,-0.04624939,0.0813446,0.9956055,0.9330021,-0.07130432,0.08470154,0.9938507,-31.95334,7.659271,-27.07983,5.500381,0.5163302,0.2989028,0.9789221,0.03511047,0.07008362,0.9969177,35.36723,5.806488,-29.04555,5.331955,0.4019361,0.3756559,0.02119768,1.193514,-0.003926039,0.1351331,-0.00590245,-0.01033641,3.309168,-43.1695,33.17
4,-0.04624939,0.0813446,0.9956055,0.9330021,-0.07130432,0.08470154,0.9938507,-31.95334,7.659271,-27.07983,5.500381,0.5163302,0.2989028,0.9789221,0.03511047,0.07008362,0.9969177,35.36723,5.806488,-29.04555,5.331955,0.4019361,0.3756559,0.02119768,1.193514,-0.003926039,0.1351331,-0.00590245,-0.01033641,3.309168,-43.1695,33.17
4,-0.04624939,0.0813446,0.9956055,0.9330021,-0.07130432,0.08470154,0.9938507,-31.95334,7.659271,-27.07983,5.500381,0.5163302,0.2989028,0.9789221,0.03511047,0.07008362,0.9969177,35.36723,5.806488,-29.04555,5.331955,0.4019361,0.3756559,0.02112687,1.193216,-0.00425303,0.1360931,-0.005859375,-0.0103652,3.309168,11.68237,33.17
4,-0.04624939,0.0813446,0.9956055,0.9330021,-0.07130432,0.08470154,0.9938507,-31.95334,7.659271,-27.07983,5.500381,0.5163302,0.2989028,0.9789221,0.03511047,0.07008362,0.9969177,35.36723,5.806488,-29.04555,5.331955,0.4019361,0.3756559,0.02112687,1.193216,-0.00425303,0.1360931,-0.005859375,-0.0103652,3.309168,11.68237,33.17
4,-0.04624939,0.0813446,0.9956055,0.9330021,-0.07130432,0.08470154,0.9938507,-31.95334,7.659271,-27.07983,5.500381,0.5163302,0.2989028,0.9789221,0.03511047,0.07008362,0.9969177,35.36723,5.806488,-29.04555,5.331955,0.4019361,0.3756559,0.02110612,1.193183,-0.004551351,0.1364699,-0.005897399,-0.01040824,3.309168,11.68237,33.17
4,-0.04624939,0.0813446,0.9956055,0.9330021,-0.07130432,0.08470154,0.9938507,-31.95334,7.659271,-27.07983,5.500381,0.5163302,0.2989028,0.9789221,0.03511047,0.07008362,0.9969177,35.36723,5.806488,-29.04555,5.331955,0.4019361,0.3756559,0.02110612,1.193183,-0.004551351,0.1364699,-0.005897399,-0.01040824,3.309168,11.68237,33.17
4,-0.04388428,0.07984924,0.9958344,1.0,-0.05429077,0.08239746,0.9951172,-31.86656,7.806931,-27.0334,5.615677,0.5106238,0.2938387,1.0,0.05206299,0.05592346,0.9970703,35.43271,5.914352,-29.04822,5.31105,0.3967467,0.3742162,0.02101099,1.193277,-0.004682779,0.1358035,-0.005922612,-0.01051507,3.309168,11.68237,33.17
4,-0.04388428,0.07984924,0.9958344,1.0,-0.05429077,0.08239746,0.9951172,-31.86656,7.806931,-27.0334,5.615677,0.5106238,0.2938387,1.0,0.05206299,0.05592346,0.9970703,35.43271,5.914352,-29.04822,5.31105,0.3967467,0.3742162,0.02101099,1.193277,-0.004682779,0.1358035,-0.005922612,-0.01051507,3.309168,11.68237,33.17
4,0.08454895,0.07489014,0.9935913,0.9100323,0.08093262,0.07493591,0.9938965,-31.04875,7.826538,-27.15642,5.689987,0.4609597,0.2950451,0.9867254,0.2224731,0.07225037,0.9722443,36.0743,5.838409,-28.98871,5.497406,0.3447418,0.3732492,0.02097642,1.193361,-0.004891157,0.1346316,-0.006199201,-0.01066213,3.309168,11.68237,33.17
4,0.08454895,0.07489014,0.9935913,0.9100323,0.08093262,0.07493591,0.9938965,-31.04875,7.826538,-27.15642,5.689987,0.4609597,0.2950451,0.9867254,0.2224731,0.07225037,0.9722443,36.0743,5.838409,-28.98871,5.497406,0.3447418,0.3732492,0.02097642,1.193361,-0.004891157,0.1346316,-0.006199201,-0.01066213,3.309168,11.68237,33.17
4,0.2014313,0.05508423,0.9779358,1.0,0.1907501,0.05657959,0.9799957,-30.5938,7.654373,-26.57271,5.7509,0.4277793,0.2997122,1.0,0.2943115,0.04156494,0.9548035,36.58592,5.771149,-29.13033,5.420563,0.3135234,0.3816562,0.02088344,1.193304,-0.005142689,0.1339447,-0.006681608,-0.01058146,3.309168,11.68237,33.17
4,0.2014313,0.05508423,0.9779358,1.0,0.1907501,0.05657959,0.9799957,-30.5938,7.654373,-26.57271,5.7509,0.4277793,0.2997122,1.0,0.2943115,0.04156494,0.9548035,36.58592,5.771149,-29.13033,5.420563,0.3135234,0.3816562,0.02088344,1.193304,-0.005142689,0.1339447,-0.006681608,-0.01058146,3.309168,11.68237,33.17
4,0.2823181,0.03479004,0.9586792,0.9533328,0.1830902,0.0619812,0.9811249,-30.65276,7.499893,-26.04837,5.636627,0.4311925,0.3003439,0.9495054,0.2907867,0.03240967,0.9562225,36.60168,5.74559,-29.12514,5.432541,0.3136537,0.3840834,0.0208112,1.193273,-0.005480647,0.1336836,-0.007064275,-0.01066213,3.309168,11.68237,33.17
4,0.2823181,0.03479004,0.9586792,0.9533328,0.1830902,0.0619812,0.9811249,-30.65276,7.499893,-26.04837,5.636627,0.4311925,0.3003439,0.9495054,0.2907867,0.03240967,0.9562225,36.60168,5.74559,-29.12514,5.432541,0.3136537,0.3840834,0.0208112,1.193273,-0.005480647,0.1336836,-0.007064275,-0.01066213,3.309168,11.68237,33.17
4,0.2953186,0.0327301,0.954834,1.0,0.1877289,0.05271912,0.9808044,-30.64397,7.641144,-26.48961,5.611877,0.4299636,0.3002194,1.0,0.2953796,0.03271484,0.9548035,36.60515,5.767776,-29.13364,5.369431,0.3126802,0.3833249,0.0207541,1.193368,-0.005764008,0.1329718,-0.007379956,-0.01089849,3.309168,11.68237,33.17
4,0.2953186,0.0327301,0.954834,1.0,0.1877289,0.05271912,0.9808044,-30.64397,7.641144,-26.48961,5.611877,0.4299636,0.3002194,1.0,0.2953796,0.03271484,0.9548035,36.60515,5.767776,-29.13364,5.369431,0.3126802,0.3833249,0.0207541,1.193368,-0.005764008,0.1329718,-0.007379956,-0.01089849,3.309168,11.68237,33.17
4,0.2894287,0.02546692,0.9568481,1.0,0.1825256,0.04774475,0.9820251,-30.65228,7.641144,-26.37799,5.615387,0.4311544,0.3002194,1.0,0.2901306,0.02531433,0.9566345,36.60924,5.807983,-29.12358,5.292343,0.3135167,0.3830713,0.02068555,1.193518,-0.006014228,0.131836,-0.007500126,-0.01128672,3.309168,26.68835,33.17
4,0.2894287,0.02546692,0.9568481,1.0,0.1825256,0.04774475,0.9820251,-30.65228,7.641144,-26.37799,5.615387,0.4311544,0.3002194,1.0,0.2901306,0.02531433,0.9566345,36.60924,5.807983,-29.12358,5.292343,0.3135167,0.3830713,0.02068555,1.193518,-0.006014228,0.131836,-0.007500126,-0.01128672,3.309168,16.91249,33.17
4,0.2865753,0.02766418,0.9576569,1.0,0.1880341,0.04924011,0.9809113,-30.66411,7.650528,-26.39561,5.60553,0.4306343,0.2998309,1.0,0.2889252,0.02714539,0.956955,36.61177,5.81546,-29.12463,5.313004,0.3136257,0.3824902,0.02060735,1.193603,-0.006317616,0.1305914,-0.007814407,-0.01149926,3.309168,12.16675,33.17
4,0.2865753,0.02766418,0.9576569,1.0,0.1880341,0.04924011,0.9809113,-30.66411,7.650528,-26.39561,5.60553,0.4306343,0.2998309,1.0,0.2889252,0.02714539,0.956955,36.61177,5.81546,-29.12463,5.313004,0.3136257,0.3824902,0.02060735,1.193603,-0.006317616,0.1305914,-0.007814407,-0.01149926,3.309168,12.16675,33.17
4,0.265686,0.0297699,0.9635925,1.0,0.1853485,0.04496765,0.9816284,-30.66833,7.664337,-26.42818,5.570282,0.431206,0.3003049,1.0,0.2893219,0.025177,0.9568939,36.61467,5.809097,-29.12921,5.35556,0.3134572,0.3830958,0.02057052,1.193637,-0.006598473,0.1298942,-0.007986981,-0.01120589,3.309168,12.16675,33.17
4,0.265686,0.0297699,0.9635925,1.0,0.1853485,0.04496765,0.9816284,-30.66833,7.664337,-26.42818,5.570282,0.431206,0.3003049,1.0,0.2893219,0.025177,0.9568939,36.61467,5.809097,-29.12921,5.35556,0.3134572,0.3830958,0.02057052,1.193637,-0.006598473,0.1298942,-0.007986981,-0.01120589,3.309168,12.16675,33.17
4,0.2428131,0.03495789,0.9694366,1.0,0.1858215,0.04289246,0.9816437,-30.67426,7.671951,-26.45711,5.541077,0.4313114,0.3006114,1.0,0.2885284,0.02842712,0.9570313,36.61966,5.793915,-29.13203,5.336945,0.3134042,0.3830756,0.02052987,1.193701,-0.006773889,0.1294958,-0.007989779,-0.01122649,3.309168,12.16675,33.17
4,0.2428131,0.03495789,0.9694366,1.0,0.1858215,0.04289246,0.9816437,-30.67426,7.671951,-26.45711,5.541077,0.4313114,0.3006114,1.0,0.2885284,0.02842712,0.9570313,36.61966,5.793915,-29.13203,5.336945,0.3134042,0.3830756,0.02052987,1.193701,-0.006773889,0.1294958,-0.007989779,-0.01122649,3.309168,12.16675,33.17
4,0.2434082,0.03547668,0.9692688,1.0,0.1860352,0.0422821,0.9816284,-30.67905,7.673599,-26.46272,5.471313,0.4314148,0.3007046,1.0,0.2882538,0.02999878,0.957077,36.62077,5.797104,-29.13226,5.275009,0.3134042,0.3826902,0.02056682,1.193773,-0.006895781,0.1290324,-0.007918593,-0.01127813,3.309168,12.16675,33.17
4,0.2380524,0.03492737,0.9706116,1.0,0.1829224,0.04231262,0.9822083,-30.6842,7.674866,-26.4745,5.441986,0.4320907,0.300746,1.0,0.2874756,0.02812195,0.9573669,36.62178,5.805923,-29.13203,5.27417,0.3135157,0.3826902,0.02061641,1.193859,-0.007170677,0.1280423,-0.007762751,-0.01123047,3.309168,12.16675,33.17
4,0.2370453,0.03471375,0.970871,1.0,0.1817474,0.04130554,0.9824677,-30.68947,7.678192,-26.52634,5.427887,0.432443,0.3011965,1.0,0.2879181,0.0284729,0.9572144,36.62259,5.806488,-29.13203,5.269409,0.3134042,0.38261,0.02057397,1.193941,-0.007332981,0.1275477,-0.00756639,-0.01105259,3.309168,12.16675,33.17
4,0.2370453,0.03471375,0.970871,1.0,0.1817474,0.04130554,0.9824677,-30.68947,7.678192,-26.52634,5.427887,0.432443,0.3011965,1.0,0.2879181,0.0284729,0.9572144,36.62259,5.806488,-29.13203,5.269409,0.3134042,0.38261,0.02057397,1.193941,-0.007332981,0.1275477,-0.00756639,-0.01105259,3.309168,12.16675,33.17
4,0.2395477,0.03471375,0.9702454,1.0,0.1816254,0.04180908,0.9824677,-30.68947,7.680481,-26.55032,5.426239,0.4324515,0.3011965,1.0,0.2875061,0.02868652,0.9573364,36.62305,5.808517,-29.1319,5.271652,0.31346,0.3824902,0.02060091,1.194016,-0.007456124,0.1270258,-0.007507076,-0.01079891,3.309168,12.16675,33.17
4,0.2496796,0.03121948,0.9678192,1.0,0.180069,0.03868103,0.9828796,-30.68947,7.705399,-26.61,5.386948,0.4326805,0.3013052,1.0,0.2868805,0.02711487,0.9575653,36.62486,5.810547,-29.13174,5.259338,0.3135157,0.3826902,0.02061236,1.194291,-0.007671714,0.1260591,-0.007529869,-0.01004914,3.309168,12.16675,33.17
4,0.2544861,0.03227234,0.9665222,1.0,0.1783752,0.03871155,0.9831848,-30.68947,7.708481,-26.63063,5.36821,0.432947,0.3013313,1.0,0.2866058,0.02946472,0.9575806,36.62526,5.8134,-29.13174,5.195419,0.3135385,0.382171,0.02058756,1.194435,-0.007743895,0.1254836,-0.007472259,-0.009787725,3.309168,12.16675,33.17
4,0.2544861,0.03227234,0.9665222,1.0,0.1783752,0.03871155,0.9831848,-30.68947,7.708481,-26.63063,5.36821,0.432947,0.3013313,1.0,0.2866058,0.02946472,0.9575806,36.62526,5.8134,-29.13174,5.195419,0.3135385,0.382171,0.02058756,1.194435,-0.007743895,0.1254836,-0.007472259,-0.009787725,3.309168,12.16675,33.17
4,0.2401428,0.02706909,0.9703522,1.0,0.1204071,0.03619385,0.9920502,-30.94669,7.675079,-26.63725,5.351578,0.4510796,0.3025988,1.0,0.2419281,0.0269165,0.9699097,36.32626,5.771698,-29.04404,5.075302,0.3323901,0.3835136,0.02059495,1.194623,-0.007894158,0.1248854,-0.007543708,-0.009584658,3.309168,12.09687,33.17
4,0.1394348,0.009994507,0.9901733,1.0,0.03305054,0.0362854,0.9987793,-31.43225,7.676041,-26.86937,5.217163,0.4816492,0.3048394,1.0,0.140686,0.009674072,0.9899902,35.81219,5.896942,-29.33463,4.966278,0.3681152,0.3848618,0.02055013,1.195069,-0.008043647,0.1236416,-0.007626221,-0.009497196,3.309168,12.09687,33.17
4,0.1394348,0.009994507,0.9901733,1.0,0.03305054,0.0362854,0.9987793,-31.43225,7.676041,-26.86937,5.217163,0.4816492,0.3048394,1.0,0.140686,0.009674072,0.9899902,35.81219,5.896942,-29.33463,4.966278,0.3681152,0.3848618,0.02055013,1.195069,-0.008043647,0.1236416,-0.007626221,-0.009497196,3.309168,12.09687,33.17
4,0.03288269,0.001937866,0.9994507,1.0,-0.03691101,0.005569458,0.9992981,-31.80937,7.714752,-27.0688,5.126465,0.5057264,0.3104487,1.0,0.04246521,0.001434326,0.9990845,35.32904,5.974564,-29.72124,4.958969,0.4017307,0.3872155,0.02056062,1.195252,-0.00812161,0.1230045,-0.007592931,-0.00938196,3.309168,12.09687,33.17
4,0.01968384,0.01435852,0.9996948,1.0,-0.05099487,0.01298523,0.9986115,-31.93494,7.791153,-27.53619,5.109695,0.5124087,0.3101226,1.0,0.04212952,0.01477051,0.9989929,35.25354,5.968384,-29.73474,5.012405,0.404374,0.3852324,0.02052808,1.195666,-0.008275807,0.1220054,-0.007910118,-0.009358104,3.309168,12.09687,33.17
4,0.01417542,0.008926392,0.9998474,1.0,-0.054245,0.006072998,0.9985046,-31.94156,7.809692,-27.6364,5.073318,0.5132037,0.3112906,1.0,0.03877258,0.00994873,0.9991913,35.26912,5.987717,-29.86063,4.989059,0.4043499,0.3864743,0.02054942,1.195907,-0.008342087,0.1216122,-0.008043684,-0.009275738,3.309168,12.09687,33.17
4,0.02719116,0.001098633,0.9996185,1.0,-0.05409241,0.007247925,0.9985046,-31.94286,7.787048,-27.56491,5.07547,0.5132037,0.3112906,1.0,0.03517151,0.00050354,0.9993744,35.27435,5.957993,-29.77907,4.954102,0.4048341,0.3884486,0.02056408,1.196042,-0.008353412,0.1209728,-0.008293598,-0.009183712,3.309168,12.09687,33.17
4,0.02719116,0.001098633,0.9996185,1.0,-0.05409241,0.007247925,0.9985046,-31.94286,7.787048,-27.56491,5.07547,0.5132037,0.3112906,1.0,0.03517151,0.00050354,0.9993744,35.27435,5.957993,-29.77907,4.954102,0.4048341,0.3884486,0.02056408,1.196042,-0.008353412,0.1209728,-0.008293598,-0.009183712,3.309168,12.09687,33.17
4,0.03567505,0.004821777,0.9993439,1.0,-0.05021667,0.003341675,0.9987183,-31.9454,7.785919,-27.56406,5.065186,0.5126421,0.3120049,1.0,0.03727722,0.004837036,0.9992828,35.27446,5.948959,-29.74812,4.925262,0.4044928,0.387744,0.02054548,1.196166,-0.008389831,0.1201375,-0.008481911,-0.009220957,3.309168,12.09687,33.17
4,0.03593445,0.002243042,0.9993439,1.0,-0.0565033,0.000213623,0.9983978,-31.95358,7.768646,-27.50693,5.057648,0.5139248,0.3127192,1.0,0.03929138,0.002319336,0.9992218,35.27463,5.938858,-29.72078,4.932495,0.40416,0.3883009,0.02054596,1.196348,-0.008440554,0.1186222,-0.008873428,-0.009121846,3.309168,12.09687,33.17
4,0.03593445,0.002243042,0.9993439,1.0,-0.0565033,0.000213623,0.9983978,-31.95358,7.768646,-27.50693,5.057648,0.5139248,0.3127192,1.0,0.03929138,0.002319336,0.9992218,35.27463,5.938858,-29.72078,4.932495,0.40416,0.3883009,0.02054596,1.196348,-0.008440554,0.1186222,-0.008873428,-0.009121846,3.309168,12.09687,33.17
4,0.01986694,0.004898071,0.9997864,1.0,-0.05838013,-0.002288818,0.998291,-31.95522,7.757065,-27.46956,5.048813,0.5142703,0.313272,1.0,0.03913879,0.006668091,0.9992065,35.27478,5.929962,-29.74719,4.939468,0.4041637,0.3880825,0.0205276,1.196359,-0.008488953,0.1178411,-0.008932845,-0.009231454,3.309168,12.09687,33.17
4,0.004318237,0.002761841,0.9999847,1.0,-0.05903625,-0.004455566,0.9982452,-31.96103,7.733017,-27.39449,5.053375,0.5145398,0.3139162,1.0,0.03907776,0.006713867,0.9992065,35.27502,5.929962,-29.74812,4.939285,0.4041637,0.3880825,0.02050197,1.196328,-0.008569241,0.1173075,-0.008976943,-0.009315814,3.309168,12.09687,33.17
4,0.01803589,-0.0002288818,0.9998322,1.0,-0.0586853,-0.003723145,0.9982605,-31.96803,7.704681,-27.3139,5.048126,0.5146864,0.3141651,1.0,0.03918457,0.0007171631,0.9992218,35.27509,5.940598,-29.76022,4.937225,0.4041397,0.3888579,0.02053726,1.196073,-0.008935928,0.1168461,-0.008942015,-0.009384342,3.309168,12.09687,33.17
4,0.02352905,-0.0006256104,0.9997101,1.0,-0.05863953,-0.003311157,0.9982605,-31.97087,7.688812,-27.27104,5.050064,0.5147572,0.3143225,1.0,0.0402832,-7.629395e-05,0.999176,35.2751,5.940979,-29.76282,4.933014,0.4039489,0.3890055,0.02053583,1.195957,-0.009119749,0.1169476,-0.008961158,-0.009343763,3.309168,12.09687,33.17
4,0.02352905,-0.0006256104,0.9997101,1.0,-0.05863953,-0.003311157,0.9982605,-31.97087,7.688812,-27.27104,5.050064,0.5147572,0.3143225,1.0,0.0402832,-7.629395e-05,0.999176,35.2751,5.940979,-29.76282,4.933014,0.4039489,0.3890055,0.02053583,1.195957,-0.009119749,0.1169476,-0.008961158,-0.009343763,3.309168,12.09687,33.17
4,0.02539063,-0.0009460449,0.9996643,1.0,-0.05851746,-0.00592041,0.9982605,-31.9765,7.663071,-27.20938,5.04808,0.5148964,0.3151983,1.0,0.04005432,-7.629395e-05,0.9991913,35.27559,5.94075,-29.7877,4.941101,0.4039557,0.3892212,0.02047205,1.195931,-0.009584844,0.1168192,-0.008845677,-0.009276541,3.309168,-49.04937,33.17
5,0.02404785,-0.0005950928,0.9997101,1.0,-0.05833435,-0.005065918,0.9982758,-31.99144,7.625671,-27.16698,5.052246,0.5153432,0.3160321,1.0,0.04029846,0.0002746582,0.999176,35.27669,5.935379,-29.76541,4.946732,0.4038837,0.3891532,0.02049398,1.1959,-0.009688318,0.1165856,-0.008811075,-0.009185335,3.309168,-49.04937,33.17
5,0.02404785,-0.0005950928,0.9997101,1.0,-0.05833435,-0.005065918,0.9982758,-31.99144,7.625671,-27.16698,5.052246,0.5153432,0.3160321,1.0,0.04029846,0.0002746582,0.999176,35.27669,5.935379,-29.76541,4.946732,0.4038837,0.3891532,0.02051067,1.195934,-0.009804606,0.1161911,-0.008604875,-0.009065313,3.309168,-49.04937,33.17
5,0.02404785,-0.0005950928,0.9997101,1.0,-0.05833435,-0.005065918,0.9982758,-31.99144,7.625671,-27.16698,5.052246,0.5153432,0.3160321,1.0,0.04029846,0.0002746582,0.999176,35.27669,5.935379,-29.76541,4.946732,0.4038837,0.3891532,0.02052057,1.195933,-0.009976506,0.1156328,-0.008336607,-0.008998496,3.309168,-49.04937,33.17
5,0.02404785,-0.0005950928,0.9997101,1.0,-0.05833435,-0.005065918,0.9982758,-31.99144,7.625671,-27.16698,5.052246,0.5153432,0.3160321,1.0,0.04029846,0.0002746582,0.999176,35.27669,5.935379,-29.76541,4.946732,0.4038837,0.3891532,0.02052057,1.195933,-0.009976506,0.1156328,-0.008336607,-0.008998496,3.309168,-49.04937,33.17
