Second,eye_comb_direction_x,eye_comb_direction_y,eye_comb_direction_z,eye_r_openness,eye_r_direction_x,eye_r_direction_y,eye_r_direction_z,eye_r_origin_x,eye_r_origin_y,eye_r_origin_z,eye_r_pupil_diameter,eye_r_pupil_position_x,eye_r_pupil_position_y,eye_l_openness,eye_l_direction_x,eye_l_direction_y,eye_l_direction_z,eye_l_origin_x,eye_l_origin_y,eye_l_origin_z,eye_l_pupil_diameter,eye_l_pupil_position_x,eye_l_pupil_position_y,head_position_x,head_position_y,head_position_z,head_rotation_roll,head_rotation_pitch,head_rotation_yaw,EDA,BVP,TMP
0,0.0,0.0,0.0,0.0,0.0,0.0,0.0,0.0,0.0,0.0,0.0,0.0,0.0,0.0,0.0,0.0,0.0,0.0,0.0,0.0,0.0,0.0,0.0,0.0,0.0,0.0,0.0,0.0,0.0,0.2962678784148398,-0.022535785468561578,31.29164297759576
0,-0.01443481,-0.0566864,0.9982758,1.0,-0.01254272,-0.05557251,0.9983673,-31.88699,-3.155807,-22.7791,5.264984,0.5019624,0.6404042,1.0,-0.01649475,-0.05789185,0.9981842,30.62889,-0.5039673,-23.20476,5.294601,0.5690557,0.5588731,0.05256808,1.179738,0.04052186,0.03030886,-0.09214991,-0.001208434,0.2962678784148398,-0.022535785468561578,31.29164297759576
0,-0.01411438,-0.0562439,0.9983063,1.0,-0.01272583,-0.05587769,0.9983521,-31.88699,-3.152817,-22.78249,5.285477,0.5019911,0.6404042,1.0,-0.01565552,-0.05665588,0.9982605,30.629,-0.5039673,-23.2028,5.295166,0.568918,0.5586461,0.05264354,1.17968,0.04037106,0.03077576,-0.09221602,-0.001370236,0.3100448,-0.022535785468561578,31.29164297759576
0,-0.01411438,-0.0562439,0.9983063,1.0,-0.01272583,-0.05587769,0.9983521,-31.88699,-3.152817,-22.78249,5.285477,0.5019911,0.6404042,1.0,-0.01565552,-0.05665588,0.9982605,30.629,-0.5039673,-23.2028,5.295166,0.568918,0.5586461,0.05264354,1.17968,0.04037106,0.03077576,-0.09221602,-0.001370236,0.3100448,-0.022535785468561578,31.29164297759576
0,-0.01411438,-0.0562439,0.9983063,1.0,-0.01272583,-0.05587769,0.9983521,-31.88699,-3.152817,-22.78249,5.285477,0.5019911,0.6404042,1.0,-0.01565552,-0.05665588,0.9982605,30.629,-0.5039673,-23.2028,5.295166,0.568918,0.5586461,0.05264354,1.17968,0.04037106,0.03077576,-0.09221602,-0.001370236,0.3100448,-0.022535785468561578,31.29164297759576
0,-0.01411438,-0.0562439,0.9983063,1.0,-0.01272583,-0.05587769,0.9983521,-31.88699,-3.152817,-22.78249,5.285477,0.5019911,0.6404042,1.0,-0.01565552,-0.05665588,0.9982605,30.629,-0.5039673,-23.2028,5.295166,0.568918,0.5586461,0.05264354,1.17968,0.04037106,0.03077576,-0.09221602,-0.001370236,0.3100448,-0.022535785468561578,31.29164297759576
0,-0.01411438,-0.0562439,0.9983063,1.0,-0.01272583,-0.05587769,0.9983521,-31.88699,-3.152817,-22.78249,5.285477,0.5019911,0.6404042,1.0,-0.01565552,-0.05665588,0.9982605,30.629,-0.5039673,-23.2028,5.295166,0.568918,0.5586461,0.05264354,1.17968,0.04037106,0.03077576,-0.09221602,-0.001370236,0.3100448,-0.022535785468561578,31.29164297759576
0,-0.01411438,-0.0562439,0.9983063,1.0,-0.01272583,-0.05587769,0.9983521,-31.88699,-3.152817,-22.78249,5.285477,0.5019911,0.6404042,1.0,-0.01565552,-0.05665588,0.9982605,30.629,-0.5039673,-23.2028,5.295166,0.568918,0.5586461,0.05264354,1.17968,0.04037106,0.03077576,-0.09221602,-0.001370236,0.3100448,-0.022535785468561578,31.29164297759576
0,-0.01411438,-0.0562439,0.9983063,1.0,-0.01272583,-0.05587769,0.9983521,-31.88699,-3.152817,-22.78249,5.285477,0.5019911,0.6404042,1.0,-0.01565552,-0.05665588,0.9982605,30.629,-0.5039673,-23.2028,5.295166,0.568918,0.5586461,0.05264354,1.17968,0.04037106,0.03077576,-0.09221602,-0.001370236,0.3100448,-0.022535785468561578,31.29164297759576
0,-0.01411438,-0.0562439,0.9983063,1.0,-0.01272583,-0.05587769,0.9983521,-31.88699,-3.152817,-22.78249,5.285477,0.5019911,0.6404042,1.0,-0.01565552,-0.05665588,0.9982605,30.629,-0.5039673,-23.2028,5.295166,0.568918,0.5586461,0.05264354,1.17968,0.04037106,0.03077576,-0.09221602,-0.001370236,0.3100448,-0.022535785468561578,31.29164297759576
0,-0.01411438,-0.0562439,0.9983063,1.0,-0.01272583,-0.05587769,0.9983521,-31.88699,-3.152817,-22.78249,5.285477,0.5019911,0.6404042,1.0,-0.01565552,-0.05665588,0.9982605,30.629,-0.5039673,-23.2028,5.295166,0.568918,0.5586461,0.05264354,1.17968,0.04037106,0.03077576,-0.09221602,-0.001370236,0.3100448,-0.022535785468561578,31.29164297759576
1,-0.0174408,-0.05874634,0.9981079,1.0,-0.02842712,-0.07087708,0.9970703,-31.93945,-2.829422,-23.20251,4.614731,0.5063217,0.6360585,1.0,-0.009109497,-0.04953003,0.9987183,30.69318,-0.3592529,-23.17561,4.994125,0.5657409,0.5522387,0.05300939,1.17982,0.04004139,0.03021431,-0.09242617,-0.001434001,0.3100448,-0.022535785468561578,31.29164297759576
1,-0.0174408,-0.05874634,0.9981079,1.0,-0.02842712,-0.07087708,0.9970703,-31.93945,-2.829422,-23.20251,4.614731,0.5063217,0.6360585,1.0,-0.009109497,-0.04953003,0.9987183,30.69318,-0.3592529,-23.17561,4.994125,0.5657409,0.5522387,0.05300939,1.17982,0.04004139,0.03021431,-0.09242617,-0.001434001,0.3100448,-0.022535785468561578,31.29164297759576
1,-0.0174408,-0.05874634,0.9981079,1.0,-0.02842712,-0.07087708,0.9970703,-31.93945,-2.829422,-23.20251,4.614731,0.5063217,0.6360585,1.0,-0.009109497,-0.04953003,0.9987183,30.69318,-0.3592529,-23.17561,4.994125,0.5657409,0.5522387,0.05300939,1.17982,0.04004139,0.03021431,-0.09242617,-0.001434001,0.3100448,-0.022535785468561578,31.29164297759576
1,-0.0174408,-0.05874634,0.9981079,1.0,-0.02842712,-0.07087708,0.9970703,-31.93945,-2.829422,-23.20251,4.614731,0.5063217,0.6360585,1.0,-0.009109497,-0.04953003,0.9987183,30.69318,-0.3592529,-23.17561,4.994125,0.5657409,0.5522387,0.05300939,1.17982,0.04004139,0.03021431,-0.09242617,-0.001434001,0.3100448,-0.022535785468561578,31.29164297759576
1,-0.0174408,-0.05874634,0.9981079,1.0,-0.02842712,-0.07087708,0.9970703,-31.93945,-2.829422,-23.20251,4.614731,0.5063217,0.6360585,1.0,-0.009109497,-0.04953003,0.9987183,30.69318,-0.3592529,-23.17561,4.994125,0.5657409,0.5522387,0.05300939,1.17982,0.04004139,0.03021431,-0.09242617,-0.001434001,0.3100448,-0.022535785468561578,31.29164297759576
1,-0.0174408,-0.05874634,0.9981079,1.0,-0.02842712,-0.07087708,0.9970703,-31.93945,-2.829422,-23.20251,4.614731,0.5063217,0.6360585,1.0,-0.009109497,-0.04953003,0.9987183,30.69318,-0.3592529,-23.17561,4.994125,0.5657409,0.5522387,0.05300939,1.17982,0.04004139,0.03021431,-0.09242617,-0.001434001,0.3100448,-0.022535785468561578,31.29164297759576
1,-1.0,-1.0,-1.0,0.6779541,0.0,0.0,0.0,-32.38988,-2.238297,-23.29233,-1.0,0.5325705,0.6107207,0.7294454,0.0,0.0,0.0,30.27286,0.5640106,-24.03102,-1.0,0.5945326,0.5141134,0.05303395,1.179964,0.04000366,0.02979391,-0.09251311,-0.001353825,0.3100448,-0.022535785468561578,31.29164297759576
1,-1.0,-1.0,-1.0,0.6779541,0.0,0.0,0.0,-32.38988,-2.238297,-23.29233,-1.0,0.5325705,0.6107207,0.7294454,0.0,0.0,0.0,30.27286,0.5640106,-24.03102,-1.0,0.5945326,0.5141134,0.05303395,1.179964,0.04000366,0.02979391,-0.09251311,-0.001353825,0.3100448,-0.022535785468561578,31.29164297759576
1,-1.0,-1.0,-1.0,0.7065945,0.0,0.0,0.0,-32.41553,-2.203369,-23.23123,-1.0,0.5322469,0.611882,0.7867848,0.0,0.0,0.0,30.23341,0.5335693,-24.08319,-1.0,0.5923042,0.5186453,0.05305278,1.179928,0.03992206,0.02959116,-0.09254789,-0.001449505,0.3100448,-0.022535785468561578,31.29164297759576
1,-0.09791565,-0.02316284,0.9949188,0.7801906,-0.09820557,-0.02400208,0.994873,-32.46634,-2.237579,-23.25308,4.240875,0.5347833,0.6096844,0.881411,-0.07772827,0.03581238,0.9963226,30.23003,0.3369141,-23.46269,4.472733,0.5926325,0.5178651,0.0530436,1.179914,0.03989601,0.02956774,-0.09247952,-0.001582212,0.3100448,-0.022535785468561578,31.29164297759576
1,-0.1026917,-0.02044678,0.9944916,0.8401179,-0.1027679,-0.02050781,0.9944916,-32.46216,-2.214478,-23.24295,4.0979,0.5354212,0.6081806,0.9437032,-0.06781006,0.004638672,0.9976807,30.26984,0.284729,-23.40894,4.300537,0.5896108,0.52403,0.05304945,1.179914,0.03984243,0.02972882,-0.09252954,-0.00162404,0.3100448,-0.022535785468561578,31.29164297759576
1,-0.1026917,-0.02044678,0.9944916,0.8401179,-0.1027679,-0.02050781,0.9944916,-32.46216,-2.214478,-23.24295,4.0979,0.5354212,0.6081806,0.9437032,-0.06781006,0.004638672,0.9976807,30.26984,0.284729,-23.40894,4.300537,0.5896108,0.52403,0.05304945,1.179914,0.03984243,0.02972882,-0.09252954,-0.00162404,0.3100448,-0.022535785468561578,31.29164297759576
1,-0.1098633,-0.03544617,0.9933014,0.8401179,-0.1110077,-0.03739929,0.993103,-32.45064,-2.337006,-22.9707,4.03186,0.5362303,0.6123085,0.9437032,-0.08117676,0.01344299,0.9965973,30.2861,0.3003235,-23.54535,4.16687,0.5914176,0.523226,0.05300391,1.179886,0.03985047,0.02972882,-0.09254854,-0.001490058,0.3100448,-0.022535785468561578,31.29164297759576
1,-0.1098633,-0.03544617,0.9933014,0.8774295,-0.1110077,-0.03739929,0.993103,-32.45064,-2.337006,-22.9707,4.03186,0.5362303,0.6123085,0.9976194,-0.08117676,0.01344299,0.9965973,30.2861,0.3003235,-23.54535,4.16687,0.5914176,0.523226,0.05295157,1.179865,0.03986633,0.029959,-0.09267502,-0.001386452,0.3100448,-0.022535785468561578,31.29164297759576
1,-0.1098633,-0.03544617,0.9933014,0.8774295,-0.1110077,-0.03739929,0.993103,-32.45064,-2.337006,-22.9707,4.03186,0.5362303,0.6123085,0.9976194,-0.08117676,0.01344299,0.9965973,30.2861,0.3003235,-23.54535,4.16687,0.5914176,0.523226,0.05295157,1.179865,0.03986633,0.029959,-0.09267502,-0.001386452,0.3100448,-0.022535785468561578,31.29164297759576
1,-0.1098633,-0.03544617,0.9933014,0.8774295,-0.1110077,-0.03739929,0.993103,-32.45064,-2.337006,-22.9707,4.03186,0.5362303,0.6123085,0.9976194,-0.08117676,0.01344299,0.9965973,30.2861,0.3003235,-23.54535,4.16687,0.5914176,0.523226,0.05296075,1.179855,0.03984433,0.02999852,-0.09263971,-0.001423572,0.3100448,-0.022535785468561578,31.29164297759576
1,-0.1098633,-0.03544617,0.9933014,0.8774295,-0.1110077,-0.03739929,0.993103,-32.45064,-2.337006,-22.9707,4.03186,0.5362303,0.6123085,0.9976194,-0.08117676,0.01344299,0.9965973,30.2861,0.3003235,-23.54535,4.16687,0.5914176,0.523226,0.05300486,1.179854,0.03986424,0.03018397,-0.09263287,-0.001449505,0.3100448,-0.022535785468561578,31.29164297759576
1,-0.1098633,-0.03544617,0.9933014,0.8774295,-0.1110077,-0.03739929,0.993103,-32.45064,-2.337006,-22.9707,4.03186,0.5362303,0.6123085,0.9976194,-0.08117676,0.01344299,0.9965973,30.2861,0.3003235,-23.54535,4.16687,0.5914176,0.523226,0.05300486,1.179854,0.03986424,0.03018397,-0.09263287,-0.001449505,0.3100448,-0.022535785468561578,31.29164297759576
1,-0.095047,-0.02500916,0.9951477,0.8774295,-0.1035919,-0.03909302,0.9938354,-32.46916,-2.391342,-22.87415,3.845291,0.535629,0.613254,0.9976194,-0.06996155,0.01611328,0.997406,30.28976,0.2611847,-23.4705,3.982086,0.5894001,0.5231971,0.05298054,1.179848,0.03986204,0.03020371,-0.09259362,-0.001548899,0.3100448,-0.022535785468561578,31.29164297759576
1,-0.08544922,-0.0001678467,0.9963379,1.0,-0.1162872,-0.004882813,0.9931946,-32.45549,-2.388672,-23.0121,3.870102,0.5373486,0.6089212,1.0,-0.06863403,0.002380371,0.9976349,30.27182,0.1743927,-23.20468,3.833252,0.5895364,0.5257972,0.05302048,1.179812,0.03984368,0.03026851,-0.09259433,-0.001655842,0.3100448,-0.022535785468561578,31.29164297759576
1,-0.08544922,-0.0001678467,0.9963379,1.0,-0.1162872,-0.004882813,0.9931946,-32.45549,-2.388672,-23.0121,3.870102,0.5373486,0.6089212,1.0,-0.06863403,0.002380371,0.9976349,30.27182,0.1743927,-23.20468,3.833252,0.5895364,0.5257972,0.05302048,1.179812,0.03984368,0.03026851,-0.09259433,-0.001655842,0.3100448,-0.022535785468561578,31.29164297759576
1,-0.1064453,-0.00352478,0.9943085,1.0,-0.1150818,-0.004928589,0.9933319,-32.45435,-2.398636,-22.97626,3.890747,0.5370928,0.6089212,1.0,-0.06646729,0.002960205,0.9977722,30.27296,0.1743927,-23.20468,3.846039,0.5891395,0.5256972,0.05302346,1.179781,0.03982413,0.03016619,-0.09262756,-0.001614838,0.3100448,-0.022535785468561578,31.29164297759576
1,-0.1062775,-0.001983643,0.9943237,1.0,-0.113678,-0.00328064,0.9934998,-32.45541,-2.412033,-22.92674,3.878159,0.5368825,0.6085896,1.0,-0.06930542,0.004516602,0.9975739,30.27972,0.1814728,-23.22925,3.829956,0.5894123,0.5254156,0.05303967,1.179788,0.0398227,0.03020839,-0.09251223,-0.001700243,0.3100448,-0.022535785468561578,31.29164297759576
1,-0.1062775,-0.001983643,0.9943237,1.0,-0.113678,-0.00328064,0.9934998,-32.45541,-2.412033,-22.92674,3.878159,0.5368825,0.6085896,1.0,-0.06930542,0.004516602,0.9975739,30.27972,0.1814728,-23.22925,3.829956,0.5894123,0.5254156,0.05303967,1.179788,0.0398227,0.03020839,-0.09251223,-0.001700243,0.3100448,-0.022535785468561578,31.29164297759576
1,-0.09667969,0.000793457,0.9953003,1.0,-0.1137238,-0.002761841,0.9934998,-32.45612,-2.42038,-22.89265,3.878906,0.5368952,0.608445,1.0,-0.06994629,0.006362915,0.9975281,30.2856,0.1852722,-23.25072,3.825439,0.5893444,0.5251871,0.05303967,1.179788,0.0398227,0.03020839,-0.09251223,-0.001700243,0.3100448,3.977417,31.29164297759576
1,-0.09667969,0.000793457,0.9953003,1.0,-0.1137238,-0.002761841,0.9934998,-32.45612,-2.42038,-22.89265,3.878906,0.5368952,0.608445,1.0,-0.06994629,0.006362915,0.9975281,30.2856,0.1852722,-23.25072,3.825439,0.5893444,0.5251871,0.05303895,1.179783,0.03983819,0.03022541,-0.09268963,-0.001756286,0.3100448,3.977417,31.29164297759576
1,-0.09667969,0.000793457,0.9953003,1.0,-0.1137238,-0.002761841,0.9934998,-32.45612,-2.42038,-22.89265,3.878906,0.5368952,0.608445,1.0,-0.06994629,0.006362915,0.9975281,30.2856,0.1852722,-23.25072,3.825439,0.5893444,0.5251871,0.05302429,1.179804,0.03985316,0.03044278,-0.09265885,-0.001664817,0.3100448,3.977417,31.29164297759576
1,-0.09667969,0.000793457,0.9953003,1.0,-0.1137238,-0.002761841,0.9934998,-32.45612,-2.42038,-22.89265,3.878906,0.5368952,0.608445,1.0,-0.06994629,0.006362915,0.9975281,30.2856,0.1852722,-23.25072,3.825439,0.5893444,0.5251871,0.05302429,1.179804,0.03985316,0.03044278,-0.09265885,-0.001664817,0.3100448,3.977417,31.29164297759576
1,-0.09667969,0.000793457,0.9953003,1.0,-0.1137238,-0.002761841,0.9934998,-32.45612,-2.42038,-22.89265,3.878906,0.5368952,0.608445,1.0,-0.06994629,0.006362915,0.9975281,30.2856,0.1852722,-23.25072,3.825439,0.5893444,0.5251871,0.05299747,1.179799,0.03986716,0.03055808,-0.09275352,-0.001544081,0.3100448,3.977417,31.29164297759576
1,-0.09077454,0.00604248,0.9958496,1.0,-0.1146698,0.008514404,0.9933624,-32.44742,-2.389252,-22.91885,3.68071,0.5368529,0.6056701,1.0,-0.07246399,0.004150391,0.9973602,30.29405,0.1845093,-23.25072,3.821701,0.5894802,0.525581,0.05300438,1.179757,0.03995025,0.03070645,-0.09292349,-0.001370236,0.3100448,3.977417,31.29164297759576
1,-0.09077454,0.00604248,0.9958496,1.0,-0.1146698,0.008514404,0.9933624,-32.44742,-2.389252,-22.91885,3.68071,0.5368529,0.6056701,1.0,-0.07246399,0.004150391,0.9973602,30.29405,0.1845093,-23.25072,3.821701,0.5894802,0.525581,0.05300438,1.179757,0.03995025,0.03070645,-0.09292349,-0.001370236,0.3100448,3.977417,31.29164297759576
1,-0.09077454,0.00604248,0.9958496,1.0,-0.1146698,0.008514404,0.9933624,-32.44742,-2.389252,-22.91885,3.68071,0.5368529,0.6056701,1.0,-0.07246399,0.004150391,0.9973602,30.29405,0.1845093,-23.25072,3.821701,0.5894802,0.525581,0.05300438,1.179757,0.03995025,0.03070645,-0.09292349,-0.001370236,0.3100448,3.977417,31.29164297759576
1,-0.09298706,0.007705688,0.995636,1.0,-0.1144562,0.009918213,0.9933777,-32.44519,-2.389206,-22.91885,3.67189,0.5367488,0.605431,1.0,-0.07312012,0.005661011,0.9972992,30.29405,0.1780396,-23.24986,3.792389,0.5895926,0.5255179,0.05291188,1.179665,0.04004169,0.03112266,-0.09291539,-0.001309058,0.3100448,3.977417,31.29164297759576
1,-0.09298706,0.007705688,0.995636,1.0,-0.1144562,0.009918213,0.9933777,-32.44519,-2.389206,-22.91885,3.67189,0.5367488,0.605431,1.0,-0.07312012,0.005661011,0.9972992,30.29405,0.1780396,-23.24986,3.792389,0.5895926,0.5255179,0.05291188,1.179665,0.04004169,0.03112266,-0.09291539,-0.001309058,0.3100448,3.977417,31.29164297759576
1,-0.09455872,0.007720947,0.9954834,1.0,-0.1146698,0.010849,0.9933319,-32.4442,-2.387131,-22.92268,3.644104,0.5367623,0.6052271,1.0,-0.07537842,0.004745483,0.9971313,30.29405,0.1780396,-23.24986,3.592026,0.5899904,0.5255179,0.05287898,1.179567,0.04010892,0.0312886,-0.09295684,-0.001291871,0.3100448,3.977417,31.29164297759576
1,-0.09455872,0.007720947,0.9954834,1.0,-0.1146698,0.010849,0.9933319,-32.4442,-2.387131,-22.92268,3.644104,0.5367623,0.6052271,1.0,-0.07537842,0.004745483,0.9971313,30.29405,0.1780396,-23.24986,3.592026,0.5899904,0.5255179,0.05287898,1.179567,0.04010892,0.0312886,-0.09295684,-0.001291871,0.3100448,3.977417,31.29164297759576
1,-0.0954895,0.008209229,0.9953918,1.0,-0.1148834,0.01202393,0.9933014,-32.44321,-2.385361,-22.92957,3.625656,0.5367758,0.6050231,1.0,-0.07492065,0.004165649,0.9971771,30.29094,0.1701202,-23.21889,3.583893,0.5899904,0.525581,0.05286491,1.17953,0.04017866,0.03136234,-0.09305987,-0.001337213,0.3100448,3.977417,31.29164297759576
1,-0.09921265,0.008148193,0.9950256,1.0,-0.1153717,0.01266479,0.9932404,-32.44164,-2.383087,-22.93111,3.615082,0.5368089,0.6048572,1.0,-0.07397461,0.001098633,0.9972534,30.28111,0.1487122,-23.10364,3.574112,0.5900549,0.5257437,0.05285132,1.179511,0.04022378,0.03139201,-0.09307723,-0.001480024,0.3100448,3.977417,31.29164297759576
1,-0.09921265,0.008148193,0.9950256,1.0,-0.1153717,0.01266479,0.9932404,-32.44164,-2.383087,-22.93111,3.615082,0.5368089,0.6048572,1.0,-0.07397461,0.001098633,0.9972534,30.28111,0.1487122,-23.10364,3.574112,0.5900549,0.5257437,0.05285132,1.179511,0.04022378,0.03139201,-0.09307723,-0.001480024,0.3100448,3.977417,31.29164297759576
1,-0.09921265,0.008148193,0.9950256,1.0,-0.1153717,0.01266479,0.9932404,-32.44164,-2.383087,-22.93111,3.615082,0.5368089,0.6048572,1.0,-0.07397461,0.001098633,0.9972534,30.28111,0.1487122,-23.10364,3.574112,0.5900549,0.5257437,0.05285132,1.179511,0.04022378,0.03139201,-0.09307723,-0.001480024,0.3100448,3.977417,31.29164297759576
1,-0.1087646,-0.03123474,0.993576,1.0,-0.1234131,-0.04008484,0.9915314,-32.37393,-2.61116,-22.88591,3.384216,0.5358821,0.6204028,1.0,-0.07087708,-0.008407593,0.9974365,30.14925,-0.06376648,-23.16216,3.444397,0.5939206,0.5347391,0.05285132,1.179505,0.04022288,0.03164236,-0.09310661,-0.001504984,0.3100448,-9.478516,31.29164297759576
1,-0.1087646,-0.03123474,0.993576,1.0,-0.1234131,-0.04008484,0.9915314,-32.37393,-2.61116,-22.88591,3.384216,0.5358821,0.6204028,1.0,-0.07087708,-0.008407593,0.9974365,30.14925,-0.06376648,-23.16216,3.444397,0.5939206,0.5347391,0.05285132,1.179505,0.04022288,0.03164236,-0.09310661,-0.001504984,0.3100448,-9.478516,31.29164297759576
1,-0.1242981,-0.07598877,0.9893188,1.0,-0.1265564,-0.07687378,0.9889679,-32.39334,-2.89682,-22.88739,3.326691,0.5369769,0.635823,1.0,-0.08314514,-0.05982971,0.9947357,30.10611,-0.1809998,-23.63121,3.475204,0.5977449,0.5516605,0.05284297,1.179445,0.04017985,0.03179574,-0.09321945,-0.001539248,0.3100448,-9.478516,31.29164297759576
1,-0.1242981,-0.07598877,0.9893188,1.0,-0.1265564,-0.07687378,0.9889679,-32.39334,-2.89682,-22.88739,3.326691,0.5369769,0.635823,1.0,-0.08314514,-0.05982971,0.9947357,30.10611,-0.1809998,-23.63121,3.475204,0.5977449,0.5516605,0.05284297,1.179445,0.04017985,0.03179574,-0.09321945,-0.001539248,0.3100448,-9.478516,31.29164297759576
1,-0.1238861,-0.0708313,0.9897614,1.0,-0.1278381,-0.07173157,0.9891815,-32.42352,-2.829742,-23.07907,3.39798,0.538244,0.6347104,1.0,-0.08158875,-0.06111145,0.9947815,30.119,-0.2839355,-23.29008,3.457733,0.5967348,0.5520707,0.05285919,1.179405,0.0402571,0.03182338,-0.09326084,-0.001519763,0.3100448,-9.478516,31.29164297759576
1,-0.1238861,-0.0708313,0.9897614,1.0,-0.1278381,-0.07173157,0.9891815,-32.42352,-2.829742,-23.07907,3.39798,0.538244,0.6347104,1.0,-0.08158875,-0.06111145,0.9947815,30.119,-0.2839355,-23.29008,3.457733,0.5967348,0.5520707,0.05285919,1.179405,0.0402571,0.03182338,-0.09326084,-0.001519763,0.3100448,-9.478516,31.29164297759576
1,-0.1174774,-0.07087708,0.9905396,1.0,-0.1296234,-0.07356262,0.9888153,-32.43214,-2.810806,-23.10669,3.347519,0.5388459,0.6346585,1.0,-0.07872009,-0.06227112,0.9949341,30.11711,-0.2993469,-23.21336,3.464386,0.596248,0.5520574,0.05287468,1.179414,0.0402717,0.03177183,-0.09308139,-0.001596276,0.3100448,-9.478516,31.29164297759576
1,-0.1174774,-0.07087708,0.9905396,1.0,-0.1296234,-0.07356262,0.9888153,-32.43214,-2.810806,-23.10669,3.347519,0.5388459,0.6346585,1.0,-0.07872009,-0.06227112,0.9949341,30.11711,-0.2993469,-23.21336,3.464386,0.596248,0.5520574,0.05287468,1.179414,0.0402717,0.03177183,-0.09308139,-0.001596276,0.3100448,-9.478516,31.29164297759576
1,-0.123291,-0.07028198,0.9898682,1.0,-0.1299133,-0.07170105,0.9889221,-32.43802,-2.811996,-23.09218,3.297134,0.5390939,0.634218,1.0,-0.07885742,-0.06065369,0.9950256,30.11707,-0.2994995,-23.18542,3.465652,0.596248,0.5515205,0.05283344,1.179391,0.04026872,0.03180652,-0.09279504,-0.001577496,0.3100448,-9.478516,31.29164297759576
1,-0.123291,-0.07028198,0.9898682,1.0,-0.1299133,-0.07170105,0.9889221,-32.43802,-2.811996,-23.09218,3.297134,0.5390939,0.634218,1.0,-0.07885742,-0.06065369,0.9950256,30.11707,-0.2994995,-23.18542,3.465652,0.596248,0.5515205,0.05283344,1.179391,0.04026872,0.03180652,-0.09279504,-0.001577496,0.3100448,-9.478516,31.29164297759576
1,-0.1101837,-0.06610107,0.9916992,1.0,-0.128067,-0.06906128,0.9893494,-32.44632,-2.810455,-23.08838,3.272751,0.5390682,0.6336511,1.0,-0.07731628,-0.06062317,0.9951477,30.11682,-0.296051,-23.14536,3.427353,0.5959707,0.5510101,0.05291545,1.17931,0.04029042,0.03212212,-0.09267115,-0.001669286,0.3100448,-9.478516,31.29164297759576
1,-0.1056519,-0.06216431,0.9924469,1.0,-0.1276093,-0.06607056,0.9896088,-32.44917,-2.808487,-23.10207,3.237228,0.5391095,0.6331948,1.0,-0.076828,-0.05697632,0.9954071,30.11711,-0.2923584,-23.14801,3.410217,0.5958872,0.5502798,0.05292225,1.179193,0.04033732,0.0325129,-0.09254186,-0.001777371,0.3100448,-9.478516,31.29164297759576
1,-0.1056519,-0.06216431,0.9924469,1.0,-0.1276093,-0.06607056,0.9896088,-32.44917,-2.808487,-23.10207,3.237228,0.5391095,0.6331948,1.0,-0.076828,-0.05697632,0.9954071,30.11711,-0.2923584,-23.14801,3.410217,0.5958872,0.5502798,0.05292225,1.179193,0.04033732,0.0325129,-0.09254186,-0.001777371,0.3100448,-9.478516,31.29164297759576
1,-0.1038971,-0.06056213,0.9927368,1.0,-0.1277466,-0.06509399,0.9896545,-32.44824,-2.808167,-23.10876,3.224472,0.5391095,0.633075,1.0,-0.07769775,-0.05554199,0.9954224,30.11801,-0.2862701,-23.1554,3.408157,0.5960088,0.5499042,0.05298722,1.179089,0.0403744,0.03279923,-0.09254677,-0.001806476,0.3100448,-6.229492,31.29164297759576
1,-0.1038971,-0.06056213,0.9927368,1.0,-0.1277466,-0.06509399,0.9896545,-32.44824,-2.808167,-23.10876,3.224472,0.5391095,0.633075,1.0,-0.07769775,-0.05554199,0.9954224,30.11801,-0.2862701,-23.1554,3.408157,0.5960088,0.5499042,0.05298722,1.179089,0.0403744,0.03279923,-0.09254677,-0.001806476,0.3100448,-6.229492,31.29164297759576
1,-0.1038971,-0.06056213,0.9927368,1.0,-0.1277466,-0.06509399,0.9896545,-32.44824,-2.808167,-23.10876,3.224472,0.5391095,0.633075,1.0,-0.07769775,-0.05554199,0.9954224,30.11801,-0.2862701,-23.1554,3.408157,0.5960088,0.5499042,0.05298722,1.179089,0.0403744,0.03279923,-0.09254677,-0.001806476,0.3100448,-6.229492,31.29164297759576
1,-0.1020966,-0.05813599,0.9930725,1.0,-0.1277313,-0.06182861,0.9898682,-32.44812,-2.795044,-23.13133,3.196548,0.5391284,0.6323032,1.0,-0.07792664,-0.05462646,0.9954529,30.1194,-0.2835693,-23.1554,3.379105,0.5960088,0.5496425,0.052948,1.178987,0.04047096,0.03297978,-0.09254411,-0.001998377,0.3100448,-6.229492,31.29164297759576
1,-0.1020966,-0.05813599,0.9930725,1.0,-0.1277313,-0.06182861,0.9898682,-32.44812,-2.795044,-23.13133,3.196548,0.5391284,0.6323032,1.0,-0.07792664,-0.05462646,0.9954529,30.1194,-0.2835693,-23.1554,3.379105,0.5960088,0.5496425,0.052948,1.178987,0.04047096,0.03297978,-0.09254411,-0.001998377,0.3100448,-6.229492,31.29164297759576
1,-0.1008148,-0.05735779,0.9932404,1.0,-0.1275787,-0.06259155,0.9898376,-32.44812,-2.776581,-23.17688,3.194473,0.5391284,0.6322761,1.0,-0.07904053,-0.05308533,0.9954529,30.12503,-0.2701416,-23.16237,3.379242,0.5960141,0.549006,0.05296016,1.178907,0.04043317,0.03327418,-0.09278396,-0.001730645,0.3100448,-6.229492,31.29164297759576
1,-0.1008148,-0.05735779,0.9932404,1.0,-0.1275787,-0.06259155,0.9898376,-32.44812,-2.776581,-23.17688,3.194473,0.5391284,0.6322761,1.0,-0.07904053,-0.05308533,0.9954529,30.12503,-0.2701416,-23.16237,3.379242,0.5960141,0.549006,0.05296016,1.178907,0.04043317,0.03327418,-0.09278396,-0.001730645,0.3100448,-6.229492,31.29164297759576
1,-0.103653,-0.05799866,0.9929047,1.0,-0.1270752,-0.06086731,0.9900208,-32.44757,-2.741486,-23.22627,3.161072,0.5390682,0.631305,1.0,-0.08067322,-0.05514526,0.9952087,30.13411,-0.2200317,-23.26823,3.352936,0.5960923,0.548685,0.05304182,1.178774,0.04041064,0.0334515,-0.09291138,-0.001642288,0.3100448,-6.229492,31.29164297759576
1,-0.10849,-0.06001282,0.9922791,1.0,-0.1278229,-0.06256104,0.9898071,-32.44562,-2.729843,-23.23157,3.160889,0.5391284,0.6312677,1.0,-0.0816803,-0.05645752,0.9950562,30.13731,-0.193985,-23.31149,3.347885,0.5961946,0.5484535,0.0531652,1.178754,0.0404495,0.0336987,-0.09292679,-0.001449505,0.3100448,-6.229492,31.29164297759576
1,-0.10849,-0.06001282,0.9922791,1.0,-0.1278229,-0.06256104,0.9898071,-32.44562,-2.729843,-23.23157,3.160889,0.5391284,0.6312677,1.0,-0.0816803,-0.05645752,0.9950562,30.13731,-0.193985,-23.31149,3.347885,0.5961946,0.5484535,0.0531652,1.178754,0.0404495,0.0336987,-0.09292679,-0.001449505,0.3100448,-6.229492,31.29164297759576
1,-0.10849,-0.06001282,0.9922791,1.0,-0.1278229,-0.06256104,0.9898071,-32.44562,-2.729843,-23.23157,3.160889,0.5391284,0.6312677,1.0,-0.0816803,-0.05645752,0.9950562,30.13731,-0.193985,-23.31149,3.347885,0.5961946,0.5484535,0.0531652,1.178754,0.0404495,0.0336987,-0.09292679,-0.001449505,0.3100448,-6.229492,31.29164297759576
1,-0.1104736,-0.05949402,0.9920807,1.0,-0.1284485,-0.06089783,0.9898376,-32.44365,-2.722656,-23.23477,3.179688,0.5391671,0.6308094,1.0,-0.08218384,-0.05726624,0.9949646,30.13731,-0.1881256,-23.31427,3.343735,0.5962837,0.5484242,0.0532459,1.178716,0.04048193,0.03378945,-0.09237312,-0.002078783,0.3100448,-6.229492,31.29164297759576
1,-0.1104736,-0.05949402,0.9920807,1.0,-0.1284485,-0.06089783,0.9898376,-32.44365,-2.722656,-23.23477,3.179688,0.5391671,0.6308094,1.0,-0.08218384,-0.05726624,0.9949646,30.13731,-0.1881256,-23.31427,3.343735,0.5962837,0.5484242,0.0532459,1.178716,0.04048193,0.03378945,-0.09237312,-0.002078783,0.3100448,-6.229492,31.29164297759576
1,-0.108902,-0.05793762,0.9923553,1.0,-0.1284637,-0.06134033,0.9898071,-32.44365,-2.719101,-23.23537,3.183441,0.5391671,0.63077,1.0,-0.08311462,-0.05343628,0.9951019,30.13731,-0.1868896,-23.31427,3.343674,0.5964394,0.5477372,0.05328381,1.178738,0.0405066,0.03393247,-0.09217449,-0.002348069,0.3100448,-6.229492,31.29164297759576
1,-0.108902,-0.05793762,0.9923553,1.0,-0.1284637,-0.06134033,0.9898071,-32.44365,-2.719101,-23.23537,3.183441,0.5391671,0.63077,1.0,-0.08311462,-0.05343628,0.9951019,30.13731,-0.1868896,-23.31427,3.343674,0.5964394,0.5477372,0.05328381,1.178738,0.0405066,0.03393247,-0.09217449,-0.002348069,0.3100448,-6.229492,31.29164297759576
1,-0.1075897,-0.05793762,0.9924927,1.0,-0.1295929,-0.06147766,0.9896545,-32.44316,-2.717102,-23.23523,3.179764,0.5393375,0.630728,1.0,-0.08312988,-0.05397034,0.9950714,30.13731,-0.1842651,-23.31427,3.315109,0.5964477,0.5477267,0.0532757,1.178748,0.04048193,0.03391974,-0.09210446,-0.00218366,0.3100448,-6.229492,31.29164297759576
1,-0.1075897,-0.05793762,0.9924927,1.0,-0.1295929,-0.06147766,0.9896545,-32.44316,-2.717102,-23.23523,3.179764,0.5393375,0.630728,1.0,-0.08312988,-0.05397034,0.9950714,30.13731,-0.1842651,-23.31427,3.315109,0.5964477,0.5477267,0.0532757,1.178748,0.04048193,0.03391974,-0.09210446,-0.00218366,0.3100448,-6.229492,31.29164297759576
1,-0.1069183,-0.05804443,0.992569,1.0,-0.129776,-0.06150818,0.989624,-32.44225,-2.71669,-23.23537,3.179871,0.5393375,0.630728,1.0,-0.08311462,-0.05441284,0.9950409,30.13731,-0.182373,-23.31467,3.299652,0.5964477,0.5477267,0.05337393,1.178841,0.04040265,0.03390963,-0.09229694,-0.001802347,0.3100448,-6.229492,31.29164297759576
1,-0.1069183,-0.05804443,0.992569,1.0,-0.129776,-0.06150818,0.989624,-32.44225,-2.71669,-23.23537,3.179871,0.5393375,0.630728,1.0,-0.08311462,-0.05441284,0.9950409,30.13731,-0.182373,-23.31467,3.299652,0.5964477,0.5477267,0.05338728,1.178892,0.04032964,0.0335078,-0.09235811,-0.001717682,0.3100448,6.981384,31.29164297759576
1,-0.1069183,-0.05804443,0.992569,1.0,-0.129776,-0.06150818,0.989624,-32.44225,-2.71669,-23.23537,3.179871,0.5393375,0.630728,1.0,-0.08311462,-0.05441284,0.9950409,30.13731,-0.182373,-23.31467,3.299652,0.5964477,0.5477267,0.05338728,1.178892,0.04032964,0.0335078,-0.09235811,-0.001717682,0.3100448,6.981384,31.29164297759576
1,-0.1062469,-0.05795288,0.9926453,1.0,-0.1291046,-0.06109619,0.9897308,-32.44221,-2.714691,-23.23537,3.161331,0.5392333,0.6305791,1.0,-0.08306885,-0.05473328,0.9950256,30.13731,-0.1806793,-23.31467,3.299057,0.5964394,0.5477267,0.05336201,1.17897,0.04036736,0.03325582,-0.09240916,-0.001871302,0.3100448,6.981384,31.29164297759576
1,-0.1060181,-0.05828857,0.9926453,1.0,-0.129303,-0.0607605,0.9897308,-32.44157,-2.713379,-23.2438,3.161224,0.53925,0.6305651,1.0,-0.08311462,-0.05583191,0.9949646,30.13731,-0.1779938,-23.31496,3.298752,0.5964477,0.5478328,0.05339384,1.17904,0.04037702,0.03281399,-0.09233519,-0.002035319,0.3100448,6.981384,31.29164297759576
1,-0.1060181,-0.05828857,0.9926453,1.0,-0.129303,-0.0607605,0.9897308,-32.44157,-2.713379,-23.2438,3.161224,0.53925,0.6305651,1.0,-0.08311462,-0.05583191,0.9949646,30.13731,-0.1779938,-23.31496,3.298752,0.5964477,0.5478328,0.05339384,1.17904,0.04037702,0.03281399,-0.09233519,-0.002035319,0.3100448,6.981384,31.29164297759576
1,-0.1063385,-0.05859375,0.9925995,1.0,-0.1292725,-0.06072998,0.9897461,-32.43776,-2.713379,-23.24438,3.169312,0.5391194,0.6305651,1.0,-0.08398438,-0.0565033,0.9948578,30.13774,-0.1743011,-23.31956,3.289215,0.5965841,0.5478658,0.0534308,1.179102,0.04032022,0.03279696,-0.09227474,-0.002002102,0.3100448,6.981384,31.29164297759576
1,-0.1063385,-0.05859375,0.9925995,1.0,-0.1292725,-0.06072998,0.9897461,-32.43776,-2.713379,-23.24438,3.169312,0.5391194,0.6305651,1.0,-0.08398438,-0.0565033,0.9948578,30.13774,-0.1743011,-23.31956,3.289215,0.5965841,0.5478658,0.0534308,1.179102,0.04032022,0.03279696,-0.09227474,-0.002002102,0.3100448,6.981384,31.29164297759576
1,-0.106842,-0.05882263,0.9925232,1.0,-0.1290436,-0.0615387,0.9897156,-32.43712,-2.713379,-23.24783,3.164963,0.5390622,0.630728,1.0,-0.0838623,-0.0559845,0.9948883,30.13774,-0.1743011,-23.34077,3.277939,0.5965841,0.5479646,0.05347908,1.179144,0.04024959,0.03248653,-0.09225536,-0.002131866,0.3100448,6.981384,31.29164297759576
1,-0.1066284,-0.05938721,0.9925079,1.0,-0.1283264,-0.06056213,0.9898682,-32.43596,-2.718674,-23.24783,3.160553,0.5389104,0.6307338,1.0,-0.08276367,-0.05807495,0.994873,30.13774,-0.1743011,-23.34077,3.288239,0.5963996,0.5483251,0.05350518,1.1792,0.04020667,0.03256533,-0.09220172,-0.002103722,0.3100448,6.981384,31.29164297759576
1,-0.1057587,-0.05973816,0.9925842,1.0,-0.1257172,-0.06065369,0.9902039,-32.43526,-2.723862,-23.24605,3.125641,0.5384681,0.6308563,1.0,-0.0836792,-0.05870056,0.994751,30.13774,-0.1777954,-23.34077,3.288101,0.5965494,0.548546,0.05352008,1.17927,0.04005086,0.0323659,-0.09214392,-0.001867317,0.3100448,6.981384,31.29164297759576
1,-0.1057587,-0.05973816,0.9925842,1.0,-0.1257172,-0.06065369,0.9902039,-32.43526,-2.723862,-23.24605,3.125641,0.5384681,0.6308563,1.0,-0.0836792,-0.05870056,0.994751,30.13774,-0.1777954,-23.34077,3.288101,0.5965494,0.548546,0.05352008,1.17927,0.04005086,0.0323659,-0.09214392,-0.001867317,0.3100448,6.981384,31.29164297759576
1,-0.1053314,-0.05841064,0.9927063,1.0,-0.1260986,-0.05917358,0.9902496,-32.43475,-2.736496,-23.24605,3.141388,0.5385089,0.6310327,1.0,-0.08306885,-0.05755615,0.994873,30.13727,-0.1856537,-23.34077,3.277374,0.5964672,0.548605,0.05353153,1.179329,0.03999853,0.03218793,-0.09213511,-0.001887161,0.3100448,6.981384,31.29164297759576
1,-0.1043549,-0.05830383,0.9928131,1.0,-0.1260376,-0.05783081,0.9903259,-32.43475,-2.752884,-23.23381,3.126495,0.5384991,0.6312099,1.0,-0.08279419,-0.0587616,0.9948273,30.13318,-0.2028503,-23.33612,3.271393,0.5965494,0.5493271,0.05355155,1.179349,0.03981912,0.03198615,-0.09207501,-0.00185932,0.3100448,6.981384,31.29164297759576
1,-0.1043549,-0.05830383,0.9928131,1.0,-0.1260376,-0.05783081,0.9903259,-32.43475,-2.752884,-23.23381,3.126495,0.5384991,0.6312099,1.0,-0.08279419,-0.0587616,0.9948273,30.13318,-0.2028503,-23.33612,3.271393,0.5965494,0.5493271,0.05355155,1.179349,0.03981912,0.03198615,-0.09207501,-0.00185932,0.3100448,6.981384,31.29164297759576
1,-0.1052551,-0.05981445,0.99263,1.0,-0.1263885,-0.05607605,0.990387,-32.43199,-2.766876,-23.22295,3.111084,0.5384681,0.6312531,1.0,-0.08302307,-0.06370544,0.9945068,30.13304,-0.2217407,-23.29535,3.254639,0.5965494,0.5503929,0.05358827,1.179308,0.03971237,0.03197427,-0.09210923,-0.001678189,0.3100448,6.981384,31.29164297759576
1,-0.1055908,-0.0602417,0.992569,1.0,-0.1250305,-0.05691528,0.990509,-32.43065,-2.77684,-23.21436,3.111221,0.5381939,0.631619,1.0,-0.08338928,-0.06401062,0.9944458,30.13304,-0.2335052,-23.27686,3.271271,0.5965914,0.5506756,0.05359995,1.179276,0.03963947,0.0319484,-0.09213568,-0.001691456,0.3100448,18.33081,31.29164297759576
1,-0.106308,-0.06141663,0.9924316,1.0,-0.1253204,-0.05860901,0.9903717,-32.42928,-2.781464,-23.21405,3.110504,0.5381939,0.6320569,1.0,-0.08384705,-0.06469727,0.9943695,30.13304,-0.233551,-23.27385,3.255295,0.5966663,0.5507575,0.05360925,1.179258,0.03951836,0.03203317,-0.09196344,-0.002020624,0.3100448,18.33081,31.29164297759576
1,-0.106308,-0.06141663,0.9924316,1.0,-0.1253204,-0.05860901,0.9903717,-32.42928,-2.781464,-23.21405,3.110504,0.5381939,0.6320569,1.0,-0.08384705,-0.06469727,0.9943695,30.13304,-0.233551,-23.27385,3.255295,0.5966663,0.5507575,0.05360925,1.179258,0.03951836,0.03203317,-0.09196344,-0.002020624,0.3100448,18.33081,31.29164297759576
1,-0.1065979,-0.06044006,0.9924622,1.0,-0.1260681,-0.05725098,0.9903564,-32.42506,-2.794373,-23.20912,3.10434,0.5381817,0.6321951,1.0,-0.08343506,-0.06419373,0.9944305,30.13304,-0.2509766,-23.27072,3.255096,0.5965914,0.5512077,0.05359066,1.179255,0.03949475,0.03208546,-0.09196967,-0.001994645,0.3100448,18.33081,31.29164297759576
1,-0.1049805,-0.05987549,0.9926605,1.0,-0.1240082,-0.05764771,0.9906006,-32.42278,-2.81044,-23.1982,3.086075,0.5377685,0.632648,1.0,-0.08354187,-0.06236267,0.9945374,30.13364,-0.2678986,-23.27072,3.244644,0.5965914,0.5514509,0.05358303,1.179257,0.03943253,0.0321474,-0.09194464,-0.002064396,0.3100448,18.33081,31.29164297759576
1,-0.1042938,-0.06008911,0.9927216,1.0,-0.1242065,-0.05754089,0.9905853,-32.42273,-2.817551,-23.19803,3.104431,0.5377914,0.6328716,1.0,-0.08329773,-0.06274414,0.9945374,30.13368,-0.2681274,-23.27072,3.244431,0.5965494,0.5515172,0.05360508,1.17923,0.03934854,0.03231407,-0.09213171,-0.001806476,0.3100448,18.33081,31.29164297759576
1,-0.1042938,-0.06008911,0.9927216,1.0,-0.1242065,-0.05754089,0.9905853,-32.42273,-2.817551,-23.19803,3.104431,0.5377914,0.6328716,1.0,-0.08329773,-0.06274414,0.9945374,30.13368,-0.2681274,-23.27072,3.244431,0.5965494,0.5515172,0.05360508,1.17923,0.03934854,0.03231407,-0.09213171,-0.001806476,0.3100448,18.33081,31.29164297759576
2,-0.1037598,-0.06150818,0.992691,1.0,-0.1241913,-0.05836487,0.9905243,-32.42169,-2.82431,-23.19736,3.085587,0.5377593,0.6332138,1.0,-0.08377075,-0.06455994,0.9943848,30.1349,-0.268692,-23.27185,3.215042,0.5965914,0.5518401,0.0535835,1.179223,0.03935289,0.03252321,-0.09207267,-0.001642288,0.3100448,18.33081,31.29164297759576
2,-0.1024628,-0.06195068,0.9927979,1.0,-0.1225281,-0.05821228,0.9907532,-32.42047,-2.831345,-23.19084,3.085724,0.5374428,0.6333445,1.0,-0.08361816,-0.06544495,0.994339,30.13545,-0.269104,-23.27185,3.243698,0.5965424,0.552021,0.05365026,1.17925,0.03929055,0.03270505,-0.0920882,-0.001605584,0.3100448,18.33081,31.29164297759576
2,-0.1033173,-0.06155396,0.9927368,1.0,-0.1158447,-0.06278992,0.991272,-32.33261,-2.833771,-23.2,3.187225,0.5334625,0.6342924,1.0,-0.07632446,-0.05888367,0.9953308,30.23177,-0.1980438,-23.57562,3.243927,0.5924313,0.5513335,0.05362046,1.179169,0.03917551,0.03299017,-0.09223881,-0.001454636,0.3100448,18.33081,31.29164297759576
2,-0.1033173,-0.06155396,0.9927368,1.0,-0.1158447,-0.06278992,0.991272,-32.33261,-2.833771,-23.2,3.187225,0.5334625,0.6342924,1.0,-0.07632446,-0.05888367,0.9953308,30.23177,-0.1980438,-23.57562,3.243927,0.5924313,0.5513335,0.05362046,1.179169,0.03917551,0.03299017,-0.09223881,-0.001454636,0.3100448,18.33081,31.29164297759576
2,-0.03797913,-0.0572052,0.9976349,1.0,-0.0402832,-0.05709839,0.9975433,-31.77052,-2.696198,-23.26891,3.236404,0.502894,0.6291384,1.0,0.01312256,-0.0594635,0.9981384,30.76569,-0.02508545,-23.75533,3.048889,0.5599976,0.5469514,0.05360711,1.179176,0.0391084,0.03304477,-0.0922548,-0.001413066,0.3100448,18.33081,31.29164297759576
2,0.04364014,-0.02386475,0.9987488,1.0,0.04333496,-0.02377319,0.998764,-31.18362,-2.621506,-23.32137,3.199738,0.4702065,0.6214288,1.0,0.09405518,-0.03717041,0.9948578,31.23399,0.0869751,-23.92757,3.174545,0.5310858,0.5411216,0.05357707,1.179167,0.03905618,0.0330752,-0.09232979,-0.001375663,0.3100448,18.33081,31.29164297759576
2,0.04364014,-0.02386475,0.9987488,1.0,0.04333496,-0.02377319,0.998764,-31.18362,-2.621506,-23.32137,3.199738,0.4702065,0.6214288,1.0,0.09405518,-0.03717041,0.9948578,31.23399,0.0869751,-23.92757,3.174545,0.5310858,0.5411216,0.05357707,1.179167,0.03905618,0.0330752,-0.09232979,-0.001375663,0.3100448,18.33081,31.29164297759576
2,0.08093262,-0.02841187,0.9963074,1.0,0.07984924,-0.02827454,0.9963989,-30.96814,-2.587311,-23.33177,3.328827,0.4572602,0.6212958,1.0,0.1216583,-0.03372192,0.9919891,31.36006,-0.04559326,-23.5547,3.181046,0.522134,0.541521,0.05356801,1.179193,0.03890324,0.03292257,-0.09261099,-0.001226791,0.3100448,3.469543,31.29164297759576
2,0.08656311,-0.02903748,0.9958191,1.0,0.08258057,-0.02882385,0.9961548,-30.98674,-2.626663,-23.24622,3.343445,0.4574273,0.6218442,1.0,0.1222229,-0.03100586,0.9920044,31.36955,-0.04322815,-23.59,3.154144,0.5217269,0.5412872,0.05356562,1.179245,0.03880489,0.03273465,-0.09276067,-0.00133163,0.3100448,3.469543,31.29164297759576
2,0.08656311,-0.02903748,0.9958191,1.0,0.08258057,-0.02882385,0.9961548,-30.98674,-2.626663,-23.24622,3.343445,0.4574273,0.6218442,1.0,0.1222229,-0.03100586,0.9920044,31.36955,-0.04322815,-23.59,3.154144,0.5217269,0.5412872,0.05356562,1.179245,0.03880489,0.03273465,-0.09276067,-0.00133163,0.3100448,3.469543,31.29164297759576
2,0.09065247,-0.02957153,0.9954376,1.0,0.08435059,-0.0300293,0.9959717,-30.99571,-2.655563,-23.18477,3.31012,0.4574273,0.622371,1.0,0.1226044,-0.02722168,0.9920654,31.37201,-0.04966736,-23.58147,3.19989,0.5215933,0.5408208,0.05356562,1.179245,0.03880489,0.03273465,-0.09276067,-0.00133163,0.3100448,3.469543,31.29164297759576
2,0.09259033,-0.02903748,0.9952698,1.0,0.08454895,-0.0294342,0.9959717,-30.9989,-2.671478,-23.14822,3.284088,0.4574932,0.6224185,1.0,0.1230469,-0.0275116,0.9920044,31.37321,-0.05357361,-23.57393,3.196945,0.5214768,0.5409231,0.05352771,1.179316,0.03863794,0.03253191,-0.09287193,-0.001320392,0.3100448,3.469543,31.29164297759576
2,0.1012878,-0.02932739,0.9944153,1.0,0.08285522,-0.03027344,0.9960938,-31.00122,-2.67392,-23.14796,3.256454,0.4578418,0.6226034,1.0,0.1221008,-0.02822876,0.9921112,31.37708,-0.07652283,-23.52858,3.167908,0.5214768,0.5413553,0.05348599,1.179394,0.03849262,0.03238385,-0.09312469,-0.001256791,0.3087636,3.469543,31.29164297759576
2,0.1012878,-0.02932739,0.9944153,1.0,0.08285522,-0.03027344,0.9960938,-31.00122,-2.67392,-23.14796,3.256454,0.4578418,0.6226034,1.0,0.1221008,-0.02822876,0.9921112,31.37708,-0.07652283,-23.52858,3.167908,0.5214768,0.5413553,0.05348599,1.179394,0.03849262,0.03238385,-0.09312469,-0.001256791,0.30492,3.469543,31.29164297759576
2,0.11026,-0.02957153,0.993454,0.9228755,0.08392334,-0.03170776,0.9959564,-31.00662,-2.685791,-23.1162,3.264938,0.4578449,0.622938,0.9983616,0.1242218,-0.02842712,0.9918365,31.38014,-0.08665466,-23.51988,3.168365,0.5210168,0.5416513,0.05335033,1.179492,0.0383085,0.03231038,-0.09340708,-0.0009841623,0.30492,3.469543,31.29164297759576
2,0.11026,-0.02957153,0.993454,0.9228755,0.08392334,-0.03170776,0.9959564,-31.00662,-2.685791,-23.1162,3.264938,0.4578449,0.622938,0.9983616,0.1242218,-0.02842712,0.9918365,31.38014,-0.08665466,-23.51988,3.168365,0.5210168,0.5416513,0.05335033,1.179492,0.0383085,0.03231038,-0.09340708,-0.0009841623,0.30492,3.469543,31.29164297759576
2,0.1046143,-0.03042603,0.9940338,1.0,0.08360291,-0.03318787,0.9959412,-31.01102,-2.710281,-23.05087,3.275711,0.4580501,0.6233472,1.0,0.1235352,-0.02792358,0.9919434,31.38371,-0.1139374,-23.46321,3.175812,0.5209928,0.5419438,0.05325603,1.179511,0.03813589,0.03217357,-0.09366962,-0.0008004686,0.30492,3.469543,31.29164297759576
2,0.1046143,-0.03042603,0.9940338,1.0,0.08360291,-0.03318787,0.9959412,-31.01102,-2.710281,-23.05087,3.275711,0.4580501,0.6233472,1.0,0.1235352,-0.02792358,0.9919434,31.38371,-0.1139374,-23.46321,3.175812,0.5209928,0.5419438,0.05325603,1.179511,0.03813589,0.03217357,-0.09366962,-0.0008004686,0.30492,3.469543,31.29164297759576
2,0.1044769,-0.03109741,0.9940338,1.0,0.08387756,-0.0340271,0.9958801,-31.01306,-2.72403,-23.0213,3.276291,0.4580733,0.6236529,1.0,0.12323,-0.02841187,0.9919586,31.3873,-0.1291504,-23.42889,3.168945,0.5209073,0.5421995,0.05317259,1.179534,0.03796858,0.03226723,-0.09396655,-0.0006686067,0.30492,3.469543,31.29164297759576
2,0.1044769,-0.03109741,0.9940338,1.0,0.08387756,-0.0340271,0.9958801,-31.01306,-2.72403,-23.0213,3.276291,0.4580733,0.6236529,1.0,0.12323,-0.02841187,0.9919586,31.3873,-0.1291504,-23.42889,3.168945,0.5209073,0.5421995,0.05317259,1.179534,0.03796858,0.03226723,-0.09396655,-0.0006686067,0.30492,3.469543,31.29164297759576
2,0.103714,-0.03268433,0.9940643,1.0,0.08319092,-0.03564453,0.9958801,-31.01813,-2.741821,-23.01207,3.256531,0.4583425,0.6243958,1.0,0.1234131,-0.02983093,0.9918976,31.39471,-0.1573944,-23.39006,3.165878,0.5206155,0.5430079,0.05306637,1.179532,0.0378443,0.03241053,-0.09437811,-0.0005179005,0.30492,3.469543,31.29164297759576
2,0.103714,-0.03268433,0.9940643,1.0,0.08319092,-0.03564453,0.9958801,-31.01813,-2.741821,-23.01207,3.256531,0.4583425,0.6243958,1.0,0.1234131,-0.02983093,0.9918976,31.39471,-0.1573944,-23.39006,3.165878,0.5206155,0.5430079,0.05306637,1.179532,0.0378443,0.03241053,-0.09437811,-0.0005179005,0.30492,3.469543,31.29164297759576
2,0.1024475,-0.03465271,0.9941254,1.0,0.08457947,-0.03672791,0.9957275,-31.02815,-2.752243,-23.01207,3.230103,0.458435,0.6248948,1.0,0.1239777,-0.03211975,0.9917603,31.3974,-0.1653748,-23.38269,3.159164,0.5204268,0.543586,0.05288923,1.179536,0.03784484,0.03259209,-0.09477186,-0.0004882813,0.30492,3.469543,31.29164297759576
2,0.1031189,-0.03639221,0.993988,1.0,0.0852356,-0.03782654,0.995636,-31.03159,-2.766449,-23.00677,3.226822,0.458435,0.625485,1.0,0.1240692,-0.03468323,0.9916534,31.39851,-0.1683807,-23.37093,3.135162,0.5203615,0.5439936,0.0528816,1.179549,0.0378347,0.03286595,-0.09512144,-0.0003662109,0.30492,-7.659363,31.29164297759576
2,0.1031189,-0.03639221,0.993988,1.0,0.0852356,-0.03782654,0.995636,-31.03159,-2.766449,-23.00677,3.226822,0.458435,0.625485,1.0,0.1240692,-0.03468323,0.9916534,31.39851,-0.1683807,-23.37093,3.135162,0.5203615,0.5439936,0.0528816,1.179549,0.0378347,0.03286595,-0.09512144,-0.0003662109,0.30492,-7.659363,31.29164297759576
2,0.1041718,-0.03892517,0.9937897,1.0,0.08561707,-0.04042053,0.9954987,-31.03513,-2.77211,-23.01207,3.210831,0.4584822,0.6261485,1.0,0.1245117,-0.03726196,0.9915161,31.39851,-0.1882019,-23.36467,3.13472,0.5202821,0.5450276,0.05269957,1.179506,0.03773427,0.03313034,-0.09553981,-0.0002441406,0.30492,-7.659363,31.29164297759576
2,0.1041718,-0.03892517,0.9937897,1.0,0.08561707,-0.04042053,0.9954987,-31.03513,-2.77211,-23.01207,3.210831,0.4584822,0.6261485,1.0,0.1245117,-0.03726196,0.9915161,31.39851,-0.1882019,-23.36467,3.13472,0.5202821,0.5450276,0.05269957,1.179506,0.03773427,0.03313034,-0.09553981,-0.0002441406,0.30492,-7.659363,31.29164297759576
2,0.1041718,-0.03892517,0.9937897,1.0,0.08561707,-0.04042053,0.9954987,-31.03513,-2.77211,-23.01207,3.210831,0.4584822,0.6261485,1.0,0.1245117,-0.03726196,0.9915161,31.39851,-0.1882019,-23.36467,3.13472,0.5202821,0.5450276,0.05269957,1.179506,0.03773427,0.03313034,-0.09553981,-0.0002441406,0.30492,-7.659363,31.29164297759576
2,0.1041718,-0.03892517,0.9937897,1.0,0.08561707,-0.04042053,0.9954987,-31.03513,-2.77211,-23.01207,3.210831,0.4584822,0.6261485,1.0,0.1245117,-0.03726196,0.9915161,31.39851,-0.1882019,-23.36467,3.13472,0.5202821,0.5450276,0.05268943,1.179494,0.03765988,0.0333167,-0.09606592,-0.000211432,0.30492,-7.659363,31.29164297759576
2,0.1041718,-0.03892517,0.9937897,1.0,0.08561707,-0.04042053,0.9954987,-31.03513,-2.77211,-23.01207,3.210831,0.4584822,0.6261485,1.0,0.1245117,-0.03726196,0.9915161,31.39851,-0.1882019,-23.36467,3.13472,0.5202821,0.5450276,0.05261862,1.17935,0.03756398,0.03361303,-0.09638532,-0.00029901,0.30492,-7.659363,31.29164297759576
2,0.1041718,-0.03892517,0.9937897,1.0,0.08561707,-0.04042053,0.9954987,-31.03513,-2.77211,-23.01207,3.210831,0.4584822,0.6261485,1.0,0.1245117,-0.03726196,0.9915161,31.39851,-0.1882019,-23.36467,3.13472,0.5202821,0.5450276,0.05261862,1.17935,0.03756398,0.03361303,-0.09638532,-0.00029901,0.30492,-7.659363,31.29164297759576
2,0.1053314,-0.03965759,0.9936371,1.0,0.08737183,-0.03977966,0.9953766,-31.04437,-2.782883,-23.01312,3.209488,0.4584937,0.6263993,1.0,0.1246796,-0.039505,0.9914093,31.39851,-0.1991425,-23.3633,3.133896,0.5202531,0.5457583,0.05256736,1.179289,0.03765154,0.03412013,-0.09653694,-0.000211432,0.30492,-7.659363,31.29164297759576
2,0.1053314,-0.03965759,0.9936371,1.0,0.08737183,-0.03977966,0.9953766,-31.04437,-2.782883,-23.01312,3.209488,0.4584937,0.6263993,1.0,0.1246796,-0.039505,0.9914093,31.39851,-0.1991425,-23.3633,3.133896,0.5202531,0.5457583,0.05256736,1.179289,0.03765154,0.03412013,-0.09653694,-0.000211432,0.30492,-7.659363,31.29164297759576
2,0.1053314,-0.03965759,0.9936371,1.0,0.08737183,-0.03977966,0.9953766,-31.04437,-2.782883,-23.01312,3.209488,0.4584937,0.6263993,1.0,0.1246796,-0.039505,0.9914093,31.39851,-0.1991425,-23.3633,3.133896,0.5202531,0.5457583,0.05256736,1.179289,0.03765154,0.03412013,-0.09653694,-0.000211432,0.30492,-7.659363,31.29164297759576
2,0.1069946,-0.04098511,0.9934082,1.0,0.08547974,-0.04095459,0.9954834,-31.04968,-2.798782,-23.03313,3.209793,0.458968,0.6273043,1.0,0.1249542,-0.04098511,0.9913025,31.39619,-0.208252,-23.3633,3.127213,0.520279,0.5463061,0.05248153,1.17912,0.03764409,0.03464884,-0.09665927,-0.0002729575,0.30492,-7.659363,31.29164297759576
2,0.1062164,-0.04096985,0.9934845,1.0,0.08583069,-0.04110718,0.9954529,-31.05138,-2.802277,-23.02631,3.214249,0.458968,0.6273817,1.0,0.1252594,-0.04083252,0.991272,31.39471,-0.2111664,-23.36467,3.141205,0.5202821,0.5463976,0.05238545,1.179056,0.03766561,0.03523013,-0.09686193,-0.0001220703,0.30492,-7.659363,31.29164297759576
2,0.1062164,-0.04096985,0.9934845,1.0,0.08583069,-0.04110718,0.9954529,-31.05138,-2.802277,-23.02631,3.214249,0.458968,0.6273817,1.0,0.1252594,-0.04083252,0.991272,31.39471,-0.2111664,-23.36467,3.141205,0.5202821,0.5463976,0.05238545,1.179056,0.03766561,0.03523013,-0.09686193,-0.0001220703,0.30492,-7.659363,31.29164297759576
2,0.1055756,-0.04171753,0.9935303,1.0,0.0867157,-0.04072571,0.9953918,-31.05797,-2.803452,-23.03313,3.237442,0.4590419,0.6274447,1.0,0.1259155,-0.04275513,0.9911041,31.38612,-0.2111664,-23.39325,3.151276,0.5204697,0.5470011,0.05230725,1.179016,0.03772736,0.03591524,-0.09707683,0.0,0.30492,2.49707,31.29164297759576
2,0.1055756,-0.04171753,0.9935303,1.0,0.0867157,-0.04072571,0.9953918,-31.05797,-2.803452,-23.03313,3.237442,0.4590419,0.6274447,1.0,0.1259155,-0.04275513,0.9911041,31.38612,-0.2111664,-23.39325,3.151276,0.5204697,0.5470011,0.05230725,1.179016,0.03772736,0.03591524,-0.09707683,0.0,0.30492,2.49707,31.29164297759576
2,0.1055756,-0.04171753,0.9935303,1.0,0.0867157,-0.04072571,0.9953918,-31.05797,-2.803452,-23.03313,3.237442,0.4590419,0.6274447,1.0,0.1259155,-0.04275513,0.9911041,31.38612,-0.2111664,-23.39325,3.151276,0.5204697,0.5470011,0.05230725,1.179016,0.03772736,0.03591524,-0.09707683,0.0,0.30492,2.49707,31.29164297759576
2,0.1045532,-0.04150391,0.9936371,1.0,0.08677673,-0.04060364,0.9953918,-31.05878,-2.805984,-23.03944,3.238083,0.4590559,0.6275604,1.0,0.1253052,-0.04255676,0.9911957,31.38612,-0.2108459,-23.41354,3.15979,0.5205819,0.547145,0.05221403,1.178908,0.03778946,0.0364882,-0.09747496,0.0002441406,0.30492,2.49707,31.29164297759576
2,0.1052399,-0.04241943,0.9935303,1.0,0.08586121,-0.04142761,0.9954376,-31.05878,-2.804901,-23.0417,3.249252,0.4592087,0.6276889,1.0,0.1249542,-0.04342651,0.9911957,31.38612,-0.2108459,-23.41354,3.165939,0.5206426,0.5472972,0.05210972,1.178743,0.03778327,0.03686928,-0.09776087,0.0005179005,0.30492,2.49707,31.29164297759576
2,0.1052399,-0.04241943,0.9935303,1.0,0.08586121,-0.04142761,0.9954376,-31.05878,-2.804901,-23.0417,3.249252,0.4592087,0.6276889,1.0,0.1249542,-0.04342651,0.9911957,31.38612,-0.2108459,-23.41354,3.165939,0.5206426,0.5472972,0.05210972,1.178743,0.03778327,0.03686928,-0.09776087,0.0005179005,0.30492,2.49707,31.29164297759576
2,0.1057587,-0.04232788,0.9934845,1.0,0.08491516,-0.04103088,0.9955292,-31.054,-2.804901,-23.04671,3.260193,0.4592087,0.6276889,1.0,0.1249237,-0.04351807,0.9911957,31.38625,-0.2111664,-23.41982,3.159546,0.5206426,0.5473747,0.05196679,1.178684,0.03781521,0.03724025,-0.09794871,0.0008886853,0.30492,2.49707,31.29164297759576
2,0.1057587,-0.04232788,0.9934845,1.0,0.08491516,-0.04103088,0.9955292,-31.054,-2.804901,-23.04671,3.260193,0.4592087,0.6276889,1.0,0.1249237,-0.04351807,0.9911957,31.38625,-0.2111664,-23.41982,3.159546,0.5206426,0.5473747,0.05196679,1.178684,0.03781521,0.03724025,-0.09794871,0.0008886853,0.30492,2.49707,31.29164297759576
2,0.1057587,-0.04232788,0.9934845,1.0,0.08491516,-0.04103088,0.9955292,-31.054,-2.804901,-23.04671,3.260193,0.4592087,0.6276889,1.0,0.1249237,-0.04351807,0.9911957,31.38625,-0.2111664,-23.41982,3.159546,0.5206426,0.5473747,0.05196679,1.178684,0.03781521,0.03724025,-0.09794871,0.0008886853,0.30492,2.49707,31.29164297759576
2,0.1057587,-0.04232788,0.9934845,1.0,0.08491516,-0.04103088,0.9955292,-31.054,-2.804901,-23.04671,3.260193,0.4592087,0.6276889,1.0,0.1249237,-0.04351807,0.9911957,31.38625,-0.2111664,-23.41982,3.159546,0.5206426,0.5473747,0.05193412,1.178629,0.03785628,0.03765845,-0.098079,0.001112113,0.30492,2.49707,31.29164297759576
2,0.1057587,-0.04232788,0.9934845,1.0,0.08491516,-0.04103088,0.9955292,-31.054,-2.804901,-23.04671,3.260193,0.4592087,0.6276889,1.0,0.1249237,-0.04351807,0.9911957,31.38625,-0.2111664,-23.41982,3.159546,0.5206426,0.5473747,0.05178213,1.178622,0.03787577,0.03820723,-0.09807505,0.0006342959,0.30492,2.49707,31.29164297759576
2,0.1057587,-0.04232788,0.9934845,1.0,0.08491516,-0.04103088,0.9955292,-31.054,-2.804901,-23.04671,3.260193,0.4592087,0.6276889,1.0,0.1249237,-0.04351807,0.9911957,31.38625,-0.2111664,-23.41982,3.159546,0.5206426,0.5473747,0.05178213,1.178622,0.03787577,0.03820723,-0.09807505,0.0006342959,0.30492,2.49707,31.29164297759576
2,0.1057587,-0.04232788,0.9934845,1.0,0.08491516,-0.04103088,0.9955292,-31.054,-2.804901,-23.04671,3.260193,0.4592087,0.6276889,1.0,0.1249237,-0.04351807,0.9911957,31.38625,-0.2111664,-23.41982,3.159546,0.5206426,0.5473747,0.05166245,1.178657,0.03789496,0.03868878,-0.09834247,0.0009611826,0.30492,2.49707,31.29164297759576
2,0.1057587,-0.04232788,0.9934845,1.0,0.08491516,-0.04103088,0.9955292,-31.054,-2.804901,-23.04671,3.260193,0.4592087,0.6276889,1.0,0.1249237,-0.04351807,0.9911957,31.38625,-0.2111664,-23.41982,3.159546,0.5206426,0.5473747,0.05166245,1.178657,0.03789496,0.03868878,-0.09834247,0.0009611826,0.30492,2.49707,31.29164297759576
2,0.1057587,-0.04232788,0.9934845,1.0,0.08491516,-0.04103088,0.9955292,-31.054,-2.804901,-23.04671,3.260193,0.4592087,0.6276889,1.0,0.1249237,-0.04351807,0.9911957,31.38625,-0.2111664,-23.41982,3.159546,0.5206426,0.5473747,0.05166245,1.178657,0.03789496,0.03868878,-0.09834247,0.0009611826,0.30492,2.49707,31.29164297759576
2,0.1079102,-0.0425415,0.9932404,1.0,0.08576965,-0.04042053,0.9954834,-31.05295,-2.788666,-23.13046,3.265839,0.4590302,0.6278706,1.0,0.1251526,-0.04418945,0.9911499,31.38699,-0.2111664,-23.41985,3.16568,0.5205819,0.5474974,0.05158997,1.178641,0.03790355,0.03882642,-0.09874304,0.001402481,0.30492,2.49707,31.29164297759576
2,0.1079102,-0.0425415,0.9932404,1.0,0.08576965,-0.04042053,0.9954834,-31.05295,-2.788666,-23.13046,3.265839,0.4590302,0.6278706,1.0,0.1251526,-0.04418945,0.9911499,31.38699,-0.2111664,-23.41985,3.16568,0.5205819,0.5474974,0.05158997,1.178641,0.03790355,0.03882642,-0.09874304,0.001402481,0.30492,2.49707,31.29164297759576
2,0.1079102,-0.0425415,0.9932404,1.0,0.08576965,-0.04042053,0.9954834,-31.05295,-2.788666,-23.13046,3.265839,0.4590302,0.6278706,1.0,0.1251526,-0.04418945,0.9911499,31.38699,-0.2111664,-23.41985,3.16568,0.5205819,0.5474974,0.05154788,1.178599,0.03783631,0.03895726,-0.09901573,0.001605584,0.30492,2.49707,31.29164297759576
2,0.1098938,-0.04197693,0.993042,1.0,0.08644104,-0.03918457,0.9954834,-31.03984,-2.797501,-23.13467,3.262955,0.4584899,0.6279969,1.0,0.1251526,-0.04379272,0.9911652,31.38708,-0.213028,-23.41985,3.171616,0.5205819,0.5474974,0.05150521,1.178582,0.03781617,0.03903846,-0.09908215,0.001700243,0.30492,19.47058,31.29164297759576
2,0.1098938,-0.04197693,0.993042,1.0,0.08644104,-0.03918457,0.9954834,-31.03984,-2.797501,-23.13467,3.262955,0.4584899,0.6279969,1.0,0.1251526,-0.04379272,0.9911652,31.38708,-0.213028,-23.41985,3.171616,0.5205819,0.5474974,0.05150521,1.178582,0.03781617,0.03903846,-0.09908215,0.001700243,0.30492,19.47058,31.29164297759576
2,0.1110992,-0.04290771,0.9928741,1.0,0.09208679,-0.04200745,0.9948578,-31.03925,-2.83432,-23.09868,3.390045,0.457579,0.6294138,1.0,0.1323395,-0.04389954,0.9902191,31.40085,-0.2720337,-23.29753,3.332245,0.5189435,0.548447,0.05151141,1.178515,0.03783125,0.03910615,-0.09918565,0.001704619,0.30492,19.47058,31.29164297759576
2,0.1038361,-0.04328918,0.9936371,1.0,0.08959961,-0.04275513,0.9950562,-31.0392,-2.835373,-23.11478,3.409912,0.4579855,0.6297408,1.0,0.1313629,-0.04432678,0.9903259,31.40118,-0.2857056,-23.26006,3.329605,0.5190775,0.548617,0.0514375,1.178496,0.03779328,0.03926719,-0.09945218,0.001843221,0.30492,19.47058,31.29164297759576
2,0.1038361,-0.04328918,0.9936371,1.0,0.08959961,-0.04275513,0.9950562,-31.0392,-2.835373,-23.11478,3.409912,0.4579855,0.6297408,1.0,0.1313629,-0.04432678,0.9903259,31.40118,-0.2857056,-23.26006,3.329605,0.5190775,0.548617,0.0514375,1.178496,0.03779328,0.03926719,-0.09945218,0.001843221,0.30492,19.47058,31.29164297759576
2,0.1067505,-0.0406189,0.993454,1.0,0.08995056,-0.03851318,0.9951935,-31.03845,-2.837311,-23.11778,3.414841,0.4579051,0.6291296,1.0,0.1338043,-0.04399109,0.9900208,31.40245,-0.291687,-23.24445,3.321152,0.5186209,0.5486223,0.05137825,1.178489,0.03777063,0.03948518,-0.09965156,0.002064397,0.30492,19.47058,31.29164297759576
2,0.1067505,-0.0406189,0.993454,1.0,0.08995056,-0.03851318,0.9951935,-31.03845,-2.837311,-23.11778,3.414841,0.4579051,0.6291296,1.0,0.1338043,-0.04399109,0.9900208,31.40245,-0.291687,-23.24445,3.321152,0.5186209,0.5486223,0.05137825,1.178489,0.03777063,0.03948518,-0.09965156,0.002064397,0.30492,19.47058,31.29164297759576
2,0.1095276,-0.04090881,0.9931335,1.0,0.08987427,-0.03833008,0.9952087,-31.03812,-2.836594,-23.12109,3.413895,0.4579051,0.6291089,1.0,0.1309814,-0.04371643,0.9904175,31.40318,-0.2938843,-23.24335,3.323792,0.5190659,0.5486223,0.05128682,1.178507,0.03775764,0.03966422,-0.09967436,0.002180246,0.30492,19.47058,31.29164297759576
2,0.110672,-0.0413208,0.9929962,1.0,0.08996582,-0.03813171,0.9952087,-31.03659,-2.836594,-23.12671,3.414032,0.4578387,0.6291296,1.0,0.1313934,-0.04450989,0.9903259,31.40433,-0.2976379,-23.23468,3.323471,0.5189588,0.5488018,0.05123627,1.178474,0.03776944,0.03970964,-0.09974265,0.002247553,0.30492,19.47058,31.29164297759576
2,0.1116791,-0.04208374,0.9928436,1.0,0.09034729,-0.04020691,0.9950867,-31.03345,-2.837311,-23.13396,3.413406,0.4576745,0.6295721,1.0,0.1322784,-0.04388428,0.9902344,31.40565,-0.3096161,-23.20728,3.328613,0.5187571,0.5488414,0.05114758,1.178496,0.0377773,0.03978444,-0.09983322,0.002244235,0.30492,19.47058,31.29164297759576
2,0.1116791,-0.04208374,0.9928436,1.0,0.09034729,-0.04020691,0.9950867,-31.03345,-2.837311,-23.13396,3.413406,0.4576745,0.6295721,1.0,0.1322784,-0.04388428,0.9902344,31.40565,-0.3096161,-23.20728,3.328613,0.5187571,0.5488414,0.05114758,1.178496,0.0377773,0.03978444,-0.09983322,0.002244235,0.30492,19.47058,31.29164297759576
2,0.1117706,-0.04187012,0.9928436,1.0,0.09115601,-0.0398407,0.9950256,-31.03308,-2.837479,-23.14064,3.414108,0.4575296,0.6295798,1.0,0.1330566,-0.04396057,0.9901276,31.40569,-0.3166351,-23.18654,3.329224,0.5186209,0.5488978,0.0510875,1.178535,0.03774333,0.0398774,-0.0999143,0.002306451,0.30492,19.47058,31.29164297759576
2,0.111084,-0.04171753,0.9929199,1.0,0.09106445,-0.03886414,0.9950714,-31.03268,-2.838394,-23.15407,3.413864,0.4575296,0.6295798,1.0,0.1321411,-0.04470825,0.9902191,31.40601,-0.3204193,-23.17758,3.324936,0.5187571,0.5490542,0.05108595,1.178565,0.03770471,0.03991139,-0.1000435,0.002710401,0.30492,19.47058,31.29164297759576
2,0.111084,-0.04171753,0.9929199,1.0,0.09106445,-0.03886414,0.9950714,-31.03268,-2.838394,-23.15407,3.413864,0.4575296,0.6295798,1.0,0.1321411,-0.04470825,0.9902191,31.40601,-0.3204193,-23.17758,3.324936,0.5187571,0.5490542,0.05108595,1.178565,0.03770471,0.03991139,-0.1000435,0.002710401,0.30492,19.47058,31.29164297759576
2,0.1117096,-0.04151917,0.9928589,1.0,0.0905304,-0.03825378,0.9951477,-31.0294,-2.839722,-23.15991,3.416992,0.457508,0.6295798,1.0,0.1343231,-0.04498291,0.9899139,31.40736,-0.3255463,-23.15761,3.322708,0.5183414,0.5490912,0.05110443,1.178576,0.03770292,0.03987161,-0.1001112,0.002820855,0.30492,19.47058,31.29164297759576
2,0.1118317,-0.04255676,0.9928131,1.0,0.09040833,-0.03938293,0.9951172,-31.02835,-2.840958,-23.16299,3.453842,0.4575029,0.6298566,1.0,0.1340485,-0.04582214,0.9898987,31.41013,-0.32901,-23.14616,3.329941,0.5182947,0.5492513,0.0510875,1.178544,0.03766495,0.03977488,-0.1000026,0.00259812,0.30492,18.36365,32.71
2,0.1118317,-0.04255676,0.9928131,1.0,0.09040833,-0.03938293,0.9951172,-31.02835,-2.840958,-23.16299,3.453842,0.4575029,0.6298566,1.0,0.1340485,-0.04582214,0.9898987,31.41013,-0.32901,-23.14616,3.329941,0.5182947,0.5492513,0.0510875,1.178544,0.03766495,0.03977488,-0.1000026,0.00259812,0.30492,18.36365,32.71
2,0.1120453,-0.04240417,0.9927826,1.0,0.08996582,-0.03919983,0.995163,-31.02611,-2.841003,-23.16951,3.457611,0.4575029,0.6299013,1.0,0.1342621,-0.04560852,0.9898834,31.41203,-0.3300629,-23.14616,3.330032,0.5181972,0.5492513,0.05115211,1.178538,0.03764856,0.03983459,-0.1000514,0.002554742,0.30492,18.36365,32.71
2,0.1120453,-0.04240417,0.9927826,1.0,0.08996582,-0.03919983,0.995163,-31.02611,-2.841003,-23.16951,3.457611,0.4575029,0.6299013,1.0,0.1342621,-0.04560852,0.9898834,31.41203,-0.3300629,-23.14616,3.330032,0.5181972,0.5492513,0.05113256,1.178569,0.03759742,0.03985965,-0.1001314,0.002873194,0.30492,18.36365,32.71
2,0.1120453,-0.04240417,0.9927826,1.0,0.08996582,-0.03919983,0.995163,-31.02611,-2.841003,-23.16951,3.457611,0.4575029,0.6299013,1.0,0.1342621,-0.04560852,0.9898834,31.41203,-0.3300629,-23.14616,3.330032,0.5181972,0.5492513,0.05118823,1.178551,0.03752446,0.03992054,-0.1003641,0.002914389,0.30492,18.36365,32.71
2,0.1120453,-0.04240417,0.9927826,1.0,0.08996582,-0.03919983,0.995163,-31.02611,-2.841003,-23.16951,3.457611,0.4575029,0.6299013,1.0,0.1342621,-0.04560852,0.9898834,31.41203,-0.3300629,-23.14616,3.330032,0.5181972,0.5492513,0.05118823,1.178551,0.03752446,0.03992054,-0.1003641,0.002914389,0.30492,18.36365,32.71
2,0.112442,-0.04275513,0.9927216,1.0,0.08911133,-0.04000854,0.9952087,-31.02176,-2.841141,-23.18907,3.476074,0.4575029,0.6302405,1.0,0.1348114,-0.04537964,0.9898224,31.41333,-0.3339233,-23.14616,3.333099,0.5180619,0.5493453,0.05116403,1.178519,0.03747678,0.03998283,-0.1004868,0.002934769,0.30492,18.36365,32.71
2,0.1148682,-0.04470825,0.9923706,0.9076392,0.09111023,-0.04283142,0.9949036,-31.02014,-2.842682,-23.18907,3.47879,0.4571248,0.6307675,0.995566,0.1348114,-0.04626465,0.9897766,31.41789,-0.3339233,-23.14313,3.355942,0.5179212,0.5494742,0.05114853,1.178584,0.0374583,0.03997723,-0.1005201,0.002826132,0.30492,18.36365,32.71
2,0.1148682,-0.04470825,0.9923706,0.9076392,0.09111023,-0.04283142,0.9949036,-31.02014,-2.842682,-23.18907,3.47879,0.4571248,0.6307675,0.995566,0.1348114,-0.04626465,0.9897766,31.41789,-0.3339233,-23.14313,3.355942,0.5179212,0.5494742,0.05114853,1.178584,0.0374583,0.03997723,-0.1005201,0.002826132,0.30492,18.36365,32.71
2,0.1164398,-0.04377747,0.992218,0.8980132,0.09265137,-0.04037476,0.994873,-31.01732,-2.845749,-23.18907,3.479828,0.4567796,0.6304645,0.9824194,0.1364288,-0.0466156,0.9895477,31.42381,-0.3339233,-23.14171,3.322357,0.5174432,0.5495011,0.05116427,1.178582,0.03746974,0.0398172,-0.1005896,0.002671639,0.30492,18.36365,32.71
2,0.1163483,-0.04464722,0.9921875,0.8980132,0.09361267,-0.04241943,0.9946899,-31.01727,-2.847153,-23.18907,3.479065,0.4566233,0.6308545,0.9824194,0.1360626,-0.04658508,0.9895935,31.42583,-0.333374,-23.14313,3.332993,0.5174424,0.5495011,0.0511843,1.178574,0.0374561,0.03965952,-0.1006883,0.002519503,0.30492,18.36365,32.71
2,0.1163483,-0.04464722,0.9921875,0.8980132,0.09361267,-0.04241943,0.9946899,-31.01727,-2.847153,-23.18907,3.479065,0.4566233,0.6308545,0.9824194,0.1360626,-0.04658508,0.9895935,31.42583,-0.333374,-23.14313,3.332993,0.5174424,0.5495011,0.0511843,1.178574,0.0374561,0.03965952,-0.1006883,0.002519503,0.30492,18.36365,32.71
2,0.1165771,-0.04493713,0.992157,0.8850467,0.09428406,-0.04255676,0.9946289,-31.00749,-2.859314,-23.16956,3.480286,0.4561966,0.6310759,0.9970502,0.1357727,-0.04696655,0.989624,31.44023,-0.3302917,-23.14647,3.342667,0.5170215,0.5495011,0.05120599,1.178587,0.03744382,0.03954834,-0.1006956,0.002438353,0.30492,18.36365,32.71
2,0.1165771,-0.04493713,0.992157,0.8850467,0.09428406,-0.04255676,0.9946289,-31.00749,-2.859314,-23.16956,3.480286,0.4561966,0.6310759,0.9970502,0.1357727,-0.04696655,0.989624,31.44023,-0.3302917,-23.14647,3.342667,0.5170215,0.5495011,0.05120599,1.178587,0.03744382,0.03954834,-0.1006956,0.002438353,0.30492,18.36365,32.71
2,0.1183167,-0.04472351,0.9919586,0.8955745,0.09544373,-0.04165649,0.9945526,-31.00511,-2.859619,-23.16943,3.479965,0.4559299,0.6309447,0.9784569,0.1374207,-0.04727173,0.9893799,31.44084,-0.32724,-23.14813,3.342743,0.5167282,0.5494742,0.05125248,1.178633,0.03743684,0.03934984,-0.100607,0.002316121,0.30492,18.36365,32.71
2,0.118515,-0.0446167,0.9919434,0.8955745,0.09529114,-0.04161072,0.9945679,-31.00475,-2.861725,-23.16708,3.42482,0.4559299,0.6309447,0.9784569,0.1381226,-0.0471344,0.9892883,31.4442,-0.3257446,-23.15762,3.342743,0.5165032,0.5494922,0.05123937,1.178653,0.03744882,0.03917716,-0.1004746,0.002283727,0.30492,18.36365,32.71
2,0.1153259,-0.04150391,0.9924469,0.8850255,0.09519958,-0.04055786,0.9946289,-31.00441,-2.862198,-23.16487,3.410736,0.4559299,0.6307421,0.9730227,0.1392822,-0.04260254,0.9893341,31.45435,-0.2638245,-23.26804,3.494278,0.5160812,0.5478114,0.05133474,1.178718,0.03742164,0.03890521,-0.1002209,0.002131866,0.30492,9.610168,32.71
2,0.1153259,-0.04150391,0.9924469,0.8850255,0.09519958,-0.04055786,0.9946289,-31.00441,-2.862198,-23.16487,3.410736,0.4559299,0.6307421,0.9730227,0.1392822,-0.04260254,0.9893341,31.45435,-0.2638245,-23.26804,3.494278,0.5160812,0.5478114,0.05133474,1.178718,0.03742164,0.03890521,-0.1002209,0.002131866,0.30492,9.610168,32.71
2,0.1173096,-0.04499817,0.9920654,0.8873743,0.0997467,-0.04403687,0.9940338,-31.03459,-2.819473,-23.18019,3.457947,0.4561846,0.6301509,0.940136,0.1416016,-0.04629517,0.9888306,31.48158,-0.2433624,-23.28607,3.396042,0.5147651,0.5478777,0.05140126,1.178707,0.03737903,0.03875497,-0.09981874,0.002204037,0.30492,9.610168,32.71
2,0.1173096,-0.04499817,0.9920654,0.8873743,0.0997467,-0.04403687,0.9940338,-31.03459,-2.819473,-23.18019,3.457947,0.4561846,0.6301509,0.940136,0.1416016,-0.04629517,0.9888306,31.48158,-0.2433624,-23.28607,3.396042,0.5147651,0.5478777,0.05140126,1.178707,0.03737903,0.03875497,-0.09981874,0.002204037,0.30492,9.610168,32.71
3,0.08987427,-0.1189575,0.9888153,0.739233,0.08987427,-0.1189575,0.9888153,-31.22328,-2.648621,-23.39294,2.990417,0.4638074,0.6391169,0.8205116,0.0,0.0,0.0,31.40701,0.1011353,-23.9384,-1.0,0.5224524,0.5427425,0.05142117,1.178709,0.03735769,0.03866874,-0.09968565,0.002210787,0.30492,9.610168,32.71
3,-1.0,-1.0,-1.0,0.739233,0.0,0.0,0.0,-31.42172,-2.642075,-23.18172,-1.0,0.4802245,0.6284353,0.8205116,0.0,0.0,0.0,31.2307,0.2355804,-24.06503,-1.0,0.5341754,0.5418935,0.05151856,1.178732,0.03734028,0.03848895,-0.09944446,0.002338531,0.30492,9.610168,32.71
3,-1.0,-1.0,-1.0,0.739233,0.0,0.0,0.0,-31.42172,-2.642075,-23.18172,-1.0,0.4802245,0.6284353,0.8205116,0.0,0.0,0.0,31.2307,0.2355804,-24.06503,-1.0,0.5341754,0.5418935,0.05151856,1.178732,0.03734028,0.03848895,-0.09944446,0.002338531,0.30492,9.610168,32.71
3,-1.0,-1.0,-1.0,0.3652289,0.0,0.0,0.0,-31.9411,-2.45488,-23.69353,-1.0,0.5116225,0.6461996,0.2028168,0.0,0.0,0.0,30.75632,0.4736328,-24.78008,-1.0,0.5627349,0.5628083,0.05151856,1.178732,0.03734028,0.03848895,-0.09944446,0.002338531,0.30492,9.610168,32.71
3,-1.0,-1.0,-1.0,0.3652289,0.0,0.0,0.0,-31.9411,-2.45488,-23.69353,-1.0,0.5116225,0.6461996,0.2028168,0.0,0.0,0.0,30.75632,0.4736328,-24.78008,-1.0,0.5627349,0.5628083,0.05164468,1.178721,0.03733456,0.03829002,-0.09905583,0.002354407,0.30492,9.610168,32.71
3,-1.0,-1.0,-1.0,0.3652289,0.0,0.0,0.0,-31.9411,-2.45488,-23.69353,-1.0,0.5116225,0.6461996,0.2028168,0.0,0.0,0.0,30.75632,0.4736328,-24.78008,-1.0,0.5627349,0.5628083,0.05175149,1.178675,0.03734112,0.03825049,-0.09871927,0.002110793,0.30492,9.610168,32.71
3,-1.0,-1.0,-1.0,0.3652289,0.0,0.0,0.0,-31.9411,-2.45488,-23.69353,-1.0,0.5116225,0.6461996,0.2028168,0.0,0.0,0.0,30.75632,0.4736328,-24.78008,-1.0,0.5627349,0.5628083,0.05175149,1.178675,0.03734112,0.03825049,-0.09871927,0.002110793,0.30492,9.610168,32.71
3,-1.0,-1.0,-1.0,0.3652289,0.0,0.0,0.0,-31.9411,-2.45488,-23.69353,-1.0,0.5116225,0.6461996,0.2028168,0.0,0.0,0.0,30.75632,0.4736328,-24.78008,-1.0,0.5627349,0.5628083,0.0519172,1.178693,0.03733379,0.03816899,-0.09872063,0.002075195,0.30492,9.610168,32.71
3,-0.08190918,-0.3204956,0.9436951,0.3515491,-0.08213806,-0.3209229,0.9435272,-32.08377,-2.766174,-23.05553,3.274567,0.519638,0.6754789,0.1329233,-0.003723145,-0.1723785,0.9850159,30.53275,0.1526642,-24.04611,2.985077,0.5707422,0.5634264,0.05203283,1.178681,0.03729522,0.03802172,-0.09851687,0.001883209,0.30492,9.610168,32.71
3,-0.08190918,-0.3204956,0.9436951,0.3515491,-0.08213806,-0.3209229,0.9435272,-32.08377,-2.766174,-23.05553,3.274567,0.519638,0.6754789,0.1329233,-0.003723145,-0.1723785,0.9850159,30.53275,0.1526642,-24.04611,2.985077,0.5707422,0.5634264,0.05203283,1.178681,0.03729522,0.03802172,-0.09851687,0.001883209,0.30492,9.610168,32.71
3,-0.05792236,-0.1324921,0.9894867,0.4510952,-0.06318665,-0.138031,0.9884033,-32.1111,-2.693298,-23.67563,3.099792,0.5177832,0.6469171,0.4567374,-0.01060486,-0.08261108,0.996521,30.52802,-0.08560181,-23.81099,3.540817,0.5718765,0.5538039,0.05213034,1.178653,0.03728688,0.03789276,-0.09828222,0.001651337,0.30492,16.29407,32.71
3,-0.05792236,-0.1324921,0.9894867,0.4510952,-0.06318665,-0.138031,0.9884033,-32.1111,-2.693298,-23.67563,3.099792,0.5177832,0.6469171,0.4567374,-0.01060486,-0.08261108,0.996521,30.52802,-0.08560181,-23.81099,3.540817,0.5718765,0.5538039,0.05213034,1.178653,0.03728688,0.03789276,-0.09828222,0.001651337,0.30492,16.29407,32.71
3,-0.05792236,-0.1324921,0.9894867,0.4510952,-0.06318665,-0.138031,0.9884033,-32.1111,-2.693298,-23.67563,3.099792,0.5177832,0.6469171,0.4567374,-0.01060486,-0.08261108,0.996521,30.52802,-0.08560181,-23.81099,3.540817,0.5718765,0.5538039,0.05213034,1.178653,0.03728688,0.03789276,-0.09828222,0.001651337,0.30492,16.29407,32.71
3,-0.03521729,-0.125351,0.9914703,0.6005707,-0.04956055,-0.1299591,0.9902649,-32.09694,-2.806717,-23.51633,3.146637,0.5150308,0.6476248,0.6197082,-0.01268005,-0.1180573,0.9929199,30.57091,-0.0967865,-23.86227,3.270203,0.5708152,0.5605792,0.0522002,1.178701,0.03728688,0.03777124,-0.09805963,0.001413066,0.30492,16.29407,32.71
3,-0.03521729,-0.125351,0.9914703,0.6005707,-0.04956055,-0.1299591,0.9902649,-32.09694,-2.806717,-23.51633,3.146637,0.5150308,0.6476248,0.6197082,-0.01268005,-0.1180573,0.9929199,30.57091,-0.0967865,-23.86227,3.270203,0.5708152,0.5605792,0.0522002,1.178701,0.03728688,0.03777124,-0.09805963,0.001413066,0.30492,16.29407,32.71
3,-0.03521729,-0.125351,0.9914703,0.6005707,-0.04956055,-0.1299591,0.9902649,-32.09694,-2.806717,-23.51633,3.146637,0.5150308,0.6476248,0.6197082,-0.01268005,-0.1180573,0.9929199,30.57091,-0.0967865,-23.86227,3.270203,0.5708152,0.5605792,0.0522002,1.178701,0.03728688,0.03777124,-0.09805963,0.001413066,0.30492,16.29407,32.71
3,-0.04650879,-0.1170502,0.9920349,0.6953419,-0.06289673,-0.1554718,0.9858246,-32.10841,-2.876572,-23.29874,2.98941,0.5175102,0.6521034,0.7350412,-0.02975464,-0.07774353,0.996521,30.58061,-0.07084656,-24.39561,3.576096,0.573735,0.557996,0.05229557,1.178724,0.03732765,0.03755324,-0.09778647,0.001183516,0.30492,16.29407,32.71
3,-0.04675293,-0.120636,0.9915924,0.7192832,-0.06130981,-0.1459503,0.987381,-32.1107,-2.890381,-23.28923,3.04213,0.5173187,0.6508234,0.8045786,-0.02865601,-0.08908081,0.9956055,30.55368,-0.1339722,-23.81358,3.58429,0.574006,0.5565801,0.0524267,1.178778,0.03736067,0.03735412,-0.09756107,0.001125433,0.30492,16.29407,32.71
3,-0.04675293,-0.120636,0.9915924,0.7192832,-0.06130981,-0.1459503,0.987381,-32.1107,-2.890381,-23.28923,3.04213,0.5173187,0.6508234,0.8045786,-0.02865601,-0.08908081,0.9956055,30.55368,-0.1339722,-23.81358,3.58429,0.574006,0.5565801,0.0524267,1.178778,0.03736067,0.03735412,-0.09756107,0.001125433,0.30492,16.29407,32.71
3,-0.05215454,-0.1269989,0.9905243,0.7449331,-0.06149292,-0.1360321,0.9887848,-32.11301,-2.90535,-23.27972,3.116226,0.5174141,0.6495434,0.8408704,-0.0193634,-0.09512329,0.9952698,30.5576,-0.16008,-23.78784,3.571976,0.5723142,0.5582091,0.05258441,1.178773,0.03739488,0.03712764,-0.09750056,0.001353825,0.30492,16.29407,32.71
3,-0.05955505,-0.1280365,0.989975,0.7773918,-0.0620575,-0.1309967,0.9894257,-32.11366,-2.916794,-23.22568,3.122314,0.5175102,0.6485107,0.8658795,-0.02496338,-0.08694458,0.9958954,30.54567,-0.2004852,-23.72165,3.627197,0.5735834,0.5575673,0.05272245,1.178698,0.03744555,0.03710757,-0.09732373,0.001449505,0.30492,16.29407,32.71
3,-0.05955505,-0.1280365,0.989975,0.7773918,-0.0620575,-0.1309967,0.9894257,-32.11366,-2.916794,-23.22568,3.122314,0.5175102,0.6485107,0.8658795,-0.02496338,-0.08694458,0.9958954,30.54567,-0.2004852,-23.72165,3.627197,0.5735834,0.5575673,0.05272245,1.178698,0.03744555,0.03710757,-0.09732373,0.001449505,0.30492,16.29407,32.71
3,-0.05955505,-0.1280365,0.989975,0.7773918,-0.0620575,-0.1309967,0.9894257,-32.11366,-2.916794,-23.22568,3.122314,0.5175102,0.6485107,0.8658795,-0.02496338,-0.08694458,0.9958954,30.54567,-0.2004852,-23.72165,3.627197,0.5735834,0.5575673,0.05272245,1.178698,0.03744555,0.03710757,-0.09732373,0.001449505,0.30492,16.29407,32.71
3,-0.05728149,-0.1161041,0.9915771,0.8268533,-0.0605011,-0.1193237,0.9909973,-32.12003,-2.948318,-23.22295,3.166046,0.5174621,0.6475273,0.9054275,-0.02458191,-0.08346558,0.9962006,30.54315,-0.2174225,-23.69707,3.594223,0.5735846,0.5572746,0.05284679,1.178675,0.0375157,0.03679666,-0.09683654,0.001189794,0.30492,16.29407,32.71
3,-0.05728149,-0.1161041,0.9915771,0.8268533,-0.0605011,-0.1193237,0.9909973,-32.12003,-2.948318,-23.22295,3.166046,0.5174621,0.6475273,0.9054275,-0.02458191,-0.08346558,0.9962006,30.54315,-0.2174225,-23.69707,3.594223,0.5735846,0.5572746,0.05284679,1.178675,0.0375157,0.03679666,-0.09683654,0.001189794,0.30492,16.29407,32.71
3,-0.04695129,-0.103302,0.9935303,0.8754691,-0.06036377,-0.1151276,0.9915009,-32.12088,-2.970963,-23.21938,3.191101,0.5174621,0.6475273,0.915271,-0.02490234,-0.08378601,0.99617,30.53726,-0.2310944,-23.65799,3.576157,0.5738015,0.5574101,0.05294025,1.178864,0.03758168,0.03650066,-0.09619381,0.0006796587,0.30492,34.72809,32.71
3,-0.04562378,-0.100235,0.9939117,0.9395318,-0.05979919,-0.1130066,0.9917908,-32.12561,-2.973526,-23.19626,3.250031,0.5175102,0.6470481,0.9686641,-0.0256958,-0.08224487,0.9962769,30.53378,-0.2383728,-23.63597,3.574921,0.5740325,0.5571849,0.05312622,1.178861,0.03778583,0.03632263,-0.09518706,-0.0003229677,0.30492,34.72809,32.71
3,-0.04562378,-0.100235,0.9939117,0.9395318,-0.05979919,-0.1130066,0.9917908,-32.12561,-2.973526,-23.19626,3.250031,0.5175102,0.6470481,0.9686641,-0.0256958,-0.08224487,0.9962769,30.53378,-0.2383728,-23.63597,3.574921,0.5740325,0.5571849,0.05312622,1.178861,0.03778583,0.03632263,-0.09518706,-0.0003229677,0.30492,34.72809,32.71
3,-0.0443573,-0.09712219,0.994278,1.0,-0.05926514,-0.1079559,0.9923859,-32.13362,-2.975372,-23.19025,3.284225,0.5176796,0.6462052,1.0,-0.02578735,-0.08360291,0.9961548,30.53336,-0.2450714,-23.60579,3.57756,0.574039,0.5573576,0.05338871,1.178916,0.03797048,0.03616352,-0.09412872,-0.0008544922,0.30492,34.72809,32.71
3,-0.0443573,-0.09712219,0.994278,1.0,-0.05926514,-0.1079559,0.9923859,-32.13362,-2.975372,-23.19025,3.284225,0.5176796,0.6462052,1.0,-0.02578735,-0.08360291,0.9961548,30.53336,-0.2450714,-23.60579,3.57756,0.574039,0.5573576,0.05338871,1.178916,0.03797048,0.03616352,-0.09412872,-0.0008544922,0.30492,34.72809,32.71
3,-0.0443573,-0.09712219,0.994278,1.0,-0.05926514,-0.1079559,0.9923859,-32.13362,-2.975372,-23.19025,3.284225,0.5176796,0.6462052,1.0,-0.02578735,-0.08360291,0.9961548,30.53336,-0.2450714,-23.60579,3.57756,0.574039,0.5573576,0.05338871,1.178916,0.03797048,0.03616352,-0.09412872,-0.0008544922,0.30492,34.72809,32.71
3,-0.04373169,-0.09355164,0.9946442,1.0,-0.05982971,-0.1016998,0.9930115,-32.13626,-2.993286,-23.21315,3.343872,0.5178584,0.6459843,1.0,-0.02571106,-0.08439636,0.9960938,30.53265,-0.2500458,-23.58551,3.575836,0.5740325,0.5574625,0.05393827,1.179135,0.03827524,0.03518929,-0.09202531,-0.0015344,0.30492,34.72809,32.71
3,-0.04359436,-0.09188843,0.994812,1.0,-0.06016541,-0.09953308,0.9932098,-32.14351,-2.993286,-23.2451,3.34729,0.5181607,0.6459343,1.0,-0.02561951,-0.08357239,0.99617,30.5318,-0.2532806,-23.56641,3.576538,0.5740325,0.5572528,0.0548209,1.179476,0.03876185,0.03307565,-0.08658486,-0.002280462,0.30492,34.72809,32.71
3,-0.04359436,-0.09188843,0.994812,1.0,-0.06016541,-0.09953308,0.9932098,-32.14351,-2.993286,-23.2451,3.34729,0.5181607,0.6459343,1.0,-0.02561951,-0.08357239,0.99617,30.5318,-0.2532806,-23.56641,3.576538,0.5740325,0.5572528,0.0548209,1.179476,0.03876185,0.03307565,-0.08658486,-0.002280462,0.30492,34.72809,32.71
3,-0.03625488,-0.09883118,0.9944305,1.0,-0.05050659,-0.1070251,0.9929657,-32.27544,-2.932617,-23.25473,3.468826,0.5208652,0.6453946,1.0,-0.01106262,-0.08428955,0.9963684,30.41339,-0.1006927,-23.90622,3.709702,0.5758265,0.5555886,0.05626714,1.179653,0.039217,0.03136091,-0.07664207,-0.001960739,0.30492,34.72809,32.71
3,-0.03625488,-0.09883118,0.9944305,1.0,-0.05050659,-0.1070251,0.9929657,-32.27544,-2.932617,-23.25473,3.468826,0.5208652,0.6453946,1.0,-0.01106262,-0.08428955,0.9963684,30.41339,-0.1006927,-23.90622,3.709702,0.5758265,0.5555886,0.05626714,1.179653,0.039217,0.03136091,-0.07664207,-0.001960739,0.30492,34.72809,32.71
3,-0.03625488,-0.09883118,0.9944305,1.0,-0.05050659,-0.1070251,0.9929657,-32.27544,-2.932617,-23.25473,3.468826,0.5208652,0.6453946,1.0,-0.01106262,-0.08428955,0.9963684,30.41339,-0.1006927,-23.90622,3.709702,0.5758265,0.5555886,0.05626714,1.179653,0.039217,0.03136091,-0.07664207,-0.001960739,0.30492,34.72809,32.71
3,-1.0,-1.0,-1.0,0.8941551,0.0,0.0,0.0,-33.04402,-2.745575,-23.36076,-1.0,0.5618274,0.6418335,0.7819941,0.0,0.0,0.0,29.86711,0.3495789,-24.69582,-1.0,0.6139429,0.5499892,0.05838788,1.179727,0.03966969,0.03047409,-0.06355117,-0.0009296598,0.30492,34.72809,32.71
3,-1.0,-1.0,-1.0,0.8941551,0.0,0.0,0.0,-33.04402,-2.745575,-23.36076,-1.0,0.5618274,0.6418335,0.7819941,0.0,0.0,0.0,29.86711,0.3495789,-24.69582,-1.0,0.6139429,0.5499892,0.05838788,1.179727,0.03966969,0.03047409,-0.06355117,-0.0009296598,0.30492,34.72809,32.71
3,-1.0,-1.0,-1.0,0.3204817,0.0,0.0,0.0,-33.26636,-3.400421,-23.59761,-1.0,0.5900174,0.6802497,0.07948425,0.0,0.0,0.0,29.62177,-1.192719,-24.06047,-1.0,0.650801,0.5852547,0.06115246,1.179942,0.04028934,0.02905555,-0.04639523,-0.0004727763,0.30492,34.72809,32.71
3,-1.0,-1.0,-1.0,0.1862547,0.0,0.0,0.0,-33.26636,-3.400421,-23.59761,-1.0,0.6226975,0.6937117,0.0,0.0,0.0,0.0,29.31419,-1.200821,-24.08717,-1.0,0.6348116,0.5873647,0.06478131,1.180193,0.04087186,0.02784006,-0.02361233,0.00059802,0.30492,29.34137,32.71
3,-1.0,-1.0,-1.0,0.1862547,0.0,0.0,0.0,-33.26636,-3.400421,-23.59761,-1.0,0.6226975,0.6937117,0.0,0.0,0.0,0.0,29.31419,-1.200821,-24.08717,-1.0,0.6348116,0.5873647,0.06478131,1.180193,0.04087186,0.02784006,-0.02361233,0.00059802,0.30492,29.34137,32.71
3,-1.0,-1.0,-1.0,0.1862547,0.0,0.0,0.0,-33.26636,-3.400421,-23.59761,-1.0,0.6226975,0.6937117,0.0,0.0,0.0,0.0,29.31419,-1.200821,-24.08717,-1.0,0.6348116,0.5873647,0.06478131,1.180193,0.04087186,0.02784006,-0.02361233,0.00059802,0.30492,29.34137,32.71
3,-1.0,-1.0,-1.0,0.1026513,0.0,0.0,0.0,-33.26636,-3.400421,-23.59761,-1.0,0.6426879,0.6959227,0.0,0.0,0.0,0.0,29.31419,-1.200821,-24.08717,-1.0,0.6704012,0.574771,0.06868374,1.180272,0.04100525,0.0275533,0.0,0.003554741,0.30492,29.34137,32.71
3,-1.0,-1.0,-1.0,0.03304459,0.0,0.0,0.0,-33.26636,-3.400421,-23.59761,-1.0,0.6553307,0.7013883,0.0,0.0,0.0,0.0,29.31419,-1.200821,-24.08717,-1.0,0.6360464,0.5941577,0.07253993,1.180234,0.04108983,0.02780418,0.02209034,0.007726193,0.30492,29.34137,32.71
3,-1.0,-1.0,-1.0,0.03304459,0.0,0.0,0.0,-33.26636,-3.400421,-23.59761,-1.0,0.6553307,0.7013883,0.0,0.0,0.0,0.0,29.31419,-1.200821,-24.08717,-1.0,0.6360464,0.5941577,0.07253993,1.180234,0.04108983,0.02780418,0.02209034,0.007726193,0.30492,29.34137,32.71
3,-1.0,-1.0,-1.0,0.00098922,0.0,0.0,0.0,-34.94383,-3.627182,-24.48367,-1.0,0.6987814,0.712698,0.0,0.0,0.0,0.0,29.31419,-1.200821,-24.08717,-1.0,0.6687644,0.6008118,0.07646298,1.180362,0.04114795,0.02699907,0.04463052,0.0117359,0.30492,29.34137,32.71
3,-1.0,-1.0,-1.0,0.00098922,0.0,0.0,0.0,-34.94383,-3.627182,-24.48367,-1.0,0.6987814,0.712698,0.0,0.0,0.0,0.0,29.31419,-1.200821,-24.08717,-1.0,0.6687644,0.6008118,0.07646298,1.180362,0.04114795,0.02699907,0.04463052,0.0117359,0.30492,29.34137,32.71
3,-1.0,-1.0,-1.0,0.00098922,0.0,0.0,0.0,-34.94383,-3.627182,-24.48367,-1.0,0.6987814,0.712698,0.0,0.0,0.0,0.0,29.31419,-1.200821,-24.08717,-1.0,0.6687644,0.6008118,0.07646298,1.180362,0.04114795,0.02699907,0.04463052,0.0117359,0.30492,29.34137,32.71
3,-1.0,-1.0,-1.0,0.0,0.0,0.0,0.0,-34.94383,-3.627182,-24.48367,-1.0,0.6643652,0.7119814,0.0,0.0,0.0,0.0,29.31419,-1.200821,-24.08717,-1.0,0.5593329,0.5892004,0.07853401,1.18048,0.04113239,0.0264149,0.05631438,0.01340719,0.30492,29.34137,32.71
3,-1.0,-1.0,-1.0,0.0,0.0,0.0,0.0,-34.42198,-3.841385,-24.22008,-1.0,0.6643652,0.7205672,0.0,0.0,0.0,0.0,29.31419,-1.200821,-24.08717,-1.0,0.580557,0.5838675,0.08058035,1.180581,0.04113591,0.02621785,0.06805911,0.01485601,0.30492,29.34137,32.71
3,-1.0,-1.0,-1.0,0.0,0.0,0.0,0.0,-34.42198,-3.841385,-24.22008,-1.0,0.6643652,0.7205672,0.0,0.0,0.0,0.0,29.31419,-1.200821,-24.08717,-1.0,0.5684254,0.5890889,0.08490193,1.180629,0.04096353,0.02604364,0.092025,0.01708549,0.30492,29.34137,32.71
3,-1.0,-1.0,-1.0,0.0,0.0,0.0,0.0,-34.42198,-3.841385,-24.22008,-1.0,0.6643652,0.7205672,0.0,0.0,0.0,0.0,29.31419,-1.200821,-24.08717,-1.0,0.5684254,0.5890889,0.08490193,1.180629,0.04096353,0.02604364,0.092025,0.01708549,0.30492,29.34137,32.71
3,-1.0,-1.0,-1.0,0.0,0.0,0.0,0.0,-34.99126,-3.510864,-24.47969,-1.0,0.7037566,0.7065702,0.0,0.0,0.0,0.0,29.31419,-1.200821,-24.08717,-1.0,0.5930539,0.5860514,0.08705914,1.180683,0.04081726,0.02606165,0.1039829,0.01810801,0.30492,29.34137,32.71
3,-1.0,-1.0,-1.0,0.103637,0.0,0.0,0.0,-35.00256,-3.626846,-24.52742,-1.0,0.7048627,0.7151915,0.0,0.0,0.0,0.0,27.47073,-0.5365143,-24.69359,-1.0,0.7710178,0.5979031,0.09129417,1.180619,0.04033834,0.02703795,0.1263733,0.02069947,0.30492,29.34137,32.71
3,-1.0,-1.0,-1.0,0.103637,0.0,0.0,0.0,-35.00256,-3.626846,-24.52742,-1.0,0.7048627,0.7151915,0.0,0.0,0.0,0.0,27.47073,-0.5365143,-24.69359,-1.0,0.7710178,0.5979031,0.09129417,1.180619,0.04033834,0.02703795,0.1263733,0.02069947,0.30492,29.34137,32.71
3,-1.0,-1.0,-1.0,0.2585663,0.0,0.0,0.0,-34.85638,-3.707352,-24.44919,-1.0,0.6950304,0.7186489,0.0,0.0,0.0,0.0,28.56442,-0.7542419,-24.12868,-1.0,0.6994997,0.6009098,0.09334981,1.180513,0.04005075,0.02752733,0.1372804,0.02196113,0.30492,29.34137,32.71
3,-1.0,-1.0,-1.0,0.3468979,0.0,0.0,0.0,-35.17209,-3.503906,-24.61853,-1.0,0.7161958,0.7091978,0.0,0.0,0.0,0.0,27.64502,-1.974228,-24.51808,-1.0,0.6993921,0.5776623,0.09544599,1.180404,0.03979015,0.02800017,0.1476418,0.02313224,0.30492,29.34137,32.71
3,-1.0,-1.0,-1.0,0.3468979,0.0,0.0,0.0,-35.17209,-3.503906,-24.61853,-1.0,0.7161958,0.7091978,0.0,0.0,0.0,0.0,27.64502,-1.974228,-24.51808,-1.0,0.6993921,0.5776623,0.09951508,1.180206,0.03915,0.02921717,0.1681081,0.02525086,0.3074824,-1.567322,32.71
3,-1.0,-1.0,-1.0,0.3468979,0.0,0.0,0.0,-35.17209,-3.503906,-24.61853,-1.0,0.7161958,0.7091978,0.0,0.0,0.0,0.0,27.64502,-1.974228,-24.51808,-1.0,0.6993921,0.5776623,0.09951508,1.180206,0.03915,0.02921717,0.1681081,0.02525086,0.3074824,-1.567322,32.71
3,-1.0,-1.0,-1.0,0.3468979,0.0,0.0,0.0,-35.17209,-3.503906,-24.61853,-1.0,0.7161958,0.7091978,0.0,0.0,0.0,0.0,27.64502,-1.974228,-24.51808,-1.0,0.6993921,0.5776623,0.1015278,1.180042,0.03882521,0.03013728,0.1780611,0.0262664,0.3074824,-1.567322,32.71
3,-1.0,-1.0,-1.0,0.3468979,0.0,0.0,0.0,-35.17209,-3.503906,-24.61853,-1.0,0.7161958,0.7091978,0.0,0.0,0.0,0.0,27.64502,-1.974228,-24.51808,-1.0,0.6993921,0.5776623,0.1054312,1.179447,0.03800893,0.03315889,0.1963169,0.02897698,0.3074824,-1.567322,32.71
3,-1.0,-1.0,-1.0,0.3468979,0.0,0.0,0.0,-35.17209,-3.503906,-24.61853,-1.0,0.7161958,0.7091978,0.0,0.0,0.0,0.0,27.64502,-1.974228,-24.51808,-1.0,0.6993921,0.5776623,0.1054312,1.179447,0.03800893,0.03315889,0.1963169,0.02897698,0.3074824,-1.567322,32.71
3,-1.0,-1.0,-1.0,0.4658845,0.0,0.0,0.0,-34.85536,-3.591537,-24.40781,-1.0,0.6945879,0.710139,0.1093952,0.0,0.0,0.0,27.29803,0.003128052,-24.73102,-1.0,0.7843769,0.564256,0.1073971,1.179136,0.03759205,0.03474825,0.2052391,0.03037319,0.3074824,-1.567322,32.71
3,-1.0,-1.0,-1.0,0.7142863,0.0,0.0,0.0,-34.31532,-3.033813,-23.93596,-1.0,0.6575971,0.6640793,0.4603454,0.0,0.0,0.0,27.85661,-0.1633759,-24.32881,-1.0,0.7353867,0.5491579,0.1093665,1.178807,0.03714842,0.03654574,0.2142665,0.03148562,0.3074824,-1.567322,32.71
3,-1.0,-1.0,-1.0,0.7142863,0.0,0.0,0.0,-34.31532,-3.033813,-23.93596,-1.0,0.6575971,0.6640793,0.4603454,0.0,0.0,0.0,27.85661,-0.1633759,-24.32881,-1.0,0.7353867,0.5491579,0.1093665,1.178807,0.03714842,0.03654574,0.2142665,0.03148562,0.3074824,-1.567322,32.71
3,-1.0,-1.0,-1.0,0.8529863,0.0,0.0,0.0,-34.2084,-2.865814,-23.85358,-1.0,0.6504737,0.6516895,0.6035012,0.0,0.0,0.0,28.01933,-0.1601257,-24.132,-1.0,0.7135294,0.5549218,0.1134826,1.17825,0.03631848,0.03959672,0.2341671,0.03334286,0.3074824,-1.567322,32.71
3,-1.0,-1.0,-1.0,0.85386,0.0,0.0,0.0,-34.12828,-2.974091,-23.83234,-1.0,0.6453234,0.6581257,0.6051713,0.0,0.0,0.0,28.10765,-0.1140442,-24.08607,-1.0,0.7103775,0.5556718,0.1155013,1.177945,0.03573579,0.04124658,0.2442965,0.03435602,0.3074824,-1.567322,32.71
3,-1.0,-1.0,-1.0,0.897053,0.0,0.0,0.0,-33.98051,-2.930939,-23.7581,-1.0,0.635695,0.6538589,0.6816321,0.0,0.0,0.0,28.28288,-0.1279297,-23.98929,-1.0,0.6935146,0.5502394,0.1194746,1.177254,0.03449607,0.04455951,0.2643408,0.0366097,0.3074824,-1.567322,32.71
3,-1.0,-1.0,-1.0,0.897053,0.0,0.0,0.0,-33.98051,-2.930939,-23.7581,-1.0,0.635695,0.6538589,0.6816321,0.0,0.0,0.0,28.28288,-0.1279297,-23.98929,-1.0,0.6935146,0.5502394,0.1194746,1.177254,0.03449607,0.04455951,0.2643408,0.0366097,0.3074824,-1.567322,32.71
3,-1.0,-1.0,-1.0,0.9160082,0.0,0.0,0.0,-33.84148,-2.889297,-23.69337,-1.0,0.6266826,0.6498961,0.6906779,0.0,0.0,0.0,28.44528,-0.08442688,-23.94456,-1.0,0.686456,0.5484962,0.1213698,1.176929,0.03381836,0.04627318,0.2737368,0.03774402,0.3074824,-1.567322,32.71
3,-0.256546,-0.03173828,0.9660034,0.9614649,0.0,0.0,0.0,-33.67621,-2.852661,-23.62462,-1.0,0.616025,0.6461617,0.7505016,-0.256546,-0.03173828,0.9660034,28.65796,-0.1174011,-23.88637,3.81427,0.6752635,0.5491423,0.1251136,1.176236,0.03236651,0.04931445,0.2922419,0.03969163,0.3074824,-1.567322,32.71
3,-0.256546,-0.03173828,0.9660034,0.9614649,0.0,0.0,0.0,-33.67621,-2.852661,-23.62462,-1.0,0.616025,0.6461617,0.7505016,-0.256546,-0.03173828,0.9660034,28.65796,-0.1174011,-23.88637,3.81427,0.6752635,0.5491423,0.1251136,1.176236,0.03236651,0.04931445,0.2922419,0.03969163,0.3074824,-1.567322,32.71
3,-0.2309113,-0.04019165,0.9721375,0.9950721,0.0,0.0,0.0,-33.73714,-2.928711,-23.55937,-1.0,0.6013458,0.6434634,0.7918097,-0.2309113,-0.04019165,0.9721375,28.91492,-0.06015015,-23.80457,3.846603,0.6621779,0.5475976,0.1287396,1.175646,0.03090179,0.05141291,0.3100795,0.04107662,0.3074824,-1.567322,32.71
3,-0.2309113,-0.04019165,0.9721375,0.9950721,0.0,0.0,0.0,-33.73714,-2.928711,-23.55937,-1.0,0.6013458,0.6434634,0.7918097,-0.2309113,-0.04019165,0.9721375,28.91492,-0.06015015,-23.80457,3.846603,0.6621779,0.5475976,0.1287396,1.175646,0.03090179,0.05141291,0.3100795,0.04107662,0.3074824,-1.567322,32.71
3,-0.2294159,-0.04850769,0.9721069,1.0,-0.2515717,-0.08229065,0.964325,-33.6346,-2.888809,-23.53352,3.62233,0.5982448,0.6445116,1.0,-0.2090759,-0.01794434,0.9777222,29.01663,-0.04827881,-23.78015,3.561676,0.6552188,0.5427829,0.1305044,1.175439,0.03013659,0.05225679,0.3188182,0.04179353,0.3074824,-28.31384,32.71
3,-0.2137909,-0.0393219,0.9760742,1.0,-0.226593,-0.05606079,0.9723663,-33.45827,-2.898209,-23.49042,3.851746,0.5882308,0.6397574,1.0,-0.1954193,-0.01550293,0.9805908,29.20744,-0.06396484,-23.70647,3.724228,0.6464067,0.5421436,0.1322573,1.175226,0.02939075,0.05305427,0.3273138,0.0424824,0.3074824,-28.31384,32.71
3,-0.1979828,-0.04476929,0.9791718,1.0,-0.2027893,-0.05058289,0.9779053,-33.25047,-2.933502,-23.42603,3.75386,0.5775316,0.6389741,1.0,-0.1840668,-0.02799988,0.9824982,29.40941,-0.1310272,-23.48076,3.705719,0.6374867,0.5442117,0.1354271,1.174848,0.02772188,0.05477449,0.3431567,0.04393395,0.3074824,-28.31384,32.71
3,-0.1979828,-0.04476929,0.9791718,1.0,-0.2027893,-0.05058289,0.9779053,-33.25047,-2.933502,-23.42603,3.75386,0.5775316,0.6389741,1.0,-0.1840668,-0.02799988,0.9824982,29.40941,-0.1310272,-23.48076,3.705719,0.6374867,0.5442117,0.1354271,1.174848,0.02772188,0.05477449,0.3431567,0.04393395,0.3074824,-28.31384,32.71
3,-0.1832733,-0.0266571,0.9826965,1.0,-0.1832886,-0.0266571,0.9826965,-33.06802,-2.958267,-23.30608,3.826431,0.5682988,0.6344273,1.0,-0.1662598,-0.01390076,0.9859772,29.54247,-0.4532623,-22.19267,3.961014,0.6285011,0.5406042,0.1369305,1.174621,0.02691972,0.05547193,0.3504534,0.04442169,0.3074824,-28.31384,32.71
3,-0.1832733,-0.0266571,0.9826965,1.0,-0.1832886,-0.0266571,0.9826965,-33.06802,-2.958267,-23.30608,3.826431,0.5682988,0.6344273,1.0,-0.1662598,-0.01390076,0.9859772,29.54247,-0.4532623,-22.19267,3.961014,0.6285011,0.5406042,0.1369305,1.174621,0.02691972,0.05547193,0.3504534,0.04442169,0.3074824,-28.31384,32.71
3,-0.1630096,-0.02508545,0.9862976,1.0,-0.1630096,-0.02508545,0.9862976,-32.95834,-2.975311,-23.12569,3.842545,0.5612804,0.632769,1.0,-0.1281128,-0.01942444,0.9915619,29.67459,-0.2201538,-22.91881,3.746796,0.6187093,0.5400854,0.1397682,1.174124,0.02528274,0.05666377,0.3641257,0.04469841,0.3074824,-28.31384,32.71
3,-0.1406555,-0.03044128,0.9895782,1.0,-0.1406708,-0.03044128,0.9895782,-32.8208,-3.069214,-22.74298,3.854324,0.5529098,0.6327632,1.0,-0.1151581,-0.03044128,0.9928741,29.84474,-0.06726074,-23.40601,3.76915,0.6114721,0.5412879,0.1410964,1.173845,0.02441001,0.05709695,0.3706192,0.04474888,0.3074824,-28.31384,32.71
3,-0.1406555,-0.03044128,0.9895782,1.0,-0.1406708,-0.03044128,0.9895782,-32.8208,-3.069214,-22.74298,3.854324,0.5529098,0.6327632,1.0,-0.1151581,-0.03044128,0.9928741,29.84474,-0.06726074,-23.40601,3.76915,0.6114721,0.5412879,0.1410964,1.173845,0.02441001,0.05709695,0.3706192,0.04474888,0.3074824,-28.31384,32.71
3,-0.1439209,-0.02735901,0.9891968,1.0,-0.1451416,-0.02746582,0.9890137,-32.83501,-3.181915,-22.47481,3.96405,0.5538982,0.633417,1.0,-0.1053772,-0.02349854,0.9941406,29.82088,-0.1191406,-23.29449,3.73381,0.6105447,0.5407361,0.1437424,1.173338,0.02278513,0.0576384,0.3829545,0.04460096,0.3074824,-28.31384,32.71
3,-0.3245392,-0.09579468,0.9409943,1.0,-0.3249664,-0.09611511,0.9408112,-33.70081,-3.114029,-23.47702,3.907639,0.6123852,0.6549327,1.0,-0.2478943,-0.04055786,0.967926,28.72516,-0.3174133,-23.60551,3.873322,0.6710405,0.5545405,0.1450535,1.17318,0.02199411,0.05790239,0.3890297,0.04428058,0.3074824,-28.31384,32.71
3,-0.3245392,-0.09579468,0.9409943,1.0,-0.3249664,-0.09611511,0.9408112,-33.70081,-3.114029,-23.47702,3.907639,0.6123852,0.6549327,1.0,-0.2478943,-0.04055786,0.967926,28.72516,-0.3174133,-23.60551,3.873322,0.6710405,0.5545405,0.1450535,1.17318,0.02199411,0.05790239,0.3890297,0.04428058,0.3074824,-28.31384,32.71
3,-0.3427582,-0.09138489,0.9349518,0.9497975,-0.3682556,-0.1135406,0.92276,-34.17041,-3.279877,-23.64635,3.727921,0.6354564,0.6659615,0.9321818,-0.3243256,-0.07553101,0.9429169,28.17033,-0.3896942,-23.77373,3.984131,0.7028347,0.5657242,0.1462708,1.172931,0.02111006,0.05804016,0.3950226,0.0439465,0.3074824,-28.31384,32.71
3,-0.3110046,-0.05027771,0.9490662,0.9499823,-0.3488007,-0.1038055,0.931427,-34.11275,-3.251938,-23.60599,3.752167,0.6302052,0.6625674,0.9131536,-0.3090515,-0.0475769,0.9498444,28.27516,-0.4051056,-23.75359,3.969742,0.6967216,0.5610018,0.1486597,1.172417,0.01942062,0.05876186,0.4063809,0.04361789,0.3074824,-43.72952,32.71
3,-0.3110046,-0.05027771,0.9490662,0.9499823,-0.3488007,-0.1038055,0.931427,-34.11275,-3.251938,-23.60599,3.752167,0.6302052,0.6625674,0.9131536,-0.3090515,-0.0475769,0.9498444,28.27516,-0.4051056,-23.75359,3.969742,0.6967216,0.5610018,0.1486597,1.172417,0.01942062,0.05876186,0.4063809,0.04361789,0.3074824,-43.72952,32.71
4,-0.3084869,-0.08654785,0.9472656,0.9704534,-0.3473053,-0.1148376,0.9306793,-33.82918,-3.209976,-23.53813,3.631058,0.6206202,0.6622293,0.8977622,-0.2685089,-0.05776978,0.9615326,28.3607,-0.3558655,-23.68985,3.970642,0.6867823,0.559909,0.1508036,1.171934,0.01778579,0.05962269,0.4162346,0.04377357,0.3074824,-43.72952,32.71
4,-0.2669373,-0.06051636,0.9618073,0.9702361,0.0,0.0,0.0,-33.81631,-3.142029,-23.52229,-1.0,0.6186769,0.6577048,0.8891323,-0.2669373,-0.06051636,0.9618073,28.49123,-0.3351288,-23.6535,3.884949,0.6821239,0.5592512,0.1527821,1.171509,0.01612967,0.05995741,0.4255307,0.04317926,0.3074824,-43.72952,32.71
4,-0.2826385,-0.06866455,0.9567566,0.9702361,-0.3356781,-0.1035156,0.936264,-33.79912,-3.145111,-23.51653,3.744186,0.6175898,0.6577771,0.8891323,-0.2590179,-0.05331421,0.964386,28.58101,-0.3028717,-23.63327,3.684113,0.6778532,0.5565305,0.1545137,1.171118,0.01447833,0.06037608,0.433947,0.04237616,0.3074824,-43.72952,32.71
4,-0.2826385,-0.06866455,0.9567566,0.9702361,-0.3356781,-0.1035156,0.936264,-33.79912,-3.145111,-23.51653,3.744186,0.6175898,0.6577771,0.8891323,-0.2590179,-0.05331421,0.964386,28.58101,-0.3028717,-23.63327,3.684113,0.6778532,0.5565305,0.1545137,1.171118,0.01447833,0.06037608,0.433947,0.04237616,0.3074824,-43.72952,32.71
4,-0.2827301,-0.06999207,0.9566345,0.9714229,-0.3297577,-0.1034546,0.9383698,-33.7748,-3.149902,-23.51074,3.682816,0.6158158,0.6577048,0.8762195,-0.2474213,-0.04516602,0.9678497,28.70947,-0.295578,-23.60205,3.82933,0.6714967,0.5545421,0.155986,1.170844,0.01302928,0.06087308,0.441,0.04232233,0.3074824,-43.72952,32.71
4,-0.2827301,-0.06999207,0.9566345,0.9714229,-0.3297577,-0.1034546,0.9383698,-33.7748,-3.149902,-23.51074,3.682816,0.6158158,0.6577048,0.8762195,-0.2474213,-0.04516602,0.9678497,28.70947,-0.295578,-23.60205,3.82933,0.6714967,0.5545421,0.155986,1.170844,0.01302928,0.06087308,0.441,0.04232233,0.3074824,-43.72952,32.71
4,-0.2805786,-0.0763092,0.9567871,0.964387,-0.3192139,-0.1004333,0.942337,-33.78191,-3.15033,-23.50844,3.666916,0.6142887,0.6569818,0.8651953,-0.2420654,-0.05247498,0.9688263,28.79936,-0.26651,-23.57143,3.786011,0.6675549,0.5544198,0.1572222,1.170401,0.01163167,0.06082324,0.4477423,0.04191458,0.3074824,-43.72952,32.71
4,-0.2805786,-0.0763092,0.9567871,0.964387,-0.3192139,-0.1004333,0.942337,-33.78191,-3.15033,-23.50844,3.666916,0.6142887,0.6569818,0.8651953,-0.2420654,-0.05247498,0.9688263,28.79936,-0.26651,-23.57143,3.786011,0.6675549,0.5544198,0.1572222,1.170401,0.01163167,0.06082324,0.4477423,0.04191458,0.3074824,-43.72952,32.71
4,-0.2801819,-0.07725525,0.9568176,0.964387,-0.3158264,-0.09532166,0.9440002,-33.77881,-3.158981,-23.50732,3.679184,0.6136202,0.6563312,0.8651953,-0.2391815,-0.05659485,0.9693146,28.85049,-0.2536316,-23.55841,3.760864,0.6653501,0.5545151,0.1585959,1.170122,0.0102638,0.06057616,0.4543339,0.04153334,0.3074824,-43.72952,32.71
4,-0.2801819,-0.07725525,0.9568176,0.964387,-0.3158264,-0.09532166,0.9440002,-33.77881,-3.158981,-23.50732,3.679184,0.6136202,0.6563312,0.8651953,-0.2391815,-0.05659485,0.9693146,28.85049,-0.2536316,-23.55841,3.760864,0.6653501,0.5545151,0.1585959,1.170122,0.0102638,0.06057616,0.4543339,0.04153334,0.3074824,-43.72952,32.71
4,-0.2801819,-0.07725525,0.9568176,0.964387,-0.3158264,-0.09532166,0.9440002,-33.77881,-3.158981,-23.50732,3.679184,0.6136202,0.6563312,0.8651953,-0.2391815,-0.05659485,0.9693146,28.85049,-0.2536316,-23.55841,3.760864,0.6653501,0.5545151,0.1598669,1.170046,0.008902371,0.06048261,0.4603771,0.04191405,0.3074824,-43.72952,32.71
4,-0.2801819,-0.07725525,0.9568176,0.964387,-0.3158264,-0.09532166,0.9440002,-33.77881,-3.158981,-23.50732,3.679184,0.6136202,0.6563312,0.8651953,-0.2391815,-0.05659485,0.9693146,28.85049,-0.2536316,-23.55841,3.760864,0.6653501,0.5545151,0.1598669,1.170046,0.008902371,0.06048261,0.4603771,0.04191405,0.3074824,-43.72952,32.71
4,-0.2700043,-0.07415771,0.9599915,0.964387,-0.3038788,-0.0942688,0.9480286,-33.77571,-3.167633,-23.5062,3.664352,0.6115253,0.6562053,0.8651953,-0.2293701,-0.05023193,0.9720306,28.88083,-0.2429657,-23.54576,3.803116,0.6626576,0.5528782,0.1609377,1.169984,0.007549047,0.05979415,0.4661341,0.04236684,0.3074824,-56.90265,32.71
4,-0.2700043,-0.07415771,0.9599915,0.964387,-0.3038788,-0.0942688,0.9480286,-33.77571,-3.167633,-23.5062,3.664352,0.6115253,0.6562053,0.8651953,-0.2293701,-0.05023193,0.9720306,28.88083,-0.2429657,-23.54576,3.803116,0.6626576,0.5528782,0.1609377,1.169984,0.007549047,0.05979415,0.4661341,0.04236684,0.3074824,-56.90265,32.71
4,-0.2700043,-0.07415771,0.9599915,0.964387,-0.3038788,-0.0942688,0.9480286,-33.77571,-3.167633,-23.5062,3.664352,0.6115253,0.6562053,0.8651953,-0.2293701,-0.05023193,0.9720306,28.88083,-0.2429657,-23.54576,3.803116,0.6626576,0.5528782,0.1609377,1.169984,0.007549047,0.05979415,0.4661341,0.04236684,0.3074824,-56.90265,32.71
4,-0.2101135,-0.05180359,0.9762878,1.0,-0.2398376,-0.06666565,0.9685059,-33.49301,-3.159348,-23.36861,3.509781,0.5915996,0.6487749,1.0,-0.1875458,-0.0405426,0.9814148,29.0869,-0.2613525,-23.44658,3.420288,0.6487877,0.5502059,0.1618099,1.169925,0.006283283,0.05937701,0.4714353,0.04283138,0.3074824,-56.90265,32.71
4,-0.2101135,-0.05180359,0.9762878,1.0,-0.2398376,-0.06666565,0.9685059,-33.49301,-3.159348,-23.36861,3.509781,0.5915996,0.6487749,1.0,-0.1875458,-0.0405426,0.9814148,29.0869,-0.2613525,-23.44658,3.420288,0.6487877,0.5502059,0.1618099,1.169925,0.006283283,0.05937701,0.4714353,0.04283138,0.3074824,-56.90265,32.71
4,-0.24086,-0.01977539,0.9703522,1.0,-0.2897034,-0.03274536,0.956543,-33.99068,-3.064499,-23.50183,3.526611,0.6163932,0.6421034,1.0,-0.2307739,-0.0171051,0.9728546,28.58896,-0.1023254,-23.56647,3.556503,0.6727944,0.5427547,0.1672426,1.173431,0.007411957,0.05957232,0.4761116,0.04397311,0.3074824,-56.90265,32.71
4,-0.350708,0.01544189,0.9363403,0.8893017,-0.4203339,-0.04666138,0.9061584,-34.30783,-2.863113,-23.67616,3.236115,0.6494435,0.6419623,0.8757685,-0.3267822,0.03610229,0.944397,27.87387,0.04782104,-23.79771,3.695282,0.7137352,0.5324516,0.1687227,1.174075,0.006565928,0.05875895,0.4812112,0.04502542,0.3074824,-56.90265,32.71
4,-0.350708,0.01544189,0.9363403,0.8893017,-0.4203339,-0.04666138,0.9061584,-34.30783,-2.863113,-23.67616,3.236115,0.6494435,0.6419623,0.8757685,-0.3267822,0.03610229,0.944397,27.87387,0.04782104,-23.79771,3.695282,0.7137352,0.5324516,0.1687227,1.174075,0.006565928,0.05875895,0.4812112,0.04502542,0.3074824,-56.90265,32.71
4,-0.350708,0.01544189,0.9363403,0.8893017,-0.4203339,-0.04666138,0.9061584,-34.30783,-2.863113,-23.67616,3.236115,0.6494435,0.6419623,0.8757685,-0.3267822,0.03610229,0.944397,27.87387,0.04782104,-23.79771,3.695282,0.7137352,0.5324516,0.1687227,1.174075,0.006565928,0.05875895,0.4812112,0.04502542,0.3074824,-56.90265,32.71
4,-0.3932037,-0.01461792,0.9193268,0.8952698,-0.4267273,-0.03797913,0.9035797,-34.33881,-2.819916,-23.6868,3.452515,0.6514291,0.6394556,0.9015007,-0.3401337,0.0213623,0.9401245,27.84027,0.07499695,-23.80418,3.617661,0.7172153,0.5342505,0.1696342,1.174345,0.00538677,0.05754848,0.4859595,0.04627882,0.3074824,-56.90265,32.71
4,-0.3877411,-0.02224731,0.9214935,0.9125003,-0.423584,-0.03794861,0.9050446,-34.31969,-2.822113,-23.67796,3.507645,0.6501933,0.6393947,0.9398052,-0.3314362,0.001876831,0.9434662,27.91129,0.01966858,-23.77327,3.51561,0.7132347,0.5388713,0.1705149,1.174884,0.004433155,0.05620128,0.490408,0.04720871,0.3074824,-56.90265,32.71
4,-0.3877411,-0.02224731,0.9214935,0.9125003,-0.423584,-0.03794861,0.9050446,-34.31969,-2.822113,-23.67796,3.507645,0.6501933,0.6393947,0.9398052,-0.3314362,0.001876831,0.9434662,27.91129,0.01966858,-23.77327,3.51561,0.7132347,0.5388713,0.1705149,1.174884,0.004433155,0.05620128,0.490408,0.04720871,0.3074824,-56.90265,32.71
4,-0.3877411,-0.02224731,0.9214935,0.9125003,-0.423584,-0.03794861,0.9050446,-34.31969,-2.822113,-23.67796,3.507645,0.6501933,0.6393947,0.9398052,-0.3314362,0.001876831,0.9434662,27.91129,0.01966858,-23.77327,3.51561,0.7132347,0.5388713,0.1705149,1.174884,0.004433155,0.05620128,0.490408,0.04720871,0.3074824,-56.90265,32.71
4,-0.3573151,-0.01011658,0.9339142,0.9668016,-0.4097595,-0.05143738,0.9107361,-34.26161,-2.834763,-23.65218,3.40361,0.6458995,0.6414722,0.9773428,-0.3170776,0.02072144,0.9481659,27.99649,-0.0317688,-23.76357,3.500534,0.7079164,0.537047,0.1708866,1.175061,0.003455043,0.05506684,0.4942734,0.04765967,0.3074824,-56.90265,32.71
4,-0.3573151,-0.01011658,0.9339142,0.9668016,-0.4097595,-0.05143738,0.9107361,-34.26161,-2.834763,-23.65218,3.40361,0.6458995,0.6414722,0.9773428,-0.3170776,0.02072144,0.9481659,27.99649,-0.0317688,-23.76357,3.500534,0.7079164,0.537047,0.1708866,1.175061,0.003455043,0.05506684,0.4942734,0.04765967,0.3074824,-56.90265,32.71
4,-0.3532867,-0.01580811,0.9353638,0.9868084,-0.4073944,-0.04940796,0.911911,-34.25258,-2.848709,-23.65074,3.356369,0.6452389,0.6414722,0.986869,-0.3123322,0.009033203,0.9499207,28.03648,-0.04399109,-23.74344,3.471237,0.7056835,0.5391382,0.1712688,1.175346,0.0025267,0.05390368,0.4974103,0.0483198,0.3074824,-56.90265,32.71
4,-0.3509521,-0.01060486,0.9363251,0.9868084,-0.4009705,-0.04701233,0.9148712,-34.25008,-2.855286,-23.64891,3.340988,0.6440657,0.6411067,0.986869,-0.3121033,0.01695251,0.9498901,28.06204,-0.04368591,-23.74396,3.553162,0.7047697,0.5378428,0.1716787,1.175689,0.001860619,0.05261344,0.5000458,0.04931867,0.3074824,-62.77368,32.71
4,-0.3509521,-0.01060486,0.9363251,0.9868084,-0.4009705,-0.04701233,0.9148712,-34.25008,-2.855286,-23.64891,3.340988,0.6440657,0.6411067,0.986869,-0.3121033,0.01695251,0.9498901,28.06204,-0.04368591,-23.74396,3.553162,0.7047697,0.5378428,0.1716787,1.175689,0.001860619,0.05261344,0.5000458,0.04931867,0.3074824,-62.77368,32.71
4,-0.3509521,-0.01060486,0.9363251,0.9868084,-0.4009705,-0.04701233,0.9148712,-34.25008,-2.855286,-23.64891,3.340988,0.6440657,0.6411067,0.986869,-0.3121033,0.01695251,0.9498901,28.06204,-0.04368591,-23.74396,3.553162,0.7047697,0.5378428,0.1716787,1.175689,0.001860619,0.05261344,0.5000458,0.04931867,0.3074824,-62.77368,32.71
4,-0.3509521,-0.01060486,0.9363251,0.9868084,-0.4009705,-0.04701233,0.9148712,-34.25008,-2.855286,-23.64891,3.340988,0.6440657,0.6411067,0.986869,-0.3121033,0.01695251,0.9498901,28.06204,-0.04368591,-23.74396,3.553162,0.7047697,0.5378428,0.1717713,1.175982,0.001074135,0.05140704,0.502533,0.05047493,0.3074824,-62.77368,32.71
4,-0.3509521,-0.01060486,0.9363251,0.9868084,-0.4009705,-0.04701233,0.9148712,-34.25008,-2.855286,-23.64891,3.340988,0.6440657,0.6411067,0.986869,-0.3121033,0.01695251,0.9498901,28.06204,-0.04368591,-23.74396,3.553162,0.7047697,0.5378428,0.17196,1.176255,0.0004950762,0.05039043,0.504886,0.05131565,0.3074824,-62.77368,32.71
4,-0.3509521,-0.01060486,0.9363251,0.9868084,-0.4009705,-0.04701233,0.9148712,-34.25008,-2.855286,-23.64891,3.340988,0.6440657,0.6411067,0.986869,-0.3121033,0.01695251,0.9498901,28.06204,-0.04368591,-23.74396,3.553162,0.7047697,0.5378428,0.17196,1.176255,0.0004950762,0.05039043,0.504886,0.05131565,0.3074824,-62.77368,32.71
4,-0.3365936,-0.0151062,0.9415283,1.0,-0.3929901,-0.04521179,0.9184113,-34.23315,-2.859695,-23.64195,3.338638,0.642131,0.6406986,1.0,-0.2868805,0.01078796,0.9578857,28.18681,-0.0761261,-23.69521,3.453598,0.6961615,0.5390524,0.1721339,1.176584,-7.075071e-05,0.049541,0.5069421,0.0516855,0.3074824,-62.77368,32.71
4,-0.3365936,-0.0151062,0.9415283,1.0,-0.3929901,-0.04521179,0.9184113,-34.23315,-2.859695,-23.64195,3.338638,0.642131,0.6406986,1.0,-0.2868805,0.01078796,0.9578857,28.18681,-0.0761261,-23.69521,3.453598,0.6961615,0.5390524,0.1721339,1.176584,-7.075071e-05,0.049541,0.5069421,0.0516855,0.3074824,-62.77368,32.71
4,-0.3289337,-0.02101135,0.9441071,1.0,-0.3869019,-0.04771423,0.9208679,-34.20457,-2.861664,-23.62904,3.350296,0.6401087,0.6409307,1.0,-0.2869873,-0.002059937,0.9579163,28.18681,-0.08584595,-23.69711,3.42424,0.6961615,0.5415516,0.1720915,1.176732,-0.0005518794,0.04846453,0.5086871,0.0523219,0.3074824,-62.77368,32.71
4,-0.3289337,-0.02101135,0.9441071,1.0,-0.3869019,-0.04771423,0.9208679,-34.20457,-2.861664,-23.62904,3.350296,0.6401087,0.6409307,1.0,-0.2869873,-0.002059937,0.9579163,28.18681,-0.08584595,-23.69711,3.42424,0.6961615,0.5415516,0.1720915,1.176732,-0.0005518794,0.04846453,0.5086871,0.0523219,0.3074824,-62.77368,32.71
4,-0.3289337,-0.02101135,0.9441071,1.0,-0.3869019,-0.04771423,0.9208679,-34.20457,-2.861664,-23.62904,3.350296,0.6401087,0.6409307,1.0,-0.2869873,-0.002059937,0.9579163,28.18681,-0.08584595,-23.69711,3.42424,0.6961615,0.5415516,0.1720915,1.176732,-0.0005518794,0.04846453,0.5086871,0.0523219,0.3074824,-62.77368,32.71
4,-0.3234711,-0.02368164,0.9459381,1.0,-0.371994,-0.05166626,0.9267883,-34.19394,-2.864029,-23.62415,3.317413,0.6372111,0.641309,1.0,-0.2859802,-0.002441406,0.9582214,28.20389,-0.08973694,-23.69502,3.42215,0.6954146,0.5417017,0.171928,1.176807,-0.001041293,0.04734786,0.5099403,0.05309427,0.3074824,-62.77368,32.71
4,-0.3206329,-0.02340698,0.9468994,1.0,-0.3663635,-0.0533905,0.9289246,-34.18076,-2.864807,-23.61884,3.308655,0.6358078,0.641454,1.0,-0.2882538,-0.0025177,0.95755,28.22737,-0.09234619,-23.6927,3.404221,0.6950255,0.5417935,0.17193,1.177003,-0.001446009,0.04656411,0.5110222,0.05377159,0.3074824,-62.77368,32.71
4,-0.3206329,-0.02340698,0.9468994,1.0,-0.3663635,-0.0533905,0.9289246,-34.18076,-2.864807,-23.61884,3.308655,0.6358078,0.641454,1.0,-0.2882538,-0.0025177,0.95755,28.22737,-0.09234619,-23.6927,3.404221,0.6950255,0.5417935,0.17193,1.177003,-0.001446009,0.04656411,0.5110222,0.05377159,0.3074824,-62.77368,32.71
4,-0.3209686,-0.02380371,0.9467773,1.0,-0.3636932,-0.05606079,0.9298248,-34.14986,-2.87117,-23.60605,3.308075,0.6343153,0.6419277,1.0,-0.2907867,-0.001419067,0.9567719,28.25665,-0.09922791,-23.69057,3.413712,0.6944786,0.5418563,0.1718609,1.17711,-0.001583219,0.0459656,0.5113863,0.05422314,0.3074824,-68.8692,32.71
4,-0.3209686,-0.02380371,0.9467773,1.0,-0.3636932,-0.05606079,0.9298248,-34.14986,-2.87117,-23.60605,3.308075,0.6343153,0.6419277,1.0,-0.2907867,-0.001419067,0.9567719,28.25665,-0.09922791,-23.69057,3.413712,0.6944786,0.5418563,0.1718609,1.17711,-0.001583219,0.0459656,0.5113863,0.05422314,0.3074824,-69.46152,32.71
4,-0.3192596,-0.02371216,0.9473572,1.0,-0.3630371,-0.05735779,0.9299927,-34.11693,-2.879593,-23.59285,3.307907,0.6331038,0.642267,1.0,-0.2895966,-0.001327515,0.9571381,28.26111,-0.1004333,-23.69052,3.413666,0.6941255,0.5418563,0.1716352,1.177339,-0.001834989,0.04465188,0.5119655,0.05531267,0.3074824,-65.24271,32.71
4,-0.3192596,-0.02371216,0.9473572,1.0,-0.3630371,-0.05735779,0.9299927,-34.11693,-2.879593,-23.59285,3.307907,0.6331038,0.642267,1.0,-0.2895966,-0.001327515,0.9571381,28.26111,-0.1004333,-23.69052,3.413666,0.6941255,0.5418563,0.1716352,1.177339,-0.001834989,0.04465188,0.5119655,0.05531267,0.3074824,-65.24271,32.71
4,-0.3166809,-0.02442932,0.9482117,1.0,-0.3662872,-0.05740356,0.9287109,-34.095,-2.884796,-23.58415,3.267685,0.632961,0.6423936,1.0,-0.2841034,-0.003158569,0.958786,28.26529,-0.1034546,-23.6889,3.375595,0.6930485,0.5421546,0.1715119,1.177475,-0.001880527,0.04376965,0.5121716,0.05596415,0.3074824,-65.24271,32.71
4,-0.3205109,-0.03007507,0.9467621,1.0,-0.3639526,-0.05732727,0.9296417,-34.095,-2.892746,-23.58415,3.266602,0.6325625,0.6425967,1.0,-0.2809448,-0.00567627,0.9597015,28.2701,-0.1095123,-23.68784,3.374329,0.6923365,0.5427229,0.1713538,1.177871,-0.001958966,0.04223051,0.5123663,0.05705152,0.3074824,-65.24271,32.71
4,-0.3205109,-0.03007507,0.9467621,1.0,-0.3639526,-0.05732727,0.9296417,-34.095,-2.892746,-23.58415,3.266602,0.6325625,0.6425967,1.0,-0.2809448,-0.00567627,0.9597015,28.2701,-0.1095123,-23.68784,3.374329,0.6923365,0.5427229,0.1713538,1.177871,-0.001958966,0.04223051,0.5123663,0.05705152,0.3074824,-65.24271,32.71
4,-0.3166656,-0.03271484,0.9479675,1.0,-0.3626709,-0.05870056,0.9300537,-34.095,-2.897278,-23.58415,3.25621,0.632349,0.6429537,1.0,-0.2679596,-0.005706787,0.9633942,28.28069,-0.1608124,-23.66428,3.168991,0.6898022,0.5438787,0.1712458,1.178046,-0.001970172,0.04140119,0.5124526,0.05769698,0.3074824,-65.24271,32.71
4,-0.3166656,-0.03271484,0.9479675,1.0,-0.3626709,-0.05870056,0.9300537,-34.095,-2.897278,-23.58415,3.25621,0.632349,0.6429537,1.0,-0.2679596,-0.005706787,0.9633942,28.28069,-0.1608124,-23.66428,3.168991,0.6898022,0.5438787,0.1712458,1.178046,-0.001970172,0.04140119,0.5124526,0.05769698,0.3074824,-65.24271,32.71
4,-0.3214569,-0.03718567,0.9461823,1.0,-0.361557,-0.05880737,0.930481,-34.095,-2.905014,-23.58415,3.255692,0.6321605,0.6432018,1.0,-0.2764282,-0.01324463,0.9609375,28.27556,-0.1702118,-23.66861,3.270828,0.6913717,0.5457005,0.1709784,1.17838,-0.002054691,0.03997052,0.5126963,0.05912187,0.3074824,-65.24271,32.71
4,-0.3040771,-0.0219574,0.9523926,1.0,-0.3311768,-0.03132629,0.9430389,-34.25137,-3.06752,-23.60603,3.259613,0.6322091,0.6435261,1.0,-0.2761688,-0.01237488,0.9610138,28.27448,-0.1785278,-23.6714,3.27092,0.6913717,0.5458461,0.1705778,1.178547,-0.002241015,0.03857074,0.5128075,0.06014314,0.3074824,-65.24271,32.71
4,-0.3040771,-0.0219574,0.9523926,1.0,-0.3311768,-0.03132629,0.9430389,-34.25137,-3.06752,-23.60603,3.259613,0.6322091,0.6435261,1.0,-0.2761688,-0.01237488,0.9610138,28.27448,-0.1785278,-23.6714,3.27092,0.6913717,0.5458461,0.1705778,1.178547,-0.002241015,0.03857074,0.5128075,0.06014314,0.3074824,-65.24271,32.71
4,-0.3069,-0.03042603,0.9512482,1.0,-0.3375397,-0.04942322,0.9400024,-34.25789,-3.11293,-23.60753,3.3965,0.6333808,0.6483165,1.0,-0.2767792,-0.01196289,0.9608459,28.27402,-0.1809082,-23.67213,3.258377,0.6915008,0.5458608,0.1704503,1.178663,-0.002239347,0.03795425,0.5128521,0.06059731,0.3074824,-65.24271,32.71
4,-0.3040466,-0.03062439,0.9521484,1.0,-0.3323364,-0.04820251,0.941925,-34.25749,-3.141098,-23.61018,3.228622,0.632607,0.6488494,1.0,-0.2778473,-0.01451111,0.9605103,28.27347,-0.190979,-23.67421,3.270447,0.6916932,0.5466646,0.1699842,1.178702,-0.002438366,0.03721353,0.5127273,0.06123971,0.3074824,-65.24271,32.71
4,-0.3040466,-0.03062439,0.9521484,1.0,-0.3323364,-0.04820251,0.941925,-34.25749,-3.141098,-23.61018,3.228622,0.632607,0.6488494,1.0,-0.2778473,-0.01451111,0.9605103,28.27347,-0.190979,-23.67421,3.270447,0.6916932,0.5466646,0.1699842,1.178702,-0.002438366,0.03721353,0.5127273,0.06123971,0.3074824,-65.24271,32.71
4,-0.3048096,-0.03227234,0.9518585,1.0,-0.3324127,-0.04882813,0.941864,-34.27016,-3.158524,-23.6142,3.317352,0.6329805,0.6496245,1.0,-0.2784119,-0.01661682,0.9603119,28.27243,-0.1961365,-23.67641,3.286163,0.6918177,0.5472338,0.1696914,1.17871,-0.002568603,0.03687736,0.5126436,0.06137309,0.3074824,-65.24271,32.71
4,-0.3079681,-0.03878784,0.950592,1.0,-0.3326416,-0.05622864,0.9413605,-34.27602,-3.16835,-23.61371,3.27034,0.63323,0.6511859,1.0,-0.2815704,-0.02032471,0.9593201,28.26993,-0.2023926,-23.67812,3.272568,0.6924461,0.5481232,0.1692883,1.178768,-0.002499521,0.03648249,0.512286,0.06162774,0.3074824,-65.24271,32.71
4,-0.3079681,-0.03878784,0.950592,1.0,-0.3326416,-0.05622864,0.9413605,-34.27602,-3.16835,-23.61371,3.27034,0.63323,0.6511859,1.0,-0.2815704,-0.02032471,0.9593201,28.26993,-0.2023926,-23.67812,3.272568,0.6924461,0.5481232,0.1692883,1.178768,-0.002499521,0.03648249,0.512286,0.06162774,0.3074824,-65.24271,32.71
4,-0.3088379,-0.03921509,0.9502869,1.0,-0.3324432,-0.0531311,0.9416046,-34.2793,-3.174118,-23.61708,3.320251,0.6332821,0.6509084,1.0,-0.284317,-0.02488708,0.9583893,28.26476,-0.2130585,-23.68027,3.26561,0.693092,0.5493027,0.1692065,1.178744,-0.002433598,0.0362371,0.5118898,0.06177958,0.3074824,-77.62933,32.71
4,-0.3092194,-0.04295349,0.9500122,1.0,-0.3326569,-0.05473328,0.941452,-34.2793,-3.177979,-23.61786,3.319397,0.6333163,0.6513171,1.0,-0.2853394,-0.03102112,0.9579163,28.26024,-0.2422485,-23.68645,3.25499,0.6934201,0.5513766,0.1689842,1.178676,-0.002396941,0.03623083,0.5114261,0.06179676,0.3074824,-77.62933,32.71
4,-0.3092194,-0.04295349,0.9500122,1.0,-0.3326569,-0.05473328,0.941452,-34.2793,-3.177979,-23.61786,3.319397,0.6333163,0.6513171,1.0,-0.2853394,-0.03102112,0.9579163,28.26024,-0.2422485,-23.68645,3.25499,0.6934201,0.5513766,0.1689842,1.178676,-0.002396941,0.03623083,0.5114261,0.06179676,0.3074824,-77.62933,32.71
4,-0.3095856,-0.04295349,0.9498901,1.0,-0.3325348,-0.05543518,0.941452,-34.27817,-3.178528,-23.61795,3.317429,0.6332579,0.6514517,1.0,-0.2861481,-0.0302887,0.9576874,28.26024,-0.2513885,-23.68976,3.255096,0.69357,0.5515946,0.1687217,1.178557,-0.002256751,0.03634909,0.5102435,0.06131333,0.3074824,-77.62933,32.71
4,-0.311203,-0.04470825,0.9492798,1.0,-0.3332367,-0.05706787,0.9411011,-34.2793,-3.178329,-23.61786,3.297806,0.6334267,0.6517238,1.0,-0.288208,-0.03190613,0.9570313,28.2587,-0.2531738,-23.69144,3.250626,0.6939784,0.5519769,0.1685226,1.178323,-0.002005458,0.03660441,0.509232,0.06090881,0.3074824,-77.62933,32.71
4,-0.311203,-0.04470825,0.9492798,1.0,-0.3332367,-0.05706787,0.9411011,-34.2793,-3.178329,-23.61786,3.297806,0.6334267,0.6517238,1.0,-0.288208,-0.03190613,0.9570313,28.2587,-0.2531738,-23.69144,3.250626,0.6939784,0.5519769,0.1685226,1.178323,-0.002005458,0.03660441,0.509232,0.06090881,0.3074824,-77.62933,32.71
4,-0.3124084,-0.04116821,0.9490509,1.0,-0.3340912,-0.05715942,0.9407959,-34.28046,-3.177856,-23.6176,3.276932,0.6336237,0.6517238,1.0,-0.2892609,-0.02424622,0.9569244,28.18478,-0.247757,-23.70691,3.16713,0.6967204,0.5506058,0.1683345,1.178179,-0.001790404,0.0367246,0.5083204,0.06075356,0.3074824,-77.62933,32.71
4,-0.3124084,-0.04116821,0.9490509,1.0,-0.3340912,-0.05715942,0.9407959,-34.28046,-3.177856,-23.6176,3.276932,0.6336237,0.6517238,1.0,-0.2892609,-0.02424622,0.9569244,28.18478,-0.247757,-23.70691,3.16713,0.6967204,0.5506058,0.1683345,1.178179,-0.001790404,0.0367246,0.5083204,0.06075356,0.3074824,-77.62933,32.71
4,-0.3138275,-0.04690552,0.9483185,1.0,-0.3341064,-0.05671692,0.9408112,-34.28165,-3.177505,-23.61737,3.265488,0.6336747,0.6516301,1.0,-0.2918854,-0.03636169,0.9557495,28.18022,-0.247757,-23.7054,3.16449,0.6973016,0.5527107,0.1682566,1.178043,-0.001640558,0.03682783,0.5079068,0.06052657,0.3074824,-77.62933,32.71
4,-0.3109589,-0.05769348,0.9486542,1.0,-0.3327026,-0.07063293,0.9403687,-34.23962,-3.258408,-23.6235,3.068008,0.6321867,0.6565647,1.0,-0.2877197,-0.04397583,0.9566956,28.23495,-0.3677368,-23.70329,3.130219,0.6947501,0.5578598,0.1680337,1.177764,-0.001334667,0.03735671,0.5071018,0.06024711,0.3074824,-77.62933,32.71
4,-0.2862549,-0.09608459,0.9533081,1.0,-0.3039246,-0.1018829,0.9472198,-34.1097,-3.488403,-23.60487,3.146484,0.6229443,0.6688141,1.0,-0.2724915,-0.09156799,0.9577789,28.33128,-0.4949951,-23.67456,3.149292,0.6887689,0.5697668,0.1679784,1.17759,-0.001189232,0.03788391,0.5068187,0.05997939,0.3074824,-77.62933,32.73
4,-0.2862549,-0.09608459,0.9533081,1.0,-0.3039246,-0.1018829,0.9472198,-34.1097,-3.488403,-23.60487,3.146484,0.6229443,0.6688141,1.0,-0.2724915,-0.09156799,0.9577789,28.33128,-0.4949951,-23.67456,3.149292,0.6887689,0.5697668,0.1679784,1.17759,-0.001189232,0.03788391,0.5068187,0.05997939,0.3074824,-77.62933,32.73
4,-0.2821503,-0.0933075,0.9548187,1.0,-0.3034821,-0.1076202,0.9467316,-34.11934,-3.509583,-23.61002,3.118973,0.6232081,0.6705459,1.0,-0.2667847,-0.08303833,0.9601593,28.32664,-0.4975586,-23.67436,3.189484,0.6879329,0.568321,0.1678733,1.177169,-0.001046777,0.03907623,0.5063354,0.05919265,0.3074824,-77.62933,32.73
4,-0.2821503,-0.0933075,0.9548187,1.0,-0.3034821,-0.1076202,0.9467316,-34.11934,-3.509583,-23.61002,3.118973,0.6232081,0.6705459,1.0,-0.2667847,-0.08303833,0.9601593,28.32664,-0.4975586,-23.67436,3.189484,0.6879329,0.568321,0.1678441,1.177026,-0.0009756088,0.03954607,0.5063317,0.05907308,0.3074824,-77.62933,32.73
4,-0.2821503,-0.0933075,0.9548187,1.0,-0.3034821,-0.1076202,0.9467316,-34.11934,-3.509583,-23.61002,3.118973,0.6232081,0.6705459,1.0,-0.2667847,-0.08303833,0.9601593,28.32664,-0.4975586,-23.67436,3.189484,0.6879329,0.568321,0.1678441,1.177026,-0.0009756088,0.03954607,0.5063317,0.05907308,0.3074824,-77.62933,32.73
4,-0.2821503,-0.0933075,0.9548187,1.0,-0.3034821,-0.1076202,0.9467316,-34.11934,-3.509583,-23.61002,3.118973,0.6232081,0.6705459,1.0,-0.2667847,-0.08303833,0.9601593,28.32664,-0.4975586,-23.67436,3.189484,0.6879329,0.568321,0.1678318,1.176669,-0.0008924007,0.04027275,0.5064065,0.05876979,0.3074824,-77.62933,32.73
4,-0.2821503,-0.0933075,0.9548187,1.0,-0.3034821,-0.1076202,0.9467316,-34.11934,-3.509583,-23.61002,3.118973,0.6232081,0.6705459,1.0,-0.2667847,-0.08303833,0.9601593,28.32664,-0.4975586,-23.67436,3.189484,0.6879329,0.568321,0.1679665,1.176613,-0.0007662177,0.04068524,0.506498,0.05870269,0.3074824,-16.19781,32.73
4,-0.2821503,-0.0933075,0.9548187,1.0,-0.3034821,-0.1076202,0.9467316,-34.11934,-3.509583,-23.61002,3.118973,0.6232081,0.6705459,1.0,-0.2667847,-0.08303833,0.9601593,28.32664,-0.4975586,-23.67436,3.189484,0.6879329,0.568321,0.1679665,1.176613,-0.0007662177,0.04068524,0.506498,0.05870269,0.3074824,-16.19781,32.73
4,-0.2875671,-0.09030151,0.953476,1.0,-0.3119507,-0.08642578,0.9461517,-34.22894,-3.486313,-23.6451,3.12468,0.6283038,0.666642,1.0,-0.2695313,-0.09310913,0.9584656,28.30859,-0.4526062,-23.664,3.034149,0.689057,0.5684405,0.1679703,1.17641,-0.0006693006,0.04109421,0.5065436,0.05856132,0.3074824,-16.19781,32.73
4,-0.2873077,-0.09098816,0.9534912,1.0,-0.3108368,-0.09481812,0.9457092,-34.24193,-3.48732,-23.63982,3.08403,0.6285492,0.6680292,1.0,-0.2688293,-0.08796692,0.9591522,28.30173,-0.456543,-23.66658,2.985657,0.6891978,0.567671,0.168002,1.176123,-0.0005990267,0.04203368,0.5067016,0.05824379,0.3074824,-16.19781,32.73
4,-0.2873077,-0.09098816,0.9534912,1.0,-0.3108368,-0.09481812,0.9457092,-34.24193,-3.48732,-23.63982,3.08403,0.6285492,0.6680292,1.0,-0.2688293,-0.08796692,0.9591522,28.30173,-0.456543,-23.66658,2.985657,0.6891978,0.567671,0.168002,1.176123,-0.0005990267,0.04203368,0.5067016,0.05824379,0.3074824,-16.19781,32.73
4,-0.2878876,-0.08807373,0.953598,1.0,-0.3110809,-0.08988953,0.9461212,-34.25102,-3.485626,-23.64259,3.087219,0.6288975,0.667166,1.0,-0.2704163,-0.08668518,0.9588165,28.30078,-0.4512634,-23.66667,2.983505,0.6895053,0.567302,0.1680918,1.175873,-0.0005528331,0.04275826,0.5066287,0.05799728,0.3074824,-16.19781,32.73
4,-0.2881317,-0.0881958,0.9535065,1.0,-0.310791,-0.0921936,0.9459839,-34.25273,-3.474533,-23.63992,3.086761,0.6288975,0.667166,1.0,-0.2700195,-0.0849762,0.9590912,28.2997,-0.4455566,-23.66649,2.928406,0.6895053,0.5667803,0.1681151,1.175819,-0.0005041361,0.04311468,0.5065489,0.05790317,0.3074824,-16.19781,32.73
4,-0.2881317,-0.0881958,0.9535065,1.0,-0.310791,-0.0921936,0.9459839,-34.25273,-3.474533,-23.63992,3.086761,0.6288975,0.667166,1.0,-0.2700195,-0.0849762,0.9590912,28.2997,-0.4455566,-23.66649,2.928406,0.6895053,0.5667803,0.1681151,1.175819,-0.0005041361,0.04311468,0.5065489,0.05790317,0.3074824,-16.19781,32.73
4,-0.2907257,-0.09500122,0.9520721,1.0,-0.3144531,-0.1094818,0.9429321,-34.24727,-3.419739,-23.62886,2.946045,0.6293886,0.668246,1.0,-0.269989,-0.0823822,0.9593201,28.29955,-0.441391,-23.66557,2.929337,0.6895053,0.5661871,0.1681533,1.17581,-0.0005212426,0.04328378,0.5063296,0.05782172,0.3074824,-16.19781,32.73
4,-0.2900696,-0.09561157,0.9522095,1.0,-0.3125916,-0.1113129,0.9433289,-34.24466,-3.414108,-23.62572,2.983063,0.6289548,0.6683282,1.0,-0.2704773,-0.08203125,0.9592133,28.29962,-0.4384613,-23.66475,2.930801,0.6895844,0.5660217,0.1682633,1.175794,-0.0003405809,0.04349765,0.5055625,0.05797466,0.3074824,-16.19781,32.73
4,-0.2900696,-0.09561157,0.9522095,1.0,-0.3125916,-0.1113129,0.9433289,-34.24466,-3.414108,-23.62572,2.983063,0.6289548,0.6683282,1.0,-0.2704773,-0.08203125,0.9592133,28.29962,-0.4384613,-23.66475,2.930801,0.6895844,0.5660217,0.1682633,1.175794,-0.0003405809,0.04349765,0.5055625,0.05797466,0.3074824,-16.19781,32.73
4,-0.296524,-0.09089661,0.9506836,1.0,-0.3230591,-0.1005402,0.9410095,-34.24911,-3.389282,-23.63538,3.06134,0.6308491,0.6659746,1.0,-0.2709503,-0.08161926,0.9591217,28.2997,-0.4355316,-23.66393,2.929611,0.6896633,0.5658562,0.1682518,1.175839,-0.0001238585,0.04303866,0.504478,0.05852867,0.3074824,-16.19781,32.73
4,-0.296524,-0.09089661,0.9506836,1.0,-0.3230591,-0.1005402,0.9410095,-34.24911,-3.389282,-23.63538,3.06134,0.6308491,0.6659746,1.0,-0.2709503,-0.08161926,0.9591217,28.2997,-0.4355316,-23.66393,2.929611,0.6896633,0.5658562,0.1682518,1.175839,-0.0001238585,0.04303866,0.504478,0.05852867,0.3074824,-16.19781,32.73
4,-0.296524,-0.09089661,0.9506836,1.0,-0.3230591,-0.1005402,0.9410095,-34.24911,-3.389282,-23.63538,3.06134,0.6308491,0.6659746,1.0,-0.2709503,-0.08161926,0.9591217,28.2997,-0.4355316,-23.66393,2.929611,0.6896633,0.5658562,0.1682518,1.175839,-0.0001238585,0.04303866,0.504478,0.05852867,0.3074824,-16.19781,32.73
5,-0.296524,-0.09089661,0.9506836,1.0,-0.3230591,-0.1005402,0.9410095,-34.24911,-3.389282,-23.63538,3.06134,0.6308491,0.6659746,1.0,-0.2709503,-0.08161926,0.9591217,28.2997,-0.4355316,-23.66393,2.929611,0.6896633,0.5658562,0.1682125,1.175869,-2.545118e-05,0.04216164,0.5032044,0.05887296,0.3074824,67.96796,32.73
5,-0.296524,-0.09089661,0.9506836,1.0,-0.3230591,-0.1005402,0.9410095,-34.24911,-3.389282,-23.63538,3.06134,0.6308491,0.6659746,1.0,-0.2709503,-0.08161926,0.9591217,28.2997,-0.4355316,-23.66393,2.929611,0.6896633,0.5658562,0.1681463,1.176,-4.184246e-05,0.04108913,0.5021985,0.05868206,0.3074824,67.96796,32.73
5,-0.296524,-0.09089661,0.9506836,1.0,-0.3230591,-0.1005402,0.9410095,-34.24911,-3.389282,-23.63538,3.06134,0.6308491,0.6659746,1.0,-0.2709503,-0.08161926,0.9591217,28.2997,-0.4355316,-23.66393,2.929611,0.6896633,0.5658562,0.1681463,1.176,-4.184246e-05,0.04108913,0.5021985,0.05868206,0.3074824,67.96796,32.73
5,-0.2838287,-0.08827209,0.9547882,1.0,-0.3133545,-0.09118652,0.9452362,-34.34547,-3.458603,-23.66273,2.985397,0.6324675,0.666712,1.0,-0.2605591,-0.0859375,0.9616241,28.18298,-0.4138489,-23.67873,2.825928,0.6918367,0.5658655,0.1680869,1.176066,-0.0001813173,0.03994628,0.5013698,0.05804722,0.3074824,67.96796,32.73
