Second,eye_comb_direction_x,eye_comb_direction_y,eye_comb_direction_z,eye_r_openness,eye_r_direction_x,eye_r_direction_y,eye_r_direction_z,eye_r_origin_x,eye_r_origin_y,eye_r_origin_z,eye_r_pupil_diameter,eye_r_pupil_position_x,eye_r_pupil_position_y,eye_l_openness,eye_l_direction_x,eye_l_direction_y,eye_l_direction_z,eye_l_origin_x,eye_l_origin_y,eye_l_origin_z,eye_l_pupil_diameter,eye_l_pupil_position_x,eye_l_pupil_position_y,head_position_x,head_position_y,head_position_z,head_rotation_roll,head_rotation_pitch,head_rotation_yaw,EDA,BVP,TMP
0,0.0,0.0,0.0,0.0,0.0,0.0,0.0,0.0,0.0,0.0,0.0,0.0,0.0,0.0,0.0,0.0,0.0,0.0,0.0,0.0,0.0,0.0,0.0,0.0,0.0,0.0,0.0,0.0,0.0,0.3090746617227196,0.5131366185168158,31.307469150737962
0,-0.03741455,-0.1239319,0.9915771,1.0,0.01335144,-0.1387024,0.9902344,-32.0869,-2.003845,-30.15948,5.185226,0.5063593,0.6929333,1.0,-0.06987,-0.1143036,0.9909821,29.92934,2.017914,-30.4977,5.501205,0.6085742,0.5535478,0.05449247,1.182338,0.05312777,-0.0269217,0.003615013,0.01307179,0.3090746617227196,0.5131366185168158,31.307469150737962
1,-0.03311157,-0.1278839,0.9912262,1.0,0.0188446,-0.1478577,0.9888153,-32.08017,-1.988693,-30.09509,5.274323,0.5051996,0.6934008,1.0,-0.07972717,-0.1095886,0.9907684,29.93294,2.042175,-30.58737,5.658722,0.6102365,0.552888,0.05440271,1.183575,0.05177987,-0.03195096,0.002770216,0.01259929,0.3256858,0.5131366185168158,31.307469150737962
1,-0.03311157,-0.1278839,0.9912262,1.0,0.0188446,-0.1478577,0.9888153,-32.08017,-1.988693,-30.09509,5.274323,0.5051996,0.6934008,1.0,-0.07972717,-0.1095886,0.9907684,29.93294,2.042175,-30.58737,5.658722,0.6102365,0.552888,0.05440271,1.183575,0.05177987,-0.03195096,0.002770216,0.01259929,0.3256858,0.5131366185168158,31.307469150737962
1,-0.03311157,-0.1278839,0.9912262,1.0,0.0188446,-0.1478577,0.9888153,-32.08017,-1.988693,-30.09509,5.274323,0.5051996,0.6934008,1.0,-0.07972717,-0.1095886,0.9907684,29.93294,2.042175,-30.58737,5.658722,0.6102365,0.552888,0.05440271,1.183575,0.05177987,-0.03195096,0.002770216,0.01259929,0.3256858,0.5131366185168158,31.307469150737962
1,-0.03311157,-0.1278839,0.9912262,1.0,0.0188446,-0.1478577,0.9888153,-32.08017,-1.988693,-30.09509,5.274323,0.5051996,0.6934008,1.0,-0.07972717,-0.1095886,0.9907684,29.93294,2.042175,-30.58737,5.658722,0.6102365,0.552888,0.05440271,1.183575,0.05177987,-0.03195096,0.002770216,0.01259929,0.3256858,0.5131366185168158,31.307469150737962
1,-0.03311157,-0.1278839,0.9912262,1.0,0.0188446,-0.1478577,0.9888153,-32.08017,-1.988693,-30.09509,5.274323,0.5051996,0.6934008,1.0,-0.07972717,-0.1095886,0.9907684,29.93294,2.042175,-30.58737,5.658722,0.6102365,0.552888,0.05440271,1.183575,0.05177987,-0.03195096,0.002770216,0.01259929,0.3256858,0.5131366185168158,31.307469150737962
1,-0.03311157,-0.1278839,0.9912262,1.0,0.0188446,-0.1478577,0.9888153,-32.08017,-1.988693,-30.09509,5.274323,0.5051996,0.6934008,1.0,-0.07972717,-0.1095886,0.9907684,29.93294,2.042175,-30.58737,5.658722,0.6102365,0.552888,0.05440271,1.183575,0.05177987,-0.03195096,0.002770216,0.01259929,0.3256858,0.5131366185168158,31.307469150737962
1,-0.03311157,-0.1278839,0.9912262,1.0,0.0188446,-0.1478577,0.9888153,-32.08017,-1.988693,-30.09509,5.274323,0.5051996,0.6934008,1.0,-0.07972717,-0.1095886,0.9907684,29.93294,2.042175,-30.58737,5.658722,0.6102365,0.552888,0.05440271,1.183575,0.05177987,-0.03195096,0.002770216,0.01259929,0.3256858,0.5131366185168158,31.307469150737962
1,-0.03311157,-0.1278839,0.9912262,1.0,0.0188446,-0.1478577,0.9888153,-32.08017,-1.988693,-30.09509,5.274323,0.5051996,0.6934008,1.0,-0.07972717,-0.1095886,0.9907684,29.93294,2.042175,-30.58737,5.658722,0.6102365,0.552888,0.05440271,1.183575,0.05177987,-0.03195096,0.002770216,0.01259929,0.3256858,0.5131366185168158,31.307469150737962
1,-0.03311157,-0.1278839,0.9912262,1.0,0.0188446,-0.1478577,0.9888153,-32.08017,-1.988693,-30.09509,5.274323,0.5051996,0.6934008,1.0,-0.07972717,-0.1095886,0.9907684,29.93294,2.042175,-30.58737,5.658722,0.6102365,0.552888,0.05440271,1.183575,0.05177987,-0.03195096,0.002770216,0.01259929,0.3256858,0.5131366185168158,31.307469150737962
1,-0.02624512,-0.1319122,0.9909058,1.0,0.001220703,-0.1521149,0.9883575,-32.1893,-1.893661,-30.09322,5.308502,0.5119265,0.6908858,1.0,-0.05648804,-0.1094971,0.9923706,29.90042,2.119293,-30.66885,5.6297,0.607521,0.5508937,0.0536567,1.184039,0.05113173,-0.03317776,0.001125433,0.01362329,0.3256858,0.5131366185168158,31.307469150737962
1,-0.02624512,-0.1319122,0.9909058,1.0,0.001220703,-0.1521149,0.9883575,-32.1893,-1.893661,-30.09322,5.308502,0.5119265,0.6908858,1.0,-0.05648804,-0.1094971,0.9923706,29.90042,2.119293,-30.66885,5.6297,0.607521,0.5508937,0.0536567,1.184039,0.05113173,-0.03317776,0.001125433,0.01362329,0.3256858,0.5131366185168158,31.307469150737962
1,-0.02624512,-0.1319122,0.9909058,1.0,0.001220703,-0.1521149,0.9883575,-32.1893,-1.893661,-30.09322,5.308502,0.5119265,0.6908858,1.0,-0.05648804,-0.1094971,0.9923706,29.90042,2.119293,-30.66885,5.6297,0.607521,0.5508937,0.0536567,1.184039,0.05113173,-0.03317776,0.001125433,0.01362329,0.3256858,0.5131366185168158,31.307469150737962
1,-0.02624512,-0.1319122,0.9909058,1.0,0.001220703,-0.1521149,0.9883575,-32.1893,-1.893661,-30.09322,5.308502,0.5119265,0.6908858,1.0,-0.05648804,-0.1094971,0.9923706,29.90042,2.119293,-30.66885,5.6297,0.607521,0.5508937,0.0536567,1.184039,0.05113173,-0.03317776,0.001125433,0.01362329,0.3256858,0.5131366185168158,31.307469150737962
1,-0.02624512,-0.1319122,0.9909058,1.0,0.001220703,-0.1521149,0.9883575,-32.1893,-1.893661,-30.09322,5.308502,0.5119265,0.6908858,1.0,-0.05648804,-0.1094971,0.9923706,29.90042,2.119293,-30.66885,5.6297,0.607521,0.5508937,0.0536567,1.184039,0.05113173,-0.03317776,0.001125433,0.01362329,0.3256858,0.5131366185168158,31.307469150737962
1,-0.02624512,-0.1319122,0.9909058,1.0,0.001220703,-0.1521149,0.9883575,-32.1893,-1.893661,-30.09322,5.308502,0.5119265,0.6908858,1.0,-0.05648804,-0.1094971,0.9923706,29.90042,2.119293,-30.66885,5.6297,0.607521,0.5508937,0.0536567,1.184039,0.05113173,-0.03317776,0.001125433,0.01362329,0.3256858,0.5131366185168158,31.307469150737962
1,-0.02719116,-0.1330872,0.9907227,1.0,-0.003082275,-0.1501923,0.9886475,-32.18408,-1.91832,-30.06976,5.2892,0.5124567,0.6911344,1.0,-0.06248474,-0.1078339,0.9922028,29.92448,2.076523,-30.57597,5.622543,0.6075857,0.5511912,0.05341041,1.183915,0.05124032,-0.03334955,0.0003860203,0.01353715,0.3256858,0.5131366185168158,31.307469150737962
1,-0.02719116,-0.1330872,0.9907227,1.0,-0.003082275,-0.1501923,0.9886475,-32.18408,-1.91832,-30.06976,5.2892,0.5124567,0.6911344,1.0,-0.06248474,-0.1078339,0.9922028,29.92448,2.076523,-30.57597,5.622543,0.6075857,0.5511912,0.05341041,1.183915,0.05124032,-0.03334955,0.0003860203,0.01353715,0.3256858,0.5131366185168158,31.307469150737962
1,-0.02922058,-0.1311646,0.990921,1.0,-0.003860474,-0.1500092,0.9886627,-32.18477,-1.920715,-30.06696,5.27623,0.5126066,0.6911417,1.0,-0.0622406,-0.1064301,0.9923553,29.92448,2.063217,-30.55583,5.601151,0.607521,0.5511912,0.05338871,1.183913,0.05125058,-0.03345595,0.0,0.01357508,0.3256858,0.5131366185168158,31.307469150737962
1,-0.03012085,-0.1306458,0.9909668,1.0,-0.003250122,-0.1485138,0.9888916,-32.18907,-1.92598,-30.06522,5.27652,0.5126523,0.6910403,1.0,-0.06239319,-0.108963,0.9920807,29.92448,2.055817,-30.53114,5.614304,0.607521,0.5516657,0.05334294,1.183934,0.05123878,-0.03335023,0.0,0.01361782,0.3256858,0.5131366185168158,31.307469150737962
1,-0.02503967,-0.1324921,0.99086,1.0,-0.007354736,-0.1477051,0.9889984,-32.1946,-1.932205,-30.05669,5.292282,0.5135259,0.6910403,1.0,-0.04814148,-0.1124878,0.9924774,29.92212,2.041672,-30.49025,5.615097,0.605134,0.5523306,0.05335534,1.183937,0.05122405,-0.03325514,0.0,0.01376745,0.3256858,0.5131366185168158,31.307469150737962
1,-0.02503967,-0.1324921,0.99086,1.0,-0.007354736,-0.1477051,0.9889984,-32.1946,-1.932205,-30.05669,5.292282,0.5135259,0.6910403,1.0,-0.04814148,-0.1124878,0.9924774,29.92212,2.041672,-30.49025,5.615097,0.605134,0.5523306,0.05335534,1.183937,0.05122405,-0.03325514,0.0,0.01376745,0.3256858,0.5131366185168158,31.307469150737962
1,-0.02165222,-0.1342468,0.9907074,1.0,-0.005905151,-0.1483307,0.9889069,-32.20567,-1.934647,-30.04602,5.277481,0.5136631,0.6911107,1.0,-0.04530334,-0.1129456,0.9925537,29.91542,2.038132,-30.47054,5.606995,0.6048635,0.5523306,0.05335033,1.183939,0.05123711,-0.03326321,0.0,0.01380097,0.3256858,0.5131366185168158,31.307469150737962
1,-0.02165222,-0.1342468,0.9907074,1.0,-0.005905151,-0.1483307,0.9889069,-32.20567,-1.934647,-30.04602,5.277481,0.5136631,0.6911107,1.0,-0.04530334,-0.1129456,0.9925537,29.91542,2.038132,-30.47054,5.606995,0.6048635,0.5523306,0.05335033,1.183939,0.05123711,-0.03326321,0.0,0.01380097,0.3256858,0.5131366185168158,31.307469150737962
1,-0.02165222,-0.1342468,0.9907074,1.0,-0.005905151,-0.1483307,0.9889069,-32.20567,-1.934647,-30.04602,5.277481,0.5136631,0.6911107,1.0,-0.04530334,-0.1129456,0.9925537,29.91542,2.038132,-30.47054,5.606995,0.6048635,0.5523306,0.05338275,1.183967,0.05130595,-0.03324887,0.0,0.01412644,0.3256858,0.5131366185168158,31.307469150737962
1,-0.02165222,-0.1342468,0.9907074,1.0,-0.005905151,-0.1483307,0.9889069,-32.20567,-1.934647,-30.04602,5.277481,0.5136631,0.6911107,1.0,-0.04530334,-0.1129456,0.9925537,29.91542,2.038132,-30.47054,5.606995,0.6048635,0.5523306,0.053406,1.183964,0.05129492,-0.03326634,0.0,0.01430881,0.3256858,0.5131366185168158,31.307469150737962
1,-0.02165222,-0.1342468,0.9907074,1.0,-0.005905151,-0.1483307,0.9889069,-32.20567,-1.934647,-30.04602,5.277481,0.5136631,0.6911107,1.0,-0.04530334,-0.1129456,0.9925537,29.91542,2.038132,-30.47054,5.606995,0.6048635,0.5523306,0.05346787,1.183924,0.05131239,-0.03330865,0.0,0.01420166,0.3256858,0.5131366185168158,31.307469150737962
1,-0.02165222,-0.1342468,0.9907074,1.0,-0.005905151,-0.1483307,0.9889069,-32.20567,-1.934647,-30.04602,5.277481,0.5136631,0.6911107,1.0,-0.04530334,-0.1129456,0.9925537,29.91542,2.038132,-30.47054,5.606995,0.6048635,0.5523306,0.05346787,1.183924,0.05131239,-0.03330865,0.0,0.01420166,0.3256858,0.5131366185168158,31.307469150737962
1,-0.02047729,-0.1332245,0.99086,1.0,-0.004959106,-0.1472778,0.9890747,-32.21036,-1.938278,-30.04434,5.292999,0.5136679,0.6910403,1.0,-0.04530334,-0.1105804,0.9928284,29.91457,2.02597,-30.44116,5.609222,0.6048635,0.5520486,0.05347455,1.183924,0.05128872,-0.03328471,0.0,0.01404074,0.3256858,0.5131366185168158,31.307469150737962
1,-0.02047729,-0.1332245,0.99086,1.0,-0.004959106,-0.1472778,0.9890747,-32.21036,-1.938278,-30.04434,5.292999,0.5136679,0.6910403,1.0,-0.04530334,-0.1105804,0.9928284,29.91457,2.02597,-30.44116,5.609222,0.6048635,0.5520486,0.05347455,1.183924,0.05128872,-0.03328471,0.0,0.01404074,0.3256858,0.5131366185168158,31.307469150737962
1,-0.02047729,-0.1332245,0.99086,1.0,-0.004959106,-0.1472778,0.9890747,-32.21036,-1.938278,-30.04434,5.292999,0.5136679,0.6910403,1.0,-0.04530334,-0.1105804,0.9928284,29.91457,2.02597,-30.44116,5.609222,0.6048635,0.5520486,0.05357075,1.183886,0.05130941,-0.033129,0.0,0.01402481,0.3256858,0.5131366185168158,31.307469150737962
1,-0.02047729,-0.1332245,0.99086,1.0,-0.004959106,-0.1472778,0.9890747,-32.21036,-1.938278,-30.04434,5.292999,0.5136679,0.6910403,1.0,-0.04530334,-0.1105804,0.9928284,29.91457,2.02597,-30.44116,5.609222,0.6048635,0.5520486,0.05361116,1.183889,0.05131644,-0.03297842,0.00029901,0.01407042,0.3256858,0.5131366185168158,31.307469150737962
2,-0.02047729,-0.1332245,0.99086,1.0,-0.004959106,-0.1472778,0.9890747,-32.21036,-1.938278,-30.04434,5.292999,0.5136679,0.6910403,1.0,-0.04530334,-0.1105804,0.9928284,29.91457,2.02597,-30.44116,5.609222,0.6048635,0.5520486,0.05366004,1.183851,0.05132413,-0.0329366,0.0004048614,0.0140974,0.3256858,0.5131366185168158,31.307469150737962
2,-0.02047729,-0.1332245,0.99086,1.0,-0.004959106,-0.1472778,0.9890747,-32.21036,-1.938278,-30.04434,5.292999,0.5136679,0.6910403,1.0,-0.04530334,-0.1105804,0.9928284,29.91457,2.02597,-30.44116,5.609222,0.6048635,0.5520486,0.05366004,1.183851,0.05132413,-0.0329366,0.0004048614,0.0140974,0.3256858,0.5131366185168158,31.307469150737962
2,-0.01982117,-0.1220245,0.9923248,1.0,-0.004653931,-0.1459656,0.9892731,-32.21892,-1.94545,-30.04356,5.278015,0.5139109,0.6910403,1.0,-0.04144287,-0.08769226,0.9952698,29.93031,2.051132,-30.46727,5.62532,0.6036872,0.5474286,0.05377328,1.183862,0.05136025,-0.03264553,0.000545915,0.013931,0.3256858,0.5131366185168158,31.307469150737962
2,-0.01982117,-0.1220245,0.9923248,1.0,-0.004653931,-0.1459656,0.9892731,-32.21892,-1.94545,-30.04356,5.278015,0.5139109,0.6910403,1.0,-0.04144287,-0.08769226,0.9952698,29.93031,2.051132,-30.46727,5.62532,0.6036872,0.5474286,0.05377328,1.183862,0.05136025,-0.03264553,0.000545915,0.013931,0.3256858,0.5131366185168158,31.307469150737962
2,-0.01982117,-0.1220245,0.9923248,1.0,-0.004653931,-0.1459656,0.9892731,-32.21892,-1.94545,-30.04356,5.278015,0.5139109,0.6910403,1.0,-0.04144287,-0.08769226,0.9952698,29.93031,2.051132,-30.46727,5.62532,0.6036872,0.5474286,0.05389512,1.183846,0.05139554,-0.03267588,0.0006796587,0.01358495,0.3256858,7.607719,31.307469150737962
2,-0.01982117,-0.1220245,0.9923248,1.0,-0.004653931,-0.1459656,0.9892731,-32.21892,-1.94545,-30.04356,5.278015,0.5139109,0.6910403,1.0,-0.04144287,-0.08769226,0.9952698,29.93031,2.051132,-30.46727,5.62532,0.6036872,0.5474286,0.05398953,1.183851,0.05140245,-0.03263093,0.0008097229,0.0135074,0.3256858,7.607719,31.307469150737962
2,-0.01982117,-0.1220245,0.9923248,1.0,-0.004653931,-0.1459656,0.9892731,-32.21892,-1.94545,-30.04356,5.278015,0.5139109,0.6910403,1.0,-0.04144287,-0.08769226,0.9952698,29.93031,2.051132,-30.46727,5.62532,0.6036872,0.5474286,0.05398953,1.183851,0.05140245,-0.03263093,0.0008097229,0.0135074,0.3256858,7.607719,31.307469150737962
2,-0.01013184,-0.1352234,0.9907532,1.0,-0.004684448,-0.1460724,0.9892578,-32.21892,-1.94545,-30.04286,5.278214,0.5139162,0.6910403,1.0,-0.01780701,-0.1199188,0.9926147,29.93645,2.034424,-30.40739,5.41066,0.5993668,0.5528878,0.05406642,1.183852,0.05136096,-0.03266333,0.001006618,0.01335429,0.3256858,7.607719,31.307469150737962
2,-0.01913452,-0.1261749,0.9918213,1.0,-0.005569458,-0.1439209,0.989563,-32.21892,-1.947754,-30.03746,5.260437,0.5140602,0.6906651,1.0,-0.03627014,-0.1036377,0.9939423,29.95506,2.052597,-30.46719,5.451859,0.6019126,0.5500357,0.05411518,1.183822,0.05137157,-0.03259277,0.001084985,0.01334145,0.3256858,7.607719,31.307469150737962
2,-0.01913452,-0.1261749,0.9918213,1.0,-0.005569458,-0.1439209,0.989563,-32.21892,-1.947754,-30.03746,5.260437,0.5140602,0.6906651,1.0,-0.03627014,-0.1036377,0.9939423,29.95506,2.052597,-30.46719,5.451859,0.6019126,0.5500357,0.05411518,1.183822,0.05137157,-0.03259277,0.001084985,0.01334145,0.3256858,7.607719,31.307469150737962
2,-0.009155273,-0.1265259,0.9919128,1.0,-0.006439209,-0.1429901,0.9897003,-32.21892,-1.948425,-30.03746,5.238602,0.5142037,0.6905172,1.0,-0.01239014,-0.1069489,0.9941711,29.95729,2.045242,-30.44875,5.418381,0.5977539,0.5506381,0.0541178,1.183819,0.05136549,-0.03259529,0.00119604,0.01333419,0.3256858,7.607719,31.307469150737962
2,-0.009155273,-0.1265259,0.9919128,1.0,-0.006439209,-0.1429901,0.9897003,-32.21892,-1.948425,-30.03746,5.238602,0.5142037,0.6905172,1.0,-0.01239014,-0.1069489,0.9941711,29.95729,2.045242,-30.44875,5.418381,0.5977539,0.5506381,0.0541178,1.183819,0.05136549,-0.03259529,0.00119604,0.01333419,0.3256858,7.607719,31.307469150737962
2,-0.01359558,-0.1236115,0.9922333,1.0,-0.009140015,-0.1358948,0.9906769,-32.20598,-1.949631,-30.03178,5.195786,0.5142037,0.6891907,1.0,-0.01875305,-0.1093445,0.9938202,29.96436,2.052597,-30.46719,5.40979,0.5986047,0.5509879,0.05408227,1.183814,0.05139554,-0.03253168,0.001118793,0.01346099,0.3256858,7.607719,31.307469150737962
2,-0.01359558,-0.1236115,0.9922333,1.0,-0.009140015,-0.1358948,0.9906769,-32.20598,-1.949631,-30.03178,5.195786,0.5142037,0.6891907,1.0,-0.01875305,-0.1093445,0.9938202,29.96436,2.052597,-30.46719,5.40979,0.5986047,0.5509879,0.05408227,1.183814,0.05139554,-0.03253168,0.001118793,0.01346099,0.3256858,7.607719,31.307469150737962
2,-0.0136261,-0.1236877,0.992218,1.0,-0.009109497,-0.1336212,0.9909821,-32.19795,-1.948425,-30.03178,5.136169,0.5139162,0.6886855,1.0,-0.01870728,-0.1124573,0.9934692,29.97145,2.062698,-30.47713,5.395966,0.5983552,0.5512571,0.05393469,1.183747,0.05131543,-0.03250533,0.001028583,0.01372898,0.3256858,7.607719,31.307469150737962
2,-0.0136261,-0.1236877,0.992218,1.0,-0.009109497,-0.1336212,0.9909821,-32.19795,-1.948425,-30.03178,5.136169,0.5139162,0.6886855,1.0,-0.01870728,-0.1124573,0.9934692,29.97145,2.062698,-30.47713,5.395966,0.5983552,0.5512571,0.05393469,1.183747,0.05131543,-0.03250533,0.001028583,0.01372898,0.3256858,7.607719,31.307469150737962
2,-0.0141449,-0.1222992,0.9923859,1.0,-0.009765625,-0.131134,0.9913025,-32.19339,-1.94516,-30.03178,5.135452,0.5138699,0.6881351,1.0,-0.01908875,-0.1123199,0.9934845,29.97346,2.06398,-30.48399,5.39595,0.5983552,0.5512571,0.05381596,1.183748,0.05132419,-0.03263983,0.0008886853,0.01373223,0.3256858,-0.08156204,31.307469150737962
2,-0.0141449,-0.1222992,0.9923859,1.0,-0.009765625,-0.131134,0.9913025,-32.19339,-1.94516,-30.03178,5.135452,0.5138699,0.6881351,1.0,-0.01908875,-0.1123199,0.9934845,29.97346,2.06398,-30.48399,5.39595,0.5983552,0.5512571,0.05381596,1.183748,0.05132419,-0.03263983,0.0008886853,0.01373223,0.3256858,-0.08156204,31.307469150737962
2,-0.01345825,-0.1219177,0.9924469,1.0,-0.01152039,-0.1294861,0.9915009,-32.18481,-1.937119,-30.04749,5.094025,0.5138699,0.6876943,1.0,-0.01568604,-0.1132813,0.9934235,29.98157,2.073029,-30.51462,5.359634,0.5975192,0.5513944,0.05367374,1.183755,0.05131173,-0.03259094,0.0006342959,0.01386721,0.3256858,-0.08156204,31.307469150737962
2,-0.01345825,-0.1219177,0.9924469,1.0,-0.01152039,-0.1294861,0.9915009,-32.18481,-1.937119,-30.04749,5.094025,0.5138699,0.6876943,1.0,-0.01568604,-0.1132813,0.9934235,29.98157,2.073029,-30.51462,5.359634,0.5975192,0.5513944,0.05367374,1.183755,0.05131173,-0.03259094,0.0006342959,0.01386721,0.3256858,-0.08156204,31.307469150737962
2,-0.01394653,-0.1218719,0.9924469,1.0,-0.009857178,-0.129776,0.9914856,-32.17596,-1.916473,-30.08356,5.054932,0.5132992,0.6873888,1.0,-0.01846313,-0.1130676,0.9934082,29.98978,2.088913,-30.55984,5.383133,0.5977539,0.5512571,0.05342543,1.183714,0.05125248,-0.03260192,0.0005033088,0.01411325,0.3256858,-0.08156204,31.307469150737962
2,-0.01394653,-0.1218719,0.9924469,1.0,-0.009857178,-0.129776,0.9914856,-32.17596,-1.916473,-30.08356,5.054932,0.5132992,0.6873888,1.0,-0.01846313,-0.1130676,0.9934082,29.98978,2.088913,-30.55984,5.383133,0.5977539,0.5512571,0.05342543,1.183714,0.05125248,-0.03260192,0.0005033088,0.01411325,0.3256858,-0.08156204,31.307469150737962
2,-0.01278687,-0.1197815,0.9927063,1.0,-0.009841919,-0.1293488,0.9915466,-32.17596,-1.907227,-30.10078,5.020721,0.5132992,0.687148,1.0,-0.01594543,-0.1095276,0.9938507,29.98978,2.093353,-30.57225,5.315079,0.5973247,0.5505588,0.05327594,1.183723,0.05126476,-0.03270961,0.000211432,0.01438515,0.3256858,-0.08156204,31.307469150737962
2,-0.01278687,-0.1197815,0.9927063,1.0,-0.009841919,-0.1293488,0.9915466,-32.17596,-1.907227,-30.10078,5.020721,0.5132992,0.687148,1.0,-0.01594543,-0.1095276,0.9938507,29.98978,2.093353,-30.57225,5.315079,0.5973247,0.5505588,0.05327594,1.183723,0.05126476,-0.03270961,0.000211432,0.01438515,0.3256858,-0.08156204,31.307469150737962
2,-0.0123291,-0.1192017,0.9927826,1.0,-0.00958252,-0.1282196,0.991684,-32.17596,-1.904129,-30.11784,5.014786,0.5132625,0.6870202,1.0,-0.01527405,-0.1095428,0.9938507,29.98978,2.095978,-30.58293,5.292328,0.597218,0.5505588,0.05310857,1.183758,0.05123675,-0.03270596,0.0,0.01446984,0.3256858,-0.08156204,31.307469150737962
2,-0.0123291,-0.1192017,0.9927826,1.0,-0.00958252,-0.1282196,0.991684,-32.17596,-1.904129,-30.11784,5.014786,0.5132625,0.6870202,1.0,-0.01527405,-0.1095428,0.9938507,29.98978,2.095978,-30.58293,5.292328,0.597218,0.5505588,0.05310857,1.183758,0.05123675,-0.03270596,0.0,0.01446984,0.3256858,-0.08156204,31.307469150737962
2,-0.0123291,-0.1192017,0.9927826,1.0,-0.00958252,-0.1282196,0.991684,-32.17596,-1.904129,-30.11784,5.014786,0.5132625,0.6870202,1.0,-0.01527405,-0.1095428,0.9938507,29.98978,2.095978,-30.58293,5.292328,0.597218,0.5505588,0.05297554,1.183796,0.05118334,-0.03300033,0.0,0.01463266,0.3256858,-0.08156204,31.307469150737962
2,-0.0123291,-0.1192017,0.9927826,1.0,-0.00958252,-0.1282196,0.991684,-32.17596,-1.904129,-30.11784,5.014786,0.5132625,0.6870202,1.0,-0.01527405,-0.1095428,0.9938507,29.98978,2.095978,-30.58293,5.292328,0.597218,0.5505588,0.05297554,1.183796,0.05118334,-0.03300033,0.0,0.01463266,0.3256858,-0.08156204,31.307469150737962
2,-0.02972412,-0.1073151,0.9937744,1.0,-0.02204895,-0.1130371,0.9933319,-32.21408,-1.868225,-30.12143,4.874451,0.5166742,0.6830184,1.0,-0.04859924,-0.09318542,0.9944458,29.93068,2.225601,-30.91951,5.286011,0.6053493,0.5465421,0.05289495,1.18394,0.05124259,-0.03341874,0.0,0.01478714,0.3256858,-0.08156204,31.307469150737962
2,-0.02972412,-0.1073151,0.9937744,1.0,-0.02204895,-0.1130371,0.9933319,-32.21408,-1.868225,-30.12143,4.874451,0.5166742,0.6830184,1.0,-0.04859924,-0.09318542,0.9944458,29.93068,2.225601,-30.91951,5.286011,0.6053493,0.5465421,0.05289495,1.18394,0.05124259,-0.03341874,0.0,0.01478714,0.3256858,-0.08156204,31.307469150737962
2,-0.09942627,-0.1101837,0.9889221,1.0,-0.09577942,-0.1141968,0.9888153,-32.70798,-1.469879,-30.32657,4.514069,0.5463454,0.6716988,1.0,-0.1225128,-0.08470154,0.9888306,29.30383,2.536621,-31.05548,5.1884,0.6405066,0.535836,0.05281699,1.184023,0.05122137,-0.03374532,0.0002441406,0.01493454,0.3256858,-0.08156204,31.307469150737962
2,-0.09942627,-0.1101837,0.9889221,1.0,-0.09577942,-0.1141968,0.9888153,-32.70798,-1.469879,-30.32657,4.514069,0.5463454,0.6716988,1.0,-0.1225128,-0.08470154,0.9888306,29.30383,2.536621,-31.05548,5.1884,0.6405066,0.535836,0.05281699,1.184023,0.05122137,-0.03374532,0.0002441406,0.01493454,0.3256858,-0.08156204,31.307469150737962
2,-0.1655273,-0.08094788,0.9828644,1.0,-0.1592712,-0.07873535,0.9840851,-33.01375,-1.372681,-30.27829,4.730133,0.5676808,0.6621938,1.0,-0.1808014,-0.08633423,0.9797211,28.85956,2.548019,-30.67924,5.129028,0.6659811,0.5324821,0.05284965,1.184062,0.05117285,-0.03399653,0.0003860203,0.01532943,0.3256858,-4.320488,31.307469150737962
2,-0.1655273,-0.08094788,0.9828644,1.0,-0.1592712,-0.07873535,0.9840851,-33.01375,-1.372681,-30.27829,4.730133,0.5676808,0.6621938,1.0,-0.1808014,-0.08633423,0.9797211,28.85956,2.548019,-30.67924,5.129028,0.6659811,0.5324821,0.05284965,1.184062,0.05117285,-0.03399653,0.0003860203,0.01532943,0.3256858,-4.320488,31.307469150737962
2,-0.1641388,-0.06097412,0.9845428,1.0,-0.1530762,-0.06787109,0.9858704,-33.00426,-1.408859,-30.24379,4.750977,0.5662698,0.6611441,1.0,-0.1864624,-0.04698181,0.9813232,28.88402,2.510834,-30.72295,5.360977,0.666216,0.5274553,0.05286443,1.184105,0.05107915,-0.03422282,0.0003860202,0.01551302,0.3256858,-4.320488,31.307469150737962
2,-0.1641388,-0.06097412,0.9845428,1.0,-0.1530762,-0.06787109,0.9858704,-33.00426,-1.408859,-30.24379,4.750977,0.5662698,0.6611441,1.0,-0.1864624,-0.04698181,0.9813232,28.88402,2.510834,-30.72295,5.360977,0.666216,0.5274553,0.05286443,1.184105,0.05107915,-0.03422282,0.0003860202,0.01551302,0.3256858,-4.320488,31.307469150737962
2,-0.1674957,-0.05799866,0.9841614,1.0,-0.1578217,-0.06887817,0.9850464,-33.0125,-1.445587,-30.1954,4.822067,0.567313,0.6621834,1.0,-0.1821136,-0.04144287,0.9823914,28.9142,2.487534,-30.71414,5.292923,0.6643643,0.5271381,0.0528878,1.184126,0.05103219,-0.0344699,0.0005320922,0.01539684,0.3256858,-4.320488,31.307469150737962
2,-0.1674957,-0.05799866,0.9841614,1.0,-0.1578217,-0.06887817,0.9850464,-33.0125,-1.445587,-30.1954,4.822067,0.567313,0.6621834,1.0,-0.1821136,-0.04144287,0.9823914,28.9142,2.487534,-30.71414,5.292923,0.6643643,0.5271381,0.0528878,1.184126,0.05103219,-0.0344699,0.0005320922,0.01539684,0.3256858,-4.320488,31.307469150737962
2,-0.1661224,-0.05305481,0.9846649,1.0,-0.1545258,-0.06132507,0.9860687,-33.02177,-1.469238,-30.138,4.759689,0.5670403,0.660957,1.0,-0.1749573,-0.04675293,0.9834595,28.92334,2.474716,-30.68678,5.238922,0.6627269,0.528163,0.05293977,1.184156,0.0509795,-0.0345834,0.0005593965,0.0153338,0.3256858,-4.320488,31.307469150737962
2,-0.1661224,-0.05305481,0.9846649,1.0,-0.1545258,-0.06132507,0.9860687,-33.02177,-1.469238,-30.138,4.759689,0.5670403,0.660957,1.0,-0.1749573,-0.04675293,0.9834595,28.92334,2.474716,-30.68678,5.238922,0.6627269,0.528163,0.05293977,1.184156,0.0509795,-0.0345834,0.0005593965,0.0153338,0.3256858,-4.320488,31.307469150737962
2,-0.1624146,-0.05532837,0.9851685,1.0,-0.1551056,-0.06567383,0.9857025,-33.02223,-1.486572,-30.1096,4.758377,0.5671331,0.6620435,1.0,-0.1672058,-0.04852295,0.984726,28.93079,2.469315,-30.68175,5.185608,0.6610895,0.528526,0.05301392,1.184089,0.05096519,-0.03458448,0.000345267,0.01527782,0.3256858,-4.320488,31.307469150737962
2,-0.1624146,-0.05532837,0.9851685,1.0,-0.1551056,-0.06567383,0.9857025,-33.02223,-1.486572,-30.1096,4.758377,0.5671331,0.6620435,1.0,-0.1672058,-0.04852295,0.984726,28.93079,2.469315,-30.68175,5.185608,0.6610895,0.528526,0.05301392,1.184089,0.05096519,-0.03458448,0.000345267,0.01527782,0.3256858,-4.320488,31.307469150737962
2,-0.1634064,-0.06001282,0.984726,1.0,-0.1555023,-0.06173706,0.9859009,-33.02023,-1.484711,-30.11121,4.760086,0.5671331,0.6612918,1.0,-0.1685333,-0.05886841,0.9839325,28.93672,2.46463,-30.67543,5.149918,0.6610895,0.5304247,0.05303943,1.184065,0.05093133,-0.03444482,0.0,0.01524413,0.3256858,-4.320488,31.307469150737962
2,-0.1634064,-0.06001282,0.984726,1.0,-0.1555023,-0.06173706,0.9859009,-33.02023,-1.484711,-30.11121,4.760086,0.5671331,0.6612918,1.0,-0.1685333,-0.05886841,0.9839325,28.93672,2.46463,-30.67543,5.149918,0.6610895,0.5304247,0.05303943,1.184065,0.05093133,-0.03444482,0.0,0.01524413,0.3256858,-4.320488,31.307469150737962
2,-0.1558075,-0.06158447,0.9858551,1.0,-0.1555481,-0.06063843,0.9859619,-33.01712,-1.48497,-30.11304,4.74324,0.5670403,0.661127,1.0,-0.1561279,-0.06272888,0.985733,28.93732,2.452728,-30.67221,5.138718,0.6588806,0.5313884,0.05310261,1.183954,0.05096906,-0.03406024,0.0,0.01504439,0.3256858,-4.320488,31.307469150737962
2,-0.1558075,-0.06158447,0.9858551,1.0,-0.1555481,-0.06063843,0.9859619,-33.01712,-1.48497,-30.11304,4.74324,0.5670403,0.661127,1.0,-0.1561279,-0.06272888,0.985733,28.93732,2.452728,-30.67221,5.138718,0.6588806,0.5313884,0.05310261,1.183954,0.05096906,-0.03406024,0.0,0.01504439,0.3256858,-4.320488,31.307469150737962
2,-0.1551056,-0.06210327,0.9859314,1.0,-0.1555786,-0.05990601,0.9859924,-33.01401,-1.485306,-30.11859,4.725876,0.5669475,0.6610467,1.0,-0.1545563,-0.06460571,0.9858551,28.94264,2.444595,-30.66148,5.147797,0.6583987,0.5318979,0.05303514,1.183808,0.05102295,-0.03360505,-0.0008970299,0.01484748,0.3256858,-4.320488,31.307469150737962
2,-0.1551056,-0.06210327,0.9859314,1.0,-0.1555786,-0.05990601,0.9859924,-33.01401,-1.485306,-30.11859,4.725876,0.5669475,0.6610467,1.0,-0.1545563,-0.06460571,0.9858551,28.94264,2.444595,-30.66148,5.147797,0.6583987,0.5318979,0.05303514,1.183808,0.05102295,-0.03360505,-0.0008970299,0.01484748,0.3256858,-4.320488,31.307469150737962
2,-0.1559906,-0.05792236,0.9860535,1.0,-0.1556549,-0.06002808,0.9859772,-33.01233,-1.485596,-30.12978,4.738571,0.5669087,0.6612072,1.0,-0.1564026,-0.05543518,0.9861298,28.94955,2.413651,-30.60695,5.186111,0.6583987,0.5308788,0.05300105,1.183738,0.05115771,-0.0332047,-0.001747781,0.01490608,0.3256858,-3.276371,31.307469150737962
2,-0.1559906,-0.05792236,0.9860535,1.0,-0.1556549,-0.06002808,0.9859772,-33.01233,-1.485596,-30.12978,4.738571,0.5669087,0.6612072,1.0,-0.1564026,-0.05543518,0.9861298,28.94955,2.413651,-30.60695,5.186111,0.6583987,0.5308788,0.05300105,1.183738,0.05115771,-0.0332047,-0.001747781,0.01490608,0.3256858,-3.276371,31.307469150737962
2,-0.1562347,-0.05891418,0.9859467,1.0,-0.1551971,-0.059021,0.9861145,-33.00502,-1.486435,-30.14452,4.738525,0.5665891,0.6612072,1.0,-0.157608,-0.05877686,0.9857483,28.95088,2.399124,-30.60011,5.152771,0.6585464,0.5318979,0.05289662,1.183723,0.05128264,-0.03281967,-0.002053541,0.01483895,0.3256858,-3.276371,31.307469150737962
2,-0.1562347,-0.05891418,0.9859467,1.0,-0.1551971,-0.059021,0.9861145,-33.00502,-1.486435,-30.14452,4.738525,0.5665891,0.6612072,1.0,-0.157608,-0.05877686,0.9857483,28.95088,2.399124,-30.60011,5.152771,0.6585464,0.5318979,0.05289662,1.183723,0.05128264,-0.03281967,-0.002053541,0.01483895,0.3256858,-3.276371,31.307469150737962
2,-0.156723,-0.0585022,0.9859009,1.0,-0.1560211,-0.05844116,0.9860077,-33.00072,-1.486435,-30.15015,4.738708,0.5665891,0.6611722,1.0,-0.1576385,-0.05859375,0.9857483,28.95088,2.397217,-30.59662,5.152908,0.6585464,0.5318979,0.05283046,1.183638,0.0514282,-0.03220829,-0.002580856,0.01494402,0.3256858,-3.276371,31.307469150737962
2,-0.156723,-0.0585022,0.9859009,1.0,-0.1560211,-0.05844116,0.9860077,-33.00072,-1.486435,-30.15015,4.738708,0.5665891,0.6611722,1.0,-0.1576385,-0.05859375,0.9857483,28.95088,2.397217,-30.59662,5.152908,0.6585464,0.5318979,0.05283046,1.183638,0.0514282,-0.03220829,-0.002580856,0.01494402,0.3256858,-3.276371,31.307469150737962
2,-0.156723,-0.0585022,0.9859009,1.0,-0.1560211,-0.05844116,0.9860077,-33.00072,-1.486435,-30.15015,4.738708,0.5665891,0.6611722,1.0,-0.1576385,-0.05859375,0.9857483,28.95088,2.397217,-30.59662,5.152908,0.6585464,0.5318979,0.05281878,1.183514,0.05154347,-0.03158273,-0.003166778,0.01543164,0.3256858,-3.276371,31.307469150737962
2,-0.156723,-0.0585022,0.9859009,1.0,-0.1560211,-0.05844116,0.9860077,-33.00072,-1.486435,-30.15015,4.738708,0.5665891,0.6611722,1.0,-0.1576385,-0.05859375,0.9857483,28.95088,2.397217,-30.59662,5.152908,0.6585464,0.5318979,0.052773,1.183353,0.05171239,-0.0308152,-0.003823354,0.0158743,0.3256858,-3.276371,31.307469150737962
2,-0.156723,-0.0585022,0.9859009,1.0,-0.1560211,-0.05844116,0.9860077,-33.00072,-1.486435,-30.15015,4.738708,0.5665891,0.6611722,1.0,-0.1576385,-0.05859375,0.9857483,28.95088,2.397217,-30.59662,5.152908,0.6585464,0.5318979,0.052773,1.183353,0.05171239,-0.0308152,-0.003823354,0.0158743,0.3256858,-3.276371,31.307469150737962
2,-0.1849365,-0.01899719,0.9825592,1.0,-0.1452332,-0.06170654,0.9874573,-33.05101,-1.528412,-30.1631,4.713013,0.5665021,0.6632418,1.0,-0.2456818,0.04782104,0.9681549,28.91191,2.477051,-30.75464,5.996613,0.6759494,0.513509,0.0527972,1.183153,0.05183393,-0.03059804,-0.004175447,0.01610311,0.3256858,-3.276371,31.307469150737962
2,-0.1849365,-0.01899719,0.9825592,1.0,-0.1452332,-0.06170654,0.9874573,-33.05101,-1.528412,-30.1631,4.713013,0.5665021,0.6632418,1.0,-0.2456818,0.04782104,0.9681549,28.91191,2.477051,-30.75464,5.996613,0.6759494,0.513509,0.05273581,1.183029,0.05190384,-0.03011502,-0.00450504,0.01624223,0.3256858,-3.276371,31.307469150737962
2,-0.1849365,-0.01899719,0.9825592,1.0,-0.1452332,-0.06170654,0.9874573,-33.05101,-1.528412,-30.1631,4.713013,0.5665021,0.6632418,1.0,-0.2456818,0.04782104,0.9681549,28.91191,2.477051,-30.75464,5.996613,0.6759494,0.513509,0.05273581,1.183029,0.05190384,-0.03011502,-0.00450504,0.01624223,0.3256858,-3.276371,31.307469150737962
2,-0.1849365,-0.01899719,0.9825592,1.0,-0.1452332,-0.06170654,0.9874573,-33.05101,-1.528412,-30.1631,4.713013,0.5665021,0.6632418,1.0,-0.2456818,0.04782104,0.9681549,28.91191,2.477051,-30.75464,5.996613,0.6759494,0.513509,0.05258524,1.182841,0.05211258,-0.02925616,-0.005354422,0.01619262,0.3256858,-3.276371,31.307469150737962
2,-0.1849365,-0.01899719,0.9825592,1.0,-0.1452332,-0.06170654,0.9874573,-33.05101,-1.528412,-30.1631,4.713013,0.5665021,0.6632418,1.0,-0.2456818,0.04782104,0.9681549,28.91191,2.477051,-30.75464,5.996613,0.6759494,0.513509,0.05258155,1.18278,0.05221164,-0.02886363,-0.005933924,0.01633418,0.3256858,-3.276371,31.307469150737962
2,-0.1849365,-0.01899719,0.9825592,1.0,-0.1452332,-0.06170654,0.9874573,-33.05101,-1.528412,-30.1631,4.713013,0.5665021,0.6632418,1.0,-0.2456818,0.04782104,0.9681549,28.91191,2.477051,-30.75464,5.996613,0.6759494,0.513509,0.05258155,1.18278,0.05221164,-0.02886363,-0.005933924,0.01633418,0.3256858,-3.276371,31.307469150737962
2,-0.1849365,-0.01899719,0.9825592,1.0,-0.1452332,-0.06170654,0.9874573,-33.05101,-1.528412,-30.1631,4.713013,0.5665021,0.6632418,1.0,-0.2456818,0.04782104,0.9681549,28.91191,2.477051,-30.75464,5.996613,0.6759494,0.513509,0.05261314,1.182606,0.05228978,-0.02806529,-0.006182352,0.01655347,0.3256858,2.024973,31.307469150737962
2,-1.0,-1.0,-1.0,0.6621284,0.0,0.0,0.0,-31.93764,-1.903809,-30.1499,-1.0,0.4965537,0.6886777,0.6841548,0.0,0.0,0.0,29.04594,2.657288,-30.74101,-1.0,0.6172915,0.5504408,0.05267572,1.182495,0.05233437,-0.02765101,-0.006207609,0.0166204,0.3256858,2.024973,31.307469150737962
2,-1.0,-1.0,-1.0,0.4142024,0.0,0.0,0.0,-31.74832,-1.181564,-31.38179,-1.0,0.4878094,0.6801589,0.4346254,0.0,0.0,0.0,30.12988,2.380203,-30.11845,-1.0,0.5890925,0.5475947,0.05275023,1.182391,0.05233097,-0.02713203,-0.006185967,0.01656562,0.3256858,2.024973,31.307469150737962
2,-1.0,-1.0,-1.0,0.6112829,0.0,0.0,0.0,-31.75966,-1.347733,-30.95334,-1.0,0.4927945,0.6808745,0.5402234,0.0,0.0,0.0,30.1577,2.533173,-30.90112,-1.0,0.5954556,0.5247942,0.05279315,1.182298,0.05231613,-0.02663092,-0.006120582,0.01640563,0.3256858,2.024973,31.307469150737962
2,-1.0,-1.0,-1.0,0.6112829,0.0,0.0,0.0,-31.75966,-1.347733,-30.95334,-1.0,0.4927945,0.6808745,0.5402234,0.0,0.0,0.0,30.1577,2.533173,-30.90112,-1.0,0.5954556,0.5247942,0.05279315,1.182298,0.05231613,-0.02663092,-0.006120582,0.01640563,0.3256858,2.024973,31.307469150737962
2,0.03347778,-0.09965515,0.9944458,0.719204,0.03347778,-0.09965515,0.9944458,-31.71576,-1.473068,-30.69066,4.459366,0.4902004,0.6725881,0.6571324,-0.005737305,-0.05641174,0.9983826,30.19905,2.705032,-31.61641,5.3797,0.5891249,0.530007,0.05291617,1.182188,0.0523411,-0.02588437,-0.005981445,0.01610264,0.3256858,2.024973,31.307469150737962
2,0.03414917,-0.07893372,0.9962921,0.7816866,0.03414917,-0.07893372,0.9962921,-31.74001,-1.436981,-30.84003,4.37175,0.490943,0.6691605,0.7169038,-0.07159424,-0.01385498,0.9973297,30.39978,3.371689,-34.07521,5.430222,0.5960283,0.5231943,0.05296814,1.182154,0.05235732,-0.02556754,-0.005853014,0.01600518,0.3256858,2.024973,31.307469150737962
2,0.03414917,-0.07893372,0.9962921,0.7816866,0.03414917,-0.07893372,0.9962921,-31.74001,-1.436981,-30.84003,4.37175,0.490943,0.6691605,0.7169038,-0.07159424,-0.01385498,0.9973297,30.39978,3.371689,-34.07521,5.430222,0.5960283,0.5231943,0.05296814,1.182154,0.05235732,-0.02556754,-0.005853014,0.01600518,0.3256858,2.024973,31.307469150737962
2,0.03659058,-0.08880615,0.9953613,0.8671101,0.03659058,-0.08880615,0.9953613,-31.70926,-1.259171,-31.32016,4.523254,0.4895535,0.6700271,0.7823041,-0.0333252,-0.02510071,0.999115,30.20103,2.592422,-31.43053,5.458939,0.5937786,0.5268644,0.05307829,1.182063,0.05240595,-0.02536861,-0.005750276,0.01600984,0.3256858,2.024973,31.307469150737962
2,0.0348053,-0.08129883,0.9960785,0.8671101,0.0348053,-0.08129883,0.9960785,-31.68681,-1.35582,-31.00224,4.652206,0.4890462,0.6687524,0.7823041,-0.03907776,-0.04013062,0.9984283,30.19632,2.527588,-31.2993,5.362732,0.5947855,0.5304154,0.05313504,1.182063,0.05241406,-0.02528418,-0.00566543,0.01615669,0.3256858,2.024973,31.307469150737962
2,0.0348053,-0.08129883,0.9960785,0.8671101,0.0348053,-0.08129883,0.9960785,-31.68681,-1.35582,-31.00224,4.652206,0.4890462,0.6687524,0.7823041,-0.03907776,-0.04013062,0.9984283,30.19632,2.527588,-31.2993,5.362732,0.5947855,0.5304154,0.05313504,1.182063,0.05241406,-0.02528418,-0.00566543,0.01615669,0.3256858,2.024973,31.307469150737962
2,0.04078674,-0.0662384,0.9969635,0.9704087,0.04078674,-0.0662384,0.9969635,-31.67818,-1.34314,-31.22762,4.61676,0.4877483,0.6680102,0.844337,-0.02966309,0.01768494,0.9993896,30.20403,2.461487,-31.16525,5.515472,0.5928108,0.5215068,0.05325925,1.181988,0.05246067,-0.02507884,-0.005346066,0.01618617,0.3256858,2.024973,31.307469150737962
2,0.042099,-0.06887817,0.9967346,0.9704087,0.042099,-0.06887817,0.9967346,-31.67538,-1.37619,-31.10643,4.778015,0.4874325,0.6684993,0.844337,0.004104614,-0.1071777,0.9942169,30.21379,2.401947,-31.04611,5.094147,0.5864576,0.5438538,0.05331147,1.181956,0.0524261,-0.02497643,-0.005091957,0.01615577,0.3256858,2.024973,31.307469150737962
2,0.02926636,-0.06977844,0.9971313,1.0,0.02926636,-0.06977844,0.9971313,-31.66203,-1.491211,-30.89246,4.596298,0.4890963,0.6701767,1.0,0.02604675,-0.1110992,0.993454,30.21761,2.351181,-31.03413,5.053558,0.5825419,0.5461704,0.0533762,1.18193,0.052387,-0.02478268,-0.004983998,0.0162225,0.3256858,2.024973,31.307469150737962
2,0.02926636,-0.06977844,0.9971313,1.0,0.02926636,-0.06977844,0.9971313,-31.66203,-1.491211,-30.89246,4.596298,0.4890963,0.6701767,1.0,0.02604675,-0.1110992,0.993454,30.21761,2.351181,-31.03413,5.053558,0.5825419,0.5461704,0.0533762,1.18193,0.052387,-0.02478268,-0.004983998,0.0162225,0.3256858,2.024973,31.307469150737962
2,0.02626038,-0.08880615,0.995697,1.0,0.02484131,-0.07804871,0.9966278,-31.66418,-1.476044,-30.96802,4.543335,0.4899274,0.6718794,1.0,0.03025818,-0.1194,0.9923706,30.22348,2.37886,-31.17714,4.945877,0.5817131,0.5480192,0.05343187,1.181914,0.05235189,-0.0243018,-0.004819845,0.01623719,0.3256858,2.024973,31.307469150737962
2,0.02391052,-0.08172607,0.9963531,1.0,0.03793335,-0.07633972,0.9963531,-31.6412,-1.548065,-30.81732,4.585999,0.4868807,0.6724933,1.0,-0.007064819,-0.09353638,0.995575,30.26485,2.423416,-31.4521,4.801086,0.5868914,0.5444976,0.05345571,1.181912,0.05228508,-0.02415728,-0.00478883,0.01633783,0.3256858,2.024973,31.307469150737962
2,0.05635071,-0.07484436,0.9955902,1.0,0.0586853,-0.07058716,0.9957733,-31.63722,-1.519684,-30.92174,4.642014,0.4832281,0.6716891,1.0,0.04452515,-0.09625244,0.9943542,30.27985,2.425217,-31.49817,4.809219,0.5774987,0.5453596,0.05347383,1.181934,0.05221534,-0.02393014,-0.00486753,0.01621009,0.3256858,1.385433,31.307469150737962
2,0.05635071,-0.07484436,0.9955902,1.0,0.0586853,-0.07058716,0.9957733,-31.63722,-1.519684,-30.92174,4.642014,0.4832281,0.6716891,1.0,0.04452515,-0.09625244,0.9943542,30.27985,2.425217,-31.49817,4.809219,0.5774987,0.5453596,0.05347383,1.181934,0.05221534,-0.02393014,-0.00486753,0.01621009,0.3256858,1.385433,31.307469150737962
2,0.04136658,-0.08287048,0.995697,1.0,0.04200745,-0.08317566,0.995636,-31.63376,-1.570129,-30.77946,4.738388,0.4859416,0.6742163,1.0,0.03424072,-0.07958984,0.9962311,30.24638,2.237411,-30.86932,4.878418,0.5799156,0.5428494,0.05348468,1.181973,0.0522064,-0.02377991,-0.00494799,0.01620044,0.3256858,1.385433,31.307469150737962
2,0.05036926,-0.06628418,0.996521,1.0,0.05046082,-0.06625366,0.996521,-31.63524,-1.560425,-30.82857,4.797577,0.4845719,0.6714698,1.0,0.01376343,-0.07505798,0.9970703,30.22072,2.136078,-30.57532,4.90358,0.5840661,0.5427315,0.05338871,1.181995,0.05195475,-0.02382092,-0.004781044,0.0159207,0.3256858,1.385433,31.307469150737962
2,0.05088806,-0.06985474,0.9962463,1.0,0.05088806,-0.06985474,0.9962463,-31.63765,-1.575851,-30.79662,4.796829,0.4845791,0.6722937,1.0,0.0241394,-0.07313538,0.9970245,30.21812,2.120743,-30.55589,4.937607,0.5823685,0.5427461,0.05336297,1.182018,0.0518496,-0.0240063,-0.004766998,0.01582919,0.3256858,1.385433,31.307469150737962
2,0.05088806,-0.06985474,0.9962463,1.0,0.05088806,-0.06985474,0.9962463,-31.63765,-1.575851,-30.79662,4.796829,0.4845791,0.6722937,1.0,0.0241394,-0.07313538,0.9970245,30.21812,2.120743,-30.55589,4.937607,0.5823685,0.5427461,0.05336297,1.182018,0.0518496,-0.0240063,-0.004766998,0.01582919,0.3256858,1.385433,31.307469150737962
2,0.05119324,-0.0712738,0.9961395,1.0,0.05119324,-0.0712738,0.9961395,-31.63914,-1.568771,-30.80846,4.797028,0.4845791,0.672433,1.0,0.02854919,-0.06820679,0.9972534,30.22232,2.116898,-30.52057,4.941513,0.5814359,0.5416811,0.05340779,1.18215,0.05164731,-0.024447,-0.004839899,0.01556959,0.3256858,1.385433,31.307469150737962
2,0.04980469,-0.07084656,0.9962311,1.0,0.04981995,-0.07086182,0.9962311,-31.63889,-1.568268,-30.81096,4.799545,0.4848054,0.672366,1.0,0.03396606,-0.06314087,0.9974213,30.22012,2.11795,-30.51863,4.953247,0.5805876,0.5407525,0.05343962,1.182241,0.05155087,-0.02477005,-0.004779486,0.01535128,0.3256858,1.385433,31.307469150737962
2,0.04414368,-0.07032776,0.9965363,1.0,0.04695129,-0.07249451,0.9962616,-31.63741,-1.566605,-30.81104,4.798386,0.48524,0.6725922,1.0,0.03479004,-0.06312561,0.9973907,30.21648,2.123535,-30.52951,4.972412,0.5805876,0.5406781,0.05349135,1.182299,0.05142951,-0.02513137,-0.004776367,0.01516082,0.3256858,1.385433,31.307469150737962
2,0.04414368,-0.07032776,0.9965363,1.0,0.04695129,-0.07249451,0.9962616,-31.63741,-1.566605,-30.81104,4.798386,0.48524,0.6725922,1.0,0.03479004,-0.06312561,0.9973907,30.21648,2.123535,-30.52951,4.972412,0.5805876,0.5406781,0.05349135,1.182299,0.05142951,-0.02513137,-0.004776367,0.01516082,0.3256858,1.385433,31.307469150737962
3,0.04223633,-0.06799316,0.9967804,1.0,0.04794312,-0.07423401,0.9960785,-31.64066,-1.550018,-30.90559,4.777298,0.4851915,0.6733356,1.0,0.03512573,-0.0602417,0.9975586,30.21614,2.12381,-30.58228,4.982834,0.5805876,0.5406781,0.05353296,1.182456,0.05120319,-0.02588035,-0.004572344,0.01433534,0.3256858,1.385433,31.307469150737962
3,0.04223633,-0.06799316,0.9967804,1.0,0.04794312,-0.07423401,0.9960785,-31.64066,-1.550018,-30.90559,4.777298,0.4851915,0.6733356,1.0,0.03512573,-0.0602417,0.9975586,30.21614,2.12381,-30.58228,4.982834,0.5805876,0.5406781,0.05353296,1.182456,0.05120319,-0.02588035,-0.004572344,0.01433534,0.3256858,1.385433,31.307469150737962
3,0.04623413,-0.06533813,0.9967804,1.0,0.05076599,-0.07426453,0.9959412,-31.64885,-1.603638,-30.75465,4.87738,0.4849932,0.6736755,1.0,0.04022217,-0.05351257,0.9977417,30.22011,2.170105,-30.67723,4.857132,0.5796264,0.5387287,0.0537101,1.182627,0.05104995,-0.02635786,-0.004483488,0.01371051,0.3256858,1.385433,31.307469150737962
3,0.04623413,-0.06533813,0.9967804,1.0,0.05076599,-0.07426453,0.9959412,-31.64885,-1.603638,-30.75465,4.87738,0.4849932,0.6736755,1.0,0.04022217,-0.05351257,0.9977417,30.22011,2.170105,-30.67723,4.857132,0.5796264,0.5387287,0.0537101,1.182627,0.05104995,-0.02635786,-0.004483488,0.01371051,0.3256858,1.385433,31.307469150737962
3,0.0446167,-0.05256653,0.9976196,1.0,0.05363464,-0.08177185,0.9951935,-31.64326,-1.537155,-30.9278,4.899338,0.4843364,0.6745848,1.0,0.03437805,-0.01957703,0.9992065,30.2244,2.072952,-30.41537,5.226761,0.5803379,0.5339456,0.05384958,1.182755,0.05081284,-0.02686934,-0.004329626,0.01347758,0.3256858,-3.753407,31.307469150737962
3,0.0446167,-0.05256653,0.9976196,1.0,0.05363464,-0.08177185,0.9951935,-31.64326,-1.537155,-30.9278,4.899338,0.4843364,0.6745848,1.0,0.03437805,-0.01957703,0.9992065,30.2244,2.072952,-30.41537,5.226761,0.5803379,0.5339456,0.05384958,1.182755,0.05081284,-0.02686934,-0.004329626,0.01347758,0.3256858,-3.753407,31.307469150737962
3,0.0446167,-0.05256653,0.9976196,1.0,0.05363464,-0.08177185,0.9951935,-31.64326,-1.537155,-30.9278,4.899338,0.4843364,0.6745848,1.0,0.03437805,-0.01957703,0.9992065,30.2244,2.072952,-30.41537,5.226761,0.5803379,0.5339456,0.05384958,1.182755,0.05081284,-0.02686934,-0.004329626,0.01347758,0.3256858,-3.753407,31.307469150737962
3,0.0446167,-0.05256653,0.9976196,1.0,0.05363464,-0.08177185,0.9951935,-31.64326,-1.537155,-30.9278,4.899338,0.4843364,0.6745848,1.0,0.03437805,-0.01957703,0.9992065,30.2244,2.072952,-30.41537,5.226761,0.5803379,0.5339456,0.05404127,1.18292,0.05060875,-0.02743026,-0.004004205,0.01326248,0.3256858,-3.753407,31.307469150737962
3,-1.0,-1.0,-1.0,1.0,0.0,0.0,0.0,-32.62546,-1.904922,-30.84508,-1.0,0.5479082,0.6978278,1.0,0.0,0.0,0.0,29.61716,1.937988,-30.77834,-1.0,0.6214926,0.5604893,0.05418229,1.183127,0.05041933,-0.02817392,-0.003708608,0.01266535,0.3256858,-3.753407,31.307469150737962
3,-1.0,-1.0,-1.0,0.0,0.0,0.0,0.0,-33.45822,-2.062576,-31.04996,-1.0,0.6028604,0.7129944,0.2258508,0.0,0.0,0.0,29.61716,1.937988,-30.77834,-1.0,0.6487735,0.5757698,0.05435693,1.183357,0.05019885,-0.02934084,-0.003291375,0.01185591,0.3256858,-3.753407,31.307469150737962
3,-1.0,-1.0,-1.0,0.0,0.0,0.0,0.0,-33.45822,-2.062576,-31.04996,-1.0,0.6028604,0.7129944,0.2258508,0.0,0.0,0.0,29.61716,1.937988,-30.77834,-1.0,0.6487735,0.5757698,0.05435693,1.183357,0.05019885,-0.02934084,-0.003291375,0.01185591,0.3256858,-3.753407,31.307469150737962
3,-1.0,-1.0,-1.0,0.0,0.0,0.0,0.0,-33.23,-1.840942,-30.94411,-1.0,0.5875294,0.6959839,0.2347389,0.0,0.0,0.0,29.61716,1.937988,-30.77834,-1.0,-1.0,-1.0,0.05456257,1.183543,0.05002022,-0.03042099,-0.002828767,0.01076367,0.3256858,-3.753407,31.307469150737962
3,-1.0,-1.0,-1.0,0.0,0.0,0.0,0.0,-33.23,-1.840942,-30.94411,-1.0,0.5875294,0.6959839,0.2347389,0.0,0.0,0.0,29.61716,1.937988,-30.77834,-1.0,-1.0,-1.0,0.05456257,1.183543,0.05002022,-0.03042099,-0.002828767,0.01076367,0.3256858,-3.753407,31.307469150737962
3,-1.0,-1.0,-1.0,0.0,0.0,0.0,0.0,-33.23,-1.840942,-30.94411,-1.0,0.5875294,0.6959839,0.2347389,0.0,0.0,0.0,29.61716,1.937988,-30.77834,-1.0,-1.0,-1.0,0.05456257,1.183543,0.05002022,-0.03042099,-0.002828767,0.01076367,0.3256858,-3.753407,31.307469150737962
3,-1.0,-1.0,-1.0,0.3280511,0.0,0.0,0.0,-33.09167,-0.9812012,-30.68575,-1.0,0.5722067,0.6553673,0.4252025,0.0,0.0,0.0,28.75372,2.857193,-30.82816,-1.0,0.6885493,0.5166819,0.05485213,1.183572,0.04990304,-0.03080311,-0.002643605,0.009813572,0.3256858,-3.753407,31.307469150737962
3,-1.0,-1.0,-1.0,0.3280511,0.0,0.0,0.0,-33.09167,-0.9812012,-30.68575,-1.0,0.5722067,0.6553673,0.4252025,0.0,0.0,0.0,28.75372,2.857193,-30.82816,-1.0,0.6885493,0.5166819,0.05485213,1.183572,0.04990304,-0.03080311,-0.002643605,0.009813572,0.3256858,-3.753407,31.307469150737962
3,-1.0,-1.0,-1.0,0.3280511,0.0,0.0,0.0,-33.09167,-0.9812012,-30.68575,-1.0,0.5722067,0.6553673,0.4252025,0.0,0.0,0.0,28.75372,2.857193,-30.82816,-1.0,0.6885493,0.5166819,0.05485213,1.183572,0.04990304,-0.03080311,-0.002643605,0.009813572,0.3256858,-3.753407,31.307469150737962
3,-1.0,-1.0,-1.0,0.7487882,0.0,0.0,0.0,-33.02473,-1.060349,-30.70526,-1.0,0.5753831,0.6439936,0.6339141,0.0,0.0,0.0,28.78972,2.716751,-30.91299,-1.0,0.680996,0.4973037,0.05524409,1.183474,0.04987377,-0.03089657,-0.002398301,0.008678161,0.3256858,-3.753407,31.307469150737962
3,-1.0,-1.0,-1.0,0.7487882,0.0,0.0,0.0,-33.02473,-1.060349,-30.70526,-1.0,0.5753831,0.6439936,0.6339141,0.0,0.0,0.0,28.78972,2.716751,-30.91299,-1.0,0.680996,0.4973037,0.05524409,1.183474,0.04987377,-0.03089657,-0.002398301,0.008678161,0.3256858,-3.753407,31.307469150737962
3,-1.0,-1.0,-1.0,0.7487882,0.0,0.0,0.0,-33.02473,-1.060349,-30.70526,-1.0,0.5753831,0.6439936,0.6339141,0.0,0.0,0.0,28.78972,2.716751,-30.91299,-1.0,0.680996,0.4973037,0.05524409,1.183474,0.04987377,-0.03089657,-0.002398301,0.008678161,0.3256858,-3.753407,31.307469150737962
3,-0.2319794,0.0859375,0.9689026,0.8863827,-0.1882019,0.008239746,0.9820862,-33.02647,-1.168045,-30.55986,4.814407,0.5733635,0.6432078,0.7969447,-0.2490387,0.1169586,0.9613953,28.7775,2.687149,-30.92671,6.160873,0.6820998,0.4960399,0.05553877,1.183483,0.04988289,-0.03153953,-0.002013235,0.007762751,0.3256858,-3.322736,31.307469150737962
3,-0.2319794,0.0859375,0.9689026,0.8863827,-0.1882019,0.008239746,0.9820862,-33.02647,-1.168045,-30.55986,4.814407,0.5733635,0.6432078,0.7969447,-0.2490387,0.1169586,0.9613953,28.7775,2.687149,-30.92671,6.160873,0.6820998,0.4960399,0.05553877,1.183483,0.04988289,-0.03153953,-0.002013235,0.007762751,0.3256858,-3.322736,31.307469150737962
3,-0.2319794,0.0859375,0.9689026,0.8863827,-0.1882019,0.008239746,0.9820862,-33.02647,-1.168045,-30.55986,4.814407,0.5733635,0.6432078,0.7969447,-0.2490387,0.1169586,0.9613953,28.7775,2.687149,-30.92671,6.160873,0.6820998,0.4960399,0.05553877,1.183483,0.04988289,-0.03153953,-0.002013235,0.007762751,0.3256858,-3.322736,31.307469150737962
3,-0.2345276,0.0821991,0.9686127,0.9863486,-0.1883698,0.02178955,0.981842,-32.9855,-1.251266,-30.29581,5.016693,0.5716926,0.6411778,0.861571,-0.2352753,0.08317566,0.9683533,28.76863,2.60376,-30.90533,6.076813,0.679729,0.5043508,0.05589259,1.183262,0.04998404,-0.03153409,-0.001669286,0.007529868,0.3256858,-3.322736,31.307469150737962
3,-0.2345276,0.0821991,0.9686127,0.9863486,-0.1883698,0.02178955,0.981842,-32.9855,-1.251266,-30.29581,5.016693,0.5716926,0.6411778,0.861571,-0.2352753,0.08317566,0.9683533,28.76863,2.60376,-30.90533,6.076813,0.679729,0.5043508,0.05589259,1.183262,0.04998404,-0.03153409,-0.001669286,0.007529868,0.3256858,-3.322736,31.307469150737962
3,-0.2345276,0.0821991,0.9686127,0.9863486,-0.1883698,0.02178955,0.981842,-32.9855,-1.251266,-30.29581,5.016693,0.5716926,0.6411778,0.861571,-0.2352753,0.08317566,0.9683533,28.76863,2.60376,-30.90533,6.076813,0.679729,0.5043508,0.05589259,1.183262,0.04998404,-0.03153409,-0.001669286,0.007529868,0.3256858,-3.322736,31.307469150737962
3,-0.2049103,0.05171204,0.9774017,1.0,-0.1834412,0.02398682,0.9827271,-32.98936,-1.254074,-30.25554,5.26239,0.5708777,0.6407053,1.0,-0.2067261,0.05407715,0.9768982,28.80057,2.609512,-30.85567,5.848434,0.6732763,0.5082659,0.05626118,1.183106,0.04997313,-0.03139985,-0.001434001,0.007413196,0.3256858,-3.322736,31.307469150737962
3,-0.2049103,0.05171204,0.9774017,1.0,-0.1834412,0.02398682,0.9827271,-32.98936,-1.254074,-30.25554,5.26239,0.5708777,0.6407053,1.0,-0.2067261,0.05407715,0.9768982,28.80057,2.609512,-30.85567,5.848434,0.6732763,0.5082659,0.05626118,1.183106,0.04997313,-0.03139985,-0.001434001,0.007413196,0.3256858,-3.322736,31.307469150737962
3,-0.2049103,0.05171204,0.9774017,1.0,-0.1834412,0.02398682,0.9827271,-32.98936,-1.254074,-30.25554,5.26239,0.5708777,0.6407053,1.0,-0.2067261,0.05407715,0.9768982,28.80057,2.609512,-30.85567,5.848434,0.6732763,0.5082659,0.05626118,1.183106,0.04997313,-0.03139985,-0.001434001,0.007413196,0.3256858,-3.322736,31.307469150737962
3,-0.1911011,0.04182434,0.9806671,1.0,-0.1766968,0.03399658,0.9836731,-32.98242,-1.465195,-29.68237,5.281052,0.5690486,0.640256,1.0,-0.1929321,0.04283142,0.9802704,28.81427,2.605377,-30.82281,5.780731,0.6702484,0.509873,0.05666196,1.183085,0.0500164,-0.03121326,-0.001391816,0.006607602,0.3256858,-3.322736,31.307469150737962
3,-0.1911011,0.04182434,0.9806671,1.0,-0.1766968,0.03399658,0.9836731,-32.98242,-1.465195,-29.68237,5.281052,0.5690486,0.640256,1.0,-0.1929321,0.04283142,0.9802704,28.81427,2.605377,-30.82281,5.780731,0.6702484,0.509873,0.05666196,1.183085,0.0500164,-0.03121326,-0.001391816,0.006607602,0.3256858,-3.322736,31.307469150737962
3,-0.1911011,0.04182434,0.9806671,1.0,-0.1766968,0.03399658,0.9836731,-32.98242,-1.465195,-29.68237,5.281052,0.5690486,0.640256,1.0,-0.1929321,0.04283142,0.9802704,28.81427,2.605377,-30.82281,5.780731,0.6702484,0.509873,0.05666196,1.183085,0.0500164,-0.03121326,-0.001391816,0.006607602,0.3256858,-3.322736,31.307469150737962
3,-0.1937103,0.05226135,0.97966,1.0,-0.1802368,0.03007507,0.9831543,-32.97903,-1.404404,-29.82886,5.305008,0.5696145,0.6403977,1.0,-0.1937408,0.05232239,0.9796448,28.82196,2.606323,-30.84114,5.804214,0.6701756,0.5084116,0.05706036,1.182809,0.05014497,-0.03102628,-0.001519763,0.006213607,0.3256858,2.627858,31.307469150737962
3,-0.1937103,0.05226135,0.97966,1.0,-0.1802368,0.03007507,0.9831543,-32.97903,-1.404404,-29.82886,5.305008,0.5696145,0.6403977,1.0,-0.1937408,0.05232239,0.9796448,28.82196,2.606323,-30.84114,5.804214,0.6701756,0.5084116,0.05706036,1.182809,0.05014497,-0.03102628,-0.001519763,0.006213607,0.3256858,2.627858,31.307469150737962
3,-0.1937103,0.05226135,0.97966,1.0,-0.1802368,0.03007507,0.9831543,-32.97903,-1.404404,-29.82886,5.305008,0.5696145,0.6403977,1.0,-0.1937408,0.05232239,0.9796448,28.82196,2.606323,-30.84114,5.804214,0.6701756,0.5084116,0.05706036,1.182809,0.05014497,-0.03102628,-0.001519763,0.006213607,0.3256858,2.627858,31.307469150737962
3,-0.1924438,0.03630066,0.9806213,1.0,-0.1824951,0.03314209,0.9826355,-32.97493,-1.417526,-29.78674,5.309723,0.5698256,0.6399041,1.0,-0.1933746,0.03659058,0.9804382,28.82211,2.594955,-30.82918,5.680206,0.6700296,0.5113024,0.05746007,1.182631,0.05021906,-0.03057246,-0.00133163,0.005539088,0.3256858,2.627858,31.307469150737962
3,-0.1924438,0.03630066,0.9806213,1.0,-0.1824951,0.03314209,0.9826355,-32.97493,-1.417526,-29.78674,5.309723,0.5698256,0.6399041,1.0,-0.1933746,0.03659058,0.9804382,28.82211,2.594955,-30.82918,5.680206,0.6700296,0.5113024,0.05746007,1.182631,0.05021906,-0.03057246,-0.00133163,0.005539088,0.3256858,2.627858,31.307469150737962
3,-0.1924438,0.03630066,0.9806213,1.0,-0.1824951,0.03314209,0.9826355,-32.97493,-1.417526,-29.78674,5.309723,0.5698256,0.6399041,1.0,-0.1933746,0.03659058,0.9804382,28.82211,2.594955,-30.82918,5.680206,0.6700296,0.5113024,0.05746007,1.182631,0.05021906,-0.03057246,-0.00133163,0.005539088,0.3256858,2.627858,31.307469150737962
3,-0.1888733,0.03268433,0.9814453,1.0,-0.181778,0.03199768,0.9828033,-32.97903,-1.417526,-29.7693,5.30954,0.5698256,0.6399029,1.0,-0.1944122,0.03321838,0.9803467,28.82272,2.594955,-30.82671,5.641937,0.6701756,0.5118356,0.05784106,1.182678,0.05035073,-0.03039355,-0.0005320922,0.003927175,0.3256858,2.627858,31.307469150737962
3,-0.1888733,0.03268433,0.9814453,1.0,-0.181778,0.03199768,0.9828033,-32.97903,-1.417526,-29.7693,5.30954,0.5698256,0.6399029,1.0,-0.1944122,0.03321838,0.9803467,28.82272,2.594955,-30.82671,5.641937,0.6701756,0.5118356,0.05784106,1.182678,0.05035073,-0.03039355,-0.0005320922,0.003927175,0.3256858,2.627858,31.307469150737962
3,-0.1888733,0.03268433,0.9814453,1.0,-0.181778,0.03199768,0.9828033,-32.97903,-1.417526,-29.7693,5.30954,0.5698256,0.6399029,1.0,-0.1944122,0.03321838,0.9803467,28.82272,2.594955,-30.82671,5.641937,0.6701756,0.5118356,0.05784106,1.182678,0.05035073,-0.03039355,-0.0005320922,0.003927175,0.3256858,2.627858,31.307469150737962
3,-0.1927643,0.0276947,0.9808502,1.0,-0.1821136,0.03349304,0.9826965,-32.98109,-1.424377,-29.74316,5.311935,0.569935,0.6396241,1.0,-0.2022247,0.02252197,0.9790649,28.83737,2.646118,-30.82738,5.432312,0.671011,0.5118019,0.05834126,1.182656,0.05040783,-0.03073385,0.0,0.003007491,0.3256858,2.627858,31.307469150737962
3,-0.1927643,0.0276947,0.9808502,1.0,-0.1821136,0.03349304,0.9826965,-32.98109,-1.424377,-29.74316,5.311935,0.569935,0.6396241,1.0,-0.2022247,0.02252197,0.9790649,28.83737,2.646118,-30.82738,5.432312,0.671011,0.5118019,0.05834126,1.182656,0.05040783,-0.03073385,0.0,0.003007491,0.3256858,2.627858,31.307469150737962
3,-0.1927643,0.0276947,0.9808502,1.0,-0.1821136,0.03349304,0.9826965,-32.98109,-1.424377,-29.74316,5.311935,0.569935,0.6396241,1.0,-0.2022247,0.02252197,0.9790649,28.83737,2.646118,-30.82738,5.432312,0.671011,0.5118019,0.05834126,1.182656,0.05040783,-0.03073385,0.0,0.003007491,0.3256858,2.627858,31.307469150737962
3,-0.1892242,0.0296936,0.9814758,1.0,-0.1823578,0.03614807,0.9825592,-32.97963,-1.424377,-29.74165,5.291763,0.569935,0.6391314,1.0,-0.1963043,0.02301025,0.9802704,28.84833,2.646118,-30.83073,5.568741,0.6695766,0.5118019,0.05871439,1.182514,0.05048972,-0.03068557,0.0,0.001945481,0.3256858,2.627858,31.307469150737962
3,-0.1892242,0.0296936,0.9814758,1.0,-0.1823578,0.03614807,0.9825592,-32.97963,-1.424377,-29.74165,5.291763,0.569935,0.6391314,1.0,-0.1963043,0.02301025,0.9802704,28.84833,2.646118,-30.83073,5.568741,0.6695766,0.5118019,0.05871439,1.182514,0.05048972,-0.03068557,0.0,0.001945481,0.3256858,2.627858,31.307469150737962
3,-0.1892242,0.0296936,0.9814758,1.0,-0.1823578,0.03614807,0.9825592,-32.97963,-1.424377,-29.74165,5.291763,0.569935,0.6391314,1.0,-0.1963043,0.02301025,0.9802704,28.84833,2.646118,-30.83073,5.568741,0.6695766,0.5118019,0.05871439,1.182514,0.05048972,-0.03068557,0.0,0.001945481,0.3256858,2.627858,31.307469150737962
3,-0.1897736,0.0295105,0.981369,1.0,-0.1787109,0.03625488,0.9832306,-32.97903,-1.427963,-29.73198,5.28093,0.5692884,0.6390983,1.0,-0.2028656,0.02146912,0.9789581,28.86603,2.635941,-30.8322,5.575012,0.6700996,0.5124956,0.05921137,1.182286,0.05054557,-0.03052319,0.0,0.0009052976,0.3256858,2.627858,31.307469150737962
3,-0.1897736,0.0295105,0.981369,1.0,-0.1787109,0.03625488,0.9832306,-32.97903,-1.427963,-29.73198,5.28093,0.5692884,0.6390983,1.0,-0.2028656,0.02146912,0.9789581,28.86603,2.635941,-30.8322,5.575012,0.6700996,0.5124956,0.05921137,1.182286,0.05054557,-0.03052319,0.0,0.0009052976,0.3256858,2.627858,31.307469150737962
3,-0.1897736,0.0295105,0.981369,1.0,-0.1787109,0.03625488,0.9832306,-32.97903,-1.427963,-29.73198,5.28093,0.5692884,0.6390983,1.0,-0.2028656,0.02146912,0.9789581,28.86603,2.635941,-30.8322,5.575012,0.6700996,0.5124956,0.05921137,1.182286,0.05054557,-0.03052319,0.0,0.0009052976,0.3256858,2.627858,31.307469150737962
3,-0.1963806,-0.007919312,0.980484,1.0,-0.1963806,-0.007919312,0.980484,-33.02148,-1.271606,-29.94672,5.169083,0.5739071,0.6435865,1.0,0.0,0.0,0.0,28.92413,2.763153,-30.91985,-1.0,0.6833652,0.4939087,0.05969298,1.182092,0.05065477,-0.03027442,0.000422864,-0.0001726335,0.3256858,1.091287,31.307469150737962
3,-0.1963806,-0.007919312,0.980484,1.0,-0.1963806,-0.007919312,0.980484,-33.02148,-1.271606,-29.94672,5.169083,0.5739071,0.6435865,1.0,0.0,0.0,0.0,28.92413,2.763153,-30.91985,-1.0,0.6833652,0.4939087,0.05969298,1.182092,0.05065477,-0.03027442,0.000422864,-0.0001726335,0.3256858,1.091287,31.307469150737962
3,-0.1963806,-0.007919312,0.980484,1.0,-0.1963806,-0.007919312,0.980484,-33.02148,-1.271606,-29.94672,5.169083,0.5739071,0.6435865,1.0,0.0,0.0,0.0,28.92413,2.763153,-30.91985,-1.0,0.6833652,0.4939087,0.05969298,1.182092,0.05065477,-0.03027442,0.000422864,-0.0001726335,0.3256858,1.091287,31.307469150737962
3,-1.0,-1.0,-1.0,0.4281025,0.0,0.0,0.0,-32.60136,-2.373764,-29.99661,-1.0,0.5452839,0.7073744,0.4814869,0.0,0.0,0.0,29.08406,2.77919,-30.71893,-1.0,0.6946766,0.5522302,0.06009853,1.181901,0.05081832,-0.02990897,0.000422864,-0.001524658,0.3256858,1.091287,31.307469150737962
3,-1.0,-1.0,-1.0,0.4281025,0.0,0.0,0.0,-32.60136,-2.373764,-29.99661,-1.0,0.5452839,0.7073744,0.4814869,0.0,0.0,0.0,29.08406,2.77919,-30.71893,-1.0,0.6946766,0.5522302,0.06009853,1.181901,0.05081832,-0.02990897,0.000422864,-0.001524658,0.3256858,1.091287,31.307469150737962
3,-1.0,-1.0,-1.0,0.4281025,0.0,0.0,0.0,-32.60136,-2.373764,-29.99661,-1.0,0.5452839,0.7073744,0.4814869,0.0,0.0,0.0,29.08406,2.77919,-30.71893,-1.0,0.6946766,0.5522302,0.06009853,1.181901,0.05081832,-0.02990897,0.000422864,-0.001524658,0.3256858,1.091287,31.307469150737962
3,-1.0,-1.0,-1.0,0.0,0.0,0.0,0.0,-32.60136,-2.373764,-29.99661,-1.0,0.4945794,0.7425009,0.0,0.0,0.0,0.0,29.08406,2.77919,-30.71893,-1.0,0.4981403,0.6202893,0.06057239,1.18161,0.05106157,-0.02969823,0.0007221777,-0.003100201,0.3256858,1.091287,31.307469150737962
3,-1.0,-1.0,-1.0,0.0,0.0,0.0,0.0,-32.60136,-2.373764,-29.99661,-1.0,0.4945794,0.7425009,0.0,0.0,0.0,0.0,29.08406,2.77919,-30.71893,-1.0,0.4981403,0.6202893,0.06057239,1.18161,0.05106157,-0.02969823,0.0007221777,-0.003100201,0.3256858,1.091287,31.307469150737962
3,-1.0,-1.0,-1.0,0.0,0.0,0.0,0.0,-32.60136,-2.373764,-29.99661,-1.0,0.4945794,0.7425009,0.0,0.0,0.0,0.0,29.08406,2.77919,-30.71893,-1.0,0.4981403,0.6202893,0.06057239,1.18161,0.05106157,-0.02969823,0.0007221777,-0.003100201,0.3256858,1.091287,31.307469150737962
3,-1.0,-1.0,-1.0,0.0,0.0,0.0,0.0,-32.60136,-2.373764,-29.99661,-1.0,0.5003412,0.755689,0.0,0.0,0.0,0.0,29.08406,2.77919,-30.71893,-1.0,0.594466,0.6301404,0.06086802,1.181135,0.05133337,-0.02935886,0.0009611826,-0.005270272,0.3256858,1.091287,31.307469150737962
3,-1.0,-1.0,-1.0,0.0,0.0,0.0,0.0,-32.60136,-2.373764,-29.99661,-1.0,0.5003412,0.755689,0.0,0.0,0.0,0.0,29.08406,2.77919,-30.71893,-1.0,0.594466,0.6301404,0.06086802,1.181135,0.05133337,-0.02935886,0.0009611826,-0.005270272,0.3256858,1.091287,31.307469150737962
3,-1.0,-1.0,-1.0,0.0,0.0,0.0,0.0,-32.60136,-2.373764,-29.99661,-1.0,0.5003412,0.755689,0.0,0.0,0.0,0.0,29.08406,2.77919,-30.71893,-1.0,0.594466,0.6301404,0.06086802,1.181135,0.05133337,-0.02935886,0.0009611826,-0.005270272,0.3256858,1.091287,31.307469150737962
3,-1.0,-1.0,-1.0,0.0,0.0,0.0,0.0,-31.99626,-2.972946,-30.11771,-1.0,0.5056868,0.7466305,0.03484723,0.0,0.0,0.0,29.08406,2.77919,-30.71893,-1.0,0.5152783,0.6315815,0.06115377,1.18066,0.05173326,-0.02866626,0.00105716,-0.007608614,0.3256858,1.091287,31.307469150737962
3,-1.0,-1.0,-1.0,0.0,0.0,0.0,0.0,-31.99626,-2.972946,-30.11771,-1.0,0.5056868,0.7466305,0.03484723,0.0,0.0,0.0,29.08406,2.77919,-30.71893,-1.0,0.5152783,0.6315815,0.06115377,1.18066,0.05173326,-0.02866626,0.00105716,-0.007608614,0.3256858,1.091287,31.307469150737962
3,-1.0,-1.0,-1.0,0.0,0.0,0.0,0.0,-31.99626,-2.972946,-30.11771,-1.0,0.5056868,0.7466305,0.03484723,0.0,0.0,0.0,29.08406,2.77919,-30.71893,-1.0,0.5152783,0.6315815,0.06115377,1.18066,0.05173326,-0.02866626,0.00105716,-0.007608614,0.3256858,1.091287,31.307469150737962
3,-1.0,-1.0,-1.0,0.1905212,0.0,0.0,0.0,-32.0304,-2.33165,-29.92561,-1.0,0.5070087,0.7327802,0.2540632,0.0,0.0,0.0,29.78049,1.239548,-30.9095,-1.0,0.6075854,0.6032004,0.06126654,1.180425,0.05223495,-0.0277897,0.0008631675,-0.008935347,0.3256858,-9.080341,32.83
3,-1.0,-1.0,-1.0,0.1905212,0.0,0.0,0.0,-32.0304,-2.33165,-29.92561,-1.0,0.5070087,0.7327802,0.2540632,0.0,0.0,0.0,29.78049,1.239548,-30.9095,-1.0,0.6075854,0.6032004,0.06126654,1.180425,0.05223495,-0.0277897,0.0008631675,-0.008935347,0.3256858,-9.080341,32.83
3,-1.0,-1.0,-1.0,0.1905212,0.0,0.0,0.0,-32.0304,-2.33165,-29.92561,-1.0,0.5070087,0.7327802,0.2540632,0.0,0.0,0.0,29.78049,1.239548,-30.9095,-1.0,0.6075854,0.6032004,0.06126654,1.180425,0.05223495,-0.0277897,0.0008631675,-0.008935347,0.3256858,-9.080341,32.83
3,-1.0,-1.0,-1.0,0.4343016,0.0,0.0,0.0,-31.98735,-2.384781,-29.94254,-1.0,0.5047573,0.7351075,0.3943914,0.0,0.0,0.0,29.99071,1.832123,-30.79361,-1.0,0.614721,0.5813369,0.06134999,1.180296,0.05284435,-0.02732494,0.0,-0.009492488,0.3256858,-9.080341,32.83
3,-1.0,-1.0,-1.0,0.4343016,0.0,0.0,0.0,-31.98735,-2.384781,-29.94254,-1.0,0.5047573,0.7351075,0.3943914,0.0,0.0,0.0,29.99071,1.832123,-30.79361,-1.0,0.614721,0.5813369,0.06134999,1.180296,0.05284435,-0.02732494,0.0,-0.009492488,0.3256858,-9.080341,32.83
3,-1.0,-1.0,-1.0,0.4343016,0.0,0.0,0.0,-31.98735,-2.384781,-29.94254,-1.0,0.5047573,0.7351075,0.3943914,0.0,0.0,0.0,29.99071,1.832123,-30.79361,-1.0,0.614721,0.5813369,0.06134999,1.180296,0.05284435,-0.02732494,0.0,-0.009492488,0.3256858,-9.080341,32.83
3,-0.06872559,-0.2944641,0.9531708,0.6002526,-0.02485657,-0.3391266,0.9403992,-32.00189,-2.340866,-29.93242,4.247513,0.5097637,0.7390465,0.5331362,-0.1513672,-0.2062225,0.9667206,30.0146,1.789642,-30.77156,5.633194,0.6198241,0.5811301,0.06130731,1.180212,0.05341482,-0.02678157,-0.00029901,-0.00968903,0.3256858,-9.080341,32.83
3,-0.06872559,-0.2944641,0.9531708,0.6002526,-0.02485657,-0.3391266,0.9403992,-32.00189,-2.340866,-29.93242,4.247513,0.5097637,0.7390465,0.5331362,-0.1513672,-0.2062225,0.9667206,30.0146,1.789642,-30.77156,5.633194,0.6198241,0.5811301,0.06130731,1.180212,0.05341482,-0.02678157,-0.00029901,-0.00968903,0.3256858,-9.080341,32.83
3,-0.06872559,-0.2944641,0.9531708,0.6002526,-0.02485657,-0.3391266,0.9403992,-32.00189,-2.340866,-29.93242,4.247513,0.5097637,0.7390465,0.5331362,-0.1513672,-0.2062225,0.9667206,30.0146,1.789642,-30.77156,5.633194,0.6198241,0.5811301,0.06130731,1.180212,0.05341482,-0.02678157,-0.00029901,-0.00968903,0.3256858,-9.080341,32.83
3,-0.004989624,-0.2540436,0.9671631,0.7327026,0.01152039,-0.2812347,0.9595642,-32.00488,-2.411484,-29.95381,4.608475,0.5037195,0.7307484,0.6586579,-0.04264832,-0.19104,0.9806519,29.83539,1.490799,-30.83972,5.54335,0.6070288,0.5885323,0.06125176,1.179921,0.0540486,-0.02605451,-0.001726335,-0.00917722,0.3256858,-9.080341,32.83
3,-0.004989624,-0.2540436,0.9671631,0.7327026,0.01152039,-0.2812347,0.9595642,-32.00488,-2.411484,-29.95381,4.608475,0.5037195,0.7307484,0.6586579,-0.04264832,-0.19104,0.9806519,29.83539,1.490799,-30.83972,5.54335,0.6070288,0.5885323,0.06125176,1.179921,0.0540486,-0.02605451,-0.001726335,-0.00917722,0.3256858,-9.080341,32.83
3,-0.004989624,-0.2540436,0.9671631,0.7327026,0.01152039,-0.2812347,0.9595642,-32.00488,-2.411484,-29.95381,4.608475,0.5037195,0.7307484,0.6586579,-0.04264832,-0.19104,0.9806519,29.83539,1.490799,-30.83972,5.54335,0.6070288,0.5885323,0.06125176,1.179921,0.0540486,-0.02605451,-0.001726335,-0.00917722,0.3256858,-9.080341,32.83
3,-0.03414917,-0.2392883,0.9703369,0.8404677,-0.01078796,-0.2666626,0.9637146,-32.02887,-2.421371,-29.96126,4.714035,0.5083195,0.7285063,0.7035663,-0.1269379,-0.1267548,0.9837646,30.02843,1.724686,-30.96173,5.972137,0.6153416,0.5711379,0.06125009,1.17962,0.0546509,-0.02468719,-0.003145532,-0.008875107,0.3256858,-9.080341,32.83
3,-0.03414917,-0.2392883,0.9703369,0.8404677,-0.01078796,-0.2666626,0.9637146,-32.02887,-2.421371,-29.96126,4.714035,0.5083195,0.7285063,0.7035663,-0.1269379,-0.1267548,0.9837646,30.02843,1.724686,-30.96173,5.972137,0.6153416,0.5711379,0.06125009,1.17962,0.0546509,-0.02468719,-0.003145532,-0.008875107,0.3256858,-9.080341,32.83
3,-0.03414917,-0.2392883,0.9703369,0.8404677,-0.01078796,-0.2666626,0.9637146,-32.02887,-2.421371,-29.96126,4.714035,0.5083195,0.7285063,0.7035663,-0.1269379,-0.1267548,0.9837646,30.02843,1.724686,-30.96173,5.972137,0.6153416,0.5711379,0.06125009,1.17962,0.0546509,-0.02468719,-0.003145532,-0.008875107,0.3256858,-9.080341,32.83
3,-0.03633118,-0.1789703,0.9831696,0.8599884,-0.02383423,-0.1903992,0.9814148,-32.04201,-2.446152,-29.98683,5.146606,0.5109679,0.7158464,0.7649009,-0.1030273,-0.1169739,0.9877625,29.97507,1.725632,-30.90617,6.04808,0.6130742,0.5687447,0.0612874,1.179378,0.05499947,-0.02370428,-0.004360491,-0.008870069,0.3256858,-9.080341,32.83
3,-0.03633118,-0.1789703,0.9831696,0.8599884,-0.02383423,-0.1903992,0.9814148,-32.04201,-2.446152,-29.98683,5.146606,0.5109679,0.7158464,0.7649009,-0.1030273,-0.1169739,0.9877625,29.97507,1.725632,-30.90617,6.04808,0.6130742,0.5687447,0.0612874,1.179378,0.05499947,-0.02370428,-0.004360491,-0.008870069,0.3256858,-9.080341,32.83
3,-0.0380249,-0.2042847,0.9781647,0.8864931,-0.01846313,-0.2337799,0.9721069,-32.04041,-2.466919,-29.98648,4.823257,0.5100155,0.72433,0.7810512,-0.09925842,-0.1097565,0.9889832,29.95587,1.679977,-30.87367,6.051498,0.6130742,0.5687447,0.06125462,1.1791,0.05521381,-0.02286465,-0.005376639,-0.008870069,0.3256858,9.418259,32.83
3,-0.0380249,-0.2042847,0.9781647,0.8864931,-0.01846313,-0.2337799,0.9721069,-32.04041,-2.466919,-29.98648,4.823257,0.5100155,0.72433,0.7810512,-0.09925842,-0.1097565,0.9889832,29.95587,1.679977,-30.87367,6.051498,0.6130742,0.5687447,0.06125462,1.1791,0.05521381,-0.02286465,-0.005376639,-0.008870069,0.3256858,9.418259,32.83
3,-0.03611755,-0.1945496,0.9802246,0.9269789,-0.01901245,-0.2217712,0.9748993,-32.0569,-2.435638,-29.9744,5.186356,0.5106793,0.7211017,0.8067166,-0.07011414,-0.1396179,0.9877167,29.94714,1.696854,-30.86278,5.775452,0.6083905,0.5730087,0.06134808,1.17882,0.05550158,-0.02197266,-0.00660309,-0.00932061,0.3256858,9.418259,32.83
3,-0.03611755,-0.1945496,0.9802246,0.9269789,-0.01901245,-0.2217712,0.9748993,-32.0569,-2.435638,-29.9744,5.186356,0.5106793,0.7211017,0.8067166,-0.07011414,-0.1396179,0.9877167,29.94714,1.696854,-30.86278,5.775452,0.6083905,0.5730087,0.06134808,1.17882,0.05550158,-0.02197266,-0.00660309,-0.00932061,0.3256858,9.418259,32.83
3,-0.05511475,-0.1913452,0.9799652,1.0,-0.03820801,-0.2117157,0.9765778,-32.07347,-2.443604,-29.98438,4.972046,0.5144771,0.7195439,1.0,-0.07594299,-0.1659851,0.9831848,29.98756,1.705643,-30.85947,5.398972,0.6079393,0.5771671,0.06148684,1.178578,0.05568087,-0.02093319,-0.007349607,-0.009486208,0.3256858,9.418259,32.83
3,-0.05511475,-0.1913452,0.9799652,1.0,-0.03820801,-0.2117157,0.9765778,-32.07347,-2.443604,-29.98438,4.972046,0.5144771,0.7195439,1.0,-0.07594299,-0.1659851,0.9831848,29.98756,1.705643,-30.85947,5.398972,0.6079393,0.5771671,0.06148684,1.178578,0.05568087,-0.02093319,-0.007349607,-0.009486208,0.3256858,9.418259,32.83
3,-0.0524292,-0.1949463,0.9794006,1.0,-0.03684998,-0.2119904,0.9765625,-32.08565,-2.444122,-29.99628,5.103699,0.5146738,0.7198441,1.0,-0.07286072,-0.1723938,0.9823151,29.95734,1.725647,-30.88445,5.292038,0.608509,0.5778075,0.0616039,1.178465,0.05564785,-0.02021582,-0.007972976,-0.01001125,0.3256858,9.418259,32.83
3,-0.0524292,-0.1949463,0.9794006,1.0,-0.03684998,-0.2119904,0.9765625,-32.08565,-2.444122,-29.99628,5.103699,0.5146738,0.7198441,1.0,-0.07286072,-0.1723938,0.9823151,29.95734,1.725647,-30.88445,5.292038,0.608509,0.5778075,0.0616039,1.178465,0.05564785,-0.02021582,-0.007972976,-0.01001125,0.3256858,9.418259,32.83
4,-0.06462097,-0.1920471,0.979248,1.0,-0.0383606,-0.2360382,0.9709778,-32.09235,-2.41217,-29.98473,5.045303,0.5151674,0.7229834,1.0,-0.1087189,-0.116333,0.9872284,29.9512,1.786392,-31.04636,5.754654,0.6150612,0.5677631,0.0617336,1.178348,0.05575234,-0.01968817,-0.0086118,-0.01064954,0.3256858,9.418259,32.83
4,-0.06462097,-0.1920471,0.979248,1.0,-0.0383606,-0.2360382,0.9709778,-32.09235,-2.41217,-29.98473,5.045303,0.5151674,0.7229834,1.0,-0.1087189,-0.116333,0.9872284,29.9512,1.786392,-31.04636,5.754654,0.6150612,0.5677631,0.0617336,1.178348,0.05575234,-0.01968817,-0.0086118,-0.01064954,0.3256858,9.418259,32.83
4,-0.05386353,-0.2016449,0.9779663,1.0,-0.034729,-0.230011,0.9725647,-32.09299,-2.388748,-29.98228,5.036789,0.5145727,0.720995,1.0,-0.08322144,-0.1574554,0.9840088,29.92776,1.741379,-30.89468,5.401047,0.6113442,0.5747891,0.06183326,1.178337,0.05577946,-0.01950147,-0.00887175,-0.01127153,0.3256858,9.418259,32.83
4,-0.05386353,-0.2016449,0.9779663,1.0,-0.034729,-0.230011,0.9725647,-32.09299,-2.388748,-29.98228,5.036789,0.5145727,0.720995,1.0,-0.08322144,-0.1574554,0.9840088,29.92776,1.741379,-30.89468,5.401047,0.6113442,0.5747891,0.06183326,1.178337,0.05577946,-0.01950147,-0.00887175,-0.01127153,0.3256858,9.418259,32.83
4,-0.04994202,-0.201004,0.978302,1.0,-0.0353241,-0.2326965,0.9718933,-32.09178,-2.375702,-29.97871,5.037018,0.5146323,0.720995,1.0,-0.06903076,-0.1590271,0.984848,29.92755,1.75206,-30.90895,5.399689,0.6089376,0.5747891,0.06195104,1.178419,0.05584264,-0.01955717,-0.009381165,-0.01179859,0.3256858,9.418259,32.83
4,-0.04994202,-0.201004,0.978302,1.0,-0.0353241,-0.2326965,0.9718933,-32.09178,-2.375702,-29.97871,5.037018,0.5146323,0.720995,1.0,-0.06903076,-0.1590271,0.984848,29.92755,1.75206,-30.90895,5.399689,0.6089376,0.5747891,0.06195104,1.178419,0.05584264,-0.01955717,-0.009381165,-0.01179859,0.3256858,9.418259,32.83
4,-0.05581665,-0.1869659,0.9807739,1.0,-0.03242493,-0.2175446,0.9754944,-32.07492,-2.320175,-29.97151,5.208847,0.5135477,0.716268,1.0,-0.08482361,-0.1485138,0.98526,29.92766,1.763336,-30.91373,5.40358,0.6116421,0.5726348,0.06187642,1.178606,0.05588573,-0.01988922,-0.009905763,-0.01218932,0.3256858,9.418259,32.83
4,-0.05581665,-0.1869659,0.9807739,1.0,-0.03242493,-0.2175446,0.9754944,-32.07492,-2.320175,-29.97151,5.208847,0.5135477,0.716268,1.0,-0.08482361,-0.1485138,0.98526,29.92766,1.763336,-30.91373,5.40358,0.6116421,0.5726348,0.06187642,1.178606,0.05588573,-0.01988922,-0.009905763,-0.01218932,0.3256858,9.418259,32.83
4,-0.05334473,-0.2039948,0.9775085,0.9710849,-0.03695679,-0.2227936,0.9741516,-32.06247,-2.314529,-29.96881,5.1064,0.5138786,0.7169477,0.8582972,-0.07214355,-0.1822357,0.9805908,29.94434,1.780014,-30.91884,5.147125,0.6088898,0.5779585,0.06170595,1.178865,0.05595481,-0.02051835,-0.01073594,-0.01242542,0.3256858,9.961197,32.83
4,-0.05334473,-0.2039948,0.9775085,0.9710849,-0.03695679,-0.2227936,0.9741516,-32.06247,-2.314529,-29.96881,5.1064,0.5138786,0.7169477,0.8582972,-0.07214355,-0.1822357,0.9805908,29.94434,1.780014,-30.91884,5.147125,0.6088898,0.5779585,0.06170595,1.178865,0.05595481,-0.02051835,-0.01073594,-0.01242542,0.3256858,9.961197,32.83
4,-0.01147461,-0.1539612,0.9880066,0.9291264,-0.0004425049,-0.1633911,0.986557,-31.8208,-2.214752,-29.97604,5.203964,0.4994003,0.7026735,0.8383746,-0.07997131,-0.09472656,0.9922791,30.13666,2.067871,-31.44121,5.97908,0.6040126,0.5580144,0.0614984,1.179135,0.05601096,-0.02131237,-0.01170475,-0.01243081,0.3256858,9.961197,32.83
4,-0.01147461,-0.1539612,0.9880066,0.9291264,-0.0004425049,-0.1633911,0.986557,-31.8208,-2.214752,-29.97604,5.203964,0.4994003,0.7026735,0.8383746,-0.07997131,-0.09472656,0.9922791,30.13666,2.067871,-31.44121,5.97908,0.6040126,0.5580144,0.0614984,1.179135,0.05601096,-0.02131237,-0.01170475,-0.01243081,0.3256858,9.961197,32.83
4,0.04316711,-0.163681,0.9855652,0.9291264,0.04917908,-0.1724854,0.9837799,-31.59839,-2.095779,-29.96263,5.151245,0.4834092,0.6999057,0.8383746,-0.001998901,-0.09718323,0.9952545,30.28847,1.941422,-30.57683,5.970581,0.5845739,0.5540892,0.06116021,1.179277,0.05601537,-0.02174291,-0.0128667,-0.01230914,0.3256858,9.961197,32.83
4,0.04316711,-0.163681,0.9855652,0.9291264,0.04917908,-0.1724854,0.9837799,-31.59839,-2.095779,-29.96263,5.151245,0.4834092,0.6999057,0.8383746,-0.001998901,-0.09718323,0.9952545,30.28847,1.941422,-30.57683,5.970581,0.5845739,0.5540892,0.06116021,1.179277,0.05601537,-0.02174291,-0.0128667,-0.01230914,0.3256858,9.961197,32.83
4,0.04316711,-0.163681,0.9855652,0.9291264,0.04917908,-0.1724854,0.9837799,-31.59839,-2.095779,-29.96263,5.151245,0.4834092,0.6999057,0.8383746,-0.001998901,-0.09718323,0.9952545,30.28847,1.941422,-30.57683,5.970581,0.5845739,0.5540892,0.06068456,1.179377,0.05612791,-0.02207853,-0.01431453,-0.01269825,0.3256858,9.961197,32.83
4,0.04316711,-0.163681,0.9855652,0.9291264,0.04917908,-0.1724854,0.9837799,-31.59839,-2.095779,-29.96263,5.151245,0.4834092,0.6999057,0.8383746,-0.001998901,-0.09718323,0.9952545,30.28847,1.941422,-30.57683,5.970581,0.5845739,0.5540892,0.06068456,1.179377,0.05612791,-0.02207853,-0.01431453,-0.01269825,0.3256858,9.961197,32.83
4,0.04316711,-0.163681,0.9855652,0.9291264,0.04917908,-0.1724854,0.9837799,-31.59839,-2.095779,-29.96263,5.151245,0.4834092,0.6999057,0.8383746,-0.001998901,-0.09718323,0.9952545,30.28847,1.941422,-30.57683,5.970581,0.5845739,0.5540892,0.0600673,1.179427,0.05626541,-0.02212169,-0.01584612,-0.01364078,0.3256858,9.961197,32.83
4,0.04316711,-0.163681,0.9855652,0.9291264,0.04917908,-0.1724854,0.9837799,-31.59839,-2.095779,-29.96263,5.151245,0.4834092,0.6999057,0.8383746,-0.001998901,-0.09718323,0.9952545,30.28847,1.941422,-30.57683,5.970581,0.5845739,0.5540892,0.0600673,1.179427,0.05626541,-0.02212169,-0.01584612,-0.01364078,0.3256858,9.961197,32.83
4,0.08769226,-0.1539917,0.9841614,0.8685673,0.08782959,-0.1542206,0.9841156,-31.19574,-2.004303,-30.04201,5.316696,0.4630452,0.6944449,0.7529056,0.06257629,-0.1118622,0.991745,30.68111,2.199631,-31.27985,5.404892,0.5602217,0.5541587,0.05930364,1.179401,0.05626976,-0.02165639,-0.01770398,-0.01466369,0.3256858,9.961197,32.83
4,0.08769226,-0.1539917,0.9841614,0.8685673,0.08782959,-0.1542206,0.9841156,-31.19574,-2.004303,-30.04201,5.316696,0.4630452,0.6944449,0.7529056,0.06257629,-0.1118622,0.991745,30.68111,2.199631,-31.27985,5.404892,0.5602217,0.5541587,0.05930364,1.179401,0.05626976,-0.02165639,-0.01770398,-0.01466369,0.3256858,9.961197,32.83
4,0.08320618,-0.1425018,0.9862823,0.9197266,0.08343506,-0.1427155,0.9862366,-31.21318,-2.044693,-30.08154,5.261597,0.4643702,0.6941814,0.8395005,0.03936768,-0.1019745,0.9940033,30.69783,2.251846,-31.5386,5.572037,0.5638238,0.5532372,0.05839527,1.179509,0.05624712,-0.02136509,-0.02001023,-0.01493504,0.3256858,9.961197,32.83
4,0.08320618,-0.1425018,0.9862823,0.9197266,0.08343506,-0.1427155,0.9862366,-31.21318,-2.044693,-30.08154,5.261597,0.4643702,0.6941814,0.8395005,0.03936768,-0.1019745,0.9940033,30.69783,2.251846,-31.5386,5.572037,0.5638238,0.5532372,0.05839527,1.179509,0.05624712,-0.02136509,-0.02001023,-0.01493504,0.3256858,9.961197,32.83
4,0.0823822,-0.1422729,0.9863892,0.9334911,0.084198,-0.1428528,0.986145,-31.217,-2.043793,-30.08324,5.242874,0.4643702,0.6941814,0.8608679,0.04983521,-0.1319275,0.9899902,30.69928,2.174408,-31.32079,5.385559,0.5617809,0.5589753,0.05747283,1.179745,0.0563643,-0.02101773,-0.02293006,-0.01460106,0.3256858,-16.62,32.83
4,0.0823822,-0.1422729,0.9863892,0.9334911,0.084198,-0.1428528,0.986145,-31.217,-2.043793,-30.08324,5.242874,0.4643702,0.6941814,0.8608679,0.04983521,-0.1319275,0.9899902,30.69928,2.174408,-31.32079,5.385559,0.5617809,0.5589753,0.05747283,1.179745,0.0563643,-0.02101773,-0.02293006,-0.01460106,0.3256858,-16.62,32.83
4,0.07688904,-0.1451874,0.9864044,0.9372903,0.08531189,-0.1496735,0.9850311,-31.22835,-2.039795,-30.09941,5.203278,0.4645636,0.6954098,0.8817168,0.04512024,-0.1281738,0.9907227,30.70372,2.190781,-31.40425,5.38887,0.5624885,0.5585709,0.0564369,1.179974,0.05655485,-0.02099645,-0.02583713,-0.01428223,0.3256858,-16.62,32.83
4,0.07688904,-0.1451874,0.9864044,0.9372903,0.08531189,-0.1496735,0.9850311,-31.22835,-2.039795,-30.09941,5.203278,0.4645636,0.6954098,0.8817168,0.04512024,-0.1281738,0.9907227,30.70372,2.190781,-31.40425,5.38887,0.5624885,0.5585709,0.0564369,1.179974,0.05655485,-0.02099645,-0.02583713,-0.01428223,0.3256858,-16.62,32.83
4,0.08348083,-0.1489716,0.9853058,0.9528818,0.08441162,-0.1495667,0.9851379,-31.23613,-2.030655,-30.10168,5.226395,0.4649905,0.6951147,0.8738839,0.04556274,-0.1245422,0.9911652,30.72191,2.400818,-32.21233,5.144669,0.562295,0.5584605,0.05521905,1.180103,0.05674404,-0.02112698,-0.02908093,-0.0139053,0.3256858,-16.62,32.83
4,0.08348083,-0.1489716,0.9853058,0.9528818,0.08441162,-0.1495667,0.9851379,-31.23613,-2.030655,-30.10168,5.226395,0.4649905,0.6951147,0.8738839,0.04556274,-0.1245422,0.9911652,30.72191,2.400818,-32.21233,5.144669,0.562295,0.5584605,0.05521905,1.180103,0.05674404,-0.02112698,-0.02908093,-0.0139053,0.3256858,-16.62,32.83
4,0.08348083,-0.1489716,0.9853058,0.9528818,0.08441162,-0.1495667,0.9851379,-31.23613,-2.030655,-30.10168,5.226395,0.4649905,0.6951147,0.8738839,0.04556274,-0.1245422,0.9911652,30.72191,2.400818,-32.21233,5.144669,0.562295,0.5584605,0.05521905,1.180103,0.05674404,-0.02112698,-0.02908093,-0.0139053,0.3256858,-16.62,32.83
4,0.07975769,-0.1503296,0.9853973,0.9561724,0.08169556,-0.1508026,0.9851685,-31.25017,-2.020996,-30.11388,5.213806,0.4659303,0.6951147,0.8791904,0.004379272,-0.1317749,0.9912567,30.67499,2.208328,-31.63736,5.212051,0.5706112,0.5608283,0.05397546,1.180228,0.05682689,-0.02129314,-0.03310807,-0.01319207,0.3256858,-16.62,32.83
4,0.07711792,-0.1503754,0.985611,0.9561724,0.07823181,-0.1515503,0.9853363,-31.25961,-2.020782,-30.12837,5.223663,0.466841,0.6954098,0.8791904,0.03263855,-0.1030273,0.9941406,30.65698,2.158875,-31.46764,5.131042,0.5662487,0.5557041,0.05258441,1.180364,0.05700696,-0.0216839,-0.03794286,-0.0128748,0.3256858,-16.62,32.83
4,0.07711792,-0.1503754,0.985611,0.9561724,0.07823181,-0.1515503,0.9853363,-31.25961,-2.020782,-30.12837,5.223663,0.466841,0.6954098,0.8791904,0.03263855,-0.1030273,0.9941406,30.65698,2.158875,-31.46764,5.131042,0.5662487,0.5557041,0.05258441,1.180364,0.05700696,-0.0216839,-0.03794286,-0.0128748,0.3256858,-16.62,32.83
4,0.07243347,-0.1512451,0.9858246,0.9598558,0.07310486,-0.1511078,0.9857941,-31.27518,-2.020782,-30.13611,5.22493,0.468242,0.6954098,0.9063871,0.02609253,-0.1597443,0.9868011,30.64034,2.09639,-31.25119,5.016022,0.5677777,0.5657912,0.0511471,1.18056,0.05719018,-0.02241245,-0.0436657,-0.01309513,0.3256858,-16.62,32.83
4,0.07243347,-0.1512451,0.9858246,0.9598558,0.07310486,-0.1511078,0.9857941,-31.27518,-2.020782,-30.13611,5.22493,0.468242,0.6954098,0.9063871,0.02609253,-0.1597443,0.9868011,30.64034,2.09639,-31.25119,5.016022,0.5677777,0.5657912,0.0511471,1.18056,0.05719018,-0.02241245,-0.0436657,-0.01309513,0.3256858,-16.62,32.83
4,0.04182434,-0.1346436,0.9900055,0.9225305,0.04641724,-0.136322,0.989563,-31.33858,-2.036972,-30.22939,5.312546,0.4749279,0.6944131,0.9059426,0.01519775,-0.1248474,0.9920502,30.63737,2.134933,-31.36342,5.050339,0.5698366,0.5593492,0.04960811,1.180772,0.05731308,-0.02285227,-0.05019183,-0.01407466,0.3256858,-16.62,32.83
4,0.04182434,-0.1346436,0.9900055,0.9225305,0.04641724,-0.136322,0.989563,-31.33858,-2.036972,-30.22939,5.312546,0.4749279,0.6944131,0.9059426,0.01519775,-0.1248474,0.9920502,30.63737,2.134933,-31.36342,5.050339,0.5698366,0.5593492,0.04960811,1.180772,0.05731308,-0.02285227,-0.05019183,-0.01407466,0.3256858,-16.62,32.83
4,0.02919006,-0.111145,0.9933624,0.9425924,0.03831482,-0.1191559,0.9921265,-31.39305,-2.018448,-30.35664,5.363419,0.4781877,0.6921566,0.9197494,0.006332397,-0.09104919,0.9958191,30.5912,2.117706,-31.39406,5.278397,0.5730463,0.5544218,0.04801178,1.180793,0.05746919,-0.02268275,-0.05723523,-0.01479621,0.3256858,-16.62,32.83
4,0.02919006,-0.111145,0.9933624,0.9425924,0.03831482,-0.1191559,0.9921265,-31.39305,-2.018448,-30.35664,5.363419,0.4781877,0.6921566,0.9197494,0.006332397,-0.09104919,0.9958191,30.5912,2.117706,-31.39406,5.278397,0.5730463,0.5544218,0.04801178,1.180793,0.05746919,-0.02268275,-0.05723523,-0.01479621,0.3256858,-16.62,32.83
4,0.01164246,-0.1147461,0.9933167,0.9047313,0.04100037,-0.1398773,0.9893036,-31.48143,-2.054611,-30.30228,5.057053,0.4807556,0.6962636,0.9078895,-0.02838135,-0.08023071,0.9963684,30.48726,2.057205,-31.209,5.633987,0.5825392,0.5531086,0.04644632,1.180822,0.05757588,-0.02243638,-0.06446955,-0.01479118,0.3256858,-35.69275,32.83
4,0.01164246,-0.1147461,0.9933167,0.9047313,0.04100037,-0.1398773,0.9893036,-31.48143,-2.054611,-30.30228,5.057053,0.4807556,0.6962636,0.9078895,-0.02838135,-0.08023071,0.9963684,30.48726,2.057205,-31.209,5.633987,0.5825392,0.5531086,0.04644632,1.180822,0.05757588,-0.02243638,-0.06446955,-0.01479118,0.3256858,-35.69275,32.83
4,0.0171051,-0.1619873,0.9866333,0.8994406,0.02865601,-0.1709747,0.984848,-31.55132,-2.047821,-30.21165,5.068573,0.4852375,0.7006453,0.8549439,-0.02433777,-0.1294403,0.9912872,30.44835,2.136154,-31.41138,5.550522,0.5833964,0.5609599,0.04493189,1.180935,0.05768788,-0.02276734,-0.07173228,-0.01457603,0.3256858,-35.69275,32.83
4,0.0171051,-0.1619873,0.9866333,0.8994406,0.02865601,-0.1709747,0.984848,-31.55132,-2.047821,-30.21165,5.068573,0.4852375,0.7006453,0.8549439,-0.02433777,-0.1294403,0.9912872,30.44835,2.136154,-31.41138,5.550522,0.5833964,0.5609599,0.04493189,1.180935,0.05768788,-0.02276734,-0.07173228,-0.01457603,0.3256858,-35.69275,32.83
4,-1.0,-1.0,-1.0,0.7916589,0.0,0.0,0.0,-31.7515,-1.913254,-30.13248,-1.0,0.4922336,0.7063825,0.7271246,0.0,0.0,0.0,30.40881,2.313812,-31.54427,-1.0,0.6117096,0.5790974,0.04349005,1.18118,0.05775875,-0.02327961,-0.07881253,-0.01416173,0.3256858,-35.69275,32.83
4,-1.0,-1.0,-1.0,0.7916589,0.0,0.0,0.0,-31.7515,-1.913254,-30.13248,-1.0,0.4922336,0.7063825,0.7271246,0.0,0.0,0.0,30.40881,2.313812,-31.54427,-1.0,0.6117096,0.5790974,0.04349005,1.18118,0.05775875,-0.02327961,-0.07881253,-0.01416173,0.3256858,-35.69275,32.83
4,-1.0,-1.0,-1.0,0.0,0.0,0.0,0.0,-31.7515,-1.913254,-30.13248,-1.0,0.5005668,0.7682215,0.0,0.0,0.0,0.0,30.40881,2.313812,-31.54427,-1.0,0.4779855,0.6457574,0.0420481,1.181471,0.05779499,-0.02420104,-0.08555683,-0.01357178,0.3256858,-35.69275,32.83
4,-1.0,-1.0,-1.0,0.0,0.0,0.0,0.0,-31.7515,-1.913254,-30.13248,-1.0,0.5005668,0.7682215,0.0,0.0,0.0,0.0,30.40881,2.313812,-31.54427,-1.0,0.4779855,0.6457574,0.0420481,1.181471,0.05779499,-0.02420104,-0.08555683,-0.01357178,0.3256858,-35.69275,32.83
4,-1.0,-1.0,-1.0,0.0,0.0,0.0,0.0,-31.7515,-1.913254,-30.13248,-1.0,0.4979561,0.7774006,0.0,0.0,0.0,0.0,30.40881,2.313812,-31.54427,-1.0,-1.0,-1.0,0.04080832,1.181966,0.05794811,-0.02602131,-0.09175693,-0.01283075,0.3256858,-35.69275,32.83
4,-1.0,-1.0,-1.0,0.0,0.0,0.0,0.0,-31.7515,-1.913254,-30.13248,-1.0,0.4979561,0.7774006,0.0,0.0,0.0,0.0,30.40881,2.313812,-31.54427,-1.0,-1.0,-1.0,0.04080832,1.181966,0.05794811,-0.02602131,-0.09175693,-0.01283075,0.3256858,-35.69275,32.83
4,-1.0,-1.0,-1.0,0.0,0.0,0.0,0.0,-31.7515,-1.913254,-30.13248,-1.0,0.2949918,0.8182092,0.0,0.0,0.0,0.0,30.40881,2.313812,-31.54427,-1.0,-1.0,-1.0,0.03974831,1.182639,0.0581913,-0.02835055,-0.09729938,-0.0119523,0.3256858,-35.69275,32.83
4,-1.0,-1.0,-1.0,0.0,0.0,0.0,0.0,-31.7515,-1.913254,-30.13248,-1.0,0.2949918,0.8182092,0.0,0.0,0.0,0.0,30.40881,2.313812,-31.54427,-1.0,-1.0,-1.0,0.03974831,1.182639,0.0581913,-0.02835055,-0.09729938,-0.0119523,0.3256858,-35.69275,32.83
4,-1.0,-1.0,-1.0,0.0,0.0,0.0,0.0,-31.7515,-1.913254,-30.13248,-1.0,0.442243,0.7515202,0.0,0.0,0.0,0.0,30.40881,2.313812,-31.54427,-1.0,0.5254855,0.6381299,0.03888309,1.18327,0.05832148,-0.03021283,-0.1023262,-0.01099175,0.3256858,-35.69275,32.83
4,-1.0,-1.0,-1.0,0.0,0.0,0.0,0.0,-31.7515,-1.913254,-30.13248,-1.0,0.442243,0.7515202,0.0,0.0,0.0,0.0,30.40881,2.313812,-31.54427,-1.0,0.5254855,0.6381299,0.03888309,1.18327,0.05832148,-0.03021283,-0.1023262,-0.01099175,0.3256858,-35.69275,32.83
4,-1.0,-1.0,-1.0,0.0,0.0,0.0,0.0,-31.7515,-1.913254,-30.13248,-1.0,0.50502,0.6916384,0.0,0.0,0.0,0.0,30.40881,2.313812,-31.54427,-1.0,0.5447602,0.5873008,0.03815687,1.183717,0.05840003,-0.03183602,-0.1065709,-0.01058498,0.3205611,-61.91724,32.83
4,-1.0,-1.0,-1.0,0.0,0.0,0.0,0.0,-31.7515,-1.913254,-30.13248,-1.0,0.50502,0.6916384,0.0,0.0,0.0,0.0,30.40881,2.313812,-31.54427,-1.0,0.5447602,0.5873008,0.03815687,1.183717,0.05840003,-0.03183602,-0.1065709,-0.01058498,0.3205611,-61.91724,32.83
4,-1.0,-1.0,-1.0,0.0,0.0,0.0,0.0,-31.36639,-2.097275,-30.14993,-1.0,0.4727123,0.7006463,0.1291435,0.0,0.0,0.0,30.40881,2.313812,-31.54427,-1.0,0.5912805,0.5471678,0.03793669,1.183693,0.05832583,-0.03230438,-0.1081921,-0.01062993,0.3205611,-61.91724,32.83
4,-1.0,-1.0,-1.0,0.0,0.0,0.0,0.0,-31.36639,-2.097275,-30.14993,-1.0,0.4727123,0.7006463,0.1291435,0.0,0.0,0.0,30.40881,2.313812,-31.54427,-1.0,0.5912805,0.5471678,0.03793669,1.183693,0.05832583,-0.03230438,-0.1081921,-0.01062993,0.3205611,-61.91724,32.83
4,-1.0,-1.0,-1.0,0.6054611,0.0,0.0,0.0,-31.00543,-1.252762,-31.17116,-1.0,0.4475639,0.6536073,0.554314,0.0,0.0,0.0,30.86026,2.433151,-30.5618,-1.0,0.5529078,0.5113896,0.03717864,1.183743,0.05828965,-0.03293343,-0.1128419,-0.01078994,0.3205611,-61.91724,32.83
4,-1.0,-1.0,-1.0,0.6054611,0.0,0.0,0.0,-31.00543,-1.252762,-31.17116,-1.0,0.4475639,0.6536073,0.554314,0.0,0.0,0.0,30.86026,2.433151,-30.5618,-1.0,0.5529078,0.5113896,0.03717864,1.183743,0.05828965,-0.03293343,-0.1128419,-0.01078994,0.3205611,-61.91724,32.83
4,0.1662445,-0.02302551,0.9858093,0.8091802,0.1724548,-0.02804565,0.9846039,-30.65411,-1.696304,-30.27867,5.15213,0.4299771,0.6642587,0.7391214,0.1029816,0.02758789,0.9942932,31.07545,2.12413,-30.31987,5.571945,0.5389328,0.5234258,0.03632438,1.183809,0.05834866,-0.03349579,-0.118456,-0.01069213,0.3205611,-61.91724,32.83
4,0.1662445,-0.02302551,0.9858093,0.8091802,0.1724548,-0.02804565,0.9846039,-30.65411,-1.696304,-30.27867,5.15213,0.4299771,0.6642587,0.7391214,0.1029816,0.02758789,0.9942932,31.07545,2.12413,-30.31987,5.571945,0.5389328,0.5234258,0.03632438,1.183809,0.05834866,-0.03349579,-0.118456,-0.01069213,0.3205611,-61.91724,32.83
4,0.1851044,-0.02485657,0.9823914,1.0,0.1850281,-0.0266571,0.9823608,-30.43954,-1.769409,-30.27513,5.376938,0.4204802,0.6667829,1.0,0.1867676,0.02410889,0.9821014,31.26402,2.047302,-30.42998,5.649521,0.5181116,0.5281445,0.03526032,1.184146,0.05848849,-0.03487111,-0.1257835,-0.01078234,0.3205611,-61.91724,32.83
4,0.1851044,-0.02485657,0.9823914,1.0,0.1850281,-0.0266571,0.9823608,-30.43954,-1.769409,-30.27513,5.376938,0.4204802,0.6667829,1.0,0.1867676,0.02410889,0.9821014,31.26402,2.047302,-30.42998,5.649521,0.5181116,0.5281445,0.03526032,1.184146,0.05848849,-0.03487111,-0.1257835,-0.01078234,0.3205611,-61.91724,32.83
4,0.1735382,-0.02920532,0.9843903,1.0,0.1729736,-0.03164673,0.9844055,-30.4762,-1.724197,-30.297,5.357483,0.4238063,0.6662137,1.0,0.1787262,-0.006713867,0.9838715,31.36702,2.180573,-30.97943,5.477203,0.5160213,0.5338784,0.03395236,1.184556,0.05862576,-0.03611858,-0.1347314,-0.01132494,0.3205611,-61.91724,32.83
4,0.1735382,-0.02920532,0.9843903,1.0,0.1729736,-0.03164673,0.9844055,-30.4762,-1.724197,-30.297,5.357483,0.4238063,0.6662137,1.0,0.1787262,-0.006713867,0.9838715,31.36702,2.180573,-30.97943,5.477203,0.5160213,0.5338784,0.03395236,1.184556,0.05862576,-0.03611858,-0.1347314,-0.01132494,0.3205611,-61.91724,32.83
4,0.1477814,-0.006759644,0.9889832,1.0,0.1477814,-0.006744385,0.9889832,-30.50357,-1.686142,-30.40294,5.461288,0.4290426,0.661663,1.0,0.1575623,-0.02641296,0.9871521,31.37949,2.275375,-31.37463,5.229691,0.5192662,0.5375252,0.03242445,1.184849,0.05867648,-0.03669285,-0.1448414,-0.01258035,0.3205611,-61.91724,32.83
4,0.1477814,-0.006759644,0.9889832,1.0,0.1477814,-0.006744385,0.9889832,-30.50357,-1.686142,-30.40294,5.461288,0.4290426,0.661663,1.0,0.1575623,-0.02641296,0.9871521,31.37949,2.275375,-31.37463,5.229691,0.5192662,0.5375252,0.03242445,1.184849,0.05867648,-0.03669285,-0.1448414,-0.01258035,0.3205611,-61.91724,32.83
4,0.1476135,-0.01464844,0.9889221,1.0,0.1476135,-0.01464844,0.9889221,-30.55971,-1.676346,-30.52519,5.34491,0.43093,0.6638914,1.0,0.1572723,-0.0116272,0.9874725,31.33473,2.27948,-31.51753,5.343353,0.5209818,0.5363067,0.03075969,1.185006,0.05874747,-0.03684077,-0.155505,-0.01407731,0.3205611,-61.91724,32.83
4,0.1476135,-0.01464844,0.9889221,1.0,0.1476135,-0.01464844,0.9889221,-30.55971,-1.676346,-30.52519,5.34491,0.43093,0.6638914,1.0,0.1572723,-0.0116272,0.9874725,31.33473,2.27948,-31.51753,5.343353,0.5209818,0.5363067,0.03075969,1.185006,0.05874747,-0.03684077,-0.155505,-0.01407731,0.3205611,-61.91724,32.83
4,0.1230927,-0.01872253,0.9922028,1.0,0.1197205,-0.02322388,0.9925232,-30.68721,-1.546631,-30.93704,5.355789,0.4399813,0.665205,1.0,0.1321259,-0.006652832,0.9911957,31.19846,2.078949,-30.88235,5.307404,0.5298036,0.5361448,0.0290333,1.185035,0.05870223,-0.03675817,-0.1663016,-0.01621423,0.3205611,26.27132,32.83
4,0.1230927,-0.01872253,0.9922028,1.0,0.1197205,-0.02322388,0.9925232,-30.68721,-1.546631,-30.93704,5.355789,0.4399813,0.665205,1.0,0.1321259,-0.006652832,0.9911957,31.19846,2.078949,-30.88235,5.307404,0.5298036,0.5361448,0.0290333,1.185035,0.05870223,-0.03675817,-0.1663016,-0.01621423,0.3205611,26.27132,32.83
4,0.1128082,-0.009368896,0.9935608,1.0,0.1113281,-0.02345276,0.9934998,-30.79984,-1.477753,-31.14967,5.436188,0.4453049,0.6651966,1.0,0.1128693,-0.008773804,0.9935608,31.11676,2.18779,-31.29686,5.263351,0.536168,0.5366464,0.02742755,1.185028,0.05857331,-0.03657488,-0.1763057,-0.01868792,0.3205611,26.27132,32.83
4,0.1128082,-0.009368896,0.9935608,1.0,0.1113281,-0.02345276,0.9934998,-30.79984,-1.477753,-31.14967,5.436188,0.4453049,0.6651966,1.0,0.1128693,-0.008773804,0.9935608,31.11676,2.18779,-31.29686,5.263351,0.536168,0.5366464,0.02742755,1.185028,0.05857331,-0.03657488,-0.1763057,-0.01868792,0.3205611,26.27132,32.83
4,0.09518433,-0.005523682,0.9954376,1.0,0.09367371,-0.02268982,0.9953308,-31.00475,-1.564804,-30.82617,5.415726,0.4554833,0.6645589,1.0,0.09591675,0.002792358,0.9953766,30.93993,2.19014,-31.10959,5.42955,0.5452652,0.5328705,0.02593672,1.185045,0.05846334,-0.03666116,-0.1855811,-0.02115623,0.3205611,26.27132,32.83
4,0.09518433,-0.005523682,0.9954376,1.0,0.09367371,-0.02268982,0.9953308,-31.00475,-1.564804,-30.82617,5.415726,0.4554833,0.6645589,1.0,0.09591675,0.002792358,0.9953766,30.93993,2.19014,-31.10959,5.42955,0.5452652,0.5328705,0.02593672,1.185045,0.05846334,-0.03666116,-0.1855811,-0.02115623,0.3205611,26.27132,32.83
4,0.07830811,-0.002655029,0.9969177,1.0,0.08279419,0.0006256104,0.9965515,-31.15819,-1.47728,-30.94118,5.382599,0.462648,0.6586609,1.0,0.07368469,-0.006027222,0.9972534,30.78529,2.225494,-31.11223,5.392517,0.5545067,0.5331278,0.0245899,1.18502,0.05822492,-0.03671578,-0.1938738,-0.02374197,0.3205611,26.27132,32.83
4,0.07830811,-0.002655029,0.9969177,1.0,0.08279419,0.0006256104,0.9965515,-31.15819,-1.47728,-30.94118,5.382599,0.462648,0.6586609,1.0,0.07368469,-0.006027222,0.9972534,30.78529,2.225494,-31.11223,5.392517,0.5545067,0.5331278,0.0245899,1.18502,0.05822492,-0.03671578,-0.1938738,-0.02374197,0.3205611,26.27132,32.83
4,0.05014038,-0.02362061,0.9984589,1.0,0.05744934,0.0025177,0.9983368,-31.33818,-1.547943,-30.64096,5.277679,0.4731703,0.657442,1.0,0.04515076,-0.04138184,0.9981079,30.61617,2.292465,-31.27161,5.143509,0.5654056,0.5382824,0.02356207,1.184872,0.05813253,-0.03661336,-0.2002129,-0.02695682,0.3205611,26.27132,32.83
4,0.05014038,-0.02362061,0.9984589,1.0,0.05744934,0.0025177,0.9983368,-31.33818,-1.547943,-30.64096,5.277679,0.4731703,0.657442,1.0,0.04515076,-0.04138184,0.9981079,30.61617,2.292465,-31.27161,5.143509,0.5654056,0.5382824,0.02356207,1.184872,0.05813253,-0.03661336,-0.2002129,-0.02695682,0.3205611,26.27132,32.83
4,0.04434204,-0.008987427,0.9989624,1.0,0.0473175,-0.005371094,0.9988556,-31.47272,-1.505463,-30.6902,5.29361,0.4795467,0.6578928,1.0,0.03822327,-0.01641846,0.9991302,30.48306,2.230591,-30.99577,5.412979,0.5711395,0.5336569,0.02274883,1.184708,0.0581311,-0.03697542,-0.2046713,-0.02996621,0.3205611,26.27132,32.83
4,0.04434204,-0.008987427,0.9989624,1.0,0.0473175,-0.005371094,0.9988556,-31.47272,-1.505463,-30.6902,5.29361,0.4795467,0.6578928,1.0,0.03822327,-0.01641846,0.9991302,30.48306,2.230591,-30.99577,5.412979,0.5711395,0.5336569,0.02274883,1.184708,0.0581311,-0.03697542,-0.2046713,-0.02996621,0.3205611,26.27132,32.83
4,0.02368164,0.003997803,0.9997101,1.0,0.02607727,0.008514404,0.9996185,-31.61823,-1.424484,-30.72392,5.318802,0.488186,0.6530726,1.0,0.01582336,-0.01078796,0.9998016,30.37427,2.452087,-31.55106,5.45134,0.5792967,0.5303662,0.02212381,1.184769,0.05808407,-0.03811781,-0.2073805,-0.03237856,0.3205611,26.27132,32.83
4,0.02368164,0.003997803,0.9997101,1.0,0.02607727,0.008514404,0.9996185,-31.61823,-1.424484,-30.72392,5.318802,0.488186,0.6530726,1.0,0.01582336,-0.01078796,0.9998016,30.37427,2.452087,-31.55106,5.45134,0.5792967,0.5303662,0.02212381,1.184769,0.05808407,-0.03811781,-0.2073805,-0.03237856,0.3205611,26.27132,32.83
4,0.01051331,0.007614136,0.9999084,1.0,0.02612305,0.001876831,0.999649,-31.66815,-1.430542,-30.59802,5.351501,0.4898906,0.6531351,1.0,-0.0324707,0.02342224,0.9991913,30.29047,2.317352,-31.09862,5.532974,0.5901672,0.5249221,0.02160776,1.184783,0.05803895,-0.03950215,-0.2095851,-0.03445066,0.3205611,26.27132,32.83
4,0.01051331,0.007614136,0.9999084,1.0,0.02612305,0.001876831,0.999649,-31.66815,-1.430542,-30.59802,5.351501,0.4898906,0.6531351,1.0,-0.0324707,0.02342224,0.9991913,30.29047,2.317352,-31.09862,5.532974,0.5901672,0.5249221,0.02160776,1.184783,0.05803895,-0.03950215,-0.2095851,-0.03445066,0.3205611,26.27132,32.83
4,0.01179504,0.004989624,0.9999084,1.0,0.0136261,0.005477905,0.9998779,-31.64928,-1.449524,-30.53818,5.414459,0.4913357,0.652615,1.0,0.003646851,0.002822876,0.9999847,30.3174,2.35759,-31.30103,5.542557,0.583197,0.5289885,0.02106965,1.185056,0.05792522,-0.04093307,-0.2113463,-0.03569132,0.3205611,60.78722,32.83
4,0.01179504,0.004989624,0.9999084,1.0,0.0136261,0.005477905,0.9998779,-31.64928,-1.449524,-30.53818,5.414459,0.4913357,0.652615,1.0,0.003646851,0.002822876,0.9999847,30.3174,2.35759,-31.30103,5.542557,0.583197,0.5289885,0.02106965,1.185056,0.05792522,-0.04093307,-0.2113463,-0.03569132,0.3205611,60.78722,32.83
4,0.009780884,0.005996704,0.9999237,1.0,0.01123047,0.004714966,0.9999237,-31.64165,-1.42334,-30.63716,5.398209,0.4914909,0.652873,1.0,-0.004226685,0.01817322,0.9998169,30.31346,2.310089,-31.2393,5.377777,0.5846016,0.5272598,0.02045822,1.185298,0.05778027,-0.04245854,-0.2129307,-0.03668715,0.3205611,60.78722,32.83
4,0.009780884,0.005996704,0.9999237,1.0,0.01123047,0.004714966,0.9999237,-31.64165,-1.42334,-30.63716,5.398209,0.4914909,0.652873,1.0,-0.004226685,0.01817322,0.9998169,30.31346,2.310089,-31.2393,5.377777,0.5846016,0.5272598,0.02045822,1.185298,0.05778027,-0.04245854,-0.2129307,-0.03668715,0.3205611,60.78722,32.83
4,0.005737305,0.006607056,0.9999542,1.0,0.005004883,0.0004882813,0.9999847,-31.66823,-1.481323,-30.62764,5.308517,0.4934466,0.6554168,1.0,0.007003784,0.01715088,0.9998169,30.30081,2.262665,-31.21173,5.404388,0.5830898,0.528844,0.01987708,1.185443,0.05747509,-0.04399378,-0.2137124,-0.0371146,0.3205611,60.78722,32.83
4,0.005737305,0.006607056,0.9999542,1.0,0.005004883,0.0004882813,0.9999847,-31.66823,-1.481323,-30.62764,5.308517,0.4934466,0.6554168,1.0,0.007003784,0.01715088,0.9998169,30.30081,2.262665,-31.21173,5.404388,0.5830898,0.528844,0.01987708,1.185443,0.05747509,-0.04399378,-0.2137124,-0.0371146,0.3205611,60.78722,32.83
5,0.0008544922,-0.0005950928,0.9999847,1.0,0.001525879,-0.01141357,0.9999237,-31.67662,-1.525757,-30.5099,5.304672,0.494295,0.6577715,1.0,0.0003509521,0.007583618,0.9999695,30.2955,2.237274,-31.19469,5.477859,0.5844142,0.531281,0.01928532,1.185677,0.05718267,-0.04560417,-0.2144412,-0.03734574,0.3205611,60.78722,32.83
5,0.0008544922,-0.0005950928,0.9999847,1.0,0.001525879,-0.01141357,0.9999237,-31.67662,-1.525757,-30.5099,5.304672,0.494295,0.6577715,1.0,0.0003509521,0.007583618,0.9999695,30.2955,2.237274,-31.19469,5.477859,0.5844142,0.531281,0.01928532,1.185677,0.05718267,-0.04560417,-0.2144412,-0.03734574,0.3205611,60.78722,32.83
5,0.002120972,-0.003067017,0.9999847,1.0,0.003173828,-0.002807617,0.9999847,-31.67291,-1.544373,-30.45476,5.366028,0.4938823,0.6563985,1.0,0.001617432,-0.003189087,0.9999847,30.30197,2.174774,-31.16084,5.508698,0.5839338,0.5350277,0.01871431,1.185837,0.05689692,-0.0469325,-0.2151227,-0.03755959,0.3205611,60.78722,32.83
5,0.002120972,-0.003067017,0.9999847,1.0,0.003173828,-0.002807617,0.9999847,-31.67291,-1.544373,-30.45476,5.366028,0.4938823,0.6563985,1.0,0.001617432,-0.003189087,0.9999847,30.30197,2.174774,-31.16084,5.508698,0.5839338,0.5350277,0.01871431,1.185837,0.05689692,-0.0469325,-0.2151227,-0.03755959,0.3205611,60.78722,32.83
5,-0.0008087158,0.003494263,0.9999847,1.0,0.001800537,-0.007507324,0.9999695,-31.67105,-1.546829,-30.44957,5.402969,0.4940487,0.6572802,1.0,-0.002380371,0.01004028,0.999939,30.29695,2.148254,-31.0961,5.464935,0.5847315,0.5329992,0.01820266,1.18601,0.05652261,-0.04809632,-0.2158804,-0.03724165,0.3205611,60.78722,32.83
5,-0.0008087158,0.003494263,0.9999847,1.0,0.001800537,-0.007507324,0.9999695,-31.67105,-1.546829,-30.44957,5.402969,0.4940487,0.6572802,1.0,-0.002380371,0.01004028,0.999939,30.29695,2.148254,-31.0961,5.464935,0.5847315,0.5329992,0.01820266,1.18601,0.05652261,-0.04809632,-0.2158804,-0.03724165,0.3205611,60.78722,32.83
5,-0.003494263,-0.002288818,0.9999847,1.0,-0.0002746582,-0.008010864,0.9999542,-31.68433,-1.616364,-30.30289,5.388184,0.4948251,0.6582115,1.0,-0.00718689,0.004196167,0.9999542,30.29266,2.137314,-31.10139,5.409561,0.5856979,0.5344003,0.01773012,1.186115,0.05618507,-0.04887495,-0.2161658,-0.03646104,0.3205611,60.78722,32.83
5,-0.003494263,-0.002288818,0.9999847,1.0,-0.0002746582,-0.008010864,0.9999542,-31.68433,-1.616364,-30.30289,5.388184,0.4948251,0.6582115,1.0,-0.00718689,0.004196167,0.9999542,30.29266,2.137314,-31.10139,5.409561,0.5856979,0.5344003,0.01773012,1.186115,0.05618507,-0.04887495,-0.2161658,-0.03646104,0.3205611,60.78722,32.83
5,-0.002456665,-0.003723145,0.9999847,1.0,-0.01216125,-0.02375793,0.9996338,-31.7123,-1.534195,-30.56828,5.358551,0.4978353,0.6609012,1.0,0.004165649,0.009963989,0.999939,30.23085,2.140594,-31.14972,5.43602,0.5859802,0.53378,0.01731956,1.186147,0.05584002,-0.0490463,-0.2160848,-0.03547965,0.3205611,102.2134,32.83
5,-0.002456665,-0.003723145,0.9999847,1.0,-0.01216125,-0.02375793,0.9996338,-31.7123,-1.534195,-30.56828,5.358551,0.4978353,0.6609012,1.0,0.004165649,0.009963989,0.999939,30.23085,2.140594,-31.14972,5.43602,0.5859802,0.53378,0.01731956,1.186147,0.05584002,-0.0490463,-0.2160848,-0.03547965,0.3205611,102.2134,32.83
5,-0.005142212,-0.007202148,0.9999542,1.0,-0.005874634,-0.02114868,0.9997559,-31.72385,-1.502167,-30.65294,5.382828,0.4972007,0.660265,1.0,-0.004989624,-0.004211426,0.9999695,30.20517,2.08374,-30.97438,5.515594,0.5883024,0.5365968,0.01703727,1.186136,0.05544895,-0.04905602,-0.2159632,-0.03473088,0.3205611,102.2134,32.83
5,-0.005142212,-0.007202148,0.9999542,1.0,-0.005874634,-0.02114868,0.9997559,-31.72385,-1.502167,-30.65294,5.382828,0.4972007,0.660265,1.0,-0.004989624,-0.004211426,0.9999695,30.20517,2.08374,-30.97438,5.515594,0.5883024,0.5365968,0.01703727,1.186136,0.05544895,-0.04905602,-0.2159632,-0.03473088,0.3205611,102.2134,32.83
5,-0.006790161,-0.01338196,0.9998779,1.0,-0.007080078,-0.02552795,0.9996338,-31.72749,-1.491898,-30.66641,5.366486,0.4975312,0.6607939,1.0,-0.006729126,-0.01078796,0.9999084,30.19698,2.073715,-30.92874,5.514145,0.5888439,0.5376391,0.01688147,1.186241,0.0550983,-0.04881775,-0.215691,-0.03410768,0.3205611,102.2134,32.83
5,-0.006790161,-0.01338196,0.9998779,1.0,-0.007080078,-0.02552795,0.9996338,-31.72749,-1.491898,-30.66641,5.366486,0.4975312,0.6607939,1.0,-0.006729126,-0.01078796,0.9999084,30.19698,2.073715,-30.92874,5.514145,0.5888439,0.5376391,0.01688147,1.186241,0.0550983,-0.04881775,-0.215691,-0.03410768,0.3205611,102.2134,32.83
5,-0.007293701,-0.01812744,0.9998016,1.0,-0.007141113,-0.02104187,0.9997406,-31.74582,-1.44931,-30.63972,5.431686,0.4981776,0.658325,1.0,-0.007507324,-0.01387024,0.9998627,30.19887,2.06839,-30.83333,5.526917,0.5888227,0.5374382,0.01681161,1.186429,0.05500656,-0.0487698,-0.2153212,-0.03389073,0.3205611,102.2134,32.83
5,-0.008895874,-0.02218628,0.9997101,1.0,-0.01036072,-0.0305481,0.9994659,-31.75711,-1.477295,-30.49934,5.413757,0.4990729,0.6594433,1.0,-0.005889893,-0.004928589,0.9999695,30.21025,2.128922,-30.77608,5.551147,0.5881073,0.5332505,0.01670969,1.186806,0.05471694,-0.04874856,-0.214264,-0.03381127,0.3205611,102.2134,32.83
5,-0.008895874,-0.02218628,0.9997101,1.0,-0.01036072,-0.0305481,0.9994659,-31.75711,-1.477295,-30.49934,5.413757,0.4990729,0.6594433,1.0,-0.005889893,-0.004928589,0.9999695,30.21025,2.128922,-30.77608,5.551147,0.5881073,0.5332505,0.01670969,1.186806,0.05471694,-0.04874856,-0.214264,-0.03381127,0.3205611,102.2134,32.83
5,-0.01927185,-0.01719666,0.9996643,1.0,-0.02069092,-0.01768494,0.9996185,-31.74185,-1.380035,-30.60663,5.368805,0.5003178,0.6549503,1.0,-0.01434326,-0.01554871,0.9997711,30.22139,2.131882,-30.64203,5.489517,0.5890203,0.5336352,0.01667631,1.187067,0.05456257,-0.04895431,-0.2136835,-0.03383573,0.3205611,102.2134,32.83
5,-0.01927185,-0.01719666,0.9996643,1.0,-0.02069092,-0.01768494,0.9996185,-31.74185,-1.380035,-30.60663,5.368805,0.5003178,0.6549503,1.0,-0.01434326,-0.01554871,0.9997711,30.22139,2.131882,-30.64203,5.489517,0.5890203,0.5336352,0.01667631,1.187067,0.05456257,-0.04895431,-0.2136835,-0.03383573,0.3205611,102.2134,32.83
5,-0.01280212,-0.02099609,0.9996948,1.0,-0.01553345,-0.02104187,0.999649,-31.71494,-1.400238,-30.4877,5.418625,0.4984914,0.6549966,1.0,-0.007354736,-0.0209198,0.9997406,30.25209,2.21788,-30.94453,5.481613,0.5870293,0.5344754,0.01662445,1.18759,0.05424911,-0.0499287,-0.21261,-0.03382075,0.3205611,102.2134,32.83
5,-0.01022339,-0.01712036,0.9997864,1.0,-0.01589966,-0.02270508,0.9996033,-31.69305,-1.398514,-30.45691,5.364349,0.49779,0.6548345,1.0,0.0007476807,-0.006271362,0.9999695,30.27725,2.223969,-30.95734,5.518585,0.5847819,0.5318835,0.01661623,1.187898,0.05404472,-0.05066403,-0.2123299,-0.03371263,0.3205611,102.2134,32.83
5,-0.01022339,-0.01712036,0.9997864,1.0,-0.01589966,-0.02270508,0.9996033,-31.69305,-1.398514,-30.45691,5.364349,0.49779,0.6548345,1.0,0.0007476807,-0.006271362,0.9999695,30.27725,2.223969,-30.95734,5.518585,0.5847819,0.5318835,0.01661623,1.187898,0.05404472,-0.05066403,-0.2123299,-0.03371263,0.3205611,102.2134,32.83
5,-0.01086426,-0.02096558,0.9997101,1.0,-0.01394653,-0.02722168,0.999527,-31.67705,-1.371063,-30.48186,5.203979,0.4969166,0.6547453,1.0,-0.001876831,-0.002670288,0.9999847,30.28857,2.203918,-30.89981,5.529785,0.5847819,0.5314071,0.01658189,1.1886,0.05356503,-0.05251436,-0.2116051,-0.03354558,0.3205611,102.2134,32.83
5,-0.004592896,-0.01486206,0.9998779,1.0,-0.006408691,-0.020401,0.9997711,-31.67194,-1.361969,-30.4794,5.433075,0.4954766,0.6534648,1.0,-0.000793457,-0.003234863,0.9999847,30.29587,2.197708,-30.86736,5.531448,0.5843098,0.5314071,0.01652563,1.188936,0.05330575,-0.0535701,-0.2111337,-0.03346865,0.3205611,102.2134,32.83
5,-0.004592896,-0.01486206,0.9998779,1.0,-0.006408691,-0.020401,0.9997711,-31.67194,-1.361969,-30.4794,5.433075,0.4954766,0.6534648,1.0,-0.000793457,-0.003234863,0.9999847,30.29587,2.197708,-30.86736,5.531448,0.5843098,0.5314071,0.01652563,1.188936,0.05330575,-0.0535701,-0.2111337,-0.03346865,0.3205611,102.2134,32.83
5,-0.004119873,-0.01351929,0.9998932,1.0,-0.0078125,-0.02098083,0.9997406,-31.67136,-1.3535,-30.49762,5.432068,0.4956971,0.653457,1.0,0.001220703,-0.002700806,0.9999847,30.29953,2.207504,-30.86736,5.532196,0.583838,0.530975,0.01645935,1.189618,0.05280226,-0.05618988,-0.2107767,-0.03346843,0.3205611,10.78485,32.83
5,-0.002548218,-0.01556396,0.9998627,1.0,-0.005081177,-0.02279663,0.9997253,-31.6696,-1.3461,-30.50368,5.43045,0.4951791,0.6535757,1.0,0.0009918213,-0.005508423,0.9999695,30.30098,2.213348,-30.88289,5.529297,0.583838,0.5314071,0.01642692,1.189926,0.05254018,-0.05749032,-0.2105932,-0.03353803,0.3205611,10.78485,32.83
5,-0.002304077,-0.01423645,0.9998932,1.0,-0.005172729,-0.02537537,0.9996643,-31.66919,-1.34317,-30.50969,5.395462,0.4951791,0.6539486,1.0,0.0008239746,-0.001983643,0.9999847,30.30212,2.211792,-30.89606,5.530655,0.583838,0.530975,0.01640463,1.190195,0.05237174,-0.05871455,-0.210671,-0.03349868,0.3205611,10.78485,32.83
5,-0.002304077,-0.01423645,0.9998932,1.0,-0.005172729,-0.02537537,0.9996643,-31.66919,-1.34317,-30.50969,5.395462,0.4951791,0.6539486,1.0,0.0008239746,-0.001983643,0.9999847,30.30212,2.211792,-30.89606,5.530655,0.583838,0.530975,0.01640463,1.190195,0.05237174,-0.05871455,-0.210671,-0.03349868,0.3205611,10.78485,32.83
5,0.0001220703,-0.02113342,0.9997711,1.0,-0.000289917,-0.03739929,0.9992981,-31.68471,-1.410965,-30.42451,5.439713,0.494871,0.6575221,1.0,0.0005645752,-0.004165649,0.9999847,30.30354,2.211792,-30.90167,5.529236,0.583838,0.5314071,0.01631224,1.190619,0.05189407,-0.06078734,-0.2108301,-0.03376916,0.3205611,10.78485,32.83
5,0.0001220703,-0.02113342,0.9997711,1.0,-0.000289917,-0.03739929,0.9992981,-31.68471,-1.410965,-30.42451,5.439713,0.494871,0.6575221,1.0,0.0005645752,-0.004165649,0.9999847,30.30354,2.211792,-30.90167,5.529236,0.583838,0.5314071,0.01631224,1.190619,0.05189407,-0.06078734,-0.2108301,-0.03376916,0.3205611,10.78485,32.83
5,-0.003387451,-0.02114868,0.9997559,1.0,-0.01057434,-0.04467773,0.9989319,-31.68938,-1.439529,-30.39854,5.29689,0.4967432,0.6593565,1.0,0.001373291,-0.005447388,0.9999695,30.30403,2.211639,-30.90646,5.524658,0.5836838,0.531677,0.01618636,1.191032,0.05139828,-0.06249857,-0.2112221,-0.03390084,0.3205611,10.78485,32.83
5,-0.002166748,-0.02220154,0.9997406,1.0,-0.009277344,-0.04756165,0.9988251,-31.69089,-1.446457,-30.39914,5.384415,0.4965766,0.6601987,1.0,0.001525879,-0.008987427,0.9999542,30.30403,2.211075,-30.93837,5.521393,0.5836838,0.5326055,0.01614749,1.191206,0.05122459,-0.06317466,-0.211399,-0.03402413,0.3205611,10.78485,32.83
5,-0.0007019043,-0.02929688,0.9995575,1.0,-0.0008239746,-0.05233765,0.9986267,-31.70335,-1.451492,-30.46761,5.413086,0.4956023,0.6619525,1.0,-0.0006256104,-0.01463318,0.9998779,30.30403,2.211075,-30.95009,5.511505,0.5840622,0.5336931,0.01610625,1.191352,0.05104685,-0.06373531,-0.2116468,-0.03417816,0.3205611,10.78485,32.83
5,-0.0007019043,-0.02929688,0.9995575,1.0,-0.0008239746,-0.05233765,0.9986267,-31.70335,-1.451492,-30.46761,5.413086,0.4956023,0.6619525,1.0,-0.0006256104,-0.01463318,0.9998779,30.30403,2.211075,-30.95009,5.511505,0.5840622,0.5336931,0.01610625,1.191352,0.05104685,-0.06373531,-0.2116468,-0.03417816,0.3205611,10.78485,32.83
5,-0.000793457,-0.03076172,0.9995117,1.0,-0.0006408691,-0.04586792,0.9989319,-31.72482,-1.479858,-30.43439,5.467697,0.4963078,0.661527,1.0,-0.0009307861,-0.01795959,0.9998322,30.30336,2.209213,-30.95009,5.509995,0.5841371,0.5343318,0.01604807,1.191641,0.05070662,-0.06458696,-0.2122612,-0.03419777,0.3205611,10.78485,32.83
5,-0.000793457,-0.03076172,0.9995117,1.0,-0.0006408691,-0.04586792,0.9989319,-31.72482,-1.479858,-30.43439,5.467697,0.4963078,0.661527,1.0,-0.0009307861,-0.01795959,0.9998322,30.30336,2.209213,-30.95009,5.509995,0.5841371,0.5343318,0.01604807,1.191641,0.05070662,-0.06458696,-0.2122612,-0.03419777,0.3205611,10.78485,32.83
5,0.0008239746,-0.03381348,0.9994202,1.0,0.002502441,-0.04754639,0.9988556,-31.73988,-1.479416,-30.442,5.49202,0.4963017,0.6619049,1.0,-0.0006561279,-0.02153015,0.9997559,30.29857,2.192413,-30.94862,5.515396,0.5842564,0.5355247,0.01597667,1.191877,0.05052936,-0.0652212,-0.2128389,-0.0341234,0.3205611,10.78485,32.83
5,0.002670288,-0.03227234,0.9994659,1.0,0.003356934,-0.04606628,0.9989319,-31.74768,-1.478058,-30.44701,5.481186,0.4964308,0.6616486,1.0,0.001861572,-0.01594543,0.9998627,30.28261,2.157104,-30.94862,5.510437,0.5843802,0.535787,0.01592052,1.191987,0.05043781,-0.0653358,-0.2133061,-0.03401756,0.3205611,10.78485,32.83
5,0.001525879,-0.03379822,0.9994202,1.0,0.0002593994,-0.04618835,0.9989319,-31.7507,-1.478043,-30.4482,5.484879,0.497054,0.6616916,1.0,0.003128052,-0.01818848,0.9998169,30.27628,2.143616,-30.94862,5.489716,0.5843802,0.5366305,0.01588666,1.192111,0.05037129,-0.06571976,-0.2136019,-0.03394674,0.3205611,10.78485,32.83
5,0.001525879,-0.03379822,0.9994202,1.0,0.0002593994,-0.04618835,0.9989319,-31.7507,-1.478043,-30.4482,5.484879,0.497054,0.6616916,1.0,0.003128052,-0.01818848,0.9998169,30.27628,2.143616,-30.94862,5.489716,0.5843802,0.5366305,0.01588666,1.192111,0.05037129,-0.06571976,-0.2136019,-0.03394674,0.3205611,10.78485,32.83
5,0.001220703,-0.03523254,0.9993744,1.0,0.001037598,-0.04785156,0.9988403,-31.75972,-1.479431,-30.44081,5.491913,0.4972308,0.6619517,1.0,0.001449585,-0.02005005,0.9997864,30.25627,2.112503,-30.87892,5.463486,0.5853009,0.5373434,0.01582015,1.192195,0.05028337,-0.06628339,-0.2147237,-0.0338617,0.3205611,-51.89622,32.83
5,-0.002655029,-0.04733276,0.9988708,1.0,-0.001861572,-0.04873657,0.9987946,-31.76588,-1.483841,-30.42371,5.48056,0.4979283,0.6620664,1.0,-0.003845215,-0.04525757,0.9989624,30.24957,2.104889,-30.85973,5.451828,0.5864174,0.5417863,0.01574588,1.192203,0.05023146,-0.0664909,-0.2150531,-0.03390721,0.3205611,-51.89622,32.83
5,-0.002655029,-0.04733276,0.9988708,1.0,-0.001861572,-0.04873657,0.9987946,-31.76588,-1.483841,-30.42371,5.48056,0.4979283,0.6620664,1.0,-0.003845215,-0.04525757,0.9989624,30.24957,2.104889,-30.85973,5.451828,0.5864174,0.5417863,0.01574588,1.192203,0.05023146,-0.0664909,-0.2150531,-0.03390721,0.3205611,-51.89622,32.83
5,-0.005447388,-0.05383301,0.9985199,1.0,-0.004043579,-0.0508728,0.9986877,-31.77133,-1.490112,-30.3989,5.48082,0.4984777,0.6623926,1.0,-0.007598877,-0.05836487,0.9982605,30.24684,2.102264,-30.85973,5.426834,0.5871485,0.5441393,0.01563919,1.19219,0.05028796,-0.06665118,-0.2157476,-0.0339985,0.3205611,-51.89622,32.83
5,-0.005706787,-0.05471802,0.9984741,1.0,-0.003631592,-0.05200195,0.9986267,-31.77412,-1.493317,-30.38618,5.484314,0.4984993,0.6625734,1.0,-0.008483887,-0.05834961,0.9982452,30.24316,2.102264,-30.85973,5.426743,0.5874287,0.5441393,0.01560986,1.192156,0.05029875,-0.0666363,-0.2160422,-0.03406921,0.3205611,-51.89622,32.83
5,-0.005706787,-0.05471802,0.9984741,1.0,-0.003631592,-0.05200195,0.9986267,-31.77412,-1.493317,-30.38618,5.484314,0.4984993,0.6625734,1.0,-0.008483887,-0.05834961,0.9982452,30.24316,2.102264,-30.85973,5.426743,0.5874287,0.5441393,0.01560986,1.192156,0.05029875,-0.0666363,-0.2160422,-0.03406921,0.3205611,-51.89622,32.83
5,-0.007720947,-0.06004333,0.9981537,1.0,-0.007797241,-0.05361938,0.9985199,-31.79314,-1.506378,-30.31311,5.497681,0.4998372,0.6625402,1.0,-0.007675171,-0.06486511,0.9978638,30.23354,2.102264,-30.85973,5.423981,0.5876284,0.5452718,0.01546228,1.192,0.05034214,-0.06665475,-0.2165412,-0.03421433,0.3205611,-51.89622,32.83
5,-0.007354736,-0.06085205,0.9981079,1.0,-0.006744385,-0.05371094,0.9985199,-31.80403,-1.506378,-30.31311,5.507385,0.5000371,0.6625734,1.0,-0.007766724,-0.06561279,0.9978027,30.22694,2.104889,-30.86017,5.423691,0.5878775,0.5453158,0.01550782,1.191976,0.05035526,-0.0664677,-0.2168332,-0.03421716,0.3205611,-51.89622,32.83
5,-0.007797241,-0.06011963,0.9981537,1.0,-0.008972168,-0.0536499,0.9985046,-31.82275,-1.506378,-30.31311,5.513489,0.5010574,0.6625734,1.0,-0.006973267,-0.06468201,0.997879,30.21216,2.112747,-30.89958,5.422104,0.5882995,0.5452718,0.01547372,1.191894,0.0503968,-0.06633373,-0.2170902,-0.03418448,0.3205611,-51.89622,32.83
5,-0.007797241,-0.06011963,0.9981537,1.0,-0.008972168,-0.0536499,0.9985046,-31.82275,-1.506378,-30.31311,5.513489,0.5010574,0.6625734,1.0,-0.006973267,-0.06468201,0.997879,30.21216,2.112747,-30.89958,5.422104,0.5882995,0.5452718,0.01547372,1.191894,0.0503968,-0.06633373,-0.2170902,-0.03418448,0.3205611,-51.89622,32.83
5,-0.007553101,-0.06173706,0.9980621,1.0,-0.00793457,-0.05366516,0.9985199,-31.84102,-1.506378,-30.31311,5.512375,0.5015126,0.6625734,1.0,-0.00718689,-0.06948853,0.9975433,30.19531,2.144104,-30.90546,5.43573,0.58894,0.5450804,0.01543403,1.191716,0.05045801,-0.06607851,-0.2176641,-0.03462669,0.3205611,-51.89622,32.83
5,-0.009124756,-0.06170654,0.9980469,1.0,-0.01159668,-0.05567932,0.9983673,-31.84639,-1.494659,-30.31311,5.511673,0.5023127,0.6625172,1.0,-0.005935669,-0.06948853,0.9975586,30.18692,2.150116,-30.92297,5.438004,0.5890402,0.5450385,0.01536107,1.191697,0.05046368,-0.06595401,-0.2178527,-0.03484354,0.3205611,-51.89622,32.83
5,-0.009124756,-0.06170654,0.9980469,1.0,-0.01159668,-0.05567932,0.9983673,-31.84639,-1.494659,-30.31311,5.511673,0.5023127,0.6625172,1.0,-0.005935669,-0.06948853,0.9975586,30.18692,2.150116,-30.92297,5.438004,0.5890402,0.5450385,0.01536107,1.191697,0.05046368,-0.06595401,-0.2178527,-0.03484354,0.3205611,-51.89622,32.83
5,-0.01264954,-0.06246948,0.9979553,1.0,-0.01239014,-0.05683899,0.998291,-31.84639,-1.475815,-30.35468,5.509171,0.502454,0.6625172,1.0,-0.01300049,-0.06985474,0.997467,30.18358,2.151443,-30.92297,5.437225,0.5903648,0.5450804,0.0152775,1.191646,0.05050796,-0.06593255,-0.2183688,-0.03589428,0.3205611,-51.89622,32.83
5,-0.01264954,-0.06246948,0.9979553,1.0,-0.01239014,-0.05683899,0.998291,-31.84639,-1.475815,-30.35468,5.509171,0.502454,0.6625172,1.0,-0.01300049,-0.06985474,0.997467,30.18358,2.151443,-30.92297,5.437225,0.5903648,0.5450804,0.0152775,1.191646,0.05050796,-0.06593255,-0.2183688,-0.03589428,0.3205611,-44.38046,32.83
5,-0.01264954,-0.06246948,0.9979553,1.0,-0.01239014,-0.05683899,0.998291,-31.84639,-1.475815,-30.35468,5.509171,0.502454,0.6625172,1.0,-0.01300049,-0.06985474,0.997467,30.18358,2.151443,-30.92297,5.437225,0.5903648,0.5450804,0.01530492,1.191737,0.05060905,-0.06587976,-0.2189101,-0.03661662,0.3205611,-44.38046,32.83
5,-0.01264954,-0.06246948,0.9979553,1.0,-0.01239014,-0.05683899,0.998291,-31.84639,-1.475815,-30.35468,5.509171,0.502454,0.6625172,1.0,-0.01300049,-0.06985474,0.997467,30.18358,2.151443,-30.92297,5.437225,0.5903648,0.5450804,0.01523864,1.191669,0.05075175,-0.06582375,-0.2197099,-0.03691916,0.3205611,-44.38046,32.83
5,-0.01264954,-0.06246948,0.9979553,1.0,-0.01239014,-0.05683899,0.998291,-31.84639,-1.475815,-30.35468,5.509171,0.502454,0.6625172,1.0,-0.01300049,-0.06985474,0.997467,30.18358,2.151443,-30.92297,5.437225,0.5903648,0.5450804,0.01523864,1.191669,0.05075175,-0.06582375,-0.2197099,-0.03691916,0.3205611,-44.38046,32.83
5,-0.01295471,-0.06359863,0.997879,1.0,-0.01286316,-0.05789185,0.99823,-31.84639,-1.453079,-30.40781,5.533829,0.5025495,0.6625007,1.0,-0.01304626,-0.07073975,0.997406,30.18318,2.155853,-30.92297,5.436966,0.5903868,0.5450804,0.01509631,1.191562,0.05090332,-0.06527156,-0.2202515,-0.03710998,0.3205611,-44.38046,32.83
5,-0.01295471,-0.06359863,0.997879,1.0,-0.01286316,-0.05789185,0.99823,-31.84639,-1.453079,-30.40781,5.533829,0.5025495,0.6625007,1.0,-0.01304626,-0.07073975,0.997406,30.18318,2.155853,-30.92297,5.436966,0.5903868,0.5450804,0.01509631,1.191562,0.05090332,-0.06527156,-0.2202515,-0.03710998,0.3205611,-44.38046,32.83
5,-0.01295471,-0.06359863,0.997879,1.0,-0.01286316,-0.05789185,0.99823,-31.84639,-1.453079,-30.40781,5.533829,0.5025495,0.6625007,1.0,-0.01304626,-0.07073975,0.997406,30.18318,2.155853,-30.92297,5.436966,0.5903868,0.5450804,0.01507878,1.191364,0.05104703,-0.06460957,-0.2202914,-0.03724745,0.3205611,-44.38046,32.83
5,-0.01295471,-0.06359863,0.997879,1.0,-0.01286316,-0.05789185,0.99823,-31.84639,-1.453079,-30.40781,5.533829,0.5025495,0.6625007,1.0,-0.01304626,-0.07073975,0.997406,30.18318,2.155853,-30.92297,5.436966,0.5903868,0.5450804,0.01507878,1.191364,0.05104703,-0.06460957,-0.2202914,-0.03724745,0.3205611,-44.38046,32.83
5,-0.01295471,-0.06359863,0.997879,1.0,-0.01286316,-0.05789185,0.99823,-31.84639,-1.453079,-30.40781,5.533829,0.5025495,0.6625007,1.0,-0.01304626,-0.07073975,0.997406,30.18318,2.155853,-30.92297,5.436966,0.5903868,0.5450804,0.01510572,1.191193,0.05123544,-0.06418148,-0.2199849,-0.03707664,0.3205611,-44.38046,32.83
5,-0.01295471,-0.06359863,0.997879,1.0,-0.01286316,-0.05789185,0.99823,-31.84639,-1.453079,-30.40781,5.533829,0.5025495,0.6625007,1.0,-0.01304626,-0.07073975,0.997406,30.18318,2.155853,-30.92297,5.436966,0.5903868,0.5450804,0.01510572,1.191193,0.05123544,-0.06418148,-0.2199849,-0.03707664,0.3205611,-44.38046,32.83
5,-0.04876709,-0.1936493,0.9798431,1.0,-0.06201172,-0.2281799,0.9716339,-31.94171,-2.266678,-30.53712,5.468033,0.5140999,0.7230638,1.0,-0.0425415,-0.1773529,0.9832153,29.88197,1.353867,-31.03314,5.386673,0.6061518,0.5932102,0.01510358,1.191114,0.05142409,-0.06399745,-0.2193685,-0.03676648,0.3205611,-44.38046,32.85
5,-0.04876709,-0.1936493,0.9798431,1.0,-0.06201172,-0.2281799,0.9716339,-31.94171,-2.266678,-30.53712,5.468033,0.5140999,0.7230638,1.0,-0.0425415,-0.1773529,0.9832153,29.88197,1.353867,-31.03314,5.386673,0.6061518,0.5932102,0.01510358,1.191114,0.05142409,-0.06399745,-0.2193685,-0.03676648,0.3205611,-44.38046,32.85
5,-0.06167603,-0.191452,0.9795532,1.0,-0.06106567,-0.2266388,0.9720612,-31.98267,-2.23909,-30.52585,5.438812,0.515367,0.7216524,1.0,-0.06185913,-0.179306,0.981842,29.95465,1.415085,-31.0197,5.388885,0.6068712,0.5913165,0.015185,1.190985,0.05162925,-0.06343617,-0.218682,-0.03636876,0.3205611,-44.38046,32.85
5,-0.06167603,-0.191452,0.9795532,1.0,-0.06106567,-0.2266388,0.9720612,-31.98267,-2.23909,-30.52585,5.438812,0.515367,0.7216524,1.0,-0.06185913,-0.179306,0.981842,29.95465,1.415085,-31.0197,5.388885,0.6068712,0.5913165,0.015185,1.190985,0.05162925,-0.06343617,-0.218682,-0.03636876,0.3205611,-44.38046,32.85
5,-0.06214905,-0.1799927,0.9816895,1.0,-0.05908203,-0.2377472,0.9695129,-31.98761,-2.255905,-30.52434,5.454117,0.5152119,0.7243026,1.0,-0.0634613,-0.1537018,0.9860687,29.96475,1.399384,-31.01836,5.552933,0.6067811,0.5873602,0.01534116,1.190758,0.05182666,-0.06241793,-0.2177955,-0.03582301,0.3205611,-44.38046,32.85
5,-0.06214905,-0.1799927,0.9816895,1.0,-0.05908203,-0.2377472,0.9695129,-31.98761,-2.255905,-30.52434,5.454117,0.5152119,0.7243026,1.0,-0.0634613,-0.1537018,0.9860687,29.96475,1.399384,-31.01836,5.552933,0.6067811,0.5873602,0.01534116,1.190758,0.05182666,-0.06241793,-0.2177955,-0.03582301,0.3205611,-44.38046,32.85
5,-0.05859375,-0.2109375,0.9757385,1.0,-0.05232239,-0.2309265,0.9715576,-31.99164,-2.273697,-30.52863,5.49736,0.5142073,0.7237216,1.0,-0.0652771,-0.1893921,0.9797211,29.99217,1.383835,-31.02348,5.385406,0.6061364,0.5942755,0.01544654,1.19055,0.05206341,-0.0614471,-0.2169386,-0.03540081,0.3205611,-23.92585,32.85
5,-0.05859375,-0.2109375,0.9757385,1.0,-0.05232239,-0.2309265,0.9715576,-31.99164,-2.273697,-30.52863,5.49736,0.5142073,0.7237216,1.0,-0.0652771,-0.1893921,0.9797211,29.99217,1.383835,-31.02348,5.385406,0.6061364,0.5942755,0.01544654,1.19055,0.05206341,-0.0614471,-0.2169386,-0.03540081,0.3205611,-23.92585,32.85
5,-0.05323792,-0.2074738,0.9767761,1.0,-0.05278015,-0.228363,0.9721375,-31.98793,-2.270844,-30.52385,5.35701,0.5141578,0.7229805,1.0,-0.05369568,-0.1847992,0.9812927,30.02461,1.405518,-31.02312,5.492691,0.6030073,0.5926856,0.01557016,1.190378,0.05223835,-0.06074124,-0.2162585,-0.03489205,0.3205611,-23.92585,32.85
5,-0.05323792,-0.2074738,0.9767761,1.0,-0.05278015,-0.228363,0.9721375,-31.98793,-2.270844,-30.52385,5.35701,0.5141578,0.7229805,1.0,-0.05369568,-0.1847992,0.9812927,30.02461,1.405518,-31.02312,5.492691,0.6030073,0.5926856,0.01557016,1.190378,0.05223835,-0.06074124,-0.2162585,-0.03489205,0.3205611,-23.92585,32.85
5,-0.05403137,-0.2118378,0.9757996,1.0,-0.05545044,-0.223999,0.9730072,-31.97368,-2.248062,-30.5195,5.490189,0.5140972,0.7214268,1.0,-0.05247498,-0.1985016,0.9786835,30.04443,1.421799,-31.01785,5.459366,0.6020965,0.5945036,0.01572764,1.190152,0.05237126,-0.06006517,-0.215592,-0.03452821,0.3205611,-23.92585,32.85
