Second,eye_comb_direction_x,eye_comb_direction_y,eye_comb_direction_z,eye_r_openness,eye_r_direction_x,eye_r_direction_y,eye_r_direction_z,eye_r_origin_x,eye_r_origin_y,eye_r_origin_z,eye_r_pupil_diameter,eye_r_pupil_position_x,eye_r_pupil_position_y,eye_l_openness,eye_l_direction_x,eye_l_direction_y,eye_l_direction_z,eye_l_origin_x,eye_l_origin_y,eye_l_origin_z,eye_l_pupil_diameter,eye_l_pupil_position_x,eye_l_pupil_position_y,head_position_x,head_position_y,head_position_z,head_rotation_roll,head_rotation_pitch,head_rotation_yaw,EDA,BVP,TMP
0,-1.0,-1.0,-1.0,0.0586354,0.0,0.0,0.0,-33.75801,12.85774,-86.66365,-1.0,0.3648209,0.2658998,0.5019077999999999,0.0,0.0,0.0,35.22418,-10.23398,-23.52763,-1.0,-1.0,-1.0,-0.3356571,1.06098,-0.1383267999999999,0.1458226,0.6704851,-0.04010554,6.433249,0.6230401599999998,32.32752611464968
0,-1.0,-1.0,-1.0,0.0586354,0.0,0.0,0.0,-33.75801,12.85774,-86.66365,-1.0,0.3648209,0.2658998,0.5019077999999999,0.0,0.0,0.0,35.22418,-10.23398,-23.52763,-1.0,-1.0,-1.0,-0.3356571,1.06098,-0.1383267999999999,0.1458226,0.6704851,-0.04010554,6.433249,0.6230401599999998,32.32752611464968
0,-1.0,-1.0,-1.0,0.0586354,0.0,0.0,0.0,-33.75801,12.85774,-86.66365,-1.0,0.3648209,0.2658998,0.5019077999999999,0.0,0.0,0.0,35.22418,-10.23398,-23.52763,-1.0,-1.0,-1.0,-0.3356571,1.06098,-0.1383267999999999,0.1458226,0.6704851,-0.04010554,6.433249,0.6230401599999998,32.32752611464968
0,-1.0,-1.0,-1.0,0.0586354,0.0,0.0,0.0,-33.75801,12.85774,-86.66365,-1.0,0.3648209,0.2658998,0.5019077999999999,0.0,0.0,0.0,35.22418,-10.23398,-23.52763,-1.0,-1.0,-1.0,-0.3356571,1.06098,-0.1383267999999999,0.1458226,0.6704851,-0.04010554,6.433249,0.6230401599999998,32.32752611464968
0,-1.0,-1.0,-1.0,0.0,0.0,0.0,0.0,-33.75801,12.85774,-86.66365,-1.0,0.3614857,0.2643634,0.4899487,0.0,0.0,0.0,35.22418,-10.23398,-23.52763,-1.0,-1.0,-1.0,-0.3358092,1.061306,-0.1380336,0.1451908999999999,0.6691263000000001,-0.03909053,6.433249,0.6230401599999998,32.32752611464968
0,-1.0,-1.0,-1.0,0.0,0.0,0.0,0.0,-33.75801,12.85774,-86.66365,-1.0,0.3614857,0.2643634,0.4899487,0.0,0.0,0.0,35.22418,-10.23398,-23.52763,-1.0,-1.0,-1.0,-0.3358092,1.061306,-0.1380336,0.1451908999999999,0.6691263000000001,-0.03909053,6.433249,0.6230401599999998,32.32752611464968
0,-1.0,-1.0,-1.0,0.0,0.0,0.0,0.0,-33.75801,12.85774,-86.66365,-1.0,0.3614857,0.2643634,0.4899487,0.0,0.0,0.0,35.22418,-10.23398,-23.52763,-1.0,-1.0,-1.0,-0.3358092,1.061306,-0.1380336,0.1451908999999999,0.6691263000000001,-0.03909053,6.433249,0.6230401599999998,32.32752611464968
0,-1.0,-1.0,-1.0,0.0,0.0,0.0,0.0,-33.75801,12.85774,-86.66365,-1.0,0.3582944,0.2618582,0.4601337,0.0,0.0,0.0,35.22418,-10.23398,-23.52763,-1.0,0.6642288000000001,0.2229677,-0.3358917,1.061444,-0.1378007,0.1448187,0.6684163000000001,-0.03876074,6.433249,0.6230401599999998,32.32752611464968
0,-1.0,-1.0,-1.0,0.0,0.0,0.0,0.0,-33.75801,12.85774,-86.66365,-1.0,0.3582944,0.2618582,0.4601337,0.0,0.0,0.0,35.22418,-10.23398,-23.52763,-1.0,0.6642288000000001,0.2229677,-0.3358917,1.061444,-0.1378007,0.1448187,0.6684163000000001,-0.03876074,6.433249,0.6230401599999998,32.32752611464968
0,-1.0,-1.0,-1.0,0.0,0.0,0.0,0.0,-33.75801,12.85774,-86.66365,-1.0,0.3582944,0.2618582,0.4601337,0.0,0.0,0.0,35.22418,-10.23398,-23.52763,-1.0,0.6642288000000001,0.2229677,-0.3358917,1.061444,-0.1378007,0.1448187,0.6684163000000001,-0.03876074,6.433249,0.6230401599999998,32.32752611464968
0,-1.0,-1.0,-1.0,0.0,0.0,0.0,0.0,-33.75801,12.85774,-86.66365,-1.0,0.3582944,0.2618582,0.4601337,0.0,0.0,0.0,35.22418,-10.23398,-23.52763,-1.0,0.6642288000000001,0.2229677,-0.3359410999999999,1.061591,-0.1376174,0.144224,0.6673644,-0.03875824,6.433249,0.6230401599999998,32.32752611464968
0,-1.0,-1.0,-1.0,0.0,0.0,0.0,0.0,-33.75801,12.85774,-86.66365,-1.0,0.3582944,0.2618582,0.4601337,0.0,0.0,0.0,35.22418,-10.23398,-23.52763,-1.0,0.6642288000000001,0.2229677,-0.3359410999999999,1.061591,-0.1376174,0.144224,0.6673644,-0.03875824,6.433249,0.6230401599999998,32.32752611464968
0,-1.0,-1.0,-1.0,0.0,0.0,0.0,0.0,-33.75801,12.85774,-86.66365,-1.0,0.3582944,0.2618582,0.4601337,0.0,0.0,0.0,35.22418,-10.23398,-23.52763,-1.0,0.6642288000000001,0.2229677,-0.3359410999999999,1.061591,-0.1376174,0.144224,0.6673644,-0.03875824,6.433249,0.6230401599999998,32.32752611464968
0,-1.0,-1.0,-1.0,0.0,0.0,0.0,0.0,-33.75801,12.85774,-86.66365,-1.0,0.3582944,0.2618582,0.4601337,0.0,0.0,0.0,35.22418,-10.23398,-23.52763,-1.0,0.6642288000000001,0.2229677,-0.3359395,1.061929,-0.1372719,0.1432692,0.6663118,-0.03833319,6.433249,0.6230401599999998,32.32752611464968
0,-1.0,-1.0,-1.0,0.0,0.0,0.0,0.0,-33.75801,12.85774,-86.66365,-1.0,0.3582944,0.2618582,0.4601337,0.0,0.0,0.0,35.22418,-10.23398,-23.52763,-1.0,0.6642288000000001,0.2229677,-0.3359395,1.061929,-0.1372719,0.1432692,0.6663118,-0.03833319,6.433249,0.6230401599999998,32.32752611464968
0,-1.0,-1.0,-1.0,0.0,0.0,0.0,0.0,-33.75801,12.85774,-86.66365,-1.0,0.3582944,0.2618582,0.4601337,0.0,0.0,0.0,35.22418,-10.23398,-23.52763,-1.0,0.6642288000000001,0.2229677,-0.3359395,1.061929,-0.1372719,0.1432692,0.6663118,-0.03833319,6.433249,0.6230401599999998,32.32752611464968
0,-1.0,-1.0,-1.0,0.0,0.0,0.0,0.0,-33.75801,12.85774,-86.66365,-1.0,0.3382844,0.2712527999999999,0.4111179,0.0,0.0,0.0,35.22418,-10.23398,-23.52763,-1.0,0.6701421999999999,0.2212869,-0.3360505,1.061955,-0.1371097,0.1430445,0.6656194000000001,-0.0381054,6.433249,0.6230401599999998,32.32752611464968
0,-1.0,-1.0,-1.0,0.0,0.0,0.0,0.0,-33.75801,12.85774,-86.66365,-1.0,0.3382844,0.2712527999999999,0.4111179,0.0,0.0,0.0,35.22418,-10.23398,-23.52763,-1.0,0.6701421999999999,0.2212869,-0.3360505,1.061955,-0.1371097,0.1430445,0.6656194000000001,-0.0381054,6.433249,0.6230401599999998,32.32752611464968
0,-1.0,-1.0,-1.0,0.0,0.0,0.0,0.0,-33.75801,12.85774,-86.66365,-1.0,0.3382844,0.2712527999999999,0.4111179,0.0,0.0,0.0,35.22418,-10.23398,-23.52763,-1.0,0.6701421999999999,0.2212869,-0.3360505,1.061955,-0.1371097,0.1430445,0.6656194000000001,-0.0381054,6.433249,0.6230401599999998,32.32752611464968
0,-1.0,-1.0,-1.0,0.0,0.0,0.0,0.0,-33.75801,12.85774,-86.66365,-1.0,0.3382844,0.2712527999999999,0.4111179,0.0,0.0,0.0,35.22418,-10.23398,-23.52763,-1.0,0.6701421999999999,0.2212869,-0.336162,1.061942,-0.1369089,0.1430297,0.6648383000000001,-0.03800222,6.433249,0.6230401599999998,32.32752611464968
0,-1.0,-1.0,-1.0,0.0,0.0,0.0,0.0,-33.75801,12.85774,-86.66365,-1.0,0.3382844,0.2712527999999999,0.4111179,0.0,0.0,0.0,35.22418,-10.23398,-23.52763,-1.0,0.6701421999999999,0.2212869,-0.336162,1.061942,-0.1369089,0.1430297,0.6648383000000001,-0.03800222,6.433249,0.6230401599999998,32.32752611464968
0,-1.0,-1.0,-1.0,0.0,0.0,0.0,0.0,-33.75801,12.85774,-86.66365,-1.0,0.3382844,0.2712527999999999,0.4111179,0.0,0.0,0.0,35.22418,-10.23398,-23.52763,-1.0,0.6701421999999999,0.2212869,-0.336162,1.061942,-0.1369089,0.1430297,0.6648383000000001,-0.03800222,6.433249,0.6230401599999998,32.32752611464968
0,-1.0,-1.0,-1.0,0.0,0.0,0.0,0.0,-33.75801,12.85774,-86.66365,-1.0,0.3797895,0.2450616,0.4111179,0.0,0.0,0.0,35.22418,-10.23398,-23.52763,-1.0,0.6730831,0.2170905,-0.3361366,1.062151,-0.1365564,0.1424668999999999,0.6635761,-0.03753101,6.433249,0.6230401599999998,32.32752611464968
0,-1.0,-1.0,-1.0,0.0,0.0,0.0,0.0,-33.75801,12.85774,-86.66365,-1.0,0.3797895,0.2450616,0.4111179,0.0,0.0,0.0,35.22418,-10.23398,-23.52763,-1.0,0.6730831,0.2170905,-0.3361366,1.062151,-0.1365564,0.1424668999999999,0.6635761,-0.03753101,6.433249,0.6230401599999998,32.32752611464968
0,-1.0,-1.0,-1.0,0.0,0.0,0.0,0.0,-33.75801,12.85774,-86.66365,-1.0,0.3797895,0.2450616,0.4111179,0.0,0.0,0.0,35.22418,-10.23398,-23.52763,-1.0,0.6730831,0.2170905,-0.3361366,1.062151,-0.1365564,0.1424668999999999,0.6635761,-0.03753101,6.433249,0.6230401599999998,32.32752611464968
0,0.07592773,-0.137146,0.9876251,0.0,0.0,0.0,0.0,-33.75801,12.85774,-86.66365,-1.0,-1.0,-1.0,0.1916263,0.07592773,-0.137146,0.9876251,34.929759999999995,-8.377213000000001,-24.33469,5.223648000000001,0.4068875,0.8507251,-0.3361672,1.062303,-0.1360977,0.1416412,0.6624335,-0.03695798,6.433249,0.6230401599999998,32.32752611464968
0,0.07592773,-0.137146,0.9876251,0.0,0.0,0.0,0.0,-33.75801,12.85774,-86.66365,-1.0,-1.0,-1.0,0.1916263,0.07592773,-0.137146,0.9876251,34.929759999999995,-8.377213000000001,-24.33469,5.223648000000001,0.4068875,0.8507251,-0.3361672,1.062303,-0.1360977,0.1416412,0.6624335,-0.03695798,6.433249,0.6230401599999998,32.32752611464968
0,0.07592773,-0.137146,0.9876251,0.0,0.0,0.0,0.0,-33.75801,12.85774,-86.66365,-1.0,-1.0,-1.0,0.1916263,0.07592773,-0.137146,0.9876251,34.929759999999995,-8.377213000000001,-24.33469,5.223648000000001,0.4068875,0.8507251,-0.3361672,1.062303,-0.1360977,0.1416412,0.6624335,-0.03695798,6.433249,0.6230401599999998,32.32752611464968
0,0.07592773,-0.137146,0.9876251,0.0,0.0,0.0,0.0,-33.75801,12.85774,-86.66365,-1.0,-1.0,-1.0,0.1916263,0.07592773,-0.137146,0.9876251,34.929759999999995,-8.377213000000001,-24.33469,5.223648000000001,0.4068875,0.8507251,-0.3362551,1.062353,-0.1356643,0.1412705,0.6613269,-0.03706689,6.433249,95.52018,32.32752611464968
0,0.07592773,-0.137146,0.9876251,0.0,0.0,0.0,0.0,-33.75801,12.85774,-86.66365,-1.0,-1.0,-1.0,0.1916263,0.07592773,-0.137146,0.9876251,34.929759999999995,-8.377213000000001,-24.33469,5.223648000000001,0.4068875,0.8507251,-0.3362551,1.062353,-0.1356643,0.1412705,0.6613269,-0.03706689,6.433249,95.52018,32.32752611464968
0,0.07592773,-0.137146,0.9876251,0.0,0.0,0.0,0.0,-33.75801,12.85774,-86.66365,-1.0,-1.0,-1.0,0.1916263,0.07592773,-0.137146,0.9876251,34.929759999999995,-8.377213000000001,-24.33469,5.223648000000001,0.4068875,0.8507251,-0.3362551,1.062353,-0.1356643,0.1412705,0.6613269,-0.03706689,6.433249,95.52018,32.32752611464968
0,0.08796692,0.01481628,0.9960022,0.1731723,0.1061401,-0.2124328999999999,0.9713898,-33.86244,12.71181,-86.69478000000001,3.020248,0.6281038000000001,0.9347883,0.1064481999999999,0.08796692,0.01481628,0.9960022,34.89955,-8.768341,-23.55309,6.0974580000000005,0.4068560999999999,0.8288244,-0.3362987,1.062325,-0.1353494999999999,0.1409146,0.6605976,-0.0373169,6.433249,95.52018,32.32752611464968
0,0.08796692,0.01481628,0.9960022,0.1731723,0.1061401,-0.2124328999999999,0.9713898,-33.86244,12.71181,-86.69478000000001,3.020248,0.6281038000000001,0.9347883,0.1064481999999999,0.08796692,0.01481628,0.9960022,34.89955,-8.768341,-23.55309,6.0974580000000005,0.4068560999999999,0.8288244,-0.3362987,1.062325,-0.1353494999999999,0.1409146,0.6605976,-0.0373169,6.433249,95.52018,32.32752611464968
0,0.08796692,0.01481628,0.9960022,0.1731723,0.1061401,-0.2124328999999999,0.9713898,-33.86244,12.71181,-86.69478000000001,3.020248,0.6281038000000001,0.9347883,0.1064481999999999,0.08796692,0.01481628,0.9960022,34.89955,-8.768341,-23.55309,6.0974580000000005,0.4068560999999999,0.8288244,-0.3362987,1.062325,-0.1353494999999999,0.1409146,0.6605976,-0.0373169,6.433249,95.52018,32.32752611464968
0,0.07435608,0.01876831,0.9970398,1.0,0.0,0.0,0.0,-33.79987,12.77267,-86.67487,-1.0,-1.0,-1.0,1.0,0.07435608,0.01876831,0.9970398,34.88644,-8.772064,-23.57135,6.129089,0.4095457,0.8284961,-0.3362166,1.06236,-0.1351234,0.1403741,0.6600115,-0.03734454,6.433249,95.52018,32.32752611464968
0,0.07435608,0.01876831,0.9970398,1.0,0.0,0.0,0.0,-33.79987,12.77267,-86.67487,-1.0,-1.0,-1.0,1.0,0.07435608,0.01876831,0.9970398,34.88644,-8.772064,-23.57135,6.129089,0.4095457,0.8284961,-0.3362166,1.06236,-0.1351234,0.1403741,0.6600115,-0.03734454,6.433249,95.52018,32.32752611464968
0,0.07435608,0.01876831,0.9970398,1.0,0.0,0.0,0.0,-33.79987,12.77267,-86.67487,-1.0,-1.0,-1.0,1.0,0.07435608,0.01876831,0.9970398,34.88644,-8.772064,-23.57135,6.129089,0.4095457,0.8284961,-0.3362166,1.06236,-0.1351234,0.1403741,0.6600115,-0.03734454,6.433249,95.52018,32.32752611464968
0,0.07313538,0.02093506,0.9971008,1.0,0.0,0.0,0.0,-33.80133,12.77237,-86.67564,-1.0,-1.0,-1.0,1.0,0.07313538,0.02093506,0.9971008,34.87857,-8.769669,-23.5878,6.131348,0.4100092000000001,0.8282455,-0.3362219,1.062261,-0.1350453,0.1405753,0.6598859,-0.03743466,6.433249,95.52018,32.32752611464968
0,0.07313538,0.02093506,0.9971008,1.0,0.0,0.0,0.0,-33.80133,12.77237,-86.67564,-1.0,-1.0,-1.0,1.0,0.07313538,0.02093506,0.9971008,34.87857,-8.769669,-23.5878,6.131348,0.4100092000000001,0.8282455,-0.3362219,1.062261,-0.1350453,0.1405753,0.6598859,-0.03743466,6.433249,95.52018,32.32752611464968
0,0.07313538,0.02093506,0.9971008,1.0,0.0,0.0,0.0,-33.80133,12.77237,-86.67564,-1.0,-1.0,-1.0,1.0,0.07313538,0.02093506,0.9971008,34.87857,-8.769669,-23.5878,6.131348,0.4100092000000001,0.8282455,-0.3362219,1.062261,-0.1350453,0.1405753,0.6598859,-0.03743466,6.433249,95.52018,32.32752611464968
0,0.07290649,0.02008057,0.9971313,1.0,0.08056641,-0.2461853,0.9658508,-33.86575,12.71173,-86.69478000000001,3.083405,0.6306937,0.9350452,1.0,0.07290649,0.02008057,0.9971313,34.8773,-8.770553999999999,-23.59018,6.13446,0.4100821,0.8284724,-0.3362131,1.06219,-0.1348937999999999,0.1407402999999999,0.6598356,-0.03727879,6.433249,95.52018,32.32752611464968
0,0.07290649,0.02008057,0.9971313,1.0,0.08056641,-0.2461853,0.9658508,-33.86575,12.71173,-86.69478000000001,3.083405,0.6306937,0.9350452,1.0,0.07290649,0.02008057,0.9971313,34.8773,-8.770553999999999,-23.59018,6.13446,0.4100821,0.8284724,-0.3362131,1.06219,-0.1348937999999999,0.1407402999999999,0.6598356,-0.03727879,6.433249,95.52018,32.32752611464968
0,0.07290649,0.02008057,0.9971313,1.0,0.08056641,-0.2461853,0.9658508,-33.86575,12.71173,-86.69478000000001,3.083405,0.6306937,0.9350452,1.0,0.07290649,0.02008057,0.9971313,34.8773,-8.770553999999999,-23.59018,6.13446,0.4100821,0.8284724,-0.3362131,1.06219,-0.1348937999999999,0.1407402999999999,0.6598356,-0.03727879,6.433249,95.52018,32.32752611464968
0,0.07290649,0.02008057,0.9971313,1.0,0.08056641,-0.2461853,0.9658508,-33.86575,12.71173,-86.69478000000001,3.083405,0.6306937,0.9350452,1.0,0.07290649,0.02008057,0.9971313,34.8773,-8.770553999999999,-23.59018,6.13446,0.4100821,0.8284724,-0.3361177,1.0623280000000002,-0.1348661,0.1406624,0.6599162,-0.03690114,6.433249,95.52018,32.32752611464968
0,0.07290649,0.02008057,0.9971313,1.0,0.08056641,-0.2461853,0.9658508,-33.86575,12.71173,-86.69478000000001,3.083405,0.6306937,0.9350452,1.0,0.07290649,0.02008057,0.9971313,34.8773,-8.770553999999999,-23.59018,6.13446,0.4100821,0.8284724,-0.3361177,1.0623280000000002,-0.1348661,0.1406624,0.6599162,-0.03690114,6.433249,95.52018,32.32752611464968
0,0.07290649,0.02008057,0.9971313,1.0,0.08056641,-0.2461853,0.9658508,-33.86575,12.71173,-86.69478000000001,3.083405,0.6306937,0.9350452,1.0,0.07290649,0.02008057,0.9971313,34.8773,-8.770553999999999,-23.59018,6.13446,0.4100821,0.8284724,-0.3361177,1.0623280000000002,-0.1348661,0.1406624,0.6599162,-0.03690114,6.433249,95.52018,32.32752611464968
0,0.07298279,0.020401,0.9971161,1.0,0.08636475,-0.2275848,0.9699097,-33.80905,12.77225,-86.67564,2.90976,0.6310089,0.9351681,1.0,0.07298279,0.020401,0.9971161,34.87567,-8.772064,-23.59317,6.130096,0.4101219,0.8284961,-0.3360245999999999,1.062457,-0.134783,0.1404541,0.6597899,-0.03637076,6.433249,114.3757,32.32752611464968
0,0.07298279,0.020401,0.9971161,1.0,0.08636475,-0.2275848,0.9699097,-33.80905,12.77225,-86.67564,2.90976,0.6310089,0.9351681,1.0,0.07298279,0.020401,0.9971161,34.87567,-8.772064,-23.59317,6.130096,0.4101219,0.8284961,-0.3360245999999999,1.062457,-0.134783,0.1404541,0.6597899,-0.03637076,6.433249,114.3757,32.32752611464968
0,0.07298279,0.020401,0.9971161,1.0,0.08636475,-0.2275848,0.9699097,-33.80905,12.77225,-86.67564,2.90976,0.6310089,0.9351681,1.0,0.07298279,0.020401,0.9971161,34.87567,-8.772064,-23.59317,6.130096,0.4101219,0.8284961,-0.3360245999999999,1.062457,-0.134783,0.1404541,0.6597899,-0.03637076,6.433249,114.3757,32.32752611464968
0,0.05722046,0.00428772,0.9983368,1.0,0.01748657,-0.2324677,0.9724426,-33.54141,12.65915,-86.75708,3.072952,0.6303785,0.9349222,1.0,0.05722046,0.00428772,0.9983368,34.845290000000006,-8.673599000000001,-23.78363,6.098877,0.413624,0.8301179,-0.3360245999999999,1.062457,-0.134783,0.1404541,0.6597899,-0.03637076,6.433249,114.3757,32.32752611464968
0,0.05722046,0.00428772,0.9983368,1.0,0.01748657,-0.2324677,0.9724426,-33.54141,12.65915,-86.75708,3.072952,0.6303785,0.9349222,1.0,0.05722046,0.00428772,0.9983368,34.845290000000006,-8.673599000000001,-23.78363,6.098877,0.413624,0.8301179,-0.3360245999999999,1.062457,-0.134783,0.1404541,0.6597899,-0.03637076,6.433249,114.3757,32.32752611464968
0,0.05722046,0.00428772,0.9983368,1.0,0.01748657,-0.2324677,0.9724426,-33.54141,12.65915,-86.75708,3.072952,0.6303785,0.9349222,1.0,0.05722046,0.00428772,0.9983368,34.845290000000006,-8.673599000000001,-23.78363,6.098877,0.413624,0.8301179,-0.3360245999999999,1.062457,-0.134783,0.1404541,0.6597899,-0.03637076,6.433249,114.3757,32.32752611464968
0,0.05722046,0.00428772,0.9983368,1.0,0.01748657,-0.2324677,0.9724426,-33.54141,12.65915,-86.75708,3.072952,0.6303785,0.9349222,1.0,0.05722046,0.00428772,0.9983368,34.845290000000006,-8.673599000000001,-23.78363,6.098877,0.413624,0.8301179,-0.3360165,1.062684,-0.1346525,0.1400223,0.6595113,-0.03600562,6.433249,114.3757,32.32752611464968
0,0.05722046,0.00428772,0.9983368,1.0,0.01748657,-0.2324677,0.9724426,-33.54141,12.65915,-86.75708,3.072952,0.6303785,0.9349222,1.0,0.05722046,0.00428772,0.9983368,34.845290000000006,-8.673599000000001,-23.78363,6.098877,0.413624,0.8301179,-0.3360165,1.062684,-0.1346525,0.1400223,0.6595113,-0.03600562,6.433249,114.3757,32.32752611464968
0,0.05722046,0.00428772,0.9983368,1.0,0.01748657,-0.2324677,0.9724426,-33.54141,12.65915,-86.75708,3.072952,0.6303785,0.9349222,1.0,0.05722046,0.00428772,0.9983368,34.845290000000006,-8.673599000000001,-23.78363,6.098877,0.413624,0.8301179,-0.3360165,1.062684,-0.1346525,0.1400223,0.6595113,-0.03600562,6.433249,114.3757,32.32752611464968
0,0.05950928,0.0001678466999999,0.9982147,1.0,0.0905304,-0.2064209,0.9742584,-33.80988,12.67937,-86.7197,2.923737,0.6296771,0.9346654,1.0,0.05950928,0.0001678466999999,0.9982147,34.84375,-8.682831,-23.77209,6.077026,0.4132877,0.8309941999999999,-0.335922,1.063138,-0.1344563,0.1383626,0.6593733,-0.03489269,6.433249,114.3757,32.32752611464968
0,0.05950928,0.0001678466999999,0.9982147,1.0,0.0905304,-0.2064209,0.9742584,-33.80988,12.67937,-86.7197,2.923737,0.6296771,0.9346654,1.0,0.05950928,0.0001678466999999,0.9982147,34.84375,-8.682831,-23.77209,6.077026,0.4132877,0.8309941999999999,-0.335922,1.063138,-0.1344563,0.1383626,0.6593733,-0.03489269,6.433249,114.3757,32.32752611464968
0,0.05950928,0.0001678466999999,0.9982147,1.0,0.0905304,-0.2064209,0.9742584,-33.80988,12.67937,-86.7197,2.923737,0.6296771,0.9346654,1.0,0.05950928,0.0001678466999999,0.9982147,34.84375,-8.682831,-23.77209,6.077026,0.4132877,0.8309941999999999,-0.335922,1.063138,-0.1344563,0.1383626,0.6593733,-0.03489269,6.433249,114.3757,32.32752611464968
0,0.05285645,-0.00352478,0.9985809,0.8937134,0.01000977,-0.2068787,0.978302,-33.50418,12.67844,-86.75157,2.753586,0.6363394,0.9348504,0.9067475,0.05285645,-0.00352478,0.9985809,34.80809,-8.687636999999999,-23.81731,5.533447,0.4156779,0.8312485000000001,-0.3360521999999999,1.0634940000000002,-0.1341296,0.1369187,0.6590227,-0.03413426,6.433249,114.3757,32.32752611464968
0,0.05285645,-0.00352478,0.9985809,0.8937134,0.01000977,-0.2068787,0.978302,-33.50418,12.67844,-86.75157,2.753586,0.6363394,0.9348504,0.9067475,0.05285645,-0.00352478,0.9985809,34.80809,-8.687636999999999,-23.81731,5.533447,0.4156779,0.8312485000000001,-0.3360521999999999,1.0634940000000002,-0.1341296,0.1369187,0.6590227,-0.03413426,6.433249,114.3757,32.32752611464968
0,0.05285645,-0.00352478,0.9985809,0.8937134,0.01000977,-0.2068787,0.978302,-33.50418,12.67844,-86.75157,2.753586,0.6363394,0.9348504,0.9067475,0.05285645,-0.00352478,0.9985809,34.80809,-8.687636999999999,-23.81731,5.533447,0.4156779,0.8312485000000001,-0.3360521999999999,1.0634940000000002,-0.1341296,0.1369187,0.6590227,-0.03413426,6.433249,114.3757,32.32752611464968
0,0.05285645,-0.00352478,0.9985809,0.8937134,0.01000977,-0.2068787,0.978302,-33.50418,12.67844,-86.75157,2.753586,0.6363394,0.9348504,0.9067475,0.05285645,-0.00352478,0.9985809,34.80809,-8.687636999999999,-23.81731,5.533447,0.4156779,0.8312485000000001,-0.3361700999999999,1.063793,-0.1338488,0.1352333999999999,0.6579788000000001,-0.03365374,6.433249,114.3757,32.32752611464968
0,0.05285645,-0.00352478,0.9985809,0.8937134,0.01000977,-0.2068787,0.978302,-33.50418,12.67844,-86.75157,2.753586,0.6363394,0.9348504,0.9067475,0.05285645,-0.00352478,0.9985809,34.80809,-8.687636999999999,-23.81731,5.533447,0.4156779,0.8312485000000001,-0.3361700999999999,1.063793,-0.1338488,0.1352333999999999,0.6579788000000001,-0.03365374,6.433249,114.3757,32.32752611464968
0,0.05285645,-0.00352478,0.9985809,0.8937134,0.01000977,-0.2068787,0.978302,-33.50418,12.67844,-86.75157,2.753586,0.6363394,0.9348504,0.9067475,0.05285645,-0.00352478,0.9985809,34.80809,-8.687636999999999,-23.81731,5.533447,0.4156779,0.8312485000000001,-0.3361700999999999,1.063793,-0.1338488,0.1352333999999999,0.6579788000000001,-0.03365374,6.433249,114.3757,32.32752611464968
0,-1.0,-1.0,-1.0,0.8937134,0.0,0.0,0.0,-33.50418,12.67844,-86.75157,-1.0,0.3933113,0.2300695,0.9067475,0.0,0.0,0.0,36.85298,-10.85373,-24.1769,-1.0,-1.0,-1.0,-0.3363363,1.064571,-0.1337237999999999,0.1327995,0.6581703000000001,-0.03162251,6.433249,42.60723,32.32752611464968
0,-1.0,-1.0,-1.0,0.8937134,0.0,0.0,0.0,-33.50418,12.67844,-86.75157,-1.0,0.3933113,0.2300695,0.9067475,0.0,0.0,0.0,36.85298,-10.85373,-24.1769,-1.0,-1.0,-1.0,-0.3363363,1.064571,-0.1337237999999999,0.1327995,0.6581703000000001,-0.03162251,6.433249,42.60723,32.32752611464968
0,-1.0,-1.0,-1.0,0.8937134,0.0,0.0,0.0,-33.50418,12.67844,-86.75157,-1.0,0.3933113,0.2300695,0.9067475,0.0,0.0,0.0,36.85298,-10.85373,-24.1769,-1.0,-1.0,-1.0,-0.3363363,1.064571,-0.1337237999999999,0.1327995,0.6581703000000001,-0.03162251,6.433249,42.60723,32.32752611464968
0,-1.0,-1.0,-1.0,0.0,0.0,0.0,0.0,-33.50418,12.67844,-86.75157,-1.0,0.3933113,0.2300695,0.0,0.0,0.0,0.0,36.85298,-10.85373,-24.1769,-1.0,-1.0,-1.0,-0.3364377,1.065451,-0.1334183,0.1296049,0.658111,-0.02920314,6.433249,42.60723,32.32752611464968
0,-1.0,-1.0,-1.0,0.0,0.0,0.0,0.0,-33.50418,12.67844,-86.75157,-1.0,0.3933113,0.2300695,0.0,0.0,0.0,0.0,36.85298,-10.85373,-24.1769,-1.0,-1.0,-1.0,-0.3364377,1.065451,-0.1334183,0.1296049,0.658111,-0.02920314,6.433249,42.60723,32.32752611464968
0,-1.0,-1.0,-1.0,0.0,0.0,0.0,0.0,-33.50418,12.67844,-86.75157,-1.0,0.3933113,0.2300695,0.0,0.0,0.0,0.0,36.85298,-10.85373,-24.1769,-1.0,-1.0,-1.0,-0.3364377,1.065451,-0.1334183,0.1296049,0.658111,-0.02920314,6.433249,42.60723,32.32752611464968
1,-1.0,-1.0,-1.0,0.0,0.0,0.0,0.0,-33.50418,12.67844,-86.75157,-1.0,0.3933113,0.2300695,0.0,0.0,0.0,0.0,36.85298,-10.85373,-24.1769,-1.0,-1.0,-1.0,-0.3366447999999999,1.066597,-0.1332487,0.126577,0.6578255999999999,-0.02553152,6.433249,42.60723,32.32752611464968
1,-1.0,-1.0,-1.0,0.0,0.0,0.0,0.0,-33.50418,12.67844,-86.75157,-1.0,0.3933113,0.2300695,0.0,0.0,0.0,0.0,36.85298,-10.85373,-24.1769,-1.0,-1.0,-1.0,-0.3366447999999999,1.066597,-0.1332487,0.126577,0.6578255999999999,-0.02553152,6.433249,42.60723,32.32752611464968
1,-1.0,-1.0,-1.0,0.0,0.0,0.0,0.0,-33.50418,12.67844,-86.75157,-1.0,0.3933113,0.2300695,0.0,0.0,0.0,0.0,36.85298,-10.85373,-24.1769,-1.0,-1.0,-1.0,-0.3366447999999999,1.066597,-0.1332487,0.126577,0.6578255999999999,-0.02553152,6.433249,42.60723,32.32752611464968
1,-1.0,-1.0,-1.0,0.0,0.0,0.0,0.0,-33.50418,12.67844,-86.75157,-1.0,0.3772314,0.2353326,0.0,0.0,0.0,0.0,36.85298,-10.85373,-24.1769,-1.0,-1.0,-1.0,-0.3369468,1.06767,-0.1331588,0.1242452,0.6577997,-0.02232319,6.433249,42.60723,32.32752611464968
1,-1.0,-1.0,-1.0,0.0,0.0,0.0,0.0,-33.50418,12.67844,-86.75157,-1.0,0.3772314,0.2353326,0.0,0.0,0.0,0.0,36.85298,-10.85373,-24.1769,-1.0,-1.0,-1.0,-0.3369468,1.06767,-0.1331588,0.1242452,0.6577997,-0.02232319,6.433249,42.60723,32.32752611464968
1,-1.0,-1.0,-1.0,0.0,0.0,0.0,0.0,-33.50418,12.67844,-86.75157,-1.0,0.3772314,0.2353326,0.0,0.0,0.0,0.0,36.85298,-10.85373,-24.1769,-1.0,-1.0,-1.0,-0.3369468,1.06767,-0.1331588,0.1242452,0.6577997,-0.02232319,6.433249,42.60723,32.32752611464968
1,-1.0,-1.0,-1.0,0.0,0.0,0.0,0.0,-33.50418,12.67844,-86.75157,-1.0,0.3772314,0.2353326,0.0,0.0,0.0,0.0,36.85298,-10.85373,-24.1769,-1.0,-1.0,-1.0,-0.3373367,1.0685639999999998,-0.1331128,0.1215668,0.6574023,-0.01898233,6.433249,42.60723,32.32752611464968
1,-1.0,-1.0,-1.0,0.0,0.0,0.0,0.0,-33.50418,12.67844,-86.75157,-1.0,0.3772314,0.2353326,0.0,0.0,0.0,0.0,36.85298,-10.85373,-24.1769,-1.0,-1.0,-1.0,-0.3373367,1.0685639999999998,-0.1331128,0.1215668,0.6574023,-0.01898233,6.433249,42.60723,32.32752611464968
1,-1.0,-1.0,-1.0,0.0,0.0,0.0,0.0,-33.50418,12.67844,-86.75157,-1.0,0.3772314,0.2353326,0.0,0.0,0.0,0.0,36.85298,-10.85373,-24.1769,-1.0,-1.0,-1.0,-0.3373367,1.0685639999999998,-0.1331128,0.1215668,0.6574023,-0.01898233,6.433249,42.60723,32.32752611464968
1,0.01597595,0.185257,0.9825592,1.0,0.1066283999999999,0.04907227,0.9930725,-35.15137,3.105377,-58.32764,3.378937,0.6329024000000001,0.8188283000000001,1.0,0.01597595,0.185257,0.9825592,34.43927,-7.32373,-24.1711,4.621933,0.4356181999999999,0.7538517,-0.3376415,1.069492,-0.1329144,0.1185163,0.6570836999999999,-0.0166111,6.433249,-73.12883,32.32752611464968
1,0.01597595,0.185257,0.9825592,1.0,0.1066283999999999,0.04907227,0.9930725,-35.15137,3.105377,-58.32764,3.378937,0.6329024000000001,0.8188283000000001,1.0,0.01597595,0.185257,0.9825592,34.43927,-7.32373,-24.1711,4.621933,0.4356181999999999,0.7538517,-0.3376415,1.069492,-0.1329144,0.1185163,0.6570836999999999,-0.0166111,6.433249,-73.12883,32.32752611464968
1,0.01597595,0.185257,0.9825592,1.0,0.1066283999999999,0.04907227,0.9930725,-35.15137,3.105377,-58.32764,3.378937,0.6329024000000001,0.8188283000000001,1.0,0.01597595,0.185257,0.9825592,34.43927,-7.32373,-24.1711,4.621933,0.4356181999999999,0.7538517,-0.3376415,1.069492,-0.1329144,0.1185163,0.6570836999999999,-0.0166111,6.433249,-73.12883,32.32752611464968
1,0.01597595,0.185257,0.9825592,1.0,0.1066283999999999,0.04907227,0.9930725,-35.15137,3.105377,-58.32764,3.378937,0.6329024000000001,0.8188283000000001,1.0,0.01597595,0.185257,0.9825592,34.43927,-7.32373,-24.1711,4.621933,0.4356181999999999,0.7538517,-0.3379887,1.070451,-0.1328206,0.1159311999999999,0.656562,-0.01462808,6.433249,-73.12883,32.32752611464968
1,0.01597595,0.185257,0.9825592,1.0,0.1066283999999999,0.04907227,0.9930725,-35.15137,3.105377,-58.32764,3.378937,0.6329024000000001,0.8188283000000001,1.0,0.01597595,0.185257,0.9825592,34.43927,-7.32373,-24.1711,4.621933,0.4356181999999999,0.7538517,-0.3379887,1.070451,-0.1328206,0.1159311999999999,0.656562,-0.01462808,6.433249,-73.12883,32.32752611464968
1,0.01597595,0.185257,0.9825592,1.0,0.1066283999999999,0.04907227,0.9930725,-35.15137,3.105377,-58.32764,3.378937,0.6329024000000001,0.8188283000000001,1.0,0.01597595,0.185257,0.9825592,34.43927,-7.32373,-24.1711,4.621933,0.4356181999999999,0.7538517,-0.3379887,1.070451,-0.1328206,0.1159311999999999,0.656562,-0.01462808,6.433249,-73.12883,32.32752611464968
1,-0.009643555,0.1468811,0.9891052,1.0,0.07498169,-0.1679535,0.9829254,-33.8723,14.172820000000002,-88.28558000000001,2.137619,0.6349132,0.8423615,1.0,-0.009643555,0.1468811,0.9891052,34.50406,-7.799103,-23.56287,4.538834,0.4377481,0.7694167,-0.3383857999999999,1.071041,-0.1325864,0.1134482,0.656039,-0.013303,6.433249,-73.12883,32.32752611464968
1,-0.009643555,0.1468811,0.9891052,1.0,0.07498169,-0.1679535,0.9829254,-33.8723,14.172820000000002,-88.28558000000001,2.137619,0.6349132,0.8423615,1.0,-0.009643555,0.1468811,0.9891052,34.50406,-7.799103,-23.56287,4.538834,0.4377481,0.7694167,-0.3383857999999999,1.071041,-0.1325864,0.1134482,0.656039,-0.013303,6.433249,-73.12883,32.32752611464968
1,-0.009643555,0.1468811,0.9891052,1.0,0.07498169,-0.1679535,0.9829254,-33.8723,14.172820000000002,-88.28558000000001,2.137619,0.6349132,0.8423615,1.0,-0.009643555,0.1468811,0.9891052,34.50406,-7.799103,-23.56287,4.538834,0.4377481,0.7694167,-0.3383857999999999,1.071041,-0.1325864,0.1134482,0.656039,-0.013303,6.433249,-73.12883,32.32752611464968
1,-0.007049561,0.1355132999999999,0.9907379,1.0,0.07496643,-0.1669464,0.9831085,-33.8723,14.172820000000002,-88.28558000000001,2.147644,0.6349132,0.8420016,1.0,-0.007049561,0.1355132999999999,0.9907379,34.47935,-7.793839,-23.59457,4.5672,0.4380872,0.7715939,-0.3387415,1.071753,-0.1323721,0.1107987,0.6552839,-0.01116493,6.433249,-73.12883,32.32752611464968
1,-0.007049561,0.1355132999999999,0.9907379,1.0,0.07496643,-0.1669464,0.9831085,-33.8723,14.172820000000002,-88.28558000000001,2.147644,0.6349132,0.8420016,1.0,-0.007049561,0.1355132999999999,0.9907379,34.47935,-7.793839,-23.59457,4.5672,0.4380872,0.7715939,-0.3387415,1.071753,-0.1323721,0.1107987,0.6552839,-0.01116493,6.433249,-73.12883,32.32752611464968
1,-0.007049561,0.1355132999999999,0.9907379,1.0,0.07496643,-0.1669464,0.9831085,-33.8723,14.172820000000002,-88.28558000000001,2.147644,0.6349132,0.8420016,1.0,-0.007049561,0.1355132999999999,0.9907379,34.47935,-7.793839,-23.59457,4.5672,0.4380872,0.7715939,-0.3387415,1.071753,-0.1323721,0.1107987,0.6552839,-0.01116493,6.433249,-73.12883,32.32752611464968
1,-0.01457214,0.1244965,0.9921112,1.0,0.06942749,-0.1021729,0.9923401,-34.00789,12.53859,-84.97145,2.285492,0.6381971,0.8518708,1.0,-0.01457214,0.1244965,0.9921112,34.4247,-7.935989,-23.52599,4.4503330000000005,0.4411357,0.7773339,-0.3395210999999999,1.073272,-0.1320459,0.1058482999999999,0.6542029,-0.006981259,6.433249,-50.00381,32.32752611464968
1,-0.01457214,0.1244965,0.9921112,1.0,0.06942749,-0.1021729,0.9923401,-34.00789,12.53859,-84.97145,2.285492,0.6381971,0.8518708,1.0,-0.01457214,0.1244965,0.9921112,34.4247,-7.935989,-23.52599,4.4503330000000005,0.4411357,0.7773339,-0.3395210999999999,1.073272,-0.1320459,0.1058482999999999,0.6542029,-0.006981259,6.433249,-50.00381,32.32752611464968
1,-0.01457214,0.1244965,0.9921112,1.0,0.06942749,-0.1021729,0.9923401,-34.00789,12.53859,-84.97145,2.285492,0.6381971,0.8518708,1.0,-0.01457214,0.1244965,0.9921112,34.4247,-7.935989,-23.52599,4.4503330000000005,0.4411357,0.7773339,-0.3395210999999999,1.073272,-0.1320459,0.1058482999999999,0.6542029,-0.006981259,6.433249,-50.00381,32.32752611464968
1,-0.01560974,0.1174773999999999,0.9929504,1.0,0.04579163,-0.2321929999999999,0.9715729,-33.912290000000006,13.121579999999998,-84.86583,2.231125,0.6401826,0.8578537,1.0,-0.01560974,0.1174773999999999,0.9929504,34.41216,-7.975388000000001,-23.45226,4.505127,0.4417167999999999,0.7791018,-0.3398261,1.074103,-0.1319411,0.1033232999999999,0.6540169,-0.005061504,6.433249,-50.00381,32.32752611464968
1,-0.01560974,0.1174773999999999,0.9929504,1.0,0.04579163,-0.2321929999999999,0.9715729,-33.912290000000006,13.121579999999998,-84.86583,2.231125,0.6401826,0.8578537,1.0,-0.01560974,0.1174773999999999,0.9929504,34.41216,-7.975388000000001,-23.45226,4.505127,0.4417167999999999,0.7791018,-0.3398261,1.074103,-0.1319411,0.1033232999999999,0.6540169,-0.005061504,6.433249,-50.00381,32.32752611464968
1,-0.01560974,0.1174773999999999,0.9929504,1.0,0.04579163,-0.2321929999999999,0.9715729,-33.912290000000006,13.121579999999998,-84.86583,2.231125,0.6401826,0.8578537,1.0,-0.01560974,0.1174773999999999,0.9929504,34.41216,-7.975388000000001,-23.45226,4.505127,0.4417167999999999,0.7791018,-0.3398261,1.074103,-0.1319411,0.1033232999999999,0.6540169,-0.005061504,6.433249,-50.00381,32.32752611464968
1,-0.01574707,0.109787,0.9938202,1.0,-0.0953064,0.1025085,0.9901428,-35.536590000000004,-9.819275,-24.74278,4.432022,0.6406555,0.8631019,1.0,-0.01574707,0.109787,0.9938202,34.39824,-8.007660000000001,-23.40227,4.501328,0.4421970999999999,0.7809105,-0.3401552,1.0745870000000002,-0.1320377999999999,0.1010937,0.6542754,-0.004210099,6.433249,-50.00381,32.32752611464968
1,-0.01574707,0.109787,0.9938202,1.0,-0.0953064,0.1025085,0.9901428,-35.536590000000004,-9.819275,-24.74278,4.432022,0.6406555,0.8631019,1.0,-0.01574707,0.109787,0.9938202,34.39824,-8.007660000000001,-23.40227,4.501328,0.4421970999999999,0.7809105,-0.3401552,1.0745870000000002,-0.1320377999999999,0.1010937,0.6542754,-0.004210099,6.433249,-50.00381,32.32752611464968
1,-0.01574707,0.109787,0.9938202,1.0,-0.0953064,0.1025085,0.9901428,-35.536590000000004,-9.819275,-24.74278,4.432022,0.6406555,0.8631019,1.0,-0.01574707,0.109787,0.9938202,34.39824,-8.007660000000001,-23.40227,4.501328,0.4421970999999999,0.7809105,-0.3401552,1.0745870000000002,-0.1320377999999999,0.1010937,0.6542754,-0.004210099,6.433249,-50.00381,32.32752611464968
1,-0.02223206,0.09780884,0.9949493,1.0,-0.1113586,0.06687927,0.9915161,-35.47382,-9.755219,-24.27831,4.62146,0.6402446999999999,0.8612648999999999,1.0,-0.02223206,0.09780884,0.9949493,34.36368,-8.263214,-23.04002,4.457932,0.444445,0.7873880999999999,-0.3404390999999999,1.075059,-0.132178,0.099686,0.6547086,-0.002943009,6.433249,-50.00381,32.32752611464968
1,-0.02223206,0.09780884,0.9949493,1.0,-0.1113586,0.06687927,0.9915161,-35.47382,-9.755219,-24.27831,4.62146,0.6402446999999999,0.8612648999999999,1.0,-0.02223206,0.09780884,0.9949493,34.36368,-8.263214,-23.04002,4.457932,0.444445,0.7873880999999999,-0.3404390999999999,1.075059,-0.132178,0.099686,0.6547086,-0.002943009,6.433249,-50.00381,32.32752611464968
1,-0.02223206,0.09780884,0.9949493,1.0,-0.1113586,0.06687927,0.9915161,-35.47382,-9.755219,-24.27831,4.62146,0.6402446999999999,0.8612648999999999,1.0,-0.02223206,0.09780884,0.9949493,34.36368,-8.263214,-23.04002,4.457932,0.444445,0.7873880999999999,-0.3404390999999999,1.075059,-0.132178,0.099686,0.6547086,-0.002943009,6.433249,-50.00381,32.32752611464968
1,-0.02223206,0.09780884,0.9949493,1.0,-0.1113586,0.06687927,0.9915161,-35.47382,-9.755219,-24.27831,4.62146,0.6402446999999999,0.8612648999999999,1.0,-0.02223206,0.09780884,0.9949493,34.36368,-8.263214,-23.04002,4.457932,0.444445,0.7873880999999999,-0.3407223,1.0753629999999998,-0.1324684,0.09851927,0.655736,-0.00257869,6.433249,-50.00381,32.32752611464968
1,-0.02223206,0.09780884,0.9949493,1.0,-0.1113586,0.06687927,0.9915161,-35.47382,-9.755219,-24.27831,4.62146,0.6402446999999999,0.8612648999999999,1.0,-0.02223206,0.09780884,0.9949493,34.36368,-8.263214,-23.04002,4.457932,0.444445,0.7873880999999999,-0.3407223,1.0753629999999998,-0.1324684,0.09851927,0.655736,-0.00257869,6.433249,-50.00381,32.32752611464968
1,-0.02223206,0.09780884,0.9949493,1.0,-0.1113586,0.06687927,0.9915161,-35.47382,-9.755219,-24.27831,4.62146,0.6402446999999999,0.8612648999999999,1.0,-0.02223206,0.09780884,0.9949493,34.36368,-8.263214,-23.04002,4.457932,0.444445,0.7873880999999999,-0.3407223,1.0753629999999998,-0.1324684,0.09851927,0.655736,-0.00257869,6.433249,-50.00381,32.32752611464968
1,-0.02407837,0.09741211,0.9949493,1.0,-0.1122131,0.06878662,0.9912872,-35.47954,-9.791336,-24.24089,4.604095,0.6405221999999999,0.8616790999999999,1.0,-0.02407837,0.09741211,0.9949493,34.36456,-8.279099,-23.00514,4.466843,0.4447348,0.7875838000000001,-0.3408449,1.075703,-0.1327119,0.09756473,0.6567494,-0.001789902,6.433249,-56.72795,32.32752611464968
1,-0.02407837,0.09741211,0.9949493,1.0,-0.1122131,0.06878662,0.9912872,-35.47954,-9.791336,-24.24089,4.604095,0.6405221999999999,0.8616790999999999,1.0,-0.02407837,0.09741211,0.9949493,34.36456,-8.279099,-23.00514,4.466843,0.4447348,0.7875838000000001,-0.3408449,1.075703,-0.1327119,0.09756473,0.6567494,-0.001789902,6.433249,-56.72795,32.32752611464968
1,-0.02407837,0.09741211,0.9949493,1.0,-0.1122131,0.06878662,0.9912872,-35.47954,-9.791336,-24.24089,4.604095,0.6405221999999999,0.8616790999999999,1.0,-0.02407837,0.09741211,0.9949493,34.36456,-8.279099,-23.00514,4.466843,0.4447348,0.7875838000000001,-0.3408449,1.075703,-0.1327119,0.09756473,0.6567494,-0.001789902,6.433249,-56.72795,32.32752611464968
1,-0.02374268,0.09712219,0.9949799,1.0,-0.111908,0.05836487,0.9919891,-35.481770000000004,-9.794907,-24.23544,4.509628,0.6405368,0.8633964,1.0,-0.02374268,0.09712219,0.9949799,34.36412,-8.294998,-22.97026,4.475479,0.4446982,0.7877795,-0.3410245999999999,1.076166,-0.1331279,0.09553858,0.6581501999999999,-0.0005948971,6.433249,-56.72795,32.32752611464968
1,-0.02374268,0.09712219,0.9949799,1.0,-0.111908,0.05836487,0.9919891,-35.481770000000004,-9.794907,-24.23544,4.509628,0.6405368,0.8633964,1.0,-0.02374268,0.09712219,0.9949799,34.36412,-8.294998,-22.97026,4.475479,0.4446982,0.7877795,-0.3410245999999999,1.076166,-0.1331279,0.09553858,0.6581501999999999,-0.0005948971,6.433249,-56.72795,32.32752611464968
1,-0.02374268,0.09712219,0.9949799,1.0,-0.111908,0.05836487,0.9919891,-35.481770000000004,-9.794907,-24.23544,4.509628,0.6405368,0.8633964,1.0,-0.02374268,0.09712219,0.9949799,34.36412,-8.294998,-22.97026,4.475479,0.4446982,0.7877795,-0.3410245999999999,1.076166,-0.1331279,0.09553858,0.6581501999999999,-0.0005948971,6.433249,-56.72795,32.32752611464968
1,-0.02374268,0.09712219,0.9949799,1.0,-0.111908,0.05836487,0.9919891,-35.481770000000004,-9.794907,-24.23544,4.509628,0.6405368,0.8633964,1.0,-0.02374268,0.09712219,0.9949799,34.36412,-8.294998,-22.97026,4.475479,0.4446982,0.7877795,-0.3412737,1.076388,-0.1335251,0.09524024,0.6587604,0.0002862802999999,6.369187,-56.72795,32.32752611464968
1,-0.02374268,0.09712219,0.9949799,1.0,-0.111908,0.05836487,0.9919891,-35.481770000000004,-9.794907,-24.23544,4.509628,0.6405368,0.8633964,1.0,-0.02374268,0.09712219,0.9949799,34.36412,-8.294998,-22.97026,4.475479,0.4446982,0.7877795,-0.3412737,1.076388,-0.1335251,0.09524024,0.6587604,0.0002862802999999,6.369187,-56.72795,32.32752611464968
1,-0.02374268,0.09712219,0.9949799,1.0,-0.111908,0.05836487,0.9919891,-35.481770000000004,-9.794907,-24.23544,4.509628,0.6405368,0.8633964,1.0,-0.02374268,0.09712219,0.9949799,34.36412,-8.294998,-22.97026,4.475479,0.4446982,0.7877795,-0.3412737,1.076388,-0.1335251,0.09524024,0.6587604,0.0002862802999999,6.369187,-56.72795,32.32752611464968
1,-0.02374268,0.09712219,0.9949799,1.0,-0.111908,0.05836487,0.9919891,-35.481770000000004,-9.794907,-24.23544,4.509628,0.6405368,0.8633964,1.0,-0.02374268,0.09712219,0.9949799,34.36412,-8.294998,-22.97026,4.475479,0.4446982,0.7877795,-0.3414296,1.076951,-0.1337829999999999,0.09328015,0.6594679,0.001287538,6.369187,-56.72795,32.32752611464968
1,-0.02374268,0.09712219,0.9949799,1.0,-0.111908,0.05836487,0.9919891,-35.481770000000004,-9.794907,-24.23544,4.509628,0.6405368,0.8633964,1.0,-0.02374268,0.09712219,0.9949799,34.36412,-8.294998,-22.97026,4.475479,0.4446982,0.7877795,-0.3414296,1.076951,-0.1337829999999999,0.09328015,0.6594679,0.001287538,6.369187,-56.72795,32.32752611464968
1,-0.02374268,0.09712219,0.9949799,1.0,-0.111908,0.05836487,0.9919891,-35.481770000000004,-9.794907,-24.23544,4.509628,0.6405368,0.8633964,1.0,-0.02374268,0.09712219,0.9949799,34.36412,-8.294998,-22.97026,4.475479,0.4446982,0.7877795,-0.3414296,1.076951,-0.1337829999999999,0.09328015,0.6594679,0.001287538,6.369187,-56.72795,32.32752611464968
1,-0.02606201,0.0660553,0.997467,1.0,-0.08360291,0.08120728,0.9931793,-35.58678,-10.2897,-23.77696,4.611435,0.6388735,0.8712482,1.0,-0.02391052,0.06547546,0.9975586,34.3483,-8.370467999999999,-22.91025,4.421233999999999,0.4451576,0.7950017,-0.3416034,1.077525,-0.1340727,0.09120123,0.6606951,0.00277559,6.369187,-56.72795,32.32752611464968
1,-0.02606201,0.0660553,0.997467,1.0,-0.08360291,0.08120728,0.9931793,-35.58678,-10.2897,-23.77696,4.611435,0.6388735,0.8712482,1.0,-0.02391052,0.06547546,0.9975586,34.3483,-8.370467999999999,-22.91025,4.421233999999999,0.4451576,0.7950017,-0.3416034,1.077525,-0.1340727,0.09120123,0.6606951,0.00277559,6.369187,-56.72795,32.32752611464968
1,-0.02606201,0.0660553,0.997467,1.0,-0.08360291,0.08120728,0.9931793,-35.58678,-10.2897,-23.77696,4.611435,0.6388735,0.8712482,1.0,-0.02391052,0.06547546,0.9975586,34.3483,-8.370467999999999,-22.91025,4.421233999999999,0.4451576,0.7950017,-0.3416034,1.077525,-0.1340727,0.09120123,0.6606951,0.00277559,6.369187,-56.72795,32.32752611464968
1,-0.02606201,0.0660553,0.997467,1.0,-0.08360291,0.08120728,0.9931793,-35.58678,-10.2897,-23.77696,4.611435,0.6388735,0.8712482,1.0,-0.02391052,0.06547546,0.9975586,34.3483,-8.370467999999999,-22.91025,4.421233999999999,0.4451576,0.7950017,-0.3419861,1.077949,-0.1342542,0.09020364,0.6609648,0.003636589,6.369187,-100.4186,32.32752611464968
1,-0.02606201,0.0660553,0.997467,1.0,-0.08360291,0.08120728,0.9931793,-35.58678,-10.2897,-23.77696,4.611435,0.6388735,0.8712482,1.0,-0.02391052,0.06547546,0.9975586,34.3483,-8.370467999999999,-22.91025,4.421233999999999,0.4451576,0.7950017,-0.3419861,1.077949,-0.1342542,0.09020364,0.6609648,0.003636589,6.369187,-100.4186,32.32752611464968
1,-0.02606201,0.0660553,0.997467,1.0,-0.08360291,0.08120728,0.9931793,-35.58678,-10.2897,-23.77696,4.611435,0.6388735,0.8712482,1.0,-0.02391052,0.06547546,0.9975586,34.3483,-8.370467999999999,-22.91025,4.421233999999999,0.4451576,0.7950017,-0.3419861,1.077949,-0.1342542,0.09020364,0.6609648,0.003636589,6.369187,-100.4186,32.32752611464968
1,-0.02711487,0.06784058,0.9973145,1.0,-0.09130859,0.05685425,0.9941864,-35.56941,-10.24159,-23.87781,4.553406,0.6398022,0.8751561,1.0,-0.02580261,0.0680542,0.997345,34.38741,-8.406754,-22.80397,4.415833,0.4442082999999999,0.7945116,-0.3422726,1.078694,-0.1344372999999999,0.08775909,0.6617022,0.0054132369999999,6.369187,-100.4186,32.32752611464968
1,-0.02711487,0.06784058,0.9973145,1.0,-0.09130859,0.05685425,0.9941864,-35.56941,-10.24159,-23.87781,4.553406,0.6398022,0.8751561,1.0,-0.02580261,0.0680542,0.997345,34.38741,-8.406754,-22.80397,4.415833,0.4442082999999999,0.7945116,-0.3422726,1.078694,-0.1344372999999999,0.08775909,0.6617022,0.0054132369999999,6.369187,-100.4186,32.32752611464968
1,-0.02711487,0.06784058,0.9973145,1.0,-0.09130859,0.05685425,0.9941864,-35.56941,-10.24159,-23.87781,4.553406,0.6398022,0.8751561,1.0,-0.02580261,0.0680542,0.997345,34.38741,-8.406754,-22.80397,4.415833,0.4442082999999999,0.7945116,-0.3422726,1.078694,-0.1344372999999999,0.08775909,0.6617022,0.0054132369999999,6.369187,-100.4186,32.32752611464968
1,-0.07017517,0.03208923,0.9970093,0.0,-0.1110077,0.008728027,0.9937744,-35.37065,-9.569412,-25.07716,4.492096,0.6383765,0.8757166,0.1984157,-0.01248169,0.06481934,0.997818,34.438109999999995,-7.956924000000001,-24.15359,4.220093,0.4398876,0.7953505999999999,-0.3426995999999999,1.078966,-0.1344862999999999,0.08732793,0.6612597,0.006808088,6.369187,-100.4186,32.32752611464968
1,-0.07017517,0.03208923,0.9970093,0.0,-0.1110077,0.008728027,0.9937744,-35.37065,-9.569412,-25.07716,4.492096,0.6383765,0.8757166,0.1984157,-0.01248169,0.06481934,0.997818,34.438109999999995,-7.956924000000001,-24.15359,4.220093,0.4398876,0.7953505999999999,-0.3426995999999999,1.078966,-0.1344862999999999,0.08732793,0.6612597,0.006808088,6.369187,-100.4186,32.32752611464968
1,-0.07017517,0.03208923,0.9970093,0.0,-0.1110077,0.008728027,0.9937744,-35.37065,-9.569412,-25.07716,4.492096,0.6383765,0.8757166,0.1984157,-0.01248169,0.06481934,0.997818,34.438109999999995,-7.956924000000001,-24.15359,4.220093,0.4398876,0.7953505999999999,-0.3426995999999999,1.078966,-0.1344862999999999,0.08732793,0.6612597,0.006808088,6.369187,-100.4186,32.32752611464968
1,-0.008407593,0.06422424,0.9978943,0.0220969,-0.0735321,0.07077026,0.9947662,-35.4991,-10.28946,-23.9287,4.752548,0.6347273,0.8756238000000002,0.5442606,-0.008407593,0.06422424,0.9978943,34.41656,-8.196899,-24.01538,4.488663,0.4398305,0.8025216,-0.3434353,1.079558,-0.1343977999999999,0.08561891,0.6597919,0.008336607,6.369187,-100.4186,32.32752611464968
1,-0.008407593,0.06422424,0.9978943,0.0220969,-0.0735321,0.07077026,0.9947662,-35.4991,-10.28946,-23.9287,4.752548,0.6347273,0.8756238000000002,0.5442606,-0.008407593,0.06422424,0.9978943,34.41656,-8.196899,-24.01538,4.488663,0.4398305,0.8025216,-0.3434353,1.079558,-0.1343977999999999,0.08561891,0.6597919,0.008336607,6.369187,-100.4186,32.32752611464968
1,-0.008407593,0.06422424,0.9978943,0.0220969,-0.0735321,0.07077026,0.9947662,-35.4991,-10.28946,-23.9287,4.752548,0.6347273,0.8756238000000002,0.5442606,-0.008407593,0.06422424,0.9978943,34.41656,-8.196899,-24.01538,4.488663,0.4398305,0.8025216,-0.3434353,1.079558,-0.1343977999999999,0.08561891,0.6597919,0.008336607,6.369187,-100.4186,32.32752611464968
1,-0.0105896,0.06481934,0.9978333,0.3261152,-0.09906006,0.04893494,0.993866,-35.51285,-10.28461,-24.12479,4.7559510000000005,0.6399789,0.8822446,0.8910277,-0.0105896,0.06481934,0.9978333,34.34256,-8.358597,-23.83472,4.535049,0.4426831,0.8059550999999999,-0.3438772999999999,1.079334,-0.1344327,0.08605135,0.6591592,0.0069118109999999,6.369187,-26.66901,32.32752611464968
1,-0.0105896,0.06481934,0.9978333,0.3261152,-0.09906006,0.04893494,0.993866,-35.51285,-10.28461,-24.12479,4.7559510000000005,0.6399789,0.8822446,0.8910277,-0.0105896,0.06481934,0.9978333,34.34256,-8.358597,-23.83472,4.535049,0.4426831,0.8059550999999999,-0.3438772999999999,1.079334,-0.1344327,0.08605135,0.6591592,0.0069118109999999,6.369187,-26.66901,32.32752611464968
1,-0.0105896,0.06481934,0.9978333,0.3261152,-0.09906006,0.04893494,0.993866,-35.51285,-10.28461,-24.12479,4.7559510000000005,0.6399789,0.8822446,0.8910277,-0.0105896,0.06481934,0.9978333,34.34256,-8.358597,-23.83472,4.535049,0.4426831,0.8059550999999999,-0.3438772999999999,1.079334,-0.1344327,0.08605135,0.6591592,0.0069118109999999,6.369187,-26.66901,32.32752611464968
1,-0.0105896,0.06481934,0.9978333,0.3261152,-0.09906006,0.04893494,0.993866,-35.51285,-10.28461,-24.12479,4.7559510000000005,0.6399789,0.8822446,0.8910277,-0.0105896,0.06481934,0.9978333,34.34256,-8.358597,-23.83472,4.535049,0.4426831,0.8059550999999999,-0.3440517,1.079216,-0.1345432,0.08614545,0.6595024,0.0054897719999999,6.369187,-26.66901,32.32752611464968
1,-0.0105896,0.06481934,0.9978333,0.3261152,-0.09906006,0.04893494,0.993866,-35.51285,-10.28461,-24.12479,4.7559510000000005,0.6399789,0.8822446,0.8910277,-0.0105896,0.06481934,0.9978333,34.34256,-8.358597,-23.83472,4.535049,0.4426831,0.8059550999999999,-0.3440517,1.079216,-0.1345432,0.08614545,0.6595024,0.0054897719999999,6.369187,-26.66901,32.32752611464968
1,-0.0105896,0.06481934,0.9978333,0.3261152,-0.09906006,0.04893494,0.993866,-35.51285,-10.28461,-24.12479,4.7559510000000005,0.6399789,0.8822446,0.8910277,-0.0105896,0.06481934,0.9978333,34.34256,-8.358597,-23.83472,4.535049,0.4426831,0.8059550999999999,-0.3440517,1.079216,-0.1345432,0.08614545,0.6595024,0.0054897719999999,6.369187,-26.66901,32.32752611464968
1,-0.009490967,0.06411743,0.9978943,0.3353447,-0.1005402,0.05255127,0.9935303,-35.51891,-10.25011,-24.25114,4.74472,0.6406803000000001,0.8820919,0.9337859,-0.009475708,0.06411743,0.9978943,34.34358,-8.370514,-23.827820000000003,4.50708,0.4424751,0.80632,-0.3440522,1.079242,-0.1346581,0.08665597,0.6603624,0.004257175,6.369187,-26.66901,32.32752611464968
1,-0.009490967,0.06411743,0.9978943,0.3353447,-0.1005402,0.05255127,0.9935303,-35.51891,-10.25011,-24.25114,4.74472,0.6406803000000001,0.8820919,0.9337859,-0.009475708,0.06411743,0.9978943,34.34358,-8.370514,-23.827820000000003,4.50708,0.4424751,0.80632,-0.3440522,1.079242,-0.1346581,0.08665597,0.6603624,0.004257175,6.369187,-26.66901,32.32752611464968
1,-0.009490967,0.06411743,0.9978943,0.3353447,-0.1005402,0.05255127,0.9935303,-35.51891,-10.25011,-24.25114,4.74472,0.6406803000000001,0.8820919,0.9337859,-0.009475708,0.06411743,0.9978943,34.34358,-8.370514,-23.827820000000003,4.50708,0.4424751,0.80632,-0.3440522,1.079242,-0.1346581,0.08665597,0.6603624,0.004257175,6.369187,-26.66901,32.32752611464968
1,-0.04983521,0.04328918,0.997818,1.0,-0.09173584,0.01531982,0.9956511999999998,-35.582240000000006,-10.61253,-23.88858,4.752212999999999,0.641454,0.8978549000000001,1.0,-0.01959229,0.06335449,0.9977875,34.29176,-8.594025,-23.62517,4.408127,0.4459141,0.8115770999999999,-0.3446473,1.077568,-0.1355792999999999,0.09321474,0.6638231,-0.004260237,6.369187,-26.66901,32.32752611464968
1,-0.04983521,0.04328918,0.997818,1.0,-0.09173584,0.01531982,0.9956511999999998,-35.582240000000006,-10.61253,-23.88858,4.752212999999999,0.641454,0.8978549000000001,1.0,-0.01959229,0.06335449,0.9977875,34.29176,-8.594025,-23.62517,4.408127,0.4459141,0.8115770999999999,-0.3446473,1.077568,-0.1355792999999999,0.09321474,0.6638231,-0.004260237,6.369187,-26.66901,32.32752611464968
1,-0.04983521,0.04328918,0.997818,1.0,-0.09173584,0.01531982,0.9956511999999998,-35.582240000000006,-10.61253,-23.88858,4.752212999999999,0.641454,0.8978549000000001,1.0,-0.01959229,0.06335449,0.9977875,34.29176,-8.594025,-23.62517,4.408127,0.4459141,0.8115770999999999,-0.3446473,1.077568,-0.1355792999999999,0.09321474,0.6638231,-0.004260237,6.369187,-26.66901,32.32752611464968
1,-0.02119446,0.06498718,0.9976501,1.0,-0.07728577,0.02207947,0.9967499,-35.52652,-10.69966,-23.79765,4.717438,0.6368148,0.8981068999999999,1.0,-0.01925659,0.06646729,0.9975891,34.30013,-8.600616,-23.6131,4.442917,0.4455774,0.8111776999999999,-0.3447299,1.0759299999999998,-0.1360208999999999,0.09856363,0.6654018,-0.01039929,6.369187,69.98871,32.32752611464968
1,-0.02119446,0.06498718,0.9976501,1.0,-0.07728577,0.02207947,0.9967499,-35.52652,-10.69966,-23.79765,4.717438,0.6368148,0.8981068999999999,1.0,-0.01925659,0.06646729,0.9975891,34.30013,-8.600616,-23.6131,4.442917,0.4455774,0.8111776999999999,-0.3447299,1.0759299999999998,-0.1360208999999999,0.09856363,0.6654018,-0.01039929,6.369187,69.98871,32.32752611464968
1,-0.02119446,0.06498718,0.9976501,1.0,-0.07728577,0.02207947,0.9967499,-35.52652,-10.69966,-23.79765,4.717438,0.6368148,0.8981068999999999,1.0,-0.01925659,0.06646729,0.9975891,34.30013,-8.600616,-23.6131,4.442917,0.4455774,0.8111776999999999,-0.3447299,1.0759299999999998,-0.1360208999999999,0.09856363,0.6654018,-0.01039929,6.369187,69.98871,32.32752611464968
2,-0.06222534,0.06011963,0.9962463,1.0,-0.08370972,0.06111145,0.9946136,-35.43079,-10.26927,-24.1192,4.677368,0.6345059000000001,0.8791005999999999,1.0,-0.02494812,0.05834961,0.9979706,34.44406,-8.398147999999999,-23.00578,4.422852,0.4420494,0.7982998,-0.3445720999999999,1.075048,-0.13614,0.1014723,0.6658076999999999,-0.01269737,6.369187,69.98871,32.32752611464968
2,-0.06222534,0.06011963,0.9962463,1.0,-0.08370972,0.06111145,0.9946136,-35.43079,-10.26927,-24.1192,4.677368,0.6345059000000001,0.8791005999999999,1.0,-0.02494812,0.05834961,0.9979706,34.44406,-8.398147999999999,-23.00578,4.422852,0.4420494,0.7982998,-0.3445720999999999,1.075048,-0.13614,0.1014723,0.6658076999999999,-0.01269737,6.369187,69.98871,32.32752611464968
2,-0.06222534,0.06011963,0.9962463,1.0,-0.08370972,0.06111145,0.9946136,-35.43079,-10.26927,-24.1192,4.677368,0.6345059000000001,0.8791005999999999,1.0,-0.02494812,0.05834961,0.9979706,34.44406,-8.398147999999999,-23.00578,4.422852,0.4420494,0.7982998,-0.3445720999999999,1.075048,-0.13614,0.1014723,0.6658076999999999,-0.01269737,6.369187,69.98871,32.32752611464968
2,-0.0597229,0.07562256,0.9953308,1.0,-0.0786438,0.07958984,0.9937134,-35.43802,-10.34093,-23.89041,4.769165,0.6332840999999999,0.8751114,1.0,-0.02062988,0.06735229,0.9975128,34.46115,-8.315857000000001,-23.0755,4.417603,0.4408095,0.7946970999999999,-0.3443419,1.074092,-0.1360167,0.1049946,0.6658139,-0.01521968,6.369187,69.98871,32.32752611464968
2,-0.0597229,0.07562256,0.9953308,1.0,-0.0786438,0.07958984,0.9937134,-35.43802,-10.34093,-23.89041,4.769165,0.6332840999999999,0.8751114,1.0,-0.02062988,0.06735229,0.9975128,34.46115,-8.315857000000001,-23.0755,4.417603,0.4408095,0.7946970999999999,-0.3443419,1.074092,-0.1360167,0.1049946,0.6658139,-0.01521968,6.369187,69.98871,32.32752611464968
2,-0.0597229,0.07562256,0.9953308,1.0,-0.0786438,0.07958984,0.9937134,-35.43802,-10.34093,-23.89041,4.769165,0.6332840999999999,0.8751114,1.0,-0.02062988,0.06735229,0.9975128,34.46115,-8.315857000000001,-23.0755,4.417603,0.4408095,0.7946970999999999,-0.3443419,1.074092,-0.1360167,0.1049946,0.6658139,-0.01521968,6.369187,69.98871,32.32752611464968
2,-0.02815247,0.0695343,0.9971771,1.0,-0.07778931,0.07411194,0.9942017,-35.41183,-10.32166,-23.92258,4.757324,0.6323209,0.8758130999999999,1.0,-0.01864624,0.06864929,0.9974518,34.46307,-8.327301,-23.0623,4.407684,0.4404212,0.7946970999999999,-0.3443084,1.072351,-0.1359372,0.1100773,0.6653361999999999,-0.02026422,6.369187,69.98871,32.32752611464968
2,-0.02815247,0.0695343,0.9971771,1.0,-0.07778931,0.07411194,0.9942017,-35.41183,-10.32166,-23.92258,4.757324,0.6323209,0.8758130999999999,1.0,-0.01864624,0.06864929,0.9974518,34.46307,-8.327301,-23.0623,4.407684,0.4404212,0.7946970999999999,-0.3443084,1.072351,-0.1359372,0.1100773,0.6653361999999999,-0.02026422,6.369187,69.98871,32.32752611464968
2,-0.02815247,0.0695343,0.9971771,1.0,-0.07778931,0.07411194,0.9942017,-35.41183,-10.32166,-23.92258,4.757324,0.6323209,0.8758130999999999,1.0,-0.01864624,0.06864929,0.9974518,34.46307,-8.327301,-23.0623,4.407684,0.4404212,0.7946970999999999,-0.3443084,1.072351,-0.1359372,0.1100773,0.6653361999999999,-0.02026422,6.369187,69.98871,32.32752611464968
2,-0.01889038,0.07794189,0.9967651,1.0,-0.08036804,0.09416199,0.9922943,-35.32538,-9.872833,-24.74321,4.671722,0.6309610999999999,0.8667933000000001,1.0,-0.01889038,0.07794189,0.9967651,34.51416,-8.136673,-23.10616,4.460051999999999,0.4388454,0.7871773,-0.343907,1.071527,-0.1355767,0.1121246,0.6637041,-0.02171016,6.369187,69.98871,32.32752611464968
2,-0.01889038,0.07794189,0.9967651,1.0,-0.08036804,0.09416199,0.9922943,-35.32538,-9.872833,-24.74321,4.671722,0.6309610999999999,0.8667933000000001,1.0,-0.01889038,0.07794189,0.9967651,34.51416,-8.136673,-23.10616,4.460051999999999,0.4388454,0.7871773,-0.343907,1.071527,-0.1355767,0.1121246,0.6637041,-0.02171016,6.369187,69.98871,32.32752611464968
2,-0.01889038,0.07794189,0.9967651,1.0,-0.08036804,0.09416199,0.9922943,-35.32538,-9.872833,-24.74321,4.671722,0.6309610999999999,0.8667933000000001,1.0,-0.01889038,0.07794189,0.9967651,34.51416,-8.136673,-23.10616,4.460051999999999,0.4388454,0.7871773,-0.343907,1.071527,-0.1355767,0.1121246,0.6637041,-0.02171016,6.369187,69.98871,32.32752611464968
2,-0.02455139,0.09289551,0.9953613,1.0,-0.08953857,0.06806946,0.9936523000000002,-35.336240000000004,-9.577057,-24.89119,4.574661,0.6327143,0.8621929,1.0,-0.02455139,0.09289551,0.9953613,34.511309999999995,-7.977142,-23.10121,4.545395,0.4399710999999999,0.7793394,-0.3433352,1.071077,-0.135014,0.1134095,0.6620209,-0.02248597,6.369187,69.98871,32.32752611464968
2,-0.02455139,0.09289551,0.9953613,1.0,-0.08953857,0.06806946,0.9936523000000002,-35.336240000000004,-9.577057,-24.89119,4.574661,0.6327143,0.8621929,1.0,-0.02455139,0.09289551,0.9953613,34.511309999999995,-7.977142,-23.10121,4.545395,0.4399710999999999,0.7793394,-0.3433352,1.071077,-0.135014,0.1134095,0.6620209,-0.02248597,6.369187,69.98871,32.32752611464968
2,-0.02455139,0.09289551,0.9953613,1.0,-0.08953857,0.06806946,0.9936523000000002,-35.336240000000004,-9.577057,-24.89119,4.574661,0.6327143,0.8621929,1.0,-0.02455139,0.09289551,0.9953613,34.511309999999995,-7.977142,-23.10121,4.545395,0.4399710999999999,0.7793394,-0.3433352,1.071077,-0.135014,0.1134095,0.6620209,-0.02248597,6.369187,69.98871,32.32752611464968
2,-0.01602173,0.125473,0.9919586,1.0,-0.09519958,0.07054138,0.9929504,-35.36807,-9.765762,-24.50278,4.6139220000000005,0.6340547,0.8633322,1.0,-0.01591492,0.1255493,0.9919586,34.4825,-8.02829,-23.38489,4.55806,0.4394662,0.7787238000000001,-0.3430422999999999,1.07053,-0.134445,0.1150932,0.6595844,-0.02358446,6.369187,46.20078,33.75
2,-0.01602173,0.125473,0.9919586,1.0,-0.09519958,0.07054138,0.9929504,-35.36807,-9.765762,-24.50278,4.6139220000000005,0.6340547,0.8633322,1.0,-0.01591492,0.1255493,0.9919586,34.4825,-8.02829,-23.38489,4.55806,0.4394662,0.7787238000000001,-0.3430422999999999,1.07053,-0.134445,0.1150932,0.6595844,-0.02358446,6.369187,46.20078,33.75
2,-0.01602173,0.125473,0.9919586,1.0,-0.09519958,0.07054138,0.9929504,-35.36807,-9.765762,-24.50278,4.6139220000000005,0.6340547,0.8633322,1.0,-0.01591492,0.1255493,0.9919586,34.4825,-8.02829,-23.38489,4.55806,0.4394662,0.7787238000000001,-0.3430422999999999,1.07053,-0.134445,0.1150932,0.6595844,-0.02358446,6.369187,46.20078,33.75
2,-0.02787781,0.1054535,0.9940186,1.0,-0.09552002,0.05633545,0.9938202,-35.4229,-9.5177,-24.8475,4.568558,0.6365732,0.8616375,1.0,-0.02732849,0.1058501999999999,0.9940033,34.47746,-7.907379,-23.06458,4.455154,0.4416792999999999,0.7741756,-0.342643,1.070964,-0.1337787999999999,0.1135541,0.6576839,-0.02238734,6.369187,46.20078,33.75
2,-0.02787781,0.1054535,0.9940186,1.0,-0.09552002,0.05633545,0.9938202,-35.4229,-9.5177,-24.8475,4.568558,0.6365732,0.8616375,1.0,-0.02732849,0.1058501999999999,0.9940033,34.47746,-7.907379,-23.06458,4.455154,0.4416792999999999,0.7741756,-0.342643,1.070964,-0.1337787999999999,0.1135541,0.6576839,-0.02238734,6.369187,46.20078,33.75
2,-0.02787781,0.1054535,0.9940186,1.0,-0.09552002,0.05633545,0.9938202,-35.4229,-9.5177,-24.8475,4.568558,0.6365732,0.8616375,1.0,-0.02732849,0.1058501999999999,0.9940033,34.47746,-7.907379,-23.06458,4.455154,0.4416792999999999,0.7741756,-0.342643,1.070964,-0.1337787999999999,0.1135541,0.6576839,-0.02238734,6.369187,46.20078,33.75
2,-0.03016663,0.1028442,0.9942322,1.0,-0.1098328,0.0675354,0.9916382,-35.43456,-9.578583,-24.73318,4.568375,0.6393542,0.8606101,1.0,-0.02864075,0.1035156,0.9942017,34.42767,-7.810165,-23.19685,4.463654,0.4435309,0.7728351,-0.3424882,1.071118,-0.1331694,0.1131543999999999,0.6563876999999999,-0.02185144,6.369187,46.20078,33.75
2,-0.03016663,0.1028442,0.9942322,1.0,-0.1098328,0.0675354,0.9916382,-35.43456,-9.578583,-24.73318,4.568375,0.6393542,0.8606101,1.0,-0.02864075,0.1035156,0.9942017,34.42767,-7.810165,-23.19685,4.463654,0.4435309,0.7728351,-0.3424882,1.071118,-0.1331694,0.1131543999999999,0.6563876999999999,-0.02185144,6.369187,46.20078,33.75
2,-0.03016663,0.1028442,0.9942322,1.0,-0.1098328,0.0675354,0.9916382,-35.43456,-9.578583,-24.73318,4.568375,0.6393542,0.8606101,1.0,-0.02864075,0.1035156,0.9942017,34.42767,-7.810165,-23.19685,4.463654,0.4435309,0.7728351,-0.3424882,1.071118,-0.1331694,0.1131543999999999,0.6563876999999999,-0.02185144,6.369187,46.20078,33.75
2,-0.03016663,0.1028442,0.9942322,1.0,-0.1098328,0.0675354,0.9916382,-35.43456,-9.578583,-24.73318,4.568375,0.6393542,0.8606101,1.0,-0.02864075,0.1035156,0.9942017,34.42767,-7.810165,-23.19685,4.463654,0.4435309,0.7728351,-0.3425975999999999,1.071261,-0.1326957,0.1130408,0.6551126,-0.02118764,6.369187,46.20078,33.75
2,-0.03016663,0.1028442,0.9942322,1.0,-0.1098328,0.0675354,0.9916382,-35.43456,-9.578583,-24.73318,4.568375,0.6393542,0.8606101,1.0,-0.02864075,0.1035156,0.9942017,34.42767,-7.810165,-23.19685,4.463654,0.4435309,0.7728351,-0.3425975999999999,1.071261,-0.1326957,0.1130408,0.6551126,-0.02118764,6.369187,46.20078,33.75
2,-0.03016663,0.1028442,0.9942322,1.0,-0.1098328,0.0675354,0.9916382,-35.43456,-9.578583,-24.73318,4.568375,0.6393542,0.8606101,1.0,-0.02864075,0.1035156,0.9942017,34.42767,-7.810165,-23.19685,4.463654,0.4435309,0.7728351,-0.3425975999999999,1.071261,-0.1326957,0.1130408,0.6551126,-0.02118764,6.369187,46.20078,33.75
2,-0.1266632,0.1109923999999999,0.9857025,1.0,-0.1290588,0.1116638,0.985321,-35.5437,-10.01701,-24.35028,4.791946,0.6460828000000001,0.8643744000000001,1.0,-0.04174805,0.08683777,0.9953461,34.31715,-8.196228,-22.42805,4.701797,0.4494367,0.7802379,-0.3426414,1.071664,-0.1323664,0.1120367999999999,0.6543614999999999,-0.01973456,6.369187,-51.92637,33.75
2,-0.1266632,0.1109923999999999,0.9857025,1.0,-0.1290588,0.1116638,0.985321,-35.5437,-10.01701,-24.35028,4.791946,0.6460828000000001,0.8643744000000001,1.0,-0.04174805,0.08683777,0.9953461,34.31715,-8.196228,-22.42805,4.701797,0.4494367,0.7802379,-0.3426414,1.071664,-0.1323664,0.1120367999999999,0.6543614999999999,-0.01973456,6.369187,-51.92637,33.75
2,-0.1266632,0.1109923999999999,0.9857025,1.0,-0.1290588,0.1116638,0.985321,-35.5437,-10.01701,-24.35028,4.791946,0.6460828000000001,0.8643744000000001,1.0,-0.04174805,0.08683777,0.9953461,34.31715,-8.196228,-22.42805,4.701797,0.4494367,0.7802379,-0.3426414,1.071664,-0.1323664,0.1120367999999999,0.6543614999999999,-0.01973456,6.369187,-51.92637,33.75
2,-0.03846741,0.08029175,0.9960175,1.0,-0.1269989,0.08746338,0.9880219,-35.60387,-9.603012,-25.30679,4.938721,0.6498173,0.8673141,1.0,-0.0383606,0.08029175,0.9960175,34.26135,-8.153839,-22.56786,4.709274,0.4506795,0.7815423,-0.3426237,1.071806,-0.1321706,0.111268,0.6540449,-0.01893714,6.369187,-51.92637,33.75
2,-0.03846741,0.08029175,0.9960175,1.0,-0.1269989,0.08746338,0.9880219,-35.60387,-9.603012,-25.30679,4.938721,0.6498173,0.8673141,1.0,-0.0383606,0.08029175,0.9960175,34.26135,-8.153839,-22.56786,4.709274,0.4506795,0.7815423,-0.3426237,1.071806,-0.1321706,0.111268,0.6540449,-0.01893714,6.369187,-51.92637,33.75
2,-0.03846741,0.08029175,0.9960175,1.0,-0.1269989,0.08746338,0.9880219,-35.60387,-9.603012,-25.30679,4.938721,0.6498173,0.8673141,1.0,-0.0383606,0.08029175,0.9960175,34.26135,-8.153839,-22.56786,4.709274,0.4506795,0.7815423,-0.3426237,1.071806,-0.1321706,0.111268,0.6540449,-0.01893714,6.369187,-51.92637,33.75
2,-0.05400085,0.07670593,0.995575,1.0,-0.1199799,0.06323242,0.9907532,-35.64017,-9.483597,-25.6235,4.816391,0.6505994,0.8715378,1.0,-0.04170227,0.07917786,0.9959869,34.20796,-8.353287,-22.13028,4.719269000000001,0.4530694,0.7834116999999999,-0.342782,1.071947,-0.1321471,0.1106957,0.6538864000000001,-0.01832732,6.369187,-51.92637,33.75
2,-0.05400085,0.07670593,0.995575,1.0,-0.1199799,0.06323242,0.9907532,-35.64017,-9.483597,-25.6235,4.816391,0.6505994,0.8715378,1.0,-0.04170227,0.07917786,0.9959869,34.20796,-8.353287,-22.13028,4.719269000000001,0.4530694,0.7834116999999999,-0.342782,1.071947,-0.1321471,0.1106957,0.6538864000000001,-0.01832732,6.369187,-51.92637,33.75
2,-0.05400085,0.07670593,0.995575,1.0,-0.1199799,0.06323242,0.9907532,-35.64017,-9.483597,-25.6235,4.816391,0.6505994,0.8715378,1.0,-0.04170227,0.07917786,0.9959869,34.20796,-8.353287,-22.13028,4.719269000000001,0.4530694,0.7834116999999999,-0.342782,1.071947,-0.1321471,0.1106957,0.6538864000000001,-0.01832732,6.369187,-51.92637,33.75
2,-0.05702209,0.07757568,0.9953461,1.0,-0.1209412,0.06295776,0.9906464,-35.68755,-9.496368,-25.58263,4.71431,0.6521880999999999,0.8711504999999999,1.0,-0.04400635,0.08049011,0.9957733,34.201159999999994,-8.361175999999999,-22.06534,4.742966,0.4536875,0.7827550999999999,-0.3430344999999999,1.0726440000000002,-0.132304,0.1081528,0.6541414000000001,-0.01681283,6.369187,-51.92637,33.75
2,-0.05702209,0.07757568,0.9953461,1.0,-0.1209412,0.06295776,0.9906464,-35.68755,-9.496368,-25.58263,4.71431,0.6521880999999999,0.8711504999999999,1.0,-0.04400635,0.08049011,0.9957733,34.201159999999994,-8.361175999999999,-22.06534,4.742966,0.4536875,0.7827550999999999,-0.3430344999999999,1.0726440000000002,-0.132304,0.1081528,0.6541414000000001,-0.01681283,6.369187,-51.92637,33.75
2,-0.05702209,0.07757568,0.9953461,1.0,-0.1209412,0.06295776,0.9906464,-35.68755,-9.496368,-25.58263,4.71431,0.6521880999999999,0.8711504999999999,1.0,-0.04400635,0.08049011,0.9957733,34.201159999999994,-8.361175999999999,-22.06534,4.742966,0.4536875,0.7827550999999999,-0.3430344999999999,1.0726440000000002,-0.132304,0.1081528,0.6541414000000001,-0.01681283,6.369187,-51.92637,33.75
2,-0.0451355,0.07615662,0.9960632,1.0,-0.126709,0.05865479,0.9901886,-35.72333,-9.963181,-24.32991,4.765167,0.6524191999999999,0.8725611999999999,1.0,-0.0451355,0.07615662,0.9960632,34.2009,-8.366348,-22.03697,4.7341,0.4538795999999999,0.7833194,-0.3431681,1.073143,-0.1323085,0.1068571999999999,0.6542964,-0.01590584,6.369187,-16.87135,33.75
2,-0.0451355,0.07615662,0.9960632,1.0,-0.126709,0.05865479,0.9901886,-35.72333,-9.963181,-24.32991,4.765167,0.6524191999999999,0.8725611999999999,1.0,-0.0451355,0.07615662,0.9960632,34.2009,-8.366348,-22.03697,4.7341,0.4538795999999999,0.7833194,-0.3431681,1.073143,-0.1323085,0.1068571999999999,0.6542964,-0.01590584,6.369187,-16.87135,33.75
2,-0.0451355,0.07615662,0.9960632,1.0,-0.126709,0.05865479,0.9901886,-35.72333,-9.963181,-24.32991,4.765167,0.6524191999999999,0.8725611999999999,1.0,-0.0451355,0.07615662,0.9960632,34.2009,-8.366348,-22.03697,4.7341,0.4538795999999999,0.7833194,-0.3431681,1.073143,-0.1323085,0.1068571999999999,0.6542964,-0.01590584,6.369187,-16.87135,33.75
2,-0.05187988,0.0758667,0.9957581,1.0,-0.1238098,0.07984924,0.9890747,-35.77718,-10.18692,-23.93983,4.843459999999999,0.6527911,0.8713540000000001,1.0,-0.04919434,0.07571411,0.9959106,34.17435,-8.363373,-22.16434,4.708908,0.4553967,0.7847195,-0.3432848,1.074188,-0.1327982,0.1027346,0.6556485,-0.01422564,6.369187,-16.87135,33.75
2,-0.05187988,0.0758667,0.9957581,1.0,-0.1238098,0.07984924,0.9890747,-35.77718,-10.18692,-23.93983,4.843459999999999,0.6527911,0.8713540000000001,1.0,-0.04919434,0.07571411,0.9959106,34.17435,-8.363373,-22.16434,4.708908,0.4553967,0.7847195,-0.3432848,1.074188,-0.1327982,0.1027346,0.6556485,-0.01422564,6.369187,-16.87135,33.75
2,-0.05187988,0.0758667,0.9957581,1.0,-0.1238098,0.07984924,0.9890747,-35.77718,-10.18692,-23.93983,4.843459999999999,0.6527911,0.8713540000000001,1.0,-0.04919434,0.07571411,0.9959106,34.17435,-8.363373,-22.16434,4.708908,0.4553967,0.7847195,-0.3432848,1.074188,-0.1327982,0.1027346,0.6556485,-0.01422564,6.369187,-16.87135,33.75
2,-0.1073456,0.06759644,0.9919128,1.0,-0.1323395,0.06167603,0.9892731,-35.790420000000005,-10.12476,-24.07635,4.776413,0.6550189999999999,0.8742153,1.0,-0.05039978,0.08088684,0.9954376,34.167970000000004,-8.363373,-22.30437,4.668213,0.4557809,0.7854412,-0.3432916,1.074807,-0.1331813999999999,0.1008519,0.6562444000000001,-0.01355626,6.369187,-16.87135,33.75
2,-0.1073456,0.06759644,0.9919128,1.0,-0.1323395,0.06167603,0.9892731,-35.790420000000005,-10.12476,-24.07635,4.776413,0.6550189999999999,0.8742153,1.0,-0.05039978,0.08088684,0.9954376,34.167970000000004,-8.363373,-22.30437,4.668213,0.4557809,0.7854412,-0.3432916,1.074807,-0.1331813999999999,0.1008519,0.6562444000000001,-0.01355626,6.369187,-16.87135,33.75
2,-0.1073456,0.06759644,0.9919128,1.0,-0.1323395,0.06167603,0.9892731,-35.790420000000005,-10.12476,-24.07635,4.776413,0.6550189999999999,0.8742153,1.0,-0.05039978,0.08088684,0.9954376,34.167970000000004,-8.363373,-22.30437,4.668213,0.4557809,0.7854412,-0.3432916,1.074807,-0.1331813999999999,0.1008519,0.6562444000000001,-0.01355626,6.369187,-16.87135,33.75
2,-0.1061249,0.06884766,0.9919586,0.5774648,-0.1243591,0.0644989,0.9901276,-35.793240000000004,-10.19792,-23.93733,4.732803,0.6535002,0.8743257,1.0,-0.0504303,0.0819396999999999,0.9953461,34.167970000000004,-8.363373,-22.32394,4.6772160000000005,0.4557809,0.7855023,-0.3434138,1.074942,-0.1336461,0.09979118,0.6569031999999999,-0.01321816,6.369187,-16.87135,33.75
2,-0.1061249,0.06884766,0.9919586,0.5774648,-0.1243591,0.0644989,0.9901276,-35.793240000000004,-10.19792,-23.93733,4.732803,0.6535002,0.8743257,1.0,-0.0504303,0.0819396999999999,0.9953461,34.167970000000004,-8.363373,-22.32394,4.6772160000000005,0.4557809,0.7855023,-0.3434138,1.074942,-0.1336461,0.09979118,0.6569031999999999,-0.01321816,6.369187,-16.87135,33.75
2,-0.1061249,0.06884766,0.9919586,0.5774648,-0.1243591,0.0644989,0.9901276,-35.793240000000004,-10.19792,-23.93733,4.732803,0.6535002,0.8743257,1.0,-0.0504303,0.0819396999999999,0.9953461,34.167970000000004,-8.363373,-22.32394,4.6772160000000005,0.4557809,0.7855023,-0.3434138,1.074942,-0.1336461,0.09979118,0.6569031999999999,-0.01321816,6.369187,-16.87135,33.75
2,-0.1061249,0.06884766,0.9919586,0.5774648,-0.1243591,0.0644989,0.9901276,-35.793240000000004,-10.19792,-23.93733,4.732803,0.6535002,0.8743257,1.0,-0.0504303,0.0819396999999999,0.9953461,34.167970000000004,-8.363373,-22.32394,4.6772160000000005,0.4557809,0.7855023,-0.3433604,1.07525,-0.1340638999999999,0.09839735,0.6572296999999999,-0.01190139,6.369187,74.23151,33.75
2,-0.1061249,0.06884766,0.9919586,0.5774648,-0.1243591,0.0644989,0.9901276,-35.793240000000004,-10.19792,-23.93733,4.732803,0.6535002,0.8743257,1.0,-0.0504303,0.0819396999999999,0.9953461,34.167970000000004,-8.363373,-22.32394,4.6772160000000005,0.4557809,0.7855023,-0.3433604,1.07525,-0.1340638999999999,0.09839735,0.6572296999999999,-0.01190139,6.369187,74.23151,33.75
2,-0.1061249,0.06884766,0.9919586,0.5774648,-0.1243591,0.0644989,0.9901276,-35.793240000000004,-10.19792,-23.93733,4.732803,0.6535002,0.8743257,1.0,-0.0504303,0.0819396999999999,0.9953461,34.167970000000004,-8.363373,-22.32394,4.6772160000000005,0.4557809,0.7855023,-0.3433604,1.07525,-0.1340638999999999,0.09839735,0.6572296999999999,-0.01190139,6.369187,74.23151,33.75
2,-0.1083983999999999,0.06962585,0.9916534,0.5671763000000001,-0.1312408,0.0639801,0.9892731,-35.785509999999995,-10.16431,-24.02908,4.850174,0.6545994,0.8747271000000001,1.0,-0.0504303,0.08370972,0.9952087,34.167970000000004,-8.37236,-22.3278,4.67807,0.4557809,0.7855564,-0.3433064,1.075397,-0.134675,0.09731414,0.6579831,-0.01175319,6.369187,74.23151,33.75
2,-0.1083983999999999,0.06962585,0.9916534,0.5671763000000001,-0.1312408,0.0639801,0.9892731,-35.785509999999995,-10.16431,-24.02908,4.850174,0.6545994,0.8747271000000001,1.0,-0.0504303,0.08370972,0.9952087,34.167970000000004,-8.37236,-22.3278,4.67807,0.4557809,0.7855564,-0.3433064,1.075397,-0.134675,0.09731414,0.6579831,-0.01175319,6.369187,74.23151,33.75
2,-0.1083983999999999,0.06962585,0.9916534,0.5671763000000001,-0.1312408,0.0639801,0.9892731,-35.785509999999995,-10.16431,-24.02908,4.850174,0.6545994,0.8747271000000001,1.0,-0.0504303,0.08370972,0.9952087,34.167970000000004,-8.37236,-22.3278,4.67807,0.4557809,0.7855564,-0.3433064,1.075397,-0.134675,0.09731414,0.6579831,-0.01175319,6.369187,74.23151,33.75
2,-0.07627869,0.06976318,0.9946289,1.0,-0.1168213,0.05448914,0.9916534,-35.763729999999995,-10.14734,-24.09981,4.826675,0.6515595000000001,0.8766113999999999,1.0,-0.04821777,0.08023071,0.9956055,34.1743,-8.373413000000001,-22.34314,4.61145,0.4552044,0.7862398,-0.3431616,1.075543,-0.1351817,0.09661824,0.6590012,-0.01158527,6.369187,74.23151,33.75
2,-0.07627869,0.06976318,0.9946289,1.0,-0.1168213,0.05448914,0.9916534,-35.763729999999995,-10.14734,-24.09981,4.826675,0.6515595000000001,0.8766113999999999,1.0,-0.04821777,0.08023071,0.9956055,34.1743,-8.373413000000001,-22.34314,4.61145,0.4552044,0.7862398,-0.3431616,1.075543,-0.1351817,0.09661824,0.6590012,-0.01158527,6.369187,74.23151,33.75
2,-0.07627869,0.06976318,0.9946289,1.0,-0.1168213,0.05448914,0.9916534,-35.763729999999995,-10.14734,-24.09981,4.826675,0.6515595000000001,0.8766113999999999,1.0,-0.04821777,0.08023071,0.9956055,34.1743,-8.373413000000001,-22.34314,4.61145,0.4552044,0.7862398,-0.3431616,1.075543,-0.1351817,0.09661824,0.6590012,-0.01158527,6.369187,74.23151,33.75
2,-0.07627869,0.06976318,0.9946289,1.0,-0.1168213,0.05448914,0.9916534,-35.763729999999995,-10.14734,-24.09981,4.826675,0.6515595000000001,0.8766113999999999,1.0,-0.04821777,0.08023071,0.9956055,34.1743,-8.373413000000001,-22.34314,4.61145,0.4552044,0.7862398,-0.3430614,1.075442,-0.135766,0.09602188,0.6601059,-0.01204405,6.369187,74.23151,33.75
2,-0.07627869,0.06976318,0.9946289,1.0,-0.1168213,0.05448914,0.9916534,-35.763729999999995,-10.14734,-24.09981,4.826675,0.6515595000000001,0.8766113999999999,1.0,-0.04821777,0.08023071,0.9956055,34.1743,-8.373413000000001,-22.34314,4.61145,0.4552044,0.7862398,-0.3430614,1.075442,-0.135766,0.09602188,0.6601059,-0.01204405,6.369187,74.23151,33.75
2,-0.07627869,0.06976318,0.9946289,1.0,-0.1168213,0.05448914,0.9916534,-35.763729999999995,-10.14734,-24.09981,4.826675,0.6515595000000001,0.8766113999999999,1.0,-0.04821777,0.08023071,0.9956055,34.1743,-8.373413000000001,-22.34314,4.61145,0.4552044,0.7862398,-0.3430614,1.075442,-0.135766,0.09602188,0.6601059,-0.01204405,6.369187,74.23151,33.75
2,-0.07627869,0.06976318,0.9946289,1.0,-0.1168213,0.05448914,0.9916534,-35.763729999999995,-10.14734,-24.09981,4.826675,0.6515595000000001,0.8766113999999999,1.0,-0.04821777,0.08023071,0.9956055,34.1743,-8.373413000000001,-22.34314,4.61145,0.4552044,0.7862398,-0.3427787,1.075783,-0.1362683,0.09455068,0.661579,-0.01086906,6.369187,74.23151,33.75
2,-0.07627869,0.06976318,0.9946289,1.0,-0.1168213,0.05448914,0.9916534,-35.763729999999995,-10.14734,-24.09981,4.826675,0.6515595000000001,0.8766113999999999,1.0,-0.04821777,0.08023071,0.9956055,34.1743,-8.373413000000001,-22.34314,4.61145,0.4552044,0.7862398,-0.3427787,1.075783,-0.1362683,0.09455068,0.661579,-0.01086906,6.369187,74.23151,33.75
2,-0.07627869,0.06976318,0.9946289,1.0,-0.1168213,0.05448914,0.9916534,-35.763729999999995,-10.14734,-24.09981,4.826675,0.6515595000000001,0.8766113999999999,1.0,-0.04821777,0.08023071,0.9956055,34.1743,-8.373413000000001,-22.34314,4.61145,0.4552044,0.7862398,-0.3427787,1.075783,-0.1362683,0.09455068,0.661579,-0.01086906,6.369187,74.23151,33.75
2,-0.08859253,0.05671692,0.9944458,0.4097817,-0.1127625,0.04336548,0.9926605,-35.77382,-9.973145,-24.46516,4.798096,0.6518906999999999,0.8772068000000001,1.0,-0.03846741,0.08418274,0.995697,34.14105,-8.354691,-23.17064,4.523285,0.4545247,0.7942499,-0.3424519,1.076267,-0.1367487,0.09249568,0.6628638000000001,-0.009760666,6.369187,49.80843,33.75
2,-0.08859253,0.05671692,0.9944458,0.4097817,-0.1127625,0.04336548,0.9926605,-35.77382,-9.973145,-24.46516,4.798096,0.6518906999999999,0.8772068000000001,1.0,-0.03846741,0.08418274,0.995697,34.14105,-8.354691,-23.17064,4.523285,0.4545247,0.7942499,-0.3424519,1.076267,-0.1367487,0.09249568,0.6628638000000001,-0.009760666,6.369187,49.80843,33.75
2,-0.08859253,0.05671692,0.9944458,0.4097817,-0.1127625,0.04336548,0.9926605,-35.77382,-9.973145,-24.46516,4.798096,0.6518906999999999,0.8772068000000001,1.0,-0.03846741,0.08418274,0.995697,34.14105,-8.354691,-23.17064,4.523285,0.4545247,0.7942499,-0.3424519,1.076267,-0.1367487,0.09249568,0.6628638000000001,-0.009760666,6.369187,49.80843,33.75
2,-0.08859253,0.05671692,0.9944458,0.4097817,-0.1127625,0.04336548,0.9926605,-35.77382,-9.973145,-24.46516,4.798096,0.6518906999999999,0.8772068000000001,1.0,-0.03846741,0.08418274,0.995697,34.14105,-8.354691,-23.17064,4.523285,0.4545247,0.7942499,-0.3422691,1.076746,-0.1373689,0.09042478,0.6641418,-0.0081622969999999,6.369187,49.80843,33.75
2,-0.08859253,0.05671692,0.9944458,0.4097817,-0.1127625,0.04336548,0.9926605,-35.77382,-9.973145,-24.46516,4.798096,0.6518906999999999,0.8772068000000001,1.0,-0.03846741,0.08418274,0.995697,34.14105,-8.354691,-23.17064,4.523285,0.4545247,0.7942499,-0.3422691,1.076746,-0.1373689,0.09042478,0.6641418,-0.0081622969999999,6.369187,49.80843,33.75
2,-0.08859253,0.05671692,0.9944458,0.4097817,-0.1127625,0.04336548,0.9926605,-35.77382,-9.973145,-24.46516,4.798096,0.6518906999999999,0.8772068000000001,1.0,-0.03846741,0.08418274,0.995697,34.14105,-8.354691,-23.17064,4.523285,0.4545247,0.7942499,-0.3422691,1.076746,-0.1373689,0.09042478,0.6641418,-0.0081622969999999,6.369187,49.80843,33.75
2,-0.02987671,0.2352295,0.9714661,0.5052986,-0.03207397,0.2341156,0.9716644,-34.79327,-8.137833,-24.52261,4.778168,0.6021933,0.7768874,0.7153802,0.07377625,0.2859955,0.9553833,34.71407,-7.193832,-22.74301,4.636871,0.4176137,0.7171083,-0.3421239,1.077267,-0.1378613,0.08884291,0.6650461999999999,-0.006698869,6.369187,49.80843,33.75
2,-0.02987671,0.2352295,0.9714661,0.5052986,-0.03207397,0.2341156,0.9716644,-34.79327,-8.137833,-24.52261,4.778168,0.6021933,0.7768874,0.7153802,0.07377625,0.2859955,0.9553833,34.71407,-7.193832,-22.74301,4.636871,0.4176137,0.7171083,-0.3421239,1.077267,-0.1378613,0.08884291,0.6650461999999999,-0.006698869,6.369187,49.80843,33.75
2,-0.02987671,0.2352295,0.9714661,0.5052986,-0.03207397,0.2341156,0.9716644,-34.79327,-8.137833,-24.52261,4.778168,0.6021933,0.7768874,0.7153802,0.07377625,0.2859955,0.9553833,34.71407,-7.193832,-22.74301,4.636871,0.4176137,0.7171083,-0.3421239,1.077267,-0.1378613,0.08884291,0.6650461999999999,-0.006698869,6.369187,49.80843,33.75
2,-0.008651733,0.259201,0.9657745,1.0,-0.009841919,0.2589569,0.9658356,-34.87624,-8.269196,-24.5527,4.885178,0.6013269,0.7777649,1.0,0.07296753,0.2749176,0.9586792,34.75244,-7.307510000000001,-22.73862,4.619446,0.4164282999999999,0.722621,-0.3419183,1.077628,-0.1384234,0.08716958,0.6661085,-0.005455055,6.369187,49.80843,33.75
2,-0.008651733,0.259201,0.9657745,1.0,-0.009841919,0.2589569,0.9658356,-34.87624,-8.269196,-24.5527,4.885178,0.6013269,0.7777649,1.0,0.07296753,0.2749176,0.9586792,34.75244,-7.307510000000001,-22.73862,4.619446,0.4164282999999999,0.722621,-0.3419183,1.077628,-0.1384234,0.08716958,0.6661085,-0.005455055,6.369187,49.80843,33.75
2,-0.008651733,0.259201,0.9657745,1.0,-0.009841919,0.2589569,0.9658356,-34.87624,-8.269196,-24.5527,4.885178,0.6013269,0.7777649,1.0,0.07296753,0.2749176,0.9586792,34.75244,-7.307510000000001,-22.73862,4.619446,0.4164282999999999,0.722621,-0.3419183,1.077628,-0.1384234,0.08716958,0.6661085,-0.005455055,6.369187,49.80843,33.75
2,0.02555847,0.2438353999999999,0.9694672,1.0,-0.01173401,0.2384643999999999,0.9710693,-34.86023,-8.305923,-24.54074,4.96788,0.6011745,0.7825199,1.0,0.06665039,0.2493591,0.9661102,34.87651,-7.465758999999999,-22.7496,4.7724910000000005,0.4132880999999999,0.7324378,-0.3416976,1.078806,-0.1392141,0.08357619,0.6682773,-0.0013810679999999,6.369187,49.80843,33.75
2,0.02555847,0.2438353999999999,0.9694672,1.0,-0.01173401,0.2384643999999999,0.9710693,-34.86023,-8.305923,-24.54074,4.96788,0.6011745,0.7825199,1.0,0.06665039,0.2493591,0.9661102,34.87651,-7.465758999999999,-22.7496,4.7724910000000005,0.4132880999999999,0.7324378,-0.3416976,1.078806,-0.1392141,0.08357619,0.6682773,-0.0013810679999999,6.369187,49.80843,33.75
2,0.02555847,0.2438353999999999,0.9694672,1.0,-0.01173401,0.2384643999999999,0.9710693,-34.86023,-8.305923,-24.54074,4.96788,0.6011745,0.7825199,1.0,0.06665039,0.2493591,0.9661102,34.87651,-7.465758999999999,-22.7496,4.7724910000000005,0.4132880999999999,0.7324378,-0.3416976,1.078806,-0.1392141,0.08357619,0.6682773,-0.0013810679999999,6.369187,49.80843,33.75
3,0.03582764,0.2470244999999999,0.968338,1.0,-0.00843811,0.2377319,0.971283,-34.89204,-8.494247,-24.5276,4.936005000000001,0.6017544,0.7889295000000001,1.0,0.07395935,0.2546387,0.9641876,34.87538,-7.611923,-22.7457,4.787033,0.412029,0.736452,-0.3418574,1.0791879999999998,-0.1396553999999999,0.08195651,0.6694513000000001,0.000395553,6.156498,-39.21559,33.75
3,0.03582764,0.2470244999999999,0.968338,1.0,-0.00843811,0.2377319,0.971283,-34.89204,-8.494247,-24.5276,4.936005000000001,0.6017544,0.7889295000000001,1.0,0.07395935,0.2546387,0.9641876,34.87538,-7.611923,-22.7457,4.787033,0.412029,0.736452,-0.3418574,1.0791879999999998,-0.1396553999999999,0.08195651,0.6694513000000001,0.000395553,6.156498,-39.21559,33.75
3,0.03582764,0.2470244999999999,0.968338,1.0,-0.00843811,0.2377319,0.971283,-34.89204,-8.494247,-24.5276,4.936005000000001,0.6017544,0.7889295000000001,1.0,0.07395935,0.2546387,0.9641876,34.87538,-7.611923,-22.7457,4.787033,0.412029,0.736452,-0.3418574,1.0791879999999998,-0.1396553999999999,0.08195651,0.6694513000000001,0.000395553,6.156498,-39.21559,33.75
3,0.03582764,0.2470244999999999,0.968338,1.0,-0.00843811,0.2377319,0.971283,-34.89204,-8.494247,-24.5276,4.936005000000001,0.6017544,0.7889295000000001,1.0,0.07395935,0.2546387,0.9641876,34.87538,-7.611923,-22.7457,4.787033,0.412029,0.736452,-0.3419880999999999,1.079556,-0.1399045,0.08088307,0.6701232,0.001839175,6.156498,-39.21559,33.75
3,0.03582764,0.2470244999999999,0.968338,1.0,-0.00843811,0.2377319,0.971283,-34.89204,-8.494247,-24.5276,4.936005000000001,0.6017544,0.7889295000000001,1.0,0.07395935,0.2546387,0.9641876,34.87538,-7.611923,-22.7457,4.787033,0.412029,0.736452,-0.3419880999999999,1.079556,-0.1399045,0.08088307,0.6701232,0.001839175,6.156498,-39.21559,33.75
3,0.03582764,0.2470244999999999,0.968338,1.0,-0.00843811,0.2377319,0.971283,-34.89204,-8.494247,-24.5276,4.936005000000001,0.6017544,0.7889295000000001,1.0,0.07395935,0.2546387,0.9641876,34.87538,-7.611923,-22.7457,4.787033,0.412029,0.736452,-0.3419880999999999,1.079556,-0.1399045,0.08088307,0.6701232,0.001839175,6.156498,-39.21559,33.75
3,0.03582764,0.2470244999999999,0.968338,1.0,-0.00843811,0.2377319,0.971283,-34.89204,-8.494247,-24.5276,4.936005000000001,0.6017544,0.7889295000000001,1.0,0.07395935,0.2546387,0.9641876,34.87538,-7.611923,-22.7457,4.787033,0.412029,0.736452,-0.3422579,1.079576,-0.1402186,0.08091314,0.6706253000000001,0.001684836,6.156498,-39.21559,33.75
3,0.03582764,0.2470244999999999,0.968338,1.0,-0.00843811,0.2377319,0.971283,-34.89204,-8.494247,-24.5276,4.936005000000001,0.6017544,0.7889295000000001,1.0,0.07395935,0.2546387,0.9641876,34.87538,-7.611923,-22.7457,4.787033,0.412029,0.736452,-0.3422579,1.079576,-0.1402186,0.08091314,0.6706253000000001,0.001684836,6.156498,-39.21559,33.75
3,0.03582764,0.2470244999999999,0.968338,1.0,-0.00843811,0.2377319,0.971283,-34.89204,-8.494247,-24.5276,4.936005000000001,0.6017544,0.7889295000000001,1.0,0.07395935,0.2546387,0.9641876,34.87538,-7.611923,-22.7457,4.787033,0.412029,0.736452,-0.3422579,1.079576,-0.1402186,0.08091314,0.6706253000000001,0.001684836,6.156498,-39.21559,33.75
3,0.08416748,0.2254028,0.9706116,1.0,0.003463745,0.2017059,0.9794312,-34.89243,-9.060272,-23.46454,5.015808,0.5986772,0.8018593,1.0,0.08416748,0.2254028,0.9706116,34.97687,-7.784927000000001,-22.54655,4.958023000000001,0.4069873,0.7451504,-0.3424908,1.079674,-0.1401277999999999,0.08050521,0.670546,0.001958839,6.156498,-39.21559,33.75
3,0.08416748,0.2254028,0.9706116,1.0,0.003463745,0.2017059,0.9794312,-34.89243,-9.060272,-23.46454,5.015808,0.5986772,0.8018593,1.0,0.08416748,0.2254028,0.9706116,34.97687,-7.784927000000001,-22.54655,4.958023000000001,0.4069873,0.7451504,-0.3424908,1.079674,-0.1401277999999999,0.08050521,0.670546,0.001958839,6.156498,-39.21559,33.75
3,0.08416748,0.2254028,0.9706116,1.0,0.003463745,0.2017059,0.9794312,-34.89243,-9.060272,-23.46454,5.015808,0.5986772,0.8018593,1.0,0.08416748,0.2254028,0.9706116,34.97687,-7.784927000000001,-22.54655,4.958023000000001,0.4069873,0.7451504,-0.3424908,1.079674,-0.1401277999999999,0.08050521,0.670546,0.001958839,6.156498,-39.21559,33.75
3,0.08416748,0.2254028,0.9706116,1.0,0.003463745,0.2017059,0.9794312,-34.89243,-9.060272,-23.46454,5.015808,0.5986772,0.8018593,1.0,0.08416748,0.2254028,0.9706116,34.97687,-7.784927000000001,-22.54655,4.958023000000001,0.4069873,0.7451504,-0.3425825999999999,1.079995,-0.1400122999999999,0.07917491,0.6700188,0.0026772109999999,6.156498,-39.21559,33.75
3,0.08416748,0.2254028,0.9706116,1.0,0.003463745,0.2017059,0.9794312,-34.89243,-9.060272,-23.46454,5.015808,0.5986772,0.8018593,1.0,0.08416748,0.2254028,0.9706116,34.97687,-7.784927000000001,-22.54655,4.958023000000001,0.4069873,0.7451504,-0.3425825999999999,1.079995,-0.1400122999999999,0.07917491,0.6700188,0.0026772109999999,6.156498,-39.21559,33.75
3,0.08416748,0.2254028,0.9706116,1.0,0.003463745,0.2017059,0.9794312,-34.89243,-9.060272,-23.46454,5.015808,0.5986772,0.8018593,1.0,0.08416748,0.2254028,0.9706116,34.97687,-7.784927000000001,-22.54655,4.958023000000001,0.4069873,0.7451504,-0.3425825999999999,1.079995,-0.1400122999999999,0.07917491,0.6700188,0.0026772109999999,6.156498,-39.21559,33.75
3,0.08416748,0.2254028,0.9706116,1.0,0.003463745,0.2017059,0.9794312,-34.89243,-9.060272,-23.46454,5.015808,0.5986772,0.8018593,1.0,0.08416748,0.2254028,0.9706116,34.97687,-7.784927000000001,-22.54655,4.958023000000001,0.4069873,0.7451504,-0.3427272,1.0800379999999998,-0.1398328,0.07939269,0.6691954000000001,0.002359149,6.156498,-69.90555,33.75
3,0.08416748,0.2254028,0.9706116,1.0,0.003463745,0.2017059,0.9794312,-34.89243,-9.060272,-23.46454,5.015808,0.5986772,0.8018593,1.0,0.08416748,0.2254028,0.9706116,34.97687,-7.784927000000001,-22.54655,4.958023000000001,0.4069873,0.7451504,-0.3427272,1.0800379999999998,-0.1398328,0.07939269,0.6691954000000001,0.002359149,6.156498,-69.90555,33.75
3,0.08416748,0.2254028,0.9706116,1.0,0.003463745,0.2017059,0.9794312,-34.89243,-9.060272,-23.46454,5.015808,0.5986772,0.8018593,1.0,0.08416748,0.2254028,0.9706116,34.97687,-7.784927000000001,-22.54655,4.958023000000001,0.4069873,0.7451504,-0.3427272,1.0800379999999998,-0.1398328,0.07939269,0.6691954000000001,0.002359149,6.156498,-69.90555,33.75
3,0.08016968,0.1988831,0.9767303,1.0,-0.002716064,0.2073059,0.9782562,-34.84325,-9.078079,-23.50438,5.193542,0.5981363000000001,0.8022929,1.0,0.0802002,0.1988831,0.9767303,34.99988,-7.926041000000001,-22.08255,5.132629,0.4071674,0.7493083,-0.3428125,1.080403,-0.1396558,0.078415,0.6684526999999999,0.003328515,6.156498,-69.90555,33.75
3,0.08016968,0.1988831,0.9767303,1.0,-0.002716064,0.2073059,0.9782562,-34.84325,-9.078079,-23.50438,5.193542,0.5981363000000001,0.8022929,1.0,0.0802002,0.1988831,0.9767303,34.99988,-7.926041000000001,-22.08255,5.132629,0.4071674,0.7493083,-0.3428125,1.080403,-0.1396558,0.078415,0.6684526999999999,0.003328515,6.156498,-69.90555,33.75
3,0.08016968,0.1988831,0.9767303,1.0,-0.002716064,0.2073059,0.9782562,-34.84325,-9.078079,-23.50438,5.193542,0.5981363000000001,0.8022929,1.0,0.0802002,0.1988831,0.9767303,34.99988,-7.926041000000001,-22.08255,5.132629,0.4071674,0.7493083,-0.3428125,1.080403,-0.1396558,0.078415,0.6684526999999999,0.003328515,6.156498,-69.90555,33.75
3,0.07397461,0.1962585,0.9777527,1.0,-0.008163452,0.1991272,0.9799347,-34.84055,-9.072418,-23.52884,5.176636,0.5990436,0.8038476,1.0,0.07839966,0.1960753999999999,0.9774475,35.00526,-7.953475999999999,-22.03157,5.159393,0.4072905,0.7501975000000001,-0.3430053,1.080543,-0.1394914,0.07793313,0.6683679,0.004062393,6.156498,-69.90555,33.75
3,0.07397461,0.1962585,0.9777527,1.0,-0.008163452,0.1991272,0.9799347,-34.84055,-9.072418,-23.52884,5.176636,0.5990436,0.8038476,1.0,0.07839966,0.1960753999999999,0.9774475,35.00526,-7.953475999999999,-22.03157,5.159393,0.4072905,0.7501975000000001,-0.3430053,1.080543,-0.1394914,0.07793313,0.6683679,0.004062393,6.156498,-69.90555,33.75
3,0.07397461,0.1962585,0.9777527,1.0,-0.008163452,0.1991272,0.9799347,-34.84055,-9.072418,-23.52884,5.176636,0.5990436,0.8038476,1.0,0.07839966,0.1960753999999999,0.9774475,35.00526,-7.953475999999999,-22.03157,5.159393,0.4072905,0.7501975000000001,-0.3430053,1.080543,-0.1394914,0.07793313,0.6683679,0.004062393,6.156498,-69.90555,33.75
3,0.01933289,0.1891785,0.9817352,1.0,-0.01222229,0.1850128,0.9826508,-34.97891,-9.324783,-23.64706,5.158768,0.6047044,0.8165678000000001,1.0,0.07745361,0.1963654,0.9774628,34.94911,-8.075439,-21.8605,5.169373,0.4093806,0.7523095999999999,-0.343205,1.080582,-0.1394221,0.07829148,0.6679232,0.004482657,6.156498,-69.90555,33.75
3,0.01933289,0.1891785,0.9817352,1.0,-0.01222229,0.1850128,0.9826508,-34.97891,-9.324783,-23.64706,5.158768,0.6047044,0.8165678000000001,1.0,0.07745361,0.1963654,0.9774628,34.94911,-8.075439,-21.8605,5.169373,0.4093806,0.7523095999999999,-0.343205,1.080582,-0.1394221,0.07829148,0.6679232,0.004482657,6.156498,-69.90555,33.75
3,0.01933289,0.1891785,0.9817352,1.0,-0.01222229,0.1850128,0.9826508,-34.97891,-9.324783,-23.64706,5.158768,0.6047044,0.8165678000000001,1.0,0.07745361,0.1963654,0.9774628,34.94911,-8.075439,-21.8605,5.169373,0.4093806,0.7523095999999999,-0.343205,1.080582,-0.1394221,0.07829148,0.6679232,0.004482657,6.156498,-69.90555,33.75
3,0.01933289,0.1891785,0.9817352,1.0,-0.01222229,0.1850128,0.9826508,-34.97891,-9.324783,-23.64706,5.158768,0.6047044,0.8165678000000001,1.0,0.07745361,0.1963654,0.9774628,34.94911,-8.075439,-21.8605,5.169373,0.4093806,0.7523095999999999,-0.3432343,1.0807790000000002,-0.1393811,0.07735305,0.668204,0.004923082,6.156498,65.82724,33.75
3,0.01933289,0.1891785,0.9817352,1.0,-0.01222229,0.1850128,0.9826508,-34.97891,-9.324783,-23.64706,5.158768,0.6047044,0.8165678000000001,1.0,0.07745361,0.1963654,0.9774628,34.94911,-8.075439,-21.8605,5.169373,0.4093806,0.7523095999999999,-0.3432343,1.0807790000000002,-0.1393811,0.07735305,0.668204,0.004923082,6.156498,65.82724,33.75
3,0.01933289,0.1891785,0.9817352,1.0,-0.01222229,0.1850128,0.9826508,-34.97891,-9.324783,-23.64706,5.158768,0.6047044,0.8165678000000001,1.0,0.07745361,0.1963654,0.9774628,34.94911,-8.075439,-21.8605,5.169373,0.4093806,0.7523095999999999,-0.3432343,1.0807790000000002,-0.1393811,0.07735305,0.668204,0.004923082,6.156498,65.82724,33.75
3,0.0390625,0.191452,0.9807129,1.0,-0.01036072,0.1850586,0.982666,-34.98068,-9.300186,-23.69203,5.191681,0.6045199,0.8163324000000001,1.0,0.07801819,0.1961517,0.9774475,34.94453,-8.079224,-21.86029,5.172623000000001,0.4094357,0.7524751000000001,-0.3432126,1.08093,-0.1395799,0.07666691,0.669027,0.00498624,6.156498,65.82724,33.75
3,0.0390625,0.191452,0.9807129,1.0,-0.01036072,0.1850586,0.982666,-34.98068,-9.300186,-23.69203,5.191681,0.6045199,0.8163324000000001,1.0,0.07801819,0.1961517,0.9774475,34.94453,-8.079224,-21.86029,5.172623000000001,0.4094357,0.7524751000000001,-0.3432126,1.08093,-0.1395799,0.07666691,0.669027,0.00498624,6.156498,65.82724,33.75
3,0.0390625,0.191452,0.9807129,1.0,-0.01036072,0.1850586,0.982666,-34.98068,-9.300186,-23.69203,5.191681,0.6045199,0.8163324000000001,1.0,0.07801819,0.1961517,0.9774475,34.94453,-8.079224,-21.86029,5.172623000000001,0.4094357,0.7524751000000001,-0.3432126,1.08093,-0.1395799,0.07666691,0.669027,0.00498624,6.156498,65.82724,33.75
3,-0.01142883,0.1625977,0.986618,1.0,-0.01219177,0.1622772,0.9866638,-34.97691,-9.114838,-24.20178,5.137054,0.6054170999999999,0.8200531999999999,1.0,0.09272766,0.2044677999999999,0.9744568,34.83647,-8.475647,-21.11609,5.3704220000000005,0.4109409,0.7563725,-0.3432113,1.081026,-0.1396297,0.07667308,0.6693908000000001,0.004691377,6.156498,65.82724,33.75
3,-0.01142883,0.1625977,0.986618,1.0,-0.01219177,0.1622772,0.9866638,-34.97691,-9.114838,-24.20178,5.137054,0.6054170999999999,0.8200531999999999,1.0,0.09272766,0.2044677999999999,0.9744568,34.83647,-8.475647,-21.11609,5.3704220000000005,0.4109409,0.7563725,-0.3432113,1.081026,-0.1396297,0.07667308,0.6693908000000001,0.004691377,6.156498,65.82724,33.75
3,-0.01142883,0.1625977,0.986618,1.0,-0.01219177,0.1622772,0.9866638,-34.97691,-9.114838,-24.20178,5.137054,0.6054170999999999,0.8200531999999999,1.0,0.09272766,0.2044677999999999,0.9744568,34.83647,-8.475647,-21.11609,5.3704220000000005,0.4109409,0.7563725,-0.3432113,1.081026,-0.1396297,0.07667308,0.6693908000000001,0.004691377,6.156498,65.82724,33.75
3,-0.01142883,0.1625977,0.986618,1.0,-0.01219177,0.1622772,0.9866638,-34.97691,-9.114838,-24.20178,5.137054,0.6054170999999999,0.8200531999999999,1.0,0.09272766,0.2044677999999999,0.9744568,34.83647,-8.475647,-21.11609,5.3704220000000005,0.4109409,0.7563725,-0.3431705,1.081112,-0.139679,0.07660522,0.6694346999999999,0.005435899,6.156498,65.82724,33.75
3,-0.01142883,0.1625977,0.986618,1.0,-0.01219177,0.1622772,0.9866638,-34.97691,-9.114838,-24.20178,5.137054,0.6054170999999999,0.8200531999999999,1.0,0.09272766,0.2044677999999999,0.9744568,34.83647,-8.475647,-21.11609,5.3704220000000005,0.4109409,0.7563725,-0.3431705,1.081112,-0.139679,0.07660522,0.6694346999999999,0.005435899,6.156498,65.82724,33.75
3,-0.01142883,0.1625977,0.986618,1.0,-0.01219177,0.1622772,0.9866638,-34.97691,-9.114838,-24.20178,5.137054,0.6054170999999999,0.8200531999999999,1.0,0.09272766,0.2044677999999999,0.9744568,34.83647,-8.475647,-21.11609,5.3704220000000005,0.4109409,0.7563725,-0.3431705,1.081112,-0.139679,0.07660522,0.6694346999999999,0.005435899,6.156498,65.82724,33.75
3,-0.01034546,0.1661072,0.9860382,1.0,-0.0118866,0.1655579,0.9861145,-34.97826,-9.11882,-24.18347,5.1527400000000005,0.6053852,0.8194278,1.0,0.09318542,0.2020721,0.9749146,34.83638,-8.469254,-21.11555,5.380005000000001,0.4108749,0.7565518,-0.3433938,1.081205,-0.1395083999999999,0.07636915,0.6688743,0.005642369,6.156498,47.29512,33.75
3,-0.01034546,0.1661072,0.9860382,1.0,-0.0118866,0.1655579,0.9861145,-34.97826,-9.11882,-24.18347,5.1527400000000005,0.6053852,0.8194278,1.0,0.09318542,0.2020721,0.9749146,34.83638,-8.469254,-21.11555,5.380005000000001,0.4108749,0.7565518,-0.3433938,1.081205,-0.1395083999999999,0.07636915,0.6688743,0.005642369,6.156498,47.29512,33.75
3,-0.01034546,0.1661072,0.9860382,1.0,-0.0118866,0.1655579,0.9861145,-34.97826,-9.11882,-24.18347,5.1527400000000005,0.6053852,0.8194278,1.0,0.09318542,0.2020721,0.9749146,34.83638,-8.469254,-21.11555,5.380005000000001,0.4108749,0.7565518,-0.3433938,1.081205,-0.1395083999999999,0.07636915,0.6688743,0.005642369,6.156498,47.29512,33.75
3,0.04734802,0.1820831,0.982132,1.0,-0.01171875,0.1590271,0.9871979,-34.98155,-9.1315,-24.18323,5.146347,0.6054831999999999,0.8209745999999999,1.0,0.09384155,0.1997527999999999,0.9753265,34.834109999999995,-8.460495,-21.13921,5.412766,0.4108287,0.7569728,-0.3434582,1.081287,-0.1395867999999999,0.07648779,0.6687586999999999,0.005756104,6.156498,47.29512,33.75
3,0.04734802,0.1820831,0.982132,1.0,-0.01171875,0.1590271,0.9871979,-34.98155,-9.1315,-24.18323,5.146347,0.6054831999999999,0.8209745999999999,1.0,0.09384155,0.1997527999999999,0.9753265,34.834109999999995,-8.460495,-21.13921,5.412766,0.4108287,0.7569728,-0.3434582,1.081287,-0.1395867999999999,0.07648779,0.6687586999999999,0.005756104,6.156498,47.29512,33.75
3,0.04734802,0.1820831,0.982132,1.0,-0.01171875,0.1590271,0.9871979,-34.98155,-9.1315,-24.18323,5.146347,0.6054831999999999,0.8209745999999999,1.0,0.09384155,0.1997527999999999,0.9753265,34.834109999999995,-8.460495,-21.13921,5.412766,0.4108287,0.7569728,-0.3434582,1.081287,-0.1395867999999999,0.07648779,0.6687586999999999,0.005756104,6.156498,47.29512,33.75
3,0.04342651,0.1683502,0.9847565,1.0,-0.01928711,0.1405029,0.9898834,-34.9825,-9.1315,-24.20554,5.1710970000000005,0.6069048,0.8245988999999999,1.0,0.0947113,0.1905822999999999,0.9770813,34.82573,-8.457352,-21.14383,5.504242,0.4109545999999999,0.7585696999999999,-0.3433756,1.081321,-0.1395828999999999,0.07599286,0.6690528,0.005508063,6.156498,47.29512,33.75
3,0.04342651,0.1683502,0.9847565,1.0,-0.01928711,0.1405029,0.9898834,-34.9825,-9.1315,-24.20554,5.1710970000000005,0.6069048,0.8245988999999999,1.0,0.0947113,0.1905822999999999,0.9770813,34.82573,-8.457352,-21.14383,5.504242,0.4109545999999999,0.7585696999999999,-0.3433756,1.081321,-0.1395828999999999,0.07599286,0.6690528,0.005508063,6.156498,47.29512,33.75
3,0.04342651,0.1683502,0.9847565,1.0,-0.01928711,0.1405029,0.9898834,-34.9825,-9.1315,-24.20554,5.1710970000000005,0.6069048,0.8245988999999999,1.0,0.0947113,0.1905822999999999,0.9770813,34.82573,-8.457352,-21.14383,5.504242,0.4109545999999999,0.7585696999999999,-0.3433756,1.081321,-0.1395828999999999,0.07599286,0.6690528,0.005508063,6.156498,47.29512,33.75
3,0.04342651,0.1683502,0.9847565,1.0,-0.01928711,0.1405029,0.9898834,-34.9825,-9.1315,-24.20554,5.1710970000000005,0.6069048,0.8245988999999999,1.0,0.0947113,0.1905822999999999,0.9770813,34.82573,-8.457352,-21.14383,5.504242,0.4109545999999999,0.7585696999999999,-0.3432574,1.081502,-0.1396948999999999,0.07526597,0.6695552,0.0059808219999999,6.156498,47.29512,33.75
3,0.04342651,0.1683502,0.9847565,1.0,-0.01928711,0.1405029,0.9898834,-34.9825,-9.1315,-24.20554,5.1710970000000005,0.6069048,0.8245988999999999,1.0,0.0947113,0.1905822999999999,0.9770813,34.82573,-8.457352,-21.14383,5.504242,0.4109545999999999,0.7585696999999999,-0.3432574,1.081502,-0.1396948999999999,0.07526597,0.6695552,0.0059808219999999,6.156498,47.29512,33.75
3,0.04342651,0.1683502,0.9847565,1.0,-0.01928711,0.1405029,0.9898834,-34.9825,-9.1315,-24.20554,5.1710970000000005,0.6069048,0.8245988999999999,1.0,0.0947113,0.1905822999999999,0.9770813,34.82573,-8.457352,-21.14383,5.504242,0.4109545999999999,0.7585696999999999,-0.3432574,1.081502,-0.1396948999999999,0.07526597,0.6695552,0.0059808219999999,6.156498,47.29512,33.75
3,0.04342651,0.1683502,0.9847565,1.0,-0.01928711,0.1405029,0.9898834,-34.9825,-9.1315,-24.20554,5.1710970000000005,0.6069048,0.8245988999999999,1.0,0.0947113,0.1905822999999999,0.9770813,34.82573,-8.457352,-21.14383,5.504242,0.4109545999999999,0.7585696999999999,-0.3432040999999999,1.081589,-0.1396791,0.07486136,0.669863,0.00652477,6.156498,47.29512,33.75
3,0.04342651,0.1683502,0.9847565,1.0,-0.01928711,0.1405029,0.9898834,-34.9825,-9.1315,-24.20554,5.1710970000000005,0.6069048,0.8245988999999999,1.0,0.0947113,0.1905822999999999,0.9770813,34.82573,-8.457352,-21.14383,5.504242,0.4109545999999999,0.7585696999999999,-0.3432040999999999,1.081589,-0.1396791,0.07486136,0.669863,0.00652477,6.156498,47.29512,33.75
3,0.04342651,0.1683502,0.9847565,1.0,-0.01928711,0.1405029,0.9898834,-34.9825,-9.1315,-24.20554,5.1710970000000005,0.6069048,0.8245988999999999,1.0,0.0947113,0.1905822999999999,0.9770813,34.82573,-8.457352,-21.14383,5.504242,0.4109545999999999,0.7585696999999999,-0.3432040999999999,1.081589,-0.1396791,0.07486136,0.669863,0.00652477,6.156498,47.29512,33.75
3,0.0380249,0.156601,0.9869232,1.0,-0.02615356,0.1213837,0.9922485,-34.98451,-9.121811,-24.22514,5.260619999999999,0.6082573,0.8281026,1.0,0.09515381,0.1873322,0.9776611,34.81981,-8.457977,-21.15746,5.527435,0.4110657999999999,0.7593126,-0.3430159,1.081673,-0.1398659,0.0738157,0.6705388000000001,0.006627867,6.156498,-33.16371,33.75
3,0.0380249,0.156601,0.9869232,1.0,-0.02615356,0.1213837,0.9922485,-34.98451,-9.121811,-24.22514,5.260619999999999,0.6082573,0.8281026,1.0,0.09515381,0.1873322,0.9776611,34.81981,-8.457977,-21.15746,5.527435,0.4110657999999999,0.7593126,-0.3430159,1.081673,-0.1398659,0.0738157,0.6705388000000001,0.006627867,6.156498,-33.16371,33.75
3,0.0380249,0.156601,0.9869232,1.0,-0.02615356,0.1213837,0.9922485,-34.98451,-9.121811,-24.22514,5.260619999999999,0.6082573,0.8281026,1.0,0.09515381,0.1873322,0.9776611,34.81981,-8.457977,-21.15746,5.527435,0.4110657999999999,0.7593126,-0.3430159,1.081673,-0.1398659,0.0738157,0.6705388000000001,0.006627867,6.156498,-33.16371,33.75
3,0.03898621,0.1526489,0.9875031,1.0,-0.02677917,0.1137543,0.9931335,-34.98451,-9.121811,-24.22852,5.299728,0.608417,0.8295880999999999,1.0,0.09501648,0.1851500999999999,0.9780884,34.80519,-8.465454,-21.1441,5.589111,0.4115768,0.7598704000000001,-0.3429122,1.081901,-0.1398641,0.07320286,0.6709446,0.007302315,6.156498,-33.16371,33.75
3,0.03898621,0.1526489,0.9875031,1.0,-0.02677917,0.1137543,0.9931335,-34.98451,-9.121811,-24.22852,5.299728,0.608417,0.8295880999999999,1.0,0.09501648,0.1851500999999999,0.9780884,34.80519,-8.465454,-21.1441,5.589111,0.4115768,0.7598704000000001,-0.3429122,1.081901,-0.1398641,0.07320286,0.6709446,0.007302315,6.156498,-33.16371,33.75
3,0.03898621,0.1526489,0.9875031,1.0,-0.02677917,0.1137543,0.9931335,-34.98451,-9.121811,-24.22852,5.299728,0.608417,0.8295880999999999,1.0,0.09501648,0.1851500999999999,0.9780884,34.80519,-8.465454,-21.1441,5.589111,0.4115768,0.7598704000000001,-0.3429122,1.081901,-0.1398641,0.07320286,0.6709446,0.007302315,6.156498,-33.16371,33.75
3,0.03979492,0.1481934,0.9881439,1.0,-0.02627563,0.1090546,0.9936829,-34.98653,-9.125275,-24.22852,5.292282,0.608417,0.8305162,1.0,0.09429932,0.1799316,0.9791412,34.804520000000004,-8.471146000000001,-21.13844,5.640488,0.4117126,0.7609439,-0.3429817,1.081988,-0.139874,0.07259106,0.6711012,0.0076042069999999,6.156498,-33.16371,33.75
3,0.03979492,0.1481934,0.9881439,1.0,-0.02627563,0.1090546,0.9936829,-34.98653,-9.125275,-24.22852,5.292282,0.608417,0.8305162,1.0,0.09429932,0.1799316,0.9791412,34.804520000000004,-8.471146000000001,-21.13844,5.640488,0.4117126,0.7609439,-0.3429817,1.081988,-0.139874,0.07259106,0.6711012,0.0076042069999999,6.156498,-33.16371,33.75
3,0.03979492,0.1481934,0.9881439,1.0,-0.02627563,0.1090546,0.9936829,-34.98653,-9.125275,-24.22852,5.292282,0.608417,0.8305162,1.0,0.09429932,0.1799316,0.9791412,34.804520000000004,-8.471146000000001,-21.13844,5.640488,0.4117126,0.7609439,-0.3429817,1.081988,-0.139874,0.07259106,0.6711012,0.0076042069999999,6.156498,-33.16371,33.75
3,0.03979492,0.1481934,0.9881439,1.0,-0.02627563,0.1090546,0.9936829,-34.98653,-9.125275,-24.22852,5.292282,0.608417,0.8305162,1.0,0.09429932,0.1799316,0.9791412,34.804520000000004,-8.471146000000001,-21.13844,5.640488,0.4117126,0.7609439,-0.3430204,1.081984,-0.1399818,0.07249784,0.6710526,0.007518976,6.156498,-33.16371,33.75
3,0.03979492,0.1481934,0.9881439,1.0,-0.02627563,0.1090546,0.9936829,-34.98653,-9.125275,-24.22852,5.292282,0.608417,0.8305162,1.0,0.09429932,0.1799316,0.9791412,34.804520000000004,-8.471146000000001,-21.13844,5.640488,0.4117126,0.7609439,-0.3430204,1.081984,-0.1399818,0.07249784,0.6710526,0.007518976,6.156498,-33.16371,33.75
3,0.03979492,0.1481934,0.9881439,1.0,-0.02627563,0.1090546,0.9936829,-34.98653,-9.125275,-24.22852,5.292282,0.608417,0.8305162,1.0,0.09429932,0.1799316,0.9791412,34.804520000000004,-8.471146000000001,-21.13844,5.640488,0.4117126,0.7609439,-0.3430204,1.081984,-0.1399818,0.07249784,0.6710526,0.007518976,6.156498,-33.16371,33.75
3,0.04356384,0.1422729,0.9888611,1.0,-0.02284241,0.1037444999999999,0.994339,-34.97939,-9.236389,-24.08162,5.2604370000000005,0.6074531,0.8334146000000001,1.0,0.100708,0.1748657,0.9794159,34.81668,-8.606537,-20.96132,5.713669,0.4103255999999999,0.7644312,-0.3430549,1.082235,-0.1399311,0.07143189,0.6707569,0.0086334,6.156498,-33.16371,33.75
3,0.04356384,0.1422729,0.9888611,1.0,-0.02284241,0.1037444999999999,0.994339,-34.97939,-9.236389,-24.08162,5.2604370000000005,0.6074531,0.8334146000000001,1.0,0.100708,0.1748657,0.9794159,34.81668,-8.606537,-20.96132,5.713669,0.4103255999999999,0.7644312,-0.3430549,1.082235,-0.1399311,0.07143189,0.6707569,0.0086334,6.156498,-33.16371,33.75
3,0.04356384,0.1422729,0.9888611,1.0,-0.02284241,0.1037444999999999,0.994339,-34.97939,-9.236389,-24.08162,5.2604370000000005,0.6074531,0.8334146000000001,1.0,0.100708,0.1748657,0.9794159,34.81668,-8.606537,-20.96132,5.713669,0.4103255999999999,0.7644312,-0.3430549,1.082235,-0.1399311,0.07143189,0.6707569,0.0086334,6.156498,-33.16371,33.75
3,0.0446166999999999,0.1454619999999999,0.9883423,1.0,-0.02127075,0.1136017,0.9932861,-34.978320000000004,-9.352325,-23.93758,5.32048,0.6070232,0.8341193000000001,1.0,0.0978241,0.1706848,0.9804535,34.81668,-8.568756,-21.02022,5.676773000000001,0.4107696,0.7644312,-0.3430603,1.082475,-0.1399612,0.07060615,0.6710789,0.0089578319999999,6.156498,-33.16371,33.75
3,0.0446166999999999,0.1454619999999999,0.9883423,1.0,-0.02127075,0.1136017,0.9932861,-34.978320000000004,-9.352325,-23.93758,5.32048,0.6070232,0.8341193000000001,1.0,0.0978241,0.1706848,0.9804535,34.81668,-8.568756,-21.02022,5.676773000000001,0.4107696,0.7644312,-0.3430603,1.082475,-0.1399612,0.07060615,0.6710789,0.0089578319999999,6.156498,-33.16371,33.75
3,0.0446166999999999,0.1454619999999999,0.9883423,1.0,-0.02127075,0.1136017,0.9932861,-34.978320000000004,-9.352325,-23.93758,5.32048,0.6070232,0.8341193000000001,1.0,0.0978241,0.1706848,0.9804535,34.81668,-8.568756,-21.02022,5.676773000000001,0.4107696,0.7644312,-0.3430603,1.082475,-0.1399612,0.07060615,0.6710789,0.0089578319999999,6.156498,-33.16371,33.75
3,0.02232361,0.1313628999999999,0.9910736,1.0,-0.01515198,0.1103821,0.9937591999999998,-34.97382,-9.414963,-23.84769,5.35051,0.6057646,0.8357641,1.0,0.1012726,0.1748198999999999,0.9793701,34.78993,-8.830658,-20.52304,5.720184,0.411296,0.7670045,-0.3431374,1.082426,-0.1399904,0.07077473,0.6709574,0.008835985,6.156498,-62.20775,33.75
3,0.02232361,0.1313628999999999,0.9910736,1.0,-0.01515198,0.1103821,0.9937591999999998,-34.97382,-9.414963,-23.84769,5.35051,0.6057646,0.8357641,1.0,0.1012726,0.1748198999999999,0.9793701,34.78993,-8.830658,-20.52304,5.720184,0.411296,0.7670045,-0.3431374,1.082426,-0.1399904,0.07077473,0.6709574,0.008835985,6.156498,-62.20775,33.75
3,0.02232361,0.1313628999999999,0.9910736,1.0,-0.01515198,0.1103821,0.9937591999999998,-34.97382,-9.414963,-23.84769,5.35051,0.6057646,0.8357641,1.0,0.1012726,0.1748198999999999,0.9793701,34.78993,-8.830658,-20.52304,5.720184,0.411296,0.7670045,-0.3431374,1.082426,-0.1399904,0.07077473,0.6709574,0.008835985,6.156498,-62.20775,33.75
3,-0.01193237,0.09713745,0.9951935,1.0,-0.0140686,0.09561157,0.9953156,-34.97806,-9.429993,-23.83968,5.3119510000000005,0.6057646,0.838707,1.0,0.09997559,0.1757355,0.9793396,34.79716,-8.845352,-20.52304,5.7229,0.411296,0.7672722,-0.3432042999999999,1.082606,-0.139975,0.07021967,0.6710311,0.009167066,6.156498,-62.20775,33.75
3,-0.01193237,0.09713745,0.9951935,1.0,-0.0140686,0.09561157,0.9953156,-34.97806,-9.429993,-23.83968,5.3119510000000005,0.6057646,0.838707,1.0,0.09997559,0.1757355,0.9793396,34.79716,-8.845352,-20.52304,5.7229,0.411296,0.7672722,-0.3432042999999999,1.082606,-0.139975,0.07021967,0.6710311,0.009167066,6.156498,-62.20775,33.75
3,-0.01193237,0.09713745,0.9951935,1.0,-0.0140686,0.09561157,0.9953156,-34.97806,-9.429993,-23.83968,5.3119510000000005,0.6057646,0.838707,1.0,0.09997559,0.1757355,0.9793396,34.79716,-8.845352,-20.52304,5.7229,0.411296,0.7672722,-0.3432042999999999,1.082606,-0.139975,0.07021967,0.6710311,0.009167066,6.156498,-62.20775,33.75
3,-0.01443481,0.09414673,0.9954376,1.0,-0.01527405,0.09355164,0.9954834,-34.978320000000004,-9.432434,-23.83356,5.300293,0.6059701999999999,0.8390603999999999,1.0,0.09997559,0.1744537,0.9795685,34.80048,-8.842728,-20.53101,5.742218,0.4111804,0.7675188000000001,-0.3433454999999999,1.082686,-0.1400622999999999,0.07014154,0.6716359000000001,0.008810653,6.156498,-62.20775,33.75
3,-0.01443481,0.09414673,0.9954376,1.0,-0.01527405,0.09355164,0.9954834,-34.978320000000004,-9.432434,-23.83356,5.300293,0.6059701999999999,0.8390603999999999,1.0,0.09997559,0.1744537,0.9795685,34.80048,-8.842728,-20.53101,5.742218,0.4111804,0.7675188000000001,-0.3433454999999999,1.082686,-0.1400622999999999,0.07014154,0.6716359000000001,0.008810653,6.156498,-62.20775,33.75
3,-0.01443481,0.09414673,0.9954376,1.0,-0.01527405,0.09355164,0.9954834,-34.978320000000004,-9.432434,-23.83356,5.300293,0.6059701999999999,0.8390603999999999,1.0,0.09997559,0.1744537,0.9795685,34.80048,-8.842728,-20.53101,5.742218,0.4111804,0.7675188000000001,-0.3433454999999999,1.082686,-0.1400622999999999,0.07014154,0.6716359000000001,0.008810653,6.156498,-62.20775,33.75
3,0.04615784,0.1475983,0.9879608,1.0,-0.01777649,0.1187286,0.9927521,-34.98698,-9.62291,-23.82443,5.311661,0.606734,0.8413634,1.0,0.09919739,0.1710662999999999,0.9802399,34.80583,-8.825911999999999,-20.5535,5.745773000000001,0.4111215,0.7677626000000001,-0.3434067,1.082429,-0.1400696,0.07058784,0.6715453,0.008914059,6.156498,-62.20775,33.75
3,0.04615784,0.1475983,0.9879608,1.0,-0.01777649,0.1187286,0.9927521,-34.98698,-9.62291,-23.82443,5.311661,0.606734,0.8413634,1.0,0.09919739,0.1710662999999999,0.9802399,34.80583,-8.825911999999999,-20.5535,5.745773000000001,0.4111215,0.7677626000000001,-0.3434067,1.082429,-0.1400696,0.07058784,0.6715453,0.008914059,6.156498,-62.20775,33.75
3,0.04615784,0.1475983,0.9879608,1.0,-0.01777649,0.1187286,0.9927521,-34.98698,-9.62291,-23.82443,5.311661,0.606734,0.8413634,1.0,0.09919739,0.1710662999999999,0.9802399,34.80583,-8.825911999999999,-20.5535,5.745773000000001,0.4111215,0.7677626000000001,-0.3434067,1.082429,-0.1400696,0.07058784,0.6715453,0.008914059,6.156498,-62.20775,33.75
4,0.04672241,0.1422424,0.9887238000000002,1.0,-0.01913452,0.1047974,0.9943085,-34.97957,-9.653366,-23.79893,5.280441000000001,0.606734,0.8445023000000002,1.0,0.09939575,0.1716918999999999,0.9801178,34.81001,-8.819962,-20.59796,5.758881,0.4109139,0.7680085999999999,-0.3435243,1.082626,-0.1400578,0.07005794,0.6716515000000001,0.009350938,6.156498,59.08994,33.75
4,0.04672241,0.1422424,0.9887238000000002,1.0,-0.01913452,0.1047974,0.9943085,-34.97957,-9.653366,-23.79893,5.280441000000001,0.606734,0.8445023000000002,1.0,0.09939575,0.1716918999999999,0.9801178,34.81001,-8.819962,-20.59796,5.758881,0.4109139,0.7680085999999999,-0.3435243,1.082626,-0.1400578,0.07005794,0.6716515000000001,0.009350938,6.156498,59.08994,33.75
4,0.04672241,0.1422424,0.9887238000000002,1.0,-0.01913452,0.1047974,0.9943085,-34.97957,-9.653366,-23.79893,5.280441000000001,0.606734,0.8445023000000002,1.0,0.09939575,0.1716918999999999,0.9801178,34.81001,-8.819962,-20.59796,5.758881,0.4109139,0.7680085999999999,-0.3435243,1.082626,-0.1400578,0.07005794,0.6716515000000001,0.009350938,6.156498,59.08994,33.75
4,0.02590942,0.1336975,0.9906769,1.0,-0.02053833,0.1073456,0.9940033,-34.961290000000005,-9.667328,-23.77823,5.368134,0.6063648,0.8445023000000002,1.0,0.09736633,0.1735687,0.9799805,34.82965,-8.800888,-20.68245,5.797165000000001,0.410558,0.7680665,-0.3435132999999999,1.082515,-0.1401461,0.07001821,0.6717825,0.008989798,6.156498,59.08994,33.75
4,0.02590942,0.1336975,0.9906769,1.0,-0.02053833,0.1073456,0.9940033,-34.961290000000005,-9.667328,-23.77823,5.368134,0.6063648,0.8445023000000002,1.0,0.09736633,0.1735687,0.9799805,34.82965,-8.800888,-20.68245,5.797165000000001,0.410558,0.7680665,-0.3435132999999999,1.082515,-0.1401461,0.07001821,0.6717825,0.008989798,6.156498,59.08994,33.75
4,0.02590942,0.1336975,0.9906769,1.0,-0.02053833,0.1073456,0.9940033,-34.961290000000005,-9.667328,-23.77823,5.368134,0.6063648,0.8445023000000002,1.0,0.09736633,0.1735687,0.9799805,34.82965,-8.800888,-20.68245,5.797165000000001,0.410558,0.7680665,-0.3435132999999999,1.082515,-0.1401461,0.07001821,0.6717825,0.008989798,6.156498,59.08994,33.75
4,0.02243042,0.1381226,0.9901581,1.0,-0.02116394,0.1178131,0.9927979,-34.95795,-9.682709,-23.75507,5.466812,0.6063359,0.8431376,1.0,0.0983429,0.1727753,0.9800261999999998,34.83321,-8.793503,-20.74677,5.826462,0.4102297,0.7687576,-0.3436137,1.082591,-0.1400757,0.06965612,0.6718991,0.009254428,6.156498,59.08994,33.75
4,0.02243042,0.1381226,0.9901581,1.0,-0.02116394,0.1178131,0.9927979,-34.95795,-9.682709,-23.75507,5.466812,0.6063359,0.8431376,1.0,0.0983429,0.1727753,0.9800261999999998,34.83321,-8.793503,-20.74677,5.826462,0.4102297,0.7687576,-0.3436137,1.082591,-0.1400757,0.06965612,0.6718991,0.009254428,6.156498,59.08994,33.75
4,0.02243042,0.1381226,0.9901581,1.0,-0.02116394,0.1178131,0.9927979,-34.95795,-9.682709,-23.75507,5.466812,0.6063359,0.8431376,1.0,0.0983429,0.1727753,0.9800261999999998,34.83321,-8.793503,-20.74677,5.826462,0.4102297,0.7687576,-0.3436137,1.082591,-0.1400757,0.06965612,0.6718991,0.009254428,6.156498,59.08994,33.75
4,0.0209198,0.1130219,0.9933624,1.0,-0.01863098,0.0927886999999999,0.9954987,-34.95758,-9.690308,-23.75145,5.334213,0.6059372,0.8474563,1.0,0.1059113,0.1557617,0.9820862,34.849140000000006,-8.788986,-20.54459,5.812363,0.4085974,0.7691395999999999,-0.3436147,1.082735,-0.1404512,0.06877175,0.6722921,0.009614151,6.156498,59.08994,33.75
4,0.0209198,0.1130219,0.9933624,1.0,-0.01863098,0.0927886999999999,0.9954987,-34.95758,-9.690308,-23.75145,5.334213,0.6059372,0.8474563,1.0,0.1059113,0.1557617,0.9820862,34.849140000000006,-8.788986,-20.54459,5.812363,0.4085974,0.7691395999999999,-0.3436147,1.082735,-0.1404512,0.06877175,0.6722921,0.009614151,6.156498,59.08994,33.75
4,0.0209198,0.1130219,0.9933624,1.0,-0.01863098,0.0927886999999999,0.9954987,-34.95758,-9.690308,-23.75145,5.334213,0.6059372,0.8474563,1.0,0.1059113,0.1557617,0.9820862,34.849140000000006,-8.788986,-20.54459,5.812363,0.4085974,0.7691395999999999,-0.3436147,1.082735,-0.1404512,0.06877175,0.6722921,0.009614151,6.156498,59.08994,33.75
4,0.02642822,0.1015472,0.9944763,1.0,-0.01196289,0.07328796,0.9972382,-34.95407,-9.719177,-23.66812,5.2957,0.6046831,0.8507866,1.0,0.1030884,0.1574249,0.982132,34.8512,-8.755722,-20.56212,5.918396,0.4090285999999999,0.7680632,-0.3434572,1.082813,-0.1407592999999999,0.06821071,0.6731619000000001,0.009490525,6.156498,59.08994,33.73
4,0.02642822,0.1015472,0.9944763,1.0,-0.01196289,0.07328796,0.9972382,-34.95407,-9.719177,-23.66812,5.2957,0.6046831,0.8507866,1.0,0.1030884,0.1574249,0.982132,34.8512,-8.755722,-20.56212,5.918396,0.4090285999999999,0.7680632,-0.3434572,1.082813,-0.1407592999999999,0.06821071,0.6731619000000001,0.009490525,6.156498,59.08994,33.73
4,0.02642822,0.1015472,0.9944763,1.0,-0.01196289,0.07328796,0.9972382,-34.95407,-9.719177,-23.66812,5.2957,0.6046831,0.8507866,1.0,0.1030884,0.1574249,0.982132,34.8512,-8.755722,-20.56212,5.918396,0.4090285999999999,0.7680632,-0.3434572,1.082813,-0.1407592999999999,0.06821071,0.6731619000000001,0.009490525,6.156498,59.08994,33.73
4,0.07713318,0.1533507999999999,0.9851532,1.0,-0.01739502,0.1290741,0.9914703,-34.95552,-9.769287,-23.19563,5.740906,0.6050246,0.837922,1.0,0.10289,0.1597443,0.9817657,34.85983,-8.710175,-20.64703,5.880173,0.4087479,0.767047,-0.3433286,1.083267,-0.1412892,0.06675164,0.6744331,0.01040072,6.156498,28.40723,33.73
4,0.07713318,0.1533507999999999,0.9851532,1.0,-0.01739502,0.1290741,0.9914703,-34.95552,-9.769287,-23.19563,5.740906,0.6050246,0.837922,1.0,0.10289,0.1597443,0.9817657,34.85983,-8.710175,-20.64703,5.880173,0.4087479,0.767047,-0.3433286,1.083267,-0.1412892,0.06675164,0.6744331,0.01040072,6.156498,28.40723,33.73
4,0.07713318,0.1533507999999999,0.9851532,1.0,-0.01739502,0.1290741,0.9914703,-34.95552,-9.769287,-23.19563,5.740906,0.6050246,0.837922,1.0,0.10289,0.1597443,0.9817657,34.85983,-8.710175,-20.64703,5.880173,0.4087479,0.767047,-0.3433286,1.083267,-0.1412892,0.06675164,0.6744331,0.01040072,6.156498,28.40723,33.73
4,0.02961731,0.1114196999999999,0.9933167,1.0,-0.02067566,0.09617615,0.9951477,-34.86867,-9.828568,-22.93416,5.71582,0.6022770000000001,0.8420464,1.0,0.1020508,0.1328582999999999,0.9858551,34.936840000000004,-8.565186,-21.02975,5.925033999999999,0.4060935999999999,0.7710283,-0.3432461,1.083195,-0.1416188,0.06663127,0.675638,0.01027206,6.156498,28.40723,33.73
4,0.02961731,0.1114196999999999,0.9933167,1.0,-0.02067566,0.09617615,0.9951477,-34.86867,-9.828568,-22.93416,5.71582,0.6022770000000001,0.8420464,1.0,0.1020508,0.1328582999999999,0.9858551,34.936840000000004,-8.565186,-21.02975,5.925033999999999,0.4060935999999999,0.7710283,-0.3432461,1.083195,-0.1416188,0.06663127,0.675638,0.01027206,6.156498,28.40723,33.73
4,0.02961731,0.1114196999999999,0.9933167,1.0,-0.02067566,0.09617615,0.9951477,-34.86867,-9.828568,-22.93416,5.71582,0.6022770000000001,0.8420464,1.0,0.1020508,0.1328582999999999,0.9858551,34.936840000000004,-8.565186,-21.02975,5.925033999999999,0.4060935999999999,0.7710283,-0.3432461,1.083195,-0.1416188,0.06663127,0.675638,0.01027206,6.156498,28.40723,33.73
4,-0.01008606,0.07904053,0.9968109,1.0,-0.01008606,0.07904053,0.9968109,-34.929840000000006,-10.15105,-22.71637,5.473511,0.6023512,0.8529120000000001,1.0,0.07035828,0.1174011,0.9905853,35.0876,-7.309525,-24.45035,5.652069,0.4041475,0.7699083000000001,-0.3431681,1.083113,-0.1420428,0.06653163,0.6766976,0.01012779,6.156498,28.40723,33.73
4,-0.01008606,0.07904053,0.9968109,1.0,-0.01008606,0.07904053,0.9968109,-34.929840000000006,-10.15105,-22.71637,5.473511,0.6023512,0.8529120000000001,1.0,0.07035828,0.1174011,0.9905853,35.0876,-7.309525,-24.45035,5.652069,0.4041475,0.7699083000000001,-0.3431681,1.083113,-0.1420428,0.06653163,0.6766976,0.01012779,6.156498,28.40723,33.73
4,-0.01008606,0.07904053,0.9968109,1.0,-0.01008606,0.07904053,0.9968109,-34.929840000000006,-10.15105,-22.71637,5.473511,0.6023512,0.8529120000000001,1.0,0.07035828,0.1174011,0.9905853,35.0876,-7.309525,-24.45035,5.652069,0.4041475,0.7699083000000001,-0.3431681,1.083113,-0.1420428,0.06653163,0.6766976,0.01012779,6.156498,28.40723,33.73
4,-1.0,-1.0,-1.0,0.0,0.0,0.0,0.0,-34.66698,-10.34007,-22.00026,-1.0,0.6046175,0.8563924,0.0,0.0,0.0,0.0,35.24149,-4.074051,-33.63695,-1.0,0.4051861,0.7990997,-0.3430254,1.083338,-0.1426369999999999,0.06553465,0.6782912,0.01037059,6.156498,28.40723,33.73
4,-1.0,-1.0,-1.0,0.0,0.0,0.0,0.0,-34.66698,-10.34007,-22.00026,-1.0,0.6046175,0.8563924,0.0,0.0,0.0,0.0,35.24149,-4.074051,-33.63695,-1.0,0.4051861,0.7990997,-0.3430254,1.083338,-0.1426369999999999,0.06553465,0.6782912,0.01037059,6.156498,28.40723,33.73
4,-1.0,-1.0,-1.0,0.0,0.0,0.0,0.0,-34.66698,-10.34007,-22.00026,-1.0,0.6046175,0.8563924,0.0,0.0,0.0,0.0,35.24149,-4.074051,-33.63695,-1.0,0.4051861,0.7990997,-0.3430254,1.083338,-0.1426369999999999,0.06553465,0.6782912,0.01037059,6.156498,28.40723,33.73
4,-1.0,-1.0,-1.0,0.0,0.0,0.0,0.0,-34.857440000000004,-11.06906,-23.59807,-1.0,-1.0,-1.0,0.0,0.0,0.0,0.0,34.572109999999995,-10.02716,-21.91405,-1.0,-1.0,-1.0,-0.3430208,1.083528,-0.1433828,0.06424819,0.6803343000000001,0.01026988,6.156498,28.40723,33.73
4,-1.0,-1.0,-1.0,0.0,0.0,0.0,0.0,-34.857440000000004,-11.06906,-23.59807,-1.0,-1.0,-1.0,0.0,0.0,0.0,0.0,34.572109999999995,-10.02716,-21.91405,-1.0,-1.0,-1.0,-0.3430208,1.083528,-0.1433828,0.06424819,0.6803343000000001,0.01026988,6.156498,28.40723,33.73
4,-1.0,-1.0,-1.0,0.0,0.0,0.0,0.0,-34.857440000000004,-11.06906,-23.59807,-1.0,-1.0,-1.0,0.0,0.0,0.0,0.0,34.572109999999995,-10.02716,-21.91405,-1.0,-1.0,-1.0,-0.3430208,1.083528,-0.1433828,0.06424819,0.6803343000000001,0.01026988,6.156498,28.40723,33.73
4,-1.0,-1.0,-1.0,0.0,0.0,0.0,0.0,-35.44403,-8.82373,-23.63239,-1.0,0.6436966,0.8035368,0.0,0.0,0.0,0.0,34.16217,-6.839005,-22.00406,-1.0,0.440445,0.7382041,-0.3429997,1.083794,-0.144139,0.0632793,0.6821071999999999,0.01057583,6.156498,28.40723,33.73
4,-1.0,-1.0,-1.0,0.0,0.0,0.0,0.0,-35.44403,-8.82373,-23.63239,-1.0,0.6436966,0.8035368,0.0,0.0,0.0,0.0,34.16217,-6.839005,-22.00406,-1.0,0.440445,0.7382041,-0.3429997,1.083794,-0.144139,0.0632793,0.6821071999999999,0.01057583,6.156498,28.40723,33.73
4,-1.0,-1.0,-1.0,0.0,0.0,0.0,0.0,-35.44403,-8.82373,-23.63239,-1.0,0.6436966,0.8035368,0.0,0.0,0.0,0.0,34.16217,-6.839005,-22.00406,-1.0,0.440445,0.7382041,-0.3429997,1.083794,-0.144139,0.0632793,0.6821071999999999,0.01057583,6.156498,28.40723,33.73
4,-1.0,-1.0,-1.0,0.0,0.0,0.0,0.0,-35.3942,-8.927734,-23.63815,-1.0,0.6412988000000001,0.8028374,0.4044237,0.0,0.0,0.0,34.22252,-7.155258,-21.90721,-1.0,0.4437045999999999,0.7236096,-0.3429960999999999,1.083964,-0.1448691,0.06178856,0.6842585999999999,0.01033208,6.156498,-49.67178,33.73
4,-1.0,-1.0,-1.0,0.0,0.0,0.0,0.0,-35.3942,-8.927734,-23.63815,-1.0,0.6412988000000001,0.8028374,0.4044237,0.0,0.0,0.0,34.22252,-7.155258,-21.90721,-1.0,0.4437045999999999,0.7236096,-0.3429960999999999,1.083964,-0.1448691,0.06178856,0.6842585999999999,0.01033208,6.156498,-49.67178,33.73
4,-1.0,-1.0,-1.0,0.0,0.0,0.0,0.0,-35.3942,-8.927734,-23.63815,-1.0,0.6412988000000001,0.8028374,0.4044237,0.0,0.0,0.0,34.22252,-7.155258,-21.90721,-1.0,0.4437045999999999,0.7236096,-0.3429960999999999,1.083964,-0.1448691,0.06178856,0.6842585999999999,0.01033208,6.156498,-49.67178,33.73
4,-0.1110535,0.225647,0.9678497,0.3889573,-0.1110535,0.225647,0.9678497,-35.44618,-8.957718,-23.69185,5.784439,0.6370234,0.7999166999999999,0.807796,0.01008606,0.2318877999999999,0.9726868,34.27541,-7.229813,-21.94153,5.951721,0.4430404999999999,0.7206225,-0.3431313,1.084199,-0.1456672999999999,0.06026362,0.6866382,0.01013588,6.156498,-49.67178,33.73
4,-0.1110535,0.225647,0.9678497,0.3889573,-0.1110535,0.225647,0.9678497,-35.44618,-8.957718,-23.69185,5.784439,0.6370234,0.7999166999999999,0.807796,0.01008606,0.2318877999999999,0.9726868,34.27541,-7.229813,-21.94153,5.951721,0.4430404999999999,0.7206225,-0.3431313,1.084199,-0.1456672999999999,0.06026362,0.6866382,0.01013588,6.156498,-49.67178,33.73
4,-0.1110535,0.225647,0.9678497,0.3889573,-0.1110535,0.225647,0.9678497,-35.44618,-8.957718,-23.69185,5.784439,0.6370234,0.7999166999999999,0.807796,0.01008606,0.2318877999999999,0.9726868,34.27541,-7.229813,-21.94153,5.951721,0.4430404999999999,0.7206225,-0.3431313,1.084199,-0.1456672999999999,0.06026362,0.6866382,0.01013588,6.156498,-49.67178,33.73
4,-0.1110535,0.225647,0.9678497,0.3889573,-0.1110535,0.225647,0.9678497,-35.44618,-8.957718,-23.69185,5.784439,0.6370234,0.7999166999999999,0.807796,0.01008606,0.2318877999999999,0.9726868,34.27541,-7.229813,-21.94153,5.951721,0.4430404999999999,0.7206225,-0.3432667,1.084495,-0.1464114,0.05917307,0.6882896,0.01080822,6.156498,-49.67178,33.73
4,-0.1110535,0.225647,0.9678497,0.3889573,-0.1110535,0.225647,0.9678497,-35.44618,-8.957718,-23.69185,5.784439,0.6370234,0.7999166999999999,0.807796,0.01008606,0.2318877999999999,0.9726868,34.27541,-7.229813,-21.94153,5.951721,0.4430404999999999,0.7206225,-0.3432667,1.084495,-0.1464114,0.05917307,0.6882896,0.01080822,6.156498,-49.67178,33.73
4,-0.1110535,0.225647,0.9678497,0.3889573,-0.1110535,0.225647,0.9678497,-35.44618,-8.957718,-23.69185,5.784439,0.6370234,0.7999166999999999,0.807796,0.01008606,0.2318877999999999,0.9726868,34.27541,-7.229813,-21.94153,5.951721,0.4430404999999999,0.7206225,-0.3432667,1.084495,-0.1464114,0.05917307,0.6882896,0.01080822,6.156498,-49.67178,33.73
