Second,eye_comb_direction_x,eye_comb_direction_y,eye_comb_direction_z,eye_r_openness,eye_r_direction_x,eye_r_direction_y,eye_r_direction_z,eye_r_origin_x,eye_r_origin_y,eye_r_origin_z,eye_r_pupil_diameter,eye_r_pupil_position_x,eye_r_pupil_position_y,eye_l_openness,eye_l_direction_x,eye_l_direction_y,eye_l_direction_z,eye_l_origin_x,eye_l_origin_y,eye_l_origin_z,eye_l_pupil_diameter,eye_l_pupil_position_x,eye_l_pupil_position_y,head_position_x,head_position_y,head_position_z,head_rotation_roll,head_rotation_pitch,head_rotation_yaw,EDA,BVP,TMP
0,-0.1819,-0.09761047,0.9784546,0.876868,-0.1827087,-0.09797668,0.9782562,-30.77403,3.856262,-28.6824,4.340164,0.5045683,0.4752709,0.8502816999999999,-0.03152466,-0.02970886,0.999054,34.386959999999995,4.79512,-28.48991,5.037018,0.4442297,0.4208857,0.08656645,1.323001,-0.1941666,-0.02977728,0.6016155,-0.006928498,1.811264,-0.15496915176100653,31.104611320754717
0,-0.1819,-0.09761047,0.9784546,0.876868,-0.1827087,-0.09797668,0.9782562,-30.77403,3.856262,-28.6824,4.340164,0.5045683,0.4752709,0.8502816999999999,-0.03152466,-0.02970886,0.999054,34.386959999999995,4.79512,-28.48991,5.037018,0.4442297,0.4208857,0.08656645,1.323001,-0.1941666,-0.02977728,0.6016155,-0.006928498,1.811264,-0.15496915176100653,31.104611320754717
0,-0.1819,-0.09761047,0.9784546,0.876868,-0.1827087,-0.09797668,0.9782562,-30.77403,3.856262,-28.6824,4.340164,0.5045683,0.4752709,0.8502816999999999,-0.03152466,-0.02970886,0.999054,34.386959999999995,4.79512,-28.48991,5.037018,0.4442297,0.4208857,0.08656645,1.323001,-0.1941666,-0.02977728,0.6016155,-0.006928498,1.811264,-0.15496915176100653,31.104611320754717
0,-0.1709595,-0.08633423,0.9814758,0.8861626,-0.1821899,-0.09091187,0.9790344,-30.78165,3.825714,-28.65466,4.342865,0.5047560999999999,0.4752354,0.8502360000000001,-0.02471924,-0.02659607,0.9993286,34.360240000000005,4.810654,-28.60274,5.031723,0.4442956,0.4208857,0.0861299,1.323588,-0.1927977,-0.02941603,0.6012944,-0.005426983,1.811264,-0.15496915176100653,31.104611320754717
0,-0.1709595,-0.08633423,0.9814758,0.8861626,-0.1821899,-0.09091187,0.9790344,-30.78165,3.825714,-28.65466,4.342865,0.5047560999999999,0.4752354,0.8502360000000001,-0.02471924,-0.02659607,0.9993286,34.360240000000005,4.810654,-28.60274,5.031723,0.4442956,0.4208857,0.0861299,1.323588,-0.1927977,-0.02941603,0.6012944,-0.005426983,1.811264,-0.15496915176100653,31.104611320754717
0,-0.1709595,-0.08633423,0.9814758,0.8861626,-0.1821899,-0.09091187,0.9790344,-30.78165,3.825714,-28.65466,4.342865,0.5047560999999999,0.4752354,0.8502360000000001,-0.02471924,-0.02659607,0.9993286,34.360240000000005,4.810654,-28.60274,5.031723,0.4442956,0.4208857,0.0861299,1.323588,-0.1927977,-0.02941603,0.6012944,-0.005426983,1.811264,-0.15496915176100653,31.104611320754717
0,-0.1611632999999999,-0.07780457,0.9838409,0.8843844999999999,-0.1824799,-0.08509827,0.9795074,-30.78696,3.804718,-28.59657,4.344727,0.5049515,0.474763,0.8539959999999999,-0.02462769,-0.03076172,0.9992218,34.36052,4.810776000000001,-28.61188,5.036362,0.4442627,0.4214340999999999,0.08551073,1.32419,-0.1924899,-0.02907529,0.6037906,-0.00375453,1.811264,-0.15496915176100653,31.104611320754717
0,-0.1611632999999999,-0.07780457,0.9838409,0.8843844999999999,-0.1824799,-0.08509827,0.9795074,-30.78696,3.804718,-28.59657,4.344727,0.5049515,0.474763,0.8539959999999999,-0.02462769,-0.03076172,0.9992218,34.36052,4.810776000000001,-28.61188,5.036362,0.4442627,0.4214340999999999,0.08551073,1.32419,-0.1924899,-0.02907529,0.6037906,-0.00375453,1.811264,-0.15496915176100653,31.104611320754717
0,-0.1611632999999999,-0.07780457,0.9838409,0.8843844999999999,-0.1824799,-0.08509827,0.9795074,-30.78696,3.804718,-28.59657,4.344727,0.5049515,0.474763,0.8539959999999999,-0.02462769,-0.03076172,0.9992218,34.36052,4.810776000000001,-28.61188,5.036362,0.4442627,0.4214340999999999,0.08551073,1.32419,-0.1924899,-0.02907529,0.6037906,-0.00375453,1.811264,-0.15496915176100653,31.104611320754717
0,-0.1611632999999999,-0.07780457,0.9838409,0.8843844999999999,-0.1824799,-0.08509827,0.9795074,-30.78696,3.804718,-28.59657,4.344727,0.5049515,0.474763,0.8539959999999999,-0.02462769,-0.03076172,0.9992218,34.36052,4.810776000000001,-28.61188,5.036362,0.4442627,0.4214340999999999,0.08464837,1.325468,-0.1935353,-0.0290584999999999,0.6116902,0.002195569,1.811264,-0.15496915176100653,31.104611320754717
0,-0.1611632999999999,-0.07780457,0.9838409,0.8843844999999999,-0.1824799,-0.08509827,0.9795074,-30.78696,3.804718,-28.59657,4.344727,0.5049515,0.474763,0.8539959999999999,-0.02462769,-0.03076172,0.9992218,34.36052,4.810776000000001,-28.61188,5.036362,0.4442627,0.4214340999999999,0.08464837,1.325468,-0.1935353,-0.0290584999999999,0.6116902,0.002195569,1.811264,-0.15496915176100653,31.104611320754717
0,-0.1611632999999999,-0.07780457,0.9838409,0.8843844999999999,-0.1824799,-0.08509827,0.9795074,-30.78696,3.804718,-28.59657,4.344727,0.5049515,0.474763,0.8539959999999999,-0.02462769,-0.03076172,0.9992218,34.36052,4.810776000000001,-28.61188,5.036362,0.4442627,0.4214340999999999,0.08464837,1.325468,-0.1935353,-0.0290584999999999,0.6116902,0.002195569,1.811264,-0.15496915176100653,31.104611320754717
0,-0.1387177,-0.09118652,0.9861145,0.8912356,-0.180542,-0.113327,0.977005,-30.98279,3.897675,-28.72777,4.246964,0.511434,0.4760661,0.8536351000000001,-0.02294922,-0.0296935999999999,0.9992828,34.20663,4.865433,-28.60547,5.211166,0.4490951,0.4195455,0.08366513,1.326514,-0.1949648,-0.02894354,0.6202819,0.006040939,1.811264,-0.15496915176100653,31.104611320754717
0,-0.1387177,-0.09118652,0.9861145,0.8912356,-0.180542,-0.113327,0.977005,-30.98279,3.897675,-28.72777,4.246964,0.511434,0.4760661,0.8536351000000001,-0.02294922,-0.0296935999999999,0.9992828,34.20663,4.865433,-28.60547,5.211166,0.4490951,0.4195455,0.08366513,1.326514,-0.1949648,-0.02894354,0.6202819,0.006040939,1.811264,-0.15496915176100653,31.104611320754717
0,-0.1387177,-0.09118652,0.9861145,0.8912356,-0.180542,-0.113327,0.977005,-30.98279,3.897675,-28.72777,4.246964,0.511434,0.4760661,0.8536351000000001,-0.02294922,-0.0296935999999999,0.9992828,34.20663,4.865433,-28.60547,5.211166,0.4490951,0.4195455,0.08366513,1.326514,-0.1949648,-0.02894354,0.6202819,0.006040939,1.811264,-0.15496915176100653,31.104611320754717
0,-0.1611023,-0.06506348,0.984787,0.9136806,-0.1611023,-0.06506348,0.984787,-31.02551,3.887787,-28.95221,4.377899,0.5107363,0.4725962999999999,0.8540110000000001,-0.006530762,-0.02244568,0.9997253,34.1884,4.992889,-29.07411,5.235046,0.4475789,0.4181092999999999,0.08119416,1.328276,-0.1974517999999999,-0.03012417,0.6337066,0.01157868,1.811264,-0.15496915176100653,31.104611320754717
0,-0.1611023,-0.06506348,0.984787,0.9136806,-0.1611023,-0.06506348,0.984787,-31.02551,3.887787,-28.95221,4.377899,0.5107363,0.4725962999999999,0.8540110000000001,-0.006530762,-0.02244568,0.9997253,34.1884,4.992889,-29.07411,5.235046,0.4475789,0.4181092999999999,0.08119416,1.328276,-0.1974517999999999,-0.03012417,0.6337066,0.01157868,1.811264,-0.15496915176100653,31.104611320754717
0,-0.1611023,-0.06506348,0.984787,0.9136806,-0.1611023,-0.06506348,0.984787,-31.02551,3.887787,-28.95221,4.377899,0.5107363,0.4725962999999999,0.8540110000000001,-0.006530762,-0.02244568,0.9997253,34.1884,4.992889,-29.07411,5.235046,0.4475789,0.4181092999999999,0.08119416,1.328276,-0.1974517999999999,-0.03012417,0.6337066,0.01157868,1.811264,-0.15496915176100653,31.104611320754717
0,-0.1544647,-0.09745789,0.9831696,0.9151813,-0.1544647,-0.09745789,0.9831696,-30.89932,3.798416000000001,-28.73976,4.257111,0.5054814999999999,0.4775412999999999,0.8527455,0.0075378419999999,-0.0302887,0.9995117,34.225570000000005,4.992889,-29.07411,5.141754,0.4447924,0.4189132,0.07776618,1.330036,-0.1996769,-0.03131954,0.6424635999999999,0.01658001,1.811264,-0.15496915176100653,31.104611320754717
0,-0.1544647,-0.09745789,0.9831696,0.9151813,-0.1544647,-0.09745789,0.9831696,-30.89932,3.798416000000001,-28.73976,4.257111,0.5054814999999999,0.4775412999999999,0.8527455,0.0075378419999999,-0.0302887,0.9995117,34.225570000000005,4.992889,-29.07411,5.141754,0.4447924,0.4189132,0.07776618,1.330036,-0.1996769,-0.03131954,0.6424635999999999,0.01658001,1.811264,-0.15496915176100653,31.104611320754717
0,-0.1544647,-0.09745789,0.9831696,0.9151813,-0.1544647,-0.09745789,0.9831696,-30.89932,3.798416000000001,-28.73976,4.257111,0.5054814999999999,0.4775412999999999,0.8527455,0.0075378419999999,-0.0302887,0.9995117,34.225570000000005,4.992889,-29.07411,5.141754,0.4447924,0.4189132,0.07776618,1.330036,-0.1996769,-0.03131954,0.6424635999999999,0.01658001,1.811264,-0.15496915176100653,31.104611320754717
0,-0.1544647,-0.09745789,0.9831696,0.9151813,-0.1544647,-0.09745789,0.9831696,-30.89932,3.798416000000001,-28.73976,4.257111,0.5054814999999999,0.4775412999999999,0.8527455,0.0075378419999999,-0.0302887,0.9995117,34.225570000000005,4.992889,-29.07411,5.141754,0.4447924,0.4189132,0.07506204,1.330946,-0.2009292999999999,-0.03213836,0.6464057,0.0184867,1.811264,137.1565,31.104611320754717
0,-0.1544647,-0.09745789,0.9831696,0.9151813,-0.1544647,-0.09745789,0.9831696,-30.89932,3.798416000000001,-28.73976,4.257111,0.5054814999999999,0.4775412999999999,0.8527455,0.0075378419999999,-0.0302887,0.9995117,34.225570000000005,4.992889,-29.07411,5.141754,0.4447924,0.4189132,0.07506204,1.330946,-0.2009292999999999,-0.03213836,0.6464057,0.0184867,1.811264,164.6286,31.104611320754717
0,-0.1544647,-0.09745789,0.9831696,0.9151813,-0.1544647,-0.09745789,0.9831696,-30.89932,3.798416000000001,-28.73976,4.257111,0.5054814999999999,0.4775412999999999,0.8527455,0.0075378419999999,-0.0302887,0.9995117,34.225570000000005,4.992889,-29.07411,5.141754,0.4447924,0.4189132,0.07506204,1.330946,-0.2009292999999999,-0.03213836,0.6464057,0.0184867,1.811264,164.6286,31.104611320754717
0,-0.1378783999999999,-0.05381775,0.9889832,0.9151813,-0.1378783999999999,-0.05381775,0.9889832,-30.81973,3.73085,-28.51074,4.563797,0.5008912999999999,0.4728449,0.8527455,0.005065918,-0.07475281,0.9971771,34.46072,4.780823000000001,-28.49228,4.819946,0.4377235,0.4263569,0.07219672,1.331651,-0.2021177,-0.03241122,0.6498778000000001,0.01946514,1.811264,164.6286,31.104611320754717
0,-0.1378783999999999,-0.05381775,0.9889832,0.9151813,-0.1378783999999999,-0.05381775,0.9889832,-30.81973,3.73085,-28.51074,4.563797,0.5008912999999999,0.4728449,0.8527455,0.005065918,-0.07475281,0.9971771,34.46072,4.780823000000001,-28.49228,4.819946,0.4377235,0.4263569,0.07219672,1.331651,-0.2021177,-0.03241122,0.6498778000000001,0.01946514,1.811264,164.6286,31.104611320754717
0,-0.1378783999999999,-0.05381775,0.9889832,0.9151813,-0.1378783999999999,-0.05381775,0.9889832,-30.81973,3.73085,-28.51074,4.563797,0.5008912999999999,0.4728449,0.8527455,0.005065918,-0.07475281,0.9971771,34.46072,4.780823000000001,-28.49228,4.819946,0.4377235,0.4263569,0.07219672,1.331651,-0.2021177,-0.03241122,0.6498778000000001,0.01946514,1.811264,164.6286,31.104611320754717
0,-0.07392883,-0.1661072,0.9833221,0.9123857,-0.07403564,-0.1661377,0.9833069,-30.2374,3.587692,-28.301640000000003,4.160141,0.4732105,0.488747,0.850258,0.06948853,-0.1130676,0.9911499,35.0547,4.556091,-27.956090000000003,4.883789,0.4105448,0.433764,0.06805754,1.332684,-0.2039201,-0.03238604,0.6548647,0.02044978,1.811264,164.6286,31.104611320754717
0,-0.07392883,-0.1661072,0.9833221,0.9123857,-0.07403564,-0.1661377,0.9833069,-30.2374,3.587692,-28.301640000000003,4.160141,0.4732105,0.488747,0.850258,0.06948853,-0.1130676,0.9911499,35.0547,4.556091,-27.956090000000003,4.883789,0.4105448,0.433764,0.06805754,1.332684,-0.2039201,-0.03238604,0.6548647,0.02044978,1.811264,164.6286,31.104611320754717
0,-0.07392883,-0.1661072,0.9833221,0.9123857,-0.07403564,-0.1661377,0.9833069,-30.2374,3.587692,-28.301640000000003,4.160141,0.4732105,0.488747,0.850258,0.06948853,-0.1130676,0.9911499,35.0547,4.556091,-27.956090000000003,4.883789,0.4105448,0.433764,0.06805754,1.332684,-0.2039201,-0.03238604,0.6548647,0.02044978,1.811264,164.6286,31.104611320754717
0,-0.06065369,-0.1591187,0.9853821,0.8977103999999999,-0.07269287,-0.161972,0.9841003,-30.21138,3.603745,-28.41364,4.239182,0.472229,0.4886875,0.8374766,0.05865479,-0.1296387,0.9898224,35.07143,4.596939,-28.20781,4.862793,0.4110044,0.4363509,0.06538224,1.333592,-0.2051137999999999,-0.03241593,0.6579835,0.02117436,1.811264,164.6286,31.104611320754717
0,-0.06065369,-0.1591187,0.9853821,0.8977103999999999,-0.07269287,-0.161972,0.9841003,-30.21138,3.603745,-28.41364,4.239182,0.472229,0.4886875,0.8374766,0.05865479,-0.1296387,0.9898224,35.07143,4.596939,-28.20781,4.862793,0.4110044,0.4363509,0.06538224,1.333592,-0.2051137999999999,-0.03241593,0.6579835,0.02117436,1.811264,164.6286,31.104611320754717
0,-0.06065369,-0.1591187,0.9853821,0.8977103999999999,-0.07269287,-0.161972,0.9841003,-30.21138,3.603745,-28.41364,4.239182,0.472229,0.4886875,0.8374766,0.05865479,-0.1296387,0.9898224,35.07143,4.596939,-28.20781,4.862793,0.4110044,0.4363509,0.06538224,1.333592,-0.2051137999999999,-0.03241593,0.6579835,0.02117436,1.811264,164.6286,31.104611320754717
0,-0.2805634,-0.2685242,0.9214935,0.8977221,-0.2863464,-0.2722015,0.9186401,-31.01677,3.3348690000000003,-28.65868,4.247986,0.5252735,0.5148163,0.8232728000000001,-0.1185303,-0.1638336,0.9793243,33.88927,4.137909,-28.55968,5.330643,0.470329,0.4599650999999999,0.06260967,1.334265,-0.2063439,-0.03167166,0.6611778,0.0209604,1.811264,164.6286,31.104611320754717
0,-0.2805634,-0.2685242,0.9214935,0.8977221,-0.2863464,-0.2722015,0.9186401,-31.01677,3.3348690000000003,-28.65868,4.247986,0.5252735,0.5148163,0.8232728000000001,-0.1185303,-0.1638336,0.9793243,33.88927,4.137909,-28.55968,5.330643,0.470329,0.4599650999999999,0.06260967,1.334265,-0.2063439,-0.03167166,0.6611778,0.0209604,1.811264,164.6286,31.104611320754717
0,-0.2805634,-0.2685242,0.9214935,0.8977221,-0.2863464,-0.2722015,0.9186401,-31.01677,3.3348690000000003,-28.65868,4.247986,0.5252735,0.5148163,0.8232728000000001,-0.1185303,-0.1638336,0.9793243,33.88927,4.137909,-28.55968,5.330643,0.470329,0.4599650999999999,0.06260967,1.334265,-0.2063439,-0.03167166,0.6611778,0.0209604,1.811264,164.6286,31.104611320754717
0,-0.3211517,-0.2738494999999999,0.9065552,0.8081679,-0.3389435,-0.2766113,0.8992157,-31.12601,3.269073,-28.71031,4.206802,0.5354812,0.5186367000000001,0.8776618,-0.1690063,-0.2468262,0.9541931,33.6918,4.060745,-28.63666,5.052704,0.4830372,0.4735277,0.05797148,1.334689,-0.2082798,-0.02830321,0.6658039000000001,0.01869749,1.811264,164.6286,31.104611320754717
0,-0.3211517,-0.2738494999999999,0.9065552,0.8081679,-0.3389435,-0.2766113,0.8992157,-31.12601,3.269073,-28.71031,4.206802,0.5354812,0.5186367000000001,0.8776618,-0.1690063,-0.2468262,0.9541931,33.6918,4.060745,-28.63666,5.052704,0.4830372,0.4735277,0.05797148,1.334689,-0.2082798,-0.02830321,0.6658039000000001,0.01869749,1.811264,164.6286,31.104611320754717
0,-0.3211517,-0.2738494999999999,0.9065552,0.8081679,-0.3389435,-0.2766113,0.8992157,-31.12601,3.269073,-28.71031,4.206802,0.5354812,0.5186367000000001,0.8776618,-0.1690063,-0.2468262,0.9541931,33.6918,4.060745,-28.63666,5.052704,0.4830372,0.4735277,0.05797148,1.334689,-0.2082798,-0.02830321,0.6658039000000001,0.01869749,1.811264,164.6286,31.104611320754717
0,-0.3211517,-0.2738494999999999,0.9065552,0.8081679,-0.3389435,-0.2766113,0.8992157,-31.12601,3.269073,-28.71031,4.206802,0.5354812,0.5186367000000001,0.8776618,-0.1690063,-0.2468262,0.9541931,33.6918,4.060745,-28.63666,5.052704,0.4830372,0.4735277,0.05474997,1.335056,-0.209488,-0.02594633,0.6684355,0.01781035,1.811264,164.6286,31.104611320754717
0,-0.3211517,-0.2738494999999999,0.9065552,0.8081679,-0.3389435,-0.2766113,0.8992157,-31.12601,3.269073,-28.71031,4.206802,0.5354812,0.5186367000000001,0.8776618,-0.1690063,-0.2468262,0.9541931,33.6918,4.060745,-28.63666,5.052704,0.4830372,0.4735277,0.05474997,1.335056,-0.209488,-0.02594633,0.6684355,0.01781035,1.811264,164.6286,31.104611320754717
0,-0.3211517,-0.2738494999999999,0.9065552,0.8081679,-0.3389435,-0.2766113,0.8992157,-31.12601,3.269073,-28.71031,4.206802,0.5354812,0.5186367000000001,0.8776618,-0.1690063,-0.2468262,0.9541931,33.6918,4.060745,-28.63666,5.052704,0.4830372,0.4735277,0.05474997,1.335056,-0.209488,-0.02594633,0.6684355,0.01781035,1.811264,164.6286,31.104611320754717
0,-0.3211517,-0.2738494999999999,0.9065552,0.8081679,-0.3389435,-0.2766113,0.8992157,-31.12601,3.269073,-28.71031,4.206802,0.5354812,0.5186367000000001,0.8776618,-0.1690063,-0.2468262,0.9541931,33.6918,4.060745,-28.63666,5.052704,0.4830372,0.4735277,0.05157256,1.335924,-0.2105304999999999,-0.0256367999999999,0.6705741999999999,0.01801809,1.811264,164.6286,31.104611320754717
0,-0.3211517,-0.2738494999999999,0.9065552,0.8081679,-0.3389435,-0.2766113,0.8992157,-31.12601,3.269073,-28.71031,4.206802,0.5354812,0.5186367000000001,0.8776618,-0.1690063,-0.2468262,0.9541931,33.6918,4.060745,-28.63666,5.052704,0.4830372,0.4735277,0.05157256,1.335924,-0.2105304999999999,-0.0256367999999999,0.6705741999999999,0.01801809,1.811264,164.0266,31.104611320754717
0,-0.3211517,-0.2738494999999999,0.9065552,0.8081679,-0.3389435,-0.2766113,0.8992157,-31.12601,3.269073,-28.71031,4.206802,0.5354812,0.5186367000000001,0.8776618,-0.1690063,-0.2468262,0.9541931,33.6918,4.060745,-28.63666,5.052704,0.4830372,0.4735277,0.05157256,1.335924,-0.2105304999999999,-0.0256367999999999,0.6705741999999999,0.01801809,1.811264,164.0266,31.104611320754717
0,-0.22229,-0.3071289,0.9253235,0.8167978,-0.2714844,-0.3429718,0.8992462,-31.14261,3.252487,-28.675890000000003,3.637909,0.5277953000000001,0.5268076,0.8967594999999999,-0.1512451,-0.2542725,0.9552155,33.80702,4.039322,-28.60381,4.980713,0.4771979999999999,0.4747126,0.04815292,1.336931,-0.2115447999999999,-0.0271969,0.6726812,0.01833718,1.811264,-6.429474,31.104611320754717
0,-0.22229,-0.3071289,0.9253235,0.8167978,-0.2714844,-0.3429718,0.8992462,-31.14261,3.252487,-28.675890000000003,3.637909,0.5277953000000001,0.5268076,0.8967594999999999,-0.1512451,-0.2542725,0.9552155,33.80702,4.039322,-28.60381,4.980713,0.4771979999999999,0.4747126,0.04815292,1.336931,-0.2115447999999999,-0.0271969,0.6726812,0.01833718,1.811264,-6.429474,31.104611320754717
0,-0.22229,-0.3071289,0.9253235,0.8167978,-0.2714844,-0.3429718,0.8992462,-31.14261,3.252487,-28.675890000000003,3.637909,0.5277953000000001,0.5268076,0.8967594999999999,-0.1512451,-0.2542725,0.9552155,33.80702,4.039322,-28.60381,4.980713,0.4771979999999999,0.4747126,0.04815292,1.336931,-0.2115447999999999,-0.0271969,0.6726812,0.01833718,1.811264,-6.429474,31.104611320754717
0,-0.2211913999999999,-0.2874145999999999,0.9319,0.8118941,-0.2891998,-0.3461914,0.8924713,-31.11122,3.3009800000000005,-28.67468,3.618027,0.5289264,0.5257326,0.8796684000000001,-0.1584015,-0.2323607999999999,0.9596405,33.85889,4.090454,-28.599870000000003,4.832611,0.4764909,0.4703062,0.0430069,1.338392,-0.2127828999999999,-0.02937662,0.6758689999999999,0.01838932,1.811264,-6.429474,31.104611320754717
0,-0.2211913999999999,-0.2874145999999999,0.9319,0.8118941,-0.2891998,-0.3461914,0.8924713,-31.11122,3.3009800000000005,-28.67468,3.618027,0.5289264,0.5257326,0.8796684000000001,-0.1584015,-0.2323607999999999,0.9596405,33.85889,4.090454,-28.599870000000003,4.832611,0.4764909,0.4703062,0.0430069,1.338392,-0.2127828999999999,-0.02937662,0.6758689999999999,0.01838932,1.811264,-6.429474,31.104611320754717
0,-0.2211913999999999,-0.2874145999999999,0.9319,0.8118941,-0.2891998,-0.3461914,0.8924713,-31.11122,3.3009800000000005,-28.67468,3.618027,0.5289264,0.5257326,0.8796684000000001,-0.1584015,-0.2323607999999999,0.9596405,33.85889,4.090454,-28.599870000000003,4.832611,0.4764909,0.4703062,0.0430069,1.338392,-0.2127828999999999,-0.02937662,0.6758689999999999,0.01838932,1.811264,-6.429474,31.104611320754717
0,-0.2211913999999999,-0.2874145999999999,0.9319,0.8118941,-0.2891998,-0.3461914,0.8924713,-31.11122,3.3009800000000005,-28.67468,3.618027,0.5289264,0.5257326,0.8796684000000001,-0.1584015,-0.2323607999999999,0.9596405,33.85889,4.090454,-28.599870000000003,4.832611,0.4764909,0.4703062,0.03933191,1.339107,-0.2136433999999999,-0.02939652,0.6773366,0.01833637,1.811264,-6.429474,31.104611320754717
0,-0.2211913999999999,-0.2874145999999999,0.9319,0.8118941,-0.2891998,-0.3461914,0.8924713,-31.11122,3.3009800000000005,-28.67468,3.618027,0.5289264,0.5257326,0.8796684000000001,-0.1584015,-0.2323607999999999,0.9596405,33.85889,4.090454,-28.599870000000003,4.832611,0.4764909,0.4703062,0.03933191,1.339107,-0.2136433999999999,-0.02939652,0.6773366,0.01833637,1.811264,-6.429474,31.104611320754717
0,-0.2211913999999999,-0.2874145999999999,0.9319,0.8118941,-0.2891998,-0.3461914,0.8924713,-31.11122,3.3009800000000005,-28.67468,3.618027,0.5289264,0.5257326,0.8796684000000001,-0.1584015,-0.2323607999999999,0.9596405,33.85889,4.090454,-28.599870000000003,4.832611,0.4764909,0.4703062,0.03933191,1.339107,-0.2136433999999999,-0.02939652,0.6773366,0.01833637,1.811264,-6.429474,31.104611320754717
0,-0.2085418999999999,-0.265625,0.9412384,0.8118941,-0.2921295,-0.3400116,0.8938904000000001,-31.10782,3.2997440000000005,-28.67619,3.730576,0.5291683,0.5249884,0.8796684000000001,-0.1546936,-0.2170868,0.9638062,33.871990000000004,4.091675,-28.59576,4.949066,0.4754742999999999,0.4683510999999999,0.03553391,1.3397,-0.2145076,-0.02811144,0.6781523,0.01808001,1.811264,-6.429474,31.104611320754717
0,-0.2085418999999999,-0.265625,0.9412384,0.8118941,-0.2921295,-0.3400116,0.8938904000000001,-31.10782,3.2997440000000005,-28.67619,3.730576,0.5291683,0.5249884,0.8796684000000001,-0.1546936,-0.2170868,0.9638062,33.871990000000004,4.091675,-28.59576,4.949066,0.4754742999999999,0.4683510999999999,0.03553391,1.3397,-0.2145076,-0.02811144,0.6781523,0.01808001,1.811264,-6.429474,31.104611320754717
0,-0.2085418999999999,-0.265625,0.9412384,0.8118941,-0.2921295,-0.3400116,0.8938904000000001,-31.10782,3.2997440000000005,-28.67619,3.730576,0.5291683,0.5249884,0.8796684000000001,-0.1546936,-0.2170868,0.9638062,33.871990000000004,4.091675,-28.59576,4.949066,0.4754742999999999,0.4683510999999999,0.03553391,1.3397,-0.2145076,-0.02811144,0.6781523,0.01808001,1.811264,-6.429474,31.104611320754717
0,-0.1714935,-0.2725525,0.9467163,0.7818449000000001,-0.2592773,-0.3209229,0.9109192,-31.03609,3.192245,-28.66316,3.652023,0.5225989999999999,0.5257426,0.8778222,-0.1072998,-0.2359467,0.9658203000000002,34.02686,3.951477,-28.59442,4.618668,0.4651734,0.4749402,0.02987957,1.340685,-0.2156506,-0.02533878,0.6784895000000001,0.01733936,1.811264,-6.429474,31.104611320754717
0,-0.1714935,-0.2725525,0.9467163,0.7818449000000001,-0.2592773,-0.3209229,0.9109192,-31.03609,3.192245,-28.66316,3.652023,0.5225989999999999,0.5257426,0.8778222,-0.1072998,-0.2359467,0.9658203000000002,34.02686,3.951477,-28.59442,4.618668,0.4651734,0.4749402,0.02987957,1.340685,-0.2156506,-0.02533878,0.6784895000000001,0.01733936,1.811264,-6.429474,31.104611320754717
0,-0.1714935,-0.2725525,0.9467163,0.7818449000000001,-0.2592773,-0.3209229,0.9109192,-31.03609,3.192245,-28.66316,3.652023,0.5225989999999999,0.5257426,0.8778222,-0.1072998,-0.2359467,0.9658203000000002,34.02686,3.951477,-28.59442,4.618668,0.4651734,0.4749402,0.02987957,1.340685,-0.2156506,-0.02533878,0.6784895000000001,0.01733936,1.811264,-6.429474,31.104611320754717
0,-0.1669158999999999,-0.2558899,0.952179,0.7949016,-0.2649384,-0.3170624,0.9106293,-30.9857,3.202118,-28.65962,3.653702,0.5215666,0.5249105,0.8786821,-0.09138489,-0.2072601,0.973999,33.999759999999995,3.897873,-28.5824,4.559357,0.4643435,0.4730508,0.02067113,1.343033,-0.2176607999999999,-0.02564392,0.678766,0.01734967,1.811264,-137.7097,31.104611320754717
0,-0.1669158999999999,-0.2558899,0.952179,0.7949016,-0.2649384,-0.3170624,0.9106293,-30.9857,3.202118,-28.65962,3.653702,0.5215666,0.5249105,0.8786821,-0.09138489,-0.2072601,0.973999,33.999759999999995,3.897873,-28.5824,4.559357,0.4643435,0.4730508,0.02067113,1.343033,-0.2176607999999999,-0.02564392,0.678766,0.01734967,1.811264,-137.7097,31.104611320754717
0,-0.1669158999999999,-0.2558899,0.952179,0.7949016,-0.2649384,-0.3170624,0.9106293,-30.9857,3.202118,-28.65962,3.653702,0.5215666,0.5249105,0.8786821,-0.09138489,-0.2072601,0.973999,33.999759999999995,3.897873,-28.5824,4.559357,0.4643435,0.4730508,0.02067113,1.343033,-0.2176607999999999,-0.02564392,0.678766,0.01734967,1.811264,-137.7097,31.104611320754717
1,-0.1629943999999999,-0.2402496,0.9569244,0.7821281999999999,-0.2587433,-0.3127136,0.9139099,-30.98665,3.211624,-28.65594,3.636902,0.5208295999999999,0.5239311,0.8712976,-0.0901947,-0.1839142,0.9787903,33.984770000000005,3.897034,-28.56505,4.538635,0.4647629,0.4701014,0.01501727,1.344567,-0.2189472,-0.02610393,0.6777585999999999,0.01732237,1.811264,-137.7097,31.104611320754717
1,-0.1629943999999999,-0.2402496,0.9569244,0.7821281999999999,-0.2587433,-0.3127136,0.9139099,-30.98665,3.211624,-28.65594,3.636902,0.5208295999999999,0.5239311,0.8712976,-0.0901947,-0.1839142,0.9787903,33.984770000000005,3.897034,-28.56505,4.538635,0.4647629,0.4701014,0.01501727,1.344567,-0.2189472,-0.02610393,0.6777585999999999,0.01732237,1.811264,-137.7097,31.104611320754717
1,-0.1629943999999999,-0.2402496,0.9569244,0.7821281999999999,-0.2587433,-0.3127136,0.9139099,-30.98665,3.211624,-28.65594,3.636902,0.5208295999999999,0.5239311,0.8712976,-0.0901947,-0.1839142,0.9787903,33.984770000000005,3.897034,-28.56505,4.538635,0.4647629,0.4701014,0.01501727,1.344567,-0.2189472,-0.02610393,0.6777585999999999,0.01732237,1.811264,-137.7097,31.104611320754717
1,-0.03245544,-0.2922668,0.95578,0.7822238,-0.1273499,-0.3139343,0.9408569,-30.31628,2.989136,-28.58913,3.478073,0.4817419,0.5301408000000001,0.8730548,0.0355071999999999,-0.2750549,0.9607544,34.64658,3.841248,-28.50137,4.226349,0.4280617999999999,0.4818228,0.009271383,1.345815,-0.2201284,-0.02483794,0.6759930000000001,0.01640155,1.811264,-137.7097,31.104611320754717
1,-0.03245544,-0.2922668,0.95578,0.7822238,-0.1273499,-0.3139343,0.9408569,-30.31628,2.989136,-28.58913,3.478073,0.4817419,0.5301408000000001,0.8730548,0.0355071999999999,-0.2750549,0.9607544,34.64658,3.841248,-28.50137,4.226349,0.4280617999999999,0.4818228,0.009271383,1.345815,-0.2201284,-0.02483794,0.6759930000000001,0.01640155,1.811264,-137.7097,31.104611320754717
1,-0.03245544,-0.2922668,0.95578,0.7822238,-0.1273499,-0.3139343,0.9408569,-30.31628,2.989136,-28.58913,3.478073,0.4817419,0.5301408000000001,0.8730548,0.0355071999999999,-0.2750549,0.9607544,34.64658,3.841248,-28.50137,4.226349,0.4280617999999999,0.4818228,0.009271383,1.345815,-0.2201284,-0.02483794,0.6759930000000001,0.01640155,1.811264,-137.7097,31.104611320754717
1,0.3094025,-0.3508605999999999,0.8838196,0.7579176999999999,0.1915282999999999,-0.3574829,0.9140625,-29.07008,2.675339,-28.76875,3.601746,0.4003357,0.5483676,0.7309708,0.3635406,-0.345932,0.8649597,35.66785,3.745193,-28.61603,4.488419,0.3534013,0.4954749,0.003148556,1.346584,-0.220973,-0.02332933,0.6729276,0.01445155,1.811264,-137.7097,31.104611320754717
1,0.3094025,-0.3508605999999999,0.8838196,0.7579176999999999,0.1915282999999999,-0.3574829,0.9140625,-29.07008,2.675339,-28.76875,3.601746,0.4003357,0.5483676,0.7309708,0.3635406,-0.345932,0.8649597,35.66785,3.745193,-28.61603,4.488419,0.3534013,0.4954749,0.003148556,1.346584,-0.220973,-0.02332933,0.6729276,0.01445155,1.811264,-137.7097,31.104611320754717
1,0.3094025,-0.3508605999999999,0.8838196,0.7579176999999999,0.1915282999999999,-0.3574829,0.9140625,-29.07008,2.675339,-28.76875,3.601746,0.4003357,0.5483676,0.7309708,0.3635406,-0.345932,0.8649597,35.66785,3.745193,-28.61603,4.488419,0.3534013,0.4954749,0.003148556,1.346584,-0.220973,-0.02332933,0.6729276,0.01445155,1.811264,-137.7097,31.104611320754717
1,0.2895355,-0.4298706,0.8551940999999998,0.7826303000000001,0.1941223,-0.3858643,0.901886,-28.95427,2.680069,-28.78435,3.515182,0.39581,0.5521590000000001,0.7208239000000001,0.3094635,-0.4385529,0.8437347,36.05908,3.916168,-28.4747,4.095749,0.3467019,0.5001189,-0.002759457,1.347507,-0.2215025,-0.0228136,0.6690619999999999,0.01140067,1.811264,-137.7097,31.104611320754717
1,0.2895355,-0.4298706,0.8551940999999998,0.7826303000000001,0.1941223,-0.3858643,0.901886,-28.95427,2.680069,-28.78435,3.515182,0.39581,0.5521590000000001,0.7208239000000001,0.3094635,-0.4385529,0.8437347,36.05908,3.916168,-28.4747,4.095749,0.3467019,0.5001189,-0.002759457,1.347507,-0.2215025,-0.0228136,0.6690619999999999,0.01140067,1.811264,-137.7097,31.104611320754717
1,0.2895355,-0.4298706,0.8551940999999998,0.7826303000000001,0.1941223,-0.3858643,0.901886,-28.95427,2.680069,-28.78435,3.515182,0.39581,0.5521590000000001,0.7208239000000001,0.3094635,-0.4385529,0.8437347,36.05908,3.916168,-28.4747,4.095749,0.3467019,0.5001189,-0.002759457,1.347507,-0.2215025,-0.0228136,0.6690619999999999,0.01140067,1.811264,-137.7097,31.104611320754717
1,0.2859955,-0.4031372,0.8692931999999999,0.7750146,0.1910858,-0.3652495999999999,0.9110718,-29.04221,2.708435,-28.771320000000003,3.491394,0.3992624,0.5483186999999999,0.7289776,0.3252410999999999,-0.4177399,0.8483429,35.93118,3.861389,-28.52403,4.057968,0.3491316,0.4998132,-0.008673668,1.348439,-0.2214649,-0.02122673,0.6625649,0.009710923,1.811264,-137.7097,31.104611320754717
1,0.2859955,-0.4031372,0.8692931999999999,0.7750146,0.1910858,-0.3652495999999999,0.9110718,-29.04221,2.708435,-28.771320000000003,3.491394,0.3992624,0.5483186999999999,0.7289776,0.3252410999999999,-0.4177399,0.8483429,35.93118,3.861389,-28.52403,4.057968,0.3491316,0.4998132,-0.008673668,1.348439,-0.2214649,-0.02122673,0.6625649,0.009710923,1.811264,-137.7097,31.104611320754717
1,0.2859955,-0.4031372,0.8692931999999999,0.7750146,0.1910858,-0.3652495999999999,0.9110718,-29.04221,2.708435,-28.771320000000003,3.491394,0.3992624,0.5483186999999999,0.7289776,0.3252410999999999,-0.4177399,0.8483429,35.93118,3.861389,-28.52403,4.057968,0.3491316,0.4998132,-0.008673668,1.348439,-0.2214649,-0.02122673,0.6625649,0.009710923,1.811264,-137.7097,31.104611320754717
1,0.280426,-0.3982085999999999,0.8733673000000001,0.7941047,0.1894072999999999,-0.3691100999999999,0.9098663,-29.04341,2.722137,-28.75813,3.465088,0.3994744,0.5482421,0.7470531,0.3226624,-0.4105835,0.8528136999999999,35.933690000000006,3.860596,-28.52191,3.990189,0.3494305,0.4988782,-0.01489639,1.349108,-0.2210922,-0.01906252,0.6532289000000001,0.008430809,1.811264,18.40332,31.104611320754717
1,0.280426,-0.3982085999999999,0.8733673000000001,0.7941047,0.1894072999999999,-0.3691100999999999,0.9098663,-29.04341,2.722137,-28.75813,3.465088,0.3994744,0.5482421,0.7470531,0.3226624,-0.4105835,0.8528136999999999,35.933690000000006,3.860596,-28.52191,3.990189,0.3494305,0.4988782,-0.01489639,1.349108,-0.2210922,-0.01906252,0.6532289000000001,0.008430809,1.811264,18.40332,31.104611320754717
1,0.280426,-0.3982085999999999,0.8733673000000001,0.7941047,0.1894072999999999,-0.3691100999999999,0.9098663,-29.04341,2.722137,-28.75813,3.465088,0.3994744,0.5482421,0.7470531,0.3226624,-0.4105835,0.8528136999999999,35.933690000000006,3.860596,-28.52191,3.990189,0.3494305,0.4988782,-0.01489639,1.349108,-0.2210922,-0.01906252,0.6532289000000001,0.008430809,1.811264,18.40332,31.104611320754717
1,0.280426,-0.3982085999999999,0.8733673000000001,0.7941047,0.1894072999999999,-0.3691100999999999,0.9098663,-29.04341,2.722137,-28.75813,3.465088,0.3994744,0.5482421,0.7470531,0.3226624,-0.4105835,0.8528136999999999,35.933690000000006,3.860596,-28.52191,3.990189,0.3494305,0.4988782,-0.02346778,1.350191,-0.2200653,-0.01853862,0.639269,0.005003394,1.811264,18.40332,31.104611320754717
1,0.280426,-0.3982085999999999,0.8733673000000001,0.7941047,0.1894072999999999,-0.3691100999999999,0.9098663,-29.04341,2.722137,-28.75813,3.465088,0.3994744,0.5482421,0.7470531,0.3226624,-0.4105835,0.8528136999999999,35.933690000000006,3.860596,-28.52191,3.990189,0.3494305,0.4988782,-0.02346778,1.350191,-0.2200653,-0.01853862,0.639269,0.005003394,1.811264,18.40332,31.104611320754717
1,0.280426,-0.3982085999999999,0.8733673000000001,0.7941047,0.1894072999999999,-0.3691100999999999,0.9098663,-29.04341,2.722137,-28.75813,3.465088,0.3994744,0.5482421,0.7470531,0.3226624,-0.4105835,0.8528136999999999,35.933690000000006,3.860596,-28.52191,3.990189,0.3494305,0.4988782,-0.02346778,1.350191,-0.2200653,-0.01853862,0.639269,0.005003394,1.811264,18.40332,31.104611320754717
1,0.243454,-0.3503265,0.9044189,0.7836615,0.1146088,-0.3134308,0.9426575,-29.240890000000004,2.790604,-28.66951,3.557709,0.4156947,0.5373604999999999,0.7696898,0.3082733,-0.3667603,0.8777466,35.68103,3.803131,-28.53867,3.842056,0.3600735,0.4952439999999999,-0.02777743,1.350741,-0.2195392,-0.01833474,0.6323509,0.003555789,1.811264,18.40332,31.104611320754717
1,0.243454,-0.3503265,0.9044189,0.7836615,0.1146088,-0.3134308,0.9426575,-29.240890000000004,2.790604,-28.66951,3.557709,0.4156947,0.5373604999999999,0.7696898,0.3082733,-0.3667603,0.8777466,35.68103,3.803131,-28.53867,3.842056,0.3600735,0.4952439999999999,-0.02777743,1.350741,-0.2195392,-0.01833474,0.6323509,0.003555789,1.811264,18.40332,31.104611320754717
1,0.243454,-0.3503265,0.9044189,0.7836615,0.1146088,-0.3134308,0.9426575,-29.240890000000004,2.790604,-28.66951,3.557709,0.4156947,0.5373604999999999,0.7696898,0.3082733,-0.3667603,0.8777466,35.68103,3.803131,-28.53867,3.842056,0.3600735,0.4952439999999999,-0.02777743,1.350741,-0.2195392,-0.01833474,0.6323509,0.003555789,1.811264,18.40332,31.104611320754717
1,0.2168578999999999,-0.3566589,0.9087067,0.7713437,0.08818054,-0.2971497,0.9507446,-29.33698,2.803864,-28.64722,3.68129,0.4223665,0.5345122,0.7647644,0.2588654,-0.3748322,0.8902129999999999,35.55469,3.811569,-28.49127,3.67453,0.3706235,0.4954036,-0.03674626,1.352175,-0.2184654,-0.01622732,0.6175654,0.002725478,1.811264,18.40332,31.104611320754717
1,0.2168578999999999,-0.3566589,0.9087067,0.7713437,0.08818054,-0.2971497,0.9507446,-29.33698,2.803864,-28.64722,3.68129,0.4223665,0.5345122,0.7647644,0.2588654,-0.3748322,0.8902129999999999,35.55469,3.811569,-28.49127,3.67453,0.3706235,0.4954036,-0.03674626,1.352175,-0.2184654,-0.01622732,0.6175654,0.002725478,1.811264,18.40332,31.104611320754717
1,0.2168578999999999,-0.3566589,0.9087067,0.7713437,0.08818054,-0.2971497,0.9507446,-29.33698,2.803864,-28.64722,3.68129,0.4223665,0.5345122,0.7647644,0.2588654,-0.3748322,0.8902129999999999,35.55469,3.811569,-28.49127,3.67453,0.3706235,0.4954036,-0.03674626,1.352175,-0.2184654,-0.01622732,0.6175654,0.002725478,1.811264,18.40332,31.104611320754717
1,0.2168578999999999,-0.3566589,0.9087067,0.7713437,0.08818054,-0.2971497,0.9507446,-29.33698,2.803864,-28.64722,3.68129,0.4223665,0.5345122,0.7647644,0.2588654,-0.3748322,0.8902129999999999,35.55469,3.811569,-28.49127,3.67453,0.3706235,0.4954036,-0.04125714,1.352942,-0.2181152999999999,-0.01421215,0.6105909,0.002704897,1.811264,102.9364,31.104611320754717
1,0.2168578999999999,-0.3566589,0.9087067,0.7713437,0.08818054,-0.2971497,0.9507446,-29.33698,2.803864,-28.64722,3.68129,0.4223665,0.5345122,0.7647644,0.2588654,-0.3748322,0.8902129999999999,35.55469,3.811569,-28.49127,3.67453,0.3706235,0.4954036,-0.04125714,1.352942,-0.2181152999999999,-0.01421215,0.6105909,0.002704897,1.811264,102.9364,31.104611320754717
1,0.2168578999999999,-0.3566589,0.9087067,0.7713437,0.08818054,-0.2971497,0.9507446,-29.33698,2.803864,-28.64722,3.68129,0.4223665,0.5345122,0.7647644,0.2588654,-0.3748322,0.8902129999999999,35.55469,3.811569,-28.49127,3.67453,0.3706235,0.4954036,-0.04125714,1.352942,-0.2181152999999999,-0.01421215,0.6105909,0.002704897,1.811264,102.9364,31.104611320754717
1,0.1976776,-0.3624725,0.9107819,0.7901993,0.09275818,-0.3229828,0.9418335,-29.39439,2.81369,-28.64622,3.514648,0.4235519,0.5375592,0.7752707,0.235611,-0.3757629,0.8962555,35.49796,3.806335,-28.48047,3.77417,0.3753844999999999,0.4954965,-0.04944587,1.355959,-0.2166664999999999,-0.01666226,0.5970025,0.002642195,1.811264,102.9364,31.104611320754717
1,0.1976776,-0.3624725,0.9107819,0.7901993,0.09275818,-0.3229828,0.9418335,-29.39439,2.81369,-28.64622,3.514648,0.4235519,0.5375592,0.7752707,0.235611,-0.3757629,0.8962555,35.49796,3.806335,-28.48047,3.77417,0.3753844999999999,0.4954965,-0.04944587,1.355959,-0.2166664999999999,-0.01666226,0.5970025,0.002642195,1.811264,102.9364,31.104611320754717
1,0.1976776,-0.3624725,0.9107819,0.7901993,0.09275818,-0.3229828,0.9418335,-29.39439,2.81369,-28.64622,3.514648,0.4235519,0.5375592,0.7752707,0.235611,-0.3757629,0.8962555,35.49796,3.806335,-28.48047,3.77417,0.3753844999999999,0.4954965,-0.04944587,1.355959,-0.2166664999999999,-0.01666226,0.5970025,0.002642195,1.811264,102.9364,31.104611320754717
1,0.1976776,-0.3624725,0.9107819,0.7901993,0.09275818,-0.3229828,0.9418335,-29.39439,2.81369,-28.64622,3.514648,0.4235519,0.5375592,0.7752707,0.235611,-0.3757629,0.8962555,35.49796,3.806335,-28.48047,3.77417,0.3753844999999999,0.4954965,-0.06102967,1.3573620000000002,-0.2148078999999999,-0.01383709,0.5777974,-0.0001220703,1.811264,102.9364,31.104611320754717
1,0.1976776,-0.3624725,0.9107819,0.7901993,0.09275818,-0.3229828,0.9418335,-29.39439,2.81369,-28.64622,3.514648,0.4235519,0.5375592,0.7752707,0.235611,-0.3757629,0.8962555,35.49796,3.806335,-28.48047,3.77417,0.3753844999999999,0.4954965,-0.06102967,1.3573620000000002,-0.2148078999999999,-0.01383709,0.5777974,-0.0001220703,1.811264,102.9364,31.104611320754717
1,0.1976776,-0.3624725,0.9107819,0.7901993,0.09275818,-0.3229828,0.9418335,-29.39439,2.81369,-28.64622,3.514648,0.4235519,0.5375592,0.7752707,0.235611,-0.3757629,0.8962555,35.49796,3.806335,-28.48047,3.77417,0.3753844999999999,0.4954965,-0.06102967,1.3573620000000002,-0.2148078999999999,-0.01383709,0.5777974,-0.0001220703,1.811264,102.9364,31.104611320754717
1,0.277832,-0.3845673,0.8802795,0.7941236,0.1437683,-0.3750915999999999,0.9157562,-29.20352,2.716904,-28.72502,3.071121,0.4100494,0.5488064,0.7601818,0.3503113,-0.3866425,0.8530884,35.76059,3.685532,-28.60493,3.802521,0.3518405,0.5027174,-0.06823444,1.356874,-0.213677,-0.006472029,0.5644569,-0.0007623289,1.774103,102.9364,31.104611320754717
1,0.277832,-0.3845673,0.8802795,0.7941236,0.1437683,-0.3750915999999999,0.9157562,-29.20352,2.716904,-28.72502,3.071121,0.4100494,0.5488064,0.7601818,0.3503113,-0.3866425,0.8530884,35.76059,3.685532,-28.60493,3.802521,0.3518405,0.5027174,-0.06823444,1.356874,-0.213677,-0.006472029,0.5644569,-0.0007623289,1.774103,102.9364,31.104611320754717
1,0.277832,-0.3845673,0.8802795,0.7941236,0.1437683,-0.3750915999999999,0.9157562,-29.20352,2.716904,-28.72502,3.071121,0.4100494,0.5488064,0.7601818,0.3503113,-0.3866425,0.8530884,35.76059,3.685532,-28.60493,3.802521,0.3518405,0.5027174,-0.06823444,1.356874,-0.213677,-0.006472029,0.5644569,-0.0007623289,1.774103,102.9364,31.104611320754717
1,0.277832,-0.3845673,0.8802795,0.7941236,0.1437683,-0.3750915999999999,0.9157562,-29.20352,2.716904,-28.72502,3.071121,0.4100494,0.5488064,0.7601818,0.3503113,-0.3866425,0.8530884,35.76059,3.685532,-28.60493,3.802521,0.3518405,0.5027174,-0.07544851,1.356343,-0.2126150999999999,-0.002031655,0.5520895,-0.002759437,1.774103,-26.07965,31.104611320754717
1,0.277832,-0.3845673,0.8802795,0.7941236,0.1437683,-0.3750915999999999,0.9157562,-29.20352,2.716904,-28.72502,3.071121,0.4100494,0.5488064,0.7601818,0.3503113,-0.3866425,0.8530884,35.76059,3.685532,-28.60493,3.802521,0.3518405,0.5027174,-0.07544851,1.356343,-0.2126150999999999,-0.002031655,0.5520895,-0.002759437,1.774103,-26.07965,31.104611320754717
1,0.277832,-0.3845673,0.8802795,0.7941236,0.1437683,-0.3750915999999999,0.9157562,-29.20352,2.716904,-28.72502,3.071121,0.4100494,0.5488064,0.7601818,0.3503113,-0.3866425,0.8530884,35.76059,3.685532,-28.60493,3.802521,0.3518405,0.5027174,-0.07544851,1.356343,-0.2126150999999999,-0.002031655,0.5520895,-0.002759437,1.774103,-26.07965,31.104611320754717
1,0.1454468,-0.361084,0.9211121,0.8327888000000001,0.06666565,-0.3409271,0.9377136,-29.58653,2.740402,-28.65002,3.3069,0.4330185,0.5424415,0.7974730999999999,0.2136841,-0.376709,0.9013367,35.31886,3.709229,-28.49104,3.633377,0.3841806,0.4990035,-0.08263206,1.355865,-0.2115441,-0.000495852,0.5395701999999999,-0.0066542319999999,1.774103,-26.07965,31.104611320754717
1,0.1454468,-0.361084,0.9211121,0.8327888000000001,0.06666565,-0.3409271,0.9377136,-29.58653,2.740402,-28.65002,3.3069,0.4330185,0.5424415,0.7974730999999999,0.2136841,-0.376709,0.9013367,35.31886,3.709229,-28.49104,3.633377,0.3841806,0.4990035,-0.08263206,1.355865,-0.2115441,-0.000495852,0.5395701999999999,-0.0066542319999999,1.774103,-26.07965,31.104611320754717
1,0.1454468,-0.361084,0.9211121,0.8327888000000001,0.06666565,-0.3409271,0.9377136,-29.58653,2.740402,-28.65002,3.3069,0.4330185,0.5424415,0.7974730999999999,0.2136841,-0.376709,0.9013367,35.31886,3.709229,-28.49104,3.633377,0.3841806,0.4990035,-0.08263206,1.355865,-0.2115441,-0.000495852,0.5395701999999999,-0.0066542319999999,1.774103,-26.07965,31.104611320754717
1,0.06832886,-0.3108672999999999,0.9479828,0.8342808,-0.003417969,-0.2805634,0.9598236,-29.72961,2.789948,-28.60576,3.423019,0.4466297000000001,0.5324291999999999,0.7948951999999999,0.1490021,-0.342804,0.9275055,35.2373,3.751755,-28.43903,3.706955,0.3949248,0.4925939,-0.0898056,1.355051,-0.2105957,0.002283726,0.5265048000000001,-0.009195063,1.774103,-26.07965,31.104611320754717
1,0.06832886,-0.3108672999999999,0.9479828,0.8342808,-0.003417969,-0.2805634,0.9598236,-29.72961,2.789948,-28.60576,3.423019,0.4466297000000001,0.5324291999999999,0.7948951999999999,0.1490021,-0.342804,0.9275055,35.2373,3.751755,-28.43903,3.706955,0.3949248,0.4925939,-0.0898056,1.355051,-0.2105957,0.002283726,0.5265048000000001,-0.009195063,1.774103,-26.07965,31.104611320754717
1,0.06832886,-0.3108672999999999,0.9479828,0.8342808,-0.003417969,-0.2805634,0.9598236,-29.72961,2.789948,-28.60576,3.423019,0.4466297000000001,0.5324291999999999,0.7948951999999999,0.1490021,-0.342804,0.9275055,35.2373,3.751755,-28.43903,3.706955,0.3949248,0.4925939,-0.0898056,1.355051,-0.2105957,0.002283726,0.5265048000000001,-0.009195063,1.774103,-26.07965,31.104611320754717
1,0.06832886,-0.3108672999999999,0.9479828,0.8342808,-0.003417969,-0.2805634,0.9598236,-29.72961,2.789948,-28.60576,3.423019,0.4466297000000001,0.5324291999999999,0.7948951999999999,0.1490021,-0.342804,0.9275055,35.2373,3.751755,-28.43903,3.706955,0.3949248,0.4925939,-0.09692502,1.354503,-0.2096217,0.0058936069999999,0.5127046,-0.01048313,1.774103,-26.07965,31.104611320754717
1,0.06832886,-0.3108672999999999,0.9479828,0.8342808,-0.003417969,-0.2805634,0.9598236,-29.72961,2.789948,-28.60576,3.423019,0.4466297000000001,0.5324291999999999,0.7948951999999999,0.1490021,-0.342804,0.9275055,35.2373,3.751755,-28.43903,3.706955,0.3949248,0.4925939,-0.09692502,1.354503,-0.2096217,0.0058936069999999,0.5127046,-0.01048313,1.774103,-26.07965,31.104611320754717
1,0.06832886,-0.3108672999999999,0.9479828,0.8342808,-0.003417969,-0.2805634,0.9598236,-29.72961,2.789948,-28.60576,3.423019,0.4466297000000001,0.5324291999999999,0.7948951999999999,0.1490021,-0.342804,0.9275055,35.2373,3.751755,-28.43903,3.706955,0.3949248,0.4925939,-0.09692502,1.354503,-0.2096217,0.0058936069999999,0.5127046,-0.01048313,1.774103,-26.07965,31.104611320754717
1,0.2256012,-0.2845764,0.9317169,0.7554305,0.2256012,-0.2845764,0.9317169,-28.7339,3.055237,-28.73872,3.26236,0.3844807,0.5257794,0.7601198,0.0,0.0,0.0,36.12692,4.242172,-28.54982,-1.0,0.3280218,0.4628255999999999,-0.1039472,1.353905,-0.2089882,0.009228629,0.5000391,-0.01254328,1.774103,-26.07965,32.05
1,0.2256012,-0.2845764,0.9317169,0.7554305,0.2256012,-0.2845764,0.9317169,-28.7339,3.055237,-28.73872,3.26236,0.3844807,0.5257794,0.7601198,0.0,0.0,0.0,36.12692,4.242172,-28.54982,-1.0,0.3280218,0.4628255999999999,-0.1039472,1.353905,-0.2089882,0.009228629,0.5000391,-0.01254328,1.774103,-26.07965,32.05
1,0.2256012,-0.2845764,0.9317169,0.7554305,0.2256012,-0.2845764,0.9317169,-28.7339,3.055237,-28.73872,3.26236,0.3844807,0.5257794,0.7601198,0.0,0.0,0.0,36.12692,4.242172,-28.54982,-1.0,0.3280218,0.4628255999999999,-0.1039472,1.353905,-0.2089882,0.009228629,0.5000391,-0.01254328,1.774103,-26.07965,32.05
1,0.2843475,-0.2221679999999999,0.9326171999999998,0.7563119,0.2032622999999999,-0.1961822999999999,0.959259,-28.97969,3.069138,-28.69196,3.335526,0.3960439,0.5134697,0.7937046,0.3630219,-0.2463379,0.8986206,35.8652,4.208572,-28.45895,3.664597,0.3476185999999999,0.4657562,-0.1106791,1.353327,-0.2086498999999999,0.01301066,0.4894662999999999,-0.0142556,1.774103,-26.07965,32.05
1,0.2843475,-0.2221679999999999,0.9326171999999998,0.7563119,0.2032622999999999,-0.1961822999999999,0.959259,-28.97969,3.069138,-28.69196,3.335526,0.3960439,0.5134697,0.7937046,0.3630219,-0.2463379,0.8986206,35.8652,4.208572,-28.45895,3.664597,0.3476185999999999,0.4657562,-0.1106791,1.353327,-0.2086498999999999,0.01301066,0.4894662999999999,-0.0142556,1.774103,-26.07965,32.05
1,0.2843475,-0.2221679999999999,0.9326171999999998,0.7563119,0.2032622999999999,-0.1961822999999999,0.959259,-28.97969,3.069138,-28.69196,3.335526,0.3960439,0.5134697,0.7937046,0.3630219,-0.2463379,0.8986206,35.8652,4.208572,-28.45895,3.664597,0.3476185999999999,0.4657562,-0.1106791,1.353327,-0.2086498999999999,0.01301066,0.4894662999999999,-0.0142556,1.774103,-26.07965,32.05
1,0.2843475,-0.2221679999999999,0.9326171999999998,0.7563119,0.2032622999999999,-0.1961822999999999,0.959259,-28.97969,3.069138,-28.69196,3.335526,0.3960439,0.5134697,0.7937046,0.3630219,-0.2463379,0.8986206,35.8652,4.208572,-28.45895,3.664597,0.3476185999999999,0.4657562,-0.1168597,1.3531,-0.2089737,0.01537941,0.4810265999999999,-0.01376258,1.774103,-63.0583,32.05
1,0.2843475,-0.2221679999999999,0.9326171999999998,0.7563119,0.2032622999999999,-0.1961822999999999,0.959259,-28.97969,3.069138,-28.69196,3.335526,0.3960439,0.5134697,0.7937046,0.3630219,-0.2463379,0.8986206,35.8652,4.208572,-28.45895,3.664597,0.3476185999999999,0.4657562,-0.1168597,1.3531,-0.2089737,0.01537941,0.4810265999999999,-0.01376258,1.774103,-63.0583,32.05
1,0.2843475,-0.2221679999999999,0.9326171999999998,0.7563119,0.2032622999999999,-0.1961822999999999,0.959259,-28.97969,3.069138,-28.69196,3.335526,0.3960439,0.5134697,0.7937046,0.3630219,-0.2463379,0.8986206,35.8652,4.208572,-28.45895,3.664597,0.3476185999999999,0.4657562,-0.1168597,1.3531,-0.2089737,0.01537941,0.4810265999999999,-0.01376258,1.774103,-63.0583,32.05
1,0.2826995999999999,-0.2226715,0.9329834,0.7563119,0.1949767999999999,-0.2054749,0.9590302,-29.03983,3.075562,-28.67642,3.352158,0.3991287,0.5142555,0.7937046,0.3509827,-0.2350311,0.9063873,35.83597,4.269623,-28.39995,3.629852,0.3502802,0.4616935,-0.1229198,1.352442,-0.2098911,0.01847259,0.4755305,-0.01500025,1.774103,-63.0583,32.05
1,0.2826995999999999,-0.2226715,0.9329834,0.7563119,0.1949767999999999,-0.2054749,0.9590302,-29.03983,3.075562,-28.67642,3.352158,0.3991287,0.5142555,0.7937046,0.3509827,-0.2350311,0.9063873,35.83597,4.269623,-28.39995,3.629852,0.3502802,0.4616935,-0.1229198,1.352442,-0.2098911,0.01847259,0.4755305,-0.01500025,1.774103,-63.0583,32.05
1,0.2826995999999999,-0.2226715,0.9329834,0.7563119,0.1949767999999999,-0.2054749,0.9590302,-29.03983,3.075562,-28.67642,3.352158,0.3991287,0.5142555,0.7937046,0.3509827,-0.2350311,0.9063873,35.83597,4.269623,-28.39995,3.629852,0.3502802,0.4616935,-0.1229198,1.352442,-0.2098911,0.01847259,0.4755305,-0.01500025,1.774103,-63.0583,32.05
1,0.1628113,-0.2463379,0.9553986,0.7891954000000001,0.1154938,-0.227356,0.9669342,-29.51357,2.9826200000000003,-28.60675,2.9319,0.4244397,0.5192384,0.8229151,0.1936646,-0.2584534,0.9463959,35.47176,4.177398999999999,-28.3213,3.171021,0.3823684,0.4665479999999999,-0.1278901,1.352178,-0.2111306,0.01883328,0.47289,-0.01616821,1.774103,-63.0583,32.05
1,0.1628113,-0.2463379,0.9553986,0.7891954000000001,0.1154938,-0.227356,0.9669342,-29.51357,2.9826200000000003,-28.60675,2.9319,0.4244397,0.5192384,0.8229151,0.1936646,-0.2584534,0.9463959,35.47176,4.177398999999999,-28.3213,3.171021,0.3823684,0.4665479999999999,-0.1278901,1.352178,-0.2111306,0.01883328,0.47289,-0.01616821,1.774103,-63.0583,32.05
1,0.1628113,-0.2463379,0.9553986,0.7891954000000001,0.1154938,-0.227356,0.9669342,-29.51357,2.9826200000000003,-28.60675,2.9319,0.4244397,0.5192384,0.8229151,0.1936646,-0.2584534,0.9463959,35.47176,4.177398999999999,-28.3213,3.171021,0.3823684,0.4665479999999999,-0.1278901,1.352178,-0.2111306,0.01883328,0.47289,-0.01616821,1.774103,-63.0583,32.05
1,0.1628113,-0.2463379,0.9553986,0.7891954000000001,0.1154938,-0.227356,0.9669342,-29.51357,2.9826200000000003,-28.60675,2.9319,0.4244397,0.5192384,0.8229151,0.1936646,-0.2584534,0.9463959,35.47176,4.177398999999999,-28.3213,3.171021,0.3823684,0.4665479999999999,-0.1323253999999999,1.351969,-0.2125263,0.01910274,0.4707308,-0.01579431,1.774103,-63.0583,32.05
1,0.1628113,-0.2463379,0.9553986,0.7891954000000001,0.1154938,-0.227356,0.9669342,-29.51357,2.9826200000000003,-28.60675,2.9319,0.4244397,0.5192384,0.8229151,0.1936646,-0.2584534,0.9463959,35.47176,4.177398999999999,-28.3213,3.171021,0.3823684,0.4665479999999999,-0.1323253999999999,1.351969,-0.2125263,0.01910274,0.4707308,-0.01579431,1.774103,-63.0583,32.05
1,0.1628113,-0.2463379,0.9553986,0.7891954000000001,0.1154938,-0.227356,0.9669342,-29.51357,2.9826200000000003,-28.60675,2.9319,0.4244397,0.5192384,0.8229151,0.1936646,-0.2584534,0.9463959,35.47176,4.177398999999999,-28.3213,3.171021,0.3823684,0.4665479999999999,-0.1323253999999999,1.351969,-0.2125263,0.01910274,0.4707308,-0.01579431,1.774103,-63.0583,32.05
1,-0.103653,-0.3031311,0.9472809,0.789898,-0.1726532,-0.3221893,0.9307861,-30.59483,2.793839,-28.63843,3.152817,0.4966359,0.5386270000000001,0.8458992000000001,-0.0489501999999999,-0.2869873,0.9566803,34.11931,3.728027,-28.44966,3.669922,0.4563840999999999,0.487177,-0.1361022,1.351081,-0.2139402999999999,0.0221502999999999,0.469902,-0.01680053,1.774103,-80.22592,32.05
1,-0.103653,-0.3031311,0.9472809,0.789898,-0.1726532,-0.3221893,0.9307861,-30.59483,2.793839,-28.63843,3.152817,0.4966359,0.5386270000000001,0.8458992000000001,-0.0489501999999999,-0.2869873,0.9566803,34.11931,3.728027,-28.44966,3.669922,0.4563840999999999,0.487177,-0.1361022,1.351081,-0.2139402999999999,0.0221502999999999,0.469902,-0.01680053,1.774103,-80.22592,32.05
1,-0.103653,-0.3031311,0.9472809,0.789898,-0.1726532,-0.3221893,0.9307861,-30.59483,2.793839,-28.63843,3.152817,0.4966359,0.5386270000000001,0.8458992000000001,-0.0489501999999999,-0.2869873,0.9566803,34.11931,3.728027,-28.44966,3.669922,0.4563840999999999,0.487177,-0.1361022,1.351081,-0.2139402999999999,0.0221502999999999,0.469902,-0.01680053,1.774103,-80.22592,32.05
1,-0.1100769,-0.3123474,0.9435577,0.7343845,-0.1724091,-0.3266754,0.9292603000000002,-30.60661,2.788864,-28.63771,3.124802,0.4969988,0.5393891,0.8506136999999999,-0.04730225,-0.2966765999999999,0.9537964,34.11105,3.706024,-28.46243,3.5166470000000003,0.4566267,0.4892611,-0.1396162999999999,1.349576,-0.2151471,0.02730967,0.4694784000000001,-0.01901909,1.774103,-80.22592,32.05
1,-0.1100769,-0.3123474,0.9435577,0.7343845,-0.1724091,-0.3266754,0.9292603000000002,-30.60661,2.788864,-28.63771,3.124802,0.4969988,0.5393891,0.8506136999999999,-0.04730225,-0.2966765999999999,0.9537964,34.11105,3.706024,-28.46243,3.5166470000000003,0.4566267,0.4892611,-0.1396162999999999,1.349576,-0.2151471,0.02730967,0.4694784000000001,-0.01901909,1.774103,-80.22592,32.05
1,-0.1100769,-0.3123474,0.9435577,0.7343845,-0.1724091,-0.3266754,0.9292603000000002,-30.60661,2.788864,-28.63771,3.124802,0.4969988,0.5393891,0.8506136999999999,-0.04730225,-0.2966765999999999,0.9537964,34.11105,3.706024,-28.46243,3.5166470000000003,0.4566267,0.4892611,-0.1396162999999999,1.349576,-0.2151471,0.02730967,0.4694784000000001,-0.01901909,1.774103,-80.22592,32.05
1,-0.1100769,-0.3123474,0.9435577,0.7343845,-0.1724091,-0.3266754,0.9292603000000002,-30.60661,2.788864,-28.63771,3.124802,0.4969988,0.5393891,0.8506136999999999,-0.04730225,-0.2966765999999999,0.9537964,34.11105,3.706024,-28.46243,3.5166470000000003,0.4566267,0.4892611,-0.1424346,1.348557,-0.2156191,0.0318524,0.466621,-0.01899165,1.774103,-80.22592,32.05
1,-0.1100769,-0.3123474,0.9435577,0.7343845,-0.1724091,-0.3266754,0.9292603000000002,-30.60661,2.788864,-28.63771,3.124802,0.4969988,0.5393891,0.8506136999999999,-0.04730225,-0.2966765999999999,0.9537964,34.11105,3.706024,-28.46243,3.5166470000000003,0.4566267,0.4892611,-0.1424346,1.348557,-0.2156191,0.0318524,0.466621,-0.01899165,1.774103,-80.22592,32.05
1,-0.1100769,-0.3123474,0.9435577,0.7343845,-0.1724091,-0.3266754,0.9292603000000002,-30.60661,2.788864,-28.63771,3.124802,0.4969988,0.5393891,0.8506136999999999,-0.04730225,-0.2966765999999999,0.9537964,34.11105,3.706024,-28.46243,3.5166470000000003,0.4566267,0.4892611,-0.1424346,1.348557,-0.2156191,0.0318524,0.466621,-0.01899165,1.774103,-80.22592,32.05
1,-0.1139526,-0.3153534,0.9420929,0.7343845,-0.1840515,-0.331665,0.9252625,-30.60919,2.795837,-28.63727,3.073807,0.4985083999999999,0.5398815,0.8506136999999999,-0.0308074999999999,-0.2939910999999999,0.955307,34.12831,3.696045,-28.45284,3.567245,0.4540385,0.4890837999999999,-0.1449275,1.347275,-0.2158158,0.03576473,0.4622093,-0.01875995,1.774103,-80.22592,32.05
1,-0.1139526,-0.3153534,0.9420929,0.7343845,-0.1840515,-0.331665,0.9252625,-30.60919,2.795837,-28.63727,3.073807,0.4985083999999999,0.5398815,0.8506136999999999,-0.0308074999999999,-0.2939910999999999,0.955307,34.12831,3.696045,-28.45284,3.567245,0.4540385,0.4890837999999999,-0.1449275,1.347275,-0.2158158,0.03576473,0.4622093,-0.01875995,1.774103,-80.22592,32.05
1,-0.1139526,-0.3153534,0.9420929,0.7343845,-0.1840515,-0.331665,0.9252625,-30.60919,2.795837,-28.63727,3.073807,0.4985083999999999,0.5398815,0.8506136999999999,-0.0308074999999999,-0.2939910999999999,0.955307,34.12831,3.696045,-28.45284,3.567245,0.4540385,0.4890837999999999,-0.1449275,1.347275,-0.2158158,0.03576473,0.4622093,-0.01875995,1.774103,-80.22592,32.05
1,-0.1139526,-0.3153534,0.9420929,0.7343845,-0.1840515,-0.331665,0.9252625,-30.60919,2.795837,-28.63727,3.073807,0.4985083999999999,0.5398815,0.8506136999999999,-0.0308074999999999,-0.2939910999999999,0.955307,34.12831,3.696045,-28.45284,3.567245,0.4540385,0.4890837999999999,-0.1473197999999999,1.346155,-0.2156032,0.03869436,0.4559485,-0.02034989,1.774103,-80.22592,32.05
1,-0.1139526,-0.3153534,0.9420929,0.7343845,-0.1840515,-0.331665,0.9252625,-30.60919,2.795837,-28.63727,3.073807,0.4985083999999999,0.5398815,0.8506136999999999,-0.0308074999999999,-0.2939910999999999,0.955307,34.12831,3.696045,-28.45284,3.567245,0.4540385,0.4890837999999999,-0.1473197999999999,1.346155,-0.2156032,0.03869436,0.4559485,-0.02034989,1.774103,-80.22592,32.05
1,-0.1139526,-0.3153534,0.9420929,0.7343845,-0.1840515,-0.331665,0.9252625,-30.60919,2.795837,-28.63727,3.073807,0.4985083999999999,0.5398815,0.8506136999999999,-0.0308074999999999,-0.2939910999999999,0.955307,34.12831,3.696045,-28.45284,3.567245,0.4540385,0.4890837999999999,-0.1473197999999999,1.346155,-0.2156032,0.03869436,0.4559485,-0.02034989,1.774103,-80.22592,32.05
1,-0.122879,-0.2424927,0.962326,0.7497994,-0.1973877,-0.2709045,0.9421387,-30.588420000000003,2.990479,-28.582890000000003,3.06398,0.4994413,0.5248906999999999,0.881308,-0.06745911,-0.2205047999999999,0.9730377,34.24684,3.848938,-28.41354,3.656464,0.4543935999999999,0.4745245,-0.1489272,1.345315,-0.2149646999999999,0.04123303,0.4480599,-0.02163091,1.774103,-80.22592,32.05
1,-0.122879,-0.2424927,0.962326,0.7497994,-0.1973877,-0.2709045,0.9421387,-30.588420000000003,2.990479,-28.582890000000003,3.06398,0.4994413,0.5248906999999999,0.881308,-0.06745911,-0.2205047999999999,0.9730377,34.24684,3.848938,-28.41354,3.656464,0.4543935999999999,0.4745245,-0.1489272,1.345315,-0.2149646999999999,0.04123303,0.4480599,-0.02163091,1.774103,-80.22592,32.05
1,-0.122879,-0.2424927,0.962326,0.7497994,-0.1973877,-0.2709045,0.9421387,-30.588420000000003,2.990479,-28.582890000000003,3.06398,0.4994413,0.5248906999999999,0.881308,-0.06745911,-0.2205047999999999,0.9730377,34.24684,3.848938,-28.41354,3.656464,0.4543935999999999,0.4745245,-0.1489272,1.345315,-0.2149646999999999,0.04123303,0.4480599,-0.02163091,1.774103,-80.22592,32.05
2,-0.1355591,-0.262207,0.9554291,0.7497182,-0.2192078,-0.2678528,0.9381714,-30.61659,3.000687,-28.58072,3.084259,0.5031036,0.5242760000000001,0.8931851999999999,-0.08543396,-0.2579498,0.9623566,34.18373,3.869171,-28.42802,3.461639,0.4588515,0.478767,-0.150491,1.344079,-0.2143202,0.04342993,0.439904,-0.02430947,1.774103,64.29025,32.05
2,-0.1355591,-0.262207,0.9554291,0.7497182,-0.2192078,-0.2678528,0.9381714,-30.61659,3.000687,-28.58072,3.084259,0.5031036,0.5242760000000001,0.8931851999999999,-0.08543396,-0.2579498,0.9623566,34.18373,3.869171,-28.42802,3.461639,0.4588515,0.478767,-0.150491,1.344079,-0.2143202,0.04342993,0.439904,-0.02430947,1.774103,64.29025,32.05
2,-0.1355591,-0.262207,0.9554291,0.7497182,-0.2192078,-0.2678528,0.9381714,-30.61659,3.000687,-28.58072,3.084259,0.5031036,0.5242760000000001,0.8931851999999999,-0.08543396,-0.2579498,0.9623566,34.18373,3.869171,-28.42802,3.461639,0.4588515,0.478767,-0.150491,1.344079,-0.2143202,0.04342993,0.439904,-0.02430947,1.774103,64.29025,32.05
2,-0.1366425,-0.2597046,0.9559631,0.7387286,-0.2224731,-0.267746,0.937439,-30.64847,2.996521,-28.58295,3.070496,0.5045935,0.5244476,0.8855407,-0.08300781,-0.2537231,0.9636993,34.15176,3.869446,-28.43173,3.486435,0.4596135999999999,0.4782606,-0.1519837,1.342766,-0.2137212,0.04627705,0.430777,-0.02813979,1.774103,64.29025,32.05
2,-0.1366425,-0.2597046,0.9559631,0.7387286,-0.2224731,-0.267746,0.937439,-30.64847,2.996521,-28.58295,3.070496,0.5045935,0.5244476,0.8855407,-0.08300781,-0.2537231,0.9636993,34.15176,3.869446,-28.43173,3.486435,0.4596135999999999,0.4782606,-0.1519837,1.342766,-0.2137212,0.04627705,0.430777,-0.02813979,1.774103,64.29025,32.05
2,-0.1366425,-0.2597046,0.9559631,0.7387286,-0.2224731,-0.267746,0.937439,-30.64847,2.996521,-28.58295,3.070496,0.5045935,0.5244476,0.8855407,-0.08300781,-0.2537231,0.9636993,34.15176,3.869446,-28.43173,3.486435,0.4596135999999999,0.4782606,-0.1519837,1.342766,-0.2137212,0.04627705,0.430777,-0.02813979,1.774103,64.29025,32.05
2,-0.1366425,-0.2597046,0.9559631,0.7387286,-0.2224731,-0.267746,0.937439,-30.64847,2.996521,-28.58295,3.070496,0.5045935,0.5244476,0.8855407,-0.08300781,-0.2537231,0.9636993,34.15176,3.869446,-28.43173,3.486435,0.4596135999999999,0.4782606,-0.1538441,1.341234,-0.2116518999999999,0.05145738,0.408962,-0.03204828,1.774103,64.29025,32.05
2,-0.1366425,-0.2597046,0.9559631,0.7387286,-0.2224731,-0.267746,0.937439,-30.64847,2.996521,-28.58295,3.070496,0.5045935,0.5244476,0.8855407,-0.08300781,-0.2537231,0.9636993,34.15176,3.869446,-28.43173,3.486435,0.4596135999999999,0.4782606,-0.1538441,1.341234,-0.2116518999999999,0.05145738,0.408962,-0.03204828,1.774103,64.29025,32.05
2,-0.1366425,-0.2597046,0.9559631,0.7387286,-0.2224731,-0.267746,0.937439,-30.64847,2.996521,-28.58295,3.070496,0.5045935,0.5244476,0.8855407,-0.08300781,-0.2537231,0.9636993,34.15176,3.869446,-28.43173,3.486435,0.4596135999999999,0.4782606,-0.1538441,1.341234,-0.2116518999999999,0.05145738,0.408962,-0.03204828,1.774103,64.29025,32.05
2,-0.1392365,-0.247757,0.9587555,0.7387286,-0.2213287,-0.2671204,0.9378967,-30.65613,2.994568,-28.58443,3.065979,0.5047119000000001,0.5244492,0.8855407,-0.0877533,-0.234787,0.9680634,34.05003,3.880371,-28.469620000000003,3.671143,0.463369,0.4758963,-0.1538441,1.341234,-0.2116518999999999,0.05145738,0.408962,-0.03204828,1.774103,64.29025,32.05
2,-0.1392365,-0.247757,0.9587555,0.7387286,-0.2213287,-0.2671204,0.9378967,-30.65613,2.994568,-28.58443,3.065979,0.5047119000000001,0.5244492,0.8855407,-0.0877533,-0.234787,0.9680634,34.05003,3.880371,-28.469620000000003,3.671143,0.463369,0.4758963,-0.1538441,1.341234,-0.2116518999999999,0.05145738,0.408962,-0.03204828,1.774103,64.29025,32.05
2,-0.1392365,-0.247757,0.9587555,0.7387286,-0.2213287,-0.2671204,0.9378967,-30.65613,2.994568,-28.58443,3.065979,0.5047119000000001,0.5244492,0.8855407,-0.0877533,-0.234787,0.9680634,34.05003,3.880371,-28.469620000000003,3.671143,0.463369,0.4758963,-0.1538441,1.341234,-0.2116518999999999,0.05145738,0.408962,-0.03204828,1.774103,64.29025,32.05
2,-0.1392365,-0.247757,0.9587555,0.7387286,-0.2213287,-0.2671204,0.9378967,-30.65613,2.994568,-28.58443,3.065979,0.5047119000000001,0.5244492,0.8855407,-0.0877533,-0.234787,0.9680634,34.05003,3.880371,-28.469620000000003,3.671143,0.463369,0.4758963,-0.1552281,1.341336,-0.2097537,0.05270639,0.393103,-0.03044425,1.774103,69.54236,32.05
2,-0.1392365,-0.247757,0.9587555,0.7387286,-0.2213287,-0.2671204,0.9378967,-30.65613,2.994568,-28.58443,3.065979,0.5047119000000001,0.5244492,0.8855407,-0.0877533,-0.234787,0.9680634,34.05003,3.880371,-28.469620000000003,3.671143,0.463369,0.4758963,-0.1552281,1.341336,-0.2097537,0.05270639,0.393103,-0.03044425,1.774103,69.54236,32.05
2,-0.1392365,-0.247757,0.9587555,0.7387286,-0.2213287,-0.2671204,0.9378967,-30.65613,2.994568,-28.58443,3.065979,0.5047119000000001,0.5244492,0.8855407,-0.0877533,-0.234787,0.9680634,34.05003,3.880371,-28.469620000000003,3.671143,0.463369,0.4758963,-0.1552281,1.341336,-0.2097537,0.05270639,0.393103,-0.03044425,1.774103,69.54236,32.05
2,-0.1862792999999999,-0.2378235,0.9532623,0.7474078000000001,-0.2566222999999999,-0.2470856,0.9343872,-30.9017,3.004654,-28.63078,3.078552,0.5174862,0.5222479,0.8994972999999999,-0.1339569,-0.2301941,0.9638671999999998,33.85573,3.883835,-28.53804,3.5420230000000004,0.4755202999999999,0.4761425,-0.1568052999999999,1.341432,-0.207774,0.0552616,0.3730967,-0.02719293,1.774103,69.54236,32.05
2,-0.1862792999999999,-0.2378235,0.9532623,0.7474078000000001,-0.2566222999999999,-0.2470856,0.9343872,-30.9017,3.004654,-28.63078,3.078552,0.5174862,0.5222479,0.8994972999999999,-0.1339569,-0.2301941,0.9638671999999998,33.85573,3.883835,-28.53804,3.5420230000000004,0.4755202999999999,0.4761425,-0.1568052999999999,1.341432,-0.207774,0.0552616,0.3730967,-0.02719293,1.774103,69.54236,32.05
2,-0.1862792999999999,-0.2378235,0.9532623,0.7474078000000001,-0.2566222999999999,-0.2470856,0.9343872,-30.9017,3.004654,-28.63078,3.078552,0.5174862,0.5222479,0.8994972999999999,-0.1339569,-0.2301941,0.9638671999999998,33.85573,3.883835,-28.53804,3.5420230000000004,0.4755202999999999,0.4761425,-0.1568052999999999,1.341432,-0.207774,0.0552616,0.3730967,-0.02719293,1.774103,69.54236,32.05
2,0.3434296,-0.2258911,0.9116058,0.8085736,0.2656708,-0.2616425,0.9278717,-28.46793,2.768539,-28.81718,2.940887,0.3697592999999999,0.5335925,0.7801137,0.4079895,-0.1938934,0.8921509,36.358340000000005,3.77565,-28.71973,3.637894,0.32458,0.4760799,-0.1579115,1.341742,-0.2058313,0.05510579,0.3549532999999999,-0.02569747,1.774103,69.54236,32.05
2,0.3434296,-0.2258911,0.9116058,0.8085736,0.2656708,-0.2616425,0.9278717,-28.46793,2.768539,-28.81718,2.940887,0.3697592999999999,0.5335925,0.7801137,0.4079895,-0.1938934,0.8921509,36.358340000000005,3.77565,-28.71973,3.637894,0.32458,0.4760799,-0.1579115,1.341742,-0.2058313,0.05510579,0.3549532999999999,-0.02569747,1.774103,69.54236,32.05
2,0.3434296,-0.2258911,0.9116058,0.8085736,0.2656708,-0.2616425,0.9278717,-28.46793,2.768539,-28.81718,2.940887,0.3697592999999999,0.5335925,0.7801137,0.4079895,-0.1938934,0.8921509,36.358340000000005,3.77565,-28.71973,3.637894,0.32458,0.4760799,-0.1579115,1.341742,-0.2058313,0.05510579,0.3549532999999999,-0.02569747,1.774103,69.54236,32.05
2,0.3433228,-0.2260284,0.9116058,0.8123809000000001,0.2484131,-0.2732544,0.929306,-28.766140000000004,2.813171,-28.72464,3.0474240000000004,0.3823986,0.5326619,0.8413144,0.4299622,-0.1786652,0.8849792,36.00635,3.838242,-28.59317,3.75769,0.3341000999999999,0.4714062,-0.1583269,1.341955,-0.2040402999999999,0.05590061,0.3366917,-0.02403484,1.774103,69.54236,32.05
2,0.3433228,-0.2260284,0.9116058,0.8123809000000001,0.2484131,-0.2732544,0.929306,-28.766140000000004,2.813171,-28.72464,3.0474240000000004,0.3823986,0.5326619,0.8413144,0.4299622,-0.1786652,0.8849792,36.00635,3.838242,-28.59317,3.75769,0.3341000999999999,0.4714062,-0.1583269,1.341955,-0.2040402999999999,0.05590061,0.3366917,-0.02403484,1.774103,69.54236,32.05
2,0.3433228,-0.2260284,0.9116058,0.8123809000000001,0.2484131,-0.2732544,0.929306,-28.766140000000004,2.813171,-28.72464,3.0474240000000004,0.3823986,0.5326619,0.8413144,0.4299622,-0.1786652,0.8849792,36.00635,3.838242,-28.59317,3.75769,0.3341000999999999,0.4714062,-0.1583269,1.341955,-0.2040402999999999,0.05590061,0.3366917,-0.02403484,1.774103,69.54236,32.05
2,0.2334137,-0.2793274,0.9313812,0.8122005,0.1758118,-0.2611542,0.9491425,-29.04387,2.708145,-28.6953,2.92186,0.4007308,0.5339355,0.8525609000000001,0.3029785,-0.3001709,0.90448,35.7868,3.788498,-28.48636,3.088821,0.3576665999999999,0.4866806999999999,-0.1580236,1.341694,-0.2024485,0.05871379,0.3189069,-0.02344417,1.774103,69.54236,32.05
2,0.2334137,-0.2793274,0.9313812,0.8122005,0.1758118,-0.2611542,0.9491425,-29.04387,2.708145,-28.6953,2.92186,0.4007308,0.5339355,0.8525609000000001,0.3029785,-0.3001709,0.90448,35.7868,3.788498,-28.48636,3.088821,0.3576665999999999,0.4866806999999999,-0.1580236,1.341694,-0.2024485,0.05871379,0.3189069,-0.02344417,1.774103,69.54236,32.05
2,0.2334137,-0.2793274,0.9313812,0.8122005,0.1758118,-0.2611542,0.9491425,-29.04387,2.708145,-28.6953,2.92186,0.4007308,0.5339355,0.8525609000000001,0.3029785,-0.3001709,0.90448,35.7868,3.788498,-28.48636,3.088821,0.3576665999999999,0.4866806999999999,-0.1580236,1.341694,-0.2024485,0.05871379,0.3189069,-0.02344417,1.774103,69.54236,32.05
2,0.2334137,-0.2793274,0.9313812,0.8122005,0.1758118,-0.2611542,0.9491425,-29.04387,2.708145,-28.6953,2.92186,0.4007308,0.5339355,0.8525609000000001,0.3029785,-0.3001709,0.90448,35.7868,3.788498,-28.48636,3.088821,0.3576665999999999,0.4866806999999999,-0.1576395,1.341092,-0.201409,0.06186882,0.3016466,-0.02320492,1.774103,69.54236,32.05
2,0.2334137,-0.2793274,0.9313812,0.8122005,0.1758118,-0.2611542,0.9491425,-29.04387,2.708145,-28.6953,2.92186,0.4007308,0.5339355,0.8525609000000001,0.3029785,-0.3001709,0.90448,35.7868,3.788498,-28.48636,3.088821,0.3576665999999999,0.4866806999999999,-0.1576395,1.341092,-0.201409,0.06186882,0.3016466,-0.02320492,1.774103,69.54236,32.05
2,0.2334137,-0.2793274,0.9313812,0.8122005,0.1758118,-0.2611542,0.9491425,-29.04387,2.708145,-28.6953,2.92186,0.4007308,0.5339355,0.8525609000000001,0.3029785,-0.3001709,0.90448,35.7868,3.788498,-28.48636,3.088821,0.3576665999999999,0.4866806999999999,-0.1576395,1.341092,-0.201409,0.06186882,0.3016466,-0.02320492,1.774103,69.54236,32.05
2,0.1834259,-0.2306518999999999,0.9555817,0.7964498000000001,0.08261108,-0.241333,0.9669037,-29.62825,2.6922,-28.6021,3.012512,0.4323567,0.5307996,0.8467030999999999,0.2384643999999999,-0.2237091,0.9450226,35.23352,3.848236,-28.39293,3.437637,0.3847080999999999,0.4740579000000001,-0.1566787,1.340719,-0.2009303999999999,0.06382351,0.2852224,-0.02239982,1.774103,-232.5098,32.05
2,0.1834259,-0.2306518999999999,0.9555817,0.7964498000000001,0.08261108,-0.241333,0.9669037,-29.62825,2.6922,-28.6021,3.012512,0.4323567,0.5307996,0.8467030999999999,0.2384643999999999,-0.2237091,0.9450226,35.23352,3.848236,-28.39293,3.437637,0.3847080999999999,0.4740579000000001,-0.1566787,1.340719,-0.2009303999999999,0.06382351,0.2852224,-0.02239982,1.774103,-232.5098,32.05
2,0.1834259,-0.2306518999999999,0.9555817,0.7964498000000001,0.08261108,-0.241333,0.9669037,-29.62825,2.6922,-28.6021,3.012512,0.4323567,0.5307996,0.8467030999999999,0.2384643999999999,-0.2237091,0.9450226,35.23352,3.848236,-28.39293,3.437637,0.3847080999999999,0.4740579000000001,-0.1566787,1.340719,-0.2009303999999999,0.06382351,0.2852224,-0.02239982,1.774103,-232.5098,32.05
2,0.1173706,-0.1992187999999999,0.9728851,0.7955055999999999,0.0453186,-0.2269287,0.9728546,-29.79367,2.686874,-28.57677,2.973495,0.4425436,0.5288531,0.8576666,0.1704407,-0.1778717,0.9691771999999998,35.08093,3.841171,-28.45387,3.563278,0.3981095,0.4690742,-0.1553581,1.34079,-0.2009155,0.06400234,0.2690555,-0.02174154,1.774103,-232.5098,32.05
2,0.1173706,-0.1992187999999999,0.9728851,0.7955055999999999,0.0453186,-0.2269287,0.9728546,-29.79367,2.686874,-28.57677,2.973495,0.4425436,0.5288531,0.8576666,0.1704407,-0.1778717,0.9691771999999998,35.08093,3.841171,-28.45387,3.563278,0.3981095,0.4690742,-0.1553581,1.34079,-0.2009155,0.06400234,0.2690555,-0.02174154,1.774103,-232.5098,32.05
2,0.1173706,-0.1992187999999999,0.9728851,0.7955055999999999,0.0453186,-0.2269287,0.9728546,-29.79367,2.686874,-28.57677,2.973495,0.4425436,0.5288531,0.8576666,0.1704407,-0.1778717,0.9691771999999998,35.08093,3.841171,-28.45387,3.563278,0.3981095,0.4690742,-0.1553581,1.34079,-0.2009155,0.06400234,0.2690555,-0.02174154,1.774103,-232.5098,32.05
2,0.1596527,-0.1872406,0.9692383,0.7834361,0.05763245,-0.2053527999999999,0.9769745,-29.68123,2.790802,-28.60732,2.990616,0.4372781,0.5228626000000001,0.8650271999999999,0.2225189,-0.1748962,0.9591064,35.16296,3.93396,-28.47043,3.425934,0.3891062,0.465736,-0.1534631,1.341114,-0.2010662,0.06337213,0.2524622,-0.02190439,1.774103,-232.5098,32.05
2,0.1596527,-0.1872406,0.9692383,0.7834361,0.05763245,-0.2053527999999999,0.9769745,-29.68123,2.790802,-28.60732,2.990616,0.4372781,0.5228626000000001,0.8650271999999999,0.2225189,-0.1748962,0.9591064,35.16296,3.93396,-28.47043,3.425934,0.3891062,0.465736,-0.1534631,1.341114,-0.2010662,0.06337213,0.2524622,-0.02190439,1.774103,-232.5098,32.05
2,0.1596527,-0.1872406,0.9692383,0.7834361,0.05763245,-0.2053527999999999,0.9769745,-29.68123,2.790802,-28.60732,2.990616,0.4372781,0.5228626000000001,0.8650271999999999,0.2225189,-0.1748962,0.9591064,35.16296,3.93396,-28.47043,3.425934,0.3891062,0.465736,-0.1534631,1.341114,-0.2010662,0.06337213,0.2524622,-0.02190439,1.774103,-232.5098,32.05
2,0.2276917,-0.1657562,0.9595032,0.7777763000000001,0.1192168999999999,-0.201416,0.9722136999999998,-29.368740000000003,2.953537,-28.59291,3.049164,0.4192246,0.5167994,0.8462451999999999,0.3149719,-0.1346588,0.9394836,35.42726,4.101578,-28.42819,3.480484,0.3688985999999999,0.4550728,-0.1508579,1.34208,-0.2011748,0.06210176,0.235246,-0.02018631,1.774103,-232.5098,32.05
2,0.2276917,-0.1657562,0.9595032,0.7777763000000001,0.1192168999999999,-0.201416,0.9722136999999998,-29.368740000000003,2.953537,-28.59291,3.049164,0.4192246,0.5167994,0.8462451999999999,0.3149719,-0.1346588,0.9394836,35.42726,4.101578,-28.42819,3.480484,0.3688985999999999,0.4550728,-0.1508579,1.34208,-0.2011748,0.06210176,0.235246,-0.02018631,1.774103,-232.5098,32.05
2,0.2276917,-0.1657562,0.9595032,0.7777763000000001,0.1192168999999999,-0.201416,0.9722136999999998,-29.368740000000003,2.953537,-28.59291,3.049164,0.4192246,0.5167994,0.8462451999999999,0.3149719,-0.1346588,0.9394836,35.42726,4.101578,-28.42819,3.480484,0.3688985999999999,0.4550728,-0.1508579,1.34208,-0.2011748,0.06210176,0.235246,-0.02018631,1.774103,-232.5098,32.05
2,0.3682709,-0.1013641,0.9241638,0.7928536999999999,0.281723,-0.06022644,0.9575958,-28.6653,3.1272580000000003,-28.75877,3.246033,0.3757479,0.4956161,0.7638541,0.3937835999999999,-0.1136321999999999,0.9121399,36.11688,4.383118,-28.5388,3.040817,0.3354217,0.4438375,-0.148242,1.3430879999999998,-0.2015379,0.05921907,0.2175105,-0.01816511,1.774103,-232.5098,32.05
2,0.3682709,-0.1013641,0.9241638,0.7928536999999999,0.281723,-0.06022644,0.9575958,-28.6653,3.1272580000000003,-28.75877,3.246033,0.3757479,0.4956161,0.7638541,0.3937835999999999,-0.1136321999999999,0.9121399,36.11688,4.383118,-28.5388,3.040817,0.3354217,0.4438375,-0.148242,1.3430879999999998,-0.2015379,0.05921907,0.2175105,-0.01816511,1.774103,-232.5098,32.05
2,0.3682709,-0.1013641,0.9241638,0.7928536999999999,0.281723,-0.06022644,0.9575958,-28.6653,3.1272580000000003,-28.75877,3.246033,0.3757479,0.4956161,0.7638541,0.3937835999999999,-0.1136321999999999,0.9121399,36.11688,4.383118,-28.5388,3.040817,0.3354217,0.4438375,-0.148242,1.3430879999999998,-0.2015379,0.05921907,0.2175105,-0.01816511,1.774103,-232.5098,32.05
2,0.360321,-0.0737915,0.9299011,0.7833709,0.2280884,-0.04251099,0.972702,-28.85828,3.050507,-28.714340000000004,3.466385,0.3893169,0.495519,0.7874197,0.4256897,-0.08934021,0.9004363999999999,35.86264,4.336807,-28.51376,3.4687650000000003,0.3400324999999999,0.4427835999999999,-0.1451271,1.343806,-0.2021339999999999,0.05668651,0.2008098999999999,-0.01832885,1.774103,14.58578,32.05
2,0.360321,-0.0737915,0.9299011,0.7833709,0.2280884,-0.04251099,0.972702,-28.85828,3.050507,-28.714340000000004,3.466385,0.3893169,0.495519,0.7874197,0.4256897,-0.08934021,0.9004363999999999,35.86264,4.336807,-28.51376,3.4687650000000003,0.3400324999999999,0.4427835999999999,-0.1451271,1.343806,-0.2021339999999999,0.05668651,0.2008098999999999,-0.01832885,1.774103,14.58578,32.05
2,0.360321,-0.0737915,0.9299011,0.7833709,0.2280884,-0.04251099,0.972702,-28.85828,3.050507,-28.714340000000004,3.466385,0.3893169,0.495519,0.7874197,0.4256897,-0.08934021,0.9004363999999999,35.86264,4.336807,-28.51376,3.4687650000000003,0.3400324999999999,0.4427835999999999,-0.1451271,1.343806,-0.2021339999999999,0.05668651,0.2008098999999999,-0.01832885,1.774103,14.58578,32.05
2,0.360321,-0.0737915,0.9299011,0.7885988,0.2280884,-0.04251099,0.972702,-28.85828,3.050507,-28.714340000000004,3.466385,0.3893169,0.495519,0.7993883,0.4256897,-0.08934021,0.9004363999999999,35.86264,4.336807,-28.51376,3.4687650000000003,0.3400324999999999,0.4427835999999999,-0.1419983,1.3442120000000002,-0.203193,0.05391598,0.1844981,-0.01658764,1.774103,14.58578,32.05
2,0.360321,-0.0737915,0.9299011,0.7885988,0.2280884,-0.04251099,0.972702,-28.85828,3.050507,-28.714340000000004,3.466385,0.3893169,0.495519,0.7993883,0.4256897,-0.08934021,0.9004363999999999,35.86264,4.336807,-28.51376,3.4687650000000003,0.3400324999999999,0.4427835999999999,-0.1419983,1.3442120000000002,-0.203193,0.05391598,0.1844981,-0.01658764,1.774103,14.58578,32.05
2,0.360321,-0.0737915,0.9299011,0.7885988,0.2280884,-0.04251099,0.972702,-28.85828,3.050507,-28.714340000000004,3.466385,0.3893169,0.495519,0.7993883,0.4256897,-0.08934021,0.9004363999999999,35.86264,4.336807,-28.51376,3.4687650000000003,0.3400324999999999,0.4427835999999999,-0.1419983,1.3442120000000002,-0.203193,0.05391598,0.1844981,-0.01658764,1.774103,14.58578,32.05
2,0.360321,-0.0737915,0.9299011,0.7885988,0.2280884,-0.04251099,0.972702,-28.85828,3.050507,-28.714340000000004,3.466385,0.3893169,0.495519,0.7993883,0.4256897,-0.08934021,0.9004363999999999,35.86264,4.336807,-28.51376,3.4687650000000003,0.3400324999999999,0.4427835999999999,-0.1385226,1.344892,-0.2042592999999999,0.05021914,0.1679899,-0.01537892,1.774103,14.58578,32.05
2,0.360321,-0.0737915,0.9299011,0.7885988,0.2280884,-0.04251099,0.972702,-28.85828,3.050507,-28.714340000000004,3.466385,0.3893169,0.495519,0.7993883,0.4256897,-0.08934021,0.9004363999999999,35.86264,4.336807,-28.51376,3.4687650000000003,0.3400324999999999,0.4427835999999999,-0.1385226,1.344892,-0.2042592999999999,0.05021914,0.1679899,-0.01537892,1.774103,14.58578,32.05
2,0.360321,-0.0737915,0.9299011,0.7885988,0.2280884,-0.04251099,0.972702,-28.85828,3.050507,-28.714340000000004,3.466385,0.3893169,0.495519,0.7993883,0.4256897,-0.08934021,0.9004363999999999,35.86264,4.336807,-28.51376,3.4687650000000003,0.3400324999999999,0.4427835999999999,-0.1385226,1.344892,-0.2042592999999999,0.05021914,0.1679899,-0.01537892,1.774103,14.58578,32.05
2,0.2742767,-0.08451843,0.9579163,0.8013220999999999,0.1176146999999999,-0.1289978,0.9846344,-29.24434,3.028717,-28.65608,3.01532,0.4152560999999999,0.5056853,0.8485261999999999,0.3358917,-0.06575012,0.9395905,35.60855,4.232605,-28.45558,3.5529940000000004,0.3602116,0.4425448,-0.1348505,1.3452959999999998,-0.2055421,0.0461542,0.1516834,-0.01676857,1.774103,14.58578,32.05
2,0.2742767,-0.08451843,0.9579163,0.8013220999999999,0.1176146999999999,-0.1289978,0.9846344,-29.24434,3.028717,-28.65608,3.01532,0.4152560999999999,0.5056853,0.8485261999999999,0.3358917,-0.06575012,0.9395905,35.60855,4.232605,-28.45558,3.5529940000000004,0.3602116,0.4425448,-0.1348505,1.3452959999999998,-0.2055421,0.0461542,0.1516834,-0.01676857,1.774103,14.58578,32.05
2,0.2742767,-0.08451843,0.9579163,0.8013220999999999,0.1176146999999999,-0.1289978,0.9846344,-29.24434,3.028717,-28.65608,3.01532,0.4152560999999999,0.5056853,0.8485261999999999,0.3358917,-0.06575012,0.9395905,35.60855,4.232605,-28.45558,3.5529940000000004,0.3602116,0.4425448,-0.1348505,1.3452959999999998,-0.2055421,0.0461542,0.1516834,-0.01676857,1.774103,14.58578,32.05
2,0.2175751,-0.09532166,0.9713745,0.7611796,0.07095337,-0.1653748,0.9836731,-29.46581,3.000214,-28.65616,2.954346,0.4283663,0.5110956,0.8658886,0.2706909,-0.06858826,0.9602051,35.44522,4.085037000000001,-28.51373,3.646317,0.3737034,0.4481904,-0.130955,1.345574,-0.2069239999999999,0.04282233,0.1346266,-0.01804867,1.774103,14.58578,32.05
2,0.2175751,-0.09532166,0.9713745,0.7611796,0.07095337,-0.1653748,0.9836731,-29.46581,3.000214,-28.65616,2.954346,0.4283663,0.5110956,0.8658886,0.2706909,-0.06858826,0.9602051,35.44522,4.085037000000001,-28.51373,3.646317,0.3737034,0.4481904,-0.130955,1.345574,-0.2069239999999999,0.04282233,0.1346266,-0.01804867,1.774103,14.58578,32.05
2,0.2175751,-0.09532166,0.9713745,0.7611796,0.07095337,-0.1653748,0.9836731,-29.46581,3.000214,-28.65616,2.954346,0.4283663,0.5110956,0.8658886,0.2706909,-0.06858826,0.9602051,35.44522,4.085037000000001,-28.51373,3.646317,0.3737034,0.4481904,-0.130955,1.345574,-0.2069239999999999,0.04282233,0.1346266,-0.01804867,1.774103,14.58578,32.05
2,0.2175751,-0.09532166,0.9713745,0.7611796,0.07095337,-0.1653748,0.9836731,-29.46581,3.000214,-28.65616,2.954346,0.4283663,0.5110956,0.8658886,0.2706909,-0.06858826,0.9602051,35.44522,4.085037000000001,-28.51373,3.646317,0.3737034,0.4481904,-0.1264255,1.3462690000000002,-0.2082375,0.03813169,0.1179974999999999,-0.01758152,1.774103,-25.23499,32.05
2,0.2175751,-0.09532166,0.9713745,0.7611796,0.07095337,-0.1653748,0.9836731,-29.46581,3.000214,-28.65616,2.954346,0.4283663,0.5110956,0.8658886,0.2706909,-0.06858826,0.9602051,35.44522,4.085037000000001,-28.51373,3.646317,0.3737034,0.4481904,-0.1264255,1.3462690000000002,-0.2082375,0.03813169,0.1179974999999999,-0.01758152,1.774103,-25.23499,32.05
2,0.2175751,-0.09532166,0.9713745,0.7611796,0.07095337,-0.1653748,0.9836731,-29.46581,3.000214,-28.65616,2.954346,0.4283663,0.5110956,0.8658886,0.2706909,-0.06858826,0.9602051,35.44522,4.085037000000001,-28.51373,3.646317,0.3737034,0.4481904,-0.1264255,1.3462690000000002,-0.2082375,0.03813169,0.1179974999999999,-0.01758152,1.774103,-25.23499,32.05
2,0.1663666,-0.1186371,0.9788971,0.7972111999999999,0.07417297,-0.1538086,0.9853058,-29.37984,3.101242,-28.89467,3.0228580000000003,0.4250849,0.5083396,0.8725828000000001,0.2824402,-0.07174683,0.9565886999999998,35.49658,4.179138,-28.58591,3.706848,0.370406,0.4460268,-0.1218565,1.347165,-0.2093456,0.03365733,0.1005086,-0.01551302,1.774103,-25.23499,32.05
2,0.1663666,-0.1186371,0.9788971,0.7972111999999999,0.07417297,-0.1538086,0.9853058,-29.37984,3.101242,-28.89467,3.0228580000000003,0.4250849,0.5083396,0.8725828000000001,0.2824402,-0.07174683,0.9565886999999998,35.49658,4.179138,-28.58591,3.706848,0.370406,0.4460268,-0.1218565,1.347165,-0.2093456,0.03365733,0.1005086,-0.01551302,1.774103,-25.23499,32.05
2,0.1663666,-0.1186371,0.9788971,0.7972111999999999,0.07417297,-0.1538086,0.9853058,-29.37984,3.101242,-28.89467,3.0228580000000003,0.4250849,0.5083396,0.8725828000000001,0.2824402,-0.07174683,0.9565886999999998,35.49658,4.179138,-28.58591,3.706848,0.370406,0.4460268,-0.1218565,1.347165,-0.2093456,0.03365733,0.1005086,-0.01551302,1.774103,-25.23499,32.05
2,-1.0,-1.0,-1.0,0.8157369999999999,0.0,0.0,0.0,-28.5558,3.207077,-28.86307,-1.0,0.3751563,0.4857619000000001,0.8029208999999999,0.0,0.0,0.0,36.10458,4.506073000000001,-28.63901,-1.0,0.332003,0.4380977,-0.1169305,1.348241,-0.2100545,0.02882359,0.08172751,-0.01373494,1.774103,-25.23499,32.05
2,-1.0,-1.0,-1.0,0.8157369999999999,0.0,0.0,0.0,-28.5558,3.207077,-28.86307,-1.0,0.3751563,0.4857619000000001,0.8029208999999999,0.0,0.0,0.0,36.10458,4.506073000000001,-28.63901,-1.0,0.332003,0.4380977,-0.1169305,1.348241,-0.2100545,0.02882359,0.08172751,-0.01373494,1.774103,-25.23499,32.05
2,-1.0,-1.0,-1.0,0.8157369999999999,0.0,0.0,0.0,-28.5558,3.207077,-28.86307,-1.0,0.3751563,0.4857619000000001,0.8029208999999999,0.0,0.0,0.0,36.10458,4.506073000000001,-28.63901,-1.0,0.332003,0.4380977,-0.1169305,1.348241,-0.2100545,0.02882359,0.08172751,-0.01373494,1.774103,-25.23499,32.05
2,0.3504333,-0.008636475,0.9365386999999998,0.8182246,0.2202606,-0.0362854,0.974762,-28.78433,3.117783,-28.80103,3.3115690000000004,0.3874829999999999,0.4930535,0.8170400999999999,0.394165,0.0009918213,0.9190369,35.9623,4.381516,-28.6423,3.935867,0.340488,0.4313611,-0.1124246,1.348655,-0.2109862,0.02571022,0.06197567,-0.01436804,1.774103,-25.23499,32.05
2,0.3504333,-0.008636475,0.9365386999999998,0.8182246,0.2202606,-0.0362854,0.974762,-28.78433,3.117783,-28.80103,3.3115690000000004,0.3874829999999999,0.4930535,0.8170400999999999,0.394165,0.0009918213,0.9190369,35.9623,4.381516,-28.6423,3.935867,0.340488,0.4313611,-0.1124246,1.348655,-0.2109862,0.02571022,0.06197567,-0.01436804,1.774103,-25.23499,32.05
2,0.3504333,-0.008636475,0.9365386999999998,0.8182246,0.2202606,-0.0362854,0.974762,-28.78433,3.117783,-28.80103,3.3115690000000004,0.3874829999999999,0.4930535,0.8170400999999999,0.394165,0.0009918213,0.9190369,35.9623,4.381516,-28.6423,3.935867,0.340488,0.4313611,-0.1124246,1.348655,-0.2109862,0.02571022,0.06197567,-0.01436804,1.774103,-25.23499,32.05
2,0.3135986,-0.03863525,0.948761,0.7913864,0.1913452,-0.03108215,0.9810181,-28.88043,3.087814,-28.7963,3.349335,0.394358,0.4933098,0.8404642,0.3755950999999999,-0.04234314,0.9258118,35.9052,4.32402,-28.60767,3.817505,0.3448495,0.4380787999999999,-0.1075541999999999,1.349015,-0.2118828999999999,0.02236887,0.0439231,-0.01326192,1.774103,-25.23499,32.05
2,0.3135986,-0.03863525,0.948761,0.7913864,0.1913452,-0.03108215,0.9810181,-28.88043,3.087814,-28.7963,3.349335,0.394358,0.4933098,0.8404642,0.3755950999999999,-0.04234314,0.9258118,35.9052,4.32402,-28.60767,3.817505,0.3448495,0.4380787999999999,-0.1075541999999999,1.349015,-0.2118828999999999,0.02236887,0.0439231,-0.01326192,1.774103,-25.23499,32.05
2,0.3135986,-0.03863525,0.948761,0.7913864,0.1913452,-0.03108215,0.9810181,-28.88043,3.087814,-28.7963,3.349335,0.394358,0.4933098,0.8404642,0.3755950999999999,-0.04234314,0.9258118,35.9052,4.32402,-28.60767,3.817505,0.3448495,0.4380787999999999,-0.1075541999999999,1.349015,-0.2118828999999999,0.02236887,0.0439231,-0.01326192,1.774103,-25.23499,32.05
2,0.3054352,-0.0362854,0.9515076,0.7913864,0.1751098999999999,-0.05348206,0.983078,-28.93755,3.087051,-28.79463,3.152237,0.3979955999999999,0.4958549,0.8404642,0.3726654,-0.02684021,0.9275665,35.853559999999995,4.307785,-28.606890000000003,3.650208,0.3470345999999999,0.436667,-0.1030777,1.349295,-0.2131718,0.01867436,0.02574179,-0.0111686,1.774103,-12.68173,32.05
2,0.3054352,-0.0362854,0.9515076,0.7913864,0.1751098999999999,-0.05348206,0.983078,-28.93755,3.087051,-28.79463,3.152237,0.3979955999999999,0.4958549,0.8404642,0.3726654,-0.02684021,0.9275665,35.853559999999995,4.307785,-28.606890000000003,3.650208,0.3470345999999999,0.436667,-0.1030777,1.349295,-0.2131718,0.01867436,0.02574179,-0.0111686,1.774103,-12.68173,32.05
2,0.3054352,-0.0362854,0.9515076,0.7913864,0.1751098999999999,-0.05348206,0.983078,-28.93755,3.087051,-28.79463,3.152237,0.3979955999999999,0.4958549,0.8404642,0.3726654,-0.02684021,0.9275665,35.853559999999995,4.307785,-28.606890000000003,3.650208,0.3470345999999999,0.436667,-0.1030777,1.349295,-0.2131718,0.01867436,0.02574179,-0.0111686,1.774103,-12.68173,32.05
2,0.2441254,-0.03869629,0.9689636,0.7142841,0.05633545,-0.1437378,0.9880065999999998,-29.38553,2.817581,-28.0193,3.106705,0.4277329000000001,0.5090055,0.8653951999999999,0.2441711,-0.03866577,0.9689484,35.4828,4.123337,-28.8069,3.785843,0.3753015999999999,0.4457072,-0.09825444,1.349115,-0.2147377,0.01626332,0.009094033,-0.01186408,1.774103,-12.68173,32.05
2,0.2441254,-0.03869629,0.9689636,0.7142841,0.05633545,-0.1437378,0.9880065999999998,-29.38553,2.817581,-28.0193,3.106705,0.4277329000000001,0.5090055,0.8653951999999999,0.2441711,-0.03866577,0.9689484,35.4828,4.123337,-28.8069,3.785843,0.3753015999999999,0.4457072,-0.09825444,1.349115,-0.2147377,0.01626332,0.009094033,-0.01186408,1.774103,-12.68173,32.05
2,0.2441254,-0.03869629,0.9689636,0.7142841,0.05633545,-0.1437378,0.9880065999999998,-29.38553,2.817581,-28.0193,3.106705,0.4277329000000001,0.5090055,0.8653951999999999,0.2441711,-0.03866577,0.9689484,35.4828,4.123337,-28.8069,3.785843,0.3753015999999999,0.4457072,-0.09825444,1.349115,-0.2147377,0.01626332,0.009094033,-0.01186408,1.774103,-12.68173,32.05
2,0.1802672999999999,-0.04425049,0.9826202,0.7247859,0.03517151,-0.1052246,0.9938202,-29.59583,3.016144,-28.884120000000003,3.224838,0.437457,0.5052220000000001,0.8775641,0.1948089999999999,-0.03796387,0.9801025,35.30228,4.251434,-29.434490000000004,3.757446,0.3867930999999999,0.4463845,-0.09362221,1.349275,-0.2165522,0.01277605,-0.006443185,-0.01002464,1.772822,-12.68173,32.05
2,0.1802672999999999,-0.04425049,0.9826202,0.7247859,0.03517151,-0.1052246,0.9938202,-29.59583,3.016144,-28.884120000000003,3.224838,0.437457,0.5052220000000001,0.8775641,0.1948089999999999,-0.03796387,0.9801025,35.30228,4.251434,-29.434490000000004,3.757446,0.3867930999999999,0.4463845,-0.09362221,1.349275,-0.2165522,0.01277605,-0.006443185,-0.01002464,1.875335,-12.68173,32.05
2,0.1802672999999999,-0.04425049,0.9826202,0.7247859,0.03517151,-0.1052246,0.9938202,-29.59583,3.016144,-28.884120000000003,3.224838,0.437457,0.5052220000000001,0.8775641,0.1948089999999999,-0.03796387,0.9801025,35.30228,4.251434,-29.434490000000004,3.757446,0.3867930999999999,0.4463845,-0.09362221,1.349275,-0.2165522,0.01277605,-0.006443185,-0.01002464,1.875335,-12.68173,32.05
2,0.1802672999999999,-0.04425049,0.9826202,0.7273182,0.03517151,-0.1052246,0.9938202,-29.59583,3.016144,-28.884120000000003,3.224838,0.437457,0.5052220000000001,0.8747037,0.1948089999999999,-0.03796387,0.9801025,35.30228,4.251434,-29.434490000000004,3.757446,0.3867930999999999,0.4463845,-0.08593774,1.35144,-0.2201167,-0.0015344,-0.03527684,-0.01201137,1.875335,-12.68173,32.05
2,0.1802672999999999,-0.04425049,0.9826202,0.7273182,0.03517151,-0.1052246,0.9938202,-29.59583,3.016144,-28.884120000000003,3.224838,0.437457,0.5052220000000001,0.8747037,0.1948089999999999,-0.03796387,0.9801025,35.30228,4.251434,-29.434490000000004,3.757446,0.3867930999999999,0.4463845,-0.08593774,1.35144,-0.2201167,-0.0015344,-0.03527684,-0.01201137,1.875335,-12.68173,32.05
2,0.1802672999999999,-0.04425049,0.9826202,0.7273182,0.03517151,-0.1052246,0.9938202,-29.59583,3.016144,-28.884120000000003,3.224838,0.437457,0.5052220000000001,0.8747037,0.1948089999999999,-0.03796387,0.9801025,35.30228,4.251434,-29.434490000000004,3.757446,0.3867930999999999,0.4463845,-0.08593774,1.35144,-0.2201167,-0.0015344,-0.03527684,-0.01201137,1.875335,-12.68173,32.05
3,0.1237183,-0.07507324,0.9894714,0.7305056,-0.05737305,-0.1312256,0.9896851,-29.88351,2.723801,-28.11847,3.2155150000000003,0.4583929,0.5116653,0.8796271000000001,0.1237183,-0.07507324,0.9894562,35.04425,4.117416,-29.40358,3.778412,0.404106,0.4552396999999999,-0.08355045,1.352058,-0.2226267,-0.006624494,-0.05115882,-0.01113252,1.875335,-12.68173,32.05
3,0.1237183,-0.07507324,0.9894714,0.7305056,-0.05737305,-0.1312256,0.9896851,-29.88351,2.723801,-28.11847,3.2155150000000003,0.4583929,0.5116653,0.8796271000000001,0.1237183,-0.07507324,0.9894562,35.04425,4.117416,-29.40358,3.778412,0.404106,0.4552396999999999,-0.08355045,1.352058,-0.2226267,-0.006624494,-0.05115882,-0.01113252,1.875335,-12.68173,32.05
3,0.1237183,-0.07507324,0.9894714,0.7305056,-0.05737305,-0.1312256,0.9896851,-29.88351,2.723801,-28.11847,3.2155150000000003,0.4583929,0.5116653,0.8796271000000001,0.1237183,-0.07507324,0.9894562,35.04425,4.117416,-29.40358,3.778412,0.404106,0.4552396999999999,-0.08355045,1.352058,-0.2226267,-0.006624494,-0.05115882,-0.01113252,1.875335,-12.68173,32.05
3,0.3812866,0.1400604,0.9137726,0.7158948,0.1726227,0.03727722,0.9842682,-28.6981,3.523224,-28.83675,3.395111,0.3905998,0.4705087999999999,0.8685125,0.3812866,0.1400604,0.9137726,36.03226,4.779602,-29.12654,4.024001999999999,0.3388666999999999,0.4051011,-0.08133531,1.3532879999999998,-0.2250933,-0.01496694,-0.07021867,-0.008725254,1.875335,-7.677887,32.05
3,0.3812866,0.1400604,0.9137726,0.7158948,0.1726227,0.03727722,0.9842682,-28.6981,3.523224,-28.83675,3.395111,0.3905998,0.4705087999999999,0.8685125,0.3812866,0.1400604,0.9137726,36.03226,4.779602,-29.12654,4.024001999999999,0.3388666999999999,0.4051011,-0.08133531,1.3532879999999998,-0.2250933,-0.01496694,-0.07021867,-0.008725254,1.875335,-7.677887,32.05
3,0.3812866,0.1400604,0.9137726,0.7158948,0.1726227,0.03727722,0.9842682,-28.6981,3.523224,-28.83675,3.395111,0.3905998,0.4705087999999999,0.8685125,0.3812866,0.1400604,0.9137726,36.03226,4.779602,-29.12654,4.024001999999999,0.3388666999999999,0.4051011,-0.08133531,1.3532879999999998,-0.2250933,-0.01496694,-0.07021867,-0.008725254,1.875335,-7.677887,32.05
3,0.3078156,0.07235718,0.9486847,0.7602369999999999,0.1135712,0.03268433,0.992981,-28.92639,3.616455,-29.663120000000003,3.3394470000000003,0.4051344,0.4748134,0.8900935,0.3078156,0.07235718,0.9486847,35.90289,4.588806,-29.02225,3.891617,0.3528708,0.4184952,-0.0792674999999999,1.35446,-0.2270215,-0.02372093,-0.08707414,-0.009400999,1.875335,-7.677887,32.05
3,0.3078156,0.07235718,0.9486847,0.7602369999999999,0.1135712,0.03268433,0.992981,-28.92639,3.616455,-29.663120000000003,3.3394470000000003,0.4051344,0.4748134,0.8900935,0.3078156,0.07235718,0.9486847,35.90289,4.588806,-29.02225,3.891617,0.3528708,0.4184952,-0.0792674999999999,1.35446,-0.2270215,-0.02372093,-0.08707414,-0.009400999,1.875335,-7.677887,32.05
3,0.3078156,0.07235718,0.9486847,0.7602369999999999,0.1135712,0.03268433,0.992981,-28.92639,3.616455,-29.663120000000003,3.3394470000000003,0.4051344,0.4748134,0.8900935,0.3078156,0.07235718,0.9486847,35.90289,4.588806,-29.02225,3.891617,0.3528708,0.4184952,-0.0792674999999999,1.35446,-0.2270215,-0.02372093,-0.08707414,-0.009400999,1.875335,-7.677887,32.05
3,0.2890472,0.09501648,0.9525757,0.765116,0.08766174,0.04957581,0.9949036,-29.054140000000004,3.45813,-29.32726,3.420837,0.4128780999999999,0.4753904,0.8814325999999999,0.2891845999999999,0.095047,0.9525299,35.81381,4.488403,-29.025540000000003,3.925201,0.3582053,0.4192957999999999,-0.07788181,1.354742,-0.228923,-0.02925616,-0.1013193999999999,-0.00865581,1.875335,-7.677887,32.05
3,0.2890472,0.09501648,0.9525757,0.765116,0.08766174,0.04957581,0.9949036,-29.054140000000004,3.45813,-29.32726,3.420837,0.4128780999999999,0.4753904,0.8814325999999999,0.2891845999999999,0.095047,0.9525299,35.81381,4.488403,-29.025540000000003,3.925201,0.3582053,0.4192957999999999,-0.07788181,1.354742,-0.228923,-0.02925616,-0.1013193999999999,-0.00865581,1.875335,-7.677887,32.05
3,0.2890472,0.09501648,0.9525757,0.765116,0.08766174,0.04957581,0.9949036,-29.054140000000004,3.45813,-29.32726,3.420837,0.4128780999999999,0.4753904,0.8814325999999999,0.2891845999999999,0.095047,0.9525299,35.81381,4.488403,-29.025540000000003,3.925201,0.3582053,0.4192957999999999,-0.07788181,1.354742,-0.228923,-0.02925616,-0.1013193999999999,-0.00865581,1.875335,-7.677887,32.05
3,0.04240417,-0.0025177,0.9990845,0.7443962,0.03684998,-0.004974365,0.9992981,-29.42836,3.14975,-28.58025,3.22113,0.4317398,0.4858284,0.8984264000000001,0.2169952,0.07542419,0.9732361,35.47572,4.568405,-29.9671,3.968353,0.3775147,0.4265282,-0.07596803,1.354989,-0.2300295,-0.03314316,-0.1145487,-0.005664115,1.875335,-7.677887,32.05
3,0.04240417,-0.0025177,0.9990845,0.7443962,0.03684998,-0.004974365,0.9992981,-29.42836,3.14975,-28.58025,3.22113,0.4317398,0.4858284,0.8984264000000001,0.2169952,0.07542419,0.9732361,35.47572,4.568405,-29.9671,3.968353,0.3775147,0.4265282,-0.07596803,1.354989,-0.2300295,-0.03314316,-0.1145487,-0.005664115,1.875335,-7.677887,32.05
3,0.04240417,-0.0025177,0.9990845,0.7443962,0.03684998,-0.004974365,0.9992981,-29.42836,3.14975,-28.58025,3.22113,0.4317398,0.4858284,0.8984264000000001,0.2169952,0.07542419,0.9732361,35.47572,4.568405,-29.9671,3.968353,0.3775147,0.4265282,-0.07596803,1.354989,-0.2300295,-0.03314316,-0.1145487,-0.005664115,1.875335,-7.677887,32.05
3,0.03573608,-0.02061462,0.9991455,0.7543079,0.03179932,-0.02297974,0.9992218,-29.56688,3.227722,-28.91934,3.222397,0.4370002999999999,0.4882992999999999,0.8911126,0.2171631,0.08944702,0.9720154,35.38454,4.6097410000000005,-30.09204,4.119202,0.3804047,0.4246667999999999,-0.07411551,1.355559,-0.2302795,-0.038662,-0.1262361,-0.004202127,1.875335,-7.677887,32.05
3,0.03573608,-0.02061462,0.9991455,0.7543079,0.03179932,-0.02297974,0.9992218,-29.56688,3.227722,-28.91934,3.222397,0.4370002999999999,0.4882992999999999,0.8911126,0.2171631,0.08944702,0.9720154,35.38454,4.6097410000000005,-30.09204,4.119202,0.3804047,0.4246667999999999,-0.07411551,1.355559,-0.2302795,-0.038662,-0.1262361,-0.004202127,1.875335,-7.677887,32.05
3,0.03573608,-0.02061462,0.9991455,0.7543079,0.03179932,-0.02297974,0.9992218,-29.56688,3.227722,-28.91934,3.222397,0.4370002999999999,0.4882992999999999,0.8911126,0.2171631,0.08944702,0.9720154,35.38454,4.6097410000000005,-30.09204,4.119202,0.3804047,0.4246667999999999,-0.07411551,1.355559,-0.2302795,-0.038662,-0.1262361,-0.004202127,1.875335,-7.677887,32.05
3,-0.01989746,0.006866455,0.9997711,0.7538238,-0.01989746,0.006866455,0.9997711,-29.78377,3.131653,-28.70842,3.297806,0.4507314999999999,0.486292,0.8762169,0.1276093,0.05776978,0.9901276,35.22121,4.763977,-31.03609,3.780823,0.3961978,0.4305619,-0.07306099,1.356685,-0.229613,-0.044272,-0.1361042999999999,-0.0053460669999999,1.875335,-14.01543,32.05
3,-0.01989746,0.006866455,0.9997711,0.7538238,-0.01989746,0.006866455,0.9997711,-29.78377,3.131653,-28.70842,3.297806,0.4507314999999999,0.486292,0.8762169,0.1276093,0.05776978,0.9901276,35.22121,4.763977,-31.03609,3.780823,0.3961978,0.4305619,-0.07306099,1.356685,-0.229613,-0.044272,-0.1361042999999999,-0.0053460669999999,1.875335,-14.01543,32.05
3,-0.01989746,0.006866455,0.9997711,0.7538238,-0.01989746,0.006866455,0.9997711,-29.78377,3.131653,-28.70842,3.297806,0.4507314999999999,0.486292,0.8762169,0.1276093,0.05776978,0.9901276,35.22121,4.763977,-31.03609,3.780823,0.3961978,0.4305619,-0.07306099,1.356685,-0.229613,-0.044272,-0.1361042999999999,-0.0053460669999999,1.875335,-14.01543,32.05
3,-0.03546143,0.0007171631,0.9993591,0.7366043999999999,-0.03546143,0.0007171631,0.9993591,-29.81183,3.033249,-28.39882,3.334427,0.4535837,0.4877419,0.8819457,0.1204987,0.03173828,0.9922028,35.19672,4.62886,-30.64514,3.824844,0.3982202,0.4351679,-0.0724678,1.357679,-0.2284792,-0.0495231,-0.1488492,-0.004268972,1.875335,-14.01543,32.05
3,-0.03546143,0.0007171631,0.9993591,0.7366043999999999,-0.03546143,0.0007171631,0.9993591,-29.81183,3.033249,-28.39882,3.334427,0.4535837,0.4877419,0.8819457,0.1204987,0.03173828,0.9922028,35.19672,4.62886,-30.64514,3.824844,0.3982202,0.4351679,-0.0724678,1.357679,-0.2284792,-0.0495231,-0.1488492,-0.004268972,1.875335,-14.01543,32.05
3,-0.03546143,0.0007171631,0.9993591,0.7366043999999999,-0.03546143,0.0007171631,0.9993591,-29.81183,3.033249,-28.39882,3.334427,0.4535837,0.4877419,0.8819457,0.1204987,0.03173828,0.9922028,35.19672,4.62886,-30.64514,3.824844,0.3982202,0.4351679,-0.0724678,1.357679,-0.2284792,-0.0495231,-0.1488492,-0.004268972,1.875335,-14.01543,32.05
3,-0.03546143,0.0007171631,0.9993591,0.7366043999999999,-0.03546143,0.0007171631,0.9993591,-29.81183,3.033249,-28.39882,3.334427,0.4535837,0.4877419,0.8819457,0.1204987,0.03173828,0.9922028,35.19672,4.62886,-30.64514,3.824844,0.3982202,0.4351679,-0.0720891999999999,1.358315,-0.2267029,-0.05239761,-0.162891,-0.004937439,1.875335,-14.01543,32.05
3,-0.03546143,0.0007171631,0.9993591,0.7366043999999999,-0.03546143,0.0007171631,0.9993591,-29.81183,3.033249,-28.39882,3.334427,0.4535837,0.4877419,0.8819457,0.1204987,0.03173828,0.9922028,35.19672,4.62886,-30.64514,3.824844,0.3982202,0.4351679,-0.0720891999999999,1.358315,-0.2267029,-0.05239761,-0.162891,-0.004937439,1.875335,-14.01543,32.05
3,-0.03546143,0.0007171631,0.9993591,0.7366043999999999,-0.03546143,0.0007171631,0.9993591,-29.81183,3.033249,-28.39882,3.334427,0.4535837,0.4877419,0.8819457,0.1204987,0.03173828,0.9922028,35.19672,4.62886,-30.64514,3.824844,0.3982202,0.4351679,-0.0720891999999999,1.358315,-0.2267029,-0.05239761,-0.162891,-0.004937439,1.875335,-14.01543,32.05
3,0.2913361,0.02716064,0.9562225,0.7724138,0.2913361,0.02716064,0.9562225,-28.232440000000004,3.00589,-29.07497,3.395996,0.3596889,0.4919180999999999,0.7854095,0.4762114999999999,0.03787231,0.8785094999999999,36.459990000000005,4.529449,-30.15973,3.837158,0.309901,0.4342497999999999,-0.07230043,1.358811,-0.2245033,-0.05476415,-0.1776354,-0.0050758359999999,1.875335,-14.01543,32.05
3,0.2913361,0.02716064,0.9562225,0.7724138,0.2913361,0.02716064,0.9562225,-28.232440000000004,3.00589,-29.07497,3.395996,0.3596889,0.4919180999999999,0.7854095,0.4762114999999999,0.03787231,0.8785094999999999,36.459990000000005,4.529449,-30.15973,3.837158,0.309901,0.4342497999999999,-0.07230043,1.358811,-0.2245033,-0.05476415,-0.1776354,-0.0050758359999999,1.875335,-14.01543,32.05
3,0.2913361,0.02716064,0.9562225,0.7724138,0.2913361,0.02716064,0.9562225,-28.232440000000004,3.00589,-29.07497,3.395996,0.3596889,0.4919180999999999,0.7854095,0.4762114999999999,0.03787231,0.8785094999999999,36.459990000000005,4.529449,-30.15973,3.837158,0.309901,0.4342497999999999,-0.07230043,1.358811,-0.2245033,-0.05476415,-0.1776354,-0.0050758359999999,1.875335,-14.01543,32.05
3,0.5107574,0.1594543,0.8448029,0.8692455,0.3251953,0.02030945,0.9454193,-28.36633,2.955566,-29.06657,3.484543,0.3602355,0.4947752,0.8034893,0.5167084,0.1641693,0.8402709999999999,36.45041,4.514221,-30.27437,4.616074,0.3040662,0.4214372999999999,-0.07226181,1.359548,-0.2217538999999999,-0.05832854,-0.1919966,-0.005383564,1.875335,-14.01543,32.05
3,0.5107574,0.1594543,0.8448029,0.8692455,0.3251953,0.02030945,0.9454193,-28.36633,2.955566,-29.06657,3.484543,0.3602355,0.4947752,0.8034893,0.5167084,0.1641693,0.8402709999999999,36.45041,4.514221,-30.27437,4.616074,0.3040662,0.4214372999999999,-0.07226181,1.359548,-0.2217538999999999,-0.05832854,-0.1919966,-0.005383564,1.875335,-14.01543,32.05
3,0.5107574,0.1594543,0.8448029,0.8692455,0.3251953,0.02030945,0.9454193,-28.36633,2.955566,-29.06657,3.484543,0.3602355,0.4947752,0.8034893,0.5167084,0.1641693,0.8402709999999999,36.45041,4.514221,-30.27437,4.616074,0.3040662,0.4214372999999999,-0.07226181,1.359548,-0.2217538999999999,-0.05832854,-0.1919966,-0.005383564,1.875335,-14.01543,32.05
3,0.4389648,0.01716614,0.8983306999999999,0.8323565999999999,0.2848358,-0.009246826,0.9585266,-28.50003,2.884598,-28.99847,3.3095550000000005,0.3695775,0.4997892,0.8087416999999999,0.4750061,0.02359009,0.8796539000000001,36.35623,4.407654,-30.10971,3.788971,0.3138264,0.4398349,-0.072263,1.359999,-0.2183751,-0.06054897,-0.2027555,-0.006895623,1.875335,157.9477,32.05
3,0.4389648,0.01716614,0.8983306999999999,0.8323565999999999,0.2848358,-0.009246826,0.9585266,-28.50003,2.884598,-28.99847,3.3095550000000005,0.3695775,0.4997892,0.8087416999999999,0.4750061,0.02359009,0.8796539000000001,36.35623,4.407654,-30.10971,3.788971,0.3138264,0.4398349,-0.072263,1.359999,-0.2183751,-0.06054897,-0.2027555,-0.006895623,1.875335,157.9477,32.05
3,0.4389648,0.01716614,0.8983306999999999,0.8323565999999999,0.2848358,-0.009246826,0.9585266,-28.50003,2.884598,-28.99847,3.3095550000000005,0.3695775,0.4997892,0.8087416999999999,0.4750061,0.02359009,0.8796539000000001,36.35623,4.407654,-30.10971,3.788971,0.3138264,0.4398349,-0.072263,1.359999,-0.2183751,-0.06054897,-0.2027555,-0.006895623,1.875335,157.9477,32.05
3,0.3376007,0.04081726,0.9403992,0.8620493,0.2466583,0.01687622,0.9689484,-28.62912,2.86087,-28.96548,3.4446260000000004,0.3789785,0.4970472999999999,0.9158249,0.416687,0.06201172,0.9069214,36.38394,4.311035,-30.14136,4.072815,0.3204256,0.4385434,-0.07142401,1.36061,-0.2138489,-0.06296024,-0.209589,-0.006834847,1.875335,157.9477,32.05
3,0.3376007,0.04081726,0.9403992,0.8620493,0.2466583,0.01687622,0.9689484,-28.62912,2.86087,-28.96548,3.4446260000000004,0.3789785,0.4970472999999999,0.9158249,0.416687,0.06201172,0.9069214,36.38394,4.311035,-30.14136,4.072815,0.3204256,0.4385434,-0.07142401,1.36061,-0.2138489,-0.06296024,-0.209589,-0.006834847,1.875335,157.9477,32.05
3,0.3376007,0.04081726,0.9403992,0.8620493,0.2466583,0.01687622,0.9689484,-28.62912,2.86087,-28.96548,3.4446260000000004,0.3789785,0.4970472999999999,0.9158249,0.416687,0.06201172,0.9069214,36.38394,4.311035,-30.14136,4.072815,0.3204256,0.4385434,-0.07142401,1.36061,-0.2138489,-0.06296024,-0.209589,-0.006834847,1.875335,157.9477,32.05
3,0.3376007,0.04081726,0.9403992,0.8620493,0.2466583,0.01687622,0.9689484,-28.62912,2.86087,-28.96548,3.4446260000000004,0.3789785,0.4970472999999999,0.9158249,0.416687,0.06201172,0.9069214,36.38394,4.311035,-30.14136,4.072815,0.3204256,0.4385434,-0.07098365,1.36056,-0.2090774,-0.06399059,-0.2165630999999999,-0.00499296,1.875335,157.9477,32.05
3,0.3376007,0.04081726,0.9403992,0.8620493,0.2466583,0.01687622,0.9689484,-28.62912,2.86087,-28.96548,3.4446260000000004,0.3789785,0.4970472999999999,0.9158249,0.416687,0.06201172,0.9069214,36.38394,4.311035,-30.14136,4.072815,0.3204256,0.4385434,-0.07098365,1.36056,-0.2090774,-0.06399059,-0.2165630999999999,-0.00499296,1.875335,157.9477,32.05
3,0.3376007,0.04081726,0.9403992,0.8620493,0.2466583,0.01687622,0.9689484,-28.62912,2.86087,-28.96548,3.4446260000000004,0.3789785,0.4970472999999999,0.9158249,0.416687,0.06201172,0.9069214,36.38394,4.311035,-30.14136,4.072815,0.3204256,0.4385434,-0.07098365,1.36056,-0.2090774,-0.06399059,-0.2165630999999999,-0.00499296,1.875335,157.9477,32.05
3,0.2659454,-0.01948547,0.9637756,0.805724,0.1890106,-0.07772827,0.9788818,-28.9375,2.819366,-28.87595,3.181976,0.3961719999999999,0.5087379,0.8597607,0.3252410999999999,0.02688599,0.9452362,36.13434,4.21788,-29.99031,3.697891,0.3413037,0.4441464,-0.07090282,1.360952,-0.2034947999999999,-0.06408285,-0.2226958999999999,-0.00649157,1.875335,157.9477,32.05
3,0.2659454,-0.01948547,0.9637756,0.805724,0.1890106,-0.07772827,0.9788818,-28.9375,2.819366,-28.87595,3.181976,0.3961719999999999,0.5087379,0.8597607,0.3252410999999999,0.02688599,0.9452362,36.13434,4.21788,-29.99031,3.697891,0.3413037,0.4441464,-0.07090282,1.360952,-0.2034947999999999,-0.06408285,-0.2226958999999999,-0.00649157,1.875335,157.9477,32.05
3,0.2659454,-0.01948547,0.9637756,0.805724,0.1890106,-0.07772827,0.9788818,-28.9375,2.819366,-28.87595,3.181976,0.3961719999999999,0.5087379,0.8597607,0.3252410999999999,0.02688599,0.9452362,36.13434,4.21788,-29.99031,3.697891,0.3413037,0.4441464,-0.07090282,1.360952,-0.2034947999999999,-0.06408285,-0.2226958999999999,-0.00649157,1.875335,157.9477,32.05
3,0.2197876,-0.04225159,0.9746246,0.761011,0.1725159,-0.06689453,0.9827271,-29.02147,2.874817,-28.96896,3.28006,0.4011862,0.5063429,0.8601023999999999,0.2965239999999999,-0.001266479,0.9550171,36.06483,4.219238,-29.94649,3.669876,0.3474127999999999,0.4470478,-0.07097411,1.361381,-0.1972688,-0.06477749,-0.2293842999999999,-0.007053721,1.875335,157.9477,32.05
3,0.2197876,-0.04225159,0.9746246,0.761011,0.1725159,-0.06689453,0.9827271,-29.02147,2.874817,-28.96896,3.28006,0.4011862,0.5063429,0.8601023999999999,0.2965239999999999,-0.001266479,0.9550171,36.06483,4.219238,-29.94649,3.669876,0.3474127999999999,0.4470478,-0.07097411,1.361381,-0.1972688,-0.06477749,-0.2293842999999999,-0.007053721,1.875335,157.9477,32.05
3,0.2197876,-0.04225159,0.9746246,0.761011,0.1725159,-0.06689453,0.9827271,-29.02147,2.874817,-28.96896,3.28006,0.4011862,0.5063429,0.8601023999999999,0.2965239999999999,-0.001266479,0.9550171,36.06483,4.219238,-29.94649,3.669876,0.3474127999999999,0.4470478,-0.07097411,1.361381,-0.1972688,-0.06477749,-0.2293842999999999,-0.007053721,1.875335,157.9477,32.05
3,0.2390289,-0.01997375,0.9707947,0.7659618,0.1585999,-0.06474304,0.9852142,-29.04837,2.893326,-29.0121,3.2441560000000003,0.4037416,0.5057598,0.8613693000000001,0.2685547,-0.003189087,0.9632568,36.06453,4.218811,-29.942870000000003,3.749008,0.3508933,0.447239,-0.07096601,1.362328,-0.1902612,-0.06672604,-0.2383504,-0.008009339,1.875335,90.71039,32.05
3,0.2390289,-0.01997375,0.9707947,0.7659618,0.1585999,-0.06474304,0.9852142,-29.04837,2.893326,-29.0121,3.2441560000000003,0.4037416,0.5057598,0.8613693000000001,0.2685547,-0.003189087,0.9632568,36.06453,4.218811,-29.942870000000003,3.749008,0.3508933,0.447239,-0.07096601,1.362328,-0.1902612,-0.06672604,-0.2383504,-0.008009339,1.875335,90.71039,32.05
3,0.2390289,-0.01997375,0.9707947,0.7659618,0.1585999,-0.06474304,0.9852142,-29.04837,2.893326,-29.0121,3.2441560000000003,0.4037416,0.5057598,0.8613693000000001,0.2685547,-0.003189087,0.9632568,36.06453,4.218811,-29.942870000000003,3.749008,0.3508933,0.447239,-0.07096601,1.362328,-0.1902612,-0.06672604,-0.2383504,-0.008009339,1.875335,90.71039,32.05
3,0.2201538,-0.04681396,0.9743347,0.755688,0.1391907,-0.07086182,0.9877167,-29.07016,2.922974,-29.05011,3.2386630000000003,0.4068246,0.5057598,0.8763021000000001,0.2621613,-0.03401184,0.9644165,35.98187,4.192322,-29.91591,3.715591,0.3545745999999999,0.4516407,-0.07106185,1.3632799999999998,-0.182725,-0.06885166,-0.2495301,-0.008229569,1.875335,90.71039,32.05
3,0.2201538,-0.04681396,0.9743347,0.755688,0.1391907,-0.07086182,0.9877167,-29.07016,2.922974,-29.05011,3.2386630000000003,0.4068246,0.5057598,0.8763021000000001,0.2621613,-0.03401184,0.9644165,35.98187,4.192322,-29.91591,3.715591,0.3545745999999999,0.4516407,-0.07106185,1.3632799999999998,-0.182725,-0.06885166,-0.2495301,-0.008229569,1.875335,90.71039,32.05
3,0.2201538,-0.04681396,0.9743347,0.755688,0.1391907,-0.07086182,0.9877167,-29.07016,2.922974,-29.05011,3.2386630000000003,0.4068246,0.5057598,0.8763021000000001,0.2621613,-0.03401184,0.9644165,35.98187,4.192322,-29.91591,3.715591,0.3545745999999999,0.4516407,-0.07106185,1.3632799999999998,-0.182725,-0.06885166,-0.2495301,-0.008229569,1.875335,90.71039,32.05
3,0.2124328999999999,-0.00541687,0.9771576,0.7717444,0.08119202,-0.07951355,0.993515,-29.31329,2.972626,-29.192,3.358795,0.4222854,0.5063592,0.8738053,0.2796936,0.03370667,0.9594879,35.69426,4.2025760000000005,-29.97685,4.1239930000000005,0.3620647999999999,0.4441869,-0.07270455,1.364522,-0.1752937,-0.07331153,-0.2632115,-0.008334819,1.875335,90.71039,32.05
3,0.2124328999999999,-0.00541687,0.9771576,0.7717444,0.08119202,-0.07951355,0.993515,-29.31329,2.972626,-29.192,3.358795,0.4222854,0.5063592,0.8738053,0.2796936,0.03370667,0.9594879,35.69426,4.2025760000000005,-29.97685,4.1239930000000005,0.3620647999999999,0.4441869,-0.07270455,1.364522,-0.1752937,-0.07331153,-0.2632115,-0.008334819,1.875335,90.71039,32.05
3,0.2124328999999999,-0.00541687,0.9771576,0.7717444,0.08119202,-0.07951355,0.993515,-29.31329,2.972626,-29.192,3.358795,0.4222854,0.5063592,0.8738053,0.2796936,0.03370667,0.9594879,35.69426,4.2025760000000005,-29.97685,4.1239930000000005,0.3620647999999999,0.4441869,-0.07270455,1.364522,-0.1752937,-0.07331153,-0.2632115,-0.008334819,1.875335,90.71039,32.05
3,0.1339264,-0.05046082,0.9897003,0.7301534000000001,0.06515503,-0.07691956,0.9949036,-29.39023,2.897903,-28.91998,3.26593,0.4268315,0.5061180999999999,0.856491,0.2774658,0.006591797,0.9607086,35.539,4.265105999999999,-30.2486,4.107025,0.3674074,0.4476122,-0.07396078,1.3670129999999998,-0.1672703999999999,-0.08149955,-0.2778617,-0.01145316,1.875335,90.71039,32.05
3,0.1339264,-0.05046082,0.9897003,0.7301534000000001,0.06515503,-0.07691956,0.9949036,-29.39023,2.897903,-28.91998,3.26593,0.4268315,0.5061180999999999,0.856491,0.2774658,0.006591797,0.9607086,35.539,4.265105999999999,-30.2486,4.107025,0.3674074,0.4476122,-0.07396078,1.3670129999999998,-0.1672703999999999,-0.08149955,-0.2778617,-0.01145316,1.875335,90.71039,32.05
3,0.1339264,-0.05046082,0.9897003,0.7301534000000001,0.06515503,-0.07691956,0.9949036,-29.39023,2.897903,-28.91998,3.26593,0.4268315,0.5061180999999999,0.856491,0.2774658,0.006591797,0.9607086,35.539,4.265105999999999,-30.2486,4.107025,0.3674074,0.4476122,-0.07396078,1.3670129999999998,-0.1672703999999999,-0.08149955,-0.2778617,-0.01145316,1.875335,90.71039,32.05
3,0.1683807,-0.02993774,0.98526,0.7171399,0.03477478,-0.08947754,0.9953766,-29.55351,2.677414,-28.53217,3.199799,0.4360375,0.5116834,0.8686086999999999,0.1867676,-0.02156067,0.9821625,35.52298,4.107025,-30.37309,3.985397,0.3789535999999999,0.4571691,-0.07603025,1.368632,-0.1599616,-0.08722614,-0.295623,-0.01249597,1.875335,90.71039,32.05
3,0.1683807,-0.02993774,0.98526,0.7171399,0.03477478,-0.08947754,0.9953766,-29.55351,2.677414,-28.53217,3.199799,0.4360375,0.5116834,0.8686086999999999,0.1867676,-0.02156067,0.9821625,35.52298,4.107025,-30.37309,3.985397,0.3789535999999999,0.4571691,-0.07603025,1.368632,-0.1599616,-0.08722614,-0.295623,-0.01249597,1.875335,90.71039,32.05
3,0.1683807,-0.02993774,0.98526,0.7171399,0.03477478,-0.08947754,0.9953766,-29.55351,2.677414,-28.53217,3.199799,0.4360375,0.5116834,0.8686086999999999,0.1867676,-0.02156067,0.9821625,35.52298,4.107025,-30.37309,3.985397,0.3789535999999999,0.4571691,-0.07603025,1.368632,-0.1599616,-0.08722614,-0.295623,-0.01249597,1.875335,90.71039,32.05
3,-1.0,-1.0,-1.0,0.7171399,0.0,0.0,0.0,-28.756590000000003,2.859283,-29.08391,-1.0,0.3930664,0.5041690999999999,0.8686086999999999,0.0,0.0,0.0,36.08417,4.273987,-30.09813,-1.0,0.3313747,0.4433555,-0.07800221,1.369966,-0.1527335,-0.09125407,-0.3159981,-0.01514361,1.875335,-36.5762,32.05
3,-1.0,-1.0,-1.0,0.7171399,0.0,0.0,0.0,-28.756590000000003,2.859283,-29.08391,-1.0,0.3930664,0.5041690999999999,0.8686086999999999,0.0,0.0,0.0,36.08417,4.273987,-30.09813,-1.0,0.3313747,0.4433555,-0.07800221,1.369966,-0.1527335,-0.09125407,-0.3159981,-0.01514361,1.875335,-36.5762,32.05
3,-1.0,-1.0,-1.0,0.7171399,0.0,0.0,0.0,-28.756590000000003,2.859283,-29.08391,-1.0,0.3930664,0.5041690999999999,0.8686086999999999,0.0,0.0,0.0,36.08417,4.273987,-30.09813,-1.0,0.3313747,0.4433555,-0.07800221,1.369966,-0.1527335,-0.09125407,-0.3159981,-0.01514361,1.875335,-36.5762,32.05
3,-1.0,-1.0,-1.0,0.7842909,0.0,0.0,0.0,-27.77426,2.985565,-29.48109,-1.0,0.3301304,0.4959435,0.7343090999999999,0.0,0.0,0.0,36.66588,4.588501,-30.4931,-1.0,0.2765852,0.4362970999999999,-0.07975864,1.3719940000000002,-0.1455428,-0.09951883,-0.3385742,-0.01634558,1.875335,-36.5762,32.05
3,-1.0,-1.0,-1.0,0.7842909,0.0,0.0,0.0,-27.77426,2.985565,-29.48109,-1.0,0.3301304,0.4959435,0.7343090999999999,0.0,0.0,0.0,36.66588,4.588501,-30.4931,-1.0,0.2765852,0.4362970999999999,-0.07975864,1.3719940000000002,-0.1455428,-0.09951883,-0.3385742,-0.01634558,1.875335,-36.5762,32.05
3,-1.0,-1.0,-1.0,0.7842909,0.0,0.0,0.0,-27.77426,2.985565,-29.48109,-1.0,0.3301304,0.4959435,0.7343090999999999,0.0,0.0,0.0,36.66588,4.588501,-30.4931,-1.0,0.2765852,0.4362970999999999,-0.07975864,1.3719940000000002,-0.1455428,-0.09951883,-0.3385742,-0.01634558,1.875335,-36.5762,32.05
3,0.4354247999999999,0.05531311,0.8985138,0.7923924,0.3681488,0.04472351,0.9286804,-28.003490000000003,2.847458,-29.40266,3.705383,0.3422685,0.4989017,0.7395968,0.5827026,0.07881165,0.8088379,36.76851,4.476715,-30.45464,4.474823000000001,0.2833679,0.4346505,-0.08080554,1.3733030000000002,-0.1380661,-0.1019858999999999,-0.3583824,-0.02001655,1.875335,-36.5762,32.05
3,0.4354247999999999,0.05531311,0.8985138,0.7923924,0.3681488,0.04472351,0.9286804,-28.003490000000003,2.847458,-29.40266,3.705383,0.3422685,0.4989017,0.7395968,0.5827026,0.07881165,0.8088379,36.76851,4.476715,-30.45464,4.474823000000001,0.2833679,0.4346505,-0.08080554,1.3733030000000002,-0.1380661,-0.1019858999999999,-0.3583824,-0.02001655,1.875335,-36.5762,32.05
3,0.4354247999999999,0.05531311,0.8985138,0.7923924,0.3681488,0.04472351,0.9286804,-28.003490000000003,2.847458,-29.40266,3.705383,0.3422685,0.4989017,0.7395968,0.5827026,0.07881165,0.8088379,36.76851,4.476715,-30.45464,4.474823000000001,0.2833679,0.4346505,-0.08080554,1.3733030000000002,-0.1380661,-0.1019858999999999,-0.3583824,-0.02001655,1.875335,-36.5762,32.05
3,0.5111389000000001,0.05941772,0.8574371,0.7894484,0.3521270999999999,-0.01968384,0.93573,-28.26945,2.819138,-29.29189,3.532928,0.3532945,0.5065411,0.7647977,0.5828399999999999,0.09780884,0.8066711,36.46857,4.478073,-30.37067,4.538757,0.2942203,0.4319547,-0.08136129,1.373854,-0.1302636999999999,-0.1021565,-0.3729355,-0.02267881,1.875335,-36.5762,32.05
3,0.5111389000000001,0.05941772,0.8574371,0.7894484,0.3521270999999999,-0.01968384,0.93573,-28.26945,2.819138,-29.29189,3.532928,0.3532945,0.5065411,0.7647977,0.5828399999999999,0.09780884,0.8066711,36.46857,4.478073,-30.37067,4.538757,0.2942203,0.4319547,-0.08136129,1.373854,-0.1302636999999999,-0.1021565,-0.3729355,-0.02267881,1.875335,-36.5762,32.05
3,0.5111389000000001,0.05941772,0.8574371,0.7894484,0.3521270999999999,-0.01968384,0.93573,-28.26945,2.819138,-29.29189,3.532928,0.3532945,0.5065411,0.7647977,0.5828399999999999,0.09780884,0.8066711,36.46857,4.478073,-30.37067,4.538757,0.2942203,0.4319547,-0.08136129,1.373854,-0.1302636999999999,-0.1021565,-0.3729355,-0.02267881,1.875335,-36.5762,32.05
3,0.5111389000000001,0.05941772,0.8574371,0.7894484,0.3521270999999999,-0.01968384,0.93573,-28.26945,2.819138,-29.29189,3.532928,0.3532945,0.5065411,0.7647977,0.5828399999999999,0.09780884,0.8066711,36.46857,4.478073,-30.37067,4.538757,0.2942203,0.4319547,-0.08172321,1.373759,-0.1226113,-0.1008872,-0.3854167999999999,-0.02284542,1.875335,-36.5762,32.05
3,0.5111389000000001,0.05941772,0.8574371,0.7894484,0.3521270999999999,-0.01968384,0.93573,-28.26945,2.819138,-29.29189,3.532928,0.3532945,0.5065411,0.7647977,0.5828399999999999,0.09780884,0.8066711,36.46857,4.478073,-30.37067,4.538757,0.2942203,0.4319547,-0.08172321,1.373759,-0.1226113,-0.1008872,-0.3854167999999999,-0.02284542,1.875335,-36.5762,32.05
3,0.5111389000000001,0.05941772,0.8574371,0.7894484,0.3521270999999999,-0.01968384,0.93573,-28.26945,2.819138,-29.29189,3.532928,0.3532945,0.5065411,0.7647977,0.5828399999999999,0.09780884,0.8066711,36.46857,4.478073,-30.37067,4.538757,0.2942203,0.4319547,-0.08172321,1.373759,-0.1226113,-0.1008872,-0.3854167999999999,-0.02284542,1.875335,-36.5762,32.05
3,0.3309784,-0.007827759,0.9436035,0.7879877,0.2337341,-0.05757141,0.9705811,-28.80528,2.7509,-29.0822,3.649704,0.3867158,0.5109541,0.795313,0.4197083,0.03962708,0.9067841,36.16554,4.256912000000001,-30.1004,4.487839,0.3276408,0.4432513,-0.08297491,1.373327,-0.1154143,-0.09966972,-0.3962575,-0.02347212,1.875335,-65.2424,32.05
3,0.3309784,-0.007827759,0.9436035,0.7879877,0.2337341,-0.05757141,0.9705811,-28.80528,2.7509,-29.0822,3.649704,0.3867158,0.5109541,0.795313,0.4197083,0.03962708,0.9067841,36.16554,4.256912000000001,-30.1004,4.487839,0.3276408,0.4432513,-0.08297491,1.373327,-0.1154143,-0.09966972,-0.3962575,-0.02347212,1.875335,-65.2424,32.05
3,0.3309784,-0.007827759,0.9436035,0.7879877,0.2337341,-0.05757141,0.9705811,-28.80528,2.7509,-29.0822,3.649704,0.3867158,0.5109541,0.795313,0.4197083,0.03962708,0.9067841,36.16554,4.256912000000001,-30.1004,4.487839,0.3276408,0.4432513,-0.08297491,1.373327,-0.1154143,-0.09966972,-0.3962575,-0.02347212,1.875335,-65.2424,32.05
3,0.2073822,-0.05722046,0.9765778,0.7786017,0.1839447,-0.05000305,0.9816589,-29.034270000000003,2.831345,-29.06657,3.607773,0.4006352,0.5069249,0.8370263000000001,0.258728,-0.07304382,0.9631805,36.07825,4.178024,-29.941740000000003,3.4469300000000005,0.3517349999999999,0.4568664,-0.08339286,1.373334,-0.1080849999999999,-0.1002646,-0.406018,-0.02453553,1.875335,-65.2424,32.05
3,0.2073822,-0.05722046,0.9765778,0.7786017,0.1839447,-0.05000305,0.9816589,-29.034270000000003,2.831345,-29.06657,3.607773,0.4006352,0.5069249,0.8370263000000001,0.258728,-0.07304382,0.9631805,36.07825,4.178024,-29.941740000000003,3.4469300000000005,0.3517349999999999,0.4568664,-0.08339286,1.373334,-0.1080849999999999,-0.1002646,-0.406018,-0.02453553,1.875335,-65.2424,32.05
3,0.2073822,-0.05722046,0.9765778,0.7786017,0.1839447,-0.05000305,0.9816589,-29.034270000000003,2.831345,-29.06657,3.607773,0.4006352,0.5069249,0.8370263000000001,0.258728,-0.07304382,0.9631805,36.07825,4.178024,-29.941740000000003,3.4469300000000005,0.3517349999999999,0.4568664,-0.08339286,1.373334,-0.1080849999999999,-0.1002646,-0.406018,-0.02453553,1.875335,-65.2424,32.05
3,0.2195892,-0.02389526,0.975296,0.755179,0.1587067,-0.04629517,0.9862366,-29.1674,2.917389,-29.37311,3.685059,0.4082487,0.5062314,0.8340054,0.289444,0.0023498539999999,0.9571838,35.87389,4.121674,-30.01443,3.996811,0.3546362,0.4508400999999999,-0.08300591,1.373363,-0.1003966,-0.100607,-0.4151146,-0.02622751,1.875335,-65.2424,32.05
3,0.2195892,-0.02389526,0.975296,0.755179,0.1587067,-0.04629517,0.9862366,-29.1674,2.917389,-29.37311,3.685059,0.4082487,0.5062314,0.8340054,0.289444,0.0023498539999999,0.9571838,35.87389,4.121674,-30.01443,3.996811,0.3546362,0.4508400999999999,-0.08300591,1.373363,-0.1003966,-0.100607,-0.4151146,-0.02622751,1.875335,-65.2424,32.05
3,0.2195892,-0.02389526,0.975296,0.755179,0.1587067,-0.04629517,0.9862366,-29.1674,2.917389,-29.37311,3.685059,0.4082487,0.5062314,0.8340054,0.289444,0.0023498539999999,0.9571838,35.87389,4.121674,-30.01443,3.996811,0.3546362,0.4508400999999999,-0.08300591,1.373363,-0.1003966,-0.100607,-0.4151146,-0.02622751,1.875335,-65.2424,32.05
3,0.2666779,-0.02865601,0.9633484,0.7635559000000001,0.1477966,-0.06575012,0.9868164,-29.19206,2.997894,-29.71643,3.61113,0.4101693,0.5087916,0.8380898000000001,0.2670593,-0.02853394,0.9632416,35.813959999999994,4.099411,-30.0211,3.80574,0.3595562,0.4551937,-0.08351302,1.372696,-0.09313178,-0.09949629,-0.4238863,-0.02772448,1.875335,-65.2424,32.05
3,0.2666779,-0.02865601,0.9633484,0.7635559000000001,0.1477966,-0.06575012,0.9868164,-29.19206,2.997894,-29.71643,3.61113,0.4101693,0.5087916,0.8380898000000001,0.2670593,-0.02853394,0.9632416,35.813959999999994,4.099411,-30.0211,3.80574,0.3595562,0.4551937,-0.08351302,1.372696,-0.09313178,-0.09949629,-0.4238863,-0.02772448,1.875335,-65.2424,32.05
3,0.2666779,-0.02865601,0.9633484,0.7635559000000001,0.1477966,-0.06575012,0.9868164,-29.19206,2.997894,-29.71643,3.61113,0.4101693,0.5087916,0.8380898000000001,0.2670593,-0.02853394,0.9632416,35.813959999999994,4.099411,-30.0211,3.80574,0.3595562,0.4551937,-0.08351302,1.372696,-0.09313178,-0.09949629,-0.4238863,-0.02772448,1.875335,-65.2424,32.05
4,0.2666779,-0.02865601,0.9633484,0.7635559000000001,0.1477966,-0.06575012,0.9868164,-29.19206,2.997894,-29.71643,3.61113,0.4101693,0.5087916,0.8380898000000001,0.2670593,-0.02853394,0.9632416,35.813959999999994,4.099411,-30.0211,3.80574,0.3595562,0.4551937,-0.08385277,1.372694,-0.08602196,-0.1014572,-0.4311154,-0.03177066,1.875335,-65.2424,32.05
4,0.2666779,-0.02865601,0.9633484,0.7635559000000001,0.1477966,-0.06575012,0.9868164,-29.19206,2.997894,-29.71643,3.61113,0.4101693,0.5087916,0.8380898000000001,0.2670593,-0.02853394,0.9632416,35.813959999999994,4.099411,-30.0211,3.80574,0.3595562,0.4551937,-0.08385277,1.372694,-0.08602196,-0.1014572,-0.4311154,-0.03177066,1.875335,-65.2424,32.05
4,0.2666779,-0.02865601,0.9633484,0.7635559000000001,0.1477966,-0.06575012,0.9868164,-29.19206,2.997894,-29.71643,3.61113,0.4101693,0.5087916,0.8380898000000001,0.2670593,-0.02853394,0.9632416,35.813959999999994,4.099411,-30.0211,3.80574,0.3595562,0.4551937,-0.08385277,1.372694,-0.08602196,-0.1014572,-0.4311154,-0.03177066,1.875335,-65.2424,32.05
4,0.2731628,-0.01156616,0.9618835,0.7637406,0.1240386999999999,-0.08529663,0.9886017,-29.26028,2.976334,-29.70265,3.483688,0.4152189999999999,0.5116583,0.8547520000000001,0.2732697,-0.01150513,0.961853,35.80466,4.083572,-30.0119,4.0374300000000005,0.3590056,0.4538034000000001,-0.08391714,1.372182,-0.07912487,-0.101735,-0.4384725,-0.03344949,1.875335,-65.2424,32.05
