Second,eye_comb_direction_x,eye_comb_direction_y,eye_comb_direction_z,eye_r_openness,eye_r_direction_x,eye_r_direction_y,eye_r_direction_z,eye_r_origin_x,eye_r_origin_y,eye_r_origin_z,eye_r_pupil_diameter,eye_r_pupil_position_x,eye_r_pupil_position_y,eye_l_openness,eye_l_direction_x,eye_l_direction_y,eye_l_direction_z,eye_l_origin_x,eye_l_origin_y,eye_l_origin_z,eye_l_pupil_diameter,eye_l_pupil_position_x,eye_l_pupil_position_y,head_position_x,head_position_y,head_position_z,head_rotation_roll,head_rotation_pitch,head_rotation_yaw,EDA,BVP,TMP
0,-0.01519775,-0.02198792,0.9996338,1.0,-0.07177734,-0.0634613,0.9953918,-31.60216,0.1965027,-28.77815,4.685699,0.51956,0.5972549,1.0,0.01254272,-0.001617432,0.9999084,33.28914,1.646667,-29.19687,5.252669999999999,0.4751417999999999,0.5304228,0.343964,1.252395,0.1265398999999999,0.01541231,0.4662126,0.02499403,5.709316,-0.22414337611448837,31.281147416413372
0,-0.01519775,-0.02198792,0.9996338,1.0,-0.07177734,-0.0634613,0.9953918,-31.60216,0.1965027,-28.77815,4.685699,0.51956,0.5972549,1.0,0.01254272,-0.001617432,0.9999084,33.28914,1.646667,-29.19687,5.252669999999999,0.4751417999999999,0.5304228,0.343964,1.252395,0.1265398999999999,0.01541231,0.4662126,0.02499403,5.709316,-0.22414337611448837,31.281147416413372
0,-0.01519775,-0.02198792,0.9996338,1.0,-0.07177734,-0.0634613,0.9953918,-31.60216,0.1965027,-28.77815,4.685699,0.51956,0.5972549,1.0,0.01254272,-0.001617432,0.9999084,33.28914,1.646667,-29.19687,5.252669999999999,0.4751417999999999,0.5304228,0.343964,1.252395,0.1265398999999999,0.01541231,0.4662126,0.02499403,5.709316,-0.22414337611448837,31.281147416413372
0,-0.02139282,-0.02474976,0.9994507,1.0,-0.07429504,-0.06298828,0.9952393,-31.6033,0.2263793999999999,-28.787640000000003,4.673477,0.519894,0.5962504,1.0,0.01138306,-0.001052856,0.9999237,33.304320000000004,1.646667,-29.18585,5.253693,0.4747632,0.5302591999999999,0.3472255,1.249925,0.1274135,0.01710031,0.4656574,0.02294273,5.709316,-0.22414337611448837,31.281147416413372
0,-0.02139282,-0.02474976,0.9994507,1.0,-0.07429504,-0.06298828,0.9952393,-31.6033,0.2263793999999999,-28.787640000000003,4.673477,0.519894,0.5962504,1.0,0.01138306,-0.001052856,0.9999237,33.304320000000004,1.646667,-29.18585,5.253693,0.4747632,0.5302591999999999,0.3472255,1.249925,0.1274135,0.01710031,0.4656574,0.02294273,5.709316,-0.22414337611448837,31.281147416413372
0,-0.02139282,-0.02474976,0.9994507,1.0,-0.07429504,-0.06298828,0.9952393,-31.6033,0.2263793999999999,-28.787640000000003,4.673477,0.519894,0.5962504,1.0,0.01138306,-0.001052856,0.9999237,33.304320000000004,1.646667,-29.18585,5.253693,0.4747632,0.5302591999999999,0.3472255,1.249925,0.1274135,0.01710031,0.4656574,0.02294273,5.709316,-0.22414337611448837,31.281147416413372
0,-0.1346436,-0.1294708,0.9823914,1.0,-0.154541,-0.1450806,0.9772644,-31.8297,0.09469604,-29.01788,4.686661,0.5372524999999999,0.6131365,1.0,-0.02926636,-0.04650879,0.9984741,32.99416,1.660522,-29.81018,5.471985,0.4895537,0.5410345999999999,0.349861,1.247972,0.1279765,0.01749656,0.4660672999999999,0.02143368,5.709316,-0.22414337611448837,31.281147416413372
0,-0.1346436,-0.1294708,0.9823914,1.0,-0.154541,-0.1450806,0.9772644,-31.8297,0.09469604,-29.01788,4.686661,0.5372524999999999,0.6131365,1.0,-0.02926636,-0.04650879,0.9984741,32.99416,1.660522,-29.81018,5.471985,0.4895537,0.5410345999999999,0.349861,1.247972,0.1279765,0.01749656,0.4660672999999999,0.02143368,5.709316,-0.22414337611448837,31.281147416413372
0,-0.1346436,-0.1294708,0.9823914,1.0,-0.154541,-0.1450806,0.9772644,-31.8297,0.09469604,-29.01788,4.686661,0.5372524999999999,0.6131365,1.0,-0.02926636,-0.04650879,0.9984741,32.99416,1.660522,-29.81018,5.471985,0.4895537,0.5410345999999999,0.349861,1.247972,0.1279765,0.01749656,0.4660672999999999,0.02143368,5.709316,-0.22414337611448837,31.281147416413372
1,-0.1609802,-0.2144775,0.9633636,1.0,-0.1815642999999999,-0.2302246,0.9560394,-31.97931,-0.1846924,-28.94351,4.626602,0.5456437,0.6326898,1.0,-0.07318115,-0.146637,0.9864655,32.83565,1.123489,-29.167890000000003,5.246643,0.5001802,0.5653017,0.3514274,1.246578,0.1281846,0.01799782,0.4665412999999999,0.02070739,5.709316,-0.22414337611448837,31.281147416413372
1,-0.1609802,-0.2144775,0.9633636,1.0,-0.1815642999999999,-0.2302246,0.9560394,-31.97931,-0.1846924,-28.94351,4.626602,0.5456437,0.6326898,1.0,-0.07318115,-0.146637,0.9864655,32.83565,1.123489,-29.167890000000003,5.246643,0.5001802,0.5653017,0.3514274,1.246578,0.1281846,0.01799782,0.4665412999999999,0.02070739,5.709316,-0.22414337611448837,31.281147416413372
1,-0.1609802,-0.2144775,0.9633636,1.0,-0.1815642999999999,-0.2302246,0.9560394,-31.97931,-0.1846924,-28.94351,4.626602,0.5456437,0.6326898,1.0,-0.07318115,-0.146637,0.9864655,32.83565,1.123489,-29.167890000000003,5.246643,0.5001802,0.5653017,0.3514274,1.246578,0.1281846,0.01799782,0.4665412999999999,0.02070739,5.709316,-0.22414337611448837,31.281147416413372
1,-0.1894836,-0.2270355,0.9552612,1.0,-0.1894989,-0.2270507999999999,0.9552612,-31.98196,-0.1750183,-28.93304,4.647888,0.5466865,0.6319031999999999,1.0,-0.06100464,-0.1143341,0.9915619,32.82799,1.300964,-30.1123,5.240508999999999,0.4989367999999999,0.5640637,0.3537456,1.244972,0.1285747,0.01950071,0.4665509,0.020662,5.709316,-0.22414337611448837,31.281147416413372
1,-0.1894836,-0.2270355,0.9552612,1.0,-0.1894989,-0.2270507999999999,0.9552612,-31.98196,-0.1750183,-28.93304,4.647888,0.5466865,0.6319031999999999,1.0,-0.06100464,-0.1143341,0.9915619,32.82799,1.300964,-30.1123,5.240508999999999,0.4989367999999999,0.5640637,0.3537456,1.244972,0.1285747,0.01950071,0.4665509,0.020662,5.709316,-0.22414337611448837,31.281147416413372
1,-0.1894836,-0.2270355,0.9552612,1.0,-0.1894989,-0.2270507999999999,0.9552612,-31.98196,-0.1750183,-28.93304,4.647888,0.5466865,0.6319031999999999,1.0,-0.06100464,-0.1143341,0.9915619,32.82799,1.300964,-30.1123,5.240508999999999,0.4989367999999999,0.5640637,0.3537456,1.244972,0.1285747,0.01950071,0.4665509,0.020662,5.709316,-0.22414337611448837,31.281147416413372
1,-0.1831055,-0.230957,0.9555664,1.0,-0.1831207,-0.2309723,0.9555664,-31.98643,-0.1542664,-28.928790000000003,4.66362,0.546087,0.6316026,1.0,-0.04919434,-0.1266022,0.9907226999999998,32.87447,1.244781,-29.90366,5.2202910000000005,0.4960148,0.5654423000000001,0.3554093,1.243345,0.1286495,0.02152457,0.4665446,0.02085081,5.709316,-0.22414337611448837,31.281147416413372
1,-0.1831055,-0.230957,0.9555664,1.0,-0.1831207,-0.2309723,0.9555664,-31.98643,-0.1542664,-28.928790000000003,4.66362,0.546087,0.6316026,1.0,-0.04919434,-0.1266022,0.9907226999999998,32.87447,1.244781,-29.90366,5.2202910000000005,0.4960148,0.5654423000000001,0.3554093,1.243345,0.1286495,0.02152457,0.4665446,0.02085081,5.709316,-0.22414337611448837,31.281147416413372
1,-0.1831055,-0.230957,0.9555664,1.0,-0.1831207,-0.2309723,0.9555664,-31.98643,-0.1542664,-28.928790000000003,4.66362,0.546087,0.6316026,1.0,-0.04919434,-0.1266022,0.9907226999999998,32.87447,1.244781,-29.90366,5.2202910000000005,0.4960148,0.5654423000000001,0.3554093,1.243345,0.1286495,0.02152457,0.4665446,0.02085081,5.709316,-0.22414337611448837,31.281147416413372
1,-0.1831055,-0.230957,0.9555664,1.0,-0.1831207,-0.2309723,0.9555664,-31.98643,-0.1542664,-28.928790000000003,4.66362,0.546087,0.6316026,1.0,-0.04919434,-0.1266022,0.9907226999999998,32.87447,1.244781,-29.90366,5.2202910000000005,0.4960148,0.5654423000000001,0.3565929,1.242009,0.1286245,0.02335757,0.4665515999999999,0.02032425,5.709316,-0.22414337611448837,31.281147416413372
1,-0.1831055,-0.230957,0.9555664,1.0,-0.1831207,-0.2309723,0.9555664,-31.98643,-0.1542664,-28.928790000000003,4.66362,0.546087,0.6316026,1.0,-0.04919434,-0.1266022,0.9907226999999998,32.87447,1.244781,-29.90366,5.2202910000000005,0.4960148,0.5654423000000001,0.3565929,1.242009,0.1286245,0.02335757,0.4665515999999999,0.02032425,5.709316,-0.22414337611448837,31.281147416413372
1,-0.1831055,-0.230957,0.9555664,1.0,-0.1831207,-0.2309723,0.9555664,-31.98643,-0.1542664,-28.928790000000003,4.66362,0.546087,0.6316026,1.0,-0.04919434,-0.1266022,0.9907226999999998,32.87447,1.244781,-29.90366,5.2202910000000005,0.4960148,0.5654423000000001,0.3565929,1.242009,0.1286245,0.02335757,0.4665515999999999,0.02032425,5.709316,-0.22414337611448837,31.281147416413372
1,-0.1831055,-0.230957,0.9555664,1.0,-0.1831207,-0.2309723,0.9555664,-31.98643,-0.1542664,-28.928790000000003,4.66362,0.546087,0.6316026,1.0,-0.04919434,-0.1266022,0.9907226999999998,32.87447,1.244781,-29.90366,5.2202910000000005,0.4960148,0.5654423000000001,0.3575685999999999,1.241132,0.1285513999999999,0.02371371,0.4668350999999999,0.01969763,5.709316,151.1766,31.281147416413372
1,-0.1831055,-0.230957,0.9555664,1.0,-0.1831207,-0.2309723,0.9555664,-31.98643,-0.1542664,-28.928790000000003,4.66362,0.546087,0.6316026,1.0,-0.04919434,-0.1266022,0.9907226999999998,32.87447,1.244781,-29.90366,5.2202910000000005,0.4960148,0.5654423000000001,0.3575685999999999,1.241132,0.1285513999999999,0.02371371,0.4668350999999999,0.01969763,5.709316,151.1766,31.281147416413372
1,-0.1831055,-0.230957,0.9555664,1.0,-0.1831207,-0.2309723,0.9555664,-31.98643,-0.1542664,-28.928790000000003,4.66362,0.546087,0.6316026,1.0,-0.04919434,-0.1266022,0.9907226999999998,32.87447,1.244781,-29.90366,5.2202910000000005,0.4960148,0.5654423000000001,0.3575685999999999,1.241132,0.1285513999999999,0.02371371,0.4668350999999999,0.01969763,5.709316,151.1766,31.281147416413372
1,-0.1780243,-0.2259673999999999,0.9577179,1.0,-0.1828612999999999,-0.2298431,0.9558868,-31.98763,-0.1581267999999999,-28.92958,4.646408,0.546087,0.6316026,1.0,-0.05058289,-0.122406,0.9911804,32.88191,1.241516,-29.90366,5.1928410000000005,0.4959524,0.5650329000000001,0.3583728,1.240533,0.1283825,0.02459376,0.4666164,0.01858318,5.709316,151.1766,31.281147416413372
1,-0.1780243,-0.2259673999999999,0.9577179,1.0,-0.1828612999999999,-0.2298431,0.9558868,-31.98763,-0.1581267999999999,-28.92958,4.646408,0.546087,0.6316026,1.0,-0.05058289,-0.122406,0.9911804,32.88191,1.241516,-29.90366,5.1928410000000005,0.4959524,0.5650329000000001,0.3583728,1.240533,0.1283825,0.02459376,0.4666164,0.01858318,5.709316,151.1766,31.281147416413372
1,-0.1780243,-0.2259673999999999,0.9577179,1.0,-0.1828612999999999,-0.2298431,0.9558868,-31.98763,-0.1581267999999999,-28.92958,4.646408,0.546087,0.6316026,1.0,-0.05058289,-0.122406,0.9911804,32.88191,1.241516,-29.90366,5.1928410000000005,0.4959524,0.5650329000000001,0.3583728,1.240533,0.1283825,0.02459376,0.4666164,0.01858318,5.709316,151.1766,31.281147416413372
1,-0.1780243,-0.2259673999999999,0.9577179,1.0,-0.1828612999999999,-0.2298431,0.9558868,-31.98763,-0.1581267999999999,-28.92958,4.646408,0.546087,0.6316026,1.0,-0.05058289,-0.122406,0.9911804,32.88191,1.241516,-29.90366,5.1928410000000005,0.4959524,0.5650329000000001,0.3585716,1.240291,0.1280684,0.02496599,0.4664877,0.01804536,5.709316,151.1766,31.281147416413372
1,-0.1780243,-0.2259673999999999,0.9577179,1.0,-0.1828612999999999,-0.2298431,0.9558868,-31.98763,-0.1581267999999999,-28.92958,4.646408,0.546087,0.6316026,1.0,-0.05058289,-0.122406,0.9911804,32.88191,1.241516,-29.90366,5.1928410000000005,0.4959524,0.5650329000000001,0.3585716,1.240291,0.1280684,0.02496599,0.4664877,0.01804536,5.709316,151.1766,31.281147416413372
1,-0.1780243,-0.2259673999999999,0.9577179,1.0,-0.1828612999999999,-0.2298431,0.9558868,-31.98763,-0.1581267999999999,-28.92958,4.646408,0.546087,0.6316026,1.0,-0.05058289,-0.122406,0.9911804,32.88191,1.241516,-29.90366,5.1928410000000005,0.4959524,0.5650329000000001,0.3585716,1.240291,0.1280684,0.02496599,0.4664877,0.01804536,5.709316,151.1766,31.281147416413372
1,-0.1396942,-0.154129,0.9781189,1.0,-0.2007599,-0.2037506,0.9582062,-32.00858,-0.0705718999999999,-28.94467,4.738953,0.5489797,0.6256315,1.0,-0.04743958,-0.07865906,0.9957581,32.96754,1.330231,-29.94768,5.212189,0.4926779999999999,0.5572026999999999,0.3585975999999999,1.240228,0.1273826,0.02523521,0.4663944,0.01797628,5.709316,151.1766,31.281147416413372
1,-0.1396942,-0.154129,0.9781189,1.0,-0.2007599,-0.2037506,0.9582062,-32.00858,-0.0705718999999999,-28.94467,4.738953,0.5489797,0.6256315,1.0,-0.04743958,-0.07865906,0.9957581,32.96754,1.330231,-29.94768,5.212189,0.4926779999999999,0.5572026999999999,0.3585975999999999,1.240228,0.1273826,0.02523521,0.4663944,0.01797628,5.709316,151.1766,31.281147416413372
1,-0.1396942,-0.154129,0.9781189,1.0,-0.2007599,-0.2037506,0.9582062,-32.00858,-0.0705718999999999,-28.94467,4.738953,0.5489797,0.6256315,1.0,-0.04743958,-0.07865906,0.9957581,32.96754,1.330231,-29.94768,5.212189,0.4926779999999999,0.5572026999999999,0.3585975999999999,1.240228,0.1273826,0.02523521,0.4663944,0.01797628,5.709316,151.1766,31.281147416413372
1,-0.1202698,-0.1383513999999999,0.9830475,1.0,-0.2002869,-0.2045441,0.9581299,-32.01015,-0.06593323,-28.94588,4.738876,0.5489797,0.6255710999999999,1.0,-0.04849243,-0.07861328,0.9957123,32.96501,1.348419,-30.01451,5.226654,0.4928584,0.5572026999999999,0.3583744,1.240335,0.1261927,0.02501727,0.4674615,0.01797089,5.709316,151.1766,31.281147416413372
1,-0.1202698,-0.1383513999999999,0.9830475,1.0,-0.2002869,-0.2045441,0.9581299,-32.01015,-0.06593323,-28.94588,4.738876,0.5489797,0.6255710999999999,1.0,-0.04849243,-0.07861328,0.9957123,32.96501,1.348419,-30.01451,5.226654,0.4928584,0.5572026999999999,0.3583744,1.240335,0.1261927,0.02501727,0.4674615,0.01797089,5.709316,151.1766,31.281147416413372
1,-0.1202698,-0.1383513999999999,0.9830475,1.0,-0.2002869,-0.2045441,0.9581299,-32.01015,-0.06593323,-28.94588,4.738876,0.5489797,0.6255710999999999,1.0,-0.04849243,-0.07861328,0.9957123,32.96501,1.348419,-30.01451,5.226654,0.4928584,0.5572026999999999,0.3583744,1.240335,0.1261927,0.02501727,0.4674615,0.01797089,5.709316,151.1766,31.281147416413372
1,-0.1202698,-0.1383513999999999,0.9830475,1.0,-0.2002869,-0.2045441,0.9581299,-32.01015,-0.06593323,-28.94588,4.738876,0.5489797,0.6255710999999999,1.0,-0.04849243,-0.07861328,0.9957123,32.96501,1.348419,-30.01451,5.226654,0.4928584,0.5572026999999999,0.3579502999999999,1.240538,0.1250098,0.02500535,0.4688877,0.0177456,5.709316,151.1766,31.281147416413372
1,-0.1202698,-0.1383513999999999,0.9830475,1.0,-0.2002869,-0.2045441,0.9581299,-32.01015,-0.06593323,-28.94588,4.738876,0.5489797,0.6255710999999999,1.0,-0.04849243,-0.07861328,0.9957123,32.96501,1.348419,-30.01451,5.226654,0.4928584,0.5572026999999999,0.3579502999999999,1.240538,0.1250098,0.02500535,0.4688877,0.0177456,5.709316,151.1766,31.281147416413372
1,-0.1202698,-0.1383513999999999,0.9830475,1.0,-0.2002869,-0.2045441,0.9581299,-32.01015,-0.06593323,-28.94588,4.738876,0.5489797,0.6255710999999999,1.0,-0.04849243,-0.07861328,0.9957123,32.96501,1.348419,-30.01451,5.226654,0.4928584,0.5572026999999999,0.3579502999999999,1.240538,0.1250098,0.02500535,0.4688877,0.0177456,5.709316,151.1766,31.281147416413372
1,-0.1218262,-0.1398926,0.9826355,1.0,-0.1979065,-0.2048645,0.9585571,-32.01146,-0.06616211,-28.94629,4.720703,0.5487338,0.6256013000000001,1.0,-0.04948425,-0.07775879,0.9957275,32.96436,1.34874,-30.019,5.218765,0.4930044,0.5571255999999999,0.357373,1.2411370000000002,0.1230088999999999,0.02425946,0.4719522,0.01751486,5.709316,73.95154,31.281147416413372
1,-0.1218262,-0.1398926,0.9826355,1.0,-0.1979065,-0.2048645,0.9585571,-32.01146,-0.06616211,-28.94629,4.720703,0.5487338,0.6256013000000001,1.0,-0.04948425,-0.07775879,0.9957275,32.96436,1.34874,-30.019,5.218765,0.4930044,0.5571255999999999,0.357373,1.2411370000000002,0.1230088999999999,0.02425946,0.4719522,0.01751486,5.709316,73.95154,31.281147416413372
1,-0.1218262,-0.1398926,0.9826355,1.0,-0.1979065,-0.2048645,0.9585571,-32.01146,-0.06616211,-28.94629,4.720703,0.5487338,0.6256013000000001,1.0,-0.04948425,-0.07775879,0.9957275,32.96436,1.34874,-30.019,5.218765,0.4930044,0.5571255999999999,0.357373,1.2411370000000002,0.1230088999999999,0.02425946,0.4719522,0.01751486,5.709316,73.95154,31.281147416413372
1,-0.3355408,-0.04547119,0.940918,1.0,-0.3906555,-0.1107788,0.9138336,-32.67165,0.5614624,-29.05988,4.796616,0.5951354,0.5954142,1.0,-0.2731171,0.02531433,0.9616394,32.02458,1.988312,-29.90068,5.51889,0.5510781,0.5240142,0.356811,1.241565,0.1213487,0.02429629,0.4740738,0.01798664,5.709316,73.95154,31.281147416413372
1,-0.3355408,-0.04547119,0.940918,1.0,-0.3906555,-0.1107788,0.9138336,-32.67165,0.5614624,-29.05988,4.796616,0.5951354,0.5954142,1.0,-0.2731171,0.02531433,0.9616394,32.02458,1.988312,-29.90068,5.51889,0.5510781,0.5240142,0.356811,1.241565,0.1213487,0.02429629,0.4740738,0.01798664,5.709316,73.95154,31.281147416413372
1,-0.3355408,-0.04547119,0.940918,1.0,-0.3906555,-0.1107788,0.9138336,-32.67165,0.5614624,-29.05988,4.796616,0.5951354,0.5954142,1.0,-0.2731171,0.02531433,0.9616394,32.02458,1.988312,-29.90068,5.51889,0.5510781,0.5240142,0.356811,1.241565,0.1213487,0.02429629,0.4740738,0.01798664,5.709316,73.95154,31.281147416413372
1,-0.3355408,-0.04547119,0.940918,1.0,-0.3906555,-0.1107788,0.9138336,-32.67165,0.5614624,-29.05988,4.796616,0.5951354,0.5954142,1.0,-0.2731171,0.02531433,0.9616394,32.02458,1.988312,-29.90068,5.51889,0.5510781,0.5240142,0.3559289,1.242421,0.1183997,0.02448963,0.4779121,0.01920659,5.709316,73.95154,31.281147416413372
1,-0.3355408,-0.04547119,0.940918,1.0,-0.3906555,-0.1107788,0.9138336,-32.67165,0.5614624,-29.05988,4.796616,0.5951354,0.5954142,1.0,-0.2731171,0.02531433,0.9616394,32.02458,1.988312,-29.90068,5.51889,0.5510781,0.5240142,0.3559289,1.242421,0.1183997,0.02448963,0.4779121,0.01920659,5.709316,73.95154,31.281147416413372
1,-0.3355408,-0.04547119,0.940918,1.0,-0.3906555,-0.1107788,0.9138336,-32.67165,0.5614624,-29.05988,4.796616,0.5951354,0.5954142,1.0,-0.2731171,0.02531433,0.9616394,32.02458,1.988312,-29.90068,5.51889,0.5510781,0.5240142,0.3559289,1.242421,0.1183997,0.02448963,0.4779121,0.01920659,5.709316,73.95154,31.281147416413372
1,-0.3422394,-0.04396057,0.9385681,1.0,-0.3873444,-0.1203766,0.914032,-32.7238,0.5847473000000001,-29.06795,4.685242,0.5965533000000001,0.5957661999999999,1.0,-0.2813415999999999,0.05274963,0.9581451,32.02792,2.000641,-29.92137,5.667847,0.5517859,0.5207876,0.3553646,1.242988,0.1162634,0.02471494,0.4810615,0.01957088,5.709316,73.95154,31.281147416413372
1,-0.3422394,-0.04396057,0.9385681,1.0,-0.3873444,-0.1203766,0.914032,-32.7238,0.5847473000000001,-29.06795,4.685242,0.5965533000000001,0.5957661999999999,1.0,-0.2813415999999999,0.05274963,0.9581451,32.02792,2.000641,-29.92137,5.667847,0.5517859,0.5207876,0.3553646,1.242988,0.1162634,0.02471494,0.4810615,0.01957088,5.709316,73.95154,31.281147416413372
1,-0.3422394,-0.04396057,0.9385681,1.0,-0.3873444,-0.1203766,0.914032,-32.7238,0.5847473000000001,-29.06795,4.685242,0.5965533000000001,0.5957661999999999,1.0,-0.2813415999999999,0.05274963,0.9581451,32.02792,2.000641,-29.92137,5.667847,0.5517859,0.5207876,0.3553646,1.242988,0.1162634,0.02471494,0.4810615,0.01957088,5.709316,73.95154,31.281147416413372
1,-0.2960815,-0.02696228,0.9547729,1.0,-0.3592987,-0.08807373,0.9290466,-32.73845,0.5726776,-29.05118,4.670242,0.5935123000000001,0.5917554,1.0,-0.2344817999999999,0.03059387,0.9716339,32.20818,1.957092,-29.85037,5.456116000000001,0.540333,0.5236061,0.354674,1.243528,0.1138984999999999,0.02480552,0.4843087,0.0196017,5.709316,73.95154,31.281147416413372
1,-0.2960815,-0.02696228,0.9547729,1.0,-0.3592987,-0.08807373,0.9290466,-32.73845,0.5726776,-29.05118,4.670242,0.5935123000000001,0.5917554,1.0,-0.2344817999999999,0.03059387,0.9716339,32.20818,1.957092,-29.85037,5.456116000000001,0.540333,0.5236061,0.354674,1.243528,0.1138984999999999,0.02480552,0.4843087,0.0196017,5.709316,73.95154,31.281147416413372
1,-0.2960815,-0.02696228,0.9547729,1.0,-0.3592987,-0.08807373,0.9290466,-32.73845,0.5726776,-29.05118,4.670242,0.5935123000000001,0.5917554,1.0,-0.2344817999999999,0.03059387,0.9716339,32.20818,1.957092,-29.85037,5.456116000000001,0.540333,0.5236061,0.354674,1.243528,0.1138984999999999,0.02480552,0.4843087,0.0196017,5.709316,73.95154,31.281147416413372
1,-0.2681274,-0.04562378,0.9622955,1.0,-0.3575897,-0.08792114,0.929718,-32.72395,0.5712738,-29.05725,4.637894,0.5928004,0.5917946999999999,1.0,-0.1885833999999999,-0.008728027,0.9820099,32.28323,1.95842,-29.78082,5.228530999999999,0.5326495,0.526979,0.3540365,1.244232,0.1114607,0.02492776,0.4875911,0.01974032,5.709316,73.95154,31.281147416413372
1,-0.2681274,-0.04562378,0.9622955,1.0,-0.3575897,-0.08792114,0.929718,-32.72395,0.5712738,-29.05725,4.637894,0.5928004,0.5917946999999999,1.0,-0.1885833999999999,-0.008728027,0.9820099,32.28323,1.95842,-29.78082,5.228530999999999,0.5326495,0.526979,0.3540365,1.244232,0.1114607,0.02492776,0.4875911,0.01974032,5.709316,73.95154,31.281147416413372
1,-0.2681274,-0.04562378,0.9622955,1.0,-0.3575897,-0.08792114,0.929718,-32.72395,0.5712738,-29.05725,4.637894,0.5928004,0.5917946999999999,1.0,-0.1885833999999999,-0.008728027,0.9820099,32.28323,1.95842,-29.78082,5.228530999999999,0.5326495,0.526979,0.3540365,1.244232,0.1114607,0.02492776,0.4875911,0.01974032,5.709316,73.95154,31.281147416413372
1,-0.2667236,-0.05281067,0.9623108,1.0,-0.3480072,-0.08306885,0.9337921,-32.68675,0.5695343,-29.05861,4.588379,0.5903153,0.5911335,1.0,-0.1812134,-0.02137756,0.9832001,32.32913,2.008087,-29.76196,5.219681,0.5302244,0.5265325,0.3529986,1.245458,0.1074091999999999,0.02598177,0.4923979999999999,0.02007973,5.709316,-68.69327,31.281147416413372
1,-0.2667236,-0.05281067,0.9623108,1.0,-0.3480072,-0.08306885,0.9337921,-32.68675,0.5695343,-29.05861,4.588379,0.5903153,0.5911335,1.0,-0.1812134,-0.02137756,0.9832001,32.32913,2.008087,-29.76196,5.219681,0.5302244,0.5265325,0.3529986,1.245458,0.1074091999999999,0.02598177,0.4923979999999999,0.02007973,5.709316,-68.69327,31.281147416413372
1,-0.2667236,-0.05281067,0.9623108,1.0,-0.3480072,-0.08306885,0.9337921,-32.68675,0.5695343,-29.05861,4.588379,0.5903153,0.5911335,1.0,-0.1812134,-0.02137756,0.9832001,32.32913,2.008087,-29.76196,5.219681,0.5302244,0.5265325,0.3529986,1.245458,0.1074091999999999,0.02598177,0.4923979999999999,0.02007973,5.709316,-68.69327,31.281147416413372
1,-0.2573547,-0.04223633,0.9653778,1.0,-0.3444672,-0.07983398,0.9353943,-32.6814,0.5687866,-29.058640000000004,4.559631,0.5896836,0.5907074999999999,1.0,-0.1766204999999999,-0.007965088,0.9842377,32.3345,1.970734,-29.77287,5.223099,0.5295116999999999,0.5263031,0.3500518,1.248845,0.09760875,0.02641997,0.5045799,0.01961841,5.709316,-68.69327,31.281147416413372
1,-0.2573547,-0.04223633,0.9653778,1.0,-0.3444672,-0.07983398,0.9353943,-32.6814,0.5687866,-29.058640000000004,4.559631,0.5896836,0.5907074999999999,1.0,-0.1766204999999999,-0.007965088,0.9842377,32.3345,1.970734,-29.77287,5.223099,0.5295116999999999,0.5263031,0.3500518,1.248845,0.09760875,0.02641997,0.5045799,0.01961841,5.709316,-68.69327,31.281147416413372
1,-0.2573547,-0.04223633,0.9653778,1.0,-0.3444672,-0.07983398,0.9353943,-32.6814,0.5687866,-29.058640000000004,4.559631,0.5896836,0.5907074999999999,1.0,-0.1766204999999999,-0.007965088,0.9842377,32.3345,1.970734,-29.77287,5.223099,0.5295116999999999,0.5263031,0.3500518,1.248845,0.09760875,0.02641997,0.5045799,0.01961841,5.709316,-68.69327,31.281147416413372
1,-0.2425232,-0.03862,0.9693604,1.0,-0.3408966,-0.07652283,0.9369659,-32.67603,0.5680236999999999,-29.05865,4.53273,0.5890519000000001,0.5902816999999999,1.0,-0.1623687999999999,-0.008209229,0.9866943,32.34451,1.970444,-29.76912,5.206924,0.5275345,0.5262053000000001,0.348876,1.250468,0.09371096,0.02655092,0.5096255999999999,0.01957374,5.709316,-68.69327,31.81
1,-0.2425232,-0.03862,0.9693604,1.0,-0.3408966,-0.07652283,0.9369659,-32.67603,0.5680236999999999,-29.05865,4.53273,0.5890519000000001,0.5902816999999999,1.0,-0.1623687999999999,-0.008209229,0.9866943,32.34451,1.970444,-29.76912,5.206924,0.5275345,0.5262053000000001,0.348876,1.250468,0.09371096,0.02655092,0.5096255999999999,0.01957374,5.709316,-68.69327,31.81
1,-0.2425232,-0.03862,0.9693604,1.0,-0.3408966,-0.07652283,0.9369659,-32.67603,0.5680236999999999,-29.05865,4.53273,0.5890519000000001,0.5902816999999999,1.0,-0.1623687999999999,-0.008209229,0.9866943,32.34451,1.970444,-29.76912,5.206924,0.5275345,0.5262053000000001,0.348876,1.250468,0.09371096,0.02655092,0.5096255999999999,0.01957374,5.709316,-68.69327,31.81
1,-0.1554412999999999,0.01425171,0.9877319,1.0,-0.2199097,-0.04977417,0.9742432,-32.37575,0.6243134,-28.99246,4.35228,0.563778,0.5833371,1.0,-0.1253357,0.04368591,0.9911499,32.52774,2.058563,-29.76628,4.951477,0.5173659,0.5166277,0.3463072,1.254601,0.08508259,0.02608509,0.5210354,0.02071926,5.709316,-68.69327,31.81
1,-0.1554412999999999,0.01425171,0.9877319,1.0,-0.2199097,-0.04977417,0.9742432,-32.37575,0.6243134,-28.99246,4.35228,0.563778,0.5833371,1.0,-0.1253357,0.04368591,0.9911499,32.52774,2.058563,-29.76628,4.951477,0.5173659,0.5166277,0.3463072,1.254601,0.08508259,0.02608509,0.5210354,0.02071926,5.709316,-68.69327,31.81
1,-0.1554412999999999,0.01425171,0.9877319,1.0,-0.2199097,-0.04977417,0.9742432,-32.37575,0.6243134,-28.99246,4.35228,0.563778,0.5833371,1.0,-0.1253357,0.04368591,0.9911499,32.52774,2.058563,-29.76628,4.951477,0.5173659,0.5166277,0.3463072,1.254601,0.08508259,0.02608509,0.5210354,0.02071926,5.709316,-68.69327,31.81
1,-0.2033997,0.008621216,0.9790497,1.0,-0.2044525,0.008590698,0.9788208,-32.269009999999994,0.722229,-29.11598,4.424942,0.5583728,0.5741801,1.0,-0.05137634,0.0123290999999999,0.9985962,32.707440000000005,2.296814,-30.34996,4.828766000000001,0.5026953,0.516826,0.3444802999999999,1.256899,0.08035463,0.02395939,0.5276994,0.0221328,5.709316,-141.2468,31.81
1,-0.2033997,0.008621216,0.9790497,1.0,-0.2044525,0.008590698,0.9788208,-32.269009999999994,0.722229,-29.11598,4.424942,0.5583728,0.5741801,1.0,-0.05137634,0.0123290999999999,0.9985962,32.707440000000005,2.296814,-30.34996,4.828766000000001,0.5026953,0.516826,0.3444802999999999,1.256899,0.08035463,0.02395939,0.5276994,0.0221328,5.709316,-141.2468,31.81
1,-0.2033997,0.008621216,0.9790497,1.0,-0.2044525,0.008590698,0.9788208,-32.269009999999994,0.722229,-29.11598,4.424942,0.5583728,0.5741801,1.0,-0.05137634,0.0123290999999999,0.9985962,32.707440000000005,2.296814,-30.34996,4.828766000000001,0.5026953,0.516826,0.3444802999999999,1.256899,0.08035463,0.02395939,0.5276994,0.0221328,5.709316,-141.2468,31.81
1,-0.5520477,-0.07328796,0.8305664,1.0,-0.5811462,-0.09555054,0.8081512,-33.3877,0.6621399,-29.48442,4.418808,0.6456684,0.5972435,1.0,-0.4252014,0.01727295,0.9049225,31.322540000000004,1.886063,-30.36237,4.954147,0.5945948,0.5340963000000001,0.340304,1.261501,0.06998873,0.02230232,0.5420635,0.02386545,5.709316,-141.2468,31.81
1,-0.5520477,-0.07328796,0.8305664,1.0,-0.5811462,-0.09555054,0.8081512,-33.3877,0.6621399,-29.48442,4.418808,0.6456684,0.5972435,1.0,-0.4252014,0.01727295,0.9049225,31.322540000000004,1.886063,-30.36237,4.954147,0.5945948,0.5340963000000001,0.340304,1.261501,0.06998873,0.02230232,0.5420635,0.02386545,5.709316,-141.2468,31.81
1,-0.5520477,-0.07328796,0.8305664,1.0,-0.5811462,-0.09555054,0.8081512,-33.3877,0.6621399,-29.48442,4.418808,0.6456684,0.5972435,1.0,-0.4252014,0.01727295,0.9049225,31.322540000000004,1.886063,-30.36237,4.954147,0.5945948,0.5340963000000001,0.340304,1.261501,0.06998873,0.02230232,0.5420635,0.02386545,5.709316,-141.2468,31.81
1,-0.5304108000000001,-0.03517151,0.8470001,1.0,-0.5718994000000001,-0.09272766,0.8150482,-33.53896,0.5472107,-29.5489,4.343857,0.6499126999999999,0.6013235,1.0,-0.4689178,0.04333496,0.8821716000000001,31.22897,1.833542,-30.465670000000003,5.000168,0.6033286,0.534404,0.3381078,1.263818,0.06456524,0.02207195,0.5495595,0.02522355,5.709316,-141.2468,31.81
1,-0.5304108000000001,-0.03517151,0.8470001,1.0,-0.5718994000000001,-0.09272766,0.8150482,-33.53896,0.5472107,-29.5489,4.343857,0.6499126999999999,0.6013235,1.0,-0.4689178,0.04333496,0.8821716000000001,31.22897,1.833542,-30.465670000000003,5.000168,0.6033286,0.534404,0.3381078,1.263818,0.06456524,0.02207195,0.5495595,0.02522355,5.709316,-141.2468,31.81
1,-0.5304108000000001,-0.03517151,0.8470001,1.0,-0.5718994000000001,-0.09272766,0.8150482,-33.53896,0.5472107,-29.5489,4.343857,0.6499126999999999,0.6013235,1.0,-0.4689178,0.04333496,0.8821716000000001,31.22897,1.833542,-30.465670000000003,5.000168,0.6033286,0.534404,0.3381078,1.263818,0.06456524,0.02207195,0.5495595,0.02522355,5.709316,-141.2468,31.81
1,-0.464447,-0.04742432,0.8843231,1.0,-0.5489349,-0.1172637999999999,0.8275756999999999,-33.34425,0.6089325,-29.42342,4.240067,0.6397719000000001,0.6004603000000001,1.0,-0.377594,0.01959229,0.9257507,31.4342,1.770416,-30.27855,4.971588,0.5848302,0.5363751,0.3343115,1.267238,0.05617362,0.02269392,0.5611206,0.02661301,5.709316,-141.2468,31.81
1,-0.464447,-0.04742432,0.8843231,1.0,-0.5489349,-0.1172637999999999,0.8275756999999999,-33.34425,0.6089325,-29.42342,4.240067,0.6397719000000001,0.6004603000000001,1.0,-0.377594,0.01959229,0.9257507,31.4342,1.770416,-30.27855,4.971588,0.5848302,0.5363751,0.3343115,1.267238,0.05617362,0.02269392,0.5611206,0.02661301,5.709316,-141.2468,31.81
1,-0.464447,-0.04742432,0.8843231,1.0,-0.5489349,-0.1172637999999999,0.8275756999999999,-33.34425,0.6089325,-29.42342,4.240067,0.6397719000000001,0.6004603000000001,1.0,-0.377594,0.01959229,0.9257507,31.4342,1.770416,-30.27855,4.971588,0.5848302,0.5363751,0.3343115,1.267238,0.05617362,0.02269392,0.5611206,0.02661301,5.709316,-141.2468,31.81
1,-0.464447,-0.04742432,0.8843231,1.0,-0.5489349,-0.1172637999999999,0.8275756999999999,-33.34425,0.6089325,-29.42342,4.240067,0.6397719000000001,0.6004603000000001,1.0,-0.377594,0.01959229,0.9257507,31.4342,1.770416,-30.27855,4.971588,0.5848302,0.5363751,0.3269799,1.273167,0.04164451,0.02209641,0.5811366,0.02804643,5.709316,-141.2468,31.81
1,-0.464447,-0.04742432,0.8843231,1.0,-0.5489349,-0.1172637999999999,0.8275756999999999,-33.34425,0.6089325,-29.42342,4.240067,0.6397719000000001,0.6004603000000001,1.0,-0.377594,0.01959229,0.9257507,31.4342,1.770416,-30.27855,4.971588,0.5848302,0.5363751,0.3269799,1.273167,0.04164451,0.02209641,0.5811366,0.02804643,5.709316,-141.2468,31.81
1,-0.464447,-0.04742432,0.8843231,1.0,-0.5489349,-0.1172637999999999,0.8275756999999999,-33.34425,0.6089325,-29.42342,4.240067,0.6397719000000001,0.6004603000000001,1.0,-0.377594,0.01959229,0.9257507,31.4342,1.770416,-30.27855,4.971588,0.5848302,0.5363751,0.3269799,1.273167,0.04164451,0.02209641,0.5811366,0.02804643,5.709316,-141.2468,31.81
1,-0.464447,-0.04742432,0.8843231,1.0,-0.5489349,-0.1172637999999999,0.8275756999999999,-33.34425,0.6089325,-29.42342,4.240067,0.6397719000000001,0.6004603000000001,1.0,-0.377594,0.01959229,0.9257507,31.4342,1.770416,-30.27855,4.971588,0.5848302,0.5363751,0.3236025999999999,1.275956,0.03567594,0.02141786,0.5891082,0.02966924,5.709316,-230.4333,31.81
1,-0.464447,-0.04742432,0.8843231,1.0,-0.5489349,-0.1172637999999999,0.8275756999999999,-33.34425,0.6089325,-29.42342,4.240067,0.6397719000000001,0.6004603000000001,1.0,-0.377594,0.01959229,0.9257507,31.4342,1.770416,-30.27855,4.971588,0.5848302,0.5363751,0.3236025999999999,1.275956,0.03567594,0.02141786,0.5891082,0.02966924,5.709316,-230.4333,31.81
1,-0.464447,-0.04742432,0.8843231,1.0,-0.5489349,-0.1172637999999999,0.8275756999999999,-33.34425,0.6089325,-29.42342,4.240067,0.6397719000000001,0.6004603000000001,1.0,-0.377594,0.01959229,0.9257507,31.4342,1.770416,-30.27855,4.971588,0.5848302,0.5363751,0.3236025999999999,1.275956,0.03567594,0.02141786,0.5891082,0.02966924,5.709316,-230.4333,31.81
1,-0.457428,-0.07331848,0.8862152,1.0,-0.5248566,-0.1386871,0.8398131999999999,-33.25204,0.6061554,-29.35512,3.992111,0.6333048000000001,0.6019653,1.0,-0.3672028,0.008514404,0.9300842,31.5244,1.78804,-30.23558,4.758331,0.5807549,0.5363965999999999,0.3162276,1.28151,0.02352697,0.01935556,0.6059892,0.03094151,5.709316,-230.4333,31.81
1,-0.457428,-0.07331848,0.8862152,1.0,-0.5248566,-0.1386871,0.8398131999999999,-33.25204,0.6061554,-29.35512,3.992111,0.6333048000000001,0.6019653,1.0,-0.3672028,0.008514404,0.9300842,31.5244,1.78804,-30.23558,4.758331,0.5807549,0.5363965999999999,0.3162276,1.28151,0.02352697,0.01935556,0.6059892,0.03094151,5.709316,-230.4333,31.81
1,-0.457428,-0.07331848,0.8862152,1.0,-0.5248566,-0.1386871,0.8398131999999999,-33.25204,0.6061554,-29.35512,3.992111,0.6333048000000001,0.6019653,1.0,-0.3672028,0.008514404,0.9300842,31.5244,1.78804,-30.23558,4.758331,0.5807549,0.5363965999999999,0.3162276,1.28151,0.02352697,0.01935556,0.6059892,0.03094151,5.709316,-230.4333,31.81
1,-0.457428,-0.07331848,0.8862152,1.0,-0.5248566,-0.1386871,0.8398131999999999,-33.25204,0.6061554,-29.35512,3.992111,0.6333048000000001,0.6019653,1.0,-0.3672028,0.008514404,0.9300842,31.5244,1.78804,-30.23558,4.758331,0.5807549,0.5363965999999999,0.3120382,1.283903,0.01735163,0.0191524,0.614409,0.03029202,5.709316,-230.4333,31.81
1,-0.457428,-0.07331848,0.8862152,1.0,-0.5248566,-0.1386871,0.8398131999999999,-33.25204,0.6061554,-29.35512,3.992111,0.6333048000000001,0.6019653,1.0,-0.3672028,0.008514404,0.9300842,31.5244,1.78804,-30.23558,4.758331,0.5807549,0.5363965999999999,0.3120382,1.283903,0.01735163,0.0191524,0.614409,0.03029202,5.709316,-230.4333,31.81
1,-0.457428,-0.07331848,0.8862152,1.0,-0.5248566,-0.1386871,0.8398131999999999,-33.25204,0.6061554,-29.35512,3.992111,0.6333048000000001,0.6019653,1.0,-0.3672028,0.008514404,0.9300842,31.5244,1.78804,-30.23558,4.758331,0.5807549,0.5363965999999999,0.3120382,1.283903,0.01735163,0.0191524,0.614409,0.03029202,5.709316,-230.4333,31.81
1,-0.3400116,-0.0743866,0.9374695,1.0,-0.4518127,-0.1643523999999999,0.8768311,-33.013490000000004,0.6702880999999999,-29.174640000000004,3.934631,0.6151283000000001,0.5998675,1.0,-0.3003998,-0.04359436,0.9528046,31.84904,1.886276,-30.05423,4.424637000000001,0.5619255999999999,0.5365524,0.3006775,1.29118,0.002251446,0.01494302,0.633672,0.03301929,5.495911,-230.4333,31.81
1,-0.3400116,-0.0743866,0.9374695,1.0,-0.4518127,-0.1643523999999999,0.8768311,-33.013490000000004,0.6702880999999999,-29.174640000000004,3.934631,0.6151283000000001,0.5998675,1.0,-0.3003998,-0.04359436,0.9528046,31.84904,1.886276,-30.05423,4.424637000000001,0.5619255999999999,0.5365524,0.3006775,1.29118,0.002251446,0.01494302,0.633672,0.03301929,5.495911,-230.4333,31.81
1,-0.3400116,-0.0743866,0.9374695,1.0,-0.4518127,-0.1643523999999999,0.8768311,-33.013490000000004,0.6702880999999999,-29.174640000000004,3.934631,0.6151283000000001,0.5998675,1.0,-0.3003998,-0.04359436,0.9528046,31.84904,1.886276,-30.05423,4.424637000000001,0.5619255999999999,0.5365524,0.3006775,1.29118,0.002251446,0.01494302,0.633672,0.03301929,5.495911,-230.4333,31.81
1,-0.3400116,-0.0743866,0.9374695,1.0,-0.4518127,-0.1643523999999999,0.8768311,-33.013490000000004,0.6702880999999999,-29.174640000000004,3.934631,0.6151283000000001,0.5998675,1.0,-0.3003998,-0.04359436,0.9528046,31.84904,1.886276,-30.05423,4.424637000000001,0.5619255999999999,0.5365524,0.292614,1.29618,-0.006780803,0.01102221,0.6436917,0.03507371,5.495911,-230.4333,31.81
1,-0.3400116,-0.0743866,0.9374695,1.0,-0.4518127,-0.1643523999999999,0.8768311,-33.013490000000004,0.6702880999999999,-29.174640000000004,3.934631,0.6151283000000001,0.5998675,1.0,-0.3003998,-0.04359436,0.9528046,31.84904,1.886276,-30.05423,4.424637000000001,0.5619255999999999,0.5365524,0.292614,1.29618,-0.006780803,0.01102221,0.6436917,0.03507371,5.495911,-230.4333,31.81
1,-0.3400116,-0.0743866,0.9374695,1.0,-0.4518127,-0.1643523999999999,0.8768311,-33.013490000000004,0.6702880999999999,-29.174640000000004,3.934631,0.6151283000000001,0.5998675,1.0,-0.3003998,-0.04359436,0.9528046,31.84904,1.886276,-30.05423,4.424637000000001,0.5619255999999999,0.5365524,0.292614,1.29618,-0.006780803,0.01102221,0.6436917,0.03507371,5.495911,-230.4333,31.81
1,-0.3269347999999999,-0.0776062,0.9418488000000002,1.0,-0.4592742999999999,-0.1646729,0.8728790000000001,-32.94315,0.6655426,-29.158520000000003,3.871185,0.6136438,0.5999898,1.0,-0.2828522,-0.04946899,0.9578705,31.88474,1.907181,-30.02495,4.435898,0.5585673000000001,0.5360965,0.292614,1.29618,-0.006780803,0.01102221,0.6436917,0.03507371,5.495911,-230.4333,31.81
1,-0.3269347999999999,-0.0776062,0.9418488000000002,1.0,-0.4592742999999999,-0.1646729,0.8728790000000001,-32.94315,0.6655426,-29.158520000000003,3.871185,0.6136438,0.5999898,1.0,-0.2828522,-0.04946899,0.9578705,31.88474,1.907181,-30.02495,4.435898,0.5585673000000001,0.5360965,0.292614,1.29618,-0.006780803,0.01102221,0.6436917,0.03507371,5.495911,-230.4333,31.81
1,-0.3269347999999999,-0.0776062,0.9418488000000002,1.0,-0.4592742999999999,-0.1646729,0.8728790000000001,-32.94315,0.6655426,-29.158520000000003,3.871185,0.6136438,0.5999898,1.0,-0.2828522,-0.04946899,0.9578705,31.88474,1.907181,-30.02495,4.435898,0.5585673000000001,0.5360965,0.292614,1.29618,-0.006780803,0.01102221,0.6436917,0.03507371,5.495911,-230.4333,31.81
2,-0.3269347999999999,-0.0776062,0.9418488000000002,1.0,-0.4592742999999999,-0.1646729,0.8728790000000001,-32.94315,0.6655426,-29.158520000000003,3.871185,0.6136438,0.5999898,1.0,-0.2828522,-0.04946899,0.9578705,31.88474,1.907181,-30.02495,4.435898,0.5585673000000001,0.5360965,0.2839124,1.30127,-0.0155862,0.006035387,0.6531011999999999,0.03533119,5.495911,-89.72864,31.81
2,-0.3269347999999999,-0.0776062,0.9418488000000002,1.0,-0.4592742999999999,-0.1646729,0.8728790000000001,-32.94315,0.6655426,-29.158520000000003,3.871185,0.6136438,0.5999898,1.0,-0.2828522,-0.04946899,0.9578705,31.88474,1.907181,-30.02495,4.435898,0.5585673000000001,0.5360965,0.2839124,1.30127,-0.0155862,0.006035387,0.6531011999999999,0.03533119,5.495911,-89.72864,31.81
2,-0.3269347999999999,-0.0776062,0.9418488000000002,1.0,-0.4592742999999999,-0.1646729,0.8728790000000001,-32.94315,0.6655426,-29.158520000000003,3.871185,0.6136438,0.5999898,1.0,-0.2828522,-0.04946899,0.9578705,31.88474,1.907181,-30.02495,4.435898,0.5585673000000001,0.5360965,0.2839124,1.30127,-0.0155862,0.006035387,0.6531011999999999,0.03533119,5.495911,-89.72864,31.81
2,-0.1721954,-0.1275176999999999,0.9767609,1.0,-0.1794739,-0.1296539,0.975174,-31.92088,0.5502166999999999,-29.06563,3.719345,0.5430121,0.5954763000000001,1.0,-0.04489136,-0.0894165,0.9949799,33.03267,1.891708,-29.72003,3.926407,0.4917276,0.5362713000000001,0.2650419,1.312173,-0.03199989,-0.0073298109999999,0.6677179,0.03951695,5.495911,-89.72864,31.81
2,-0.1721954,-0.1275176999999999,0.9767609,1.0,-0.1794739,-0.1296539,0.975174,-31.92088,0.5502166999999999,-29.06563,3.719345,0.5430121,0.5954763000000001,1.0,-0.04489136,-0.0894165,0.9949799,33.03267,1.891708,-29.72003,3.926407,0.4917276,0.5362713000000001,0.2650419,1.312173,-0.03199989,-0.0073298109999999,0.6677179,0.03951695,5.495911,-89.72864,31.81
2,-0.1721954,-0.1275176999999999,0.9767609,1.0,-0.1794739,-0.1296539,0.975174,-31.92088,0.5502166999999999,-29.06563,3.719345,0.5430121,0.5954763000000001,1.0,-0.04489136,-0.0894165,0.9949799,33.03267,1.891708,-29.72003,3.926407,0.4917276,0.5362713000000001,0.2650419,1.312173,-0.03199989,-0.0073298109999999,0.6677179,0.03951695,5.495911,-89.72864,31.81
2,-0.1721954,-0.1275176999999999,0.9767609,1.0,-0.1794739,-0.1296539,0.975174,-31.92088,0.5502166999999999,-29.06563,3.719345,0.5430121,0.5954763000000001,1.0,-0.04489136,-0.0894165,0.9949799,33.03267,1.891708,-29.72003,3.926407,0.4917276,0.5362713000000001,0.2550251,1.316986,-0.03969485,-0.0127488999999999,0.674005,0.03943655,5.495911,-89.72864,31.81
2,-0.1721954,-0.1275176999999999,0.9767609,1.0,-0.1794739,-0.1296539,0.975174,-31.92088,0.5502166999999999,-29.06563,3.719345,0.5430121,0.5954763000000001,1.0,-0.04489136,-0.0894165,0.9949799,33.03267,1.891708,-29.72003,3.926407,0.4917276,0.5362713000000001,0.2550251,1.316986,-0.03969485,-0.0127488999999999,0.674005,0.03943655,5.495911,-89.72864,31.81
2,-0.1721954,-0.1275176999999999,0.9767609,1.0,-0.1794739,-0.1296539,0.975174,-31.92088,0.5502166999999999,-29.06563,3.719345,0.5430121,0.5954763000000001,1.0,-0.04489136,-0.0894165,0.9949799,33.03267,1.891708,-29.72003,3.926407,0.4917276,0.5362713000000001,0.2550251,1.316986,-0.03969485,-0.0127488999999999,0.674005,0.03943655,5.495911,-89.72864,31.81
2,-0.1879424999999999,-0.1429291,0.9717102,1.0,-0.1887817,-0.1432648,0.9714966,-31.818790000000003,0.5894775,-28.99181,3.76149,0.5406075,0.5951478,1.0,-0.01452637,-0.07215881,0.9972839,33.0976,2.032578,-30.368990000000004,4.085739,0.4856074000000001,0.5351999,0.2450581,1.321522,-0.04724187,-0.01813864,0.6800475,0.04021777,5.495911,-89.72864,31.81
2,-0.1879424999999999,-0.1429291,0.9717102,1.0,-0.1887817,-0.1432648,0.9714966,-31.818790000000003,0.5894775,-28.99181,3.76149,0.5406075,0.5951478,1.0,-0.01452637,-0.07215881,0.9972839,33.0976,2.032578,-30.368990000000004,4.085739,0.4856074000000001,0.5351999,0.2450581,1.321522,-0.04724187,-0.01813864,0.6800475,0.04021777,5.495911,-89.72864,31.81
2,-0.1879424999999999,-0.1429291,0.9717102,1.0,-0.1887817,-0.1432648,0.9714966,-31.818790000000003,0.5894775,-28.99181,3.76149,0.5406075,0.5951478,1.0,-0.01452637,-0.07215881,0.9972839,33.0976,2.032578,-30.368990000000004,4.085739,0.4856074000000001,0.5351999,0.2450581,1.321522,-0.04724187,-0.01813864,0.6800475,0.04021777,5.495911,-89.72864,31.81
2,-0.1184998,-0.1569214,0.9804688,1.0,-0.1184998,-0.1569214,0.9804688,-31.54251,0.4357452,-29.16193,3.667801,0.522586,0.6033773,1.0,0.04364014,-0.09423828,0.9945831,33.50125,1.265366,-28.15263,4.21553,0.4655315,0.5438493000000001,0.2378353999999999,1.32819,-0.05173719,-0.02235904,0.6847757,0.04240226,5.495911,130.2265,31.81
2,-0.1184998,-0.1569214,0.9804688,1.0,-0.1184998,-0.1569214,0.9804688,-31.54251,0.4357452,-29.16193,3.667801,0.522586,0.6033773,1.0,0.04364014,-0.09423828,0.9945831,33.50125,1.265366,-28.15263,4.21553,0.4655315,0.5438493000000001,0.2378353999999999,1.32819,-0.05173719,-0.02235904,0.6847757,0.04240226,5.495911,130.2265,31.81
2,-0.1184998,-0.1569214,0.9804688,1.0,-0.1184998,-0.1569214,0.9804688,-31.54251,0.4357452,-29.16193,3.667801,0.522586,0.6033773,1.0,0.04364014,-0.09423828,0.9945831,33.50125,1.265366,-28.15263,4.21553,0.4655315,0.5438493000000001,0.2378353999999999,1.32819,-0.05173719,-0.02235904,0.6847757,0.04240226,5.495911,130.2265,31.81
2,-0.0769043,-0.1647797,0.9833221,1.0,-0.08036804,-0.1657562,0.9828796,-31.47415,0.3537291999999999,-29.21466,3.645844,0.5156191,0.6076986999999999,1.0,0.08055115,-0.1188048999999999,0.9896393,33.51511,1.443192,-29.1702,4.032898,0.4604189,0.5497502,0.228259,1.331852,-0.05836111,-0.02512114,0.6889076999999999,0.04340582,5.495911,130.2265,31.81
2,-0.0769043,-0.1647797,0.9833221,1.0,-0.08036804,-0.1657562,0.9828796,-31.47415,0.3537291999999999,-29.21466,3.645844,0.5156191,0.6076986999999999,1.0,0.08055115,-0.1188048999999999,0.9896393,33.51511,1.443192,-29.1702,4.032898,0.4604189,0.5497502,0.228259,1.331852,-0.05836111,-0.02512114,0.6889076999999999,0.04340582,5.495911,130.2265,31.81
2,-0.0769043,-0.1647797,0.9833221,1.0,-0.08036804,-0.1657562,0.9828796,-31.47415,0.3537291999999999,-29.21466,3.645844,0.5156191,0.6076986999999999,1.0,0.08055115,-0.1188048999999999,0.9896393,33.51511,1.443192,-29.1702,4.032898,0.4604189,0.5497502,0.228259,1.331852,-0.05836111,-0.02512114,0.6889076999999999,0.04340582,5.495911,130.2265,31.81
2,-0.1745911,-0.1624908,0.9711304,1.0,-0.1751709,-0.162796,0.9709778,-31.84515,0.4774779999999999,-29.159440000000004,3.605942,0.5398988,0.6029033,1.0,-0.04229736,-0.09289551,0.9947662,33.09769,1.638046,-29.33818,3.981186,0.4891773,0.5418932,0.2089444,1.3395709999999998,-0.07102782,-0.03699103,0.6970738000000001,0.04427982,5.495911,130.2265,31.81
2,-0.1745911,-0.1624908,0.9711304,1.0,-0.1751709,-0.162796,0.9709778,-31.84515,0.4774779999999999,-29.159440000000004,3.605942,0.5398988,0.6029033,1.0,-0.04229736,-0.09289551,0.9947662,33.09769,1.638046,-29.33818,3.981186,0.4891773,0.5418932,0.2089444,1.3395709999999998,-0.07102782,-0.03699103,0.6970738000000001,0.04427982,5.495911,130.2265,31.81
2,-0.1745911,-0.1624908,0.9711304,1.0,-0.1751709,-0.162796,0.9709778,-31.84515,0.4774779999999999,-29.159440000000004,3.605942,0.5398988,0.6029033,1.0,-0.04229736,-0.09289551,0.9947662,33.09769,1.638046,-29.33818,3.981186,0.4891773,0.5418932,0.2089444,1.3395709999999998,-0.07102782,-0.03699103,0.6970738000000001,0.04427982,5.495911,130.2265,31.81
2,-0.2292632999999999,-0.1623077,0.9597321,1.0,-0.2295532,-0.1624908,0.9596252,-32.01988,0.5152893,-29.23083,3.545425,0.5526471,0.6025772,1.0,-0.06108093,-0.05630493,0.9965363000000002,32.897420000000004,1.747391,-29.372390000000003,4.133376999999999,0.498086,0.5343496,0.1992352,1.34258,-0.07693177,-0.03895842,0.6998711999999999,0.04548442,5.495911,130.2265,31.81
2,-0.2292632999999999,-0.1623077,0.9597321,1.0,-0.2295532,-0.1624908,0.9596252,-32.01988,0.5152893,-29.23083,3.545425,0.5526471,0.6025772,1.0,-0.06108093,-0.05630493,0.9965363000000002,32.897420000000004,1.747391,-29.372390000000003,4.133376999999999,0.498086,0.5343496,0.1992352,1.34258,-0.07693177,-0.03895842,0.6998711999999999,0.04548442,5.495911,130.2265,31.81
2,-0.2292632999999999,-0.1623077,0.9597321,1.0,-0.2295532,-0.1624908,0.9596252,-32.01988,0.5152893,-29.23083,3.545425,0.5526471,0.6025772,1.0,-0.06108093,-0.05630493,0.9965363000000002,32.897420000000004,1.747391,-29.372390000000003,4.133376999999999,0.498086,0.5343496,0.1992352,1.34258,-0.07693177,-0.03895842,0.6998711999999999,0.04548442,5.495911,130.2265,31.81
2,-0.2295227,-0.1871796,0.9551239,1.0,-0.2295227,-0.1871796,0.9551239,-32.158359999999995,0.4366301999999999,-29.227490000000003,3.3391269999999995,0.5573924,0.6083114000000001,1.0,-0.0997467,-0.1159668,0.9882202,32.8089,1.7130279999999998,-29.91035,3.999908,0.5056906,0.5477062,0.18977,1.346192,-0.08240318,-0.04292234,0.7022978,0.04575496,5.495911,130.2265,31.81
2,-0.2295227,-0.1871796,0.9551239,1.0,-0.2295227,-0.1871796,0.9551239,-32.158359999999995,0.4366301999999999,-29.227490000000003,3.3391269999999995,0.5573924,0.6083114000000001,1.0,-0.0997467,-0.1159668,0.9882202,32.8089,1.7130279999999998,-29.91035,3.999908,0.5056906,0.5477062,0.18977,1.346192,-0.08240318,-0.04292234,0.7022978,0.04575496,5.495911,130.2265,31.81
2,-0.2295227,-0.1871796,0.9551239,1.0,-0.2295227,-0.1871796,0.9551239,-32.158359999999995,0.4366301999999999,-29.227490000000003,3.3391269999999995,0.5573924,0.6083114000000001,1.0,-0.0997467,-0.1159668,0.9882202,32.8089,1.7130279999999998,-29.91035,3.999908,0.5056906,0.5477062,0.18977,1.346192,-0.08240318,-0.04292234,0.7022978,0.04575496,5.495911,130.2265,31.81
2,-0.2311096,-0.1767273,0.9567261,1.0,-0.2316436999999999,-0.1769867,0.9565582,-32.12936,0.4366301999999999,-29.22942,3.385925,0.556657,0.6070691,1.0,-0.08854675,-0.1098938,0.989975,32.87746,1.7589419999999998,-30.16006,3.898621,0.5021180000000001,0.547515,0.1797686,1.348708,-0.08762449,-0.04478184,0.7043816999999999,0.04531539,5.495911,130.2265,31.81
2,-0.2311096,-0.1767273,0.9567261,1.0,-0.2316436999999999,-0.1769867,0.9565582,-32.12936,0.4366301999999999,-29.22942,3.385925,0.556657,0.6070691,1.0,-0.08854675,-0.1098938,0.989975,32.87746,1.7589419999999998,-30.16006,3.898621,0.5021180000000001,0.547515,0.1797686,1.348708,-0.08762449,-0.04478184,0.7043816999999999,0.04531539,5.495911,130.2265,31.81
2,-0.2311096,-0.1767273,0.9567261,1.0,-0.2316436999999999,-0.1769867,0.9565582,-32.12936,0.4366301999999999,-29.22942,3.385925,0.556657,0.6070691,1.0,-0.08854675,-0.1098938,0.989975,32.87746,1.7589419999999998,-30.16006,3.898621,0.5021180000000001,0.547515,0.1797686,1.348708,-0.08762449,-0.04478184,0.7043816999999999,0.04531539,5.495911,130.2265,31.81
2,-0.2311096,-0.1767273,0.9567261,1.0,-0.2316436999999999,-0.1769867,0.9565582,-32.12936,0.4366301999999999,-29.22942,3.385925,0.556657,0.6070691,1.0,-0.08854675,-0.1098938,0.989975,32.87746,1.7589419999999998,-30.16006,3.898621,0.5021180000000001,0.547515,0.1698012,1.351606,-0.09246033,-0.04802136,0.7057176,0.04763613,5.495911,90.28613,31.81
2,-0.2311096,-0.1767273,0.9567261,1.0,-0.2316436999999999,-0.1769867,0.9565582,-32.12936,0.4366301999999999,-29.22942,3.385925,0.556657,0.6070691,1.0,-0.08854675,-0.1098938,0.989975,32.87746,1.7589419999999998,-30.16006,3.898621,0.5021180000000001,0.547515,0.1698012,1.351606,-0.09246033,-0.04802136,0.7057176,0.04763613,5.495911,90.28613,31.81
2,-0.2311096,-0.1767273,0.9567261,1.0,-0.2316436999999999,-0.1769867,0.9565582,-32.12936,0.4366301999999999,-29.22942,3.385925,0.556657,0.6070691,1.0,-0.08854675,-0.1098938,0.989975,32.87746,1.7589419999999998,-30.16006,3.898621,0.5021180000000001,0.547515,0.1698012,1.351606,-0.09246033,-0.04802136,0.7057176,0.04763613,5.495911,90.28613,31.81
2,-0.2311096,-0.1767273,0.9567261,1.0,-0.2316436999999999,-0.1769867,0.9565582,-32.12936,0.4366301999999999,-29.22942,3.385925,0.556657,0.6070691,1.0,-0.08854675,-0.1098938,0.989975,32.87746,1.7589419999999998,-30.16006,3.898621,0.5021180000000001,0.547515,0.1598184,1.354307,-0.09674424,-0.05172527,0.7063401999999999,0.05066962,5.495911,90.28613,31.81
2,-0.2311096,-0.1767273,0.9567261,1.0,-0.2316436999999999,-0.1769867,0.9565582,-32.12936,0.4366301999999999,-29.22942,3.385925,0.556657,0.6070691,1.0,-0.08854675,-0.1098938,0.989975,32.87746,1.7589419999999998,-30.16006,3.898621,0.5021180000000001,0.547515,0.1598184,1.354307,-0.09674424,-0.05172527,0.7063401999999999,0.05066962,5.495911,90.28613,31.81
2,-0.2311096,-0.1767273,0.9567261,1.0,-0.2316436999999999,-0.1769867,0.9565582,-32.12936,0.4366301999999999,-29.22942,3.385925,0.556657,0.6070691,1.0,-0.08854675,-0.1098938,0.989975,32.87746,1.7589419999999998,-30.16006,3.898621,0.5021180000000001,0.547515,0.1598184,1.354307,-0.09674424,-0.05172527,0.7063401999999999,0.05066962,5.495911,90.28613,31.81
2,-0.2187958,-0.1863861,0.9577942,1.0,-0.2188416,-0.1864014,0.9577789,-31.95772,0.3873749,-29.17383,3.456894,0.5491253,0.6093337,1.0,-0.06126404,-0.1331023999999999,0.9891968,33.04359,1.538422,-29.65991,3.885635,0.4932393,0.5531326999999999,0.1498299,1.355948,-0.1008146,-0.05265994,0.7072689999999999,0.05161431,5.495911,90.28613,31.81
2,-0.2187958,-0.1863861,0.9577942,1.0,-0.2188416,-0.1864014,0.9577789,-31.95772,0.3873749,-29.17383,3.456894,0.5491253,0.6093337,1.0,-0.06126404,-0.1331023999999999,0.9891968,33.04359,1.538422,-29.65991,3.885635,0.4932393,0.5531326999999999,0.1498299,1.355948,-0.1008146,-0.05265994,0.7072689999999999,0.05161431,5.495911,90.28613,31.81
2,-0.2187958,-0.1863861,0.9577942,1.0,-0.2188416,-0.1864014,0.9577789,-31.95772,0.3873749,-29.17383,3.456894,0.5491253,0.6093337,1.0,-0.06126404,-0.1331023999999999,0.9891968,33.04359,1.538422,-29.65991,3.885635,0.4932393,0.5531326999999999,0.1498299,1.355948,-0.1008146,-0.05265994,0.7072689999999999,0.05161431,5.495911,90.28613,31.81
2,-0.2187958,-0.1863861,0.9577942,1.0,-0.2188416,-0.1864014,0.9577789,-31.95772,0.3873749,-29.17383,3.456894,0.5491253,0.6093337,1.0,-0.06126404,-0.1331023999999999,0.9891968,33.04359,1.538422,-29.65991,3.885635,0.4932393,0.5531326999999999,0.1402946,1.357852,-0.1046038,-0.05544606,0.7078857,0.0536323,5.495911,90.28613,31.81
2,-0.2187958,-0.1863861,0.9577942,1.0,-0.2188416,-0.1864014,0.9577789,-31.95772,0.3873749,-29.17383,3.456894,0.5491253,0.6093337,1.0,-0.06126404,-0.1331023999999999,0.9891968,33.04359,1.538422,-29.65991,3.885635,0.4932393,0.5531326999999999,0.1402946,1.357852,-0.1046038,-0.05544606,0.7078857,0.0536323,5.495911,90.28613,31.81
2,-0.2187958,-0.1863861,0.9577942,1.0,-0.2188416,-0.1864014,0.9577789,-31.95772,0.3873749,-29.17383,3.456894,0.5491253,0.6093337,1.0,-0.06126404,-0.1331023999999999,0.9891968,33.04359,1.538422,-29.65991,3.885635,0.4932393,0.5531326999999999,0.1402946,1.357852,-0.1046038,-0.05544606,0.7078857,0.0536323,5.495911,90.28613,31.81
2,-0.1888275,-0.1917724999999999,0.963089,1.0,-0.190567,-0.1925507,0.9626007,-31.9371,0.2591704999999999,-29.17348,3.3026730000000004,0.544856,0.6142804000000001,1.0,-0.06808472,-0.137146,0.988205,33.10699,1.419907,-29.61778,3.917618,0.4918239,0.5573137,0.1310689,1.360061,-0.1078933,-0.06165838,0.7080361999999999,0.05569999,5.495911,-1.84906,31.81
2,-0.1888275,-0.1917724999999999,0.963089,1.0,-0.190567,-0.1925507,0.9626007,-31.9371,0.2591704999999999,-29.17348,3.3026730000000004,0.544856,0.6142804000000001,1.0,-0.06808472,-0.137146,0.988205,33.10699,1.419907,-29.61778,3.917618,0.4918239,0.5573137,0.1310689,1.360061,-0.1078933,-0.06165838,0.7080361999999999,0.05569999,5.495911,-1.84906,31.81
2,-0.1888275,-0.1917724999999999,0.963089,1.0,-0.190567,-0.1925507,0.9626007,-31.9371,0.2591704999999999,-29.17348,3.3026730000000004,0.544856,0.6142804000000001,1.0,-0.06808472,-0.137146,0.988205,33.10699,1.419907,-29.61778,3.917618,0.4918239,0.5573137,0.1310689,1.360061,-0.1078933,-0.06165838,0.7080361999999999,0.05569999,5.495911,-1.84906,31.81
2,-0.1872864,-0.1905212,0.9636383,1.0,-0.1872864,-0.1905212,0.9636383,-31.91887,0.2675781,-29.1675,3.347107,0.5438331999999999,0.6136741,1.0,-0.07116699,-0.139267,0.9876862,33.19162,1.13237,-28.46909,3.882889,0.4895715,0.5568569999999999,0.1218288,1.361645,-0.1110523,-0.06366204,0.707525,0.05751669,5.495911,-1.84906,31.81
2,-0.1872864,-0.1905212,0.9636383,1.0,-0.1872864,-0.1905212,0.9636383,-31.91887,0.2675781,-29.1675,3.347107,0.5438331999999999,0.6136741,1.0,-0.07116699,-0.139267,0.9876862,33.19162,1.13237,-28.46909,3.882889,0.4895715,0.5568569999999999,0.1218288,1.361645,-0.1110523,-0.06366204,0.707525,0.05751669,5.495911,-1.84906,31.81
2,-0.1872864,-0.1905212,0.9636383,1.0,-0.1872864,-0.1905212,0.9636383,-31.91887,0.2675781,-29.1675,3.347107,0.5438331999999999,0.6136741,1.0,-0.07116699,-0.139267,0.9876862,33.19162,1.13237,-28.46909,3.882889,0.4895715,0.5568569999999999,0.1218288,1.361645,-0.1110523,-0.06366204,0.707525,0.05751669,5.495911,-1.84906,31.81
2,-0.1832427999999999,-0.2041016,0.9616394,1.0,-0.1832581,-0.2041168,0.9616241,-31.91278,0.2518768,-29.17773,3.3390660000000003,0.5431405,0.616017,1.0,-0.07223511,-0.1573792,0.9848785,33.1812,1.160065,-29.08778,3.791565,0.4899959,0.5637310000000001,0.1122565,1.362509,-0.1144335,-0.06296533,0.7067840999999999,0.0577208,5.495911,-1.84906,31.81
2,-0.1832427999999999,-0.2041016,0.9616394,1.0,-0.1832581,-0.2041168,0.9616241,-31.91278,0.2518768,-29.17773,3.3390660000000003,0.5431405,0.616017,1.0,-0.07223511,-0.1573792,0.9848785,33.1812,1.160065,-29.08778,3.791565,0.4899959,0.5637310000000001,0.1122565,1.362509,-0.1144335,-0.06296533,0.7067840999999999,0.0577208,5.495911,-1.84906,31.81
2,-0.1832427999999999,-0.2041016,0.9616394,1.0,-0.1832581,-0.2041168,0.9616241,-31.91278,0.2518768,-29.17773,3.3390660000000003,0.5431405,0.616017,1.0,-0.07223511,-0.1573792,0.9848785,33.1812,1.160065,-29.08778,3.791565,0.4899959,0.5637310000000001,0.1122565,1.362509,-0.1144335,-0.06296533,0.7067840999999999,0.0577208,5.495911,-1.84906,31.81
2,-0.1855316,-0.2016753999999999,0.9617157,1.0,-0.1856079,-0.2017059,0.9616852,-31.90414,0.242569,-29.17847,3.339249,0.5431292,0.6160523,1.0,-0.07328796,-0.1557922,0.9850616,33.17995,1.161285,-29.11493,3.803223000000001,0.4901439999999999,0.563757,0.1030622,1.363099,-0.117408,-0.06091994,0.7059609,0.05438489,5.495911,-1.84906,31.81
2,-0.1855316,-0.2016753999999999,0.9617157,1.0,-0.1856079,-0.2017059,0.9616852,-31.90414,0.242569,-29.17847,3.339249,0.5431292,0.6160523,1.0,-0.07328796,-0.1557922,0.9850616,33.17995,1.161285,-29.11493,3.803223000000001,0.4901439999999999,0.563757,0.1030622,1.363099,-0.117408,-0.06091994,0.7059609,0.05438489,5.495911,-1.84906,31.81
2,-0.1855316,-0.2016753999999999,0.9617157,1.0,-0.1856079,-0.2017059,0.9616852,-31.90414,0.242569,-29.17847,3.339249,0.5431292,0.6160523,1.0,-0.07328796,-0.1557922,0.9850616,33.17995,1.161285,-29.11493,3.803223000000001,0.4901439999999999,0.563757,0.1030622,1.363099,-0.117408,-0.06091994,0.7059609,0.05438489,5.495911,-1.84906,31.81
2,-0.1855316,-0.2016753999999999,0.9617157,1.0,-0.1856079,-0.2017059,0.9616852,-31.90414,0.242569,-29.17847,3.339249,0.5431292,0.6160523,1.0,-0.07328796,-0.1557922,0.9850616,33.17995,1.161285,-29.11493,3.803223000000001,0.4901439999999999,0.563757,0.09418893,1.363942,-0.1203414,-0.06126501,0.7050841999999999,0.05288554,5.495911,-1.84906,31.81
2,-0.1855316,-0.2016753999999999,0.9617157,1.0,-0.1856079,-0.2017059,0.9616852,-31.90414,0.242569,-29.17847,3.339249,0.5431292,0.6160523,1.0,-0.07328796,-0.1557922,0.9850616,33.17995,1.161285,-29.11493,3.803223000000001,0.4901439999999999,0.563757,0.09418893,1.363942,-0.1203414,-0.06126501,0.7050841999999999,0.05288554,5.495911,-1.84906,31.81
2,-0.1855316,-0.2016753999999999,0.9617157,1.0,-0.1856079,-0.2017059,0.9616852,-31.90414,0.242569,-29.17847,3.339249,0.5431292,0.6160523,1.0,-0.07328796,-0.1557922,0.9850616,33.17995,1.161285,-29.11493,3.803223000000001,0.4901439999999999,0.563757,0.09418893,1.363942,-0.1203414,-0.06126501,0.7050841999999999,0.05288554,5.495911,-1.84906,31.81
2,-0.1884612999999999,-0.1962585,0.962265,1.0,-0.1896515,-0.19664,0.9619446,-31.89716,0.22258,-29.17847,3.3374940000000004,0.5433829000000001,0.6161262,1.0,-0.06826782,-0.1572418,0.9851837,33.174240000000005,1.154465,-29.166690000000003,3.823624,0.4897034,0.5646295,0.08552122,1.364897,-0.123167,-0.06146734,0.704385,0.05147562,5.495911,-1.84906,31.81
2,-0.1884612999999999,-0.1962585,0.962265,1.0,-0.1896515,-0.19664,0.9619446,-31.89716,0.22258,-29.17847,3.3374940000000004,0.5433829000000001,0.6161262,1.0,-0.06826782,-0.1572418,0.9851837,33.174240000000005,1.154465,-29.166690000000003,3.823624,0.4897034,0.5646295,0.08552122,1.364897,-0.123167,-0.06146734,0.704385,0.05147562,5.495911,-1.84906,31.81
2,-0.1884612999999999,-0.1962585,0.962265,1.0,-0.1896515,-0.19664,0.9619446,-31.89716,0.22258,-29.17847,3.3374940000000004,0.5433829000000001,0.6161262,1.0,-0.06826782,-0.1572418,0.9851837,33.174240000000005,1.154465,-29.166690000000003,3.823624,0.4897034,0.5646295,0.08552122,1.364897,-0.123167,-0.06146734,0.704385,0.05147562,5.495911,-1.84906,31.81
2,-0.1884612999999999,-0.1962585,0.962265,1.0,-0.1896515,-0.19664,0.9619446,-31.89716,0.22258,-29.17847,3.3374940000000004,0.5433829000000001,0.6161262,1.0,-0.06826782,-0.1572418,0.9851837,33.174240000000005,1.154465,-29.166690000000003,3.823624,0.4897034,0.5646295,0.07702661,1.365358,-0.1257878,-0.06146928,0.704241,0.0493848,5.495911,-43.30554,31.81
2,-0.1884612999999999,-0.1962585,0.962265,1.0,-0.1896515,-0.19664,0.9619446,-31.89716,0.22258,-29.17847,3.3374940000000004,0.5433829000000001,0.6161262,1.0,-0.06826782,-0.1572418,0.9851837,33.174240000000005,1.154465,-29.166690000000003,3.823624,0.4897034,0.5646295,0.07702661,1.365358,-0.1257878,-0.06146928,0.704241,0.0493848,5.495911,-43.30554,31.81
2,-0.1884612999999999,-0.1962585,0.962265,1.0,-0.1896515,-0.19664,0.9619446,-31.89716,0.22258,-29.17847,3.3374940000000004,0.5433829000000001,0.6161262,1.0,-0.06826782,-0.1572418,0.9851837,33.174240000000005,1.154465,-29.166690000000003,3.823624,0.4897034,0.5646295,0.07702661,1.365358,-0.1257878,-0.06146928,0.704241,0.0493848,5.495911,-43.30554,31.81
2,-0.1628417999999999,-0.185318,0.9690857,1.0,-0.1920319,-0.2006226,0.9606476,-31.89549,0.1622467,-29.18575,3.338135,0.5436253000000001,0.6187968,1.0,-0.06651306,-0.1339874,0.988739,33.07021,1.145691,-29.24306,3.830124,0.4930271,0.5627911999999999,0.06910729,1.3660139999999998,-0.128144,-0.06340105,0.703755,0.04928029,5.495911,-43.30554,31.81
2,-0.1628417999999999,-0.185318,0.9690857,1.0,-0.1920319,-0.2006226,0.9606476,-31.89549,0.1622467,-29.18575,3.338135,0.5436253000000001,0.6187968,1.0,-0.06651306,-0.1339874,0.988739,33.07021,1.145691,-29.24306,3.830124,0.4930271,0.5627911999999999,0.06910729,1.3660139999999998,-0.128144,-0.06340105,0.703755,0.04928029,5.495911,-43.30554,31.81
2,-0.1628417999999999,-0.185318,0.9690857,1.0,-0.1920319,-0.2006226,0.9606476,-31.89549,0.1622467,-29.18575,3.338135,0.5436253000000001,0.6187968,1.0,-0.06651306,-0.1339874,0.988739,33.07021,1.145691,-29.24306,3.830124,0.4930271,0.5627911999999999,0.06910729,1.3660139999999998,-0.128144,-0.06340105,0.703755,0.04928029,5.495911,-43.30554,31.81
2,-0.1207275,-0.1771851,0.9767303,1.0,-0.2059937,-0.2323303,0.9505615,-31.94739,0.1411132999999999,-29.18913,3.219513,0.5471459,0.6237050999999999,1.0,-0.0644989,-0.1402435,0.9880065999999998,33.07184,1.148376,-29.22842,3.763763,0.4928117,0.563286,0.06163144,1.366759,-0.1302684999999999,-0.06555528,0.7030991,0.04933181,5.495911,-43.30554,31.81
2,-0.1207275,-0.1771851,0.9767303,1.0,-0.2059937,-0.2323303,0.9505615,-31.94739,0.1411132999999999,-29.18913,3.219513,0.5471459,0.6237050999999999,1.0,-0.0644989,-0.1402435,0.9880065999999998,33.07184,1.148376,-29.22842,3.763763,0.4928117,0.563286,0.06163144,1.366759,-0.1302684999999999,-0.06555528,0.7030991,0.04933181,5.495911,-43.30554,31.81
2,-0.1207275,-0.1771851,0.9767303,1.0,-0.2059937,-0.2323303,0.9505615,-31.94739,0.1411132999999999,-29.18913,3.219513,0.5471459,0.6237050999999999,1.0,-0.0644989,-0.1402435,0.9880065999999998,33.07184,1.148376,-29.22842,3.763763,0.4928117,0.563286,0.06163144,1.366759,-0.1302684999999999,-0.06555528,0.7030991,0.04933181,5.495911,-43.30554,31.81
2,-0.1260376,-0.1880951,0.9740143,1.0,-0.2084808,-0.2326355,0.9499512,-31.95555,0.1411132999999999,-29.18575,3.147873,0.5477126999999999,0.6237050999999999,1.0,-0.07444763,-0.1596527,0.9843445,33.05408,1.112732,-29.25043,3.722946,0.4946207999999999,0.5671375,0.06163144,1.366759,-0.1302684999999999,-0.06555528,0.7030991,0.04933181,5.495911,-43.30554,31.81
2,-0.1260376,-0.1880951,0.9740143,1.0,-0.2084808,-0.2326355,0.9499512,-31.95555,0.1411132999999999,-29.18575,3.147873,0.5477126999999999,0.6237050999999999,1.0,-0.07444763,-0.1596527,0.9843445,33.05408,1.112732,-29.25043,3.722946,0.4946207999999999,0.5671375,0.06163144,1.366759,-0.1302684999999999,-0.06555528,0.7030991,0.04933181,5.495911,-43.30554,31.81
2,-0.1260376,-0.1880951,0.9740143,1.0,-0.2084808,-0.2326355,0.9499512,-31.95555,0.1411132999999999,-29.18575,3.147873,0.5477126999999999,0.6237050999999999,1.0,-0.07444763,-0.1596527,0.9843445,33.05408,1.112732,-29.25043,3.722946,0.4946207999999999,0.5671375,0.06163144,1.366759,-0.1302684999999999,-0.06555528,0.7030991,0.04933181,5.495911,-43.30554,31.81
2,-0.1242981,-0.1847533999999999,0.974884,1.0,-0.2119141,-0.2371216,0.9480743,-31.96024,0.1880951,-29.1778,3.14888,0.5483059,0.6226185000000001,1.0,-0.06854248,-0.1507874,0.9861755,33.05145,1.07608,-29.25536,3.736938,0.4939884,0.5673104999999999,0.04815602,1.367461,-0.133653,-0.06913206,0.7013165,0.05305475,5.495911,-43.30554,31.81
2,-0.1242981,-0.1847533999999999,0.974884,1.0,-0.2119141,-0.2371216,0.9480743,-31.96024,0.1880951,-29.1778,3.14888,0.5483059,0.6226185000000001,1.0,-0.06854248,-0.1507874,0.9861755,33.05145,1.07608,-29.25536,3.736938,0.4939884,0.5673104999999999,0.04815602,1.367461,-0.133653,-0.06913206,0.7013165,0.05305475,5.495911,-43.30554,31.81
2,-0.1242981,-0.1847533999999999,0.974884,1.0,-0.2119141,-0.2371216,0.9480743,-31.96024,0.1880951,-29.1778,3.14888,0.5483059,0.6226185000000001,1.0,-0.06854248,-0.1507874,0.9861755,33.05145,1.07608,-29.25536,3.736938,0.4939884,0.5673104999999999,0.04815602,1.367461,-0.133653,-0.06913206,0.7013165,0.05305475,5.495911,-43.30554,31.81
2,-0.1210021999999999,-0.1797791,0.9762268,1.0,-0.2240143,-0.2266692999999999,0.9478455,-31.97055,0.2008667,-29.17633,3.195648,0.5501754,0.6209057,1.0,-0.07232666,-0.1570282,0.9849243,33.05278,1.106064,-29.25432,3.723846,0.4944122999999999,0.5670536,0.04260278,1.367449,-0.1347101,-0.07096964,0.7006788,0.05393402,5.495911,-97.23846,31.81
2,-0.1210021999999999,-0.1797791,0.9762268,1.0,-0.2240143,-0.2266692999999999,0.9478455,-31.97055,0.2008667,-29.17633,3.195648,0.5501754,0.6209057,1.0,-0.07232666,-0.1570282,0.9849243,33.05278,1.106064,-29.25432,3.723846,0.4944122999999999,0.5670536,0.04260278,1.367449,-0.1347101,-0.07096964,0.7006788,0.05393402,5.495911,-97.23846,31.81
2,-0.1210021999999999,-0.1797791,0.9762268,1.0,-0.2240143,-0.2266692999999999,0.9478455,-31.97055,0.2008667,-29.17633,3.195648,0.5501754,0.6209057,1.0,-0.07232666,-0.1570282,0.9849243,33.05278,1.106064,-29.25432,3.723846,0.4944122999999999,0.5670536,0.04260278,1.367449,-0.1347101,-0.07096964,0.7006788,0.05393402,5.495911,-97.23846,31.81
2,-0.1254578,-0.1835022,0.9749756,1.0,-0.2368163999999999,-0.233551,0.9430542,-31.97359,0.2000885,-29.1778,3.241333,0.5519031999999999,0.621954,1.0,-0.07064819,-0.1581421,0.9848785,33.0508,1.093338,-29.25502,3.735107,0.494262,0.567634,0.03752422,1.36681,-0.1354569,-0.07122189,0.7000225999999999,0.05294933,5.495911,-97.23846,31.81
2,-0.1254578,-0.1835022,0.9749756,1.0,-0.2368163999999999,-0.233551,0.9430542,-31.97359,0.2000885,-29.1778,3.241333,0.5519031999999999,0.621954,1.0,-0.07064819,-0.1581421,0.9848785,33.0508,1.093338,-29.25502,3.735107,0.494262,0.567634,0.03752422,1.36681,-0.1354569,-0.07122189,0.7000225999999999,0.05294933,5.495911,-97.23846,31.81
2,-0.1254578,-0.1835022,0.9749756,1.0,-0.2368163999999999,-0.233551,0.9430542,-31.97359,0.2000885,-29.1778,3.241333,0.5519031999999999,0.621954,1.0,-0.07064819,-0.1581421,0.9848785,33.0508,1.093338,-29.25502,3.735107,0.494262,0.567634,0.03752422,1.36681,-0.1354569,-0.07122189,0.7000225999999999,0.05294933,5.495911,-97.23846,31.81
2,-0.1286926,-0.1867981,0.9739227,1.0,-0.2400513,-0.2429047,0.9398651,-31.98952,0.1976776,-29.18631,3.274826,0.5528867,0.6233736999999999,1.0,-0.07315063,-0.1580811,0.9847107,33.05023,1.075531,-29.25531,3.746155,0.4945626,0.5682510999999999,0.03752422,1.36681,-0.1354569,-0.07122189,0.7000225999999999,0.05294933,5.495911,-97.23846,31.81
2,-0.1286926,-0.1867981,0.9739227,1.0,-0.2400513,-0.2429047,0.9398651,-31.98952,0.1976776,-29.18631,3.274826,0.5528867,0.6233736999999999,1.0,-0.07315063,-0.1580811,0.9847107,33.05023,1.075531,-29.25531,3.746155,0.4945626,0.5682510999999999,0.03752422,1.36681,-0.1354569,-0.07122189,0.7000225999999999,0.05294933,5.495911,-97.23846,31.81
2,-0.1286926,-0.1867981,0.9739227,1.0,-0.2400513,-0.2429047,0.9398651,-31.98952,0.1976776,-29.18631,3.274826,0.5528867,0.6233736999999999,1.0,-0.07315063,-0.1580811,0.9847107,33.05023,1.075531,-29.25531,3.746155,0.4945626,0.5682510999999999,0.03752422,1.36681,-0.1354569,-0.07122189,0.7000225999999999,0.05294933,5.495911,-97.23846,31.81
2,-0.1286926,-0.1867981,0.9739227,1.0,-0.2400513,-0.2429047,0.9398651,-31.98952,0.1976776,-29.18631,3.274826,0.5528867,0.6233736999999999,1.0,-0.07315063,-0.1580811,0.9847107,33.05023,1.075531,-29.25531,3.746155,0.4945626,0.5682510999999999,0.03012562,1.36481,-0.1362632,-0.06868195,0.6983093,0.04981329,5.495911,-97.23846,31.81
2,-0.1286926,-0.1867981,0.9739227,1.0,-0.2400513,-0.2429047,0.9398651,-31.98952,0.1976776,-29.18631,3.274826,0.5528867,0.6233736999999999,1.0,-0.07315063,-0.1580811,0.9847107,33.05023,1.075531,-29.25531,3.746155,0.4945626,0.5682510999999999,0.03012562,1.36481,-0.1362632,-0.06868195,0.6983093,0.04981329,5.495911,-97.23846,31.81
2,-0.1286926,-0.1867981,0.9739227,1.0,-0.2400513,-0.2429047,0.9398651,-31.98952,0.1976776,-29.18631,3.274826,0.5528867,0.6233736999999999,1.0,-0.07315063,-0.1580811,0.9847107,33.05023,1.075531,-29.25531,3.746155,0.4945626,0.5682510999999999,0.03012562,1.36481,-0.1362632,-0.06868195,0.6983093,0.04981329,5.495911,-97.23846,31.81
3,-0.1142273,-0.2053375,0.9720001,1.0,-0.2508698,-0.2406158,0.9376373,-31.950640000000003,0.1290894,-29.21404,3.3865510000000003,0.5529352,0.6258431999999999,1.0,-0.06111145,-0.1906433,0.9797516,33.11415,0.9934998,-29.25964,3.826859,0.4908190999999999,0.5750899,0.02751851,1.363834,-0.1363838,-0.06747497,0.6967599,0.04932728,5.495911,70.63593,31.81
3,-0.1142273,-0.2053375,0.9720001,1.0,-0.2508698,-0.2406158,0.9376373,-31.950640000000003,0.1290894,-29.21404,3.3865510000000003,0.5529352,0.6258431999999999,1.0,-0.06111145,-0.1906433,0.9797516,33.11415,0.9934998,-29.25964,3.826859,0.4908190999999999,0.5750899,0.02751851,1.363834,-0.1363838,-0.06747497,0.6967599,0.04932728,5.495911,70.63593,31.81
3,-0.1142273,-0.2053375,0.9720001,1.0,-0.2508698,-0.2406158,0.9376373,-31.950640000000003,0.1290894,-29.21404,3.3865510000000003,0.5529352,0.6258431999999999,1.0,-0.06111145,-0.1906433,0.9797516,33.11415,0.9934998,-29.25964,3.826859,0.4908190999999999,0.5750899,0.02751851,1.363834,-0.1363838,-0.06747497,0.6967599,0.04932728,5.495911,70.63593,31.81
3,-0.04644775,-0.3023987,0.9520416,1.0,-0.04644775,-0.3023987,0.9520416,-31.19913,-0.1184387,-29.17122,3.233826,0.5015698000000001,0.6409314,1.0,0.09455872,-0.1912537,0.9769592,33.83566,0.5602264,-28.19044,3.748306,0.4482941,0.5792983,0.02576399,1.362592,-0.1363325,-0.06741609,0.6953639,0.04797612,5.495911,70.63593,31.81
3,-0.04644775,-0.3023987,0.9520416,1.0,-0.04644775,-0.3023987,0.9520416,-31.19913,-0.1184387,-29.17122,3.233826,0.5015698000000001,0.6409314,1.0,0.09455872,-0.1912537,0.9769592,33.83566,0.5602264,-28.19044,3.748306,0.4482941,0.5792983,0.02576399,1.362592,-0.1363325,-0.06741609,0.6953639,0.04797612,5.495911,70.63593,31.81
3,-0.04644775,-0.3023987,0.9520416,1.0,-0.04644775,-0.3023987,0.9520416,-31.19913,-0.1184387,-29.17122,3.233826,0.5015698000000001,0.6409314,1.0,0.09455872,-0.1912537,0.9769592,33.83566,0.5602264,-28.19044,3.748306,0.4482941,0.5792983,0.02576399,1.362592,-0.1363325,-0.06741609,0.6953639,0.04797612,5.495911,70.63593,31.81
3,-0.04185486,-0.3019562,0.9523926,1.0,-0.04185486,-0.3019562,0.9523926,-31.216690000000003,-0.1203156,-29.17036,3.216644,0.5015985,0.6409314,1.0,0.1000824,-0.194458,0.9757843,33.80125,0.6418457,-28.39699,3.741898,0.4487041,0.5788485,0.0248251,1.361351,-0.1360294,-0.06743068,0.6945254,0.04650815,5.495911,70.63593,31.81
3,-0.04185486,-0.3019562,0.9523926,1.0,-0.04185486,-0.3019562,0.9523926,-31.216690000000003,-0.1203156,-29.17036,3.216644,0.5015985,0.6409314,1.0,0.1000824,-0.194458,0.9757843,33.80125,0.6418457,-28.39699,3.741898,0.4487041,0.5788485,0.0248251,1.361351,-0.1360294,-0.06743068,0.6945254,0.04650815,5.495911,70.63593,31.81
3,-0.04185486,-0.3019562,0.9523926,1.0,-0.04185486,-0.3019562,0.9523926,-31.216690000000003,-0.1203156,-29.17036,3.216644,0.5015985,0.6409314,1.0,0.1000824,-0.194458,0.9757843,33.80125,0.6418457,-28.39699,3.741898,0.4487041,0.5788485,0.0248251,1.361351,-0.1360294,-0.06743068,0.6945254,0.04650815,5.495911,70.63593,31.81
3,-0.04922485,-0.285675,0.9570465,1.0,-0.06115723,-0.2924805,0.9542999,-31.283040000000003,-0.1114807,-29.16977,3.240799,0.5062836,0.6393984,1.0,0.09967041,-0.1965027,0.9754181,33.74707,0.7381592,-28.63376,3.736282,0.4504791,0.5780382,0.02463007,1.35987,-0.1355081,-0.06682556,0.6938099,0.04655363,5.495911,70.63593,31.81
3,-0.04922485,-0.285675,0.9570465,1.0,-0.06115723,-0.2924805,0.9542999,-31.283040000000003,-0.1114807,-29.16977,3.240799,0.5062836,0.6393984,1.0,0.09967041,-0.1965027,0.9754181,33.74707,0.7381592,-28.63376,3.736282,0.4504791,0.5780382,0.02463007,1.35987,-0.1355081,-0.06682556,0.6938099,0.04655363,5.495911,70.63593,31.81
3,-0.04922485,-0.285675,0.9570465,1.0,-0.06115723,-0.2924805,0.9542999,-31.283040000000003,-0.1114807,-29.16977,3.240799,0.5062836,0.6393984,1.0,0.09967041,-0.1965027,0.9754181,33.74707,0.7381592,-28.63376,3.736282,0.4504791,0.5780382,0.02463007,1.35987,-0.1355081,-0.06682556,0.6938099,0.04655363,5.495911,70.63593,31.81
3,0.02108765,-0.2484131,0.9684143,1.0,-0.05249023,-0.3031769,0.9514771,-31.31885,-0.06646729,-29.14917,3.244553,0.5064607,0.6390375,1.0,0.0894928,-0.1954497999999999,0.9766083,33.72166,0.7569733000000001,-28.702,3.756836,0.4525039,0.5779244,0.02524328,1.358043,-0.1348311,-0.06496143,0.6927375,0.0479270999999999,5.495911,70.63593,31.81
3,0.02108765,-0.2484131,0.9684143,1.0,-0.05249023,-0.3031769,0.9514771,-31.31885,-0.06646729,-29.14917,3.244553,0.5064607,0.6390375,1.0,0.0894928,-0.1954497999999999,0.9766083,33.72166,0.7569733000000001,-28.702,3.756836,0.4525039,0.5779244,0.02524328,1.358043,-0.1348311,-0.06496143,0.6927375,0.0479270999999999,5.495911,70.63593,31.81
3,0.02108765,-0.2484131,0.9684143,1.0,-0.05249023,-0.3031769,0.9514771,-31.31885,-0.06646729,-29.14917,3.244553,0.5064607,0.6390375,1.0,0.0894928,-0.1954497999999999,0.9766083,33.72166,0.7569733000000001,-28.702,3.756836,0.4525039,0.5779244,0.02524328,1.358043,-0.1348311,-0.06496143,0.6927375,0.0479270999999999,5.495911,70.63593,31.81
3,0.003692627,-0.2574005,0.9662933,1.0,-0.05934143,-0.3010254,0.9517517,-31.36661,-0.05752563,-29.14708,3.256897,0.5089630999999999,0.6384503,1.0,0.08148193,-0.2014008,0.9761046999999998,33.68388,0.8072052,-28.78432,3.731552,0.4547193,0.5777266,0.02660799,1.356141,-0.1339501,-0.06382696,0.6917707,0.04705498,5.495911,70.63593,31.81
3,0.003692627,-0.2574005,0.9662933,1.0,-0.05934143,-0.3010254,0.9517517,-31.36661,-0.05752563,-29.14708,3.256897,0.5089630999999999,0.6384503,1.0,0.08148193,-0.2014008,0.9761046999999998,33.68388,0.8072052,-28.78432,3.731552,0.4547193,0.5777266,0.02660799,1.356141,-0.1339501,-0.06382696,0.6917707,0.04705498,5.495911,70.63593,31.81
3,0.003692627,-0.2574005,0.9662933,1.0,-0.05934143,-0.3010254,0.9517517,-31.36661,-0.05752563,-29.14708,3.256897,0.5089630999999999,0.6384503,1.0,0.08148193,-0.2014008,0.9761046999999998,33.68388,0.8072052,-28.78432,3.731552,0.4547193,0.5777266,0.02660799,1.356141,-0.1339501,-0.06382696,0.6917707,0.04705498,5.495911,70.63593,31.81
3,0.0084991459999999,-0.2408447,0.97052,1.0,-0.06414795,-0.2866974,0.9558563,-31.41771,-0.05819702,-29.14691,3.302658,0.5113524,0.6366063,1.0,0.07159424,-0.1995239,0.9772644,33.671040000000005,0.8072052,-28.78432,3.732285,0.4563322,0.577512,0.02843356,1.353804,-0.1328938999999999,-0.06429949,0.691753,0.04318694,5.495911,19.91077,31.81
3,0.0084991459999999,-0.2408447,0.97052,1.0,-0.06414795,-0.2866974,0.9558563,-31.41771,-0.05819702,-29.14691,3.302658,0.5113524,0.6366063,1.0,0.07159424,-0.1995239,0.9772644,33.671040000000005,0.8072052,-28.78432,3.732285,0.4563322,0.577512,0.02843356,1.353804,-0.1328938999999999,-0.06429949,0.691753,0.04318694,5.495911,19.91077,31.81
3,0.0084991459999999,-0.2408447,0.97052,1.0,-0.06414795,-0.2866974,0.9558563,-31.41771,-0.05819702,-29.14691,3.302658,0.5113524,0.6366063,1.0,0.07159424,-0.1995239,0.9772644,33.671040000000005,0.8072052,-28.78432,3.732285,0.4563322,0.577512,0.02843356,1.353804,-0.1328938999999999,-0.06429949,0.691753,0.04318694,5.495911,19.91077,31.81
3,0.009963989,-0.2306061,0.9729919,1.0,-0.07380676,-0.2847748,0.9557343,-31.4462,-0.06106567,-29.14709,3.303192,0.5135234000000001,0.6364746,1.0,0.06333923,-0.1948395,0.978775,33.65401,0.8072052,-28.78432,3.722229,0.4579066,0.5769364,0.0308372999999999,1.351533,-0.1317504,-0.06293911,0.6919061,0.04249897,5.495911,19.91077,31.81
3,0.009963989,-0.2306061,0.9729919,1.0,-0.07380676,-0.2847748,0.9557343,-31.4462,-0.06106567,-29.14709,3.303192,0.5135234000000001,0.6364746,1.0,0.06333923,-0.1948395,0.978775,33.65401,0.8072052,-28.78432,3.722229,0.4579066,0.5769364,0.0308372999999999,1.351533,-0.1317504,-0.06293911,0.6919061,0.04249897,5.495911,19.91077,31.81
3,0.009963989,-0.2306061,0.9729919,1.0,-0.07380676,-0.2847748,0.9557343,-31.4462,-0.06106567,-29.14709,3.303192,0.5135234000000001,0.6364746,1.0,0.06333923,-0.1948395,0.978775,33.65401,0.8072052,-28.78432,3.722229,0.4579066,0.5769364,0.0308372999999999,1.351533,-0.1317504,-0.06293911,0.6919061,0.04249897,5.495911,19.91077,31.81
3,-0.07380676,-0.2791442999999999,0.9573975,1.0,-0.07797241,-0.281601,0.9563446,-31.47585,-0.06106567,-29.15697,3.3231660000000005,0.5150768,0.6361741,1.0,0.05889893,-0.1979217999999999,0.9784393,33.64221,0.7406311,-28.37541,3.719452,0.4590284,0.5758038000000001,0.03391457,1.349128,-0.1305993,-0.05925713,0.6916667,0.04233949,5.495911,19.91077,31.81
3,-0.07380676,-0.2791442999999999,0.9573975,1.0,-0.07797241,-0.281601,0.9563446,-31.47585,-0.06106567,-29.15697,3.3231660000000005,0.5150768,0.6361741,1.0,0.05889893,-0.1979217999999999,0.9784393,33.64221,0.7406311,-28.37541,3.719452,0.4590284,0.5758038000000001,0.03391457,1.349128,-0.1305993,-0.05925713,0.6916667,0.04233949,5.495911,19.91077,31.81
3,-0.07380676,-0.2791442999999999,0.9573975,1.0,-0.07797241,-0.281601,0.9563446,-31.47585,-0.06106567,-29.15697,3.3231660000000005,0.5150768,0.6361741,1.0,0.05889893,-0.1979217999999999,0.9784393,33.64221,0.7406311,-28.37541,3.719452,0.4590284,0.5758038000000001,0.03391457,1.349128,-0.1305993,-0.05925713,0.6916667,0.04233949,5.495911,19.91077,31.81
3,-0.02685547,-0.2462157999999999,0.9688263,1.0,-0.09521484,-0.2862396,0.9533997,-31.51472,-0.01345825,-29.14044,3.304672,0.5185306,0.6350139,1.0,0.05604553,-0.1956787,0.9790497,33.594159999999995,0.7621306999999999,-28.346770000000003,3.735855,0.4610009,0.5745680000000001,0.03697872,1.346086,-0.1294056,-0.05435947,0.6919042,0.0385859,5.495911,19.91077,31.81
3,-0.02685547,-0.2462157999999999,0.9688263,1.0,-0.09521484,-0.2862396,0.9533997,-31.51472,-0.01345825,-29.14044,3.304672,0.5185306,0.6350139,1.0,0.05604553,-0.1956787,0.9790497,33.594159999999995,0.7621306999999999,-28.346770000000003,3.735855,0.4610009,0.5745680000000001,0.03697872,1.346086,-0.1294056,-0.05435947,0.6919042,0.0385859,5.495911,19.91077,31.81
3,-0.02685547,-0.2462157999999999,0.9688263,1.0,-0.09521484,-0.2862396,0.9533997,-31.51472,-0.01345825,-29.14044,3.304672,0.5185306,0.6350139,1.0,0.05604553,-0.1956787,0.9790497,33.594159999999995,0.7621306999999999,-28.346770000000003,3.735855,0.4610009,0.5745680000000001,0.03697872,1.346086,-0.1294056,-0.05435947,0.6919042,0.0385859,5.495911,19.91077,31.81
3,-0.01515198,-0.2277222,0.9736023,1.0,-0.1007996,-0.2685547,0.957962,-31.52248,0.006439209,-29.14044,3.3125,0.519483,0.6320286999999999,1.0,0.05331421,-0.1936035,0.9796143,33.58461,0.7555389,-28.27762,3.750458,0.4616699999999999,0.5739094,0.0407330999999999,1.342573,-0.1279814,-0.04967707,0.6918648000000001,0.03480909,5.495911,33.93903,31.81
3,-0.01515198,-0.2277222,0.9736023,1.0,-0.1007996,-0.2685547,0.957962,-31.52248,0.006439209,-29.14044,3.3125,0.519483,0.6320286999999999,1.0,0.05331421,-0.1936035,0.9796143,33.58461,0.7555389,-28.27762,3.750458,0.4616699999999999,0.5739094,0.0407330999999999,1.342573,-0.1279814,-0.04967707,0.6918648000000001,0.03480909,5.495911,33.93903,31.81
3,-0.01515198,-0.2277222,0.9736023,1.0,-0.1007996,-0.2685547,0.957962,-31.52248,0.006439209,-29.14044,3.3125,0.519483,0.6320286999999999,1.0,0.05331421,-0.1936035,0.9796143,33.58461,0.7555389,-28.27762,3.750458,0.4616699999999999,0.5739094,0.0407330999999999,1.342573,-0.1279814,-0.04967707,0.6918648000000001,0.03480909,5.495911,33.93903,31.81
3,-0.1157531999999999,-0.2059784,0.9716796999999998,1.0,-0.1157531999999999,-0.2059784,0.9716796999999998,-31.5565,0.08940125,-29.10817,3.345932,0.5224833,0.6208265000000001,1.0,0.05847168,-0.1494446,0.98703,33.49913,1.137314,-29.08894,3.812698,0.4636715999999999,0.563027,0.04505277,1.339472,-0.1264732,-0.04665818,0.6921451999999999,0.03302967,5.495911,33.93903,31.81
3,-0.1157531999999999,-0.2059784,0.9716796999999998,1.0,-0.1157531999999999,-0.2059784,0.9716796999999998,-31.5565,0.08940125,-29.10817,3.345932,0.5224833,0.6208265000000001,1.0,0.05847168,-0.1494446,0.98703,33.49913,1.137314,-29.08894,3.812698,0.4636715999999999,0.563027,0.04505277,1.339472,-0.1264732,-0.04665818,0.6921451999999999,0.03302967,5.495911,33.93903,31.81
3,-0.1157531999999999,-0.2059784,0.9716796999999998,1.0,-0.1157531999999999,-0.2059784,0.9716796999999998,-31.5565,0.08940125,-29.10817,3.345932,0.5224833,0.6208265000000001,1.0,0.05847168,-0.1494446,0.98703,33.49913,1.137314,-29.08894,3.812698,0.4636715999999999,0.563027,0.04505277,1.339472,-0.1264732,-0.04665818,0.6921451999999999,0.03302967,5.495911,33.93903,31.81
3,-0.1097107,-0.2055054,0.9724731,1.0,-0.109726,-0.2055054,0.9724731,-31.56798,0.1588135,-29.13643,3.439514,0.5222205,0.6186680999999999,1.0,0.04702759,-0.1115875,0.99263,33.49654,1.237274,-29.2202,3.944916000000001,0.4650095999999999,0.5563102,0.04919171,1.336232,-0.1247488,-0.04142278,0.692602,0.02935518,5.618926,33.93903,31.81
3,-0.1097107,-0.2055054,0.9724731,1.0,-0.109726,-0.2055054,0.9724731,-31.56798,0.1588135,-29.13643,3.439514,0.5222205,0.6186680999999999,1.0,0.04702759,-0.1115875,0.99263,33.49654,1.237274,-29.2202,3.944916000000001,0.4650095999999999,0.5563102,0.04919171,1.336232,-0.1247488,-0.04142278,0.692602,0.02935518,5.618926,33.93903,31.81
3,-0.1097107,-0.2055054,0.9724731,1.0,-0.109726,-0.2055054,0.9724731,-31.56798,0.1588135,-29.13643,3.439514,0.5222205,0.6186680999999999,1.0,0.04702759,-0.1115875,0.99263,33.49654,1.237274,-29.2202,3.944916000000001,0.4650095999999999,0.5563102,0.04919171,1.336232,-0.1247488,-0.04142278,0.692602,0.02935518,5.618926,33.93903,31.81
3,-0.1156769,-0.1945953,0.9740295,1.0,-0.1157073999999999,-0.1946106,0.9740295,-31.56322,0.203125,-29.14172,3.344894,0.5227364000000001,0.6157795,1.0,0.03143311,-0.1237488,0.991806,33.53645,1.037827,-28.3443,3.936279,0.4658376,0.5566025,0.05339551,1.331875,-0.1228722,-0.033805,0.6925011,0.02608695,5.618926,33.93903,31.81
3,-0.1156769,-0.1945953,0.9740295,1.0,-0.1157073999999999,-0.1946106,0.9740295,-31.56322,0.203125,-29.14172,3.344894,0.5227364000000001,0.6157795,1.0,0.03143311,-0.1237488,0.991806,33.53645,1.037827,-28.3443,3.936279,0.4658376,0.5566025,0.05339551,1.331875,-0.1228722,-0.033805,0.6925011,0.02608695,5.618926,33.93903,31.81
3,-0.1156769,-0.1945953,0.9740295,1.0,-0.1157073999999999,-0.1946106,0.9740295,-31.56322,0.203125,-29.14172,3.344894,0.5227364000000001,0.6157795,1.0,0.03143311,-0.1237488,0.991806,33.53645,1.037827,-28.3443,3.936279,0.4658376,0.5566025,0.05339551,1.331875,-0.1228722,-0.033805,0.6925011,0.02608695,5.618926,33.93903,31.81
3,-0.1249541999999999,-0.1717833999999999,0.9771729,1.0,-0.1249695,-0.1717833999999999,0.9771576,-31.58102,0.3684845,-29.155990000000003,3.369873,0.5245184,0.6073635000000001,1.0,0.03762817,-0.1139831999999999,0.9927673,33.54326,1.124634,-27.941990000000004,3.835159,0.4651930999999999,0.5487964,0.06282878,1.325417,-0.1194147,-0.02658668,0.6924075,0.02518024,5.618926,33.93903,31.81
3,-0.1249541999999999,-0.1717833999999999,0.9771729,1.0,-0.1249695,-0.1717833999999999,0.9771576,-31.58102,0.3684845,-29.155990000000003,3.369873,0.5245184,0.6073635000000001,1.0,0.03762817,-0.1139831999999999,0.9927673,33.54326,1.124634,-27.941990000000004,3.835159,0.4651930999999999,0.5487964,0.06282878,1.325417,-0.1194147,-0.02658668,0.6924075,0.02518024,5.618926,33.93903,31.81
3,-0.1249541999999999,-0.1717833999999999,0.9771729,1.0,-0.1249695,-0.1717833999999999,0.9771576,-31.58102,0.3684845,-29.155990000000003,3.369873,0.5245184,0.6073635000000001,1.0,0.03762817,-0.1139831999999999,0.9927673,33.54326,1.124634,-27.941990000000004,3.835159,0.4651930999999999,0.5487964,0.06282878,1.325417,-0.1194147,-0.02658668,0.6924075,0.02518024,5.618926,33.93903,31.81
3,-0.0677948,-0.1376037999999999,0.9881592,1.0,-0.1118469,-0.1548309,0.9815826,-31.59477,0.4013367,-29.2545,3.436081,0.5234814999999999,0.6050506999999999,1.0,0.03462219,-0.09660339,0.9947052,33.52513,1.118881,-27.79588,3.843246,0.466232,0.5456095000000001,0.06716633,1.32155,-0.1177333,-0.02117295,0.692517,0.02065821,5.618926,18.79004,31.81
3,-0.0677948,-0.1376037999999999,0.9881592,1.0,-0.1118469,-0.1548309,0.9815826,-31.59477,0.4013367,-29.2545,3.436081,0.5234814999999999,0.6050506999999999,1.0,0.03462219,-0.09660339,0.9947052,33.52513,1.118881,-27.79588,3.843246,0.466232,0.5456095000000001,0.06716633,1.32155,-0.1177333,-0.02117295,0.692517,0.02065821,5.618926,18.79004,31.81
3,-0.0677948,-0.1376037999999999,0.9881592,1.0,-0.1118469,-0.1548309,0.9815826,-31.59477,0.4013367,-29.2545,3.436081,0.5234814999999999,0.6050506999999999,1.0,0.03462219,-0.09660339,0.9947052,33.52513,1.118881,-27.79588,3.843246,0.466232,0.5456095000000001,0.06716633,1.32155,-0.1177333,-0.02117295,0.692517,0.02065821,5.618926,18.79004,31.81
3,-0.0677948,-0.1376037999999999,0.9881592,1.0,-0.1118469,-0.1548309,0.9815826,-31.59477,0.4013367,-29.2545,3.436081,0.5234814999999999,0.6050506999999999,1.0,0.03462219,-0.09660339,0.9947052,33.52513,1.118881,-27.79588,3.843246,0.466232,0.5456095000000001,0.07139659,1.317846,-0.1159589999999999,-0.0167223,0.6926180999999999,0.01820035,5.618926,18.79004,31.81
3,-0.0677948,-0.1376037999999999,0.9881592,1.0,-0.1118469,-0.1548309,0.9815826,-31.59477,0.4013367,-29.2545,3.436081,0.5234814999999999,0.6050506999999999,1.0,0.03462219,-0.09660339,0.9947052,33.52513,1.118881,-27.79588,3.843246,0.466232,0.5456095000000001,0.07139659,1.317846,-0.1159589999999999,-0.0167223,0.6926180999999999,0.01820035,5.618926,18.79004,31.81
3,-0.0677948,-0.1376037999999999,0.9881592,1.0,-0.1118469,-0.1548309,0.9815826,-31.59477,0.4013367,-29.2545,3.436081,0.5234814999999999,0.6050506999999999,1.0,0.03462219,-0.09660339,0.9947052,33.52513,1.118881,-27.79588,3.843246,0.466232,0.5456095000000001,0.07139659,1.317846,-0.1159589999999999,-0.0167223,0.6926180999999999,0.01820035,5.618926,18.79004,31.81
3,-0.0677948,-0.1376037999999999,0.9881592,1.0,-0.1118469,-0.1548309,0.9815826,-31.59477,0.4013367,-29.2545,3.436081,0.5234814999999999,0.6050506999999999,1.0,0.03462219,-0.09660339,0.9947052,33.52513,1.118881,-27.79588,3.843246,0.466232,0.5456095000000001,0.07618022,1.314979,-0.1143499,-0.0135062999999999,0.6928333999999999,0.01769809,5.618926,18.79004,31.81
3,-0.0677948,-0.1376037999999999,0.9881592,1.0,-0.1118469,-0.1548309,0.9815826,-31.59477,0.4013367,-29.2545,3.436081,0.5234814999999999,0.6050506999999999,1.0,0.03462219,-0.09660339,0.9947052,33.52513,1.118881,-27.79588,3.843246,0.466232,0.5456095000000001,0.07618022,1.314979,-0.1143499,-0.0135062999999999,0.6928333999999999,0.01769809,5.618926,18.79004,31.81
3,-0.0677948,-0.1376037999999999,0.9881592,1.0,-0.1118469,-0.1548309,0.9815826,-31.59477,0.4013367,-29.2545,3.436081,0.5234814999999999,0.6050506999999999,1.0,0.03462219,-0.09660339,0.9947052,33.52513,1.118881,-27.79588,3.843246,0.466232,0.5456095000000001,0.07618022,1.314979,-0.1143499,-0.0135062999999999,0.6928333999999999,0.01769809,5.618926,18.79004,31.81
3,-0.1254578,-0.1139983999999999,0.9855194,1.0,-0.125473,-0.1139983999999999,0.9855194,-31.63057,0.728775,-29.56554,3.4298550000000003,0.5265677,0.5917048,1.0,0.03463745,-0.04420471,0.9984131,33.39403,1.636505,-29.01746,3.871048000000001,0.4702984,0.5328284000000001,0.08025146,1.311951,-0.112846,-0.01076263,0.6931005,0.01516254,5.618926,18.79004,31.81
3,-0.1254578,-0.1139983999999999,0.9855194,1.0,-0.125473,-0.1139983999999999,0.9855194,-31.63057,0.728775,-29.56554,3.4298550000000003,0.5265677,0.5917048,1.0,0.03463745,-0.04420471,0.9984131,33.39403,1.636505,-29.01746,3.871048000000001,0.4702984,0.5328284000000001,0.08025146,1.311951,-0.112846,-0.01076263,0.6931005,0.01516254,5.618926,18.79004,31.81
3,-0.1254578,-0.1139983999999999,0.9855194,1.0,-0.125473,-0.1139983999999999,0.9855194,-31.63057,0.728775,-29.56554,3.4298550000000003,0.5265677,0.5917048,1.0,0.03463745,-0.04420471,0.9984131,33.39403,1.636505,-29.01746,3.871048000000001,0.4702984,0.5328284000000001,0.08025146,1.311951,-0.112846,-0.01076263,0.6931005,0.01516254,5.618926,18.79004,31.81
3,-0.1195221,-0.1174164,0.9858551,1.0,-0.1196442,-0.1174773999999999,0.9858398000000002,-31.6322,0.7245483,-29.5493,3.4034730000000004,0.5258893,0.5920846,1.0,0.03536987,-0.04393005,0.9983978,33.391490000000005,1.649261,-29.01778,3.874359,0.4702984,0.5323651,0.08398652,1.308779,-0.1114203,-0.006430453,0.6934013000000001,0.01242182,5.618926,18.79004,31.81
3,-0.1195221,-0.1174164,0.9858551,1.0,-0.1196442,-0.1174773999999999,0.9858398000000002,-31.6322,0.7245483,-29.5493,3.4034730000000004,0.5258893,0.5920846,1.0,0.03536987,-0.04393005,0.9983978,33.391490000000005,1.649261,-29.01778,3.874359,0.4702984,0.5323651,0.08398652,1.308779,-0.1114203,-0.006430453,0.6934013000000001,0.01242182,5.618926,18.79004,31.81
3,-0.1195221,-0.1174164,0.9858551,1.0,-0.1196442,-0.1174773999999999,0.9858398000000002,-31.6322,0.7245483,-29.5493,3.4034730000000004,0.5258893,0.5920846,1.0,0.03536987,-0.04393005,0.9983978,33.391490000000005,1.649261,-29.01778,3.874359,0.4702984,0.5323651,0.08398652,1.308779,-0.1114203,-0.006430453,0.6934013000000001,0.01242182,5.618926,18.79004,31.81
3,-0.1195221,-0.1174164,0.9858551,1.0,-0.1196442,-0.1174773999999999,0.9858398000000002,-31.6322,0.7245483,-29.5493,3.4034730000000004,0.5258893,0.5920846,1.0,0.03536987,-0.04393005,0.9983978,33.391490000000005,1.649261,-29.01778,3.874359,0.4702984,0.5323651,0.08741879,1.30605,-0.1100801,-0.003154992,0.6940086,0.01056737,5.618926,18.79004,31.81
3,-0.1195221,-0.1174164,0.9858551,1.0,-0.1196442,-0.1174773999999999,0.9858398000000002,-31.6322,0.7245483,-29.5493,3.4034730000000004,0.5258893,0.5920846,1.0,0.03536987,-0.04393005,0.9983978,33.391490000000005,1.649261,-29.01778,3.874359,0.4702984,0.5323651,0.08741879,1.30605,-0.1100801,-0.003154992,0.6940086,0.01056737,5.618926,18.79004,31.81
3,-0.1195221,-0.1174164,0.9858551,1.0,-0.1196442,-0.1174773999999999,0.9858398000000002,-31.6322,0.7245483,-29.5493,3.4034730000000004,0.5258893,0.5920846,1.0,0.03536987,-0.04393005,0.9983978,33.391490000000005,1.649261,-29.01778,3.874359,0.4702984,0.5323651,0.08741879,1.30605,-0.1100801,-0.003154992,0.6940086,0.01056737,5.618926,18.79004,31.81
3,-0.1166686999999999,-0.1157226999999999,0.9863892,1.0,-0.1195678999999999,-0.1170196999999999,0.9859009,-31.6331,0.7215729000000001,-29.54297,3.3978580000000003,0.5259043999999999,0.5920755999999999,1.0,0.03533936,-0.04705811,0.9982605,33.391020000000005,1.653534,-29.01762,3.872055000000001,0.4703185,0.5325968000000001,0.08741879,1.30605,-0.1100801,-0.003154992,0.6940086,0.01056737,5.618926,-69.70813,31.81
3,-0.1166686999999999,-0.1157226999999999,0.9863892,1.0,-0.1195678999999999,-0.1170196999999999,0.9859009,-31.6331,0.7215729000000001,-29.54297,3.3978580000000003,0.5259043999999999,0.5920755999999999,1.0,0.03533936,-0.04705811,0.9982605,33.391020000000005,1.653534,-29.01762,3.872055000000001,0.4703185,0.5325968000000001,0.08741879,1.30605,-0.1100801,-0.003154992,0.6940086,0.01056737,5.618926,-69.70813,31.81
3,-0.1166686999999999,-0.1157226999999999,0.9863892,1.0,-0.1195678999999999,-0.1170196999999999,0.9859009,-31.6331,0.7215729000000001,-29.54297,3.3978580000000003,0.5259043999999999,0.5920755999999999,1.0,0.03533936,-0.04705811,0.9982605,33.391020000000005,1.653534,-29.01762,3.872055000000001,0.4703185,0.5325968000000001,0.08741879,1.30605,-0.1100801,-0.003154992,0.6940086,0.01056737,5.618926,-69.70813,31.81
3,-0.1166686999999999,-0.1157226999999999,0.9863892,1.0,-0.1195678999999999,-0.1170196999999999,0.9859009,-31.6331,0.7215729000000001,-29.54297,3.3978580000000003,0.5259043999999999,0.5920755999999999,1.0,0.03533936,-0.04705811,0.9982605,33.391020000000005,1.653534,-29.01762,3.872055000000001,0.4703185,0.5325968000000001,0.09022045,1.30391,-0.1090068999999999,-0.0009011733,0.694763,0.0111489,5.618926,-69.70813,31.81
3,-0.1166686999999999,-0.1157226999999999,0.9863892,1.0,-0.1195678999999999,-0.1170196999999999,0.9859009,-31.6331,0.7215729000000001,-29.54297,3.3978580000000003,0.5259043999999999,0.5920755999999999,1.0,0.03533936,-0.04705811,0.9982605,33.391020000000005,1.653534,-29.01762,3.872055000000001,0.4703185,0.5325968000000001,0.09022045,1.30391,-0.1090068999999999,-0.0009011733,0.694763,0.0111489,5.618926,-69.70813,31.81
3,-0.1166686999999999,-0.1157226999999999,0.9863892,1.0,-0.1195678999999999,-0.1170196999999999,0.9859009,-31.6331,0.7215729000000001,-29.54297,3.3978580000000003,0.5259043999999999,0.5920755999999999,1.0,0.03533936,-0.04705811,0.9982605,33.391020000000005,1.653534,-29.01762,3.872055000000001,0.4703185,0.5325968000000001,0.09022045,1.30391,-0.1090068999999999,-0.0009011733,0.694763,0.0111489,5.618926,-69.70813,31.81
3,-0.006744385,-0.001968384,0.9999695,1.0,-0.1152648999999999,-0.0226593,0.9930725,-31.664890000000003,0.8605804,-29.39883,3.627792,0.5265854999999999,0.5745379,1.0,0.04559326,0.007995605,0.9989166,33.38028,1.921967,-29.18509,4.020308999999999,0.4693989999999999,0.5185614000000001,0.09297395,1.302053,-0.1079688999999999,0.003299288,0.6945799,0.01136205,5.618926,-69.70813,31.81
3,-0.006744385,-0.001968384,0.9999695,1.0,-0.1152648999999999,-0.0226593,0.9930725,-31.664890000000003,0.8605804,-29.39883,3.627792,0.5265854999999999,0.5745379,1.0,0.04559326,0.007995605,0.9989166,33.38028,1.921967,-29.18509,4.020308999999999,0.4693989999999999,0.5185614000000001,0.09297395,1.302053,-0.1079688999999999,0.003299288,0.6945799,0.01136205,5.618926,-69.70813,31.81
3,-0.006744385,-0.001968384,0.9999695,1.0,-0.1152648999999999,-0.0226593,0.9930725,-31.664890000000003,0.8605804,-29.39883,3.627792,0.5265854999999999,0.5745379,1.0,0.04559326,0.007995605,0.9989166,33.38028,1.921967,-29.18509,4.020308999999999,0.4693989999999999,0.5185614000000001,0.09297395,1.302053,-0.1079688999999999,0.003299288,0.6945799,0.01136205,5.618926,-69.70813,31.81
3,0.0007476807,0.01428223,0.9998932,1.0,-0.1154174999999999,-0.0070343019999999,0.9932861,-31.67261,0.8876038,-29.59464,3.652328,0.5269948,0.5735967,1.0,0.04493713,0.02233887,0.9987335,33.38408,1.945847,-29.17084,4.052094,0.4693454999999999,0.5159668,0.09520483,1.300166,-0.1069837,0.007586059,0.6939371999999999,0.009468125,5.618926,-69.70813,31.81
3,0.0007476807,0.01428223,0.9998932,1.0,-0.1154174999999999,-0.0070343019999999,0.9932861,-31.67261,0.8876038,-29.59464,3.652328,0.5269948,0.5735967,1.0,0.04493713,0.02233887,0.9987335,33.38408,1.945847,-29.17084,4.052094,0.4693454999999999,0.5159668,0.09520483,1.300166,-0.1069837,0.007586059,0.6939371999999999,0.009468125,5.618926,-69.70813,31.81
3,0.0007476807,0.01428223,0.9998932,1.0,-0.1154174999999999,-0.0070343019999999,0.9932861,-31.67261,0.8876038,-29.59464,3.652328,0.5269948,0.5735967,1.0,0.04493713,0.02233887,0.9987335,33.38408,1.945847,-29.17084,4.052094,0.4693454999999999,0.5159668,0.09520483,1.300166,-0.1069837,0.007586059,0.6939371999999999,0.009468125,5.618926,-69.70813,31.81
3,0.02842712,0.02330017,0.9993134,1.0,-0.1141204999999999,-0.001937866,0.993454,-31.68311,0.8969269,-29.63742,3.653366000000001,0.527226,0.573072,1.0,0.04541016,0.02627563,0.9986115,33.38086,1.949646,-29.16982,4.058807,0.4693989999999999,0.5153785,0.09873748,1.296662,-0.1053501999999999,0.01540434,0.6931723000000001,0.0021544629999999,5.618926,-117.6308,31.81
3,0.02842712,0.02330017,0.9993134,1.0,-0.1141204999999999,-0.001937866,0.993454,-31.68311,0.8969269,-29.63742,3.653366000000001,0.527226,0.573072,1.0,0.04541016,0.02627563,0.9986115,33.38086,1.949646,-29.16982,4.058807,0.4693989999999999,0.5153785,0.09873748,1.296662,-0.1053501999999999,0.01540434,0.6931723000000001,0.0021544629999999,5.618926,-117.6308,31.81
3,0.02842712,0.02330017,0.9993134,1.0,-0.1141204999999999,-0.001937866,0.993454,-31.68311,0.8969269,-29.63742,3.653366000000001,0.527226,0.573072,1.0,0.04541016,0.02627563,0.9986115,33.38086,1.949646,-29.16982,4.058807,0.4693989999999999,0.5153785,0.09873748,1.296662,-0.1053501999999999,0.01540434,0.6931723000000001,0.0021544629999999,5.618926,-117.6308,31.81
3,-0.08000183,0.00932312,0.9967499,1.0,-0.1255341,0.004379272,0.9920654,-31.7421,1.207077,-30.282590000000003,3.724976,0.5310716999999999,0.567796,1.0,0.0350647,0.02166748,0.9991455,33.3053,2.315216,-30.12115,4.054733000000001,0.4728960999999999,0.5119001,0.09873748,1.296662,-0.1053501999999999,0.01540434,0.6931723000000001,0.0021544629999999,5.618926,-117.6308,31.81
3,-0.08000183,0.00932312,0.9967499,1.0,-0.1255341,0.004379272,0.9920654,-31.7421,1.207077,-30.282590000000003,3.724976,0.5310716999999999,0.567796,1.0,0.0350647,0.02166748,0.9991455,33.3053,2.315216,-30.12115,4.054733000000001,0.4728960999999999,0.5119001,0.09873748,1.296662,-0.1053501999999999,0.01540434,0.6931723000000001,0.0021544629999999,5.618926,-117.6308,31.81
3,-0.08000183,0.00932312,0.9967499,1.0,-0.1255341,0.004379272,0.9920654,-31.7421,1.207077,-30.282590000000003,3.724976,0.5310716999999999,0.567796,1.0,0.0350647,0.02166748,0.9991455,33.3053,2.315216,-30.12115,4.054733000000001,0.4728960999999999,0.5119001,0.09873748,1.296662,-0.1053501999999999,0.01540434,0.6931723000000001,0.0021544629999999,5.618926,-117.6308,31.81
3,-0.08000183,0.00932312,0.9967499,1.0,-0.1255341,0.004379272,0.9920654,-31.7421,1.207077,-30.282590000000003,3.724976,0.5310716999999999,0.567796,1.0,0.0350647,0.02166748,0.9991455,33.3053,2.315216,-30.12115,4.054733000000001,0.4728960999999999,0.5119001,0.1024146,1.293796,-0.1045831,0.01874187,0.6927978,-0.00176686,5.618926,-117.6308,31.81
3,-0.08000183,0.00932312,0.9967499,1.0,-0.1255341,0.004379272,0.9920654,-31.7421,1.207077,-30.282590000000003,3.724976,0.5310716999999999,0.567796,1.0,0.0350647,0.02166748,0.9991455,33.3053,2.315216,-30.12115,4.054733000000001,0.4728960999999999,0.5119001,0.1024146,1.293796,-0.1045831,0.01874187,0.6927978,-0.00176686,5.618926,-117.6308,31.81
3,-0.08000183,0.00932312,0.9967499,1.0,-0.1255341,0.004379272,0.9920654,-31.7421,1.207077,-30.282590000000003,3.724976,0.5310716999999999,0.567796,1.0,0.0350647,0.02166748,0.9991455,33.3053,2.315216,-30.12115,4.054733000000001,0.4728960999999999,0.5119001,0.1024146,1.293796,-0.1045831,0.01874187,0.6927978,-0.00176686,5.618926,-117.6308,31.81
3,-0.1033783,0.00958252,0.9945831,1.0,-0.1043395999999999,0.009506226,0.9944916,-31.75427,1.236938,-30.26102,3.666351,0.5288803000000001,0.5658305,1.0,0.03251648,0.02050781,0.9992523,33.2946,2.384811,-30.22826,4.104263,0.4734925,0.5106615,0.1039808,1.292022,-0.1045066,0.02140359,0.6923774,-0.004926108,5.618926,-117.6308,31.81
3,-0.1033783,0.00958252,0.9945831,1.0,-0.1043395999999999,0.009506226,0.9944916,-31.75427,1.236938,-30.26102,3.666351,0.5288803000000001,0.5658305,1.0,0.03251648,0.02050781,0.9992523,33.2946,2.384811,-30.22826,4.104263,0.4734925,0.5106615,0.1039808,1.292022,-0.1045066,0.02140359,0.6923774,-0.004926108,5.618926,-117.6308,31.81
3,-0.1033783,0.00958252,0.9945831,1.0,-0.1043395999999999,0.009506226,0.9944916,-31.75427,1.236938,-30.26102,3.666351,0.5288803000000001,0.5658305,1.0,0.03251648,0.02050781,0.9992523,33.2946,2.384811,-30.22826,4.104263,0.4734925,0.5106615,0.1039808,1.292022,-0.1045066,0.02140359,0.6923774,-0.004926108,5.618926,-117.6308,31.81
4,-0.095047,0.009780884,0.9954224,1.0,-0.09521484,0.009735107,0.9954071,-31.77353,1.175674,-29.940340000000003,3.643188,0.5282534000000001,0.5648605,1.0,0.04014587,0.05134583,0.9978638,33.25821,2.405838,-30.218090000000004,4.067932,0.4739087,0.5061594,0.1054473,1.290427,-0.1043019999999999,0.02363818,0.6925833,-0.008616123,5.618926,-117.6308,31.81
4,-0.095047,0.009780884,0.9954224,1.0,-0.09521484,0.009735107,0.9954071,-31.77353,1.175674,-29.940340000000003,3.643188,0.5282534000000001,0.5648605,1.0,0.04014587,0.05134583,0.9978638,33.25821,2.405838,-30.218090000000004,4.067932,0.4739087,0.5061594,0.1054473,1.290427,-0.1043019999999999,0.02363818,0.6925833,-0.008616123,5.618926,-117.6308,31.81
4,-0.095047,0.009780884,0.9954224,1.0,-0.09521484,0.009735107,0.9954071,-31.77353,1.175674,-29.940340000000003,3.643188,0.5282534000000001,0.5648605,1.0,0.04014587,0.05134583,0.9978638,33.25821,2.405838,-30.218090000000004,4.067932,0.4739087,0.5061594,0.1054473,1.290427,-0.1043019999999999,0.02363818,0.6925833,-0.008616123,5.618926,-117.6308,31.81
4,-0.02096558,0.05107117,0.9984741,1.0,-0.1342316,0.02207947,0.9906921,-31.79482,1.22403,-29.95734,3.659256,0.5337499,0.5619909000000001,1.0,0.03659058,0.06550598,0.9971771,33.25008,2.415115,-30.130540000000003,4.110580000000001,0.4746206,0.5034643,0.1065264,1.289241,-0.1042133,0.02556025,0.692599,-0.01095373,5.618926,-117.6308,31.81
4,-0.02096558,0.05107117,0.9984741,1.0,-0.1342316,0.02207947,0.9906921,-31.79482,1.22403,-29.95734,3.659256,0.5337499,0.5619909000000001,1.0,0.03659058,0.06550598,0.9971771,33.25008,2.415115,-30.130540000000003,4.110580000000001,0.4746206,0.5034643,0.1065264,1.289241,-0.1042133,0.02556025,0.692599,-0.01095373,5.618926,-117.6308,31.81
4,-0.02096558,0.05107117,0.9984741,1.0,-0.1342316,0.02207947,0.9906921,-31.79482,1.22403,-29.95734,3.659256,0.5337499,0.5619909000000001,1.0,0.03659058,0.06550598,0.9971771,33.25008,2.415115,-30.130540000000003,4.110580000000001,0.4746206,0.5034643,0.1065264,1.289241,-0.1042133,0.02556025,0.692599,-0.01095373,5.618926,-117.6308,31.81
4,-0.02722168,0.06182861,0.9977112,1.0,-0.1363068,0.03656006,0.989975,-31.79297,1.233032,-29.96481,3.682297,0.5339659000000001,0.5600391,1.0,0.03747559,0.07640076,0.9963684000000002,33.25005,2.415833,-30.1032,4.119186,0.4745319999999999,0.5019264,0.1065264,1.289241,-0.1042133,0.02556025,0.692599,-0.01095373,5.618926,51.94641,31.81
4,-0.02722168,0.06182861,0.9977112,1.0,-0.1363068,0.03656006,0.989975,-31.79297,1.233032,-29.96481,3.682297,0.5339659000000001,0.5600391,1.0,0.03747559,0.07640076,0.9963684000000002,33.25005,2.415833,-30.1032,4.119186,0.4745319999999999,0.5019264,0.1065264,1.289241,-0.1042133,0.02556025,0.692599,-0.01095373,5.618926,51.94641,31.81
4,-0.02722168,0.06182861,0.9977112,1.0,-0.1363068,0.03656006,0.989975,-31.79297,1.233032,-29.96481,3.682297,0.5339659000000001,0.5600391,1.0,0.03747559,0.07640076,0.9963684000000002,33.25005,2.415833,-30.1032,4.119186,0.4745319999999999,0.5019264,0.1065264,1.289241,-0.1042133,0.02556025,0.692599,-0.01095373,5.618926,51.94641,31.81
4,-0.02435303,0.08163452,0.9963531,1.0,-0.1361694,0.06352234,0.9886322,-31.78195,1.328186,-30.0504,3.684998,0.533644,0.5543376999999999,1.0,0.03813171,0.09129333,0.9950867,33.25114,2.4138490000000004,-30.01656,4.142365,0.4744435,0.4995157999999999,0.1077270999999999,1.28801,-0.1043742,0.0264320999999999,0.6922695,-0.01394169,5.618926,51.94641,31.81
4,-0.02435303,0.08163452,0.9963531,1.0,-0.1361694,0.06352234,0.9886322,-31.78195,1.328186,-30.0504,3.684998,0.533644,0.5543376999999999,1.0,0.03813171,0.09129333,0.9950867,33.25114,2.4138490000000004,-30.01656,4.142365,0.4744435,0.4995157999999999,0.1077270999999999,1.28801,-0.1043742,0.0264320999999999,0.6922695,-0.01394169,5.618926,51.94641,31.81
4,-0.02435303,0.08163452,0.9963531,1.0,-0.1361694,0.06352234,0.9886322,-31.78195,1.328186,-30.0504,3.684998,0.533644,0.5543376999999999,1.0,0.03813171,0.09129333,0.9950867,33.25114,2.4138490000000004,-30.01656,4.142365,0.4744435,0.4995157999999999,0.1077270999999999,1.28801,-0.1043742,0.0264320999999999,0.6922695,-0.01394169,5.618926,51.94641,31.81
4,-0.03034973,0.1054688,0.9939575,1.0,-0.1404724,0.05947876,0.9882813,-31.78195,1.352417,-30.09076,3.65683,0.534175,0.5543376999999999,1.0,0.0368041999999999,0.1327057,0.9904633,33.25114,2.4138490000000004,-30.00119,4.174164,0.4746206,0.4945731,0.1078758,1.287988,-0.1044847,0.02615725,0.6921307,-0.01416963,5.618926,51.94641,31.81
4,-0.03034973,0.1054688,0.9939575,1.0,-0.1404724,0.05947876,0.9882813,-31.78195,1.352417,-30.09076,3.65683,0.534175,0.5543376999999999,1.0,0.0368041999999999,0.1327057,0.9904633,33.25114,2.4138490000000004,-30.00119,4.174164,0.4746206,0.4945731,0.1078758,1.287988,-0.1044847,0.02615725,0.6921307,-0.01416963,5.618926,51.94641,31.81
4,-0.03034973,0.1054688,0.9939575,1.0,-0.1404724,0.05947876,0.9882813,-31.78195,1.352417,-30.09076,3.65683,0.534175,0.5543376999999999,1.0,0.0368041999999999,0.1327057,0.9904633,33.25114,2.4138490000000004,-30.00119,4.174164,0.4746206,0.4945731,0.1078758,1.287988,-0.1044847,0.02615725,0.6921307,-0.01416963,5.618926,51.94641,31.81
4,-0.03034973,0.1054688,0.9939575,1.0,-0.1404724,0.05947876,0.9882813,-31.78195,1.352417,-30.09076,3.65683,0.534175,0.5543376999999999,1.0,0.0368041999999999,0.1327057,0.9904633,33.25114,2.4138490000000004,-30.00119,4.174164,0.4746206,0.4945731,0.1078609999999999,1.28814,-0.1046575,0.02557278,0.6920071,-0.01387902,5.618926,51.94641,31.81
4,-0.03034973,0.1054688,0.9939575,1.0,-0.1404724,0.05947876,0.9882813,-31.78195,1.352417,-30.09076,3.65683,0.534175,0.5543376999999999,1.0,0.0368041999999999,0.1327057,0.9904633,33.25114,2.4138490000000004,-30.00119,4.174164,0.4746206,0.4945731,0.1078609999999999,1.28814,-0.1046575,0.02557278,0.6920071,-0.01387902,5.618926,51.94641,31.81
4,-0.03034973,0.1054688,0.9939575,1.0,-0.1404724,0.05947876,0.9882813,-31.78195,1.352417,-30.09076,3.65683,0.534175,0.5543376999999999,1.0,0.0368041999999999,0.1327057,0.9904633,33.25114,2.4138490000000004,-30.00119,4.174164,0.4746206,0.4945731,0.1078609999999999,1.28814,-0.1046575,0.02557278,0.6920071,-0.01387902,5.618926,51.94641,31.81
4,-0.140274,0.05885315,0.9883575,0.9977391,-0.1415404999999999,0.05851746,0.9881897,-31.782120000000003,1.369003,-30.11523,3.673492,0.5343342,0.5541268,0.962697,0.02557373,0.101944,0.9944458,33.29102,2.36412,-29.32051,4.197418,0.4747818,0.4940266,0.1074393,1.288263,-0.1050077,0.0247267,0.6921052,-0.01341497,5.618926,51.94641,31.81
4,-0.140274,0.05885315,0.9883575,0.9977391,-0.1415404999999999,0.05851746,0.9881897,-31.782120000000003,1.369003,-30.11523,3.673492,0.5343342,0.5541268,0.962697,0.02557373,0.101944,0.9944458,33.29102,2.36412,-29.32051,4.197418,0.4747818,0.4940266,0.1074393,1.288263,-0.1050077,0.0247267,0.6921052,-0.01341497,5.618926,51.94641,31.81
4,-0.140274,0.05885315,0.9883575,0.9977391,-0.1415404999999999,0.05851746,0.9881897,-31.782120000000003,1.369003,-30.11523,3.673492,0.5343342,0.5541268,0.962697,0.02557373,0.101944,0.9944458,33.29102,2.36412,-29.32051,4.197418,0.4747818,0.4940266,0.1074393,1.288263,-0.1050077,0.0247267,0.6921052,-0.01341497,5.618926,51.94641,31.81
4,-0.140274,0.05885315,0.9883575,0.9977391,-0.1415404999999999,0.05851746,0.9881897,-31.782120000000003,1.369003,-30.11523,3.673492,0.5343342,0.5541268,0.962697,0.02557373,0.101944,0.9944458,33.29102,2.36412,-29.32051,4.197418,0.4747818,0.4940266,0.1068956999999999,1.288496,-0.1052931,0.02442413,0.6922196999999999,-0.01278479,5.618926,36.07819,31.81
4,-0.140274,0.05885315,0.9883575,0.9977391,-0.1415404999999999,0.05851746,0.9881897,-31.782120000000003,1.369003,-30.11523,3.673492,0.5343342,0.5541268,0.962697,0.02557373,0.101944,0.9944458,33.29102,2.36412,-29.32051,4.197418,0.4747818,0.4940266,0.1068956999999999,1.288496,-0.1052931,0.02442413,0.6922196999999999,-0.01278479,5.618926,36.07819,31.81
4,-0.140274,0.05885315,0.9883575,0.9977391,-0.1415404999999999,0.05851746,0.9881897,-31.782120000000003,1.369003,-30.11523,3.673492,0.5343342,0.5541268,0.962697,0.02557373,0.101944,0.9944458,33.29102,2.36412,-29.32051,4.197418,0.4747818,0.4940266,0.1068956999999999,1.288496,-0.1052931,0.02442413,0.6922196999999999,-0.01278479,5.618926,36.07819,31.81
4,-0.1453552,0.0655365,0.9871979,0.9881882,-0.1454468,0.06550598,0.9871826,-31.78323,1.389404,-30.10815,3.681168,0.5348538,0.5525423,0.9778329,0.02183533,0.1188507,0.9926605,33.2814,2.402664,-29.45624,4.286407,0.4754428,0.4920412,0.1059656,1.289288,-0.1056375,0.02324774,0.6923296,-0.01229491,5.618926,36.07819,31.81
4,-0.1453552,0.0655365,0.9871979,0.9881882,-0.1454468,0.06550598,0.9871826,-31.78323,1.389404,-30.10815,3.681168,0.5348538,0.5525423,0.9778329,0.02183533,0.1188507,0.9926605,33.2814,2.402664,-29.45624,4.286407,0.4754428,0.4920412,0.1059656,1.289288,-0.1056375,0.02324774,0.6923296,-0.01229491,5.618926,36.07819,31.81
4,-0.1453552,0.0655365,0.9871979,0.9881882,-0.1454468,0.06550598,0.9871826,-31.78323,1.389404,-30.10815,3.681168,0.5348538,0.5525423,0.9778329,0.02183533,0.1188507,0.9926605,33.2814,2.402664,-29.45624,4.286407,0.4754428,0.4920412,0.1059656,1.289288,-0.1056375,0.02324774,0.6923296,-0.01229491,5.618926,36.07819,31.81
4,-0.07850647,0.08457947,0.9933167,0.9841102,-0.1517638999999999,0.06114197,0.9865112,-31.78496,1.391983,-30.12575,3.674805,0.535687,0.5531578,0.9743804,0.0218810999999999,0.1156311,0.993042,33.28145,2.411575,-29.471390000000003,4.269867,0.4754428,0.4922261999999999,0.104676,1.290556,-0.1060702999999999,0.02062356,0.6925047,-0.01075778,5.618926,36.07819,31.81
4,-0.07850647,0.08457947,0.9933167,0.9841102,-0.1517638999999999,0.06114197,0.9865112,-31.78496,1.391983,-30.12575,3.674805,0.535687,0.5531578,0.9743804,0.0218810999999999,0.1156311,0.993042,33.28145,2.411575,-29.471390000000003,4.269867,0.4754428,0.4922261999999999,0.104676,1.290556,-0.1060702999999999,0.02062356,0.6925047,-0.01075778,5.618926,36.07819,31.81
4,-0.07850647,0.08457947,0.9933167,0.9841102,-0.1517638999999999,0.06114197,0.9865112,-31.78496,1.391983,-30.12575,3.674805,0.535687,0.5531578,0.9743804,0.0218810999999999,0.1156311,0.993042,33.28145,2.411575,-29.471390000000003,4.269867,0.4754428,0.4922261999999999,0.104676,1.290556,-0.1060702999999999,0.02062356,0.6925047,-0.01075778,5.618926,36.07819,31.81
4,-0.05091858,0.09364319,0.9942932,0.9771909,-0.1456451,0.06182861,0.9873962,-31.81146,1.401627,-30.12985,3.656876,0.5358559,0.5527460999999999,0.9803408,0.02500916,0.1183472,0.9926453000000002,33.28226,2.421814,-29.47185,4.294189,0.4750305999999999,0.4915946,0.1032688999999999,1.291965,-0.1065976999999999,0.01782101,0.692615,-0.008410459,5.618926,36.07819,31.81
4,-0.05091858,0.09364319,0.9942932,0.9771909,-0.1456451,0.06182861,0.9873962,-31.81146,1.401627,-30.12985,3.656876,0.5358559,0.5527460999999999,0.9803408,0.02500916,0.1183472,0.9926453000000002,33.28226,2.421814,-29.47185,4.294189,0.4750305999999999,0.4915946,0.1032688999999999,1.291965,-0.1065976999999999,0.01782101,0.692615,-0.008410459,5.618926,36.07819,31.81
4,-0.05091858,0.09364319,0.9942932,0.9771909,-0.1456451,0.06182861,0.9873962,-31.81146,1.401627,-30.12985,3.656876,0.5358559,0.5527460999999999,0.9803408,0.02500916,0.1183472,0.9926453000000002,33.28226,2.421814,-29.47185,4.294189,0.4750305999999999,0.4915946,0.1032688999999999,1.291965,-0.1065976999999999,0.01782101,0.692615,-0.008410459,5.618926,36.07819,31.81
4,-0.03666687,0.09866333,0.9944305,0.9771909,-0.1457214,0.06251526,0.9873352,-31.81346,1.414734,-30.18497,3.673141,0.5359764,0.5527460999999999,0.9803408,0.02528381,0.1185608,0.9926146999999998,33.28426,2.425201,-29.487990000000003,4.298508,0.4749217,0.4915946,0.1016618999999999,1.293607,-0.1070793,0.01427805,0.693146,-0.006158202,5.618926,36.07819,31.81
4,-0.03666687,0.09866333,0.9944305,0.9771909,-0.1457214,0.06251526,0.9873352,-31.81346,1.414734,-30.18497,3.673141,0.5359764,0.5527460999999999,0.9803408,0.02528381,0.1185608,0.9926146999999998,33.28426,2.425201,-29.487990000000003,4.298508,0.4749217,0.4915946,0.1016618999999999,1.293607,-0.1070793,0.01427805,0.693146,-0.006158202,5.618926,36.07819,31.81
4,-0.03666687,0.09866333,0.9944305,0.9771909,-0.1457214,0.06251526,0.9873352,-31.81346,1.414734,-30.18497,3.673141,0.5359764,0.5527460999999999,0.9803408,0.02528381,0.1185608,0.9926146999999998,33.28426,2.425201,-29.487990000000003,4.298508,0.4749217,0.4915946,0.1016618999999999,1.293607,-0.1070793,0.01427805,0.693146,-0.006158202,5.618926,36.07819,31.81
4,-0.009613037,0.08940125,0.9959412,0.9705313,-0.1458282,0.02183533,0.9890594,-31.81998,1.29689,-29.95937,3.65625,0.5360379,0.5595619000000001,0.9960939,0.03245544,0.1098328,0.9934082,33.30081,2.329895,-29.4698,4.411667,0.473388,0.4958021999999999,0.09987783,1.295303,-0.1076863,0.01165116,0.693342,-0.0034483509999999,5.618926,75.67487,31.81
4,-0.009613037,0.08940125,0.9959412,0.9705313,-0.1458282,0.02183533,0.9890594,-31.81998,1.29689,-29.95937,3.65625,0.5360379,0.5595619000000001,0.9960939,0.03245544,0.1098328,0.9934082,33.30081,2.329895,-29.4698,4.411667,0.473388,0.4958021999999999,0.09987783,1.295303,-0.1076863,0.01165116,0.693342,-0.0034483509999999,5.618926,75.67487,31.81
4,-0.009613037,0.08940125,0.9959412,0.9705313,-0.1458282,0.02183533,0.9890594,-31.81998,1.29689,-29.95937,3.65625,0.5360379,0.5595619000000001,0.9960939,0.03245544,0.1098328,0.9934082,33.30081,2.329895,-29.4698,4.411667,0.473388,0.4958021999999999,0.09987783,1.295303,-0.1076863,0.01165116,0.693342,-0.0034483509999999,5.618926,75.67487,31.81
4,-0.02555847,0.04226685,0.998764,0.9819217,-0.1451416,-0.005065918,0.9893951,-31.81407,1.253632,-29.97218,3.637680000000001,0.5357307,0.564392,0.9943797,0.0229949999999999,0.06124878,0.9978485,33.30182,2.327179,-29.61601,4.2052760000000005,0.4745451,0.5026028,0.09807611,1.297418,-0.1082039,0.0093086119999999,0.6935382,-0.001500025,5.618926,75.67487,31.81
4,-0.02555847,0.04226685,0.998764,0.9819217,-0.1451416,-0.005065918,0.9893951,-31.81407,1.253632,-29.97218,3.637680000000001,0.5357307,0.564392,0.9943797,0.0229949999999999,0.06124878,0.9978485,33.30182,2.327179,-29.61601,4.2052760000000005,0.4745451,0.5026028,0.09807611,1.297418,-0.1082039,0.0093086119999999,0.6935382,-0.001500025,5.618926,75.67487,31.81
4,-0.02555847,0.04226685,0.998764,0.9819217,-0.1451416,-0.005065918,0.9893951,-31.81407,1.253632,-29.97218,3.637680000000001,0.5357307,0.564392,0.9943797,0.0229949999999999,0.06124878,0.9978485,33.30182,2.327179,-29.61601,4.2052760000000005,0.4745451,0.5026028,0.09807611,1.297418,-0.1082039,0.0093086119999999,0.6935382,-0.001500025,5.618926,75.67487,31.81
4,-0.04753113,0.02815247,0.9984589,0.9938309,-0.1462707999999999,0.01612854,0.9891052,-31.81288,1.2336120000000002,-29.9706,3.800552,0.5359186,0.5627015999999999,0.993735,0.021698,0.03639221,0.9990997,33.30307,2.2835240000000003,-29.5799,4.208176,0.4746278,0.5066869,0.09807611,1.297418,-0.1082039,0.0093086119999999,0.6935382,-0.001500025,5.618926,75.67487,31.81
4,-0.04753113,0.02815247,0.9984589,0.9938309,-0.1462707999999999,0.01612854,0.9891052,-31.81288,1.2336120000000002,-29.9706,3.800552,0.5359186,0.5627015999999999,0.993735,0.021698,0.03639221,0.9990997,33.30307,2.2835240000000003,-29.5799,4.208176,0.4746278,0.5066869,0.09807611,1.297418,-0.1082039,0.0093086119999999,0.6935382,-0.001500025,5.618926,75.67487,31.81
4,-0.04753113,0.02815247,0.9984589,0.9938309,-0.1462707999999999,0.01612854,0.9891052,-31.81288,1.2336120000000002,-29.9706,3.800552,0.5359186,0.5627015999999999,0.993735,0.021698,0.03639221,0.9990997,33.30307,2.2835240000000003,-29.5799,4.208176,0.4746278,0.5066869,0.09807611,1.297418,-0.1082039,0.0093086119999999,0.6935382,-0.001500025,5.618926,75.67487,31.81
4,-0.0479126,0.03129578,0.9983521,0.9963918,-0.1478882,0.01513672,0.9888763,-31.81288,1.227722,-29.96899,3.786697,0.5361064999999999,0.5629951,0.9966727,0.02079773,0.04216003,0.9988861,33.30501,2.265381,-29.58836,4.211136,0.4746637999999999,0.5066997,0.09350276,1.301999,-0.1091279,0.002435295,0.6937211999999999,0.004673875,5.618926,75.67487,31.81
4,-0.0479126,0.03129578,0.9983521,0.9963918,-0.1478882,0.01513672,0.9888763,-31.81288,1.227722,-29.96899,3.786697,0.5361064999999999,0.5629951,0.9966727,0.02079773,0.04216003,0.9988861,33.30501,2.265381,-29.58836,4.211136,0.4746637999999999,0.5066997,0.09350276,1.301999,-0.1091279,0.002435295,0.6937211999999999,0.004673875,5.618926,75.67487,31.81
4,-0.0479126,0.03129578,0.9983521,0.9963918,-0.1478882,0.01513672,0.9888763,-31.81288,1.227722,-29.96899,3.786697,0.5361064999999999,0.5629951,0.9966727,0.02079773,0.04216003,0.9988861,33.30501,2.265381,-29.58836,4.211136,0.4746637999999999,0.5066997,0.09350276,1.301999,-0.1091279,0.002435295,0.6937211999999999,0.004673875,5.618926,75.67487,31.81
4,-0.0479126,0.03129578,0.9983521,0.9963918,-0.1478882,0.01513672,0.9888763,-31.81288,1.227722,-29.96899,3.786697,0.5361064999999999,0.5629951,0.9966727,0.02079773,0.04216003,0.9988861,33.30501,2.265381,-29.58836,4.211136,0.4746637999999999,0.5066997,0.09122157,1.304344,-0.1095561,-0.0008457279,0.6937223000000001,0.008712434,5.618926,75.67487,31.81
4,-0.0479126,0.03129578,0.9983521,0.9963918,-0.1478882,0.01513672,0.9888763,-31.81288,1.227722,-29.96899,3.786697,0.5361064999999999,0.5629951,0.9966727,0.02079773,0.04216003,0.9988861,33.30501,2.265381,-29.58836,4.211136,0.4746637999999999,0.5066997,0.09122157,1.304344,-0.1095561,-0.0008457279,0.6937223000000001,0.008712434,5.618926,75.67487,31.81
4,-0.0479126,0.03129578,0.9983521,0.9963918,-0.1478882,0.01513672,0.9888763,-31.81288,1.227722,-29.96899,3.786697,0.5361064999999999,0.5629951,0.9966727,0.02079773,0.04216003,0.9988861,33.30501,2.265381,-29.58836,4.211136,0.4746637999999999,0.5066997,0.09122157,1.304344,-0.1095561,-0.0008457279,0.6937223000000001,0.008712434,5.618926,75.67487,31.81
4,-0.04670715,0.03236389,0.9983826,0.9963918,-0.1447448999999999,0.01377869,0.9893646,-31.81316,1.210342,-29.96747,3.785721,0.5357307,0.5637243000000001,0.9966727,0.02009583,0.0447998,0.9987793,33.3074,2.2463990000000003,-29.60001,4.206024,0.4746637999999999,0.5071359000000001,0.08900833,1.30653,-0.1099454999999999,-0.004103451,0.6939574000000001,0.01203863,5.618926,19.05762,31.81
4,-0.04670715,0.03236389,0.9983826,0.9963918,-0.1447448999999999,0.01377869,0.9893646,-31.81316,1.210342,-29.96747,3.785721,0.5357307,0.5637243000000001,0.9966727,0.02009583,0.0447998,0.9987793,33.3074,2.2463990000000003,-29.60001,4.206024,0.4746637999999999,0.5071359000000001,0.08900833,1.30653,-0.1099454999999999,-0.004103451,0.6939574000000001,0.01203863,5.618926,19.05762,31.81
4,-0.04670715,0.03236389,0.9983826,0.9963918,-0.1447448999999999,0.01377869,0.9893646,-31.81316,1.210342,-29.96747,3.785721,0.5357307,0.5637243000000001,0.9966727,0.02009583,0.0447998,0.9987793,33.3074,2.2463990000000003,-29.60001,4.206024,0.4746637999999999,0.5071359000000001,0.08900833,1.30653,-0.1099454999999999,-0.004103451,0.6939574000000001,0.01203863,5.618926,19.05762,31.81
4,-0.04670715,0.03236389,0.9983826,0.9963918,-0.1447448999999999,0.01377869,0.9893646,-31.81316,1.210342,-29.96747,3.785721,0.5357307,0.5637243000000001,0.9966727,0.02009583,0.0447998,0.9987793,33.3074,2.2463990000000003,-29.60001,4.206024,0.4746637999999999,0.5071359000000001,0.08669209,1.3084360000000002,-0.110426,-0.006810276,0.6940314000000001,0.0153622,5.618926,19.05762,31.81
4,-0.04670715,0.03236389,0.9983826,0.9963918,-0.1447448999999999,0.01377869,0.9893646,-31.81316,1.210342,-29.96747,3.785721,0.5357307,0.5637243000000001,0.9966727,0.02009583,0.0447998,0.9987793,33.3074,2.2463990000000003,-29.60001,4.206024,0.4746637999999999,0.5071359000000001,0.08669209,1.3084360000000002,-0.110426,-0.006810276,0.6940314000000001,0.0153622,5.618926,19.05762,31.81
4,-0.04670715,0.03236389,0.9983826,0.9963918,-0.1447448999999999,0.01377869,0.9893646,-31.81316,1.210342,-29.96747,3.785721,0.5357307,0.5637243000000001,0.9966727,0.02009583,0.0447998,0.9987793,33.3074,2.2463990000000003,-29.60001,4.206024,0.4746637999999999,0.5071359000000001,0.08669209,1.3084360000000002,-0.110426,-0.006810276,0.6940314000000001,0.0153622,5.618926,19.05762,31.81
4,-0.1176758,-0.04533386,0.9920044,1.0,-0.1325531,-0.04762268,0.9900208,-31.804340000000003,0.8470916999999999,-29.796570000000003,3.789413,0.5337917,0.5820387,1.0,0.02064514,-0.02371216,0.9994965,33.33435,1.749756,-29.0865,4.102371,0.473779,0.5274265,0.08459091,1.310288,-0.1108801,-0.01050975,0.6940689,0.0188943,5.618926,19.05762,31.81
4,-0.1176758,-0.04533386,0.9920044,1.0,-0.1325531,-0.04762268,0.9900208,-31.804340000000003,0.8470916999999999,-29.796570000000003,3.789413,0.5337917,0.5820387,1.0,0.02064514,-0.02371216,0.9994965,33.33435,1.749756,-29.0865,4.102371,0.473779,0.5274265,0.08459091,1.310288,-0.1108801,-0.01050975,0.6940689,0.0188943,5.618926,19.05762,31.81
4,-0.1176758,-0.04533386,0.9920044,1.0,-0.1325531,-0.04762268,0.9900208,-31.804340000000003,0.8470916999999999,-29.796570000000003,3.789413,0.5337917,0.5820387,1.0,0.02064514,-0.02371216,0.9994965,33.33435,1.749756,-29.0865,4.102371,0.473779,0.5274265,0.08459091,1.310288,-0.1108801,-0.01050975,0.6940689,0.0188943,5.618926,19.05762,31.81
4,-0.134201,-0.07551575,0.9880676,1.0,-0.1356964,-0.07585144,0.9878386999999998,-31.799840000000003,0.8206635,-29.79031,3.598267,0.533898,0.5861704000000001,1.0,0.01506042,-0.04142761,0.9990234,33.34158,1.691528,-28.95963,4.062576,0.4742436,0.5303475000000001,0.08256984,1.31209,-0.1114597,-0.0130772,0.6939901999999999,0.02194534,5.618926,19.05762,31.81
4,-0.134201,-0.07551575,0.9880676,1.0,-0.1356964,-0.07585144,0.9878386999999998,-31.799840000000003,0.8206635,-29.79031,3.598267,0.533898,0.5861704000000001,1.0,0.01506042,-0.04142761,0.9990234,33.34158,1.691528,-28.95963,4.062576,0.4742436,0.5303475000000001,0.08256984,1.31209,-0.1114597,-0.0130772,0.6939901999999999,0.02194534,5.618926,19.05762,31.81
4,-0.134201,-0.07551575,0.9880676,1.0,-0.1356964,-0.07585144,0.9878386999999998,-31.799840000000003,0.8206635,-29.79031,3.598267,0.533898,0.5861704000000001,1.0,0.01506042,-0.04142761,0.9990234,33.34158,1.691528,-28.95963,4.062576,0.4742436,0.5303475000000001,0.08256984,1.31209,-0.1114597,-0.0130772,0.6939901999999999,0.02194534,5.618926,19.05762,31.81
4,-0.1142577999999999,-0.07316589,0.9907379,1.0,-0.1346741,-0.07763672,0.9878386999999998,-31.80148,0.8140106,-29.777890000000003,3.640762,0.5338466,0.5865359,1.0,0.01260376,-0.0448760999999999,0.9989014,33.34158,1.691528,-28.95963,4.058884,0.4745313,0.5307592,0.08065104,1.313798,-0.1119055,-0.01598911,0.6938753000000001,0.02304431,5.618926,-12.03729,31.81
