Second,eye_comb_direction_x,eye_comb_direction_y,eye_comb_direction_z,eye_r_openness,eye_r_direction_x,eye_r_direction_y,eye_r_direction_z,eye_r_origin_x,eye_r_origin_y,eye_r_origin_z,eye_r_pupil_diameter,eye_r_pupil_position_x,eye_r_pupil_position_y,eye_l_openness,eye_l_direction_x,eye_l_direction_y,eye_l_direction_z,eye_l_origin_x,eye_l_origin_y,eye_l_origin_z,eye_l_pupil_diameter,eye_l_pupil_position_x,eye_l_pupil_position_y,head_position_x,head_position_y,head_position_z,head_rotation_roll,head_rotation_pitch,head_rotation_yaw,EDA,BVP,TMP
0,0.2994232,-0.1995087,0.9330139,1.0,0.1721344,-0.2226715,0.9595642,-30.39677,1.063583,-30.2831,3.963486,0.4483635,0.6009861999999999,1.0,0.3801727,-0.1824188,0.9067383,34.79845,2.17363,-28.59503,4.630127,0.3810272,0.5285196,0.2463536,1.2861479999999998,-0.1260233999999999,0.001050089,0.684609,0.00059802,5.590146,-3.1647846290055246,31.345516969218625
0,0.2994232,-0.1995087,0.9330139,1.0,0.1721344,-0.2226715,0.9595642,-30.39677,1.063583,-30.2831,3.963486,0.4483635,0.6009861999999999,1.0,0.3801727,-0.1824188,0.9067383,34.79845,2.17363,-28.59503,4.630127,0.3810272,0.5285196,0.2463536,1.2861479999999998,-0.1260233999999999,0.001050089,0.684609,0.00059802,5.590146,-3.1647846290055246,31.345516969218625
0,0.2994232,-0.1995087,0.9330139,1.0,0.1721344,-0.2226715,0.9595642,-30.39677,1.063583,-30.2831,3.963486,0.4483635,0.6009861999999999,1.0,0.3801727,-0.1824188,0.9067383,34.79845,2.17363,-28.59503,4.630127,0.3810272,0.5285196,0.2463536,1.2861479999999998,-0.1260233999999999,0.001050089,0.684609,0.00059802,5.590146,-3.1647846290055246,31.345516969218625
0,0.2868652,-0.2036132999999999,0.9360657,1.0,0.1753845,-0.2224274,0.9590302,-30.42081,1.074371,-30.27806,3.942032,0.4487791,0.6005550999999999,1.0,0.3636017,-0.1886444,0.9122467,34.76781,2.193863,-28.59282,4.55069,0.384126,0.5284224000000001,0.2453966,1.286597,-0.1238647,0.0003112195,0.6795161999999999,-0.001060678,5.590146,-3.1647846290055246,31.345516969218625
0,0.2868652,-0.2036132999999999,0.9360657,1.0,0.1753845,-0.2224274,0.9590302,-30.42081,1.074371,-30.27806,3.942032,0.4487791,0.6005550999999999,1.0,0.3636017,-0.1886444,0.9122467,34.76781,2.193863,-28.59282,4.55069,0.384126,0.5284224000000001,0.2453966,1.286597,-0.1238647,0.0003112195,0.6795161999999999,-0.001060678,5.590146,-3.1647846290055246,31.345516969218625
0,0.2868652,-0.2036132999999999,0.9360657,1.0,0.1753845,-0.2224274,0.9590302,-30.42081,1.074371,-30.27806,3.942032,0.4487791,0.6005550999999999,1.0,0.3636017,-0.1886444,0.9122467,34.76781,2.193863,-28.59282,4.55069,0.384126,0.5284224000000001,0.2453966,1.286597,-0.1238647,0.0003112195,0.6795161999999999,-0.001060678,5.590146,-3.1647846290055246,31.345516969218625
1,0.1941376,-0.2210692999999999,0.9557343,1.0,0.1217803999999999,-0.1995087,0.97229,-30.666490000000003,1.072632,-30.221770000000003,4.011108,0.4639747999999999,0.596961,1.0,0.2672577,-0.2418518,0.9327698,34.523540000000004,2.208359,-28.476440000000004,4.201767,0.404287,0.5328041,0.2437464,1.287394,-0.1218807,0.0004315837,0.6747280999999999,-0.002161368,5.590146,-3.1647846290055246,31.345516969218625
1,0.1941376,-0.2210692999999999,0.9557343,1.0,0.1217803999999999,-0.1995087,0.97229,-30.666490000000003,1.072632,-30.221770000000003,4.011108,0.4639747999999999,0.596961,1.0,0.2672577,-0.2418518,0.9327698,34.523540000000004,2.208359,-28.476440000000004,4.201767,0.404287,0.5328041,0.2437464,1.287394,-0.1218807,0.0004315837,0.6747280999999999,-0.002161368,5.590146,-3.1647846290055246,31.345516969218625
1,0.1941376,-0.2210692999999999,0.9557343,1.0,0.1217803999999999,-0.1995087,0.97229,-30.666490000000003,1.072632,-30.221770000000003,4.011108,0.4639747999999999,0.596961,1.0,0.2672577,-0.2418518,0.9327698,34.523540000000004,2.208359,-28.476440000000004,4.201767,0.404287,0.5328041,0.2437464,1.287394,-0.1218807,0.0004315837,0.6747280999999999,-0.002161368,5.590146,-3.1647846290055246,31.345516969218625
1,0.1941376,-0.2210692999999999,0.9557343,1.0,0.1217803999999999,-0.1995087,0.97229,-30.666490000000003,1.072632,-30.221770000000003,4.011108,0.4639747999999999,0.596961,1.0,0.2672577,-0.2418518,0.9327698,34.523540000000004,2.208359,-28.476440000000004,4.201767,0.404287,0.5328041,0.2415359,1.288691,-0.1198621,0.0006959078999999,0.6705675,-0.003962117,5.590146,-3.1647846290055246,31.345516969218625
1,0.1941376,-0.2210692999999999,0.9557343,1.0,0.1217803999999999,-0.1995087,0.97229,-30.666490000000003,1.072632,-30.221770000000003,4.011108,0.4639747999999999,0.596961,1.0,0.2672577,-0.2418518,0.9327698,34.523540000000004,2.208359,-28.476440000000004,4.201767,0.404287,0.5328041,0.2415359,1.288691,-0.1198621,0.0006959078999999,0.6705675,-0.003962117,5.590146,-3.1647846290055246,31.345516969218625
1,0.1941376,-0.2210692999999999,0.9557343,1.0,0.1217803999999999,-0.1995087,0.97229,-30.666490000000003,1.072632,-30.221770000000003,4.011108,0.4639747999999999,0.596961,1.0,0.2672577,-0.2418518,0.9327698,34.523540000000004,2.208359,-28.476440000000004,4.201767,0.404287,0.5328041,0.2415359,1.288691,-0.1198621,0.0006959078999999,0.6705675,-0.003962117,5.590146,-3.1647846290055246,31.345516969218625
1,0.1941376,-0.2210692999999999,0.9557343,1.0,0.1217803999999999,-0.1995087,0.97229,-30.666490000000003,1.072632,-30.221770000000003,4.011108,0.4639747999999999,0.596961,1.0,0.2672577,-0.2418518,0.9327698,34.523540000000004,2.208359,-28.476440000000004,4.201767,0.404287,0.5328041,0.2385763,1.290507,-0.117892,0.0001220703,0.6664413,-0.004282912,5.590146,-3.1647846290055246,31.345516969218625
1,0.1941376,-0.2210692999999999,0.9557343,1.0,0.1217803999999999,-0.1995087,0.97229,-30.666490000000003,1.072632,-30.221770000000003,4.011108,0.4639747999999999,0.596961,1.0,0.2672577,-0.2418518,0.9327698,34.523540000000004,2.208359,-28.476440000000004,4.201767,0.404287,0.5328041,0.2385763,1.290507,-0.117892,0.0001220703,0.6664413,-0.004282912,5.590146,-3.1647846290055246,31.345516969218625
1,0.1941376,-0.2210692999999999,0.9557343,1.0,0.1217803999999999,-0.1995087,0.97229,-30.666490000000003,1.072632,-30.221770000000003,4.011108,0.4639747999999999,0.596961,1.0,0.2672577,-0.2418518,0.9327698,34.523540000000004,2.208359,-28.476440000000004,4.201767,0.404287,0.5328041,0.2385763,1.290507,-0.117892,0.0001220703,0.6664413,-0.004282912,5.590146,-3.1647846290055246,31.345516969218625
1,0.177475,-0.1698914,0.9693298,1.0,0.08158875,-0.2029877,0.975769,-30.87358,1.103775,-30.18686,3.862137,0.4758605999999999,0.5958316,1.0,0.2401581,-0.1469574,0.9595337,34.37743,2.177719,-28.450470000000003,4.535645,0.4126162,0.5220917,0.2350286,1.292465,-0.1157133,-0.0004139606,0.6618746999999999,-0.003576681,5.590146,-3.1647846290055246,31.345516969218625
1,0.177475,-0.1698914,0.9693298,1.0,0.08158875,-0.2029877,0.975769,-30.87358,1.103775,-30.18686,3.862137,0.4758605999999999,0.5958316,1.0,0.2401581,-0.1469574,0.9595337,34.37743,2.177719,-28.450470000000003,4.535645,0.4126162,0.5220917,0.2350286,1.292465,-0.1157133,-0.0004139606,0.6618746999999999,-0.003576681,5.590146,-3.1647846290055246,31.345516969218625
1,0.177475,-0.1698914,0.9693298,1.0,0.08158875,-0.2029877,0.975769,-30.87358,1.103775,-30.18686,3.862137,0.4758605999999999,0.5958316,1.0,0.2401581,-0.1469574,0.9595337,34.37743,2.177719,-28.450470000000003,4.535645,0.4126162,0.5220917,0.2350286,1.292465,-0.1157133,-0.0004139606,0.6618746999999999,-0.003576681,5.590146,-3.1647846290055246,31.345516969218625
1,0.177475,-0.1698914,0.9693298,1.0,0.08158875,-0.2029877,0.975769,-30.87358,1.103775,-30.18686,3.862137,0.4758605999999999,0.5958316,1.0,0.2401581,-0.1469574,0.9595337,34.37743,2.177719,-28.450470000000003,4.535645,0.4126162,0.5220917,0.2308255,1.294254,-0.1134456999999999,-0.0003343033,0.6564798000000001,-0.002544515,5.590146,14.73652,31.345516969218625
1,0.177475,-0.1698914,0.9693298,1.0,0.08158875,-0.2029877,0.975769,-30.87358,1.103775,-30.18686,3.862137,0.4758605999999999,0.5958316,1.0,0.2401581,-0.1469574,0.9595337,34.37743,2.177719,-28.450470000000003,4.535645,0.4126162,0.5220917,0.2308255,1.294254,-0.1134456999999999,-0.0003343033,0.6564798000000001,-0.002544515,5.590146,14.73652,31.345516969218625
1,0.177475,-0.1698914,0.9693298,1.0,0.08158875,-0.2029877,0.975769,-30.87358,1.103775,-30.18686,3.862137,0.4758605999999999,0.5958316,1.0,0.2401581,-0.1469574,0.9595337,34.37743,2.177719,-28.450470000000003,4.535645,0.4126162,0.5220917,0.2308255,1.294254,-0.1134456999999999,-0.0003343033,0.6564798000000001,-0.002544515,5.590146,14.73652,31.345516969218625
1,0.177475,-0.1698914,0.9693298,1.0,0.08158875,-0.2029877,0.975769,-30.87358,1.103775,-30.18686,3.862137,0.4758605999999999,0.5958316,1.0,0.2401581,-0.1469574,0.9595337,34.37743,2.177719,-28.450470000000003,4.535645,0.4126162,0.5220917,0.2278981,1.295741,-0.1120121,-0.0017392339999999,0.6533982,-0.001730645,5.590146,14.73652,31.345516969218625
1,0.177475,-0.1698914,0.9693298,1.0,0.08158875,-0.2029877,0.975769,-30.87358,1.103775,-30.18686,3.862137,0.4758605999999999,0.5958316,1.0,0.2401581,-0.1469574,0.9595337,34.37743,2.177719,-28.450470000000003,4.535645,0.4126162,0.5220917,0.2278981,1.295741,-0.1120121,-0.0017392339999999,0.6533982,-0.001730645,5.590146,14.73652,31.345516969218625
1,0.177475,-0.1698914,0.9693298,1.0,0.08158875,-0.2029877,0.975769,-30.87358,1.103775,-30.18686,3.862137,0.4758605999999999,0.5958316,1.0,0.2401581,-0.1469574,0.9595337,34.37743,2.177719,-28.450470000000003,4.535645,0.4126162,0.5220917,0.2278981,1.295741,-0.1120121,-0.0017392339999999,0.6533982,-0.001730645,5.590146,14.73652,31.345516969218625
1,0.1372986,-0.1768951,0.9745941,1.0,0.01756287,-0.2250213999999999,0.9741821,-31.07347,1.014893,-30.071620000000003,3.868668,0.4904871,0.6005385999999999,1.0,0.1967162999999999,-0.1515503,0.9686737,34.1638,2.131729,-28.46678,4.425766,0.4250369,0.5242319000000001,0.2231724,1.298209,-0.1099948999999999,-0.0041152359999999,0.6495831,-0.0009094034,5.590146,14.73652,31.345516969218625
1,0.1372986,-0.1768951,0.9745941,1.0,0.01756287,-0.2250213999999999,0.9741821,-31.07347,1.014893,-30.071620000000003,3.868668,0.4904871,0.6005385999999999,1.0,0.1967162999999999,-0.1515503,0.9686737,34.1638,2.131729,-28.46678,4.425766,0.4250369,0.5242319000000001,0.2231724,1.298209,-0.1099948999999999,-0.0041152359999999,0.6495831,-0.0009094034,5.590146,14.73652,31.345516969218625
1,0.1372986,-0.1768951,0.9745941,1.0,0.01756287,-0.2250213999999999,0.9741821,-31.07347,1.014893,-30.071620000000003,3.868668,0.4904871,0.6005385999999999,1.0,0.1967162999999999,-0.1515503,0.9686737,34.1638,2.131729,-28.46678,4.425766,0.4250369,0.5242319000000001,0.2231724,1.298209,-0.1099948999999999,-0.0041152359999999,0.6495831,-0.0009094034,5.590146,14.73652,31.345516969218625
1,0.1433716,-0.1947479,0.9703064,1.0,0.02278137,-0.2113037,0.9771423,-31.095840000000003,0.9873046999999998,-30.01874,3.945435,0.4907074,0.5992818,1.0,0.1725006,-0.1902771,0.9664459,34.11603,2.102203,-28.43379,4.411072,0.4294774,0.5295667,0.2180012,1.300714,-0.1079815,-0.004519899,0.6454705,-0.0001220703,5.590146,14.73652,31.345516969218625
1,0.1433716,-0.1947479,0.9703064,1.0,0.02278137,-0.2113037,0.9771423,-31.095840000000003,0.9873046999999998,-30.01874,3.945435,0.4907074,0.5992818,1.0,0.1725006,-0.1902771,0.9664459,34.11603,2.102203,-28.43379,4.411072,0.4294774,0.5295667,0.2180012,1.300714,-0.1079815,-0.004519899,0.6454705,-0.0001220703,5.590146,14.73652,31.345516969218625
1,0.1433716,-0.1947479,0.9703064,1.0,0.02278137,-0.2113037,0.9771423,-31.095840000000003,0.9873046999999998,-30.01874,3.945435,0.4907074,0.5992818,1.0,0.1725006,-0.1902771,0.9664459,34.11603,2.102203,-28.43379,4.411072,0.4294774,0.5295667,0.2180012,1.300714,-0.1079815,-0.004519899,0.6454705,-0.0001220703,5.590146,14.73652,31.345516969218625
1,0.1433716,-0.1947479,0.9703064,1.0,0.02278137,-0.2113037,0.9771423,-31.095840000000003,0.9873046999999998,-30.01874,3.945435,0.4907074,0.5992818,1.0,0.1725006,-0.1902771,0.9664459,34.11603,2.102203,-28.43379,4.411072,0.4294774,0.5295667,0.2142067,1.302176,-0.1068513999999999,-0.004259362,0.643073,-8.631674e-05,5.590146,14.73652,31.345516969218625
1,0.1433716,-0.1947479,0.9703064,1.0,0.02278137,-0.2113037,0.9771423,-31.095840000000003,0.9873046999999998,-30.01874,3.945435,0.4907074,0.5992818,1.0,0.1725006,-0.1902771,0.9664459,34.11603,2.102203,-28.43379,4.411072,0.4294774,0.5295667,0.2142067,1.302176,-0.1068513999999999,-0.004259362,0.643073,-8.631674e-05,5.590146,14.73652,31.345516969218625
1,0.1433716,-0.1947479,0.9703064,1.0,0.02278137,-0.2113037,0.9771423,-31.095840000000003,0.9873046999999998,-30.01874,3.945435,0.4907074,0.5992818,1.0,0.1725006,-0.1902771,0.9664459,34.11603,2.102203,-28.43379,4.411072,0.4294774,0.5295667,0.2142067,1.302176,-0.1068513999999999,-0.004259362,0.643073,-8.631674e-05,5.590146,14.73652,31.345516969218625
1,0.1293335,-0.1803131,0.9750519,1.0,0.01202393,-0.2155609,0.9764099,-31.12421,0.9511566,-29.94295,3.940872,0.4929549,0.6003445,1.0,0.1510315,-0.1734313999999999,0.9731903,34.10545,2.010941,-28.34482,4.179626,0.4325738,0.5296951999999999,0.2084947999999999,1.304529,-0.1053111,-0.004665898,0.6406970000000001,-0.0002729575,5.590146,14.73652,31.345516969218625
1,0.1293335,-0.1803131,0.9750519,1.0,0.01202393,-0.2155609,0.9764099,-31.12421,0.9511566,-29.94295,3.940872,0.4929549,0.6003445,1.0,0.1510315,-0.1734313999999999,0.9731903,34.10545,2.010941,-28.34482,4.179626,0.4325738,0.5296951999999999,0.2084947999999999,1.304529,-0.1053111,-0.004665898,0.6406970000000001,-0.0002729575,5.590146,14.73652,31.345516969218625
1,0.1293335,-0.1803131,0.9750519,1.0,0.01202393,-0.2155609,0.9764099,-31.12421,0.9511566,-29.94295,3.940872,0.4929549,0.6003445,1.0,0.1510315,-0.1734313999999999,0.9731903,34.10545,2.010941,-28.34482,4.179626,0.4325738,0.5296951999999999,0.2084947999999999,1.304529,-0.1053111,-0.004665898,0.6406970000000001,-0.0002729575,5.590146,14.73652,31.345516969218625
1,0.09381104,-0.1824341,0.9787292,1.0,-0.04647827,-0.1864014,0.981369,-31.4478,0.8718261999999999,-29.37451,3.923401,0.5109827,0.5940272,1.0,0.09683228,-0.182312,0.9784546,33.73499,2.089951,-28.47855,4.053085,0.4515013,0.5293482,0.2045801,1.306107,-0.1045776,-0.0052511519999999,0.6399155,-0.0002283725999999,5.590146,14.73652,31.345516969218625
1,0.09381104,-0.1824341,0.9787292,1.0,-0.04647827,-0.1864014,0.981369,-31.4478,0.8718261999999999,-29.37451,3.923401,0.5109827,0.5940272,1.0,0.09683228,-0.182312,0.9784546,33.73499,2.089951,-28.47855,4.053085,0.4515013,0.5293482,0.2045801,1.306107,-0.1045776,-0.0052511519999999,0.6399155,-0.0002283725999999,5.590146,14.73652,31.345516969218625
1,0.09381104,-0.1824341,0.9787292,1.0,-0.04647827,-0.1864014,0.981369,-31.4478,0.8718261999999999,-29.37451,3.923401,0.5109827,0.5940272,1.0,0.09683228,-0.182312,0.9784546,33.73499,2.089951,-28.47855,4.053085,0.4515013,0.5293482,0.2045801,1.306107,-0.1045776,-0.0052511519999999,0.6399155,-0.0002283725999999,5.590146,14.73652,31.345516969218625
1,0.09381104,-0.1824341,0.9787292,1.0,-0.04647827,-0.1864014,0.981369,-31.4478,0.8718261999999999,-29.37451,3.923401,0.5109827,0.5940272,1.0,0.09683228,-0.182312,0.9784546,33.73499,2.089951,-28.47855,4.053085,0.4515013,0.5293482,0.2005947,1.307539,-0.104042,-0.005743794,0.639411,-0.0001726334999999,5.590146,14.73652,31.345516969218625
1,0.09381104,-0.1824341,0.9787292,1.0,-0.04647827,-0.1864014,0.981369,-31.4478,0.8718261999999999,-29.37451,3.923401,0.5109827,0.5940272,1.0,0.09683228,-0.182312,0.9784546,33.73499,2.089951,-28.47855,4.053085,0.4515013,0.5293482,0.2005947,1.307539,-0.104042,-0.005743794,0.639411,-0.0001726334999999,5.590146,14.73652,31.345516969218625
1,0.09381104,-0.1824341,0.9787292,1.0,-0.04647827,-0.1864014,0.981369,-31.4478,0.8718261999999999,-29.37451,3.923401,0.5109827,0.5940272,1.0,0.09683228,-0.182312,0.9784546,33.73499,2.089951,-28.47855,4.053085,0.4515013,0.5293482,0.2005947,1.307539,-0.104042,-0.005743794,0.639411,-0.0001726334999999,5.590146,14.73652,31.345516969218625
1,-1.0,-1.0,-1.0,1.0,0.0,0.0,0.0,-32.05591,1.607056,-29.83926,-1.0,0.5502823,0.5630066,1.0,0.0,0.0,0.0,32.89168,3.090439,-30.223240000000004,-1.0,0.5094010999999999,0.4777979999999999,0.1944753,1.30999,-0.103565,-0.007087967,0.6403382,0.0003558930999999,5.590146,0.8305054,31.345516969218625
1,-1.0,-1.0,-1.0,1.0,0.0,0.0,0.0,-32.05591,1.607056,-29.83926,-1.0,0.5502823,0.5630066,1.0,0.0,0.0,0.0,32.89168,3.090439,-30.223240000000004,-1.0,0.5094010999999999,0.4777979999999999,0.1944753,1.30999,-0.103565,-0.007087967,0.6403382,0.0003558930999999,5.590146,0.8305054,31.345516969218625
1,-1.0,-1.0,-1.0,1.0,0.0,0.0,0.0,-32.05591,1.607056,-29.83926,-1.0,0.5502823,0.5630066,1.0,0.0,0.0,0.0,32.89168,3.090439,-30.223240000000004,-1.0,0.5094010999999999,0.4777979999999999,0.1944753,1.30999,-0.103565,-0.007087967,0.6403382,0.0003558930999999,5.590146,0.8305054,31.345516969218625
1,-1.0,-1.0,-1.0,1.0,0.0,0.0,0.0,-32.05591,1.607056,-29.83926,-1.0,0.5502823,0.5630066,1.0,0.0,0.0,0.0,32.89168,3.090439,-30.223240000000004,-1.0,0.5094010999999999,0.4777979999999999,0.1882895,1.3124870000000002,-0.1032344,-0.00847488,0.6420992,0.002277192,5.590146,0.8305054,31.345516969218625
1,-1.0,-1.0,-1.0,1.0,0.0,0.0,0.0,-32.05591,1.607056,-29.83926,-1.0,0.5502823,0.5630066,1.0,0.0,0.0,0.0,32.89168,3.090439,-30.223240000000004,-1.0,0.5094010999999999,0.4777979999999999,0.1882895,1.3124870000000002,-0.1032344,-0.00847488,0.6420992,0.002277192,5.590146,0.8305054,31.345516969218625
1,-1.0,-1.0,-1.0,1.0,0.0,0.0,0.0,-32.05591,1.607056,-29.83926,-1.0,0.5502823,0.5630066,1.0,0.0,0.0,0.0,32.89168,3.090439,-30.223240000000004,-1.0,0.5094010999999999,0.4777979999999999,0.1882895,1.3124870000000002,-0.1032344,-0.00847488,0.6420992,0.002277192,5.590146,0.8305054,31.345516969218625
1,-1.0,-1.0,-1.0,1.0,0.0,0.0,0.0,-32.05591,1.607056,-29.83926,-1.0,0.5502823,0.5630066,1.0,0.0,0.0,0.0,32.89168,3.090439,-30.223240000000004,-1.0,0.5094010999999999,0.4777979999999999,0.1843872999999999,1.314294,-0.103064,-0.0085671269999999,0.6433432,0.0045388159999999,5.590146,0.8305054,31.345516969218625
1,-1.0,-1.0,-1.0,1.0,0.0,0.0,0.0,-32.05591,1.607056,-29.83926,-1.0,0.5502823,0.5630066,1.0,0.0,0.0,0.0,32.89168,3.090439,-30.223240000000004,-1.0,0.5094010999999999,0.4777979999999999,0.1843872999999999,1.314294,-0.103064,-0.0085671269999999,0.6433432,0.0045388159999999,5.590146,0.8305054,31.345516969218625
1,-1.0,-1.0,-1.0,1.0,0.0,0.0,0.0,-32.05591,1.607056,-29.83926,-1.0,0.5502823,0.5630066,1.0,0.0,0.0,0.0,32.89168,3.090439,-30.223240000000004,-1.0,0.5094010999999999,0.4777979999999999,0.1843872999999999,1.314294,-0.103064,-0.0085671269999999,0.6433432,0.0045388159999999,5.590146,0.8305054,31.345516969218625
1,-0.1981354,-0.09989929,0.9750671,1.0,-0.1981354,-0.09989929,0.9750671,-32.07153,1.59845,-29.8217,3.758575,0.5510892,0.5630066,1.0,-0.1278076,0.1120911,0.9854431,32.90442,3.030014,-30.01289,5.064362,0.5049152,0.4777979999999999,0.1784224999999999,1.317023,-0.1031069999999999,-0.009009666,0.6454784,0.007818696,5.590146,-13.05,31.345516969218625
1,-0.1981354,-0.09989929,0.9750671,1.0,-0.1981354,-0.09989929,0.9750671,-32.07153,1.59845,-29.8217,3.758575,0.5510892,0.5630066,1.0,-0.1278076,0.1120911,0.9854431,32.90442,3.030014,-30.01289,5.064362,0.5049152,0.4777979999999999,0.1784224999999999,1.317023,-0.1031069999999999,-0.009009666,0.6454784,0.007818696,5.590146,-13.05,31.345516969218625
1,-0.1981354,-0.09989929,0.9750671,1.0,-0.1981354,-0.09989929,0.9750671,-32.07153,1.59845,-29.8217,3.758575,0.5510892,0.5630066,1.0,-0.1278076,0.1120911,0.9854431,32.90442,3.030014,-30.01289,5.064362,0.5049152,0.4777979999999999,0.1784224999999999,1.317023,-0.1031069999999999,-0.009009666,0.6454784,0.007818696,5.590146,-13.05,31.345516969218625
1,-0.1310883,-0.05653381,0.9897461,1.0,-0.1914062999999999,-0.08380127,0.9779205,-32.123090000000005,1.392853,-29.488570000000003,3.755035,0.5517949000000001,0.5649807,1.0,-0.009414673,-0.001571655,0.9999542,32.97768,2.839127,-29.76105,4.395432,0.4892254,0.4942275,0.1722932,1.31948,-0.1032478,-0.01010164,0.6483071,0.0097136069999999,5.590146,-13.05,31.345516969218625
1,-0.1310883,-0.05653381,0.9897461,1.0,-0.1914062999999999,-0.08380127,0.9779205,-32.123090000000005,1.392853,-29.488570000000003,3.755035,0.5517949000000001,0.5649807,1.0,-0.009414673,-0.001571655,0.9999542,32.97768,2.839127,-29.76105,4.395432,0.4892254,0.4942275,0.1722932,1.31948,-0.1032478,-0.01010164,0.6483071,0.0097136069999999,5.590146,-13.05,31.345516969218625
1,-0.1310883,-0.05653381,0.9897461,1.0,-0.1914062999999999,-0.08380127,0.9779205,-32.123090000000005,1.392853,-29.488570000000003,3.755035,0.5517949000000001,0.5649807,1.0,-0.009414673,-0.001571655,0.9999542,32.97768,2.839127,-29.76105,4.395432,0.4892254,0.4942275,0.1722932,1.31948,-0.1032478,-0.01010164,0.6483071,0.0097136069999999,5.590146,-13.05,31.345516969218625
1,-0.1379242,-0.06129456,0.9885406,1.0,-0.1781616,-0.07884216,0.980835,-32.12239,1.333801,-29.48502,3.690887000000001,0.5501229000000001,0.5662550000000001,1.0,-0.01132202,-0.006027222,0.9999084,32.984770000000005,2.786789,-29.74368,4.364197,0.4892254,0.4963498999999999,0.1680914,1.321266,-0.1033275,-0.0114784999999999,0.6498571,0.01161145,5.590146,-13.05,31.345516969218625
1,-0.1379242,-0.06129456,0.9885406,1.0,-0.1781616,-0.07884216,0.980835,-32.12239,1.333801,-29.48502,3.690887000000001,0.5501229000000001,0.5662550000000001,1.0,-0.01132202,-0.006027222,0.9999084,32.984770000000005,2.786789,-29.74368,4.364197,0.4892254,0.4963498999999999,0.1680914,1.321266,-0.1033275,-0.0114784999999999,0.6498571,0.01161145,5.590146,-13.05,31.345516969218625
1,-0.1379242,-0.06129456,0.9885406,1.0,-0.1781616,-0.07884216,0.980835,-32.12239,1.333801,-29.48502,3.690887000000001,0.5501229000000001,0.5662550000000001,1.0,-0.01132202,-0.006027222,0.9999084,32.984770000000005,2.786789,-29.74368,4.364197,0.4892254,0.4963498999999999,0.1680914,1.321266,-0.1033275,-0.0114784999999999,0.6498571,0.01161145,5.590146,-13.05,31.345516969218625
1,-0.07382202,-0.04396057,0.9962921,1.0,-0.1685637999999999,-0.08370972,0.9821167,-32.11415,1.349442,-29.49519,3.687881,0.5486762,0.5663670999999999,1.0,-0.00050354,-0.0131072999999999,0.9999084,32.990829999999995,2.788681,-29.79123,4.30748,0.4877877,0.4974492,0.1618161,1.324163,-0.1034952,-0.01362301,0.6515738,0.0151148,5.590146,-13.05,31.79
1,-0.07382202,-0.04396057,0.9962921,1.0,-0.1685637999999999,-0.08370972,0.9821167,-32.11415,1.349442,-29.49519,3.687881,0.5486762,0.5663670999999999,1.0,-0.00050354,-0.0131072999999999,0.9999084,32.990829999999995,2.788681,-29.79123,4.30748,0.4877877,0.4974492,0.1618161,1.324163,-0.1034952,-0.01362301,0.6515738,0.0151148,5.590146,-13.05,31.79
1,-0.07382202,-0.04396057,0.9962921,1.0,-0.1685637999999999,-0.08370972,0.9821167,-32.11415,1.349442,-29.49519,3.687881,0.5486762,0.5663670999999999,1.0,-0.00050354,-0.0131072999999999,0.9999084,32.990829999999995,2.788681,-29.79123,4.30748,0.4877877,0.4974492,0.1618161,1.324163,-0.1034952,-0.01362301,0.6515738,0.0151148,5.590146,-13.05,31.79
1,-0.06532288,-0.0453186,0.9968262,1.0,-0.1685027999999999,-0.08322144,0.9821777,-32.10434,1.346909,-29.52295,3.674484,0.5483406,0.5666310999999999,1.0,0.006256104,-0.01887512,0.9998016,33.004459999999995,2.788681,-29.79123,4.302963,0.4865277,0.498109,0.1552412999999999,1.327156,-0.1038739,-0.01638655,0.6531679,0.01753314,5.590146,-13.05,31.79
1,-0.06532288,-0.0453186,0.9968262,1.0,-0.1685027999999999,-0.08322144,0.9821777,-32.10434,1.346909,-29.52295,3.674484,0.5483406,0.5666310999999999,1.0,0.006256104,-0.01887512,0.9998016,33.004459999999995,2.788681,-29.79123,4.302963,0.4865277,0.498109,0.1552412999999999,1.327156,-0.1038739,-0.01638655,0.6531679,0.01753314,5.590146,-13.05,31.79
1,-0.06532288,-0.0453186,0.9968262,1.0,-0.1685027999999999,-0.08322144,0.9821777,-32.10434,1.346909,-29.52295,3.674484,0.5483406,0.5666310999999999,1.0,0.006256104,-0.01887512,0.9998016,33.004459999999995,2.788681,-29.79123,4.302963,0.4865277,0.498109,0.1552412999999999,1.327156,-0.1038739,-0.01638655,0.6531679,0.01753314,5.590146,-13.05,31.79
1,-0.06532288,-0.0453186,0.9968262,1.0,-0.1685027999999999,-0.08322144,0.9821777,-32.10434,1.346909,-29.52295,3.674484,0.5483406,0.5666310999999999,1.0,0.006256104,-0.01887512,0.9998016,33.004459999999995,2.788681,-29.79123,4.302963,0.4865277,0.498109,0.1505072,1.329189,-0.1039395,-0.0193646,0.6540076,0.01886885,5.590146,-13.05,31.79
1,-0.06532288,-0.0453186,0.9968262,1.0,-0.1685027999999999,-0.08322144,0.9821777,-32.10434,1.346909,-29.52295,3.674484,0.5483406,0.5666310999999999,1.0,0.006256104,-0.01887512,0.9998016,33.004459999999995,2.788681,-29.79123,4.302963,0.4865277,0.498109,0.1505072,1.329189,-0.1039395,-0.0193646,0.6540076,0.01886885,5.590146,-13.05,31.79
1,-0.06532288,-0.0453186,0.9968262,1.0,-0.1685027999999999,-0.08322144,0.9821777,-32.10434,1.346909,-29.52295,3.674484,0.5483406,0.5666310999999999,1.0,0.006256104,-0.01887512,0.9998016,33.004459999999995,2.788681,-29.79123,4.302963,0.4865277,0.498109,0.1505072,1.329189,-0.1039395,-0.0193646,0.6540076,0.01886885,5.590146,-13.05,31.79
1,-0.05960083,-0.04299927,0.9972839,1.0,-0.1693726,-0.07653809,0.9825592,-32.083420000000004,1.323914,-29.548540000000003,3.673187,0.5477401,0.5668474,1.0,0.0075988769999999,-0.02230835,0.9997101,33.03485,2.770828,-29.75269,4.30098,0.4853377,0.4987731999999999,0.1429386,1.332374,-0.1040117,-0.02420258,0.6543465999999999,0.02294402,5.590146,-13.05,31.79
1,-0.05960083,-0.04299927,0.9972839,1.0,-0.1693726,-0.07653809,0.9825592,-32.083420000000004,1.323914,-29.548540000000003,3.673187,0.5477401,0.5668474,1.0,0.0075988769999999,-0.02230835,0.9997101,33.03485,2.770828,-29.75269,4.30098,0.4853377,0.4987731999999999,0.1429386,1.332374,-0.1040117,-0.02420258,0.6543465999999999,0.02294402,5.590146,-13.05,31.79
1,-0.05960083,-0.04299927,0.9972839,1.0,-0.1693726,-0.07653809,0.9825592,-32.083420000000004,1.323914,-29.548540000000003,3.673187,0.5477401,0.5668474,1.0,0.0075988769999999,-0.02230835,0.9997101,33.03485,2.770828,-29.75269,4.30098,0.4853377,0.4987731999999999,0.1429386,1.332374,-0.1040117,-0.02420258,0.6543465999999999,0.02294402,5.590146,-13.05,31.79
1,-1.0,-1.0,-1.0,1.0,0.0,0.0,0.0,-31.19402,2.491165,-31.15945,-1.0,0.506905,0.5265848000000001,1.0,0.0,0.0,0.0,33.54204,3.86322,-30.8582,-1.0,0.4606146,0.4511455,0.1352777,1.335677,-0.10397,-0.02783979,0.6536430999999999,0.02857045,5.590146,-1.087551,31.79
1,-1.0,-1.0,-1.0,1.0,0.0,0.0,0.0,-31.19402,2.491165,-31.15945,-1.0,0.506905,0.5265848000000001,1.0,0.0,0.0,0.0,33.54204,3.86322,-30.8582,-1.0,0.4606146,0.4511455,0.1352777,1.335677,-0.10397,-0.02783979,0.6536430999999999,0.02857045,5.590146,-1.087551,31.79
1,-1.0,-1.0,-1.0,1.0,0.0,0.0,0.0,-31.19402,2.491165,-31.15945,-1.0,0.506905,0.5265848000000001,1.0,0.0,0.0,0.0,33.54204,3.86322,-30.8582,-1.0,0.4606146,0.4511455,0.1352777,1.335677,-0.10397,-0.02783979,0.6536430999999999,0.02857045,5.590146,-1.087551,31.79
1,0.07009888,0.1383362,0.9878845,0.9814726,-0.02005005,0.1076202,0.993988,-31.28339,2.35466,-31.26913,4.150757,0.5033455,0.5250862,0.9728742,0.07061768,0.1385193,0.9878235,33.62457,3.49585,-30.298140000000004,4.535843,0.4576668,0.4598695,0.1243222,1.339266,-0.1041078999999999,-0.03072694,0.6525251999999999,0.03341328,5.590146,-1.087551,31.79
1,0.07009888,0.1383362,0.9878845,0.9814726,-0.02005005,0.1076202,0.993988,-31.28339,2.35466,-31.26913,4.150757,0.5033455,0.5250862,0.9728742,0.07061768,0.1385193,0.9878235,33.62457,3.49585,-30.298140000000004,4.535843,0.4576668,0.4598695,0.1243222,1.339266,-0.1041078999999999,-0.03072694,0.6525251999999999,0.03341328,5.590146,-1.087551,31.79
1,0.07009888,0.1383362,0.9878845,0.9814726,-0.02005005,0.1076202,0.993988,-31.28339,2.35466,-31.26913,4.150757,0.5033455,0.5250862,0.9728742,0.07061768,0.1385193,0.9878235,33.62457,3.49585,-30.298140000000004,4.535843,0.4576668,0.4598695,0.1243222,1.339266,-0.1041078999999999,-0.03072694,0.6525251999999999,0.03341328,5.590146,-1.087551,31.79
1,-0.05230713,-0.004516602,0.9986115,1.0,-0.05453491,-0.006011963,0.9984894,-31.36275,1.957443,-30.82906,3.601288,0.5095304,0.5478357,1.0,0.09065247,0.09056091,0.991745,33.64261,3.161972,-29.65617,4.320068,0.4550846999999999,0.4711374,0.1158864,1.341144,-0.1044529,-0.03370158,0.6524658,0.03532244,5.590146,-1.087551,31.79
1,-0.05230713,-0.004516602,0.9986115,1.0,-0.05453491,-0.006011963,0.9984894,-31.36275,1.957443,-30.82906,3.601288,0.5095304,0.5478357,1.0,0.09065247,0.09056091,0.991745,33.64261,3.161972,-29.65617,4.320068,0.4550846999999999,0.4711374,0.1158864,1.341144,-0.1044529,-0.03370158,0.6524658,0.03532244,5.590146,-1.087551,31.79
1,-0.05230713,-0.004516602,0.9986115,1.0,-0.05453491,-0.006011963,0.9984894,-31.36275,1.957443,-30.82906,3.601288,0.5095304,0.5478357,1.0,0.09065247,0.09056091,0.991745,33.64261,3.161972,-29.65617,4.320068,0.4550846999999999,0.4711374,0.1158864,1.341144,-0.1044529,-0.03370158,0.6524658,0.03532244,5.590146,-1.087551,31.79
1,-0.07173157,0.03134155,0.9969177,1.0,-0.074646,0.03034973,0.9967346,-31.404740000000004,1.859543,-30.67155,3.833557,0.5135468,0.5456546999999999,1.0,0.08528137,0.08360291,0.9928284,33.618790000000004,2.998444,-29.36368,4.355652,0.4566096999999999,0.4750707,0.1103985,1.342343,-0.1047678999999999,-0.03686261,0.653091,0.03701711,5.590146,-1.087551,31.79
1,-0.07173157,0.03134155,0.9969177,1.0,-0.074646,0.03034973,0.9967346,-31.404740000000004,1.859543,-30.67155,3.833557,0.5135468,0.5456546999999999,1.0,0.08528137,0.08360291,0.9928284,33.618790000000004,2.998444,-29.36368,4.355652,0.4566096999999999,0.4750707,0.1103985,1.342343,-0.1047678999999999,-0.03686261,0.653091,0.03701711,5.590146,-1.087551,31.79
1,-0.07173157,0.03134155,0.9969177,1.0,-0.074646,0.03034973,0.9967346,-31.404740000000004,1.859543,-30.67155,3.833557,0.5135468,0.5456546999999999,1.0,0.08528137,0.08360291,0.9928284,33.618790000000004,2.998444,-29.36368,4.355652,0.4566096999999999,0.4750707,0.1103985,1.342343,-0.1047678999999999,-0.03686261,0.653091,0.03701711,5.590146,-1.087551,31.79
1,0.0302887,0.06712341,0.9972687,1.0,-0.08296204,0.01530457,0.9964294,-31.46272,1.82869,-30.435990000000004,3.841934,0.5164601,0.5463909,1.0,0.08761597,0.0930481,0.9917908,33.60541,3.003174,-29.38135,4.427734,0.4567319,0.4740451,0.09711242,1.345145,-0.1056821,-0.04478159,0.6557474,0.04373534,5.590146,13.83356,31.79
1,0.0302887,0.06712341,0.9972687,1.0,-0.08296204,0.01530457,0.9964294,-31.46272,1.82869,-30.435990000000004,3.841934,0.5164601,0.5463909,1.0,0.08761597,0.0930481,0.9917908,33.60541,3.003174,-29.38135,4.427734,0.4567319,0.4740451,0.09711242,1.345145,-0.1056821,-0.04478159,0.6557474,0.04373534,5.590146,13.83356,31.79
1,0.0302887,0.06712341,0.9972687,1.0,-0.08296204,0.01530457,0.9964294,-31.46272,1.82869,-30.435990000000004,3.841934,0.5164601,0.5463909,1.0,0.08761597,0.0930481,0.9917908,33.60541,3.003174,-29.38135,4.427734,0.4567319,0.4740451,0.09711242,1.345145,-0.1056821,-0.04478159,0.6557474,0.04373534,5.590146,13.83356,31.79
1,-0.06234741,0.01171875,0.9979706,1.0,-0.07600403,0.01016235,0.9970551,-31.46796,1.796371,-30.39397,3.774231,0.5157295,0.5476394,1.0,0.0927123999999999,0.02915955,0.9952545,33.651540000000004,2.708771,-28.98592,4.328705,0.4547264,0.4879491,0.09220672,1.346049,-0.1059526,-0.04702203,0.6567755,0.04665825,5.590146,13.83356,31.79
1,-0.06234741,0.01171875,0.9979706,1.0,-0.07600403,0.01016235,0.9970551,-31.46796,1.796371,-30.39397,3.774231,0.5157295,0.5476394,1.0,0.0927123999999999,0.02915955,0.9952545,33.651540000000004,2.708771,-28.98592,4.328705,0.4547264,0.4879491,0.09220672,1.346049,-0.1059526,-0.04702203,0.6567755,0.04665825,5.590146,13.83356,31.79
1,-0.06234741,0.01171875,0.9979706,1.0,-0.07600403,0.01016235,0.9970551,-31.46796,1.796371,-30.39397,3.774231,0.5157295,0.5476394,1.0,0.0927123999999999,0.02915955,0.9952545,33.651540000000004,2.708771,-28.98592,4.328705,0.4547264,0.4879491,0.09220672,1.346049,-0.1059526,-0.04702203,0.6567755,0.04665825,5.590146,13.83356,31.79
1,-0.0670929,0.002380371,0.9977417,1.0,-0.07452393,0.001449585,0.9972076,-31.46645,1.790131,-30.38168,3.723526,0.5154513,0.5487419,1.0,0.09744263,0.02310181,0.9949646,33.65691,2.702759,-29.00342,4.310181,0.4539889,0.4889842,0.08735347,1.346717,-0.1060538999999999,-0.04856611,0.6581541999999999,0.04836088,5.590146,13.83356,31.79
1,-0.0670929,0.002380371,0.9977417,1.0,-0.07452393,0.001449585,0.9972076,-31.46645,1.790131,-30.38168,3.723526,0.5154513,0.5487419,1.0,0.09744263,0.02310181,0.9949646,33.65691,2.702759,-29.00342,4.310181,0.4539889,0.4889842,0.08735347,1.346717,-0.1060538999999999,-0.04856611,0.6581541999999999,0.04836088,5.590146,13.83356,31.79
1,-0.0670929,0.002380371,0.9977417,1.0,-0.07452393,0.001449585,0.9972076,-31.46645,1.790131,-30.38168,3.723526,0.5154513,0.5487419,1.0,0.09744263,0.02310181,0.9949646,33.65691,2.702759,-29.00342,4.310181,0.4539889,0.4889842,0.08735347,1.346717,-0.1060538999999999,-0.04856611,0.6581541999999999,0.04836088,5.590146,13.83356,31.79
1,-0.04794312,-0.03308105,0.998291,1.0,-0.0526885999999999,-0.0344695999999999,0.9980011,-31.42456,1.573303,-30.30832,3.70311,0.5112668,0.559845,1.0,0.1064758,0.0120697,0.9942322,33.682559999999995,2.581314,-28.82735,4.178543,0.4522103,0.4927324,0.07743359,1.347511,-0.1059924,-0.05053166,0.6605158,0.04957242,5.544015,13.83356,31.79
1,-0.04794312,-0.03308105,0.998291,1.0,-0.0526885999999999,-0.0344695999999999,0.9980011,-31.42456,1.573303,-30.30832,3.70311,0.5112668,0.559845,1.0,0.1064758,0.0120697,0.9942322,33.682559999999995,2.581314,-28.82735,4.178543,0.4522103,0.4927324,0.07743359,1.347511,-0.1059924,-0.05053166,0.6605158,0.04957242,5.544015,13.83356,31.79
1,-0.04794312,-0.03308105,0.998291,1.0,-0.0526885999999999,-0.0344695999999999,0.9980011,-31.42456,1.573303,-30.30832,3.70311,0.5112668,0.559845,1.0,0.1064758,0.0120697,0.9942322,33.682559999999995,2.581314,-28.82735,4.178543,0.4522103,0.4927324,0.07743359,1.347511,-0.1059924,-0.05053166,0.6605158,0.04957242,5.544015,13.83356,31.79
1,-0.04794312,-0.03308105,0.998291,1.0,-0.0526885999999999,-0.0344695999999999,0.9980011,-31.42456,1.573303,-30.30832,3.70311,0.5112668,0.559845,1.0,0.1064758,0.0120697,0.9942322,33.682559999999995,2.581314,-28.82735,4.178543,0.4522103,0.4927324,0.06359601,1.3475629999999998,-0.1061631,-0.0526965,0.6620699000000001,0.04986658,5.544015,13.83356,31.79
1,-0.04794312,-0.03308105,0.998291,1.0,-0.0526885999999999,-0.0344695999999999,0.9980011,-31.42456,1.573303,-30.30832,3.70311,0.5112668,0.559845,1.0,0.1064758,0.0120697,0.9942322,33.682559999999995,2.581314,-28.82735,4.178543,0.4522103,0.4927324,0.06359601,1.3475629999999998,-0.1061631,-0.0526965,0.6620699000000001,0.04986658,5.544015,13.83356,31.79
1,-0.04794312,-0.03308105,0.998291,1.0,-0.0526885999999999,-0.0344695999999999,0.9980011,-31.42456,1.573303,-30.30832,3.70311,0.5112668,0.559845,1.0,0.1064758,0.0120697,0.9942322,33.682559999999995,2.581314,-28.82735,4.178543,0.4522103,0.4927324,0.06359601,1.3475629999999998,-0.1061631,-0.0526965,0.6620699000000001,0.04986658,5.544015,13.83356,31.79
1,-0.01730347,-0.04776001,0.998703,1.0,-0.05081177,-0.05267334,0.9973145,-31.42171,1.496109,-30.18448,3.691498,0.5108649000000001,0.5635394,1.0,0.1251373,-0.02633667,0.9917755,33.694,2.506607,-28.83331,4.024689,0.4496702999999999,0.4996729,0.05613685,1.347243,-0.1055332,-0.05304759,0.6628869000000001,0.05124664,5.544015,13.83356,31.79
1,-0.01730347,-0.04776001,0.998703,1.0,-0.05081177,-0.05267334,0.9973145,-31.42171,1.496109,-30.18448,3.691498,0.5108649000000001,0.5635394,1.0,0.1251373,-0.02633667,0.9917755,33.694,2.506607,-28.83331,4.024689,0.4496702999999999,0.4996729,0.05613685,1.347243,-0.1055332,-0.05304759,0.6628869000000001,0.05124664,5.544015,13.83356,31.79
1,-0.01730347,-0.04776001,0.998703,1.0,-0.05081177,-0.05267334,0.9973145,-31.42171,1.496109,-30.18448,3.691498,0.5108649000000001,0.5635394,1.0,0.1251373,-0.02633667,0.9917755,33.694,2.506607,-28.83331,4.024689,0.4496702999999999,0.4996729,0.05613685,1.347243,-0.1055332,-0.05304759,0.6628869000000001,0.05124664,5.544015,13.83356,31.79
2,-0.01730347,-0.04776001,0.998703,1.0,-0.05081177,-0.05267334,0.9973145,-31.42171,1.496109,-30.18448,3.691498,0.5108649000000001,0.5635394,1.0,0.1251373,-0.02633667,0.9917755,33.694,2.506607,-28.83331,4.024689,0.4496702999999999,0.4996729,0.04874945,1.346854,-0.1047972,-0.05203161,0.6630651999999999,0.05407137,5.544015,17.10509,31.79
2,-0.01730347,-0.04776001,0.998703,1.0,-0.05081177,-0.05267334,0.9973145,-31.42171,1.496109,-30.18448,3.691498,0.5108649000000001,0.5635394,1.0,0.1251373,-0.02633667,0.9917755,33.694,2.506607,-28.83331,4.024689,0.4496702999999999,0.4996729,0.04874945,1.346854,-0.1047972,-0.05203161,0.6630651999999999,0.05407137,5.544015,17.10509,31.79
2,-0.01730347,-0.04776001,0.998703,1.0,-0.05081177,-0.05267334,0.9973145,-31.42171,1.496109,-30.18448,3.691498,0.5108649000000001,0.5635394,1.0,0.1251373,-0.02633667,0.9917755,33.694,2.506607,-28.83331,4.024689,0.4496702999999999,0.4996729,0.04874945,1.346854,-0.1047972,-0.05203161,0.6630651999999999,0.05407137,5.544015,17.10509,31.79
2,0.0141448999999999,-0.06164551,0.9979858,1.0,-0.06651306,-0.08966064,0.9937439,-31.42227,1.443298,-30.11591,3.611801,0.5126670999999999,0.5692028,1.0,0.1163329999999999,-0.02546692,0.9928741,33.699020000000004,2.489334,-28.81967,4.076126,0.450507,0.5000758,0.04117894,1.346172,-0.1039614,-0.05254691,0.6625886999999999,0.05655987,5.544015,17.10509,31.79
2,0.0141448999999999,-0.06164551,0.9979858,1.0,-0.06651306,-0.08966064,0.9937439,-31.42227,1.443298,-30.11591,3.611801,0.5126670999999999,0.5692028,1.0,0.1163329999999999,-0.02546692,0.9928741,33.699020000000004,2.489334,-28.81967,4.076126,0.450507,0.5000758,0.04117894,1.346172,-0.1039614,-0.05254691,0.6625886999999999,0.05655987,5.544015,17.10509,31.79
2,0.0141448999999999,-0.06164551,0.9979858,1.0,-0.06651306,-0.08966064,0.9937439,-31.42227,1.443298,-30.11591,3.611801,0.5126670999999999,0.5692028,1.0,0.1163329999999999,-0.02546692,0.9928741,33.699020000000004,2.489334,-28.81967,4.076126,0.450507,0.5000758,0.04117894,1.346172,-0.1039614,-0.05254691,0.6625886999999999,0.05655987,5.544015,17.10509,31.79
2,0.1123505,-0.07060242,0.9911499,1.0,-0.03529358,-0.06523132,0.9972382,-31.317870000000003,1.480484,-30.39368,3.700317,0.5054619,0.5675571,1.0,0.1171265,-0.070755,0.9905853,33.77406,2.3218080000000003,-28.525270000000003,4.013336,0.4479965,0.5084679,0.03362393,1.345225,-0.1031293999999999,-0.0541821,0.6621302,0.05882757,5.544015,17.10509,31.79
2,0.1123505,-0.07060242,0.9911499,1.0,-0.03529358,-0.06523132,0.9972382,-31.317870000000003,1.480484,-30.39368,3.700317,0.5054619,0.5675571,1.0,0.1171265,-0.070755,0.9905853,33.77406,2.3218080000000003,-28.525270000000003,4.013336,0.4479965,0.5084679,0.03362393,1.345225,-0.1031293999999999,-0.0541821,0.6621302,0.05882757,5.544015,17.10509,31.79
2,0.1123505,-0.07060242,0.9911499,1.0,-0.03529358,-0.06523132,0.9972382,-31.317870000000003,1.480484,-30.39368,3.700317,0.5054619,0.5675571,1.0,0.1171265,-0.070755,0.9905853,33.77406,2.3218080000000003,-28.525270000000003,4.013336,0.4479965,0.5084679,0.03362393,1.345225,-0.1031293999999999,-0.0541821,0.6621302,0.05882757,5.544015,17.10509,31.79
2,0.1589203,-0.01081848,0.9872284,1.0,-0.02589417,-0.01904297,0.9994812,-31.17714,1.64183,-30.3589,3.714233,0.4995011,0.5559987,1.0,0.1635284,-0.01062012,0.9864655,33.82977,2.636871,-28.93279,4.219069999999999,0.4403904999999999,0.4944092,0.02511716,1.3441530000000002,-0.1027308,-0.05661892,0.6611633000000001,0.06190145,5.544015,17.10509,31.79
2,0.1589203,-0.01081848,0.9872284,1.0,-0.02589417,-0.01904297,0.9994812,-31.17714,1.64183,-30.3589,3.714233,0.4995011,0.5559987,1.0,0.1635284,-0.01062012,0.9864655,33.82977,2.636871,-28.93279,4.219069999999999,0.4403904999999999,0.4944092,0.02511716,1.3441530000000002,-0.1027308,-0.05661892,0.6611633000000001,0.06190145,5.544015,17.10509,31.79
2,0.1589203,-0.01081848,0.9872284,1.0,-0.02589417,-0.01904297,0.9994812,-31.17714,1.64183,-30.3589,3.714233,0.4995011,0.5559987,1.0,0.1635284,-0.01062012,0.9864655,33.82977,2.636871,-28.93279,4.219069999999999,0.4403904999999999,0.4944092,0.02511716,1.3441530000000002,-0.1027308,-0.05661892,0.6611633000000001,0.06190145,5.544015,17.10509,31.79
2,0.1589203,-0.01081848,0.9872284,1.0,-0.02589417,-0.01904297,0.9994812,-31.17714,1.64183,-30.3589,3.714233,0.4995011,0.5559987,1.0,0.1635284,-0.01062012,0.9864655,33.82977,2.636871,-28.93279,4.219069999999999,0.4403904999999999,0.4944092,0.01724029,1.343557,-0.1020208,-0.05760594,0.6597263000000001,0.06455281,5.544015,9.243135,31.79
2,0.1589203,-0.01081848,0.9872284,1.0,-0.02589417,-0.01904297,0.9994812,-31.17714,1.64183,-30.3589,3.714233,0.4995011,0.5559987,1.0,0.1635284,-0.01062012,0.9864655,33.82977,2.636871,-28.93279,4.219069999999999,0.4403904999999999,0.4944092,0.01724029,1.343557,-0.1020208,-0.05760594,0.6597263000000001,0.06455281,5.544015,9.243135,31.79
2,0.1589203,-0.01081848,0.9872284,1.0,-0.02589417,-0.01904297,0.9994812,-31.17714,1.64183,-30.3589,3.714233,0.4995011,0.5559987,1.0,0.1635284,-0.01062012,0.9864655,33.82977,2.636871,-28.93279,4.219069999999999,0.4403904999999999,0.4944092,0.01724029,1.343557,-0.1020208,-0.05760594,0.6597263000000001,0.06455281,5.544015,9.243135,31.79
2,0.1051331,0.1732635,0.9792328,0.926621,0.01713562,0.1400298999999999,0.9899902,-30.88393,2.7348790000000003,-32.54694,4.169341999999999,0.4852607,0.5196402,0.9758989,0.1051331,0.1732635,0.9792328,33.9603,3.495392,-29.97369,4.702698000000001,0.4421776,0.4532075,0.0005028248,1.341924,-0.1009437,-0.05772739,0.6567105999999999,0.06729773,5.544015,9.243135,31.79
2,0.1051331,0.1732635,0.9792328,0.926621,0.01713562,0.1400298999999999,0.9899902,-30.88393,2.7348790000000003,-32.54694,4.169341999999999,0.4852607,0.5196402,0.9758989,0.1051331,0.1732635,0.9792328,33.9603,3.495392,-29.97369,4.702698000000001,0.4421776,0.4532075,0.0005028248,1.341924,-0.1009437,-0.05772739,0.6567105999999999,0.06729773,5.544015,9.243135,31.79
2,0.1051331,0.1732635,0.9792328,0.926621,0.01713562,0.1400298999999999,0.9899902,-30.88393,2.7348790000000003,-32.54694,4.169341999999999,0.4852607,0.5196402,0.9758989,0.1051331,0.1732635,0.9792328,33.9603,3.495392,-29.97369,4.702698000000001,0.4421776,0.4532075,0.0005028248,1.341924,-0.1009437,-0.05772739,0.6567105999999999,0.06729773,5.544015,9.243135,31.79
2,0.1609802,0.1238251,0.9791565,0.926621,0.03686523,0.1429137999999999,0.9890442,-30.89258,2.720871,-32.5345,4.211029,0.4832117999999999,0.5197319,0.9758989,0.1609802,0.1238251,0.9791565,33.996,3.389511,-29.80409,4.503189,0.4345455,0.460869,-0.008189201,1.34116,-0.100729,-0.05820815,0.6554426999999999,0.06855968,5.544015,9.243135,31.79
2,0.1609802,0.1238251,0.9791565,0.926621,0.03686523,0.1429137999999999,0.9890442,-30.89258,2.720871,-32.5345,4.211029,0.4832117999999999,0.5197319,0.9758989,0.1609802,0.1238251,0.9791565,33.996,3.389511,-29.80409,4.503189,0.4345455,0.460869,-0.008189201,1.34116,-0.100729,-0.05820815,0.6554426999999999,0.06855968,5.544015,9.243135,31.79
2,0.1609802,0.1238251,0.9791565,0.926621,0.03686523,0.1429137999999999,0.9890442,-30.89258,2.720871,-32.5345,4.211029,0.4832117999999999,0.5197319,0.9758989,0.1609802,0.1238251,0.9791565,33.996,3.389511,-29.80409,4.503189,0.4345455,0.460869,-0.008189201,1.34116,-0.100729,-0.05820815,0.6554426999999999,0.06855968,5.544015,9.243135,31.79
2,0.1752013999999999,0.08163452,0.9811401,0.9536576,0.009277344,0.1014708999999999,0.9947815,-31.18355,2.003845,-30.6559,4.106979,0.496075,0.5322831,0.9831346,0.1752013999999999,0.08163452,0.9811401,33.931670000000004,3.036835,-29.40219,4.448502,0.4352616,0.4743274999999999,-0.01695514,1.340534,-0.1006736999999999,-0.05976211,0.6545221999999999,0.07077426,5.544015,9.243135,31.79
2,0.1752013999999999,0.08163452,0.9811401,0.9536576,0.009277344,0.1014708999999999,0.9947815,-31.18355,2.003845,-30.6559,4.106979,0.496075,0.5322831,0.9831346,0.1752013999999999,0.08163452,0.9811401,33.931670000000004,3.036835,-29.40219,4.448502,0.4352616,0.4743274999999999,-0.01695514,1.340534,-0.1006736999999999,-0.05976211,0.6545221999999999,0.07077426,5.544015,9.243135,31.79
2,0.1752013999999999,0.08163452,0.9811401,0.9536576,0.009277344,0.1014708999999999,0.9947815,-31.18355,2.003845,-30.6559,4.106979,0.496075,0.5322831,0.9831346,0.1752013999999999,0.08163452,0.9811401,33.931670000000004,3.036835,-29.40219,4.448502,0.4352616,0.4743274999999999,-0.01695514,1.340534,-0.1006736999999999,-0.05976211,0.6545221999999999,0.07077426,5.544015,9.243135,31.79
2,0.1570282,0.0765686,0.9846191,0.9402038,-0.008300781,0.03305054,0.9994049,-31.23251,1.890671,-30.35875,3.884293,0.4995339,0.5413201,0.9889868,0.1633911,0.07823181,0.9834442,33.92017,3.032928,-29.36342,4.42215,0.4370947,0.4744869,-0.02580857,1.340031,-0.1008092,-0.06105206,0.6542816,0.0733635,5.544015,9.243135,31.79
2,0.1570282,0.0765686,0.9846191,0.9402038,-0.008300781,0.03305054,0.9994049,-31.23251,1.890671,-30.35875,3.884293,0.4995339,0.5413201,0.9889868,0.1633911,0.07823181,0.9834442,33.92017,3.032928,-29.36342,4.42215,0.4370947,0.4744869,-0.02580857,1.340031,-0.1008092,-0.06105206,0.6542816,0.0733635,5.544015,9.243135,31.79
2,0.1570282,0.0765686,0.9846191,0.9402038,-0.008300781,0.03305054,0.9994049,-31.23251,1.890671,-30.35875,3.884293,0.4995339,0.5413201,0.9889868,0.1633911,0.07823181,0.9834442,33.92017,3.032928,-29.36342,4.42215,0.4370947,0.4744869,-0.02580857,1.340031,-0.1008092,-0.06105206,0.6542816,0.0733635,5.544015,9.243135,31.79
2,0.144989,0.05532837,0.9878845,0.9521078000000002,-0.01072693,0.02862549,0.999527,-31.26546,1.844559,-30.261440000000004,3.833206,0.500883,0.5424939999999999,0.9772986,0.1554718,0.05709839,0.9861755,33.90356,3.021042,-29.30725,4.436447,0.4386127999999999,0.476896,-0.03479934,1.3392700000000002,-0.1012408,-0.0619071,0.6545171,0.07543235,5.544015,-10.52332,31.79
2,0.144989,0.05532837,0.9878845,0.9521078000000002,-0.01072693,0.02862549,0.999527,-31.26546,1.844559,-30.261440000000004,3.833206,0.500883,0.5424939999999999,0.9772986,0.1554718,0.05709839,0.9861755,33.90356,3.021042,-29.30725,4.436447,0.4386127999999999,0.476896,-0.03479934,1.3392700000000002,-0.1012408,-0.0619071,0.6545171,0.07543235,5.544015,-10.52332,31.79
2,0.144989,0.05532837,0.9878845,0.9521078000000002,-0.01072693,0.02862549,0.999527,-31.26546,1.844559,-30.261440000000004,3.833206,0.500883,0.5424939999999999,0.9772986,0.1554718,0.05709839,0.9861755,33.90356,3.021042,-29.30725,4.436447,0.4386127999999999,0.476896,-0.03479934,1.3392700000000002,-0.1012408,-0.0619071,0.6545171,0.07543235,5.544015,-10.52332,31.79
2,0.1223906999999999,0.05389404,0.9910126,0.9625868,-0.0196228,0.01631165,0.9996643,-31.28564,1.7735900000000002,-30.10268,3.812683,0.5025627,0.544944,0.9882315,0.1561583999999999,0.0627594,0.985733,33.87807,2.957642,-29.19887,4.443344000000001,0.4394547,0.4774779999999999,-0.04391241,1.33819,-0.1018293,-0.06209733,0.6550090000000001,0.07675078,5.544015,-10.52332,31.79
2,0.1223906999999999,0.05389404,0.9910126,0.9625868,-0.0196228,0.01631165,0.9996643,-31.28564,1.7735900000000002,-30.10268,3.812683,0.5025627,0.544944,0.9882315,0.1561583999999999,0.0627594,0.985733,33.87807,2.957642,-29.19887,4.443344000000001,0.4394547,0.4774779999999999,-0.04391241,1.33819,-0.1018293,-0.06209733,0.6550090000000001,0.07675078,5.544015,-10.52332,31.79
2,0.1223906999999999,0.05389404,0.9910126,0.9625868,-0.0196228,0.01631165,0.9996643,-31.28564,1.7735900000000002,-30.10268,3.812683,0.5025627,0.544944,0.9882315,0.1561583999999999,0.0627594,0.985733,33.87807,2.957642,-29.19887,4.443344000000001,0.4394547,0.4774779999999999,-0.04391241,1.33819,-0.1018293,-0.06209733,0.6550090000000001,0.07675078,5.544015,-10.52332,31.79
2,0.1192168999999999,0.05955505,0.9910736,0.9539901,-0.0213623,0.0219574,0.999527,-31.29663,1.744614,-30.06718,3.815964,0.5031424,0.544944,0.9905205,0.1544037,0.06887817,0.9855957,33.87024,2.909912,-29.15959,4.448074,0.4399414000000001,0.4780576,-0.05286551,1.33702,-0.1024398999999999,-0.06216688,0.6554544,0.07700373,5.544015,-10.52332,31.79
2,0.1192168999999999,0.05955505,0.9910736,0.9539901,-0.0213623,0.0219574,0.999527,-31.29663,1.744614,-30.06718,3.815964,0.5031424,0.544944,0.9905205,0.1544037,0.06887817,0.9855957,33.87024,2.909912,-29.15959,4.448074,0.4399414000000001,0.4780576,-0.05286551,1.33702,-0.1024398999999999,-0.06216688,0.6554544,0.07700373,5.544015,-10.52332,31.79
2,0.1192168999999999,0.05955505,0.9910736,0.9539901,-0.0213623,0.0219574,0.999527,-31.29663,1.744614,-30.06718,3.815964,0.5031424,0.544944,0.9905205,0.1544037,0.06887817,0.9855957,33.87024,2.909912,-29.15959,4.448074,0.4399414000000001,0.4780576,-0.05286551,1.33702,-0.1024398999999999,-0.06216688,0.6554544,0.07700373,5.544015,-10.52332,31.79
2,0.1111298,0.06297302,0.991806,0.9539901,-0.02105713,0.01564026,0.999649,-31.30382,1.728943,-30.04669,3.805283,0.5033324,0.5460425,0.9905205,0.1534729,0.07801819,0.9850616,33.86458,2.880783,-29.15959,4.514983999999999,0.4401989,0.4780576,-0.06175017,1.335925,-0.1031633,-0.06328696,0.6557093,0.0776539,5.544015,-10.52332,31.79
2,0.1111298,0.06297302,0.991806,0.9539901,-0.02105713,0.01564026,0.999649,-31.30382,1.728943,-30.04669,3.805283,0.5033324,0.5460425,0.9905205,0.1534729,0.07801819,0.9850616,33.86458,2.880783,-29.15959,4.514983999999999,0.4401989,0.4780576,-0.06175017,1.335925,-0.1031633,-0.06328696,0.6557093,0.0776539,5.544015,-10.52332,31.79
2,0.1111298,0.06297302,0.991806,0.9539901,-0.02105713,0.01564026,0.999649,-31.30382,1.728943,-30.04669,3.805283,0.5033324,0.5460425,0.9905205,0.1534729,0.07801819,0.9850616,33.86458,2.880783,-29.15959,4.514983999999999,0.4401989,0.4780576,-0.06175017,1.335925,-0.1031633,-0.06328696,0.6557093,0.0776539,5.544015,-10.52332,31.79
2,0.1111298,0.06297302,0.991806,0.9539901,-0.02105713,0.01564026,0.999649,-31.30382,1.728943,-30.04669,3.805283,0.5033324,0.5460425,0.9905205,0.1534729,0.07801819,0.9850616,33.86458,2.880783,-29.15959,4.514983999999999,0.4401989,0.4780576,-0.07051253,1.334843,-0.1040071,-0.06436585,0.6561223,0.07987621,5.544015,-32.12428,31.79
2,0.1111298,0.06297302,0.991806,0.9539901,-0.02105713,0.01564026,0.999649,-31.30382,1.728943,-30.04669,3.805283,0.5033324,0.5460425,0.9905205,0.1534729,0.07801819,0.9850616,33.86458,2.880783,-29.15959,4.514983999999999,0.4401989,0.4780576,-0.07051253,1.334843,-0.1040071,-0.06436585,0.6561223,0.07987621,5.544015,-32.12428,31.79
2,0.1111298,0.06297302,0.991806,0.9539901,-0.02105713,0.01564026,0.999649,-31.30382,1.728943,-30.04669,3.805283,0.5033324,0.5460425,0.9905205,0.1534729,0.07801819,0.9850616,33.86458,2.880783,-29.15959,4.514983999999999,0.4401989,0.4780576,-0.07051253,1.334843,-0.1040071,-0.06436585,0.6561223,0.07987621,5.544015,-32.12428,31.79
2,-0.006164551,0.0149231,0.9998627,0.9591398,-0.04006958,0.01022339,0.9991302,-31.40251,1.581787,-30.09096,3.834198,0.5090376,0.5522421999999999,0.9928059,0.1444855,0.03562927,0.9888611,33.78572,2.624466,-28.85854,4.61264,0.4439723,0.4891916,-0.07883167,1.333736,-0.1046336,-0.06599552,0.6563205,0.08224275,5.544015,-32.12428,31.79
2,-0.006164551,0.0149231,0.9998627,0.9591398,-0.04006958,0.01022339,0.9991302,-31.40251,1.581787,-30.09096,3.834198,0.5090376,0.5522421999999999,0.9928059,0.1444855,0.03562927,0.9888611,33.78572,2.624466,-28.85854,4.61264,0.4439723,0.4891916,-0.07883167,1.333736,-0.1046336,-0.06599552,0.6563205,0.08224275,5.544015,-32.12428,31.79
2,-0.006164551,0.0149231,0.9998627,0.9591398,-0.04006958,0.01022339,0.9991302,-31.40251,1.581787,-30.09096,3.834198,0.5090376,0.5522421999999999,0.9928059,0.1444855,0.03562927,0.9888611,33.78572,2.624466,-28.85854,4.61264,0.4439723,0.4891916,-0.07883167,1.333736,-0.1046336,-0.06599552,0.6563205,0.08224275,5.544015,-32.12428,31.79
2,-0.0234375,0.004486084,0.9997101,1.0,-0.04438782,0.0082244869999999,0.9989777,-31.40198,1.558868,-30.11604,3.905411,0.5095983000000001,0.5535803,1.0,0.1164856,-0.02050781,0.9929657,33.76573,2.493912,-28.67101,4.255768,0.4482,0.4981929,-0.0870204,1.332242,-0.1052333,-0.06706195,0.6561255,0.08445404,5.544015,-32.12428,31.79
2,-0.0234375,0.004486084,0.9997101,1.0,-0.04438782,0.0082244869999999,0.9989777,-31.40198,1.558868,-30.11604,3.905411,0.5095983000000001,0.5535803,1.0,0.1164856,-0.02050781,0.9929657,33.76573,2.493912,-28.67101,4.255768,0.4482,0.4981929,-0.0870204,1.332242,-0.1052333,-0.06706195,0.6561255,0.08445404,5.544015,-32.12428,31.79
2,-0.0234375,0.004486084,0.9997101,1.0,-0.04438782,0.0082244869999999,0.9989777,-31.40198,1.558868,-30.11604,3.905411,0.5095983000000001,0.5535803,1.0,0.1164856,-0.02050781,0.9929657,33.76573,2.493912,-28.67101,4.255768,0.4482,0.4981929,-0.0870204,1.332242,-0.1052333,-0.06706195,0.6561255,0.08445404,5.544015,-32.12428,31.79
2,-0.00479126,-0.00479126,0.9999695,1.0,-0.04914856,-0.0020294189999999,0.9987793,-31.40251,1.550262,-30.09691,3.889938,0.5101589,0.5549185000000001,1.0,0.1231537,-0.01271057,0.9922943,33.76614,2.488739,-28.67967,4.362869,0.4473312,0.4976327,-0.09465742,1.330503,-0.1055206999999999,-0.06769077,0.65508,0.08584091,5.544015,-32.12428,31.79
2,-0.00479126,-0.00479126,0.9999695,1.0,-0.04914856,-0.0020294189999999,0.9987793,-31.40251,1.550262,-30.09691,3.889938,0.5101589,0.5549185000000001,1.0,0.1231537,-0.01271057,0.9922943,33.76614,2.488739,-28.67967,4.362869,0.4473312,0.4976327,-0.09465742,1.330503,-0.1055206999999999,-0.06769077,0.65508,0.08584091,5.544015,-32.12428,31.79
2,-0.00479126,-0.00479126,0.9999695,1.0,-0.04914856,-0.0020294189999999,0.9987793,-31.40251,1.550262,-30.09691,3.889938,0.5101589,0.5549185000000001,1.0,0.1231537,-0.01271057,0.9922943,33.76614,2.488739,-28.67967,4.362869,0.4473312,0.4976327,-0.09465742,1.330503,-0.1055206999999999,-0.06769077,0.65508,0.08584091,5.544015,-32.12428,31.79
2,0.04798889,-0.01882935,0.9986572,1.0,-0.05018616,-0.03327942,0.9981842,-31.40355,1.5106959999999998,-30.09096,3.876373000000001,0.5102835,0.5599770000000001,1.0,0.1303864,-0.006500244,0.9914398,33.76671,2.41568,-28.68529,4.386368,0.4464297,0.4994293999999999,-0.1016245,1.329466,-0.1055898999999999,-0.07115731,0.6516021,0.08861594,5.544015,-32.12428,31.79
2,0.04798889,-0.01882935,0.9986572,1.0,-0.05018616,-0.03327942,0.9981842,-31.40355,1.5106959999999998,-30.09096,3.876373000000001,0.5102835,0.5599770000000001,1.0,0.1303864,-0.006500244,0.9914398,33.76671,2.41568,-28.68529,4.386368,0.4464297,0.4994293999999999,-0.1016245,1.329466,-0.1055898999999999,-0.07115731,0.6516021,0.08861594,5.544015,-32.12428,31.79
2,0.04798889,-0.01882935,0.9986572,1.0,-0.05018616,-0.03327942,0.9981842,-31.40355,1.5106959999999998,-30.09096,3.876373000000001,0.5102835,0.5599770000000001,1.0,0.1303864,-0.006500244,0.9914398,33.76671,2.41568,-28.68529,4.386368,0.4464297,0.4994293999999999,-0.1016245,1.329466,-0.1055898999999999,-0.07115731,0.6516021,0.08861594,5.544015,-32.12428,31.79
2,0.05270386,-0.03349304,0.9980469,1.0,-0.0519104,-0.0271759,0.9982758,-31.40144,1.432251,-29.96138,3.904938,0.5103840999999999,0.5607597,1.0,0.113739,-0.03703308,0.9928131,33.77605,2.344681,-28.58185,4.243851,0.4481762999999999,0.5043871,-0.1079776,1.32858,-0.1052793,-0.07607934,0.6467721,0.0925423,5.544015,21.86838,31.79
2,0.05270386,-0.03349304,0.9980469,1.0,-0.0519104,-0.0271759,0.9982758,-31.40144,1.432251,-29.96138,3.904938,0.5103840999999999,0.5607597,1.0,0.113739,-0.03703308,0.9928131,33.77605,2.344681,-28.58185,4.243851,0.4481762999999999,0.5043871,-0.1079776,1.32858,-0.1052793,-0.07607934,0.6467721,0.0925423,5.544015,21.86838,31.79
2,0.05270386,-0.03349304,0.9980469,1.0,-0.0519104,-0.0271759,0.9982758,-31.40144,1.432251,-29.96138,3.904938,0.5103840999999999,0.5607597,1.0,0.113739,-0.03703308,0.9928131,33.77605,2.344681,-28.58185,4.243851,0.4481762999999999,0.5043871,-0.1079776,1.32858,-0.1052793,-0.07607934,0.6467721,0.0925423,5.544015,21.86838,31.79
2,0.05270386,-0.03349304,0.9980469,1.0,-0.0519104,-0.0271759,0.9982758,-31.40144,1.432251,-29.96138,3.904938,0.5103840999999999,0.5607597,1.0,0.113739,-0.03703308,0.9928131,33.77605,2.344681,-28.58185,4.243851,0.4481762999999999,0.5043871,-0.1198617999999999,1.329453,-0.1036991,-0.09908998,0.6308705,0.1091823,5.544015,21.86838,31.79
2,0.05270386,-0.03349304,0.9980469,1.0,-0.0519104,-0.0271759,0.9982758,-31.40144,1.432251,-29.96138,3.904938,0.5103840999999999,0.5607597,1.0,0.113739,-0.03703308,0.9928131,33.77605,2.344681,-28.58185,4.243851,0.4481762999999999,0.5043871,-0.1198617999999999,1.329453,-0.1036991,-0.09908998,0.6308705,0.1091823,5.544015,21.86838,31.79
2,0.05270386,-0.03349304,0.9980469,1.0,-0.0519104,-0.0271759,0.9982758,-31.40144,1.432251,-29.96138,3.904938,0.5103840999999999,0.5607597,1.0,0.113739,-0.03703308,0.9928131,33.77605,2.344681,-28.58185,4.243851,0.4481762999999999,0.5043871,-0.1198617999999999,1.329453,-0.1036991,-0.09908998,0.6308705,0.1091823,5.544015,21.86838,31.79
2,0.07817078,-0.04202271,0.996048,1.0,-0.05778503,-0.04849243,0.9971466,-31.426040000000004,1.282211,-29.69191,3.901978,0.5117989000000001,0.5659983000000001,1.0,0.1020813,-0.040802,0.993927,33.7529,2.321182,-28.641240000000003,4.314011,0.4502282999999999,0.5062095999999999,-0.1263974,1.3311309999999998,-0.1025038,-0.1154518,0.6199918000000001,0.1223567,5.544015,21.86838,31.79
2,0.07817078,-0.04202271,0.996048,1.0,-0.05778503,-0.04849243,0.9971466,-31.426040000000004,1.282211,-29.69191,3.901978,0.5117989000000001,0.5659983000000001,1.0,0.1020813,-0.040802,0.993927,33.7529,2.321182,-28.641240000000003,4.314011,0.4502282999999999,0.5062095999999999,-0.1263974,1.3311309999999998,-0.1025038,-0.1154518,0.6199918000000001,0.1223567,5.544015,21.86838,31.79
2,0.07817078,-0.04202271,0.996048,1.0,-0.05778503,-0.04849243,0.9971466,-31.426040000000004,1.282211,-29.69191,3.901978,0.5117989000000001,0.5659983000000001,1.0,0.1020813,-0.040802,0.993927,33.7529,2.321182,-28.641240000000003,4.314011,0.4502282999999999,0.5062095999999999,-0.1263974,1.3311309999999998,-0.1025038,-0.1154518,0.6199918000000001,0.1223567,5.544015,21.86838,31.79
2,0.07817078,-0.04202271,0.996048,1.0,-0.05778503,-0.04849243,0.9971466,-31.426040000000004,1.282211,-29.69191,3.901978,0.5117989000000001,0.5659983000000001,1.0,0.1020813,-0.040802,0.993927,33.7529,2.321182,-28.641240000000003,4.314011,0.4502282999999999,0.5062095999999999,-0.1341395,1.333599,-0.1013467,-0.1335352,0.6070934,0.13937,5.544015,21.86838,31.79
2,0.07817078,-0.04202271,0.996048,1.0,-0.05778503,-0.04849243,0.9971466,-31.426040000000004,1.282211,-29.69191,3.901978,0.5117989000000001,0.5659983000000001,1.0,0.1020813,-0.040802,0.993927,33.7529,2.321182,-28.641240000000003,4.314011,0.4502282999999999,0.5062095999999999,-0.1341395,1.333599,-0.1013467,-0.1335352,0.6070934,0.13937,5.544015,21.86838,31.79
2,0.07817078,-0.04202271,0.996048,1.0,-0.05778503,-0.04849243,0.9971466,-31.426040000000004,1.282211,-29.69191,3.901978,0.5117989000000001,0.5659983000000001,1.0,0.1020813,-0.040802,0.993927,33.7529,2.321182,-28.641240000000003,4.314011,0.4502282999999999,0.5062095999999999,-0.1341395,1.333599,-0.1013467,-0.1335352,0.6070934,0.13937,5.544015,21.86838,31.79
2,0.07189941,-0.000869751,0.997406,0.9752223,-0.1289825,-0.03286743,0.9910889,-31.47614,1.458435,-29.508090000000003,3.871796,0.5219963,0.5564687,0.9985633,0.07217407,-0.0008239746,0.9973907,33.63957,2.549103,-28.84341,4.423965,0.457464,0.4957395,-0.1511872,1.339516,-0.09664112,-0.1739378,0.5686141,0.1703241,5.544015,55.77153,31.79
2,0.07189941,-0.000869751,0.997406,0.9752223,-0.1289825,-0.03286743,0.9910889,-31.47614,1.458435,-29.508090000000003,3.871796,0.5219963,0.5564687,0.9985633,0.07217407,-0.0008239746,0.9973907,33.63957,2.549103,-28.84341,4.423965,0.457464,0.4957395,-0.1511872,1.339516,-0.09664112,-0.1739378,0.5686141,0.1703241,5.544015,55.77153,31.79
2,0.07189941,-0.000869751,0.997406,0.9752223,-0.1289825,-0.03286743,0.9910889,-31.47614,1.458435,-29.508090000000003,3.871796,0.5219963,0.5564687,0.9985633,0.07217407,-0.0008239746,0.9973907,33.63957,2.549103,-28.84341,4.423965,0.457464,0.4957395,-0.1511872,1.339516,-0.09664112,-0.1739378,0.5686141,0.1703241,5.544015,55.77153,31.79
2,0.03088379,-0.04295349,0.9985962,1.0,-0.1515656,-0.07774353,0.9853821,-31.5184,1.291412,-29.30243,3.946274,0.5260715,0.5658325,1.0,0.03094482,-0.04293823,0.9985962,33.57617,2.311493,-28.4157,4.316299,0.4645992999999999,0.5049821,-0.1603013999999999,1.34374,-0.09266174,-0.1988623,0.5383161,0.1812964,5.544015,55.77153,31.79
2,0.03088379,-0.04295349,0.9985962,1.0,-0.1515656,-0.07774353,0.9853821,-31.5184,1.291412,-29.30243,3.946274,0.5260715,0.5658325,1.0,0.03094482,-0.04293823,0.9985962,33.57617,2.311493,-28.4157,4.316299,0.4645992999999999,0.5049821,-0.1603013999999999,1.34374,-0.09266174,-0.1988623,0.5383161,0.1812964,5.544015,55.77153,31.79
2,0.03088379,-0.04295349,0.9985962,1.0,-0.1515656,-0.07774353,0.9853821,-31.5184,1.291412,-29.30243,3.946274,0.5260715,0.5658325,1.0,0.03094482,-0.04293823,0.9985962,33.57617,2.311493,-28.4157,4.316299,0.4645992999999999,0.5049821,-0.1603013999999999,1.34374,-0.09266174,-0.1988623,0.5383161,0.1812964,5.544015,55.77153,31.79
2,0.03088379,-0.04295349,0.9985962,1.0,-0.1515656,-0.07774353,0.9853821,-31.5184,1.291412,-29.30243,3.946274,0.5260715,0.5658325,1.0,0.03094482,-0.04293823,0.9985962,33.57617,2.311493,-28.4157,4.316299,0.4645992999999999,0.5049821,-0.1698036,1.348073,-0.08728832,-0.2257029,0.4994651,0.1884082,5.544015,55.77153,31.79
2,0.03088379,-0.04295349,0.9985962,1.0,-0.1515656,-0.07774353,0.9853821,-31.5184,1.291412,-29.30243,3.946274,0.5260715,0.5658325,1.0,0.03094482,-0.04293823,0.9985962,33.57617,2.311493,-28.4157,4.316299,0.4645992999999999,0.5049821,-0.1698036,1.348073,-0.08728832,-0.2257029,0.4994651,0.1884082,5.544015,55.77153,31.79
2,0.03088379,-0.04295349,0.9985962,1.0,-0.1515656,-0.07774353,0.9853821,-31.5184,1.291412,-29.30243,3.946274,0.5260715,0.5658325,1.0,0.03094482,-0.04293823,0.9985962,33.57617,2.311493,-28.4157,4.316299,0.4645992999999999,0.5049821,-0.1698036,1.348073,-0.08728832,-0.2257029,0.4994651,0.1884082,5.544015,55.77153,31.79
2,0.2100067,0.1937713999999999,0.9582977,0.9581976,0.07302856,0.07705688,0.994339,-29.98773,1.1780700000000002,-29.81923,4.208923,0.4468717,0.5558598000000001,0.9533285,0.2104034,0.1941071,0.9581451,34.7917,2.503433,-29.04866,4.9095,0.4016417,0.4767107,-0.1885836,1.349787,-0.07483435,-0.2499268999999999,0.4042325,0.1882295,5.544015,55.77153,31.79
2,0.2100067,0.1937713999999999,0.9582977,0.9581976,0.07302856,0.07705688,0.994339,-29.98773,1.1780700000000002,-29.81923,4.208923,0.4468717,0.5558598000000001,0.9533285,0.2104034,0.1941071,0.9581451,34.7917,2.503433,-29.04866,4.9095,0.4016417,0.4767107,-0.1885836,1.349787,-0.07483435,-0.2499268999999999,0.4042325,0.1882295,5.544015,55.77153,31.79
2,0.2100067,0.1937713999999999,0.9582977,0.9581976,0.07302856,0.07705688,0.994339,-29.98773,1.1780700000000002,-29.81923,4.208923,0.4468717,0.5558598000000001,0.9533285,0.2104034,0.1941071,0.9581451,34.7917,2.503433,-29.04866,4.9095,0.4016417,0.4767107,-0.1885836,1.349787,-0.07483435,-0.2499268999999999,0.4042325,0.1882295,5.544015,55.77153,31.79
3,0.3477172999999999,0.1821747,0.9197235,1.0,0.1292114,0.03314209,0.9910583,-29.89087,0.9224854,-29.85876,4.069443,0.436532,0.5701792,1.0,0.3478850999999999,0.1822967999999999,0.919632,34.9357,2.18309,-29.11623,4.844696,0.3798864,0.489718,-0.1970483999999999,1.348744,-0.06767493,-0.249046,0.3549678,0.1895406,5.544015,50.14944,31.79
3,0.3477172999999999,0.1821747,0.9197235,1.0,0.1292114,0.03314209,0.9910583,-29.89087,0.9224854,-29.85876,4.069443,0.436532,0.5701792,1.0,0.3478850999999999,0.1822967999999999,0.919632,34.9357,2.18309,-29.11623,4.844696,0.3798864,0.489718,-0.1970483999999999,1.348744,-0.06767493,-0.249046,0.3549678,0.1895406,5.544015,50.14944,31.79
3,0.3477172999999999,0.1821747,0.9197235,1.0,0.1292114,0.03314209,0.9910583,-29.89087,0.9224854,-29.85876,4.069443,0.436532,0.5701792,1.0,0.3478850999999999,0.1822967999999999,0.919632,34.9357,2.18309,-29.11623,4.844696,0.3798864,0.489718,-0.1970483999999999,1.348744,-0.06767493,-0.249046,0.3549678,0.1895406,5.544015,50.14944,31.79
3,0.3518524,0.04141235,0.9351196,1.0,0.121048,0.01473999,0.9925232,-29.84563,0.6905212,-29.57733,3.854233,0.4356714,0.577458,1.0,0.3532561999999999,0.0415802,0.9345856,35.01427,2.223602,-28.98547,4.365402,0.3769054,0.5030313,-0.2051791999999999,1.347344,-0.06066281,-0.2489873999999999,0.305356,0.1897206,5.544015,50.14944,31.79
3,0.3518524,0.04141235,0.9351196,1.0,0.121048,0.01473999,0.9925232,-29.84563,0.6905212,-29.57733,3.854233,0.4356714,0.577458,1.0,0.3532561999999999,0.0415802,0.9345856,35.01427,2.223602,-28.98547,4.365402,0.3769054,0.5030313,-0.2051791999999999,1.347344,-0.06066281,-0.2489873999999999,0.305356,0.1897206,5.544015,50.14944,31.79
3,0.3518524,0.04141235,0.9351196,1.0,0.121048,0.01473999,0.9925232,-29.84563,0.6905212,-29.57733,3.854233,0.4356714,0.577458,1.0,0.3532561999999999,0.0415802,0.9345856,35.01427,2.223602,-28.98547,4.365402,0.3769054,0.5030313,-0.2051791999999999,1.347344,-0.06066281,-0.2489873999999999,0.305356,0.1897206,5.544015,50.14944,31.79
3,0.3518524,0.04141235,0.9351196,1.0,0.121048,0.01473999,0.9925232,-29.84563,0.6905212,-29.57733,3.854233,0.4356714,0.577458,1.0,0.3532561999999999,0.0415802,0.9345856,35.01427,2.223602,-28.98547,4.365402,0.3769054,0.5030313,-0.2121959,1.344835,-0.05418116,-0.243288,0.2590926,0.1891760999999999,5.544015,50.14944,31.79
3,0.3518524,0.04141235,0.9351196,1.0,0.121048,0.01473999,0.9925232,-29.84563,0.6905212,-29.57733,3.854233,0.4356714,0.577458,1.0,0.3532561999999999,0.0415802,0.9345856,35.01427,2.223602,-28.98547,4.365402,0.3769054,0.5030313,-0.2121959,1.344835,-0.05418116,-0.243288,0.2590926,0.1891760999999999,5.544015,50.14944,31.79
3,0.3518524,0.04141235,0.9351196,1.0,0.121048,0.01473999,0.9925232,-29.84563,0.6905212,-29.57733,3.854233,0.4356714,0.577458,1.0,0.3532561999999999,0.0415802,0.9345856,35.01427,2.223602,-28.98547,4.365402,0.3769054,0.5030313,-0.2121959,1.344835,-0.05418116,-0.243288,0.2590926,0.1891760999999999,5.544015,50.14944,31.79
3,0.2348328,0.059021,0.9702301,1.0,0.03674316,-0.01130676,0.9992523,-30.778640000000003,0.2433167,-28.79131,3.948242,0.4779047,0.5886348000000001,1.0,0.2360077,0.05944824,0.9699249,34.22235,1.642105,-28.23787,4.62178,0.4185584,0.5141905999999999,-0.2181146,1.342509,-0.04824716,-0.2382887,0.2187189,0.1881081,5.544015,50.14944,31.79
3,0.2348328,0.059021,0.9702301,1.0,0.03674316,-0.01130676,0.9992523,-30.778640000000003,0.2433167,-28.79131,3.948242,0.4779047,0.5886348000000001,1.0,0.2360077,0.05944824,0.9699249,34.22235,1.642105,-28.23787,4.62178,0.4185584,0.5141905999999999,-0.2181146,1.342509,-0.04824716,-0.2382887,0.2187189,0.1881081,5.544015,50.14944,31.79
3,0.2348328,0.059021,0.9702301,1.0,0.03674316,-0.01130676,0.9992523,-30.778640000000003,0.2433167,-28.79131,3.948242,0.4779047,0.5886348000000001,1.0,0.2360077,0.05944824,0.9699249,34.22235,1.642105,-28.23787,4.62178,0.4185584,0.5141905999999999,-0.2181146,1.342509,-0.04824716,-0.2382887,0.2187189,0.1881081,5.544015,50.14944,31.79
3,0.05029297,0.03858948,0.9979858,1.0,-0.1247711,-0.03608704,0.9915161,-31.92369,0.1954803,-28.92094,4.085754,0.5365829000000001,0.5950348000000001,1.0,0.05392456,0.04014587,0.9977264,33.08057,1.658997,-28.78075,4.575897,0.4782462999999999,0.5207999,-0.222801,1.33897,-0.04224247,-0.2272884,0.1828804,0.1879019,5.544015,50.14944,31.79
3,0.05029297,0.03858948,0.9979858,1.0,-0.1247711,-0.03608704,0.9915161,-31.92369,0.1954803,-28.92094,4.085754,0.5365829000000001,0.5950348000000001,1.0,0.05392456,0.04014587,0.9977264,33.08057,1.658997,-28.78075,4.575897,0.4782462999999999,0.5207999,-0.222801,1.33897,-0.04224247,-0.2272884,0.1828804,0.1879019,5.544015,50.14944,31.79
3,0.05029297,0.03858948,0.9979858,1.0,-0.1247711,-0.03608704,0.9915161,-31.92369,0.1954803,-28.92094,4.085754,0.5365829000000001,0.5950348000000001,1.0,0.05392456,0.04014587,0.9977264,33.08057,1.658997,-28.78075,4.575897,0.4782462999999999,0.5207999,-0.222801,1.33897,-0.04224247,-0.2272884,0.1828804,0.1879019,5.544015,50.14944,31.79
3,0.08044434,-0.0017242429999999,0.9967499,1.0,-0.01824951,-0.04524231,0.9987946,-31.363570000000003,0.1056823999999999,-28.65613,4.032043,0.5045062,0.5963218000000001,1.0,0.1665192,0.03657532,0.9853516,33.57965,1.54895,-28.23923,4.581116000000001,0.4484619999999999,0.5200143,-0.2270751,1.334936,-0.03603309,-0.2135203,0.1498602999999999,0.1894553,5.544015,0.3722534,31.79
3,0.08044434,-0.0017242429999999,0.9967499,1.0,-0.01824951,-0.04524231,0.9987946,-31.363570000000003,0.1056823999999999,-28.65613,4.032043,0.5045062,0.5963218000000001,1.0,0.1665192,0.03657532,0.9853516,33.57965,1.54895,-28.23923,4.581116000000001,0.4484619999999999,0.5200143,-0.2270751,1.334936,-0.03603309,-0.2135203,0.1498602999999999,0.1894553,5.544015,0.3722534,31.79
3,0.08044434,-0.0017242429999999,0.9967499,1.0,-0.01824951,-0.04524231,0.9987946,-31.363570000000003,0.1056823999999999,-28.65613,4.032043,0.5045062,0.5963218000000001,1.0,0.1665192,0.03657532,0.9853516,33.57965,1.54895,-28.23923,4.581116000000001,0.4484619999999999,0.5200143,-0.2270751,1.334936,-0.03603309,-0.2135203,0.1498602999999999,0.1894553,5.544015,0.3722534,31.79
3,0.06506348,-0.03166199,0.9973755,1.0,0.02549744,-0.05250549,0.998291,-31.17468,0.08717346,-28.6804,4.024323000000001,0.4928369000000001,0.5980112,1.0,0.2106627999999999,0.04620361,0.9764557,33.730709999999995,1.526184,-28.12656,4.535492,0.4382629,0.5186360999999999,-0.2312219,1.329851,-0.02914757,-0.196964,0.1143981999999999,0.1896836,5.544015,0.3722534,31.79
3,0.06506348,-0.03166199,0.9973755,1.0,0.02549744,-0.05250549,0.998291,-31.17468,0.08717346,-28.6804,4.024323000000001,0.4928369000000001,0.5980112,1.0,0.2106627999999999,0.04620361,0.9764557,33.730709999999995,1.526184,-28.12656,4.535492,0.4382629,0.5186360999999999,-0.2312219,1.329851,-0.02914757,-0.196964,0.1143981999999999,0.1896836,5.544015,0.3722534,31.79
3,0.06506348,-0.03166199,0.9973755,1.0,0.02549744,-0.05250549,0.998291,-31.17468,0.08717346,-28.6804,4.024323000000001,0.4928369000000001,0.5980112,1.0,0.2106627999999999,0.04620361,0.9764557,33.730709999999995,1.526184,-28.12656,4.535492,0.4382629,0.5186360999999999,-0.2312219,1.329851,-0.02914757,-0.196964,0.1143981999999999,0.1896836,5.544015,0.3722534,31.79
3,0.06506348,-0.03166199,0.9973755,1.0,0.02549744,-0.05250549,0.998291,-31.17468,0.08717346,-28.6804,4.024323000000001,0.4928369000000001,0.5980112,1.0,0.2106627999999999,0.04620361,0.9764557,33.730709999999995,1.526184,-28.12656,4.535492,0.4382629,0.5186360999999999,-0.2359104,1.324943,-0.02235186,-0.1805519,0.0737143,0.1846558999999999,5.544015,0.3722534,31.79
3,0.06506348,-0.03166199,0.9973755,1.0,0.02549744,-0.05250549,0.998291,-31.17468,0.08717346,-28.6804,4.024323000000001,0.4928369000000001,0.5980112,1.0,0.2106627999999999,0.04620361,0.9764557,33.730709999999995,1.526184,-28.12656,4.535492,0.4382629,0.5186360999999999,-0.2359104,1.324943,-0.02235186,-0.1805519,0.0737143,0.1846558999999999,5.544015,0.3722534,31.79
3,0.06506348,-0.03166199,0.9973755,1.0,0.02549744,-0.05250549,0.998291,-31.17468,0.08717346,-28.6804,4.024323000000001,0.4928369000000001,0.5980112,1.0,0.2106627999999999,0.04620361,0.9764557,33.730709999999995,1.526184,-28.12656,4.535492,0.4382629,0.5186360999999999,-0.2359104,1.324943,-0.02235186,-0.1805519,0.0737143,0.1846558999999999,5.544015,0.3722534,31.79
3,0.06506348,-0.03166199,0.9973755,1.0,0.02549744,-0.05250549,0.998291,-31.17468,0.08717346,-28.6804,4.024323000000001,0.4928369000000001,0.5980112,1.0,0.2106627999999999,0.04620361,0.9764557,33.730709999999995,1.526184,-28.12656,4.535492,0.4382629,0.5186360999999999,-0.2444279,1.315589,-0.01012748,-0.1489742,-0.007967368,0.1682687,5.544015,0.3722534,31.79
3,0.06506348,-0.03166199,0.9973755,1.0,0.02549744,-0.05250549,0.998291,-31.17468,0.08717346,-28.6804,4.024323000000001,0.4928369000000001,0.5980112,1.0,0.2106627999999999,0.04620361,0.9764557,33.730709999999995,1.526184,-28.12656,4.535492,0.4382629,0.5186360999999999,-0.2444279,1.315589,-0.01012748,-0.1489742,-0.007967368,0.1682687,5.544015,0.3722534,31.79
3,0.06506348,-0.03166199,0.9973755,1.0,0.02549744,-0.05250549,0.998291,-31.17468,0.08717346,-28.6804,4.024323000000001,0.4928369000000001,0.5980112,1.0,0.2106627999999999,0.04620361,0.9764557,33.730709999999995,1.526184,-28.12656,4.535492,0.4382629,0.5186360999999999,-0.2444279,1.315589,-0.01012748,-0.1489742,-0.007967368,0.1682687,5.544015,0.3722534,31.79
3,0.08312988,0.0284729,0.9961243,1.0,0.08001709,0.02726746,0.9964142,-30.79308,0.3885192999999999,-29.2012,4.139572,0.4735656,0.5832083,1.0,0.2464905,0.09162903,0.964798,34.0318,2.13736,-29.24695,4.67601,0.4230853,0.5026425,-0.2444279,1.315589,-0.01012748,-0.1489742,-0.007967368,0.1682687,5.544015,-42.26054,31.79
3,0.08312988,0.0284729,0.9961243,1.0,0.08001709,0.02726746,0.9964142,-30.79308,0.3885192999999999,-29.2012,4.139572,0.4735656,0.5832083,1.0,0.2464905,0.09162903,0.964798,34.0318,2.13736,-29.24695,4.67601,0.4230853,0.5026425,-0.2444279,1.315589,-0.01012748,-0.1489742,-0.007967368,0.1682687,5.544015,-42.26054,31.79
3,0.08312988,0.0284729,0.9961243,1.0,0.08001709,0.02726746,0.9964142,-30.79308,0.3885192999999999,-29.2012,4.139572,0.4735656,0.5832083,1.0,0.2464905,0.09162903,0.964798,34.0318,2.13736,-29.24695,4.67601,0.4230853,0.5026425,-0.2444279,1.315589,-0.01012748,-0.1489742,-0.007967368,0.1682687,5.544015,-42.26054,31.79
3,-0.02151489,0.04846191,0.9985809,1.0,-0.02151489,0.04846191,0.9985809,-31.590090000000004,0.4399260999999999,-29.0593,4.1710970000000005,0.5130422,0.57775,1.0,0.1233826,0.1177521,0.9853363000000002,33.32962,2.489532,-30.09065,4.790604,0.4611909999999999,0.4951819999999999,-0.2463682,1.312133,-0.005682766,-0.136533,-0.0376147,0.1581985,5.544015,-42.26054,31.79
3,-0.02151489,0.04846191,0.9985809,1.0,-0.02151489,0.04846191,0.9985809,-31.590090000000004,0.4399260999999999,-29.0593,4.1710970000000005,0.5130422,0.57775,1.0,0.1233826,0.1177521,0.9853363000000002,33.32962,2.489532,-30.09065,4.790604,0.4611909999999999,0.4951819999999999,-0.2463682,1.312133,-0.005682766,-0.136533,-0.0376147,0.1581985,5.544015,-42.26054,31.79
3,-0.02151489,0.04846191,0.9985809,1.0,-0.02151489,0.04846191,0.9985809,-31.590090000000004,0.4399260999999999,-29.0593,4.1710970000000005,0.5130422,0.57775,1.0,0.1233826,0.1177521,0.9853363000000002,33.32962,2.489532,-30.09065,4.790604,0.4611909999999999,0.4951819999999999,-0.2463682,1.312133,-0.005682766,-0.136533,-0.0376147,0.1581985,5.544015,-42.26054,31.79
3,-0.06442261,0.07614136,0.9950104,1.0,-0.06442261,0.0761261,0.9950104,-32.03491,0.5836639,-29.460140000000003,4.259521,0.5337574,0.5735864,1.0,0.04821777,0.1497498,0.9875336,32.80266,2.057632,-28.6277,4.801392,0.4883778,0.493797,-0.2463813,1.309375,-0.002358973,-0.1269359,-0.05401787,0.1498808999999999,5.587583,-42.26054,31.79
3,-0.06442261,0.07614136,0.9950104,1.0,-0.06442261,0.0761261,0.9950104,-32.03491,0.5836639,-29.460140000000003,4.259521,0.5337574,0.5735864,1.0,0.04821777,0.1497498,0.9875336,32.80266,2.057632,-28.6277,4.801392,0.4883778,0.493797,-0.2463813,1.309375,-0.002358973,-0.1269359,-0.05401787,0.1498808999999999,5.587583,-42.26054,31.79
3,-0.06442261,0.07614136,0.9950104,1.0,-0.06442261,0.0761261,0.9950104,-32.03491,0.5836639,-29.460140000000003,4.259521,0.5337574,0.5735864,1.0,0.04821777,0.1497498,0.9875336,32.80266,2.057632,-28.6277,4.801392,0.4883778,0.493797,-0.2463813,1.309375,-0.002358973,-0.1269359,-0.05401787,0.1498808999999999,5.587583,-42.26054,31.79
3,0.2846527,0.0144043,0.9585114,1.0,0.2846527,0.0144043,0.9585114,-30.51695,0.2855225,-29.4724,4.356445,0.4397683,0.5919747,1.0,0.4569702,0.119278,0.8814392,34.11871,2.029266,-29.38193,4.9680480000000005,0.393869,0.5056351,-0.2458339,1.307346,0.000361979,-0.1213976999999999,-0.0638562,0.1505927,5.587583,-42.26054,31.79
3,0.2846527,0.0144043,0.9585114,1.0,0.2846527,0.0144043,0.9585114,-30.51695,0.2855225,-29.4724,4.356445,0.4397683,0.5919747,1.0,0.4569702,0.119278,0.8814392,34.11871,2.029266,-29.38193,4.9680480000000005,0.393869,0.5056351,-0.2458339,1.307346,0.000361979,-0.1213976999999999,-0.0638562,0.1505927,5.587583,-42.26054,31.79
3,0.2846527,0.0144043,0.9585114,1.0,0.2846527,0.0144043,0.9585114,-30.51695,0.2855225,-29.4724,4.356445,0.4397683,0.5919747,1.0,0.4569702,0.119278,0.8814392,34.11871,2.029266,-29.38193,4.9680480000000005,0.393869,0.5056351,-0.2458339,1.307346,0.000361979,-0.1213976999999999,-0.0638562,0.1505927,5.587583,-42.26054,31.79
3,0.2268677,0.01574707,0.9737854,1.0,0.2254943999999999,0.01473999,0.9741211,-30.534440000000004,0.3330841,-29.4502,4.379455999999999,0.4475664000000001,0.5897205,1.0,0.4030609,0.1491699,0.9029236,34.21674,2.040482,-29.38155,5.075623,0.3972906,0.5014949000000001,-0.2431848,1.305169,0.006121278,-0.1121971,-0.07799262,0.142268,5.587583,-42.26054,31.79
3,0.2268677,0.01574707,0.9737854,1.0,0.2254943999999999,0.01473999,0.9741211,-30.534440000000004,0.3330841,-29.4502,4.379455999999999,0.4475664000000001,0.5897205,1.0,0.4030609,0.1491699,0.9029236,34.21674,2.040482,-29.38155,5.075623,0.3972906,0.5014949000000001,-0.2431848,1.305169,0.006121278,-0.1121971,-0.07799262,0.142268,5.587583,-42.26054,31.79
3,0.2268677,0.01574707,0.9737854,1.0,0.2254943999999999,0.01473999,0.9741211,-30.534440000000004,0.3330841,-29.4502,4.379455999999999,0.4475664000000001,0.5897205,1.0,0.4030609,0.1491699,0.9029236,34.21674,2.040482,-29.38155,5.075623,0.3972906,0.5014949000000001,-0.2431848,1.305169,0.006121278,-0.1121971,-0.07799262,0.142268,5.587583,-42.26054,31.79
3,0.2956696,0.08647156,0.951355,1.0,0.1790466,0.04432678,0.9828339,-30.54819,0.4593353,-29.47147,4.29895,0.4535479999999999,0.5817413,1.0,0.357605,0.1089935,0.927475,34.33469,2.14978,-29.33876,4.868622,0.3990723,0.5015351,-0.2432373,1.304602,0.008855641,-0.1084481,-0.09150658,0.1353086,5.587583,1.164749,31.79
3,0.2956696,0.08647156,0.951355,1.0,0.1790466,0.04432678,0.9828339,-30.54819,0.4593353,-29.47147,4.29895,0.4535479999999999,0.5817413,1.0,0.357605,0.1089935,0.927475,34.33469,2.14978,-29.33876,4.868622,0.3990723,0.5015351,-0.2432373,1.304602,0.008855641,-0.1084481,-0.09150658,0.1353086,5.587583,1.164749,31.79
3,0.2956696,0.08647156,0.951355,1.0,0.1790466,0.04432678,0.9828339,-30.54819,0.4593353,-29.47147,4.29895,0.4535479999999999,0.5817413,1.0,0.357605,0.1089935,0.927475,34.33469,2.14978,-29.33876,4.868622,0.3990723,0.5015351,-0.2432373,1.304602,0.008855641,-0.1084481,-0.09150658,0.1353086,5.587583,1.164749,31.79
3,0.2621765,0.09425354,0.9603882,1.0,0.14151,0.02882385,0.989502,-30.4975,0.5123901,-29.47379,4.24025,0.4562027,0.5815617,1.0,0.3279114,0.1303253,0.9356689,34.46213,2.122894,-29.36969,4.970795,0.3982824,0.5001831,-0.2442589,1.304541,0.01113367,-0.1047426,-0.1121818,0.1312608999999999,5.587583,1.164749,31.79
3,0.2621765,0.09425354,0.9603882,1.0,0.14151,0.02882385,0.989502,-30.4975,0.5123901,-29.47379,4.24025,0.4562027,0.5815617,1.0,0.3279114,0.1303253,0.9356689,34.46213,2.122894,-29.36969,4.970795,0.3982824,0.5001831,-0.2442589,1.304541,0.01113367,-0.1047426,-0.1121818,0.1312608999999999,5.587583,1.164749,31.79
3,0.2621765,0.09425354,0.9603882,1.0,0.14151,0.02882385,0.989502,-30.4975,0.5123901,-29.47379,4.24025,0.4562027,0.5815617,1.0,0.3279114,0.1303253,0.9356689,34.46213,2.122894,-29.36969,4.970795,0.3982824,0.5001831,-0.2442589,1.304541,0.01113367,-0.1047426,-0.1121818,0.1312608999999999,5.587583,1.164749,31.79
3,0.2743377999999999,0.1310425,0.952652,1.0,0.09835815,0.009750366,0.9951019,-30.75966,0.5503845,-29.852840000000004,4.09198,0.4702267,0.585929,1.0,0.2743377999999999,0.1310425,0.952652,34.16551,2.0684970000000003,-29.29248,5.078812,0.4149483,0.5013257999999999,-0.2450143999999999,1.304552,0.01395214,-0.1003333999999999,-0.1312858999999999,0.1238023,5.587583,1.164749,31.79
3,0.2743377999999999,0.1310425,0.952652,1.0,0.09835815,0.009750366,0.9951019,-30.75966,0.5503845,-29.852840000000004,4.09198,0.4702267,0.585929,1.0,0.2743377999999999,0.1310425,0.952652,34.16551,2.0684970000000003,-29.29248,5.078812,0.4149483,0.5013257999999999,-0.2450143999999999,1.304552,0.01395214,-0.1003333999999999,-0.1312858999999999,0.1238023,5.587583,1.164749,31.79
3,0.2743377999999999,0.1310425,0.952652,1.0,0.09835815,0.009750366,0.9951019,-30.75966,0.5503845,-29.852840000000004,4.09198,0.4702267,0.585929,1.0,0.2743377999999999,0.1310425,0.952652,34.16551,2.0684970000000003,-29.29248,5.078812,0.4149483,0.5013257999999999,-0.2450143999999999,1.304552,0.01395214,-0.1003333999999999,-0.1312858999999999,0.1238023,5.587583,1.164749,31.79
3,0.233017,0.06907654,0.9700012,1.0,0.05882263,0.02116394,0.9980316,-31.06091,0.794693,-30.616,4.169434,0.4856448,0.5834754,1.0,0.233017,0.06907654,0.9700012,33.87154,2.040344,-29.29555,4.781372,0.4300437,0.5090997,-0.2453411,1.305051,0.01691359,-0.09613392,-0.1503852,0.1243492,5.587583,1.164749,31.79
3,0.233017,0.06907654,0.9700012,1.0,0.05882263,0.02116394,0.9980316,-31.06091,0.794693,-30.616,4.169434,0.4856448,0.5834754,1.0,0.233017,0.06907654,0.9700012,33.87154,2.040344,-29.29555,4.781372,0.4300437,0.5090997,-0.2453411,1.305051,0.01691359,-0.09613392,-0.1503852,0.1243492,5.587583,1.164749,31.79
3,0.233017,0.06907654,0.9700012,1.0,0.05882263,0.02116394,0.9980316,-31.06091,0.794693,-30.616,4.169434,0.4856448,0.5834754,1.0,0.233017,0.06907654,0.9700012,33.87154,2.040344,-29.29555,4.781372,0.4300437,0.5090997,-0.2453411,1.305051,0.01691359,-0.09613392,-0.1503852,0.1243492,5.587583,1.164749,31.79
3,0.2019653,0.02424622,0.9790802,1.0,0.03826904,0.01776123,0.9990997,-31.29616,0.3738861,-29.443240000000003,4.166428,0.4959241,0.5872449000000001,1.0,0.2019653,0.02424622,0.9790802,33.668820000000004,2.088913,-29.398740000000004,4.576919999999999,0.4406673,0.5133565999999999,-0.2438772,1.30532,0.02022076,-0.09203511,-0.1628424,0.120801,5.587583,1.164749,31.79
3,0.2019653,0.02424622,0.9790802,1.0,0.03826904,0.01776123,0.9990997,-31.29616,0.3738861,-29.443240000000003,4.166428,0.4959241,0.5872449000000001,1.0,0.2019653,0.02424622,0.9790802,33.668820000000004,2.088913,-29.398740000000004,4.576919999999999,0.4406673,0.5133565999999999,-0.2438772,1.30532,0.02022076,-0.09203511,-0.1628424,0.120801,5.587583,1.164749,31.79
3,0.2019653,0.02424622,0.9790802,1.0,0.03826904,0.01776123,0.9990997,-31.29616,0.3738861,-29.443240000000003,4.166428,0.4959241,0.5872449000000001,1.0,0.2019653,0.02424622,0.9790802,33.668820000000004,2.088913,-29.398740000000004,4.576919999999999,0.4406673,0.5133565999999999,-0.2438772,1.30532,0.02022076,-0.09203511,-0.1628424,0.120801,5.587583,1.164749,31.79
3,0.1886597,0.05471802,0.9805145,1.0,0.03131104,-0.0236969,0.9992218,-31.4733,0.2616577,-29.1496,4.14447,0.5027134,0.5932419,1.0,0.1886597,0.05471802,0.9804993,33.53784,1.930557,-28.91936,4.84317,0.4468468,0.511301,-0.2412324,1.306091,0.02411574,-0.08896439,-0.1729279,0.1192471,5.587583,92.71178,31.79
3,0.1886597,0.05471802,0.9805145,1.0,0.03131104,-0.0236969,0.9992218,-31.4733,0.2616577,-29.1496,4.14447,0.5027134,0.5932419,1.0,0.1886597,0.05471802,0.9804993,33.53784,1.930557,-28.91936,4.84317,0.4468468,0.511301,-0.2412324,1.306091,0.02411574,-0.08896439,-0.1729279,0.1192471,5.587583,92.71178,31.79
3,0.1886597,0.05471802,0.9805145,1.0,0.03131104,-0.0236969,0.9992218,-31.4733,0.2616577,-29.1496,4.14447,0.5027134,0.5932419,1.0,0.1886597,0.05471802,0.9804993,33.53784,1.930557,-28.91936,4.84317,0.4468468,0.511301,-0.2412324,1.306091,0.02411574,-0.08896439,-0.1729279,0.1192471,5.587583,92.71178,31.79
3,0.1886597,0.05471802,0.9805145,1.0,0.03131104,-0.0236969,0.9992218,-31.4733,0.2616577,-29.1496,4.14447,0.5027134,0.5932419,1.0,0.1886597,0.05471802,0.9804993,33.53784,1.930557,-28.91936,4.84317,0.4468468,0.511301,-0.2364404,1.306008,0.02809101,-0.08737208,-0.1759542,0.1161303,5.587583,92.71178,31.79
3,0.1886597,0.05471802,0.9805145,1.0,0.03131104,-0.0236969,0.9992218,-31.4733,0.2616577,-29.1496,4.14447,0.5027134,0.5932419,1.0,0.1886597,0.05471802,0.9804993,33.53784,1.930557,-28.91936,4.84317,0.4468468,0.511301,-0.2364404,1.306008,0.02809101,-0.08737208,-0.1759542,0.1161303,5.587583,92.71178,31.79
3,0.1886597,0.05471802,0.9805145,1.0,0.03131104,-0.0236969,0.9992218,-31.4733,0.2616577,-29.1496,4.14447,0.5027134,0.5932419,1.0,0.1886597,0.05471802,0.9804993,33.53784,1.930557,-28.91936,4.84317,0.4468468,0.511301,-0.2364404,1.306008,0.02809101,-0.08737208,-0.1759542,0.1161303,5.587583,92.71178,31.79
3,0.1875305,0.04693604,0.9811249,1.0,0.005950928,0.01472473,0.9998627,-31.51282,0.2829895,-29.17885,4.183975,0.5071465000000001,0.5882564,1.0,0.1875457999999999,0.04693604,0.9811249,33.45648,1.964569,-28.91296,4.741745,0.4498037,0.5109090000000001,-0.2311038999999999,1.305799,0.0322262,-0.08364311,-0.1797565,0.112535,5.587583,92.71178,31.79
3,0.1875305,0.04693604,0.9811249,1.0,0.005950928,0.01472473,0.9998627,-31.51282,0.2829895,-29.17885,4.183975,0.5071465000000001,0.5882564,1.0,0.1875457999999999,0.04693604,0.9811249,33.45648,1.964569,-28.91296,4.741745,0.4498037,0.5109090000000001,-0.2311038999999999,1.305799,0.0322262,-0.08364311,-0.1797565,0.112535,5.587583,92.71178,31.79
3,0.1875305,0.04693604,0.9811249,1.0,0.005950928,0.01472473,0.9998627,-31.51282,0.2829895,-29.17885,4.183975,0.5071465000000001,0.5882564,1.0,0.1875457999999999,0.04693604,0.9811249,33.45648,1.964569,-28.91296,4.741745,0.4498037,0.5109090000000001,-0.2311038999999999,1.305799,0.0322262,-0.08364311,-0.1797565,0.112535,5.587583,92.71178,31.79
3,0.1875305,0.04693604,0.9811249,1.0,0.005950928,0.01472473,0.9998627,-31.51282,0.2829895,-29.17885,4.183975,0.5071465000000001,0.5882564,1.0,0.1875457999999999,0.04693604,0.9811249,33.45648,1.964569,-28.91296,4.741745,0.4498037,0.5109090000000001,-0.2252474,1.305003,0.03618038,-0.08173344,-0.1812746,0.1060708,5.587583,92.71178,31.79
3,0.1875305,0.04693604,0.9811249,1.0,0.005950928,0.01472473,0.9998627,-31.51282,0.2829895,-29.17885,4.183975,0.5071465000000001,0.5882564,1.0,0.1875457999999999,0.04693604,0.9811249,33.45648,1.964569,-28.91296,4.741745,0.4498037,0.5109090000000001,-0.2252474,1.305003,0.03618038,-0.08173344,-0.1812746,0.1060708,5.587583,92.71178,31.79
3,0.1875305,0.04693604,0.9811249,1.0,0.005950928,0.01472473,0.9998627,-31.51282,0.2829895,-29.17885,4.183975,0.5071465000000001,0.5882564,1.0,0.1875457999999999,0.04693604,0.9811249,33.45648,1.964569,-28.91296,4.741745,0.4498037,0.5109090000000001,-0.2252474,1.305003,0.03618038,-0.08173344,-0.1812746,0.1060708,5.587583,92.71178,31.79
3,0.1604156,0.04364014,0.9860687,1.0,0.001831055,0.01100159,0.9999237,-31.58611,0.2301482999999999,-28.94168,4.18573,0.5100657000000001,0.5882761,1.0,0.1604462,0.0436554,0.9860687,33.40508,1.91124,-28.67618,4.695786,0.4548724,0.5109748,-0.2200811,1.304425,0.03962493,-0.07918516,-0.1870137999999999,0.1016823999999999,5.587583,92.71178,31.79
3,0.1604156,0.04364014,0.9860687,1.0,0.001831055,0.01100159,0.9999237,-31.58611,0.2301482999999999,-28.94168,4.18573,0.5100657000000001,0.5882761,1.0,0.1604462,0.0436554,0.9860687,33.40508,1.91124,-28.67618,4.695786,0.4548724,0.5109748,-0.2200811,1.304425,0.03962493,-0.07918516,-0.1870137999999999,0.1016823999999999,5.587583,92.71178,31.79
3,0.1604156,0.04364014,0.9860687,1.0,0.001831055,0.01100159,0.9999237,-31.58611,0.2301482999999999,-28.94168,4.18573,0.5100657000000001,0.5882761,1.0,0.1604462,0.0436554,0.9860687,33.40508,1.91124,-28.67618,4.695786,0.4548724,0.5109748,-0.2200811,1.304425,0.03962493,-0.07918516,-0.1870137999999999,0.1016823999999999,5.587583,92.71178,31.79
3,0.4677429,-0.05993652,0.8818207,1.0,0.2896729,-0.1504517,0.9452209,-30.32143,-0.2954712,-29.70567,4.230713,0.4316327999999999,0.6345097,1.0,0.4677734,-0.05992126,0.8818054,34.37753,1.414703,-29.36841,4.819473,0.383416,0.5474863,-0.2147212,1.303826,0.04271197,-0.07700498,-0.1907027999999999,0.09417374,5.587583,4.961731,31.79
3,0.4677429,-0.05993652,0.8818207,1.0,0.2896729,-0.1504517,0.9452209,-30.32143,-0.2954712,-29.70567,4.230713,0.4316327999999999,0.6345097,1.0,0.4677734,-0.05992126,0.8818054,34.37753,1.414703,-29.36841,4.819473,0.383416,0.5474863,-0.2147212,1.303826,0.04271197,-0.07700498,-0.1907027999999999,0.09417374,5.587583,4.961731,31.79
3,0.4677429,-0.05993652,0.8818207,1.0,0.2896729,-0.1504517,0.9452209,-30.32143,-0.2954712,-29.70567,4.230713,0.4316327999999999,0.6345097,1.0,0.4677734,-0.05992126,0.8818054,34.37753,1.414703,-29.36841,4.819473,0.383416,0.5474863,-0.2147212,1.303826,0.04271197,-0.07700498,-0.1907027999999999,0.09417374,5.587583,4.961731,31.79
3,0.3904114,-0.04896545,0.9193268,1.0,0.2401886,-0.1484069999999999,0.9593048,-30.40799,-0.1199799,-29.64003,4.229202,0.4407557,0.6270754,1.0,0.4170532,-0.03018188,0.908371,34.49783,1.434128,-29.38391,4.903716999999999,0.3857317999999999,0.5429536,-0.2092986,1.303603,0.04550934,-0.0754823,-0.192185,0.09122974,5.587583,4.961731,31.79
3,0.3904114,-0.04896545,0.9193268,1.0,0.2401886,-0.1484069999999999,0.9593048,-30.40799,-0.1199799,-29.64003,4.229202,0.4407557,0.6270754,1.0,0.4170532,-0.03018188,0.908371,34.49783,1.434128,-29.38391,4.903716999999999,0.3857317999999999,0.5429536,-0.2092986,1.303603,0.04550934,-0.0754823,-0.192185,0.09122974,5.587583,4.961731,31.79
3,0.3904114,-0.04896545,0.9193268,1.0,0.2401886,-0.1484069999999999,0.9593048,-30.40799,-0.1199799,-29.64003,4.229202,0.4407557,0.6270754,1.0,0.4170532,-0.03018188,0.908371,34.49783,1.434128,-29.38391,4.903716999999999,0.3857317999999999,0.5429536,-0.2092986,1.303603,0.04550934,-0.0754823,-0.192185,0.09122974,5.587583,4.961731,31.79
3,0.3480225,-0.09675598,0.9324646,1.0,0.2427368,-0.1346282999999999,0.9606934,-30.53758,-0.1556244,-29.64355,4.187225,0.444902,0.6266611,1.0,0.4086761,-0.07351685,0.9096985,34.37932,1.418365,-29.33661,4.793167,0.3908544,0.5481130999999999,-0.2025607,1.303343,0.04815495,-0.07293637,-0.1830382,0.08954521,5.587583,4.961731,31.79
3,0.3480225,-0.09675598,0.9324646,1.0,0.2427368,-0.1346282999999999,0.9606934,-30.53758,-0.1556244,-29.64355,4.187225,0.444902,0.6266611,1.0,0.4086761,-0.07351685,0.9096985,34.37932,1.418365,-29.33661,4.793167,0.3908544,0.5481130999999999,-0.2025607,1.303343,0.04815495,-0.07293637,-0.1830382,0.08954521,5.587583,4.961731,31.79
3,0.3480225,-0.09675598,0.9324646,1.0,0.2427368,-0.1346282999999999,0.9606934,-30.53758,-0.1556244,-29.64355,4.187225,0.444902,0.6266611,1.0,0.4086761,-0.07351685,0.9096985,34.37932,1.418365,-29.33661,4.793167,0.3908544,0.5481130999999999,-0.2025607,1.303343,0.04815495,-0.07293637,-0.1830382,0.08954521,5.587583,4.961731,31.79
3,0.3433075,-0.08953857,0.9349365,1.0,0.2423096,-0.1392365,0.960144,-30.55173,-0.1403351,-29.63826,4.210358,0.4454778,0.6266611,1.0,0.4145965999999999,-0.05227661,0.908493,34.35645,1.445404,-29.34575,4.931839,0.3909216,0.5449027,-0.1951411,1.303457,0.0505774,-0.07135519,-0.1655426,0.09158178,5.587583,4.961731,31.79
3,0.3433075,-0.08953857,0.9349365,1.0,0.2423096,-0.1392365,0.960144,-30.55173,-0.1403351,-29.63826,4.210358,0.4454778,0.6266611,1.0,0.4145965999999999,-0.05227661,0.908493,34.35645,1.445404,-29.34575,4.931839,0.3909216,0.5449027,-0.1951411,1.303457,0.0505774,-0.07135519,-0.1655426,0.09158178,5.587583,4.961731,31.79
3,0.3433075,-0.08953857,0.9349365,1.0,0.2423096,-0.1392365,0.960144,-30.55173,-0.1403351,-29.63826,4.210358,0.4454778,0.6266611,1.0,0.4145965999999999,-0.05227661,0.908493,34.35645,1.445404,-29.34575,4.931839,0.3909216,0.5449027,-0.1951411,1.303457,0.0505774,-0.07135519,-0.1655426,0.09158178,5.587583,4.961731,31.79
3,0.3433075,-0.08953857,0.9349365,1.0,0.2423096,-0.1392365,0.960144,-30.55173,-0.1403351,-29.63826,4.210358,0.4454778,0.6266611,1.0,0.4145965999999999,-0.05227661,0.908493,34.35645,1.445404,-29.34575,4.931839,0.3909216,0.5449027,-0.1869549999999999,1.304052,0.05271286,-0.07088313,-0.1408314,0.09436162,5.587583,4.961731,31.79
3,0.3433075,-0.08953857,0.9349365,1.0,0.2423096,-0.1392365,0.960144,-30.55173,-0.1403351,-29.63826,4.210358,0.4454778,0.6266611,1.0,0.4145965999999999,-0.05227661,0.908493,34.35645,1.445404,-29.34575,4.931839,0.3909216,0.5449027,-0.1869549999999999,1.304052,0.05271286,-0.07088313,-0.1408314,0.09436162,5.587583,4.961731,31.79
4,0.3433075,-0.08953857,0.9349365,1.0,0.2423096,-0.1392365,0.960144,-30.55173,-0.1403351,-29.63826,4.210358,0.4454778,0.6266611,1.0,0.4145965999999999,-0.05227661,0.908493,34.35645,1.445404,-29.34575,4.931839,0.3909216,0.5449027,-0.1869549999999999,1.304052,0.05271286,-0.07088313,-0.1408314,0.09436162,5.587583,4.961731,31.79
4,-1.0,-1.0,-1.0,0.8905696,0.0,0.0,0.0,-31.338390000000004,0.09046936,-29.4538,-1.0,0.4934237,0.6092354,0.8166734999999999,0.0,0.0,0.0,33.805040000000005,2.566177,-30.434140000000003,-1.0,0.4396794,0.5264933,-0.1771974999999999,1.305291,0.05466974,-0.07128624,-0.1043946999999999,0.09692252,5.587583,4.961731,31.79
4,-1.0,-1.0,-1.0,0.8905696,0.0,0.0,0.0,-31.338390000000004,0.09046936,-29.4538,-1.0,0.4934237,0.6092354,0.8166734999999999,0.0,0.0,0.0,33.805040000000005,2.566177,-30.434140000000003,-1.0,0.4396794,0.5264933,-0.1771974999999999,1.305291,0.05466974,-0.07128624,-0.1043946999999999,0.09692252,5.587583,4.961731,31.79
4,-1.0,-1.0,-1.0,0.8905696,0.0,0.0,0.0,-31.338390000000004,0.09046936,-29.4538,-1.0,0.4934237,0.6092354,0.8166734999999999,0.0,0.0,0.0,33.805040000000005,2.566177,-30.434140000000003,-1.0,0.4396794,0.5264933,-0.1771974999999999,1.305291,0.05466974,-0.07128624,-0.1043946999999999,0.09692252,5.587583,4.961731,31.79
4,-1.0,-1.0,-1.0,0.8905696,0.0,0.0,0.0,-32.958420000000004,-0.78862,-29.6461,-1.0,0.5846444000000001,0.6625454000000001,0.8166734999999999,0.0,0.0,0.0,34.15698,-0.3544312,-29.43581,-1.0,0.436529,0.6137229000000001,-0.1646819,1.307756,0.05620211,-0.07540093,-0.04907773,0.09883626,5.587583,-68.96942,31.79
4,-1.0,-1.0,-1.0,0.8905696,0.0,0.0,0.0,-32.958420000000004,-0.78862,-29.6461,-1.0,0.5846444000000001,0.6625454000000001,0.8166734999999999,0.0,0.0,0.0,34.15698,-0.3544312,-29.43581,-1.0,0.436529,0.6137229000000001,-0.1646819,1.307756,0.05620211,-0.07540093,-0.04907773,0.09883626,5.587583,-68.96942,31.79
4,-1.0,-1.0,-1.0,0.8905696,0.0,0.0,0.0,-32.958420000000004,-0.78862,-29.6461,-1.0,0.5846444000000001,0.6625454000000001,0.8166734999999999,0.0,0.0,0.0,34.15698,-0.3544312,-29.43581,-1.0,0.436529,0.6137229000000001,-0.1646819,1.307756,0.05620211,-0.07540093,-0.04907773,0.09883626,5.587583,-68.96942,31.79
4,-1.0,-1.0,-1.0,0.7287694,0.0,0.0,0.0,-32.958420000000004,-0.78862,-29.6461,-1.0,-1.0,-1.0,0.52637,0.0,0.0,0.0,34.15698,-0.3544312,-29.43581,-1.0,0.5658036,0.6822863,-0.1510665,1.310969,0.05593646,-0.0795463999999999,0.01704095,0.09542526,5.587583,-68.96942,31.79
4,-1.0,-1.0,-1.0,0.7287694,0.0,0.0,0.0,-32.958420000000004,-0.78862,-29.6461,-1.0,-1.0,-1.0,0.52637,0.0,0.0,0.0,34.15698,-0.3544312,-29.43581,-1.0,0.5658036,0.6822863,-0.1510665,1.310969,0.05593646,-0.0795463999999999,0.01704095,0.09542526,5.587583,-68.96942,31.79
4,-1.0,-1.0,-1.0,0.7287694,0.0,0.0,0.0,-32.958420000000004,-0.78862,-29.6461,-1.0,-1.0,-1.0,0.52637,0.0,0.0,0.0,34.15698,-0.3544312,-29.43581,-1.0,0.5658036,0.6822863,-0.1510665,1.310969,0.05593646,-0.0795463999999999,0.01704095,0.09542526,5.587583,-68.96942,31.79
4,-1.0,-1.0,-1.0,0.7164147,0.0,0.0,0.0,-32.958420000000004,-0.78862,-29.6461,-1.0,-1.0,-1.0,0.5271958000000001,0.0,0.0,0.0,30.702040000000004,0.4954987,-29.5388,-1.0,0.6038051999999999,0.6094173,-0.1367837999999999,1.312135,0.05279529,-0.07516152,0.08702517,0.0978608999999999,5.587583,-68.96942,31.79
4,-1.0,-1.0,-1.0,0.7164147,0.0,0.0,0.0,-32.958420000000004,-0.78862,-29.6461,-1.0,-1.0,-1.0,0.5271958000000001,0.0,0.0,0.0,30.702040000000004,0.4954987,-29.5388,-1.0,0.6038051999999999,0.6094173,-0.1367837999999999,1.312135,0.05279529,-0.07516152,0.08702517,0.0978608999999999,5.587583,-68.96942,31.79
4,-1.0,-1.0,-1.0,0.7164147,0.0,0.0,0.0,-32.958420000000004,-0.78862,-29.6461,-1.0,-1.0,-1.0,0.5271958000000001,0.0,0.0,0.0,30.702040000000004,0.4954987,-29.5388,-1.0,0.6038051999999999,0.6094173,-0.1367837999999999,1.312135,0.05279529,-0.07516152,0.08702517,0.0978608999999999,5.587583,-68.96942,31.79
4,-1.0,-1.0,-1.0,0.946927,0.0,0.0,0.0,-32.958420000000004,-0.78862,-29.6461,-1.0,-1.0,-1.0,0.6959993,0.0,0.0,0.0,30.51018,0.6488495,-29.38397,-1.0,0.5861318,0.6205411999999999,-0.1222212,1.313261,0.04745799,-0.07082687,0.1610616,0.107466,5.587583,-68.96942,31.79
4,-1.0,-1.0,-1.0,0.946927,0.0,0.0,0.0,-32.958420000000004,-0.78862,-29.6461,-1.0,-1.0,-1.0,0.6959993,0.0,0.0,0.0,30.51018,0.6488495,-29.38397,-1.0,0.5861318,0.6205411999999999,-0.1222212,1.313261,0.04745799,-0.07082687,0.1610616,0.107466,5.587583,-68.96942,31.79
4,-1.0,-1.0,-1.0,0.946927,0.0,0.0,0.0,-32.958420000000004,-0.78862,-29.6461,-1.0,-1.0,-1.0,0.6959993,0.0,0.0,0.0,30.51018,0.6488495,-29.38397,-1.0,0.5861318,0.6205411999999999,-0.1222212,1.313261,0.04745799,-0.07082687,0.1610616,0.107466,5.587583,-68.96942,31.79
4,-1.0,-1.0,-1.0,0.946927,0.0,0.0,0.0,-32.958420000000004,-0.78862,-29.6461,-1.0,-1.0,-1.0,0.6959993,0.0,0.0,0.0,30.51018,0.6488495,-29.38397,-1.0,0.5861318,0.6205411999999999,-0.1088793,1.315587,0.03955227,-0.06931122,0.2392563,0.1131418999999999,5.587583,-130.6844,31.79
4,-1.0,-1.0,-1.0,0.946927,0.0,0.0,0.0,-32.958420000000004,-0.78862,-29.6461,-1.0,-1.0,-1.0,0.6959993,0.0,0.0,0.0,30.51018,0.6488495,-29.38397,-1.0,0.5861318,0.6205411999999999,-0.1088793,1.315587,0.03955227,-0.06931122,0.2392563,0.1131418999999999,5.587583,-130.6844,31.79
4,-1.0,-1.0,-1.0,0.946927,0.0,0.0,0.0,-32.958420000000004,-0.78862,-29.6461,-1.0,-1.0,-1.0,0.6959993,0.0,0.0,0.0,30.51018,0.6488495,-29.38397,-1.0,0.5861318,0.6205411999999999,-0.1088793,1.315587,0.03955227,-0.06931122,0.2392563,0.1131418999999999,5.587583,-130.6844,31.79
4,-1.0,-1.0,-1.0,0.9870401,0.0,0.0,0.0,-34.570370000000004,1.123245,-30.17245,-1.0,0.6771461,0.5634456999999999,0.9988755,0.0,0.0,0.0,29.8611,2.285324,-29.82439,-1.0,0.6453308000000001,0.5079756,-0.08723044,1.319422,0.01722467,-0.06750135,0.3826079,0.1214156999999999,5.587583,-130.6844,31.79
4,-1.0,-1.0,-1.0,0.9870401,0.0,0.0,0.0,-34.570370000000004,1.123245,-30.17245,-1.0,0.6771461,0.5634456999999999,0.9988755,0.0,0.0,0.0,29.8611,2.285324,-29.82439,-1.0,0.6453308000000001,0.5079756,-0.08723044,1.319422,0.01722467,-0.06750135,0.3826079,0.1214156999999999,5.587583,-130.6844,31.79
4,-1.0,-1.0,-1.0,0.9870401,0.0,0.0,0.0,-34.570370000000004,1.123245,-30.17245,-1.0,0.6771461,0.5634456999999999,0.9988755,0.0,0.0,0.0,29.8611,2.285324,-29.82439,-1.0,0.6453308000000001,0.5079756,-0.08723044,1.319422,0.01722467,-0.06750135,0.3826079,0.1214156999999999,5.587583,-130.6844,31.79
4,-1.0,-1.0,-1.0,1.0,0.0,0.0,0.0,-33.91623,1.440704,-29.88048,-1.0,0.66005,0.569712,1.0,0.0,0.0,0.0,30.84892,2.342087,-29.584,-1.0,0.6212938,0.5079561,-0.0800693,1.320976,0.003997624,-0.06848514,0.4453873,0.1228234,5.587583,-130.6844,31.79
4,-1.0,-1.0,-1.0,1.0,0.0,0.0,0.0,-33.91623,1.440704,-29.88048,-1.0,0.66005,0.569712,1.0,0.0,0.0,0.0,30.84892,2.342087,-29.584,-1.0,0.6212938,0.5079561,-0.0800693,1.320976,0.003997624,-0.06848514,0.4453873,0.1228234,5.587583,-130.6844,31.79
4,-1.0,-1.0,-1.0,1.0,0.0,0.0,0.0,-33.91623,1.440704,-29.88048,-1.0,0.66005,0.569712,1.0,0.0,0.0,0.0,30.84892,2.342087,-29.584,-1.0,0.6212938,0.5079561,-0.0800693,1.320976,0.003997624,-0.06848514,0.4453873,0.1228234,5.587583,-130.6844,31.79
4,-0.2853394,-0.08551025,0.9545898000000002,1.0,-0.2927856,-0.09724426,0.9512024,-32.89012,1.316086,-29.43173,4.115875,0.5908561999999999,0.5698154999999999,1.0,-0.2763977,-0.07151794,0.958374,31.94847,2.482635,-29.0498,4.937088,0.5546061999999999,0.5107379,-0.07503796,1.322798,-0.009306192,-0.07313368,0.5017682,0.1172019,5.587583,-130.6844,31.79
4,-0.2853394,-0.08551025,0.9545898000000002,1.0,-0.2927856,-0.09724426,0.9512024,-32.89012,1.316086,-29.43173,4.115875,0.5908561999999999,0.5698154999999999,1.0,-0.2763977,-0.07151794,0.958374,31.94847,2.482635,-29.0498,4.937088,0.5546061999999999,0.5107379,-0.07503796,1.322798,-0.009306192,-0.07313368,0.5017682,0.1172019,5.587583,-130.6844,31.79
4,-0.2853394,-0.08551025,0.9545898000000002,1.0,-0.2927856,-0.09724426,0.9512024,-32.89012,1.316086,-29.43173,4.115875,0.5908561999999999,0.5698154999999999,1.0,-0.2763977,-0.07151794,0.958374,31.94847,2.482635,-29.0498,4.937088,0.5546061999999999,0.5107379,-0.07503796,1.322798,-0.009306192,-0.07313368,0.5017682,0.1172019,5.587583,-130.6844,31.79
4,-0.5105438,-0.1838684,0.8399506,1.0,-0.5299835,-0.2338562,0.8151093,-33.30859,0.863266,-29.62157,4.013626,0.6366323,0.6081109,1.0,-0.4601746,-0.06878662,0.8851471,31.54518,1.863113,-29.33501,5.047104,0.5902672,0.5365788,-0.0715486999999999,1.323021,-0.02263588,-0.0768838999999999,0.5528434,0.1087635,5.587583,-130.6844,31.79
4,-0.5105438,-0.1838684,0.8399506,1.0,-0.5299835,-0.2338562,0.8151093,-33.30859,0.863266,-29.62157,4.013626,0.6366323,0.6081109,1.0,-0.4601746,-0.06878662,0.8851471,31.54518,1.863113,-29.33501,5.047104,0.5902672,0.5365788,-0.0715486999999999,1.323021,-0.02263588,-0.0768838999999999,0.5528434,0.1087635,5.587583,-130.6844,31.79
4,-0.5105438,-0.1838684,0.8399506,1.0,-0.5299835,-0.2338562,0.8151093,-33.30859,0.863266,-29.62157,4.013626,0.6366323,0.6081109,1.0,-0.4601746,-0.06878662,0.8851471,31.54518,1.863113,-29.33501,5.047104,0.5902672,0.5365788,-0.0715486999999999,1.323021,-0.02263588,-0.0768838999999999,0.5528434,0.1087635,5.587583,-130.6844,31.79
4,-0.336853,-0.05288696,0.9400635,1.0,-0.4614563,-0.1726227,0.8701935,-32.86475,0.7141876,-29.50058,4.284363,0.6115605,0.6028551999999999,1.0,-0.3105164,-0.02870178,0.950119,31.730320000000003,1.680466,-29.25256,5.123871,0.5658073,0.5352089,-0.06985331,1.32283,-0.03569162,-0.07974878,0.5983019,0.09857225,5.587583,-73.08932,31.79
4,-0.336853,-0.05288696,0.9400635,1.0,-0.4614563,-0.1726227,0.8701935,-32.86475,0.7141876,-29.50058,4.284363,0.6115605,0.6028551999999999,1.0,-0.3105164,-0.02870178,0.950119,31.730320000000003,1.680466,-29.25256,5.123871,0.5658073,0.5352089,-0.06985331,1.32283,-0.03569162,-0.07974878,0.5983019,0.09857225,5.587583,-73.08932,31.79
4,-0.336853,-0.05288696,0.9400635,1.0,-0.4614563,-0.1726227,0.8701935,-32.86475,0.7141876,-29.50058,4.284363,0.6115605,0.6028551999999999,1.0,-0.3105164,-0.02870178,0.950119,31.730320000000003,1.680466,-29.25256,5.123871,0.5658073,0.5352089,-0.06985331,1.32283,-0.03569162,-0.07974878,0.5983019,0.09857225,5.587583,-73.08932,31.79
4,-0.2652435,-0.1461182,0.9530334,1.0,-0.2788696,-0.1605377,0.9468079,-32.16812,0.5494385,-28.58009,4.188477,0.5634638000000001,0.5956646,1.0,-0.1718292,-0.04873657,0.9839171999999998,32.60605,2.245239,-30.37752,5.312836,0.5195422000000001,0.5270676999999999,-0.06951857,1.322117,-0.04747218,-0.0838528,0.6345288,0.09129146,5.587583,-73.08932,31.79
4,-0.2652435,-0.1461182,0.9530334,1.0,-0.2788696,-0.1605377,0.9468079,-32.16812,0.5494385,-28.58009,4.188477,0.5634638000000001,0.5956646,1.0,-0.1718292,-0.04873657,0.9839171999999998,32.60605,2.245239,-30.37752,5.312836,0.5195422000000001,0.5270676999999999,-0.06951857,1.322117,-0.04747218,-0.0838528,0.6345288,0.09129146,5.587583,-73.08932,31.79
4,-0.2652435,-0.1461182,0.9530334,1.0,-0.2788696,-0.1605377,0.9468079,-32.16812,0.5494385,-28.58009,4.188477,0.5634638000000001,0.5956646,1.0,-0.1718292,-0.04873657,0.9839171999999998,32.60605,2.245239,-30.37752,5.312836,0.5195422000000001,0.5270676999999999,-0.06951857,1.322117,-0.04747218,-0.0838528,0.6345288,0.09129146,5.587583,-73.08932,31.79
4,-0.2926636,-0.1923676,0.9366608,1.0,-0.2926636,-0.1923676,0.9366608,-31.95151,0.4916382,-28.78714,4.1763,0.5578991,0.6036767,1.0,-0.149292,-0.09315491,0.9843903,32.9109,1.7664490000000002,-28.89143,5.137633999999999,0.5066973,0.5349798000000001,-0.06986189,1.32131,-0.05800778,-0.08621872,0.6652009,0.08628938,5.587583,-73.08932,31.79
4,-0.2926636,-0.1923676,0.9366608,1.0,-0.2926636,-0.1923676,0.9366608,-31.95151,0.4916382,-28.78714,4.1763,0.5578991,0.6036767,1.0,-0.149292,-0.09315491,0.9843903,32.9109,1.7664490000000002,-28.89143,5.137633999999999,0.5066973,0.5349798000000001,-0.06986189,1.32131,-0.05800778,-0.08621872,0.6652009,0.08628938,5.587583,-73.08932,31.79
4,-0.2926636,-0.1923676,0.9366608,1.0,-0.2926636,-0.1923676,0.9366608,-31.95151,0.4916382,-28.78714,4.1763,0.5578991,0.6036767,1.0,-0.149292,-0.09315491,0.9843903,32.9109,1.7664490000000002,-28.89143,5.137633999999999,0.5066973,0.5349798000000001,-0.06986189,1.32131,-0.05800778,-0.08621872,0.6652009,0.08628938,5.587583,-73.08932,31.79
4,-0.1751556,-0.2277069,0.95784,1.0,-0.1751709,-0.2277069,0.9578247,-31.552090000000003,0.4736023,-29.20079,3.962082,0.5299911999999999,0.6116852,1.0,-0.03837585,-0.1199188,0.9920349,33.23488,1.59874,-28.62047,4.914322,0.4832197,0.5406041,-0.07028604,1.320791,-0.0662905,-0.08981697,0.6902239,0.08017456,5.587583,-73.08932,31.79
4,-0.1751556,-0.2277069,0.95784,1.0,-0.1751709,-0.2277069,0.9578247,-31.552090000000003,0.4736023,-29.20079,3.962082,0.5299911999999999,0.6116852,1.0,-0.03837585,-0.1199188,0.9920349,33.23488,1.59874,-28.62047,4.914322,0.4832197,0.5406041,-0.07028604,1.320791,-0.0662905,-0.08981697,0.6902239,0.08017456,5.587583,-73.08932,31.79
4,-0.1751556,-0.2277069,0.95784,1.0,-0.1751709,-0.2277069,0.9578247,-31.552090000000003,0.4736023,-29.20079,3.962082,0.5299911999999999,0.6116852,1.0,-0.03837585,-0.1199188,0.9920349,33.23488,1.59874,-28.62047,4.914322,0.4832197,0.5406041,-0.07028604,1.320791,-0.0662905,-0.08981697,0.6902239,0.08017456,5.587583,-73.08932,31.79
4,-0.1654205,-0.2216339,0.9609833,1.0,-0.1657715,-0.2219391,0.9608612,-31.42209,0.3897095,-28.7807,4.074493,0.5241971,0.6097412,1.0,-0.03590393,-0.1109618999999999,0.9931641,33.39003,1.6553650000000002,-28.8801,4.898865,0.4776214,0.5398702,-0.07081676,1.319935,-0.07212895,-0.08929675,0.7050864,0.0766829,5.587583,0.6936646,31.79
4,-0.1654205,-0.2216339,0.9609833,1.0,-0.1657715,-0.2219391,0.9608612,-31.42209,0.3897095,-28.7807,4.074493,0.5241971,0.6097412,1.0,-0.03590393,-0.1109618999999999,0.9931641,33.39003,1.6553650000000002,-28.8801,4.898865,0.4776214,0.5398702,-0.07081676,1.319935,-0.07212895,-0.08929675,0.7050864,0.0766829,5.587583,0.6936646,31.79
4,-0.1654205,-0.2216339,0.9609833,1.0,-0.1657715,-0.2219391,0.9608612,-31.42209,0.3897095,-28.7807,4.074493,0.5241971,0.6097412,1.0,-0.03590393,-0.1109618999999999,0.9931641,33.39003,1.6553650000000002,-28.8801,4.898865,0.4776214,0.5398702,-0.07081676,1.319935,-0.07212895,-0.08929675,0.7050864,0.0766829,5.587583,0.6936646,31.79
4,-0.04804993,-0.1348724,0.9896851,1.0,-0.1367187999999999,-0.2049407999999999,0.969162,-31.28993,0.4512787,-28.916090000000004,4.13591,0.5162309,0.6066769000000001,1.0,-0.02005005,-0.1124878,0.9934387,33.56831,1.50145,-28.37743,4.799805,0.4700119,0.540606,-0.07064795,1.3191700000000002,-0.07604331,-0.0871938,0.7137607,0.07474427,5.587583,0.6936646,31.79
4,-0.04804993,-0.1348724,0.9896851,1.0,-0.1367187999999999,-0.2049407999999999,0.969162,-31.28993,0.4512787,-28.916090000000004,4.13591,0.5162309,0.6066769000000001,1.0,-0.02005005,-0.1124878,0.9934387,33.56831,1.50145,-28.37743,4.799805,0.4700119,0.540606,-0.07064795,1.3191700000000002,-0.07604331,-0.0871938,0.7137607,0.07474427,5.587583,0.6936646,31.79
4,-0.04804993,-0.1348724,0.9896851,1.0,-0.1367187999999999,-0.2049407999999999,0.969162,-31.28993,0.4512787,-28.916090000000004,4.13591,0.5162309,0.6066769000000001,1.0,-0.02005005,-0.1124878,0.9934387,33.56831,1.50145,-28.37743,4.799805,0.4700119,0.540606,-0.07064795,1.3191700000000002,-0.07604331,-0.0871938,0.7137607,0.07474427,5.587583,0.6936646,31.79
4,-0.002441406,-0.1642914,0.9864044,1.0,-0.02197266,-0.1618957999999999,0.986557,-30.69115,0.4761962999999999,-28.90469,4.278702,0.4820877,0.6001258,1.0,0.1133117999999999,-0.1771698,0.9776306,34.233340000000005,1.629471,-28.62408,4.73703,0.431955,0.5457364,-0.07015872,1.319785,-0.07865506,-0.09100197,0.7172859,0.07578526,5.587583,0.6936646,31.79
4,-0.002441406,-0.1642914,0.9864044,1.0,-0.02197266,-0.1618957999999999,0.986557,-30.69115,0.4761962999999999,-28.90469,4.278702,0.4820877,0.6001258,1.0,0.1133117999999999,-0.1771698,0.9776306,34.233340000000005,1.629471,-28.62408,4.73703,0.431955,0.5457364,-0.07015872,1.319785,-0.07865506,-0.09100197,0.7172859,0.07578526,5.587583,0.6936646,31.79
4,-0.002441406,-0.1642914,0.9864044,1.0,-0.02197266,-0.1618957999999999,0.986557,-30.69115,0.4761962999999999,-28.90469,4.278702,0.4820877,0.6001258,1.0,0.1133117999999999,-0.1771698,0.9776306,34.233340000000005,1.629471,-28.62408,4.73703,0.431955,0.5457364,-0.07015872,1.319785,-0.07865506,-0.09100197,0.7172859,0.07578526,5.587583,0.6936646,31.79
4,-1.0,-1.0,-1.0,0.9783994,0.0,0.0,0.0,-30.1579,1.811508,-30.90594,-1.0,0.4559803,0.5543505,0.9843451,0.0,0.0,0.0,34.50294,2.842728,-29.55846,-1.0,0.4076488,0.4926170999999999,-0.06983185,1.3216629999999998,-0.0798437,-0.09877635,0.7132029000000001,0.08756914,5.587583,0.6936646,31.79
4,-1.0,-1.0,-1.0,0.9783994,0.0,0.0,0.0,-30.1579,1.811508,-30.90594,-1.0,0.4559803,0.5543505,0.9843451,0.0,0.0,0.0,34.50294,2.842728,-29.55846,-1.0,0.4076488,0.4926170999999999,-0.06983185,1.3216629999999998,-0.0798437,-0.09877635,0.7132029000000001,0.08756914,5.587583,0.6936646,31.79
4,-1.0,-1.0,-1.0,0.9783994,0.0,0.0,0.0,-30.1579,1.811508,-30.90594,-1.0,0.4559803,0.5543505,0.9843451,0.0,0.0,0.0,34.50294,2.842728,-29.55846,-1.0,0.4076488,0.4926170999999999,-0.06983185,1.3216629999999998,-0.0798437,-0.09877635,0.7132029000000001,0.08756914,5.587583,0.6936646,31.79
4,0.2329712,0.03286743,0.9719238,0.9719887,0.05915833,-0.009536743,0.9981995,-30.40617,1.479568,-30.27002,4.50174,0.4632962,0.5602831,0.9808787,0.2329864999999999,0.03286743,0.9719086,34.521840000000005,2.460159,-29.09358,5.0508120000000005,0.4080304,0.4973654999999999,-0.06961751,1.32276,-0.07992405,-0.1013218,0.7102345999999999,0.09613775,5.587583,0.6936646,31.79
4,0.2329712,0.03286743,0.9719238,0.9719887,0.05915833,-0.009536743,0.9981995,-30.40617,1.479568,-30.27002,4.50174,0.4632962,0.5602831,0.9808787,0.2329864999999999,0.03286743,0.9719086,34.521840000000005,2.460159,-29.09358,5.0508120000000005,0.4080304,0.4973654999999999,-0.06961751,1.32276,-0.07992405,-0.1013218,0.7102345999999999,0.09613775,5.587583,0.6936646,31.79
4,0.2329712,0.03286743,0.9719238,0.9719887,0.05915833,-0.009536743,0.9981995,-30.40617,1.479568,-30.27002,4.50174,0.4632962,0.5602831,0.9808787,0.2329864999999999,0.03286743,0.9719086,34.521840000000005,2.460159,-29.09358,5.0508120000000005,0.4080304,0.4973654999999999,-0.06961751,1.32276,-0.07992405,-0.1013218,0.7102345999999999,0.09613775,5.587583,0.6936646,31.79
4,0.2324219,0.05656433,0.9709625,1.0,0.05931091,0.01583862,0.9981079,-30.44652,1.40303,-30.23537,4.562973,0.46474,0.5596715,1.0,0.2327576,0.05664063,0.970871,34.49109,2.436523,-29.13506,5.143127,0.4090294,0.4958840999999999,-0.06936407,1.323291,-0.08029735,-0.1023376999999999,0.708334,0.1014558,5.587583,28.9115,31.79
4,0.2324219,0.05656433,0.9709625,1.0,0.05931091,0.01583862,0.9981079,-30.44652,1.40303,-30.23537,4.562973,0.46474,0.5596715,1.0,0.2327576,0.05664063,0.970871,34.49109,2.436523,-29.13506,5.143127,0.4090294,0.4958840999999999,-0.06936407,1.323291,-0.08029735,-0.1023376999999999,0.708334,0.1014558,5.587583,28.9115,31.79
4,0.2324219,0.05656433,0.9709625,1.0,0.05931091,0.01583862,0.9981079,-30.44652,1.40303,-30.23537,4.562973,0.46474,0.5596715,1.0,0.2327576,0.05664063,0.970871,34.49109,2.436523,-29.13506,5.143127,0.4090294,0.4958840999999999,-0.06936407,1.323291,-0.08029735,-0.1023376999999999,0.708334,0.1014558,5.587583,28.9115,31.79
4,0.2324219,0.05656433,0.9709625,1.0,0.05931091,0.01583862,0.9981079,-30.44652,1.40303,-30.23537,4.562973,0.46474,0.5596715,1.0,0.2327576,0.05664063,0.970871,34.49109,2.436523,-29.13506,5.143127,0.4090294,0.4958840999999999,-0.06901288,1.32332,-0.08069474,-0.1020544999999999,0.7078838000000001,0.1032115,5.587583,28.9115,31.79
4,0.2324219,0.05656433,0.9709625,1.0,0.05931091,0.01583862,0.9981079,-30.44652,1.40303,-30.23537,4.562973,0.46474,0.5596715,1.0,0.2327576,0.05664063,0.970871,34.49109,2.436523,-29.13506,5.143127,0.4090294,0.4958840999999999,-0.06901288,1.32332,-0.08069474,-0.1020544999999999,0.7078838000000001,0.1032115,5.587583,28.9115,31.79
4,0.2324219,0.05656433,0.9709625,1.0,0.05931091,0.01583862,0.9981079,-30.44652,1.40303,-30.23537,4.562973,0.46474,0.5596715,1.0,0.2327576,0.05664063,0.970871,34.49109,2.436523,-29.13506,5.143127,0.4090294,0.4958840999999999,-0.06901288,1.32332,-0.08069474,-0.1020544999999999,0.7078838000000001,0.1032115,5.587583,28.9115,31.79
4,0.217926,0.06245422,0.9739532,1.0,0.05000305,0.02095032,0.9985199,-30.52095,1.201523,-29.866640000000004,4.681091,0.4684847,0.5627165,1.0,0.2552948,0.07165527,0.9641876,34.35201,2.520813,-29.61462,5.284592,0.4106315,0.4956720999999999,-0.06812692,1.322936,-0.08152074,-0.1014905,0.7093396,0.1018215,5.587583,28.9115,31.79
4,0.217926,0.06245422,0.9739532,1.0,0.05000305,0.02095032,0.9985199,-30.52095,1.201523,-29.866640000000004,4.681091,0.4684847,0.5627165,1.0,0.2552948,0.07165527,0.9641876,34.35201,2.520813,-29.61462,5.284592,0.4106315,0.4956720999999999,-0.06812692,1.322936,-0.08152074,-0.1014905,0.7093396,0.1018215,5.587583,28.9115,31.79
4,0.217926,0.06245422,0.9739532,1.0,0.05000305,0.02095032,0.9985199,-30.52095,1.201523,-29.866640000000004,4.681091,0.4684847,0.5627165,1.0,0.2552948,0.07165527,0.9641876,34.35201,2.520813,-29.61462,5.284592,0.4106315,0.4956720999999999,-0.06812692,1.322936,-0.08152074,-0.1014905,0.7093396,0.1018215,5.587583,28.9115,31.79
4,0.217926,0.06245422,0.9739532,1.0,0.05000305,0.02095032,0.9985199,-30.52095,1.201523,-29.866640000000004,4.681091,0.4684847,0.5627165,1.0,0.2552948,0.07165527,0.9641876,34.35201,2.520813,-29.61462,5.284592,0.4106315,0.4956720999999999,-0.06675649,1.322171,-0.0828764999999999,-0.09971052,0.7126927,0.0992268,5.587583,28.9115,31.79
4,0.217926,0.06245422,0.9739532,1.0,0.05000305,0.02095032,0.9985199,-30.52095,1.201523,-29.866640000000004,4.681091,0.4684847,0.5627165,1.0,0.2552948,0.07165527,0.9641876,34.35201,2.520813,-29.61462,5.284592,0.4106315,0.4956720999999999,-0.06675649,1.322171,-0.0828764999999999,-0.09971052,0.7126927,0.0992268,5.587583,28.9115,31.79
4,0.217926,0.06245422,0.9739532,1.0,0.05000305,0.02095032,0.9985199,-30.52095,1.201523,-29.866640000000004,4.681091,0.4684847,0.5627165,1.0,0.2552948,0.07165527,0.9641876,34.35201,2.520813,-29.61462,5.284592,0.4106315,0.4956720999999999,-0.06675649,1.322171,-0.0828764999999999,-0.09971052,0.7126927,0.0992268,5.587583,28.9115,31.79
4,0.1172637999999999,-0.07643127,0.9901428,1.0,0.0579071,-0.09988403,0.9933014,-31.08987,0.535553,-28.93134,4.397995,0.4865876,0.5910218,1.0,0.2372589,-0.0274353,0.9710541,33.92673,2.027618,-28.49168,4.996048,0.4281395,0.5139071,-0.06050158,1.321253,-0.089899,-0.0997731999999999,0.7341747,0.09520608,5.541452,3.41095,31.79
4,0.1172637999999999,-0.07643127,0.9901428,1.0,0.0579071,-0.09988403,0.9933014,-31.08987,0.535553,-28.93134,4.397995,0.4865876,0.5910218,1.0,0.2372589,-0.0274353,0.9710541,33.92673,2.027618,-28.49168,4.996048,0.4281395,0.5139071,-0.06050158,1.321253,-0.089899,-0.0997731999999999,0.7341747,0.09520608,5.541452,3.41095,31.79
4,0.1172637999999999,-0.07643127,0.9901428,1.0,0.0579071,-0.09988403,0.9933014,-31.08987,0.535553,-28.93134,4.397995,0.4865876,0.5910218,1.0,0.2372589,-0.0274353,0.9710541,33.92673,2.027618,-28.49168,4.996048,0.4281395,0.5139071,-0.06050158,1.321253,-0.089899,-0.0997731999999999,0.7341747,0.09520608,5.541452,3.41095,31.79
4,0.1364136,-0.08197021,0.9872437,1.0,0.08044434,-0.1146698,0.9901276,-30.94162,0.5434418000000001,-29.06218,4.45961,0.4789014,0.5938254,1.0,0.2639008,-0.004852295,0.9645233,34.0975,2.060638,-28.72356,5.124237,0.4189791,0.5123340000000001,-0.05820894,1.320481,-0.09236646,-0.09903292,0.7412598000000001,0.09350303,5.541452,3.41095,31.79
4,0.1364136,-0.08197021,0.9872437,1.0,0.08044434,-0.1146698,0.9901276,-30.94162,0.5434418000000001,-29.06218,4.45961,0.4789014,0.5938254,1.0,0.2639008,-0.004852295,0.9645233,34.0975,2.060638,-28.72356,5.124237,0.4189791,0.5123340000000001,-0.05820894,1.320481,-0.09236646,-0.09903292,0.7412598000000001,0.09350303,5.541452,3.41095,31.79
4,0.1364136,-0.08197021,0.9872437,1.0,0.08044434,-0.1146698,0.9901276,-30.94162,0.5434418000000001,-29.06218,4.45961,0.4789014,0.5938254,1.0,0.2639008,-0.004852295,0.9645233,34.0975,2.060638,-28.72356,5.124237,0.4189791,0.5123340000000001,-0.05820894,1.320481,-0.09236646,-0.09903292,0.7412598000000001,0.09350303,5.541452,3.41095,31.79
4,0.126709,-0.09394836,0.9874725,1.0,0.08216858,-0.1052246,0.9910431,-30.927670000000003,0.5467377,-29.0878,4.493576,0.478267,0.5928414000000001,1.0,0.2724915,-0.05514526,0.9605713,34.131609999999995,2.030548,-28.67741,5.110869999999999,0.4167903,0.518788,-0.05820894,1.320481,-0.09236646,-0.09903292,0.7412598000000001,0.09350303,5.541452,3.41095,31.79
4,0.126709,-0.09394836,0.9874725,1.0,0.08216858,-0.1052246,0.9910431,-30.927670000000003,0.5467377,-29.0878,4.493576,0.478267,0.5928414000000001,1.0,0.2724915,-0.05514526,0.9605713,34.131609999999995,2.030548,-28.67741,5.110869999999999,0.4167903,0.518788,-0.05820894,1.320481,-0.09236646,-0.09903292,0.7412598000000001,0.09350303,5.541452,3.41095,31.79
4,0.126709,-0.09394836,0.9874725,1.0,0.08216858,-0.1052246,0.9910431,-30.927670000000003,0.5467377,-29.0878,4.493576,0.478267,0.5928414000000001,1.0,0.2724915,-0.05514526,0.9605713,34.131609999999995,2.030548,-28.67741,5.110869999999999,0.4167903,0.518788,-0.05820894,1.320481,-0.09236646,-0.09903292,0.7412598000000001,0.09350303,5.541452,3.41095,31.79
5,0.126709,-0.09394836,0.9874725,1.0,0.08216858,-0.1052246,0.9910431,-30.927670000000003,0.5467377,-29.0878,4.493576,0.478267,0.5928414000000001,1.0,0.2724915,-0.05514526,0.9605713,34.131609999999995,2.030548,-28.67741,5.110869999999999,0.4167903,0.518788,-0.0560658,1.320052,-0.09481114,-0.100802,0.7466078,0.09004252,5.541452,3.41095,31.79
5,0.126709,-0.09394836,0.9874725,1.0,0.08216858,-0.1052246,0.9910431,-30.927670000000003,0.5467377,-29.0878,4.493576,0.478267,0.5928414000000001,1.0,0.2724915,-0.05514526,0.9605713,34.131609999999995,2.030548,-28.67741,5.110869999999999,0.4167903,0.518788,-0.0560658,1.320052,-0.09481114,-0.100802,0.7466078,0.09004252,5.541452,3.41095,31.79
5,0.126709,-0.09394836,0.9874725,1.0,0.08216858,-0.1052246,0.9910431,-30.927670000000003,0.5467377,-29.0878,4.493576,0.478267,0.5928414000000001,1.0,0.2724915,-0.05514526,0.9605713,34.131609999999995,2.030548,-28.67741,5.110869999999999,0.4167903,0.518788,-0.0560658,1.320052,-0.09481114,-0.100802,0.7466078,0.09004252,5.541452,3.41095,31.79
5,-0.0211792,-0.03674316,0.9990997,1.0,-0.04016113,-0.04112244,0.9983368,-31.29076,0.9755402,-29.20953,4.457657,0.5052585999999999,0.5715931,1.0,0.1057739,-0.0071716309999999,0.9943542,33.60825,2.396057,-28.50171,4.742279,0.4545172,0.4989826,-0.05167723,1.3195370000000002,-0.09995192,-0.1126497,0.7527307,0.07943626,5.541452,3.41095,31.79
5,-0.0211792,-0.03674316,0.9990997,1.0,-0.04016113,-0.04112244,0.9983368,-31.29076,0.9755402,-29.20953,4.457657,0.5052585999999999,0.5715931,1.0,0.1057739,-0.0071716309999999,0.9943542,33.60825,2.396057,-28.50171,4.742279,0.4545172,0.4989826,-0.05167723,1.3195370000000002,-0.09995192,-0.1126497,0.7527307,0.07943626,5.541452,3.41095,31.79
5,-0.0211792,-0.03674316,0.9990997,1.0,-0.04016113,-0.04112244,0.9983368,-31.29076,0.9755402,-29.20953,4.457657,0.5052585999999999,0.5715931,1.0,0.1057739,-0.0071716309999999,0.9943542,33.60825,2.396057,-28.50171,4.742279,0.4545172,0.4989826,-0.05167723,1.3195370000000002,-0.09995192,-0.1126497,0.7527307,0.07943626,5.541452,3.41095,31.79
5,0.01245117,-0.02296448,0.999649,1.0,-0.02365112,-0.03305054,0.9991608,-31.18335,0.890274,-29.09357,4.560532,0.4996622999999999,0.5725355,1.0,0.1263885,0.009078979,0.9919281,33.79161,2.345749,-28.487820000000003,4.976044,0.4457782,0.4988345999999999,-0.04996276,1.319495,-0.102141,-0.1183823,0.7526020999999999,0.0747508,5.541452,11.48517,31.79
5,0.01245117,-0.02296448,0.999649,1.0,-0.02365112,-0.03305054,0.9991608,-31.18335,0.890274,-29.09357,4.560532,0.4996622999999999,0.5725355,1.0,0.1263885,0.009078979,0.9919281,33.79161,2.345749,-28.487820000000003,4.976044,0.4457782,0.4988345999999999,-0.04996276,1.319495,-0.102141,-0.1183823,0.7526020999999999,0.0747508,5.541452,11.48517,31.79
5,0.01245117,-0.02296448,0.999649,1.0,-0.02365112,-0.03305054,0.9991608,-31.18335,0.890274,-29.09357,4.560532,0.4996622999999999,0.5725355,1.0,0.1263885,0.009078979,0.9919281,33.79161,2.345749,-28.487820000000003,4.976044,0.4457782,0.4988345999999999,-0.04996276,1.319495,-0.102141,-0.1183823,0.7526020999999999,0.0747508,5.541452,11.48517,31.79
