Second,eye_comb_direction_x,eye_comb_direction_y,eye_comb_direction_z,eye_r_openness,eye_r_direction_x,eye_r_direction_y,eye_r_direction_z,eye_r_origin_x,eye_r_origin_y,eye_r_origin_z,eye_r_pupil_diameter,eye_r_pupil_position_x,eye_r_pupil_position_y,eye_l_openness,eye_l_direction_x,eye_l_direction_y,eye_l_direction_z,eye_l_origin_x,eye_l_origin_y,eye_l_origin_z,eye_l_pupil_diameter,eye_l_pupil_position_x,eye_l_pupil_position_y,head_position_x,head_position_y,head_position_z,head_rotation_roll,head_rotation_pitch,head_rotation_yaw,EDA,BVP,TMP
0,0.0,0.0,0.0,0.0,0.0,0.0,0.0,0.0,0.0,0.0,0.0,0.0,0.0,0.0,0.0,0.0,0.0,0.0,0.0,0.0,0.0,0.0,0.0,0.0,0.0,0.0,0.0,0.0,0.0,2.2551958475845413,0.3725297975362319,31.544528985507245
0,-1.0,-1.0,-1.0,0.0,0.0,0.0,0.0,-26.30817,5.196396,-25.96217,-1.0,0.3645515,0.4638919,0.0,0.0,0.0,0.0,30.5571,5.563187,-27.2973,-1.0,-1.0,-1.0,0.03101099,1.283046,-0.4150305,-0.4745584,-0.163883,-0.06463782,2.2551958475845413,0.3725297975362319,31.544528985507245
1,-1.0,-1.0,-1.0,0.0,0.0,0.0,0.0,-25.52486,5.366516,-25.68799,-1.0,0.314308,0.447926,0.0,0.0,0.0,0.0,29.14166,4.752701,-27.78944,-1.0,0.6389416,0.4818595,0.01844323,1.267223,-0.3406501,-0.2477337,-0.06293172,-0.03433194,2.2551958475845413,0.3725297975362319,31.544528985507245
1,-1.0,-1.0,-1.0,0.0,0.0,0.0,0.0,-25.52486,5.366516,-25.68799,-1.0,0.314308,0.447926,0.0,0.0,0.0,0.0,29.14166,4.752701,-27.78944,-1.0,0.6389416,0.4818595,0.01844323,1.267223,-0.3406501,-0.2477337,-0.06293172,-0.03433194,2.2551958475845413,0.3725297975362319,31.544528985507245
1,-1.0,-1.0,-1.0,0.0,0.0,0.0,0.0,-25.52486,5.366516,-25.68799,-1.0,0.314308,0.447926,0.0,0.0,0.0,0.0,29.14166,4.752701,-27.78944,-1.0,0.6389416,0.4818595,0.01844323,1.267223,-0.3406501,-0.2477337,-0.06293172,-0.03433194,2.2551958475845413,0.3725297975362319,31.544528985507245
1,-1.0,-1.0,-1.0,0.0,0.0,0.0,0.0,-25.52486,5.366516,-25.68799,-1.0,0.314308,0.447926,0.0,0.0,0.0,0.0,29.14166,4.752701,-27.78944,-1.0,0.6389416,0.4818595,0.01844323,1.267223,-0.3406501,-0.2477337,-0.06293172,-0.03433194,2.2551958475845413,0.3725297975362319,31.544528985507245
1,-1.0,-1.0,-1.0,0.0,0.0,0.0,0.0,-25.52486,5.366516,-25.68799,-1.0,0.314308,0.447926,0.0,0.0,0.0,0.0,29.14166,4.752701,-27.78944,-1.0,0.6389416,0.4818595,0.01844323,1.267223,-0.3406501,-0.2477337,-0.06293172,-0.03433194,2.2551958475845413,0.3725297975362319,31.544528985507245
1,-1.0,-1.0,-1.0,0.0,0.0,0.0,0.0,-25.52486,5.366516,-25.68799,-1.0,0.314308,0.447926,0.0,0.0,0.0,0.0,29.14166,4.752701,-27.78944,-1.0,0.6389416,0.4818595,0.01844323,1.267223,-0.3406501,-0.2477337,-0.06293172,-0.03433194,2.2551958475845413,0.3725297975362319,31.544528985507245
1,-1.0,-1.0,-1.0,0.0,0.0,0.0,0.0,-25.52486,5.366516,-25.68799,-1.0,0.314308,0.447926,0.0,0.0,0.0,0.0,29.14166,4.752701,-27.78944,-1.0,0.6389416,0.4818595,0.01844323,1.267223,-0.3406501,-0.2477337,-0.06293172,-0.03433194,2.2551958475845413,0.3725297975362319,31.544528985507245
1,-1.0,-1.0,-1.0,0.0,0.0,0.0,0.0,-25.52486,5.366516,-25.68799,-1.0,0.314308,0.447926,0.0,0.0,0.0,0.0,29.14166,4.752701,-27.78944,-1.0,0.6389416,0.4818595,0.01844323,1.267223,-0.3406501,-0.2477337,-0.06293172,-0.03433194,2.2551958475845413,0.3725297975362319,31.544528985507245
1,-1.0,-1.0,-1.0,0.0,0.0,0.0,0.0,-25.52486,5.366516,-25.68799,-1.0,0.314308,0.447926,0.0,0.0,0.0,0.0,29.14166,4.752701,-27.78944,-1.0,0.6389416,0.4818595,0.01844323,1.267223,-0.3406501,-0.2477337,-0.06293172,-0.03433194,2.2551958475845413,0.3725297975362319,31.544528985507245
1,-1.0,-1.0,-1.0,0.0,0.0,0.0,0.0,-25.32941,7.260529,-25.08487,-1.0,-1.0,-1.0,0.0,0.0,0.0,0.0,30.0918,6.123367,-27.18881,-1.0,0.6063675,0.3913811,0.00816834,1.246355,-0.265919,-0.142136,-0.01304269,0.008354463,2.2551958475845413,0.3725297975362319,31.544528985507245
1,-1.0,-1.0,-1.0,0.0,0.0,0.0,0.0,-25.32941,7.260529,-25.08487,-1.0,-1.0,-1.0,0.0,0.0,0.0,0.0,30.0918,6.123367,-27.18881,-1.0,0.6063675,0.3913811,0.00816834,1.246355,-0.265919,-0.142136,-0.01304269,0.008354463,2.2551958475845413,0.3725297975362319,31.544528985507245
1,-1.0,-1.0,-1.0,0.0,0.0,0.0,0.0,-25.32941,7.260529,-25.08487,-1.0,-1.0,-1.0,0.0,0.0,0.0,0.0,30.0918,6.123367,-27.18881,-1.0,0.6063675,0.3913811,0.00816834,1.246355,-0.265919,-0.142136,-0.01304269,0.008354463,2.2551958475845413,0.3725297975362319,31.544528985507245
1,-1.0,-1.0,-1.0,0.0,0.0,0.0,0.0,-25.32941,7.260529,-25.08487,-1.0,-1.0,-1.0,0.0,0.0,0.0,0.0,30.0918,6.123367,-27.18881,-1.0,0.6063675,0.3913811,0.00816834,1.246355,-0.265919,-0.142136,-0.01304269,0.008354463,2.2551958475845413,0.3725297975362319,31.544528985507245
1,-1.0,-1.0,-1.0,0.0,0.0,0.0,0.0,-25.32941,7.260529,-25.08487,-1.0,-1.0,-1.0,0.0,0.0,0.0,0.0,30.0918,6.123367,-27.18881,-1.0,0.6063675,0.3913811,0.00816834,1.246355,-0.265919,-0.142136,-0.01304269,0.008354463,2.2551958475845413,0.3725297975362319,31.544528985507245
1,-1.0,-1.0,-1.0,0.0,0.0,0.0,0.0,-25.32941,7.260529,-25.08487,-1.0,-1.0,-1.0,0.0,0.0,0.0,0.0,30.0918,6.123367,-27.18881,-1.0,0.6063675,0.3913811,0.00816834,1.246355,-0.265919,-0.142136,-0.01304269,0.008354463,2.2551958475845413,0.3725297975362319,31.544528985507245
1,-1.0,-1.0,-1.0,0.2442638,0.0,0.0,0.0,-25.46762,7.409988,-25.11142,-1.0,0.3056521,0.365741,0.01408954,0.0,0.0,0.0,30.51018,7.959717,-29.59657,-1.0,0.5969255,0.3751417,0.01101947,1.246855,-0.2635994,-0.141444,-0.01412855,0.0084942,2.2551958475845413,0.3725297975362319,31.544528985507245
1,-1.0,-1.0,-1.0,0.2442638,0.0,0.0,0.0,-25.46762,7.409988,-25.11142,-1.0,0.3056521,0.365741,0.01408954,0.0,0.0,0.0,30.51018,7.959717,-29.59657,-1.0,0.5969255,0.3751417,0.01101947,1.246855,-0.2635994,-0.141444,-0.01412855,0.0084942,2.2551958475845413,0.3725297975362319,31.544528985507245
1,-0.01512146,-0.3825073,0.9238129,0.3945054,-0.01512146,-0.3825073,0.9238129,-25.69441,7.593781,-25.0842,3.977249,0.2989359,0.363925,0.1286901,-0.1073914,-0.3148956,0.9430237,30.48627,7.879364,-29.28313,4.763077,0.5954744,0.3750785,0.01216853,1.247059,-0.263125,-0.1409779,-0.01513672,0.009635053,2.2551958475845413,0.3725297975362319,31.544528985507245
1,-0.05627441,-0.3850861,0.9211426,0.5995631,-0.05627441,-0.3850861,0.9211426,-25.51953,7.561798,-25.00642,3.870026,0.3000327,0.3650669,0.3954785,-0.1292419,-0.2678986,0.9547272,30.51846,7.961655,-29.8248,5.013763,0.598861,0.3675988,0.01279318,1.247192,-0.2629374,-0.1407351,-0.01561785,0.0101744,2.2551958475845413,0.3725297975362319,31.544528985507245
1,-0.05627441,-0.3850861,0.9211426,0.5995631,-0.05627441,-0.3850861,0.9211426,-25.51953,7.561798,-25.00642,3.870026,0.3000327,0.3650669,0.3954785,-0.1292419,-0.2678986,0.9547272,30.51846,7.961655,-29.8248,5.013763,0.598861,0.3675988,0.01279318,1.247192,-0.2629374,-0.1407351,-0.01561785,0.0101744,2.2551958475845413,0.3725297975362319,31.544528985507245
1,-0.07020569,-0.3480072,0.934845,0.5995631,-0.07020569,-0.3480072,0.934845,-25.55975,7.531891,-25.01895,4.126984,0.3035378,0.3593357,0.3954785,-0.1350555,-0.4129639,0.9006653,30.46661,7.45224,-27.42178,3.992111,0.5989605,0.3933413,0.01410544,1.247456,-0.2626635,-0.1400325,-0.01638291,0.01090054,2.2551958475845413,-335.7775,31.544528985507245
1,-0.06463623,-0.3756561,0.9244843,0.7135473,-0.06463623,-0.3756561,0.9244843,-25.55884,7.512344,-25.02904,3.961243,0.3027048,0.3652274,0.4805684,-0.1520691,-0.3416138,0.9274445,30.40898,7.458694,-27.50485,4.420212,0.6038595,0.3802999,0.01538682,1.247692,-0.2624847,-0.139263,-0.01708723,0.01143037,2.2551958475845413,-335.7775,31.544528985507245
1,-0.06463623,-0.3756561,0.9244843,0.7135473,-0.06463623,-0.3756561,0.9244843,-25.55884,7.512344,-25.02904,3.961243,0.3027048,0.3652274,0.4805684,-0.1520691,-0.3416138,0.9274445,30.40898,7.458694,-27.50485,4.420212,0.6038595,0.3802999,0.01538682,1.247692,-0.2624847,-0.139263,-0.01708723,0.01143037,2.2551958475845413,-335.7775,31.544528985507245
1,-0.1062164,-0.3175049,0.942276,0.7135473,-0.1062164,-0.3175049,0.942276,-25.62906,7.49202,-25.07195,4.428635,0.3115489,0.3557486,0.4805684,-0.1264191,-0.2705841,0.9543457,30.43396,7.471924,-27.72244,5.115616,0.598953,0.368096,0.01605487,1.247718,-0.2624428,-0.1386508,-0.01745776,0.01139839,2.2551958475845413,-335.7775,31.544528985507245
1,-0.1062164,-0.3175049,0.942276,0.7135473,-0.1062164,-0.3175049,0.942276,-25.62906,7.49202,-25.07195,4.428635,0.3115489,0.3557486,0.4805684,-0.1264191,-0.2705841,0.9543457,30.43396,7.471924,-27.72244,5.115616,0.598953,0.368096,0.01605487,1.247718,-0.2624428,-0.1386508,-0.01745776,0.01139839,2.2551958475845413,-335.7775,31.544528985507245
1,-0.06755066,-0.3547974,0.9324951,0.7412092,-0.06755066,-0.3547974,0.9324951,-25.63998,7.426178,-25.06604,4.100281,0.3057552,0.3644992,0.5909326,-0.1617584,-0.2873688,0.944046,30.48003,7.411301,-27.54987,4.928925,0.6030817,0.3721381,0.0174408,1.247537,-0.2623892,-0.1371338,-0.01800568,0.01056948,2.2551958475845413,-335.7775,31.544528985507245
1,-0.09371948,-0.308075,0.9467163,0.7412092,-0.08575439,-0.3156738,0.9449768,-25.6683,7.3237,-25.18027,4.22084,0.309602,0.3619402,0.5909326,-0.1399689,-0.2630005,0.9545746,30.43565,7.400558,-27.5347,5.089767,0.6009519,0.3677843,0.01808798,1.247366,-0.2624161,-0.1364171,-0.01805032,0.01000307,2.2551958475845413,-335.7775,31.544528985507245
1,-0.09371948,-0.308075,0.9467163,0.7412092,-0.08575439,-0.3156738,0.9449768,-25.6683,7.3237,-25.18027,4.22084,0.309602,0.3619402,0.5909326,-0.1399689,-0.2630005,0.9545746,30.43565,7.400558,-27.5347,5.089767,0.6009519,0.3677843,0.01808798,1.247366,-0.2624161,-0.1364171,-0.01805032,0.01000307,2.2551958475845413,-335.7775,31.544528985507245
1,-0.08753967,-0.3256378,0.9414215,0.8112064,-0.07832336,-0.3360291,0.9385834,-25.74135,7.413269,-25.11723,4.065842,0.3109574,0.3621715,0.6027853,-0.127594,-0.2794342,0.9516296,30.42838,7.394669,-27.51469,5.161865,0.5990778,0.3706763,0.01937532,1.246781,-0.2624924,-0.1349831,-0.01783063,0.008863348,2.2551958475845413,-335.7775,31.544528985507245
1,-0.08753967,-0.3256378,0.9414215,0.8112064,-0.07832336,-0.3360291,0.9385834,-25.74135,7.413269,-25.11723,4.065842,0.3109574,0.3621715,0.6027853,-0.127594,-0.2794342,0.9516296,30.42838,7.394669,-27.51469,5.161865,0.5990778,0.3706763,0.02008677,1.246373,-0.262566,-0.1343298,-0.01763694,0.008260292,2.2551958475845413,-335.7775,31.544528985507245
1,-0.08753967,-0.3256378,0.9414215,0.8112064,-0.07832336,-0.3360291,0.9385834,-25.74135,7.413269,-25.11723,4.065842,0.3109574,0.3621715,0.6027853,-0.127594,-0.2794342,0.9516296,30.42838,7.394669,-27.51469,5.161865,0.5990778,0.3706763,0.02008677,1.246373,-0.262566,-0.1343298,-0.01763694,0.008260292,2.2551958475845413,-335.7775,31.544528985507245
1,-0.08753967,-0.3256378,0.9414215,0.8112064,-0.07832336,-0.3360291,0.9385834,-25.74135,7.413269,-25.11723,4.065842,0.3109574,0.3621715,0.6027853,-0.127594,-0.2794342,0.9516296,30.42838,7.394669,-27.51469,5.161865,0.5990778,0.3706763,0.021492,1.245647,-0.2627103,-0.1329968,-0.01660919,0.007233117,2.2551958475845413,-335.7775,31.544528985507245
1,-0.08753967,-0.3256378,0.9414215,0.8112064,-0.07832336,-0.3360291,0.9385834,-25.74135,7.413269,-25.11723,4.065842,0.3109574,0.3621715,0.6027853,-0.127594,-0.2794342,0.9516296,30.42838,7.394669,-27.51469,5.161865,0.5990778,0.3706763,0.02214658,1.245364,-0.2628039,-0.133053,-0.01587102,0.006450119,2.2551958475845413,-335.7775,31.544528985507245
1,-0.08753967,-0.3256378,0.9414215,0.8112064,-0.07832336,-0.3360291,0.9385834,-25.74135,7.413269,-25.11723,4.065842,0.3109574,0.3621715,0.6027853,-0.127594,-0.2794342,0.9516296,30.42838,7.394669,-27.51469,5.161865,0.5990778,0.3706763,0.02214658,1.245364,-0.2628039,-0.133053,-0.01587102,0.006450119,2.2551958475845413,-335.7775,31.544528985507245
1,-0.1040192,-0.3248901,0.9400024,0.8040934,-0.09622192,-0.3395386,0.9356384,-25.65404,7.420853,-25.08206,4.317184,0.3108214,0.3621715,0.6192287,-0.1326294,-0.2697144,0.9537506,30.43651,7.394516,-27.50673,5.222443,0.5996456,0.3688609,0.02346492,1.245069,-0.2629344,-0.1337779,-0.01401471,0.005197673,2.2551958475845413,-9.084412,31.544528985507245
1,-0.03453064,-0.3132477,0.9490356,0.8156422,-0.01966858,-0.3283081,0.9443512,-25.37245,7.780609,-24.97768,4.225906,0.2886266,0.3463379,0.6349978,-0.07669067,-0.2696075,0.9598999,30.65724,7.668121,-27.54622,4.834763,0.5828597,0.3597244,0.02412271,1.245119,-0.263013,-0.1340108,-0.01306324,0.004946485,2.2551958475845413,-9.084412,31.544528985507245
1,-0.03453064,-0.3132477,0.9490356,0.8156422,-0.01966858,-0.3283081,0.9443512,-25.37245,7.780609,-24.97768,4.225906,0.2886266,0.3463379,0.6349978,-0.07669067,-0.2696075,0.9598999,30.65724,7.668121,-27.54622,4.834763,0.5828597,0.3597244,0.02412271,1.245119,-0.263013,-0.1340108,-0.01306324,0.004946485,2.2551958475845413,-9.084412,31.544528985507245
1,-0.03453064,-0.3132477,0.9490356,0.8156422,-0.01966858,-0.3283081,0.9443512,-25.37245,7.780609,-24.97768,4.225906,0.2886266,0.3463379,0.6349978,-0.07669067,-0.2696075,0.9598999,30.65724,7.668121,-27.54622,4.834763,0.5828597,0.3597244,0.02560055,1.245826,-0.2631569,-0.1350102,-0.01093807,0.005509416,2.2551958475845413,-9.084412,31.544528985507245
1,-0.03453064,-0.3132477,0.9490356,0.8156422,-0.01966858,-0.3283081,0.9443512,-25.37245,7.780609,-24.97768,4.225906,0.2886266,0.3463379,0.6349978,-0.07669067,-0.2696075,0.9598999,30.65724,7.668121,-27.54622,4.834763,0.5828597,0.3597244,0.02632785,1.246393,-0.2632086,-0.1358575,-0.009834808,0.006070468,2.2551958475845413,-9.084412,31.544528985507245
1,-0.03453064,-0.3132477,0.9490356,0.8156422,-0.01966858,-0.3283081,0.9443512,-25.37245,7.780609,-24.97768,4.225906,0.2886266,0.3463379,0.6349978,-0.07669067,-0.2696075,0.9598999,30.65724,7.668121,-27.54622,4.834763,0.5828597,0.3597244,0.02632785,1.246393,-0.2632086,-0.1358575,-0.009834808,0.006070468,2.2551958475845413,-9.084412,31.544528985507245
1,-0.06877136,-0.2743988,0.959137,0.834051,-0.0004272461,-0.3039093,0.9526825,-25.26584,7.956268,-24.91818,4.17598,0.2817865,0.3353129,0.6943962,-0.08950806,-0.2651062,0.9600525,30.73763,7.781494,-27.533,5.05751,0.5822923,0.3547888,0.02774537,1.247529,-0.2631668,-0.1380784,-0.007522939,0.007660338,2.2551958475845413,-9.084412,31.544528985507245
1,-0.05751038,-0.2602844,0.9638062,0.8755906,-0.02632141,-0.2973175,0.9544067,-25.23647,7.884369,-24.93706,4.393921,0.284969,0.3366909,0.7656277,-0.06523132,-0.2509918,0.9657745,30.7532,7.763077,-27.55679,5.154465,0.5777536,0.3529567,0.02841163,1.247938,-0.2631578,-0.1389585,-0.006519058,0.008391835,2.533262,-9.084412,31.544528985507245
1,-0.05751038,-0.2602844,0.9638062,0.8755906,-0.02632141,-0.2973175,0.9544067,-25.23647,7.884369,-24.93706,4.393921,0.284969,0.3366909,0.7656277,-0.06523132,-0.2509918,0.9657745,30.7532,7.763077,-27.55679,5.154465,0.5777536,0.3529567,0.02841163,1.247938,-0.2631578,-0.1389585,-0.006519058,0.008391835,2.533262,-9.084412,31.544528985507245
1,-0.05751038,-0.2602844,0.9638062,0.8755906,-0.02632141,-0.2973175,0.9544067,-25.23647,7.884369,-24.93706,4.393921,0.284969,0.3366909,0.7656277,-0.06523132,-0.2509918,0.9657745,30.7532,7.763077,-27.55679,5.154465,0.5777536,0.3529567,0.02966225,1.248278,-0.2631185,-0.140158,-0.004643488,0.009179655,2.533262,-9.084412,31.544528985507245
1,-0.05751038,-0.2602844,0.9638062,0.8755906,-0.02632141,-0.2973175,0.9544067,-25.23647,7.884369,-24.93706,4.393921,0.284969,0.3366909,0.7656277,-0.06523132,-0.2509918,0.9657745,30.7532,7.763077,-27.55679,5.154465,0.5777536,0.3529567,0.03020608,1.248266,-0.2631253,-0.1405886,-0.003957413,0.009155273,2.533262,-9.084412,31.544528985507245
1,-0.05751038,-0.2602844,0.9638062,0.8755906,-0.02632141,-0.2973175,0.9544067,-25.23647,7.884369,-24.93706,4.393921,0.284969,0.3366909,0.7656277,-0.06523132,-0.2509918,0.9657745,30.7532,7.763077,-27.55679,5.154465,0.5777536,0.3529567,0.03126907,1.248186,-0.2630434,-0.1411008,-0.002891289,0.009111222,2.533262,-9.084412,31.544528985507245
1,-0.05751038,-0.2602844,0.9638062,0.8755906,-0.02632141,-0.2973175,0.9544067,-25.23647,7.884369,-24.93706,4.393921,0.284969,0.3366909,0.7656277,-0.06523132,-0.2509918,0.9657745,30.7532,7.763077,-27.55679,5.154465,0.5777536,0.3529567,0.03126907,1.248186,-0.2630434,-0.1411008,-0.002891289,0.009111222,2.533262,-9.084412,31.544528985507245
1,-0.06498718,-0.2710266,0.9603729,0.9322305,-0.04872131,-0.315033,0.9478149,-25.02441,7.553101,-24.95837,4.467728,0.2816147,0.3511894,0.764443,-0.07194519,-0.2518921,0.9650726,30.9415,7.480728,-27.52739,5.295547,0.5722685,0.362625,0.03176677,1.247912,-0.2629924,-0.1411466,-0.002572181,0.009066135,2.533262,-9.084412,31.544528985507245
1,-0.06498718,-0.2710266,0.9603729,0.9322305,-0.04872131,-0.315033,0.9478149,-25.02441,7.553101,-24.95837,4.467728,0.2816147,0.3511894,0.764443,-0.07194519,-0.2518921,0.9650726,30.9415,7.480728,-27.52739,5.295547,0.5722685,0.362625,0.03176677,1.247912,-0.2629924,-0.1411466,-0.002572181,0.009066135,2.533262,-9.084412,31.544528985507245
1,-0.06498718,-0.2710266,0.9603729,0.9322305,-0.04872131,-0.315033,0.9478149,-25.02441,7.553101,-24.95837,4.467728,0.2816147,0.3511894,0.764443,-0.07194519,-0.2518921,0.9650726,30.9415,7.480728,-27.52739,5.295547,0.5722685,0.362625,0.03273904,1.247169,-0.2629175,-0.1400624,-0.002027984,0.00925483,2.533262,-9.084412,31.544528985507245
1,-0.06498718,-0.2710266,0.9603729,0.9322305,-0.04872131,-0.315033,0.9478149,-25.02441,7.553101,-24.95837,4.467728,0.2816147,0.3511894,0.764443,-0.07194519,-0.2518921,0.9650726,30.9415,7.480728,-27.52739,5.295547,0.5722685,0.362625,0.03325522,1.246813,-0.262883,-0.1394718,-0.001798208,0.009517572,2.533262,-9.084412,31.544528985507245
1,-0.06498718,-0.2710266,0.9603729,0.9322305,-0.04872131,-0.315033,0.9478149,-25.02441,7.553101,-24.95837,4.467728,0.2816147,0.3511894,0.764443,-0.07194519,-0.2518921,0.9650726,30.9415,7.480728,-27.52739,5.295547,0.5722685,0.362625,0.03367054,1.246438,-0.2628241,-0.1385887,-0.001756286,0.01018172,2.533262,-9.084412,31.544528985507245
1,-0.06498718,-0.2710266,0.9603729,0.9322305,-0.04872131,-0.315033,0.9478149,-25.02441,7.553101,-24.95837,4.467728,0.2816147,0.3511894,0.764443,-0.07194519,-0.2518921,0.9650726,30.9415,7.480728,-27.52739,5.295547,0.5722685,0.362625,0.03407538,1.246072,-0.2627232,-0.1375822,-0.001835119,0.01105933,2.533262,215.3839,31.544528985507245
1,-0.04493713,-0.2644958,0.9633331,0.9509236,0.004898071,-0.3403015,0.9402924,-24.95741,7.59996,-24.93962,4.489059,0.2703091,0.3534712,0.8259541,-0.07336426,-0.2199707,0.9727325,31.00702,7.468658,-27.53766,5.532532,0.5703228,0.3573447,0.03444684,1.245706,-0.2626295,-0.1362538,-0.001987161,0.01213418,2.533262,215.3839,31.544528985507245
1,-0.04133606,-0.2575989,0.9653625,0.9320276,-0.009216309,-0.2905884,0.9568024,-24.94968,7.612686,-24.92461,4.849411,0.2720567,0.3437167,0.8111367,-0.06271362,-0.2352905,0.9698944,30.95926,7.485489,-27.53033,5.508835,0.5701748,0.3593992,0.03516853,1.244814,-0.262368,-0.1326093,-0.002592378,0.01498684,2.533262,215.3839,31.544528985507245
1,-0.04133606,-0.2575989,0.9653625,0.9320276,-0.009216309,-0.2905884,0.9568024,-24.94968,7.612686,-24.92461,4.849411,0.2720567,0.3437167,0.8111367,-0.06271362,-0.2352905,0.9698944,30.95926,7.485489,-27.53033,5.508835,0.5701748,0.3593992,0.03516853,1.244814,-0.262368,-0.1326093,-0.002592378,0.01498684,2.533262,215.3839,31.544528985507245
1,-0.06491089,-0.2321167,0.9705048,0.9065076,-0.04598999,-0.2229004,0.9737396,-24.90076,7.601044,-24.91649,5.373611,0.2758327,0.3317781,0.7861834,-0.07661438,-0.2377777,0.9682922,31.02611,7.49852,-27.52698,5.510818,0.5701748,0.3593992,0.03544986,1.244307,-0.2622293,-0.1301931,-0.003162069,0.01659752,2.533262,215.3839,31.544528985507245
1,-0.0478363,-0.2527313,0.9663391,0.8709959,-0.007034302,-0.2440491,0.9697266,-24.83585,7.525055,-24.95992,4.964462,0.2675589,0.3384053,0.7553423,-0.07044983,-0.2573547,0.9637299,31.05333,7.431931,-27.54611,5.215515,0.5681629,0.3654913,0.0358119,1.243782,-0.2620754,-0.1276107,-0.003904342,0.01836296,2.533262,215.3839,31.544528985507245
1,0.03935242,-0.3296967,0.9432526,0.8487378,0.02342224,-0.3360748,0.9415283,-24.13097,7.179367,-25.06174,4.951324,0.2380465,0.3662205,0.6994633,0.04827881,-0.3260651,0.9441071,31.2726,7.100235,-27.68684,5.076065,0.5409734,0.3903985,0.03599691,1.243167,-0.2619444,-0.1245922,-0.005046393,0.0201948,2.533262,215.3839,31.544528985507245
1,0.03935242,-0.3296967,0.9432526,0.8487378,0.02342224,-0.3360748,0.9415283,-24.13097,7.179367,-25.06174,4.951324,0.2380465,0.3662205,0.6994633,0.04827881,-0.3260651,0.9441071,31.2726,7.100235,-27.68684,5.076065,0.5409734,0.3903985,0.03599691,1.243167,-0.2619444,-0.1245922,-0.005046393,0.0201948,2.533262,215.3839,31.544528985507245
1,0.09344482,-0.3760681,0.9218597,0.7554517,0.05969238,-0.3834381,0.9216309,-23.6106,6.833572,-25.26114,5.415634,0.2126487,0.3867708,0.5984216,0.1117249,-0.3718719,0.921524,31.49754,6.757156,-27.82149,5.200073,0.5228157,0.4117348,0.03615344,1.242496,-0.261759,-0.1211648,-0.006358211,0.0220927,2.533262,215.3839,31.544528985507245
1,0.0982666,-0.4124298,0.9056702,0.5661344,0.02964783,-0.3950958,0.9181519,-23.39758,6.645813,-25.34494,5.344757,0.2101943,0.3958866,0.481906,0.1420288,-0.4224091,0.8952026,31.59869,6.609772,-27.93895,5.119843,0.5143157,0.4273387,0.03624701,1.240772,-0.2615528,-0.1120215,-0.01036089,0.02470168,2.533262,215.3839,31.544528985507245
1,-1.0,-1.0,-1.0,0.3549599,0.0,0.0,0.0,-23.31134,6.421661,-25.4687,-1.0,0.18274,0.3935257,0.3473965,0.0,0.0,0.0,31.69991,6.490341,-28.01448,-1.0,0.5048834,0.4376743,0.03623521,1.239929,-0.2614756,-0.1069962,-0.01253407,0.02565481,2.533262,215.3839,31.544528985507245
1,-1.0,-1.0,-1.0,0.3549599,0.0,0.0,0.0,-23.31134,6.421661,-25.4687,-1.0,0.18274,0.3935257,0.3473965,0.0,0.0,0.0,31.69991,6.490341,-28.01448,-1.0,0.5048834,0.4376743,0.03623521,1.239929,-0.2614756,-0.1069962,-0.01253407,0.02565481,2.533262,215.3839,31.544528985507245
1,-1.0,-1.0,-1.0,0.3239948,0.0,0.0,0.0,-23.31673,6.468185,-25.42509,-1.0,0.1920631,0.38885,0.2869378,0.0,0.0,0.0,31.81389,6.564728,-27.955,-1.0,0.5043198,0.4280241,0.03612077,1.238398,-0.2613211,-0.09638122,-0.01763103,0.02746528,2.533262,215.3839,31.544528985507245
1,0.1379395,-0.4062195,0.9032898,0.3239948,0.1020203,-0.372757,0.922287,-23.31377,6.622879,-25.4108,5.443146,0.1940591,0.3924475,0.2869378,0.1614227,-0.4276581,0.8894043,31.81029,6.644775,-27.93306,5.133667,0.503856,0.4271551,0.03606057,1.237711,-0.2612836,-0.09078339,-0.02043867,0.02845836,2.533262,215.3839,31.544528985507245
1,0.1275024,-0.4327087,0.8924561,0.2764557,0.08982849,-0.3907471,0.9160919,-23.3582,6.756653,-25.35468,5.353867,0.1979795,0.3909155,0.2727359,0.1542664,-0.4618683,0.8734131,31.74953,6.780838,-27.91068,4.672806,0.5069414,0.4290955,0.03595543,1.237047,-0.2611697,-0.08503772,-0.02345466,0.02918629,2.533262,168.1881,31.544528985507245
1,0.1275024,-0.4327087,0.8924561,0.2764557,0.08982849,-0.3907471,0.9160919,-23.3582,6.756653,-25.35468,5.353867,0.1979795,0.3909155,0.2727359,0.1542664,-0.4618683,0.8734131,31.74953,6.780838,-27.91068,4.672806,0.5069414,0.4290955,0.03595543,1.237047,-0.2611697,-0.08503772,-0.02345466,0.02918629,2.533262,168.1881,31.544528985507245
1,0.1474609,-0.3941956,0.9071045,0.2768103,0.1233826,-0.4082794,0.9044647,-23.39845,6.786331,-25.33842,4.614258,0.1944755,0.3939322,0.2345321,0.1669769,-0.3825073,0.9087219,31.71544,6.853806,-27.8306,5.208588,0.5062444,0.4107524,0.03576291,1.23583,-0.2611294,-0.07292095,-0.03000025,0.03031304,2.533262,168.1881,31.544528985507245
1,0.1229706,-0.4016113,0.9075012,0.3075165,0.08514404,-0.3603821,0.928894,-23.4874,6.870972,-25.25223,5.168289,0.2038589,0.3810098,0.2620023,0.1566467,-0.4375,0.8854523,31.70244,6.903519,-27.84781,4.696487,0.5081842,0.419744,0.0356307,1.235158,-0.2611433,-0.0665123,-0.03327306,0.03081399,2.533262,168.1881,31.544528985507245
1,0.1229706,-0.4016113,0.9075012,0.3075165,0.08514404,-0.3603821,0.928894,-23.4874,6.870972,-25.25223,5.168289,0.2038589,0.3810098,0.2620023,0.1566467,-0.4375,0.8854523,31.70244,6.903519,-27.84781,4.696487,0.5081842,0.419744,0.0356307,1.235158,-0.2611433,-0.0665123,-0.03327306,0.03081399,2.533262,168.1881,31.544528985507245
1,0.1349487,-0.3700562,0.9191437,0.3543509,0.1305084,-0.3214417,0.9378815,-23.82591,7.064789,-25.19914,5.191452,0.2080575,0.3672854,0.2721099,0.1369324,-0.392807,0.9093475,31.60345,7.003738,-27.78362,4.836349,0.5149174,0.4071785,0.03550935,1.233507,-0.2612267,-0.05387631,-0.03966403,0.03131717,2.533262,168.1881,31.544528985507245
1,0.08917236,-0.3648529,0.9267731,0.4036585,-0.001525879,-0.3339233,0.9425812,-23.56099,7.069473,-25.10286,5.202927,0.2216906,0.3688146,0.2841781,0.1268005,-0.3767548,0.9175873,31.53809,7.092758,-27.73901,4.824936,0.5188369,0.4007581,0.0355128,1.23262,-0.2613624,-0.04727716,-0.04277533,0.03137112,2.533262,168.1881,31.544528985507245
1,0.08642578,-0.3486023,0.9332733,0.488843,0.07064819,-0.3631744,0.9290314,-23.83215,7.215317,-25.071,4.668488,0.2195318,0.3695293,0.2835152,0.0955658,-0.3400421,0.9355316,31.46671,7.126358,-27.71399,4.580429,0.5263735,0.3926623,0.03555763,1.231639,-0.2614377,-0.04059035,-0.04564728,0.03153835,2.533262,168.1881,31.544528985507245
1,0.06806946,-0.3644257,0.9287262,0.4775149,0.05117798,-0.3579254,0.9323425,-23.85799,7.263733,-25.03807,4.556641,0.2239992,0.3669159,0.320213,0.07676697,-0.3677216,0.9267578,31.43083,7.187271,-27.70404,4.321594,0.530659,0.3956776,0.03553736,1.230603,-0.2616536,-0.03362877,-0.04849603,0.03161527,2.533262,168.1881,31.544528985507245
1,0.06806946,-0.3644257,0.9287262,0.4775149,0.05117798,-0.3579254,0.9323425,-23.85799,7.263733,-25.03807,4.556641,0.2239992,0.3669159,0.320213,0.07676697,-0.3677216,0.9267578,31.43083,7.187271,-27.70404,4.321594,0.530659,0.3956776,0.03553736,1.230603,-0.2616536,-0.03362877,-0.04849603,0.03161527,2.533262,168.1881,31.544528985507245
1,0.07797241,-0.33815,0.937851,0.5600871,0.07775879,-0.331955,0.9400787,-23.99857,7.246292,-25.16388,4.422211,0.224262,0.3640158,0.3902158,0.07829285,-0.3470917,0.9345551,31.40018,7.279922,-27.67381,4.495972,0.5315158,0.3883637,0.03553379,1.228505,-0.2621423,-0.02038355,-0.05396295,0.03127073,2.533262,168.1881,31.544528985507245
1,0.04335022,-0.3449249,0.9376221,0.6211424,0.03373718,-0.3167572,0.9478912,-24.02611,7.456009,-25.00084,4.50766,0.2328444,0.3529241,0.3907568,0.04968262,-0.363327,0.9303284,31.32692,7.397141,-27.63907,4.059006,0.5386832,0.387274,0.03565955,1.227399,-0.2624369,-0.01396999,-0.0564159,0.03104164,2.533262,168.1881,31.544528985507245
1,0.04335022,-0.3449249,0.9376221,0.6211424,0.03373718,-0.3167572,0.9478912,-24.02611,7.456009,-25.00084,4.50766,0.2328444,0.3529241,0.3907568,0.04968262,-0.363327,0.9303284,31.32692,7.397141,-27.63907,4.059006,0.5386832,0.387274,0.03565955,1.227399,-0.2624369,-0.01396999,-0.0564159,0.03104164,2.533262,168.1881,31.544528985507245
1,0.01473999,-0.3306122,0.943634,0.6434304,0.004104614,-0.3063202,0.9519043,-24.12282,7.314789,-25.02419,4.64769,0.2412766,0.356303,0.3969364,0.02206421,-0.3471985,0.9375153,31.18217,7.304565,-27.6651,4.399963,0.5482988,0.3874358,0.03586257,1.225378,-0.2632514,-0.001743513,-0.0607665,0.03023009,2.533262,168.1881,31.544528985507245
1,0.01051331,-0.3666534,0.9302826,0.6188729,-0.00668335,-0.3727112,0.9279175,-24.23389,7.396713,-24.93222,4.448334,0.2474038,0.3653638,0.4282528,0.02250671,-0.3623657,0.9317474,31.03122,7.301697,-27.67278,4.351883,0.5533811,0.3904325,0.03601682,1.224482,-0.2637285,0.003668208,-0.06262968,0.02971177,2.533262,168.1881,31.544528985507245
1,0.01051331,-0.3666534,0.9302826,0.6188729,-0.00668335,-0.3727112,0.9279175,-24.23389,7.396713,-24.93222,4.448334,0.2474038,0.3653638,0.4282528,0.02250671,-0.3623657,0.9317474,31.03122,7.301697,-27.67278,4.351883,0.5533811,0.3904325,0.03601682,1.224482,-0.2637285,0.003668208,-0.06262968,0.02971177,2.533262,168.1881,31.544528985507245
1,0.02613831,-0.3308563,0.9433136,0.6188729,0.00177002,-0.3279114,0.9447021,-24.35086,7.349472,-25.00499,4.41066,0.2499681,0.3595207,0.4282528,0.04000854,-0.3324585,0.9422607,30.93372,7.366684,-27.66025,4.415375,0.5538313,0.3826007,0.03657055,1.223107,-0.2646803,0.01373169,-0.06511808,0.02837341,2.533262,168.1881,31.544528985507245
1,0.02613831,-0.3308563,0.9433136,0.6188729,0.00177002,-0.3279114,0.9447021,-24.35086,7.349472,-25.00499,4.41066,0.2499681,0.3595207,0.4282528,0.04000854,-0.3324585,0.9422607,30.93372,7.366684,-27.66025,4.415375,0.5538313,0.3826007,0.03688848,1.222544,-0.2652241,0.01842858,-0.06579409,0.02755736,2.533262,226.7832,31.544528985507245
1,0.02613831,-0.3308563,0.9433136,0.6188729,0.00177002,-0.3279114,0.9447021,-24.35086,7.349472,-25.00499,4.41066,0.2499681,0.3595207,0.4282528,0.04000854,-0.3324585,0.9422607,30.93372,7.366684,-27.66025,4.415375,0.5538313,0.3826007,0.03725827,1.222107,-0.2657261,0.02312387,-0.06606609,0.02681438,2.533262,226.7832,31.544528985507245
1,0.02613831,-0.3308563,0.9433136,0.6188729,0.00177002,-0.3279114,0.9447021,-24.35086,7.349472,-25.00499,4.41066,0.2499681,0.3595207,0.4282528,0.04000854,-0.3324585,0.9422607,30.93372,7.366684,-27.66025,4.415375,0.5538313,0.3826007,0.03725827,1.222107,-0.2657261,0.02312387,-0.06606609,0.02681438,2.533262,226.7832,31.544528985507245
1,0.02613831,-0.3308563,0.9433136,0.6188729,0.00177002,-0.3279114,0.9447021,-24.35086,7.349472,-25.00499,4.41066,0.2499681,0.3595207,0.4282528,0.04000854,-0.3324585,0.9422607,30.93372,7.366684,-27.66025,4.415375,0.5538313,0.3826007,0.03769684,1.221596,-0.2662972,0.02770915,-0.06625461,0.02618743,2.533262,226.7832,31.544528985507245
1,-0.00843811,-0.3040161,0.9526215,0.6684936,-0.04928589,-0.2792358,0.9589539,-24.4156,7.509766,-24.93333,4.683304,0.2604621,0.3449342,0.4478809,0.01846313,-0.3199463,0.9472504,30.87653,7.546127,-27.59436,4.473068,0.5594059,0.3735457,0.03821659,1.221127,-0.266829,0.03231522,-0.06583042,0.02553401,2.533262,226.7832,31.544528985507245
1,-0.01663208,-0.2445374,0.9694824,0.7373111,-0.01583862,-0.2510986,0.9678192,-24.68188,7.748764,-24.87347,4.34996,0.2642604,0.3316748,0.5632098,-0.01760864,-0.236557,0.9714508,30.75093,7.771042,-27.48883,4.701355,0.5698226,0.349716,0.03937709,1.220106,-0.2680526,0.04102198,-0.06471489,0.02428033,2.533262,226.7832,31.544528985507245
2,-0.03370667,-0.2458801,0.9687042,0.771441,-0.03668213,-0.2578735,0.9654694,-24.71216,7.815399,-24.86115,4.289856,0.2688724,0.3308045,0.5751869,-0.02752686,-0.2208405,0.9749146,30.74098,7.804413,-27.49001,4.79422,0.5718629,0.3457082,0.04048848,1.219068,-0.2692628,0.04967797,-0.06354202,0.02307613,2.533262,226.7832,31.544528985507245
2,-0.03370667,-0.2458801,0.9687042,0.771441,-0.03668213,-0.2578735,0.9654694,-24.71216,7.815399,-24.86115,4.289856,0.2688724,0.3308045,0.5751869,-0.02752686,-0.2208405,0.9749146,30.74098,7.804413,-27.49001,4.79422,0.5718629,0.3457082,0.04048848,1.219068,-0.2692628,0.04967797,-0.06354202,0.02307613,2.533262,226.7832,31.544528985507245
2,-0.05099487,-0.2328949,0.9711456,0.7706901,-0.05403137,-0.2427826,0.9685669,-24.72835,7.904007,-24.85004,4.090973,0.2724786,0.3253297,0.5977429,-0.04498291,-0.2132874,0.9759369,30.73094,7.901337,-27.46965,4.818344,0.575166,0.3408371,0.04196751,1.218216,-0.2704711,0.05725553,-0.06049714,0.02092073,2.533262,226.7832,31.544528985507245
2,-0.04649353,-0.2142334,0.9756622,0.7526127,-0.04650879,-0.2393799,0.9698029,-24.74083,7.962128,-24.82959,4.03595,0.2716612,0.3225594,0.5729471,-0.04641724,-0.181366,0.9823151,30.71004,7.978027,-27.47917,4.857254,0.5762239,0.3325023,0.04196751,1.218216,-0.2704711,0.05725553,-0.06049714,0.02092073,2.533262,226.7832,31.544528985507245
2,-0.05235291,-0.1959839,0.9792023,0.7990009,-0.06254578,-0.2116699,0.9753265,-24.76727,8.038361,-24.81274,4.081573,0.2751598,0.3150182,0.5643163,-0.04304504,-0.1815948,0.9824219,30.69978,8.064026,-27.5079,4.629852,0.5760403,0.3298731,0.04346335,1.217237,-0.2715112,0.06332085,-0.05616972,0.0176513,2.533262,226.7832,31.544528985507245
2,-0.05235291,-0.1959839,0.9792023,0.7990009,-0.06254578,-0.2116699,0.9753265,-24.76727,8.038361,-24.81274,4.081573,0.2751598,0.3150182,0.5643163,-0.04304504,-0.1815948,0.9824219,30.69978,8.064026,-27.5079,4.629852,0.5760403,0.3298731,0.04346335,1.217237,-0.2715112,0.06332085,-0.05616972,0.0176513,2.533262,226.7832,31.544528985507245
2,-0.04359436,-0.1816559,0.9823914,0.8136432,-0.05712891,-0.1933441,0.9794617,-24.73602,8.116669,-24.77464,4.095856,0.273099,0.3086304,0.601505,-0.03030396,-0.1701202,0.9849548,30.72974,8.127014,-27.56802,4.539963,0.5729476,0.3261228,0.04504597,1.216444,-0.2723432,0.06777322,-0.05097236,0.01506716,2.533262,226.7832,31.544528985507245
2,-0.04359436,-0.1816559,0.9823914,0.8136432,-0.05712891,-0.1933441,0.9794617,-24.73602,8.116669,-24.77464,4.095856,0.273099,0.3086304,0.601505,-0.03030396,-0.1701202,0.9849548,30.72974,8.127014,-27.56802,4.539963,0.5729476,0.3261228,0.04504597,1.216444,-0.2723432,0.06777322,-0.05097236,0.01506716,2.533262,226.7832,31.544528985507245
2,-0.05654907,-0.1922913,0.9797058,0.8035538,-0.05747986,-0.2108154,0.9758301,-24.72365,8.21373,-24.74937,3.927063,0.2728802,0.3083462,0.5991558,-0.05413818,-0.1457214,0.9878387,30.74629,8.242157,-27.84225,4.492111,0.5766864,0.3199241,0.0466516,1.215776,-0.2730304,0.0708093,-0.04562344,0.01343716,2.533262,-72.34811,31.544528985507245
2,-0.06437683,-0.1858978,0.9804535,0.8521652,-0.06469727,-0.1862335,0.9803619,-24.70216,8.283188,-24.61183,4.098511,0.2732846,0.3004165,0.6401367,-0.03074646,-0.149353,0.9882965,30.75587,8.331085,-28.05893,4.434677,0.5726243,0.3190097,0.04835284,1.215401,-0.2734802,0.0724088,-0.03886325,0.01085671,2.533262,-72.34811,31.544528985507245
2,-0.06437683,-0.1858978,0.9804535,0.8521652,-0.06469727,-0.1862335,0.9803619,-24.70216,8.283188,-24.61183,4.098511,0.2732846,0.3004165,0.6401367,-0.03074646,-0.149353,0.9882965,30.75587,8.331085,-28.05893,4.434677,0.5726243,0.3190097,0.04835284,1.215401,-0.2734802,0.0724088,-0.03886325,0.01085671,2.533262,-72.34811,31.544528985507245
2,-0.06446838,-0.1683807,0.9835968,0.8453556,-0.06414795,-0.1677399,0.9837341,-24.99519,7.989273,-24.82318,4.33696,0.283033,0.3092156,0.6361378,-0.08410645,-0.207016,0.9747009,30.43629,8.027466,-27.61148,4.525528,0.5920469,0.3365582,0.05016458,1.214934,-0.2737904,0.07370308,-0.03041217,0.007266004,2.533262,-72.34811,31.544528985507245
2,-0.06446838,-0.1683807,0.9835968,0.8453556,-0.06414795,-0.1677399,0.9837341,-24.99519,7.989273,-24.82318,4.33696,0.283033,0.3092156,0.6361378,-0.08410645,-0.207016,0.9747009,30.43629,8.027466,-27.61148,4.525528,0.5920469,0.3365582,0.05016458,1.214934,-0.2737904,0.07370308,-0.03041217,0.007266004,2.533262,-72.34811,31.544528985507245
2,-0.1955566,-0.2471619,0.9490204,0.8628486,-0.1938171,-0.2522736,0.9480286,-25.599,7.567657,-25.0811,3.85994,0.3256009,0.3430123,0.6527847,-0.2008362,-0.2314758,0.9518738,29.75261,7.720688,-27.78349,4.21051,0.6355202,0.353598,0.05216277,1.214517,-0.2741637,0.07679552,-0.02092643,0.003678349,2.533262,-72.34811,31.544528985507245
2,-0.1955566,-0.2471619,0.9490204,0.8628486,-0.1938171,-0.2522736,0.9480286,-25.599,7.567657,-25.0811,3.85994,0.3256009,0.3430123,0.6527847,-0.2008362,-0.2314758,0.9518738,29.75261,7.720688,-27.78349,4.21051,0.6355202,0.353598,0.05216277,1.214517,-0.2741637,0.07679552,-0.02092643,0.003678349,2.533262,-72.34811,31.544528985507245
2,-0.1880951,-0.2440491,0.9513397,0.8937676,-0.1573486,-0.2133179,0.9642181,-25.71124,7.509903,-25.06137,3.812683,0.3234133,0.3375373,0.7079062,-0.1984711,-0.2543945,0.9465027,29.72166,7.711823,-27.78833,4.249512,0.6361301,0.3580901,0.05429769,1.214119,-0.2741841,0.07926398,-0.01066841,0.000622439,2.533262,-72.34811,31.544528985507245
2,-0.1880951,-0.2440491,0.9513397,0.8937676,-0.1573486,-0.2133179,0.9642181,-25.71124,7.509903,-25.06137,3.812683,0.3234133,0.3375373,0.7079062,-0.1984711,-0.2543945,0.9465027,29.72166,7.711823,-27.78833,4.249512,0.6361301,0.3580901,0.05429769,1.214119,-0.2741841,0.07926398,-0.01066841,0.000622439,2.533262,-72.34811,31.544528985507245
2,-0.1908875,-0.2207489,0.9564514,0.9189291,-0.1851044,-0.2166901,0.9585266,-25.68719,7.56189,-25.08401,3.832596,0.3271623,0.3368672,0.7199562,-0.1926575,-0.2220001,0.9558105,29.76877,7.706039,-27.82541,4.419632,0.6336097,0.3525522,0.05681813,1.213904,-0.2738203,0.08202798,0.000690534,-0.002367031,2.533262,-72.34811,31.544528985507245
2,-0.1908875,-0.2207489,0.9564514,0.9189291,-0.1851044,-0.2166901,0.9585266,-25.68719,7.56189,-25.08401,3.832596,0.3271623,0.3368672,0.7199562,-0.1926575,-0.2220001,0.9558105,29.76877,7.706039,-27.82541,4.419632,0.6336097,0.3525522,0.05681813,1.213904,-0.2738203,0.08202798,0.000690534,-0.002367031,2.533262,-72.34811,31.544528985507245
2,-0.1987305,-0.2174225,0.9556274,0.9477319,-0.1894684,-0.2256622,0.9555969,-25.65747,7.611862,-25.06624,3.920822,0.3268007,0.3366189,0.7686889,-0.2076874,-0.2094116,0.9555054,29.89201,7.726349,-27.7905,4.215256,0.6319478,0.3495162,0.05949366,1.213481,-0.2735127,0.08512153,0.01419747,-0.005616561,2.533262,-72.34811,31.544528985507245
2,-0.1987305,-0.2174225,0.9556274,0.9477319,-0.1894684,-0.2256622,0.9555969,-25.65747,7.611862,-25.06624,3.920822,0.3268007,0.3366189,0.7686889,-0.2076874,-0.2094116,0.9555054,29.89201,7.726349,-27.7905,4.215256,0.6319478,0.3495162,0.05949366,1.213481,-0.2735127,0.08512153,0.01419747,-0.005616561,2.533262,-72.34811,31.544528985507245
2,-0.1625519,-0.2149506,0.9629974,0.9797882,-0.1421661,-0.2302094,0.9626923,-25.65987,7.64595,-25.01625,3.849472,0.3191096,0.3353707,0.7898198,-0.1847687,-0.1980743,0.9626007,29.91838,7.742645,-27.77936,4.275314,0.6271093,0.3466244,0.06259668,1.21297,-0.2731391,0.08903747,0.03019038,-0.009278147,2.533262,-72.34811,31.544528985507245
2,-0.1625519,-0.2149506,0.9629974,0.9797882,-0.1421661,-0.2302094,0.9626923,-25.65987,7.64595,-25.01625,3.849472,0.3191096,0.3353707,0.7898198,-0.1847687,-0.1980743,0.9626007,29.91838,7.742645,-27.77936,4.275314,0.6271093,0.3466244,0.06259668,1.21297,-0.2731391,0.08903747,0.03019038,-0.009278147,2.533262,-72.34811,31.544528985507245
2,-0.1734467,-0.2059937,0.9630432,1.0,-0.1654358,-0.2192688,0.9615326,-25.64781,7.650818,-25.03334,3.825211,0.3225982,0.3336624,1.0,-0.1806793,-0.1938934,0.9642334,29.92557,7.752975,-27.78091,3.932999,0.6262127,0.3456479,0.06604338,1.212103,-0.2729495,0.09395172,0.04856144,-0.01293888,2.533262,-72.12259,31.544528985507245
2,-0.1734467,-0.2059937,0.9630432,1.0,-0.1654358,-0.2192688,0.9615326,-25.64781,7.650818,-25.03334,3.825211,0.3225982,0.3336624,1.0,-0.1806793,-0.1938934,0.9642334,29.92557,7.752975,-27.78091,3.932999,0.6262127,0.3456479,0.06604338,1.212103,-0.2729495,0.09395172,0.04856144,-0.01293888,2.533262,-72.12259,31.544528985507245
2,-0.1536713,-0.1916351,0.9693451,1.0,-0.1490784,-0.1998596,0.9684143,-25.52426,7.619568,-25.03395,3.994919,0.315568,0.3308772,1.0,-0.1579285,-0.1839905,0.9701538,30.03976,7.714478,-27.77049,4.291183,0.6183071,0.3448884,0.06958997,1.210923,-0.2730315,0.1000831,0.06815416,-0.01573903,2.533262,-72.12259,31.544528985507245
2,-0.1536713,-0.1916351,0.9693451,1.0,-0.1490784,-0.1998596,0.9684143,-25.52426,7.619568,-25.03395,3.994919,0.315568,0.3308772,1.0,-0.1579285,-0.1839905,0.9701538,30.03976,7.714478,-27.77049,4.291183,0.6183071,0.3448884,0.06958997,1.210923,-0.2730315,0.1000831,0.06815416,-0.01573903,2.533262,-72.12259,31.544528985507245
2,-0.1416168,-0.176178,0.9741058,1.0,-0.1455536,-0.186203,0.9716644,-25.39543,7.64537,-25.00218,4.036942,0.3106155,0.3271407,1.0,-0.1379395,-0.1668243,0.9762726,30.09302,7.690918,-27.78088,4.427612,0.6130812,0.3425685,0.07309628,1.209548,-0.2732512,0.1069724,0.08765184,-0.01852937,2.533262,-72.12259,31.544528985507245
2,-0.1416168,-0.176178,0.9741058,1.0,-0.1455536,-0.186203,0.9716644,-25.39543,7.64537,-25.00218,4.036942,0.3106155,0.3271407,1.0,-0.1379395,-0.1668243,0.9762726,30.09302,7.690918,-27.78088,4.427612,0.6130812,0.3425685,0.07309628,1.209548,-0.2732512,0.1069724,0.08765184,-0.01852937,2.533262,-72.12259,31.544528985507245
2,-0.1000977,-0.1599121,0.9820404,0.9987639,-0.08987427,-0.1565857,0.983551,-25.13992,7.69725,-24.9415,4.021561,0.2926298,0.3187422,0.7973091,-0.1076355,-0.1623535,0.980835,30.39606,7.705093,-27.74005,4.307022,0.5974366,0.3409773,0.07657802,1.207947,-0.2735792,0.1142131,0.1068429,-0.02190099,2.533262,-72.12259,31.544528985507245
2,-0.1000977,-0.1599121,0.9820404,0.9987639,-0.08987427,-0.1565857,0.983551,-25.13992,7.69725,-24.9415,4.021561,0.2926298,0.3187422,0.7973091,-0.1076355,-0.1623535,0.980835,30.39606,7.705093,-27.74005,4.307022,0.5974366,0.3409773,0.07657802,1.207947,-0.2735792,0.1142131,0.1068429,-0.02190099,2.533262,-72.12259,31.544528985507245
2,-0.08851624,-0.1370239,0.9866028,0.9840951,-0.08042908,-0.1323395,0.9879303,-24.79715,7.774826,-24.88876,4.199799,0.2791376,0.3107708,0.8272922,-0.09294128,-0.1395721,0.9858246,30.67407,7.805038,-27.87004,4.474503,0.5855775,0.3344001,0.08005536,1.206287,-0.2740467,0.1218371,0.1265022,-0.02603677,2.533262,-72.12259,31.544528985507245
2,-0.08851624,-0.1370239,0.9866028,0.9840951,-0.08042908,-0.1323395,0.9879303,-24.79715,7.774826,-24.88876,4.199799,0.2791376,0.3107708,0.8272922,-0.09294128,-0.1395721,0.9858246,30.67407,7.805038,-27.87004,4.474503,0.5855775,0.3344001,0.08005536,1.206287,-0.2740467,0.1218371,0.1265022,-0.02603677,2.533262,-72.12259,31.544528985507245
2,-0.05740356,-0.1327209,0.9894867,0.9541084,-0.05741882,-0.1328125,0.9894714,-24.48549,7.811005,-24.42609,4.081787,0.2651083,0.3052263,0.803214,-0.05116272,-0.1018677,0.9934692,30.82434,8.188232,-29.27962,4.412827,0.5745905,0.3254535,0.08341455,1.204564,-0.274699,0.1293773,0.1461505,-0.03116453,2.533262,-72.12259,31.544528985507245
2,-0.05740356,-0.1327209,0.9894867,0.9541084,-0.05741882,-0.1328125,0.9894714,-24.48549,7.811005,-24.42609,4.081787,0.2651083,0.3052263,0.803214,-0.05116272,-0.1018677,0.9934692,30.82434,8.188232,-29.27962,4.412827,0.5745905,0.3254535,0.08341455,1.204564,-0.274699,0.1293773,0.1461505,-0.03116453,2.533262,-72.12259,31.544528985507245
2,-0.05740356,-0.1327209,0.9894867,0.9541084,-0.05741882,-0.1328125,0.9894714,-24.48549,7.811005,-24.42609,4.081787,0.2651083,0.3052263,0.803214,-0.05116272,-0.1018677,0.9934692,30.82434,8.188232,-29.27962,4.412827,0.5745905,0.3254535,0.08673263,1.202914,-0.2753489,0.1355474,0.1662382,-0.03647656,2.533262,-72.12259,31.544528985507245
2,-0.05740356,-0.1327209,0.9894867,0.9541084,-0.05741882,-0.1328125,0.9894714,-24.48549,7.811005,-24.42609,4.081787,0.2651083,0.3052263,0.803214,-0.05116272,-0.1018677,0.9934692,30.82434,8.188232,-29.27962,4.412827,0.5745905,0.3254535,0.08673263,1.202914,-0.2753489,0.1355474,0.1662382,-0.03647656,2.533262,-72.12259,31.544528985507245
2,-0.05740356,-0.1327209,0.9894867,0.9541084,-0.05741882,-0.1328125,0.9894714,-24.48549,7.811005,-24.42609,4.081787,0.2651083,0.3052263,0.803214,-0.05116272,-0.1018677,0.9934692,30.82434,8.188232,-29.27962,4.412827,0.5745905,0.3254535,0.0900656,1.201415,-0.276013,0.140643,0.1859685,-0.04127331,2.533262,-72.12259,31.544528985507245
2,-0.05740356,-0.1327209,0.9894867,0.9541084,-0.05741882,-0.1328125,0.9894714,-24.48549,7.811005,-24.42609,4.081787,0.2651083,0.3052263,0.803214,-0.05116272,-0.1018677,0.9934692,30.82434,8.188232,-29.27962,4.412827,0.5745905,0.3254535,0.0900656,1.201415,-0.276013,0.140643,0.1859685,-0.04127331,2.533262,-72.12259,31.544528985507245
2,-0.06036377,-0.1379089,0.9885864,0.9394612,-0.06036377,-0.1379089,0.9885864,-24.33815,7.817291,-24.1274,4.059311,0.2616729,0.3043438,0.7785181,-0.04089355,-0.1002808,0.9941101,30.99255,8.510162,-30.34245,4.345795,0.5679173,0.3219391,0.09328139,1.200001,-0.2767718,0.1453583,0.2047423,-0.04644419,2.533262,-40.42267,31.544528985507245
2,-0.06036377,-0.1379089,0.9885864,0.9394612,-0.06036377,-0.1379089,0.9885864,-24.33815,7.817291,-24.1274,4.059311,0.2616729,0.3043438,0.7785181,-0.04089355,-0.1002808,0.9941101,30.99255,8.510162,-30.34245,4.345795,0.5679173,0.3219391,0.09328139,1.200001,-0.2767718,0.1453583,0.2047423,-0.04644419,2.533262,-40.42267,31.544528985507245
2,-0.2340393,-0.2604065,0.9366913,0.9674622,-0.2340393,-0.2604065,0.9366913,-25.59372,7.146271,-25.11853,3.566422,0.3324731,0.3595542,0.8129606,-0.2391205,-0.2548676,0.9369354,29.55898,7.480408,-28.35136,4.155853,0.6494656,0.3711233,0.09621024,1.19868,-0.2776234,0.1492945,0.2232187,-0.05184512,2.533262,-40.42267,31.544528985507245
2,-0.2340393,-0.2604065,0.9366913,0.9674622,-0.2340393,-0.2604065,0.9366913,-25.59372,7.146271,-25.11853,3.566422,0.3324731,0.3595542,0.8129606,-0.2391205,-0.2548676,0.9369354,29.55898,7.480408,-28.35136,4.155853,0.6494656,0.3711233,0.09621024,1.19868,-0.2776234,0.1492945,0.2232187,-0.05184512,2.533262,-40.42267,31.544528985507245
2,-0.2689972,-0.2906342,0.9182281,1.0,-0.2688751,-0.2909698,0.9181519,-25.76096,7.067795,-25.17924,3.920746,0.3433306,0.3685337,1.0,-0.2851715,-0.2445374,0.9267426,29.52156,7.455002,-28.36816,4.441803,0.6588407,0.3704815,0.09904552,1.197619,-0.2784309,0.1523663,0.2408022,-0.05634071,2.533262,-40.42267,31.544528985507245
2,-0.2689972,-0.2906342,0.9182281,1.0,-0.2688751,-0.2909698,0.9181519,-25.76096,7.067795,-25.17924,3.920746,0.3433306,0.3685337,1.0,-0.2851715,-0.2445374,0.9267426,29.52156,7.455002,-28.36816,4.441803,0.6588407,0.3704815,0.09904552,1.197619,-0.2784309,0.1523663,0.2408022,-0.05634071,2.533262,-40.42267,31.544528985507245
2,-0.257843,-0.2623138,0.9298859,1.0,-0.2514496,-0.2871094,0.9243011,-25.66446,7.159073,-25.13182,3.949905,0.3372419,0.3640856,1.0,-0.2621918,-0.2449493,0.9333954,29.78371,7.478394,-28.33357,4.157837,0.6456574,0.3695114,0.1016184,1.196529,-0.2793243,0.1552391,0.2573115,-0.06055672,2.533262,-40.42267,31.544528985507245
2,-0.257843,-0.2623138,0.9298859,1.0,-0.2514496,-0.2871094,0.9243011,-25.66446,7.159073,-25.13182,3.949905,0.3372419,0.3640856,1.0,-0.2621918,-0.2449493,0.9333954,29.78371,7.478394,-28.33357,4.157837,0.6456574,0.3695114,0.1016184,1.196529,-0.2793243,0.1552391,0.2573115,-0.06055672,2.533262,-40.42267,31.544528985507245
2,-0.2237244,-0.2588654,0.9396362,1.0,-0.2190399,-0.2901306,0.9315643,-25.55695,7.211975,-25.08537,3.572662,0.3286808,0.3621585,1.0,-0.2271118,-0.2350159,0.9450684,29.87576,7.48378,-28.29572,4.420425,0.6362594,0.3667642,0.1027807,1.195973,-0.2797589,0.156671,0.2653126,-0.06274889,2.533262,-40.42267,31.544528985507245
2,-0.1984558,-0.2322693,0.952179,1.0,-0.1960144,-0.2595673,0.9456177,-25.45062,7.239883,-25.05074,3.885178,0.3210722,0.3549252,1.0,-0.1998749,-0.2155457,0.9558105,29.91229,7.463745,-28.32088,4.435333,0.6303467,0.3639168,0.1047791,1.194658,-0.2807881,0.1596266,0.2804697,-0.06753346,2.533262,-40.42267,31.544528985507245
2,-0.1984558,-0.2322693,0.952179,1.0,-0.1960144,-0.2595673,0.9456177,-25.45062,7.239883,-25.05074,3.885178,0.3210722,0.3549252,1.0,-0.1998749,-0.2155457,0.9558105,29.91229,7.463745,-28.32088,4.435333,0.6303467,0.3639168,0.1047791,1.194658,-0.2807881,0.1596266,0.2804697,-0.06753346,2.533262,-40.42267,31.544528985507245
2,-0.1984558,-0.2322693,0.952179,1.0,-0.1960144,-0.2595673,0.9456177,-25.45062,7.239883,-25.05074,3.885178,0.3210722,0.3549252,1.0,-0.1998749,-0.2155457,0.9558105,29.91229,7.463745,-28.32088,4.435333,0.6303467,0.3639168,0.1057364,1.194072,-0.2812972,0.1609278,0.2878823,-0.06962397,2.533262,-40.42267,31.544528985507245
2,-0.1984558,-0.2322693,0.952179,1.0,-0.1960144,-0.2595673,0.9456177,-25.45062,7.239883,-25.05074,3.885178,0.3210722,0.3549252,1.0,-0.1998749,-0.2155457,0.9558105,29.91229,7.463745,-28.32088,4.435333,0.6303467,0.3639168,0.1066495,1.19348,-0.2818356,0.162095,0.2948551,-0.07154842,2.533262,-40.42267,31.544528985507245
2,-0.1984558,-0.2322693,0.952179,1.0,-0.1960144,-0.2595673,0.9456177,-25.45062,7.239883,-25.05074,3.885178,0.3210722,0.3549252,1.0,-0.1998749,-0.2155457,0.9558105,29.91229,7.463745,-28.32088,4.435333,0.6303467,0.3639168,0.1066495,1.19348,-0.2818356,0.162095,0.2948551,-0.07154842,2.533262,-40.42267,31.544528985507245
2,-0.1984558,-0.2322693,0.952179,1.0,-0.1960144,-0.2595673,0.9456177,-25.45062,7.239883,-25.05074,3.885178,0.3210722,0.3549252,1.0,-0.1998749,-0.2155457,0.9558105,29.91229,7.463745,-28.32088,4.435333,0.6303467,0.3639168,0.1082329,1.192453,-0.2827663,0.1638335,0.3089359,-0.07511323,2.533262,-8.393402,31.544528985507245
2,-0.2102966,-0.2234802,0.9517365,1.0,-0.2134094,-0.2578278,0.9423218,-25.33952,7.283127,-25.02872,4.026047,0.3201043,0.3530506,1.0,-0.2077179,-0.1968384,0.9581604,30.11285,7.477341,-28.26378,4.566635,0.6246874,0.3596513,0.1089538,1.19198,-0.2831736,0.164528,0.3153935,-0.07678534,2.533262,-8.393402,32.71
2,-0.2102966,-0.2234802,0.9517365,1.0,-0.2134094,-0.2578278,0.9423218,-25.33952,7.283127,-25.02872,4.026047,0.3201043,0.3530506,1.0,-0.2077179,-0.1968384,0.9581604,30.11285,7.477341,-28.26378,4.566635,0.6246874,0.3596513,0.1089538,1.19198,-0.2831736,0.164528,0.3153935,-0.07678534,2.533262,-8.393402,32.69
2,-0.1707306,-0.1901093,0.9667969,0.9930431,-0.1609802,-0.2143097,0.9633942,-24.99811,7.481766,-24.90964,4.14624,0.2998298,0.3366224,0.883155,-0.1778564,-0.1721497,0.9688721,30.45641,7.612015,-28.194,4.64653,0.6076887,0.3497913,0.1099035,1.190892,-0.2840985,0.166397,0.3271307,-0.07972023,2.533262,-8.393402,32.69
2,-0.1483917,-0.1764984,0.9730377,1.0,-0.1422424,-0.1832275,0.9727173,-24.80145,7.50679,-24.86891,4.199829,0.2900008,0.3294832,1.0,-0.1521912,-0.1723175,0.9732056,30.66403,7.59758,-28.19473,4.55307,0.5961155,0.350286,0.110346,1.190408,-0.2844923,0.1674108,0.3324074,-0.08108327,2.533262,-8.393402,32.69
2,-0.1483917,-0.1764984,0.9730377,1.0,-0.1422424,-0.1832275,0.9727173,-24.80145,7.50679,-24.86891,4.199829,0.2900008,0.3294832,1.0,-0.1521912,-0.1723175,0.9732056,30.66403,7.59758,-28.19473,4.55307,0.5961155,0.350286,0.110346,1.190408,-0.2844923,0.1674108,0.3324074,-0.08108327,2.533262,-8.393402,32.69
2,-0.1370544,-0.1734619,0.9752502,1.0,-0.1261139,-0.1915131,0.9733429,-24.76535,7.526123,-24.86893,4.287766,0.285943,0.3299844,1.0,-0.1437988,-0.1622467,0.9762115,30.70668,7.589035,-28.19836,4.500961,0.5932364,0.3487944,0.1107545,1.18944,-0.2853069,0.1692313,0.3415513,-0.08371737,2.533262,-8.393402,32.69
2,-0.1370544,-0.1734619,0.9752502,1.0,-0.1261139,-0.1915131,0.9733429,-24.76535,7.526123,-24.86893,4.287766,0.285943,0.3299844,1.0,-0.1437988,-0.1622467,0.9762115,30.70668,7.589035,-28.19836,4.500961,0.5932364,0.3487944,0.1109762,1.188999,-0.2856586,0.1701001,0.345964,-0.08512538,2.533262,-8.393402,32.69
2,-0.1370544,-0.1734619,0.9752502,1.0,-0.1261139,-0.1915131,0.9733429,-24.76535,7.526123,-24.86893,4.287766,0.285943,0.3299844,1.0,-0.1437988,-0.1622467,0.9762115,30.70668,7.589035,-28.19836,4.500961,0.5932364,0.3487944,0.1109762,1.188999,-0.2856586,0.1701001,0.345964,-0.08512538,2.533262,-8.393402,32.69
2,-0.1370544,-0.1734619,0.9752502,1.0,-0.1261139,-0.1915131,0.9733429,-24.76535,7.526123,-24.86893,4.287766,0.285943,0.3299844,1.0,-0.1437988,-0.1622467,0.9762115,30.70668,7.589035,-28.19836,4.500961,0.5932364,0.3487944,0.1109246,1.187965,-0.2864999,0.1718307,0.3534435,-0.08756093,2.533262,-8.393402,32.69
2,-0.1281128,-0.1717987,0.9767609,1.0,-0.1124268,-0.1898193,0.9753571,-24.69008,7.547958,-24.85355,4.278,0.2810713,0.328557,1.0,-0.1375122,-0.1609192,0.9773254,30.74731,7.606781,-28.20657,4.603378,0.5907724,0.34794,0.1108152,1.18709,-0.2872022,0.1733078,0.359672,-0.08966827,2.533262,-8.393402,32.69
2,-0.1281128,-0.1717987,0.9767609,1.0,-0.1124268,-0.1898193,0.9753571,-24.69008,7.547958,-24.85355,4.278,0.2810713,0.328557,1.0,-0.1375122,-0.1609192,0.9773254,30.74731,7.606781,-28.20657,4.603378,0.5907724,0.34794,0.1108152,1.18709,-0.2872022,0.1733078,0.359672,-0.08966827,2.533262,-8.393402,32.69
2,-0.0874939,-0.1595306,0.9833069,0.9760691,-0.0851593,-0.1709137,0.9815826,-24.38576,7.66481,-24.7314,4.403137,0.2659024,0.3194165,0.8919748,-0.09112549,-0.1416931,0.9857025,30.9763,7.732834,-28.34424,4.713867,0.5751916,0.3410121,0.1107283,1.186634,-0.2874789,0.1739642,0.3624965,-0.09057774,2.533262,-8.393402,32.69
2,-0.0874939,-0.1595306,0.9833069,0.9760691,-0.0851593,-0.1709137,0.9815826,-24.38576,7.66481,-24.7314,4.403137,0.2659024,0.3194165,0.8919748,-0.09112549,-0.1416931,0.9857025,30.9763,7.732834,-28.34424,4.713867,0.5751916,0.3410121,0.1107283,1.186634,-0.2874789,0.1739642,0.3624965,-0.09057774,2.533262,-8.393402,32.69
2,-0.05645752,-0.15448,0.9863739,1.0,-0.05601501,-0.1550751,0.9862976,-24.35324,7.713959,-24.72643,4.233368,0.2599838,0.3146923,1.0,-0.08522034,-0.1152802,0.9896545,30.98953,7.945724,-29.03865,4.853546,0.574404,0.3342994,0.110419,1.185637,-0.2883419,0.1755265,0.3680078,-0.09239562,2.533262,-8.393402,32.69
2,-0.07569885,-0.1486053,0.9859924,1.0,-0.07569885,-0.1486053,0.9859924,-24.32098,7.732498,-24.7668,4.386734,0.2618813,0.3131684,1.0,-0.07936096,-0.1116791,0.9905548,31.01094,8.110321,-29.69711,4.743027,0.5732528,0.3330292,0.1099865,1.184621,-0.2892895,0.177415,0.3727883,-0.09393968,2.533262,-8.393402,32.69
2,-0.07569885,-0.1486053,0.9859924,1.0,-0.07569885,-0.1486053,0.9859924,-24.32098,7.732498,-24.7668,4.386734,0.2618813,0.3131684,1.0,-0.07936096,-0.1116791,0.9905548,31.01094,8.110321,-29.69711,4.743027,0.5732528,0.3330292,0.1099865,1.184621,-0.2892895,0.177415,0.3727883,-0.09393968,2.533262,-8.393402,32.69
2,-0.108139,-0.1619873,0.980835,1.0,-0.108139,-0.1619873,0.980835,-24.60204,7.544662,-24.84312,4.530365,0.2770957,0.3234271,1.0,-0.1219482,-0.1407623,0.9824982,30.74097,7.715775,-28.54964,4.854324,0.5887915,0.3429301,0.109738,1.184197,-0.2897375,0.1784963,0.3746303,-0.09446768,2.533262,-12.2348,32.69
2,-0.1536865,-0.2091522,0.9657288,1.0,-0.1536865,-0.2091522,0.9657288,-24.86057,7.391556,-24.88632,4.23674,0.2939519,0.338317,1.0,-0.1593781,-0.1728973,0.9719543,30.47118,7.593719,-28.53008,4.863037,0.6043306,0.3530796,0.1094978,1.183703,-0.2901525,0.1795568,0.3765238,-0.09496725,2.533262,-12.2348,32.69
2,-0.1536865,-0.2091522,0.9657288,1.0,-0.1536865,-0.2091522,0.9657288,-24.86057,7.391556,-24.88632,4.23674,0.2939519,0.338317,1.0,-0.1593781,-0.1728973,0.9719543,30.47118,7.593719,-28.53008,4.863037,0.6043306,0.3530796,0.1094978,1.183703,-0.2901525,0.1795568,0.3765238,-0.09496725,2.533262,-12.2348,32.69
2,-0.125824,-0.2120972,0.969101,1.0,-0.125824,-0.2120972,0.969101,-24.81342,7.433365,-24.88095,4.285843,0.287599,0.3369464,1.0,-0.1682281,-0.1678314,0.971344,30.54932,7.636734,-28.52414,4.879608,0.6031546,0.3506652,0.1089741,1.182876,-0.2908802,0.1813947,0.3791795,-0.09578242,2.533262,-12.2348,32.69
2,-0.1080017,-0.2284698,0.9675293,1.0,-0.1080017,-0.2284698,0.9675293,-24.75955,7.450256,-24.87576,4.142319,0.2828979,0.3390375,1.0,-0.1487122,-0.1607666,0.975708,30.6243,7.664063,-28.53017,4.847168,0.5972596,0.3484181,0.1085885,1.182463,-0.2912116,0.1823614,0.3797449,-0.09590866,2.533262,-12.2348,32.69
2,-0.1080017,-0.2284698,0.9675293,1.0,-0.1080017,-0.2284698,0.9675293,-24.75955,7.450256,-24.87576,4.142319,0.2828979,0.3390375,1.0,-0.1487122,-0.1607666,0.975708,30.6243,7.664063,-28.53017,4.847168,0.5972596,0.3484181,0.1085885,1.182463,-0.2912116,0.1823614,0.3797449,-0.09590866,2.533262,-12.2348,32.69
2,-0.106781,-0.1809082,0.9776764,1.0,-0.1067505,-0.1809082,0.9776764,-24.70009,7.494171,-24.85011,4.462402,0.2802968,0.3286341,1.0,-0.144043,-0.1662445,0.9754944,30.65413,7.679489,-28.5285,4.830109,0.595423,0.3488398,0.1075853,1.181836,-0.2916604,0.1839215,0.3798373,-0.09634642,2.533262,-12.2348,32.69
2,-0.106781,-0.1809082,0.9776764,1.0,-0.1067505,-0.1809082,0.9776764,-24.70009,7.494171,-24.85011,4.462402,0.2802968,0.3286341,1.0,-0.144043,-0.1662445,0.9754944,30.65413,7.679489,-28.5285,4.830109,0.595423,0.3488398,0.1070548,1.181623,-0.2918005,0.1842947,0.379206,-0.09679014,2.533262,-12.2348,32.69
2,-0.106781,-0.1809082,0.9776764,1.0,-0.1067505,-0.1809082,0.9776764,-24.70009,7.494171,-24.85011,4.462402,0.2802968,0.3286341,1.0,-0.144043,-0.1662445,0.9754944,30.65413,7.679489,-28.5285,4.830109,0.595423,0.3488398,0.1070548,1.181623,-0.2918005,0.1842947,0.379206,-0.09679014,2.533262,-12.2348,32.69
2,-0.106781,-0.1809082,0.9776764,1.0,-0.1067505,-0.1809082,0.9776764,-24.70009,7.494171,-24.85011,4.462402,0.2802968,0.3286341,1.0,-0.144043,-0.1662445,0.9754944,30.65413,7.679489,-28.5285,4.830109,0.595423,0.3488398,0.1056575,1.181195,-0.2920685,0.1840172,0.3780625,-0.09788243,2.533262,-12.2348,32.69
2,-0.106781,-0.1809082,0.9776764,1.0,-0.1067505,-0.1809082,0.9776764,-24.70009,7.494171,-24.85011,4.462402,0.2802968,0.3286341,1.0,-0.144043,-0.1662445,0.9754944,30.65413,7.679489,-28.5285,4.830109,0.595423,0.3488398,0.1052954,1.181176,-0.2920854,0.1836645,0.3773231,-0.09862292,2.533262,-12.2348,32.69
2,-0.1264343,-0.1587372,0.979187,1.0,-0.1207428,-0.1639252,0.9790497,-24.65544,7.513702,-24.8443,4.723755,0.2807986,0.3248641,1.0,-0.1311951,-0.1544037,0.979248,30.7188,7.727173,-28.54053,4.888962,0.59105,0.3450592,0.1047388,1.181165,-0.2921118,0.1833918,0.3765085,-0.09948558,2.533262,-12.2348,32.69
2,-0.1264343,-0.1587372,0.979187,1.0,-0.1207428,-0.1639252,0.9790497,-24.65544,7.513702,-24.8443,4.723755,0.2807986,0.3248641,1.0,-0.1311951,-0.1544037,0.979248,30.7188,7.727173,-28.54053,4.888962,0.59105,0.3450592,0.1047388,1.181165,-0.2921118,0.1833918,0.3765085,-0.09948558,2.533262,-12.2348,32.69
2,-0.1265259,-0.1376953,0.9823456,1.0,-0.1163177,-0.1478424,0.982132,-24.62881,7.642227,-24.87012,4.75383,0.2789356,0.3176861,1.0,-0.1356964,-0.12854,0.9823608,30.79297,7.841766,-28.58412,5.022217,0.5894012,0.3367024,0.1036415,1.181054,-0.2920935,0.1831564,0.3740343,-0.1001391,2.533262,-12.2348,32.69
2,-0.1267395,-0.1221313,0.984375,1.0,-0.1259918,-0.1285248,0.9836578,-24.61203,7.655304,-24.90244,4.966187,0.279636,0.3140402,1.0,-0.1278839,-0.1121368,0.9854126,30.8009,7.820038,-28.7549,5.073853,0.5879641,0.3358887,0.1022048,1.181035,-0.2920673,0.183344,0.3699086,-0.09968384,2.533262,-12.2348,32.69
2,-0.1267395,-0.1221313,0.984375,1.0,-0.1259918,-0.1285248,0.9836578,-24.61203,7.655304,-24.90244,4.966187,0.279636,0.3140402,1.0,-0.1278839,-0.1121368,0.9854126,30.8009,7.820038,-28.7549,5.073853,0.5879641,0.3358887,0.1022048,1.181035,-0.2920673,0.183344,0.3699086,-0.09968384,2.533262,-12.2348,32.69
2,-0.09970093,-0.130722,0.9863892,1.0,-0.0927124,-0.1342316,0.9865875,-24.58273,7.67363,-24.92215,4.697952,0.2732778,0.3142694,1.0,-0.1236115,-0.1186523,0.985199,30.81374,7.824417,-28.75635,5.11113,0.5867865,0.3368401,0.1022048,1.181035,-0.2920673,0.183344,0.3699086,-0.09968384,2.533262,10.50409,32.69
2,-0.09770203,-0.1332245,0.9862518,1.0,-0.09538269,-0.1362152,0.9860687,-24.57455,7.681198,-24.92224,4.815903,0.2732778,0.3142694,1.0,-0.1139374,-0.1121063,0.9871368,30.82414,7.880173,-28.90739,5.113907,0.5849492,0.3348787,0.1007327,1.181078,-0.2917591,0.1831851,0.3648338,-0.09882253,2.533262,10.50409,32.69
2,-0.09770203,-0.1332245,0.9862518,1.0,-0.09538269,-0.1362152,0.9860687,-24.57455,7.681198,-24.92224,4.815903,0.2732778,0.3142694,1.0,-0.1139374,-0.1121063,0.9871368,30.82414,7.880173,-28.90739,5.113907,0.5849492,0.3348787,0.1007327,1.181078,-0.2917591,0.1831851,0.3648338,-0.09882253,2.533262,10.50409,32.69
2,-0.1002197,-0.1340942,0.9858856,1.0,-0.09597778,-0.1373444,0.9858551,-24.56941,7.688339,-24.92952,4.815277,0.2731858,0.3142694,1.0,-0.1172943,-0.1208801,0.9857025,30.83699,7.885254,-28.76631,5.100067,0.5849492,0.3351074,0.099002,1.181175,-0.2913678,0.1830231,0.3590454,-0.09808629,2.538386,10.50409,32.69
3,-0.1035156,-0.1316223,0.9858704,1.0,-0.0897522,-0.1377869,0.9863739,-24.56699,7.692657,-24.94209,4.728439,0.2721203,0.3142694,1.0,-0.1260376,-0.1214447,0.9845581,30.85478,7.909485,-28.78337,5.218353,0.5858361,0.3344871,0.09723711,1.18159,-0.2909179,0.182575,0.3516697,-0.09683369,2.538386,10.50409,32.69
3,-0.1035156,-0.1316223,0.9858704,1.0,-0.0897522,-0.1377869,0.9863739,-24.56699,7.692657,-24.94209,4.728439,0.2721203,0.3142694,1.0,-0.1260376,-0.1214447,0.9845581,30.85478,7.909485,-28.78337,5.218353,0.5858361,0.3344871,0.09723711,1.18159,-0.2909179,0.182575,0.3516697,-0.09683369,2.538386,10.50409,32.69
3,-0.1023712,-0.1291199,0.9863129,1.0,-0.08781433,-0.1391754,0.9863586,-24.56305,7.692734,-24.95689,4.690125,0.2716761,0.3146071,1.0,-0.125,-0.1134033,0.9856415,30.87216,7.944763,-28.88167,5.227249,0.5851752,0.3325872,0.09538388,1.182112,-0.2902064,0.1817733,0.342087,-0.09458125,2.538386,10.50409,32.69
3,-0.1023712,-0.1291199,0.9863129,1.0,-0.08781433,-0.1391754,0.9863586,-24.56305,7.692734,-24.95689,4.690125,0.2716761,0.3146071,1.0,-0.125,-0.1134033,0.9856415,30.87216,7.944763,-28.88167,5.227249,0.5851752,0.3325872,0.09538388,1.182112,-0.2902064,0.1817733,0.342087,-0.09458125,2.538386,10.50409,32.69
3,-0.100296,-0.1333313,0.9859772,1.0,-0.08892822,-0.1441193,0.9855499,-24.55637,7.699463,-24.96815,4.678665,0.2716282,0.3153437,1.0,-0.1221924,-0.1123962,0.9861145,30.87692,7.952209,-28.90364,5.226563,0.584565,0.3322929,0.09346831,1.182721,-0.2894104,0.1808424,0.3320972,-0.09208553,2.538386,10.50409,32.69
3,-0.100296,-0.1333313,0.9859772,1.0,-0.08892822,-0.1441193,0.9855499,-24.55637,7.699463,-24.96815,4.678665,0.2716282,0.3153437,1.0,-0.1221924,-0.1123962,0.9861145,30.87692,7.952209,-28.90364,5.226563,0.584565,0.3322929,0.09346831,1.182721,-0.2894104,0.1808424,0.3320972,-0.09208553,2.538386,10.50409,32.69
3,-0.09173584,-0.1434784,0.9853821,1.0,-0.08959961,-0.1447144,0.9853973,-24.55083,7.705688,-24.96815,4.686264,0.2715364,0.3152217,1.0,-0.1146545,-0.1300659,0.984848,30.83044,7.964569,-29.10922,5.16153,0.5850572,0.3365803,0.09139788,1.183167,-0.2887253,0.1803998,0.3218703,-0.0893619,2.538386,10.50409,32.69
3,-0.09173584,-0.1434784,0.9853821,1.0,-0.08959961,-0.1447144,0.9853973,-24.55083,7.705688,-24.96815,4.686264,0.2715364,0.3152217,1.0,-0.1146545,-0.1300659,0.984848,30.83044,7.964569,-29.10922,5.16153,0.5850572,0.3365803,0.09139788,1.183167,-0.2887253,0.1803998,0.3218703,-0.0893619,2.538386,10.50409,32.69
3,-0.08221436,-0.1888733,0.9785461,1.0,-0.08433533,-0.1891022,0.9783173,-23.91144,7.273163,-24.89699,5.250717,0.2482125,0.3358834,1.0,-0.05754089,-0.1860504,0.9808502,31.16571,7.493271,-28.88618,5.160355,0.5632048,0.3614687,0.08931625,1.183538,-0.2879806,0.1807457,0.3112858,-0.08659303,2.538386,10.50409,32.69
3,-0.08221436,-0.1888733,0.9785461,1.0,-0.08433533,-0.1891022,0.9783173,-23.91144,7.273163,-24.89699,5.250717,0.2482125,0.3358834,1.0,-0.05754089,-0.1860504,0.9808502,31.16571,7.493271,-28.88618,5.160355,0.5632048,0.3614687,0.08931625,1.183538,-0.2879806,0.1807457,0.3112858,-0.08659303,2.538386,10.50409,32.69
3,-0.02220154,-0.2451782,0.9692078,1.0,-0.02528381,-0.2392883,0.9706116,-23.6404,6.921356,-25.0206,5.34079,0.2286419,0.3566289,1.0,-0.0003662109,-0.2866516,0.9580231,31.25166,7.136414,-28.99664,4.81958,0.5504392,0.3930533,0.08723474,1.18353,-0.2872539,0.181622,0.3001248,-0.08413381,2.538386,27.0213,32.69
3,-0.02220154,-0.2451782,0.9692078,1.0,-0.02528381,-0.2392883,0.9706116,-23.6404,6.921356,-25.0206,5.34079,0.2286419,0.3566289,1.0,-0.0003662109,-0.2866516,0.9580231,31.25166,7.136414,-28.99664,4.81958,0.5504392,0.3930533,0.08723474,1.18353,-0.2872539,0.181622,0.3001248,-0.08413381,2.538386,27.0213,32.69
3,-0.03544617,-0.2513885,0.9672241,1.0,-0.03726196,-0.2454834,0.9686737,-23.72717,6.911087,-24.9962,5.39534,0.2337407,0.3580754,1.0,-0.0269165,-0.2788696,0.9599457,31.24995,7.128174,-28.99731,4.837036,0.5549483,0.391938,0.08521807,1.183233,-0.2868991,0.1827646,0.290196,-0.08236717,2.538386,27.0213,32.69
3,-0.03544617,-0.2513885,0.9672241,1.0,-0.03726196,-0.2454834,0.9686737,-23.72717,6.911087,-24.9962,5.39534,0.2337407,0.3580754,1.0,-0.0269165,-0.2788696,0.9599457,31.24995,7.128174,-28.99731,4.837036,0.5549483,0.391938,0.08521807,1.183233,-0.2868991,0.1827646,0.290196,-0.08236717,2.538386,27.0213,32.69
3,-0.04977417,-0.2918854,0.9551544,1.0,-0.06680298,-0.2859497,0.9559021,-23.86772,6.929901,-24.99033,4.880432,0.2444522,0.3655523,1.0,-0.02206421,-0.3013306,0.9532623,31.13364,7.183716,-28.98038,4.580811,0.5581275,0.3940891,0.08365214,1.182862,-0.2865918,0.1843094,0.2823508,-0.08141971,2.538386,27.0213,32.69
3,-0.04977417,-0.2918854,0.9551544,1.0,-0.06680298,-0.2859497,0.9559021,-23.86772,6.929901,-24.99033,4.880432,0.2444522,0.3655523,1.0,-0.02206421,-0.3013306,0.9532623,31.13364,7.183716,-28.98038,4.580811,0.5581275,0.3940891,0.08365214,1.182862,-0.2865918,0.1843094,0.2823508,-0.08141971,2.538386,27.0213,32.69
3,-0.04168701,-0.2492981,0.967514,0.9850377,-0.03392029,-0.2194977,0.9750061,-24.24461,6.89949,-25.00409,5.396637,0.2514033,0.3548245,0.7777342,-0.04872131,-0.2762299,0.9598389,30.97481,7.217834,-28.97769,4.907623,0.5681563,0.3881968,0.0822798,1.182378,-0.2864176,0.1867901,0.2760389,-0.08060237,2.538386,27.0213,32.69
3,-0.04168701,-0.2492981,0.967514,0.9850377,-0.03392029,-0.2194977,0.9750061,-24.24461,6.89949,-25.00409,5.396637,0.2514033,0.3548245,0.7777342,-0.04872131,-0.2762299,0.9598389,30.97481,7.217834,-28.97769,4.907623,0.5681563,0.3881968,0.0822798,1.182378,-0.2864176,0.1867901,0.2760389,-0.08060237,2.538386,27.0213,32.69
3,-0.02528381,-0.2666626,0.9634552,0.9750625,-0.009246826,-0.2189026,0.9756927,-24.35884,6.880325,-25.01343,5.170868,0.2514926,0.3555753,0.770072,-0.03727722,-0.3020172,0.9525604,30.92389,7.222626,-28.98885,4.592407,0.567962,0.3929672,0.08122015,1.181747,-0.2860615,0.1895893,0.269848,-0.07952148,2.538386,27.0213,32.69
3,-0.02528381,-0.2666626,0.9634552,0.9750625,-0.009246826,-0.2189026,0.9756927,-24.35884,6.880325,-25.01343,5.170868,0.2514926,0.3555753,0.770072,-0.03727722,-0.3020172,0.9525604,30.92389,7.222626,-28.98885,4.592407,0.567962,0.3929672,0.08122015,1.181747,-0.2860615,0.1895893,0.269848,-0.07952148,2.538386,27.0213,32.69
3,-0.04846191,-0.31073,0.9492493,0.9777626,-0.03788757,-0.3157501,0.9480743,-24.42883,6.910629,-25.05174,4.866318,0.2590839,0.3725573,0.8059798,-0.05455017,-0.3078308,0.9498749,30.91104,7.232758,-28.99487,4.554398,0.5713149,0.3937836,0.08014143,1.18114,-0.2856847,0.1928693,0.2635259,-0.07848922,2.538386,27.0213,32.69
3,-0.04846191,-0.31073,0.9492493,0.9777626,-0.03788757,-0.3157501,0.9480743,-24.42883,6.910629,-25.05174,4.866318,0.2590839,0.3725573,0.8059798,-0.05455017,-0.3078308,0.9498749,30.91104,7.232758,-28.99487,4.554398,0.5713149,0.3937836,0.08014143,1.18114,-0.2856847,0.1928693,0.2635259,-0.07848922,2.538386,27.0213,32.69
3,-0.05500793,-0.2989655,0.9526672,0.9894613,-0.05343628,-0.3167572,0.946991,-24.42892,6.920883,-25.04506,4.664352,0.2619005,0.3726425,0.8042178,-0.05601501,-0.2874298,0.9561462,30.91019,7.246811,-28.99124,4.845078,0.5716259,0.3893807,0.07893693,1.180311,-0.2852845,0.1959403,0.2581651,-0.07809705,2.538386,27.0213,32.69
3,-0.05500793,-0.2989655,0.9526672,0.9894613,-0.05343628,-0.3167572,0.946991,-24.42892,6.920883,-25.04506,4.664352,0.2619005,0.3726425,0.8042178,-0.05601501,-0.2874298,0.9561462,30.91019,7.246811,-28.99124,4.845078,0.5716259,0.3893807,0.07893693,1.180311,-0.2852845,0.1959403,0.2581651,-0.07809705,2.538386,27.0213,32.69
3,-0.06687927,-0.2869873,0.9555817,0.9927583,-0.06185913,-0.3361053,0.9397736,-24.46344,6.934784,-25.05508,4.319794,0.2648066,0.3761275,0.807484,-0.07116699,-0.243042,0.967392,30.88441,7.292313,-28.97636,5.356476,0.5751576,0.3794215,0.0778625,1.179354,-0.284988,0.1994608,0.254106,-0.0777973,2.538386,27.0213,32.69
3,-0.06687927,-0.2869873,0.9555817,0.9927583,-0.06185913,-0.3361053,0.9397736,-24.46344,6.934784,-25.05508,4.319794,0.2648066,0.3761275,0.807484,-0.07116699,-0.243042,0.967392,30.88441,7.292313,-28.97636,5.356476,0.5751576,0.3794215,0.0778625,1.179354,-0.284988,0.1994608,0.254106,-0.0777973,2.538386,27.0213,32.69
3,-0.07858276,-0.271347,0.959259,0.9895384,-0.07415771,-0.3148956,0.9462128,-24.57626,6.931351,-25.06389,4.496979,0.2705843,0.3726094,0.8115541,-0.08322144,-0.2231598,0.9712067,30.81564,7.345947,-28.96251,5.524826,0.5796319,0.373799,0.07748783,1.178433,-0.2841938,0.203748,0.2504893,-0.07696008,2.538386,-8.881531,32.69
3,-0.07858276,-0.271347,0.959259,0.9895384,-0.07415771,-0.3148956,0.9462128,-24.57626,6.931351,-25.06389,4.496979,0.2705843,0.3726094,0.8115541,-0.08322144,-0.2231598,0.9712067,30.81564,7.345947,-28.96251,5.524826,0.5796319,0.373799,0.07748783,1.178433,-0.2841938,0.203748,0.2504893,-0.07696008,2.538386,-8.881531,32.69
3,-0.06976318,-0.2682953,0.9608002,1.0,-0.06161499,-0.3157043,0.9468384,-24.5775,6.967178,-25.04131,4.498032,0.2685376,0.3712437,1.0,-0.07710266,-0.2242432,0.9714661,30.80682,7.347214,-28.9651,5.436615,0.5789061,0.3740049,0.07654202,1.177035,-0.2838725,0.2094228,0.2470599,-0.07649485,2.538386,-8.881531,32.69
3,-0.06976318,-0.2682953,0.9608002,1.0,-0.06161499,-0.3157043,0.9468384,-24.5775,6.967178,-25.04131,4.498032,0.2685376,0.3712437,1.0,-0.07710266,-0.2242432,0.9714661,30.80682,7.347214,-28.9651,5.436615,0.5789061,0.3740049,0.07654202,1.177035,-0.2838725,0.2094228,0.2470599,-0.07649485,2.538386,-8.881531,32.69
3,-0.08424377,-0.2820129,0.9556885,0.9944948,-0.08287048,-0.3215179,0.9432526,-24.4761,6.802872,-25.09088,4.68576,0.2684281,0.3781686,0.8188778,-0.08547974,-0.2417755,0.9665527,30.8091,7.16684,-29.03557,5.461884,0.5801804,0.3840757,0.07624185,1.175877,-0.2829361,0.2159019,0.2429588,-0.07559366,2.538386,-8.881531,32.69
3,-0.08424377,-0.2820129,0.9556885,0.9944948,-0.08287048,-0.3215179,0.9432526,-24.4761,6.802872,-25.09088,4.68576,0.2684281,0.3781686,0.8188778,-0.08547974,-0.2417755,0.9665527,30.8091,7.16684,-29.03557,5.461884,0.5801804,0.3840757,0.07624185,1.175877,-0.2829361,0.2159019,0.2429588,-0.07559366,2.538386,-8.881531,32.69
3,-0.08424377,-0.2820129,0.9556885,0.9944948,-0.08287048,-0.3215179,0.9432526,-24.4761,6.802872,-25.09088,4.68576,0.2684281,0.3781686,0.8188778,-0.08547974,-0.2417755,0.9665527,30.8091,7.16684,-29.03557,5.461884,0.5801804,0.3840757,0.07624185,1.175877,-0.2829361,0.2159019,0.2429588,-0.07559366,2.538386,-8.881531,32.69
3,-0.08537292,-0.319809,0.9436188,0.9461262,-0.08180237,-0.3188019,0.9442749,-24.34972,6.445526,-25.21906,5.345139,0.2630842,0.3900459,0.7933472,-0.0920105,-0.3216553,0.9423676,30.77095,6.754501,-29.2157,5.174347,0.5824972,0.4145938,0.07541549,1.174414,-0.2822702,0.2222331,0.2379807,-0.07450871,2.538386,-8.881531,32.69
3,-0.07980347,-0.3175049,0.9448853,0.9805449,-0.07609558,-0.3082275,0.9482574,-24.37199,6.411652,-25.23366,5.165634,0.2630802,0.3895266,0.7821891,-0.09042358,-0.3440247,0.9345856,30.78236,6.766388,-29.22784,5.063995,0.5818379,0.4184518,0.07458651,1.17297,-0.2816333,0.2278945,0.2338144,-0.07455759,2.538386,-8.881531,32.69
3,-0.07980347,-0.3175049,0.9448853,0.9805449,-0.07609558,-0.3082275,0.9482574,-24.37199,6.411652,-25.23366,5.165634,0.2630802,0.3895266,0.7821891,-0.09042358,-0.3440247,0.9345856,30.78236,6.766388,-29.22784,5.063995,0.5818379,0.4184518,0.07458651,1.17297,-0.2816333,0.2278945,0.2338144,-0.07455759,2.538386,-8.881531,32.69
3,-0.09954834,-0.3422546,0.9343109,0.956995,-0.09799194,-0.3482361,0.932251,-24.4097,6.43454,-25.25101,5.06163,0.2680812,0.3963848,0.7351022,-0.1032104,-0.3278961,0.9390411,30.78773,6.810318,-29.21004,5.11853,0.5838088,0.4138365,0.07413042,1.171831,-0.2807529,0.2327063,0.2315194,-0.0749457,2.538386,-8.881531,32.69
3,-0.09954834,-0.3422546,0.9343109,0.956995,-0.09799194,-0.3482361,0.932251,-24.4097,6.43454,-25.25101,5.06163,0.2680812,0.3963848,0.7351022,-0.1032104,-0.3278961,0.9390411,30.78773,6.810318,-29.21004,5.11853,0.5838088,0.4138365,0.07413042,1.171831,-0.2807529,0.2327063,0.2315194,-0.0749457,2.538386,-8.881531,32.69
3,-0.09991455,-0.3346405,0.937027,0.9596299,-0.07998657,-0.3360596,0.9384308,-24.47185,6.521606,-25.21254,4.739471,0.2676003,0.3910867,0.7012002,-0.121933,-0.3329163,0.9350281,30.75914,6.940033,-29.18448,4.836777,0.5879959,0.4102912,0.07393074,1.170825,-0.2797716,0.2369522,0.2292,-0.07456718,2.538386,-8.881531,32.69
3,-0.09991455,-0.3346405,0.937027,0.9596299,-0.07998657,-0.3360596,0.9384308,-24.47185,6.521606,-25.21254,4.739471,0.2676003,0.3910867,0.7012002,-0.121933,-0.3329163,0.9350281,30.75914,6.940033,-29.18448,4.836777,0.5879959,0.4102912,0.07393074,1.170825,-0.2797716,0.2369522,0.2292,-0.07456718,2.538386,-8.881531,32.69
3,-0.08042908,-0.3258972,0.9419708,0.9334174,-0.07646179,-0.3526611,0.9326172,-24.46985,6.624771,-25.17845,4.607208,0.2670954,0.3904232,0.7020594,-0.08418274,-0.2998199,0.9502563,30.78149,7.010712,-29.14265,5.216415,0.5808643,0.401029,0.07390547,1.170495,-0.2791498,0.2387678,0.2276761,-0.07399324,2.538386,-10.89172,32.69
3,-0.08042908,-0.3258972,0.9419708,0.9334174,-0.07646179,-0.3526611,0.9326172,-24.46985,6.624771,-25.17845,4.607208,0.2670954,0.3904232,0.7020594,-0.08418274,-0.2998199,0.9502563,30.78149,7.010712,-29.14265,5.216415,0.5808643,0.401029,0.07390547,1.170495,-0.2791498,0.2387678,0.2276761,-0.07399324,2.538386,-10.89172,32.69
3,-0.08204651,-0.3374939,0.9377289,0.9341668,-0.06947327,-0.3797607,0.9224548,-24.44365,6.680511,-25.17769,4.442795,0.2651295,0.3935155,0.732408,-0.09715271,-0.2849731,0.9535828,30.82608,7.040985,-29.12964,5.261658,0.5815075,0.3971967,0.07383752,1.169886,-0.2777792,0.2419226,0.2241106,-0.07292341,2.538386,-10.89172,32.69
3,-0.07034302,-0.348877,0.9345093,0.914782,-0.05323792,-0.4010773,0.9144897,-24.42436,6.729416,-25.17577,4.30867,0.2618359,0.3957342,0.7527764,-0.0884552,-0.2914734,0.9524689,30.86638,7.066696,-29.12283,5.192398,0.5786414,0.3974229,0.07354295,1.169449,-0.2772286,0.2432607,0.2221781,-0.07236886,2.538386,-10.89172,32.69
3,-0.07034302,-0.348877,0.9345093,0.914782,-0.05323792,-0.4010773,0.9144897,-24.42436,6.729416,-25.17577,4.30867,0.2618359,0.3957342,0.7527764,-0.0884552,-0.2914734,0.9524689,30.86638,7.066696,-29.12283,5.192398,0.5786414,0.3974229,0.07354295,1.169449,-0.2772286,0.2432607,0.2221781,-0.07236886,2.538386,-10.89172,32.69
3,-0.09507751,-0.3192749,0.9428711,0.9586844,-0.08840942,-0.3474884,0.9335022,-24.41777,6.731445,-25.16502,4.695358,0.2671812,0.3857719,0.7543545,-0.1012115,-0.2928009,0.9507904,30.89297,7.089783,-29.1194,5.163422,0.5798646,0.3969014,0.07319319,1.168749,-0.2758262,0.2461534,0.2185628,-0.07125928,2.538386,-10.89172,32.69
3,-0.07254028,-0.3021851,0.95047,0.9607276,-0.06123352,-0.3340149,0.940567,-24.41937,6.729645,-25.15114,4.568649,0.2628644,0.3831492,0.7465127,-0.08021545,-0.2801971,0.9565735,30.89769,7.088562,-29.11812,5.239197,0.5761899,0.3945282,0.07302499,1.168335,-0.2750876,0.2478481,0.2167491,-0.07062809,2.538386,-10.89172,32.69
3,-0.0919342,-0.2988434,0.9498596,0.9694746,-0.08657837,-0.3214722,0.9429474,-24.42082,6.727875,-25.14323,4.577713,0.2671689,0.3811209,0.7748299,-0.09501648,-0.2855682,0.9536285,30.90546,7.090057,-29.13324,5.218643,0.5784103,0.3956362,0.07293177,1.167993,-0.2741761,0.2495204,0.215015,-0.06997494,2.538386,-10.89172,32.69
3,-0.0919342,-0.2988434,0.9498596,0.9694746,-0.08657837,-0.3214722,0.9429474,-24.42082,6.727875,-25.14323,4.577713,0.2671689,0.3811209,0.7748299,-0.09501648,-0.2855682,0.9536285,30.90546,7.090057,-29.13324,5.218643,0.5784103,0.3956362,0.07293177,1.167993,-0.2741761,0.2495204,0.215015,-0.06997494,2.538386,-10.89172,32.69
3,-0.08824158,-0.2964783,0.950943,0.9815369,-0.08148193,-0.3240509,0.9425201,-24.42128,6.727844,-25.14267,4.55043,0.2663614,0.3815521,0.7618504,-0.09259033,-0.2784271,0.9559784,30.90782,7.088089,-29.13393,5.241943,0.5779293,0.3943958,0.0760299,1.16959,-0.2702565,0.2536632,0.2103761,-0.06833518,2.538386,-10.89172,32.69
3,-0.08932495,-0.3080444,0.9471588,0.9815369,-0.06980896,-0.3469238,0.9352875,-24.41982,6.72673,-25.14267,4.550446,0.2643453,0.3856087,0.7618504,-0.1023407,-0.2815704,0.9540558,30.93092,7.073593,-29.14807,5.154114,0.5787686,0.395678,0.07569313,1.16899,-0.2695104,0.2559021,0.2080843,-0.06735837,2.538386,-10.89172,32.69
3,-0.08746338,-0.3028107,0.9490204,0.9543033,-0.07171631,-0.3552246,0.9320221,-24.38457,6.697495,-25.14999,4.638489,0.2633541,0.3880614,0.7670594,-0.09892273,-0.2633972,0.9595947,30.96736,7.056808,-29.15358,5.210342,0.5769506,0.3929867,0.07495368,1.167663,-0.2680285,0.2609719,0.2032595,-0.06564865,2.538386,-10.89172,32.69
3,-0.08746338,-0.3028107,0.9490204,0.9543033,-0.07171631,-0.3552246,0.9320221,-24.38457,6.697495,-25.14999,4.638489,0.2633541,0.3880614,0.7670594,-0.09892273,-0.2633972,0.9595947,30.96736,7.056808,-29.15358,5.210342,0.5769506,0.3929867,0.07495368,1.167663,-0.2680285,0.2609719,0.2032595,-0.06564865,2.538386,-10.89172,32.69
3,-0.08700562,-0.2859344,0.9542847,0.9809859,-0.07092285,-0.3073425,0.9489441,-24.38112,6.68718,-25.12274,4.724655,0.2630955,0.3795065,0.7763901,-0.09829712,-0.2707367,0.9576111,30.97432,7.054153,-29.16153,5.167831,0.5765973,0.3944858,0.07459366,1.166907,-0.2672856,0.2636228,0.2008064,-0.06499175,2.538386,-10.89172,32.69
3,-0.08586121,-0.2725067,0.9582977,0.9842551,-0.07019043,-0.2987061,0.9517517,-24.41771,6.702209,-25.11469,4.81781,0.2641475,0.3773609,0.808531,-0.09747314,-0.2528381,0.9625702,30.93431,7.090164,-29.14703,5.365234,0.5778785,0.3897756,0.07426631,1.166211,-0.2665411,0.2662047,0.198683,-0.06426176,2.538386,-10.89172,32.69
3,-0.08586121,-0.2725067,0.9582977,0.9842551,-0.07019043,-0.2987061,0.9517517,-24.41771,6.702209,-25.11469,4.81781,0.2641475,0.3773609,0.808531,-0.09747314,-0.2528381,0.9625702,30.93431,7.090164,-29.14703,5.365234,0.5778785,0.3897756,0.07426631,1.166211,-0.2665411,0.2662047,0.198683,-0.06426176,2.538386,-10.89172,32.69
3,-0.0765686,-0.2885284,0.9543915,0.9515917,-0.06092834,-0.3253174,0.943634,-24.47601,6.730026,-25.12483,4.389755,0.2649998,0.3815784,0.8185881,-0.08877563,-0.2592316,0.9617157,30.87848,7.151566,-29.12723,5.307281,0.5783568,0.388607,0.07354867,1.164787,-0.2651323,0.271304,0.1950957,-0.06265597,2.538386,-10.89172,32.69
3,-0.07795715,-0.2649078,0.9611053,0.9972073,-0.0723877,-0.3096313,0.9480896,-24.53484,6.759964,-25.12222,4.518585,0.2688146,0.3778053,0.8271632,-0.08288574,-0.2236938,0.9711151,30.83131,7.19838,-29.10881,5.427612,0.5790781,0.3803451,0.07313275,1.163415,-0.2636387,0.2762326,0.1920954,-0.0609769,2.538386,-15.04413,32.69
3,-0.07795715,-0.2649078,0.9611053,0.9972073,-0.0723877,-0.3096313,0.9480896,-24.53484,6.759964,-25.12222,4.518585,0.2688146,0.3778053,0.8271632,-0.08288574,-0.2236938,0.9711151,30.83131,7.19838,-29.10881,5.427612,0.5790781,0.3803451,0.07313275,1.163415,-0.2636387,0.2762326,0.1920954,-0.0609769,2.538386,-15.04413,32.69
3,-0.07472229,-0.2626038,0.9619904,1.0,-0.06303406,-0.2838135,0.9568024,-24.55392,6.789459,-25.09508,4.698349,0.2677615,0.3717999,1.0,-0.08816528,-0.237915,0.9672699,30.80914,7.240952,-29.10956,5.339218,0.5807256,0.3814693,0.07292402,1.16282,-0.2629024,0.2785572,0.1905959,-0.06013088,2.538386,-15.04413,32.69
3,-0.07032776,-0.2529144,0.96492,0.9970351,-0.0458374,-0.2844696,0.9575806,-24.57271,6.841324,-25.07628,4.516998,0.2657163,0.3700293,0.830902,-0.09510803,-0.2204285,0.9707489,30.78702,7.278381,-29.10709,5.494354,0.582719,0.3769349,0.07267118,1.162195,-0.262154,0.2805221,0.1890799,-0.05914203,2.538386,-15.04413,32.69
3,-0.07032776,-0.2529144,0.96492,0.9970351,-0.0458374,-0.2844696,0.9575806,-24.57271,6.841324,-25.07628,4.516998,0.2657163,0.3700293,0.830902,-0.09510803,-0.2204285,0.9707489,30.78702,7.278381,-29.10709,5.494354,0.582719,0.3769349,0.07267118,1.162195,-0.262154,0.2805221,0.1890799,-0.05914203,2.538386,-15.04413,32.69
3,-0.1010284,-0.2373352,0.966156,1.0,-0.07879639,-0.2619781,0.9618378,-24.78604,6.792374,-25.11418,4.959625,0.2780988,0.3682612,1.0,-0.1220245,-0.2136841,0.9692383,30.60413,7.208664,-29.16008,5.543762,0.5936621,0.3786647,0.07241583,1.161211,-0.2606103,0.2839808,0.1866214,-0.05721999,2.538386,-15.04413,32.69
3,-0.1148529,-0.2324371,0.9657898,0.9898939,-0.08016968,-0.2490082,0.9651642,-24.94827,6.790649,-25.11592,4.73996,0.2840906,0.3663854,0.8069389,-0.1536865,-0.2133942,0.964798,30.39909,7.242188,-29.17223,5.444275,0.6062241,0.3776765,0.07240331,1.160792,-0.2598487,0.2853783,0.1857646,-0.05637455,2.538386,-15.04413,32.69
3,-0.1605377,-0.2595825,0.9522705,1.0,-0.1536255,-0.2684021,0.9509735,-24.97116,6.793549,-25.17203,4.943848,0.29674,0.3708124,1.0,-0.1685028,-0.2493896,0.9536285,30.37996,7.268555,-29.18217,5.261917,0.6093581,0.3835288,0.07198596,1.159617,-0.2587707,0.288198,0.1851048,-0.05504315,2.538386,-15.04413,32.69
3,-0.1605377,-0.2595825,0.9522705,1.0,-0.1536255,-0.2684021,0.9509735,-24.97116,6.793549,-25.17203,4.943848,0.29674,0.3708124,1.0,-0.1685028,-0.2493896,0.9536285,30.37996,7.268555,-29.18217,5.261917,0.6093581,0.3835288,0.07198596,1.159617,-0.2587707,0.288198,0.1851048,-0.05504315,2.538386,-15.04413,32.69
3,-0.1582489,-0.2523804,0.9545898,1.0,-0.1446075,-0.2614136,0.9543152,-25.02748,6.797455,-25.16679,5.020157,0.2970831,0.3693033,1.0,-0.171814,-0.2433014,0.9546051,30.34308,7.278046,-29.18864,5.2379,0.6112413,0.3821712,0.07200921,1.159231,-0.2581708,0.289571,0.1849493,-0.0544435,2.538386,-15.04413,32.69
3,-0.1579895,-0.2081299,0.9652557,1.0,-0.1581879,-0.2438965,0.9568024,-25.07922,6.803619,-25.16447,5.167557,0.3009444,0.3661357,1.0,-0.1576385,-0.1774597,0.971405,30.33301,7.291916,-29.18452,5.659576,0.6093417,0.3694594,0.0720886,1.158803,-0.2575943,0.2906829,0.1851054,-0.05395356,2.538386,-15.04413,32.69
3,-0.1579895,-0.2081299,0.9652557,1.0,-0.1581879,-0.2438965,0.9568024,-25.07922,6.803619,-25.16447,5.167557,0.3009444,0.3661357,1.0,-0.1576385,-0.1774597,0.971405,30.33301,7.291916,-29.18452,5.659576,0.6093417,0.3694594,0.0720886,1.158803,-0.2575943,0.2906829,0.1851054,-0.05395356,2.538386,-15.04413,32.69
3,-0.1579895,-0.2081299,0.9652557,1.0,-0.1581879,-0.2438965,0.9568024,-25.07922,6.803619,-25.16447,5.167557,0.3009444,0.3661357,1.0,-0.1576385,-0.1774597,0.971405,30.33301,7.291916,-29.18452,5.659576,0.6093417,0.3694594,0.0723089,1.158119,-0.2565757,0.2930346,0.1856711,-0.0528384,2.538386,-15.04413,32.69
3,-0.1579895,-0.2081299,0.9652557,1.0,-0.1581879,-0.2438965,0.9568024,-25.07922,6.803619,-25.16447,5.167557,0.3009444,0.3661357,1.0,-0.1576385,-0.1774597,0.971405,30.33301,7.291916,-29.18452,5.659576,0.6093417,0.3694594,0.07243764,1.157754,-0.2561132,0.2940396,0.1861363,-0.05228615,2.538386,-15.04413,32.69
3,-0.1579895,-0.2081299,0.9652557,1.0,-0.1581879,-0.2438965,0.9568024,-25.07922,6.803619,-25.16447,5.167557,0.3009444,0.3661357,1.0,-0.1576385,-0.1774597,0.971405,30.33301,7.291916,-29.18452,5.659576,0.6093417,0.3694594,0.07243764,1.157754,-0.2561132,0.2940396,0.1861363,-0.05228615,2.538386,-15.04413,32.69
3,-0.1579895,-0.2081299,0.9652557,1.0,-0.1581879,-0.2438965,0.9568024,-25.07922,6.803619,-25.16447,5.167557,0.3009444,0.3661357,1.0,-0.1576385,-0.1774597,0.971405,30.33301,7.291916,-29.18452,5.659576,0.6093417,0.3694594,0.07276917,1.156908,-0.255133,0.2962637,0.1868925,-0.05130266,2.538386,-15.04413,32.69
3,-0.1489868,-0.2403412,0.9591827,1.0,-0.1240387,-0.3018341,0.9452515,-25.10457,6.811295,-25.16168,4.719467,0.2965797,0.3759687,1.0,-0.1692047,-0.1883545,0.9674072,30.32678,7.298325,-29.19487,5.551437,0.6115152,0.37139,0.07302201,1.156597,-0.2545441,0.2976345,0.1871018,-0.05096169,2.538386,-23.35962,32.69
3,-0.1456146,-0.2129211,0.9661407,1.0,-0.1078949,-0.2526855,0.9615021,-25.1501,6.80806,-25.14714,4.844772,0.2954093,0.367107,1.0,-0.1802368,-0.1754303,0.9678345,30.24979,7.289352,-29.20541,5.585693,0.6161417,0.3694874,0.07314551,1.156073,-0.254173,0.2990189,0.1872117,-0.05055244,2.538386,-23.35962,32.69
3,-0.1456146,-0.2129211,0.9661407,1.0,-0.1078949,-0.2526855,0.9615021,-25.1501,6.80806,-25.14714,4.844772,0.2954093,0.367107,1.0,-0.1802368,-0.1754303,0.9678345,30.24979,7.289352,-29.20541,5.585693,0.6161417,0.3694874,0.07314551,1.156073,-0.254173,0.2990189,0.1872117,-0.05055244,2.538386,-23.35962,32.69
3,-0.1522675,-0.227829,0.9617157,1.0,-0.1280212,-0.2627716,0.9563141,-25.14679,6.792084,-25.17995,4.948944,0.2984657,0.3698114,1.0,-0.1773071,-0.1908722,0.9654541,30.2746,7.265091,-29.21523,5.562012,0.6147243,0.3732029,0.07333493,1.154913,-0.2534901,0.302154,0.1870208,-0.04999774,2.538386,-23.35962,32.69
3,-0.1501923,-0.2211456,0.9635925,1.0,-0.1262207,-0.2572479,0.9580536,-25.14679,6.786697,-25.17995,4.858612,0.2982666,0.3690574,1.0,-0.1711121,-0.1889343,0.9669647,30.29645,7.250427,-29.22171,5.616623,0.6129031,0.3733745,0.07333493,1.154913,-0.2534901,0.302154,0.1870208,-0.04999774,2.538386,-23.35962,32.69
3,-0.1590271,-0.2094421,0.964798,1.0,-0.1263123,-0.2504578,0.9598389,-25.14662,6.779388,-25.17871,4.877762,0.2982666,0.3680938,1.0,-0.1893463,-0.1703796,0.9670105,30.30655,7.248398,-29.23518,5.570297,0.6157264,0.3703631,0.0732497,1.153669,-0.2529608,0.3060436,0.1863486,-0.04951904,2.538386,-23.35962,32.69
3,-0.1590271,-0.2094421,0.964798,1.0,-0.1263123,-0.2504578,0.9598389,-25.14662,6.779388,-25.17871,4.877762,0.2982666,0.3680938,1.0,-0.1893463,-0.1703796,0.9670105,30.30655,7.248398,-29.23518,5.570297,0.6157264,0.3703631,0.0732497,1.153669,-0.2529608,0.3060436,0.1863486,-0.04951904,2.538386,-23.35962,32.69
3,-0.1480255,-0.2081451,0.9668274,1.0,-0.115921,-0.2499847,0.9612732,-25.1371,6.782501,-25.1675,4.732773,0.2963825,0.3677762,1.0,-0.1806793,-0.164444,0.969696,30.31102,7.248886,-29.23373,5.622467,0.6141019,0.3691905,0.07319593,1.152367,-0.2524325,0.3097664,0.1855927,-0.04956416,2.538386,-23.35962,32.69
3,-0.149292,-0.211441,0.9659119,1.0,-0.1151123,-0.2515717,0.9609528,-25.1412,6.792206,-25.17264,4.732574,0.2963825,0.3677762,1.0,-0.1810913,-0.1731262,0.9680939,30.29193,7.276093,-29.233,5.48587,0.614839,0.369839,0.07324255,1.151227,-0.2519389,0.3136593,0.1853466,-0.05031222,2.538386,-23.35962,32.69
3,-0.149292,-0.211441,0.9659119,1.0,-0.1151123,-0.2515717,0.9609528,-25.1412,6.792206,-25.17264,4.732574,0.2963825,0.3677762,1.0,-0.1810913,-0.1731262,0.9680939,30.29193,7.276093,-29.233,5.48587,0.614839,0.369839,0.07324255,1.151227,-0.2519389,0.3136593,0.1853466,-0.05031222,2.538386,-23.35962,32.69
3,-0.1497498,-0.1919861,0.9698944,1.0,-0.1114655,-0.2409515,0.9641113,-25.17537,6.834671,-25.16348,4.786331,0.2968903,0.3643719,1.0,-0.1864777,-0.1435699,0.9719086,30.24583,7.331161,-29.22916,5.635864,0.6174973,0.3624953,0.07344449,1.150113,-0.2515131,0.3171684,0.1855076,-0.05091181,2.538386,-23.35962,32.69
3,-0.1497498,-0.1919861,0.9698944,1.0,-0.1114655,-0.2409515,0.9641113,-25.17537,6.834671,-25.16348,4.786331,0.2968903,0.3643719,1.0,-0.1864777,-0.1435699,0.9719086,30.24583,7.331161,-29.22916,5.635864,0.6174973,0.3624953,0.07344449,1.150113,-0.2515131,0.3171684,0.1855076,-0.05091181,2.538386,-23.35962,32.69
3,-0.1781464,-0.1670685,0.9697113,1.0,-0.1477661,-0.222229,0.9637146,-25.20499,6.888367,-25.17226,5.054031,0.3035983,0.3596342,1.0,-0.2043457,-0.1178894,0.9717712,30.17821,7.389908,-29.23737,5.584244,0.6230885,0.355972,0.0735873,1.149171,-0.251104,0.3201855,0.1854631,-0.05124293,2.538386,-23.35962,32.69
3,-0.1781464,-0.1670685,0.9697113,1.0,-0.1477661,-0.222229,0.9637146,-25.20499,6.888367,-25.17226,5.054031,0.3035983,0.3596342,1.0,-0.2043457,-0.1178894,0.9717712,30.17821,7.389908,-29.23737,5.584244,0.6230885,0.355972,0.0735873,1.149171,-0.251104,0.3201855,0.1854631,-0.05124293,2.538386,-23.35962,32.69
3,-0.1790771,-0.1766815,0.9678345,1.0,-0.1698914,-0.1982117,0.9653168,-25.22525,6.928345,-25.17879,4.863098,0.3081567,0.3545516,1.0,-0.1877441,-0.1560669,0.9697266,30.15179,7.419891,-29.22136,5.518677,0.6210427,0.3615292,0.07384217,1.148276,-0.2507594,0.3229695,0.1856853,-0.05201155,2.538386,-31.40234,32.69
3,-0.1790771,-0.1766815,0.9678345,1.0,-0.1698914,-0.1982117,0.9653168,-25.22525,6.928345,-25.17879,4.863098,0.3081567,0.3545516,1.0,-0.1877441,-0.1560669,0.9697266,30.15179,7.419891,-29.22136,5.518677,0.6210427,0.3615292,0.07384217,1.148276,-0.2507594,0.3229695,0.1856853,-0.05201155,2.538386,-31.40234,32.69
3,-0.2042847,-0.1823273,0.9617767,1.0,-0.1811676,-0.2013702,0.9626007,-25.30771,6.882217,-25.21388,4.991562,0.3126459,0.3570808,1.0,-0.2259979,-0.1641541,0.9601898,30.09547,7.401321,-29.25824,5.369843,0.6296242,0.3642574,0.07416797,1.147473,-0.2504222,0.3251823,0.1865968,-0.05309399,2.538386,-31.40234,32.69
3,-0.2042847,-0.1823273,0.9617767,1.0,-0.1811676,-0.2013702,0.9626007,-25.30771,6.882217,-25.21388,4.991562,0.3126459,0.3570808,1.0,-0.2259979,-0.1641541,0.9601898,30.09547,7.401321,-29.25824,5.369843,0.6296242,0.3642574,0.07416797,1.147473,-0.2504222,0.3251823,0.1865968,-0.05309399,2.538386,-31.40234,32.69
4,-0.2530365,-0.1625977,0.9536896,1.0,-0.2463531,-0.1679993,0.9544983,-25.54495,6.745804,-25.32773,5.336502,0.3309698,0.3577526,1.0,-0.2578735,-0.1586609,0.9530487,29.81218,7.302414,-29.34047,5.560608,0.6452367,0.367448,0.07469475,1.14686,-0.2500423,0.3268651,0.1880449,-0.05401526,2.538386,-31.40234,32.69
4,-0.2530365,-0.1625977,0.9536896,1.0,-0.2463531,-0.1679993,0.9544983,-25.54495,6.745804,-25.32773,5.336502,0.3309698,0.3577526,1.0,-0.2578735,-0.1586609,0.9530487,29.81218,7.302414,-29.34047,5.560608,0.6452367,0.367448,0.07469475,1.14686,-0.2500423,0.3268651,0.1880449,-0.05401526,2.538386,-31.40234,32.69
4,-0.2471161,-0.1554108,0.9564362,1.0,-0.2549286,-0.1644897,0.9528503,-25.57001,6.743179,-25.33664,5.351212,0.3331976,0.3574417,1.0,-0.2424316,-0.1499634,0.9584961,29.82004,7.299698,-29.3385,5.732498,0.6422971,0.3657461,0.07526076,1.146265,-0.2497316,0.3283734,0.1892859,-0.05457703,2.538386,-31.40234,32.69
4,-0.2471161,-0.1554108,0.9564362,1.0,-0.2549286,-0.1644897,0.9528503,-25.57001,6.743179,-25.33664,5.351212,0.3331976,0.3574417,1.0,-0.2424316,-0.1499634,0.9584961,29.82004,7.299698,-29.3385,5.732498,0.6422971,0.3657461,0.07526076,1.146265,-0.2497316,0.3283734,0.1892859,-0.05457703,2.538386,-31.40234,32.69
4,-0.2259369,-0.1392059,0.9641266,1.0,-0.195816,-0.1291199,0.9720917,-25.59731,6.736755,-25.28668,4.843292,0.3250478,0.3505833,1.0,-0.2532959,-0.1483154,0.9559479,29.8083,7.266876,-29.35153,5.691315,0.6446021,0.3668349,0.07573593,1.145786,-0.2494982,0.329682,0.1902206,-0.05515728,2.538386,-31.40234,32.69
4,-0.2259369,-0.1392059,0.9641266,1.0,-0.195816,-0.1291199,0.9720917,-25.59731,6.736755,-25.28668,4.843292,0.3250478,0.3505833,1.0,-0.2532959,-0.1483154,0.9559479,29.8083,7.266876,-29.35153,5.691315,0.6446021,0.3668349,0.07573593,1.145786,-0.2494982,0.329682,0.1902206,-0.05515728,2.538386,-31.40234,32.69
4,-0.2516479,-0.1371918,0.9580383,1.0,-0.2385254,-0.1198883,0.9636993,-25.57684,6.728897,-25.32542,5.324982,0.3308485,0.3499715,1.0,-0.262085,-0.1510315,0.9531403,29.80397,7.218628,-29.36964,5.636032,0.6462656,0.3692934,0.07617581,1.145321,-0.2494198,0.3309559,0.1908009,-0.05583486,2.538386,-31.40234,32.69
4,-0.2516479,-0.1371918,0.9580383,1.0,-0.2385254,-0.1198883,0.9636993,-25.57684,6.728897,-25.32542,5.324982,0.3308485,0.3499715,1.0,-0.262085,-0.1510315,0.9531403,29.80397,7.218628,-29.36964,5.636032,0.6462656,0.3692934,0.07617581,1.145321,-0.2494198,0.3309559,0.1908009,-0.05583486,2.538386,-31.40234,32.69
4,-0.2326355,-0.1485443,0.9611359,1.0,-0.2027893,-0.1618958,0.965744,-25.58925,6.696365,-25.31569,4.910217,0.3257967,0.3578775,1.0,-0.2571564,-0.1373749,0.956543,29.80466,7.179001,-29.38113,5.835495,0.6454121,0.3682152,0.0766722,1.144935,-0.2494485,0.3321782,0.1913912,-0.05675679,2.538386,-31.40234,32.69
4,-0.2326355,-0.1485443,0.9611359,1.0,-0.2027893,-0.1618958,0.965744,-25.58925,6.696365,-25.31569,4.910217,0.3257967,0.3578775,1.0,-0.2571564,-0.1373749,0.956543,29.80466,7.179001,-29.38113,5.835495,0.6454121,0.3682152,0.0766722,1.144935,-0.2494485,0.3321782,0.1913912,-0.05675679,2.538386,-31.40234,32.69
4,-0.2450409,-0.1474762,0.9582214,1.0,-0.2292175,-0.1598663,0.960144,-25.60745,6.668091,-25.34845,5.003708,0.3306442,0.3590637,1.0,-0.2577667,-0.1374207,0.9563751,29.80235,7.154633,-29.39218,5.667084,0.6456021,0.3692623,0.07730234,1.144612,-0.2494164,0.3331315,0.1923707,-0.05722755,2.538386,-31.40234,32.69
4,-0.2450409,-0.1474762,0.9582214,1.0,-0.2292175,-0.1598663,0.960144,-25.60745,6.668091,-25.34845,5.003708,0.3306442,0.3590637,1.0,-0.2577667,-0.1374207,0.9563751,29.80235,7.154633,-29.39218,5.667084,0.6456021,0.3692623,0.07730234,1.144612,-0.2494164,0.3331315,0.1923707,-0.05722755,2.538386,-31.40234,32.69
4,-0.241394,-0.1343536,0.9610748,1.0,-0.223877,-0.1591034,0.9615326,-25.62053,6.663803,-25.34912,5.008301,0.3301944,0.3590151,1.0,-0.2543793,-0.1157379,0.960144,29.79613,7.155334,-29.39864,5.826447,0.6453323,0.3652952,0.07800019,1.144241,-0.2494149,0.3338918,0.1939691,-0.05780555,2.538386,-10.29144,32.69
4,-0.241394,-0.1343536,0.9610748,1.0,-0.223877,-0.1591034,0.9615326,-25.62053,6.663803,-25.34912,5.008301,0.3301944,0.3590151,1.0,-0.2543793,-0.1157379,0.960144,29.79613,7.155334,-29.39864,5.826447,0.6453323,0.3652952,0.07800019,1.144241,-0.2494149,0.3338918,0.1939691,-0.05780555,2.538386,-10.29144,32.69
4,-0.2518311,-0.135437,0.9582367,1.0,-0.2346649,-0.1653748,0.957901,-25.63356,6.630814,-25.36696,4.75499,0.3326728,0.3615915,1.0,-0.264679,-0.1125641,0.9577332,29.82164,7.147797,-29.40999,5.802048,0.646247,0.3652011,0.07869875,1.143762,-0.2494108,0.3347497,0.1953886,-0.05867482,2.538386,-10.29144,32.69
4,-0.2518311,-0.135437,0.9582367,1.0,-0.2346649,-0.1653748,0.957901,-25.63356,6.630814,-25.36696,4.75499,0.3326728,0.3615915,1.0,-0.264679,-0.1125641,0.9577332,29.82164,7.147797,-29.40999,5.802048,0.646247,0.3652011,0.07869875,1.143762,-0.2494108,0.3347497,0.1953886,-0.05867482,2.538386,-10.29144,32.69
4,-0.2459259,-0.1503296,0.95755,1.0,-0.1930695,-0.1944733,0.9617157,-25.61842,6.599121,-25.33296,4.721359,0.3253273,0.3668854,1.0,-0.2813416,-0.1197968,0.9520874,29.84903,7.135742,-29.4248,5.758575,0.6481643,0.3672319,0.0793432,1.143115,-0.2494303,0.3362341,0.1964871,-0.05966367,2.538386,-10.29144,32.69
4,-0.2459259,-0.1503296,0.95755,1.0,-0.1930695,-0.1944733,0.9617157,-25.61842,6.599121,-25.33296,4.721359,0.3253273,0.3668854,1.0,-0.2813416,-0.1197968,0.9520874,29.84903,7.135742,-29.4248,5.758575,0.6481643,0.3672319,0.0793432,1.143115,-0.2494303,0.3362341,0.1964871,-0.05966367,2.538386,-10.29144,32.69
4,-0.2484741,-0.1516876,0.9566803,1.0,-0.2132263,-0.1891174,0.9585114,-25.61395,6.568939,-25.37598,4.797821,0.3283836,0.3675252,1.0,-0.2712555,-0.1269073,0.9540863,29.84721,7.107101,-29.42392,5.762054,0.6464075,0.3694369,0.07996976,1.142116,-0.2494811,0.3385412,0.1975391,-0.06120229,2.538386,-10.29144,32.69
4,-0.2484741,-0.1516876,0.9566803,1.0,-0.2132263,-0.1891174,0.9585114,-25.61395,6.568939,-25.37598,4.797821,0.3283836,0.3675252,1.0,-0.2712555,-0.1269073,0.9540863,29.84721,7.107101,-29.42392,5.762054,0.6464075,0.3694369,0.07996976,1.142116,-0.2494811,0.3385412,0.1975391,-0.06120229,2.538386,-10.29144,32.69
4,-0.2341156,-0.1500549,0.9605408,1.0,-0.1950073,-0.2054749,0.9590302,-25.69138,6.541641,-25.3934,4.952087,0.327789,0.3711869,1.0,-0.2595215,-0.1128235,0.9591064,29.85547,7.047318,-29.43045,5.867126,0.6440833,0.3689792,0.08101177,1.141033,-0.2492063,0.34206,0.1982808,-0.06302258,2.538386,-10.29144,32.69
4,-0.2341156,-0.1500549,0.9605408,1.0,-0.1950073,-0.2054749,0.9590302,-25.69138,6.541641,-25.3934,4.952087,0.327789,0.3711869,1.0,-0.2595215,-0.1128235,0.9591064,29.85547,7.047318,-29.43045,5.867126,0.6440833,0.3689792,0.08101177,1.141033,-0.2492063,0.34206,0.1982808,-0.06302258,2.538386,-10.29144,32.69
4,-0.1587067,-0.2857513,0.9450531,1.0,-0.1411591,-0.3509979,0.9256592,-25.03629,6.019714,-25.48764,4.490021,0.2969181,0.4140977,1.0,-0.1715088,-0.2352905,0.956665,30.31564,6.534637,-29.48068,5.632278,0.6120974,0.4090687,0.0818702,1.139166,-0.2490013,0.3467116,0.1987116,-0.06481922,2.538386,-10.29144,32.69
4,-0.1587067,-0.2857513,0.9450531,1.0,-0.1411591,-0.3509979,0.9256592,-25.03629,6.019714,-25.48764,4.490021,0.2969181,0.4140977,1.0,-0.1715088,-0.2352905,0.956665,30.31564,6.534637,-29.48068,5.632278,0.6120974,0.4090687,0.0818702,1.139166,-0.2490013,0.3467116,0.1987116,-0.06481922,2.538386,-10.29144,32.69
4,-0.09986877,-0.3278351,0.9394379,0.9385953,-0.08355713,-0.377121,0.9223785,-24.58092,5.603699,-25.60138,4.920197,0.2712855,0.4324639,0.5772624,-0.1113739,-0.2919006,0.9499359,30.62494,6.11319,-29.6225,5.494659,0.5910103,0.4349501,0.08283198,1.1367,-0.2484744,0.3522118,0.198359,-0.06673943,2.538386,-10.29144,32.69
4,-0.09986877,-0.3278351,0.9394379,0.9385953,-0.08355713,-0.377121,0.9223785,-24.58092,5.603699,-25.60138,4.920197,0.2712855,0.4324639,0.5772624,-0.1113739,-0.2919006,0.9499359,30.62494,6.11319,-29.6225,5.494659,0.5910103,0.4349501,0.08283198,1.1367,-0.2484744,0.3522118,0.198359,-0.06673943,2.538386,-10.29144,32.69
4,-0.02944946,-0.3625183,0.9315033,0.8572901,0.0,0.0,0.0,-24.08025,5.248276,-25.69508,-1.0,0.2373722,0.4453824,0.5313692,-0.02944946,-0.3625183,0.9315033,30.94762,5.671677,-29.79041,5.583878,0.5660437,0.4643092,0.08365977,1.133754,-0.2476543,0.3592007,0.1974232,-0.06919793,2.538386,-10.29144,32.69
4,-0.02944946,-0.3625183,0.9315033,0.8572901,0.0,0.0,0.0,-24.08025,5.248276,-25.69508,-1.0,0.2373722,0.4453824,0.5313692,-0.02944946,-0.3625183,0.9315033,30.94762,5.671677,-29.79041,5.583878,0.5660437,0.4643092,0.08365977,1.133754,-0.2476543,0.3592007,0.1974232,-0.06919793,2.538386,-9.443787,32.69
4,0.01916504,-0.4161987,0.9090576,0.7418262,0.0,0.0,0.0,-23.53271,5.017365,-25.97475,-1.0,0.2093006,0.4918708,0.5014826,0.01916504,-0.4161987,0.9090576,31.31078,5.344238,-29.94049,5.524384,0.5453004,0.4869733,0.0842253,1.130321,-0.2467223,0.367349,0.1959232,-0.07192615,2.538386,-4.755432,32.69
4,0.01916504,-0.4161987,0.9090576,0.7418262,0.0,0.0,0.0,-23.53271,5.017365,-25.97475,-1.0,0.2093006,0.4918708,0.5014826,0.01916504,-0.4161987,0.9090576,31.31078,5.344238,-29.94049,5.524384,0.5453004,0.4869733,0.0842253,1.130321,-0.2467223,0.367349,0.1959232,-0.07192615,2.538386,-4.755432,32.69
4,0.06167603,-0.436615,0.897522,0.6910936,0.06455994,-0.4788208,0.8755341,-23.44058,4.608047,-26.13647,6.048996,0.2033665,0.4867968,0.5086684,0.06118774,-0.4296722,0.9008942,31.43835,5.190689,-30.03224,5.592209,0.5338799,0.4957225,0.08465612,1.126735,-0.2457277,0.3771641,0.1936041,-0.07407294,2.538386,-4.755432,32.69
4,0.06167603,-0.436615,0.897522,0.6910936,0.06455994,-0.4788208,0.8755341,-23.44058,4.608047,-26.13647,6.048996,0.2033665,0.4867968,0.5086684,0.06118774,-0.4296722,0.9008942,31.43835,5.190689,-30.03224,5.592209,0.5338799,0.4957225,0.08465612,1.126735,-0.2457277,0.3771641,0.1936041,-0.07407294,2.538386,-4.755432,32.69
4,0.0463562,-0.4216614,0.9055634,0.6850027,0.05795288,-0.435318,0.8983917,-23.45435,4.636139,-26.07466,5.637604,0.2058539,0.4774948,0.5230467,0.04385376,-0.4186859,0.9070587,31.5605,5.239182,-29.99661,5.731781,0.5325189,0.4914959,0.08487856,1.12503,-0.2452964,0.3820218,0.192296,-0.07505627,2.538386,-4.755432,32.69
4,0.0463562,-0.4216614,0.9055634,0.6850027,0.05795288,-0.435318,0.8983917,-23.45435,4.636139,-26.07466,5.637604,0.2058539,0.4774948,0.5230467,0.04385376,-0.4186859,0.9070587,31.5605,5.239182,-29.99661,5.731781,0.5325189,0.4914959,0.08487856,1.12503,-0.2452964,0.3820218,0.192296,-0.07505627,2.538386,-4.755432,32.69
4,0.07357788,-0.398468,0.9142151,0.7764819,0.09248352,-0.4085693,0.90802,-23.43871,4.782715,-25.97324,5.561737,0.1996794,0.4666799,0.5619799,0.06642151,-0.3945923,0.9164429,31.54268,5.310257,-29.98073,5.534149,0.5293492,0.4845218,0.08521295,1.121943,-0.24426,0.3915565,0.1892064,-0.07655337,2.538386,-4.755432,32.69
4,0.04481506,-0.3987427,0.9159546,0.8290496,0.01194763,-0.4251709,0.905014,-23.42644,4.923859,-25.9037,6.135651,0.212564,0.4640504,0.5461769,0.05270386,-0.3922729,0.9183197,31.60068,5.416672,-29.97055,5.591675,0.5296418,0.4802248,0.08573925,1.119453,-0.2424467,0.3983999,0.1863673,-0.07793757,2.538386,-4.755432,32.69
4,0.04481506,-0.3987427,0.9159546,0.8290496,0.01194763,-0.4251709,0.905014,-23.42644,4.923859,-25.9037,6.135651,0.212564,0.4640504,0.5461769,0.05270386,-0.3922729,0.9183197,31.60068,5.416672,-29.97055,5.591675,0.5296418,0.4802248,0.08573925,1.119453,-0.2424467,0.3983999,0.1863673,-0.07793757,2.538386,-4.755432,32.69
4,0.06620789,-0.3761597,0.9241791,0.8201891,0.05595398,-0.4135895,0.9087372,-23.4158,5.159225,-25.79472,5.645523,0.20551,0.4532669,0.5473918,0.06881714,-0.3664398,0.927887,31.61443,5.628403,-29.88416,5.531128,0.526477,0.4673673,0.08629262,1.117197,-0.2402864,0.403134,0.1834923,-0.07946074,2.538386,-4.755432,32.69
4,0.06620789,-0.3761597,0.9241791,0.8201891,0.05595398,-0.4135895,0.9087372,-23.4158,5.159225,-25.79472,5.645523,0.20551,0.4532669,0.5473918,0.06881714,-0.3664398,0.927887,31.61443,5.628403,-29.88416,5.531128,0.526477,0.4673673,0.08629262,1.117197,-0.2402864,0.403134,0.1834923,-0.07946074,2.538386,-4.755432,32.69
4,0.05001831,-0.3598633,0.9316559,0.8323993,0.007446289,-0.3560333,0.934433,-23.41222,5.199936,-25.71266,5.799164,0.2137993,0.4407143,0.5115553,0.06532288,-0.3610687,0.9302368,31.61533,5.683151,-29.85974,5.512009,0.5270264,0.464252,0.08655226,1.116065,-0.2391467,0.4053378,0.1821024,-0.080053,2.538386,-4.755432,32.69
4,0.03277588,-0.3360291,0.9412689,0.842522,-0.0189209,-0.3222351,0.9464569,-23.41719,5.148804,-25.71962,5.987915,0.2182465,0.4364687,0.5174339,0.06161499,-0.3433075,0.9371948,31.6125,5.697723,-29.85382,5.537445,0.5277509,0.460412,0.0870471,1.113861,-0.2368056,0.4098176,0.1793228,-0.08093548,2.538386,-4.755432,32.69
4,0.03277588,-0.3360291,0.9412689,0.842522,-0.0189209,-0.3222351,0.9464569,-23.41719,5.148804,-25.71962,5.987915,0.2182465,0.4364687,0.5174339,0.06161499,-0.3433075,0.9371948,31.6125,5.697723,-29.85382,5.537445,0.5277509,0.460412,0.0870471,1.113861,-0.2368056,0.4098176,0.1793228,-0.08093548,2.538386,-4.755432,32.69
4,0.04684448,-0.329483,0.9429932,0.8644046,0.01889038,-0.3226471,0.9463196,-23.45474,5.112,-25.73401,5.692337,0.2135953,0.4379924,0.566074,0.06031799,-0.3326874,0.9411011,31.6059,5.66008,-29.87245,5.542572,0.5281968,0.4599335,0.08719885,1.112576,-0.2357551,0.4114383,0.1777697,-0.08127509,2.538386,-4.755432,32.69
4,0.06610107,-0.3477783,0.9352264,0.904145,0.05975342,-0.3696289,0.9272461,-23.58467,5.200592,-25.68452,5.552551,0.2114515,0.4431602,0.5818465,0.06988525,-0.3345642,0.9397736,31.60046,5.606277,-29.90674,5.584595,0.5268051,0.4624737,0.08749831,1.109797,-0.2337893,0.4143613,0.1733753,-0.08265945,2.521733,-4.729004,32.69
4,0.06610107,-0.3477783,0.9352264,0.904145,0.05975342,-0.3696289,0.9272461,-23.58467,5.200592,-25.68452,5.552551,0.2114515,0.4431602,0.5818465,0.06988525,-0.3345642,0.9397736,31.60046,5.606277,-29.90674,5.584595,0.5268051,0.4624737,0.08749831,1.109797,-0.2337893,0.4143613,0.1733753,-0.08265945,2.521733,-4.729004,32.69
4,0.02323914,-0.3090363,0.9507599,0.9077284,-0.02784729,-0.2878723,0.9572449,-23.3596,5.156525,-25.65005,5.656479,0.2183931,0.4297782,0.587845,0.05747986,-0.3226929,0.9447479,31.71135,5.618179,-29.90579,5.557907,0.5250024,0.4598411,0.08756506,1.108926,-0.2328154,0.41895,0.1712827,-0.0830036,2.521733,-4.729004,32.69
4,0.0327301,-0.293045,0.9555359,0.936806,0.008865356,-0.2590485,0.9658203,-23.38347,5.046249,-25.72098,6.26976,0.2120126,0.4285016,0.5959874,0.04824829,-0.3148956,0.9478912,31.70541,5.597809,-29.91071,5.667313,0.5267696,0.4591165,0.08777571,1.106343,-0.2311506,0.4255168,0.1669299,-0.08373864,2.521733,-4.729004,32.69
4,0.0327301,-0.293045,0.9555359,0.936806,0.008865356,-0.2590485,0.9658203,-23.38347,5.046249,-25.72098,6.26976,0.2120126,0.4285016,0.5959874,0.04824829,-0.3148956,0.9478912,31.70541,5.597809,-29.91071,5.667313,0.5267696,0.4591165,0.08777571,1.106343,-0.2311506,0.4255168,0.1669299,-0.08373864,2.521733,-4.729004,32.69
4,0.02780151,-0.2960358,0.9547577,0.9007003,0.009857178,-0.3045807,0.9524231,-23.54129,4.953247,-25.75623,5.543991,0.2184684,0.4405917,0.6116311,0.04188538,-0.2892609,0.9563293,31.65227,5.518265,-29.92442,5.675949,0.5296725,0.4573653,0.08796299,1.104988,-0.2303559,0.4285748,0.1651703,-0.08429907,2.521733,-4.729004,32.69
4,0.02780151,-0.2960358,0.9547577,0.9007003,0.009857178,-0.3045807,0.9524231,-23.54129,4.953247,-25.75623,5.543991,0.2184684,0.4405917,0.6116311,0.04188538,-0.2892609,0.9563293,31.65227,5.518265,-29.92442,5.675949,0.5296725,0.4573653,0.08796299,1.104988,-0.2303559,0.4285748,0.1651703,-0.08429907,2.521733,-4.729004,32.69
4,0.01686096,-0.2928314,0.9560089,0.9038672,0.004898071,-0.2796783,0.9600677,-23.63889,4.999252,-25.7363,6.059723,0.2221562,0.4342994,0.6262183,0.02632141,-0.3031616,0.9525604,31.59903,5.567276,-29.90511,5.63382,0.5341076,0.4580029,0.08846986,1.102526,-0.2288369,0.4343474,0.1626705,-0.08511706,2.521733,-4.729004,32.69
4,0.01686096,-0.2928314,0.9560089,0.9038672,0.004898071,-0.2796783,0.9600677,-23.63889,4.999252,-25.7363,6.059723,0.2221562,0.4342994,0.6262183,0.02632141,-0.3031616,0.9525604,31.59903,5.567276,-29.90511,5.63382,0.5341076,0.4580029,0.08846986,1.102526,-0.2288369,0.4343474,0.1626705,-0.08511706,2.521733,-4.729004,32.69
4,0.02435303,-0.3442688,0.9385376,0.9497578,0.008392334,-0.3779755,0.925766,-23.62625,5.204437,-25.60617,5.305771,0.2221371,0.4442508,0.6768838,0.03590393,-0.3195343,0.9468842,31.51465,5.703339,-29.88889,5.453049,0.535442,0.4561832,0.08916354,1.100145,-0.2271005,0.4386552,0.1616055,-0.08565535,2.521733,-4.729004,32.69
4,0.001449585,-0.3090363,0.9510345,0.9459894,-0.01132202,-0.3138885,0.9493866,-23.81575,5.179031,-25.69089,5.67218,0.2317294,0.4343909,0.7177514,0.01135254,-0.3052216,0.9522095,31.47307,5.763626,-29.8735,5.486481,0.540995,0.4513309,0.09007394,1.097908,-0.2254384,0.4422062,0.1613203,-0.0856591,2.521733,-4.729004,32.67
4,0.001449585,-0.3090363,0.9510345,0.9459894,-0.01132202,-0.3138885,0.9493866,-23.81575,5.179031,-25.69089,5.67218,0.2317294,0.4343909,0.7177514,0.01135254,-0.3052216,0.9522095,31.47307,5.763626,-29.8735,5.486481,0.540995,0.4513309,0.09007394,1.097908,-0.2254384,0.4422062,0.1613203,-0.0856591,2.521733,-4.729004,32.67
4,0.01838684,-0.3265991,0.9449768,0.9668567,0.04679871,-0.3263702,0.9440765,-23.88808,5.106644,-25.77165,5.360367,0.2246148,0.4397822,0.7388066,-0.005004883,-0.3265991,0.9451447,31.46953,5.803741,-29.86679,5.184662,0.5438127,0.453876,0.09068739,1.096886,-0.2245736,0.443886,0.1615271,-0.08555117,2.521733,-4.729004,32.67
4,0.01112366,-0.2920227,0.9563293,0.9656731,0.02198792,-0.2947083,0.9553223,-23.88879,5.098175,-25.75345,5.455124,0.2288447,0.4343111,0.766556,0.003036499,-0.2900085,0.957016,31.44579,5.791199,-29.88031,5.322189,0.5433254,0.4477319,0.09172165,1.094785,-0.2230493,0.4470779,0.1618449,-0.08436269,2.521733,-4.729004,32.67
4,0.01112366,-0.2920227,0.9563293,0.9656731,0.02198792,-0.2947083,0.9553223,-23.88879,5.098175,-25.75345,5.455124,0.2288447,0.4343111,0.766556,0.003036499,-0.2900085,0.957016,31.44579,5.791199,-29.88031,5.322189,0.5433254,0.4477319,0.09172165,1.094785,-0.2230493,0.4470779,0.1618449,-0.08436269,2.521733,-4.729004,32.67
4,0.02528381,-0.2992706,0.9538269,0.9806955,0.04957581,-0.3373718,0.9400482,-23.86859,5.142807,-25.72043,5.253357,0.2236762,0.4401531,0.7881795,0.008834839,-0.2731628,0.9619141,31.45422,5.786133,-29.88643,5.516174,0.5420979,0.4448779,0.09228075,1.093787,-0.2223966,0.4485356,0.1619359,-0.08360185,2.521733,-4.729004,32.67
4,0.004669189,-0.2703247,0.9627533,1.0,-0.002120972,-0.2616577,0.9651489,-23.80975,5.031982,-25.7263,5.67421,0.2299719,0.4304096,1.0,0.009933472,-0.2770233,0.9608002,31.53561,5.731018,-29.91753,5.383591,0.5390621,0.4477742,0.09335387,1.092095,-0.2213104,0.4520297,0.162392,-0.08216465,2.521733,-4.729004,32.67
4,0.004669189,-0.2703247,0.9627533,1.0,-0.002120972,-0.2616577,0.9651489,-23.80975,5.031982,-25.7263,5.67421,0.2299719,0.4304096,1.0,0.009933472,-0.2770233,0.9608002,31.53561,5.731018,-29.91753,5.383591,0.5390621,0.4477742,0.09335387,1.092095,-0.2213104,0.4520297,0.162392,-0.08216465,2.521733,-4.729004,32.67
4,-0.0007781982,-0.2639618,0.9645233,1.0,-0.008682251,-0.2696991,0.9628906,-23.83463,4.995804,-25.74313,5.760086,0.2318515,0.4332228,1.0,0.005889893,-0.259079,0.9658356,31.48761,5.684433,-29.9485,5.53952,0.5414396,0.4464204,0.09395778,1.091466,-0.2209369,0.4537196,0.1627835,-0.08144396,2.521733,-13.1225,32.67
4,0.008621216,-0.2822571,0.9592896,1.0,-0.0004425049,-0.2962494,0.9550934,-23.85167,4.974533,-25.77266,5.658417,0.2311107,0.4388818,1.0,0.01611328,-0.2706604,0.9625244,31.49118,5.669983,-29.95035,5.500809,0.5395979,0.4490262,0.09486687,1.090744,-0.2204145,0.456245,0.1644376,-0.08036965,2.521733,-13.1225,32.67
4,0.008621216,-0.2822571,0.9592896,1.0,-0.0004425049,-0.2962494,0.9550934,-23.85167,4.974533,-25.77266,5.658417,0.2311107,0.4388818,1.0,0.01611328,-0.2706604,0.9625244,31.49118,5.669983,-29.95035,5.500809,0.5395979,0.4490262,0.09486687,1.090744,-0.2204145,0.456245,0.1644376,-0.08036965,2.521733,-13.1225,32.67
4,0.008621216,-0.2822571,0.9592896,1.0,-0.0004425049,-0.2962494,0.9550934,-23.85167,4.974533,-25.77266,5.658417,0.2311107,0.4388818,1.0,0.01611328,-0.2706604,0.9625244,31.49118,5.669983,-29.95035,5.500809,0.5395979,0.4490262,0.09555459,1.090824,-0.2201123,0.4565355,0.1655223,-0.079624,2.521733,-13.1225,32.67
4,0.008621216,-0.2822571,0.9592896,1.0,-0.0004425049,-0.2962494,0.9550934,-23.85167,4.974533,-25.77266,5.658417,0.2311107,0.4388818,1.0,0.01611328,-0.2706604,0.9625244,31.49118,5.669983,-29.95035,5.500809,0.5395979,0.4490262,0.09702921,1.091434,-0.219117,0.4549541,0.1685071,-0.07765236,2.521733,-13.1225,32.67
4,0.008621216,-0.2822571,0.9592896,1.0,-0.0004425049,-0.2962494,0.9550934,-23.85167,4.974533,-25.77266,5.658417,0.2311107,0.4388818,1.0,0.01611328,-0.2706604,0.9625244,31.49118,5.669983,-29.95035,5.500809,0.5395979,0.4490262,0.09702921,1.091434,-0.219117,0.4549541,0.1685071,-0.07765236,2.521733,-13.1225,32.67
4,-0.0001068115,-0.2573242,0.9663086,1.0,-0.007720947,-0.2845764,0.9586182,-23.81746,4.943436,-25.78702,5.373581,0.2314376,0.4381382,1.0,0.005889893,-0.2356873,0.9718018,31.4982,5.660248,-29.94983,5.598343,0.5410821,0.4430861,0.09788191,1.092031,-0.2186568,0.4529527,0.1706557,-0.07633036,2.521733,-13.1225,32.67
4,-0.0001068115,-0.2573242,0.9663086,1.0,-0.007720947,-0.2845764,0.9586182,-23.81746,4.943436,-25.78702,5.373581,0.2314376,0.4381382,1.0,0.005889893,-0.2356873,0.9718018,31.4982,5.660248,-29.94983,5.598343,0.5410821,0.4430861,0.09788191,1.092031,-0.2186568,0.4529527,0.1706557,-0.07633036,2.521733,-13.1225,32.67
4,0.01298523,-0.2355957,0.971756,1.0,-0.00630188,-0.2047729,0.978775,-23.76573,5.247559,-25.66411,5.921463,0.2288375,0.4125474,1.0,0.02644348,-0.2569122,0.9660645,31.51045,5.967575,-29.88225,5.451004,0.5372373,0.4356451,0.09980309,1.093618,-0.2177507,0.448157,0.1762771,-0.07343237,2.521733,-13.1225,32.67
4,0.02076721,-0.2292175,0.9731445,1.0,0.007369995,-0.2337494,0.9722595,-23.78052,5.254745,-25.67171,5.996292,0.2269329,0.4172881,1.0,0.02934265,-0.2262878,0.9736176,31.49792,5.981949,-29.88603,5.733368,0.5372522,0.4296632,0.09980309,1.093618,-0.2177507,0.448157,0.1762771,-0.07343237,2.521733,-13.1225,32.67
4,0.03617859,-0.2420807,0.969574,1.0,0.002685547,-0.2205658,0.9753571,-23.76587,5.221954,-25.68324,6.125198,0.2270234,0.4161503,1.0,0.05439758,-0.2536163,0.9657593,31.50104,5.957596,-29.9093,5.545181,0.5329219,0.4356605,0.1021301,1.095975,-0.2171484,0.4420172,0.1836836,-0.06991646,2.521733,-13.1225,32.67
4,0.03617859,-0.2420807,0.969574,1.0,0.002685547,-0.2205658,0.9753571,-23.76587,5.221954,-25.68324,6.125198,0.2270234,0.4161503,1.0,0.05439758,-0.2536163,0.9657593,31.50104,5.957596,-29.9093,5.545181,0.5329219,0.4356605,0.1021301,1.095975,-0.2171484,0.4420172,0.1836836,-0.06991646,2.521733,-13.1225,32.67
4,0.05506897,-0.2382355,0.969635,1.0,0.05148315,-0.2347107,0.9706879,-23.71591,5.176605,-25.711,5.975159,0.2170774,0.4201577,1.0,0.05751038,-0.2406158,0.9689026,31.5228,5.916077,-29.9326,5.544922,0.5316411,0.4349818,0.1044494,1.098452,-0.2170228,0.4348289,0.1918918,-0.06561039,2.521733,-13.1225,32.67
4,0.05506897,-0.2382355,0.969635,1.0,0.05148315,-0.2347107,0.9706879,-23.71591,5.176605,-25.711,5.975159,0.2170774,0.4201577,1.0,0.05751038,-0.2406158,0.9689026,31.5228,5.916077,-29.9326,5.544922,0.5316411,0.4349818,0.1044494,1.098452,-0.2170228,0.4348289,0.1918918,-0.06561039,2.521733,-13.1225,32.67
4,0.07765198,-0.2639923,0.96138,1.0,0.07302856,-0.2776031,0.957901,-23.66794,5.103683,-25.75438,5.660339,0.2119602,0.430553,1.0,0.08030701,-0.2560883,0.9633026,31.49312,5.766312,-29.97754,5.50621,0.5288333,0.4434199,0.1069851,1.101284,-0.2171309,0.4266279,0.2013148,-0.06081466,2.521733,-13.1225,32.67
4,0.0712738,-0.2551422,0.9642639,1.0,0.04483032,-0.2463684,0.9681244,-23.66733,5.071304,-25.75551,5.917023,0.2164929,0.4261286,1.0,0.08834839,-0.2607117,0.9613495,31.50224,5.732483,-29.99461,5.571457,0.5271903,0.4455945,0.1097367,1.104482,-0.2174369,0.4173236,0.2120193,-0.05560447,2.521733,-3.176086,32.67
4,0.0712738,-0.2551422,0.9642639,1.0,0.04483032,-0.2463684,0.9681244,-23.66733,5.071304,-25.75551,5.917023,0.2164929,0.4261286,1.0,0.08834839,-0.2607117,0.9613495,31.50224,5.732483,-29.99461,5.571457,0.5271903,0.4455945,0.1097367,1.104482,-0.2174369,0.4173236,0.2120193,-0.05560447,2.521733,-3.176086,32.67
4,0.09234619,-0.2898712,0.9525909,1.0,0.06616211,-0.2975311,0.9524078,-23.58891,5.026932,-25.81227,5.820358,0.2099587,0.4369803,1.0,0.1114044,-0.2841492,0.9522705,31.53207,5.738266,-30.0226,5.626923,0.5223345,0.4499278,0.1126907,1.108253,-0.21788,0.4058363,0.2243163,-0.04832921,2.521733,-3.176086,32.67
4,0.09234619,-0.2898712,0.9525909,1.0,0.06616211,-0.2975311,0.9524078,-23.58891,5.026932,-25.81227,5.820358,0.2099587,0.4369803,1.0,0.1114044,-0.2841492,0.9522705,31.53207,5.738266,-30.0226,5.626923,0.5223345,0.4499278,0.1126907,1.108253,-0.21788,0.4058363,0.2243163,-0.04832921,2.521733,-3.176086,32.67
4,0.06738281,-0.2801208,0.9575806,1.0,0.07473755,-0.2656097,0.9611664,-23.87231,5.281631,-25.69682,5.936478,0.218728,0.4219975,1.0,0.0612793,-0.292099,0.9544067,31.3672,5.983826,-29.98218,5.271881,0.5364003,0.4424319,0.1158615,1.112489,-0.2184511,0.3929627,0.2378252,-0.04058943,2.521733,-3.176086,32.67
4,0.06738281,-0.2801208,0.9575806,1.0,0.07473755,-0.2656097,0.9611664,-23.87231,5.281631,-25.69682,5.936478,0.218728,0.4219975,1.0,0.0612793,-0.292099,0.9544067,31.3672,5.983826,-29.98218,5.271881,0.5364003,0.4424319,0.1158615,1.112489,-0.2184511,0.3929627,0.2378252,-0.04058943,2.521733,-3.176086,32.67
4,-0.01713562,-0.2274017,0.9736328,1.0,0.002731323,-0.2298584,0.9732056,-24.43718,5.806717,-25.56114,5.499619,0.2514511,0.3980875,1.0,-0.03016663,-0.2257385,0.9737091,30.75204,6.530701,-29.87424,5.447968,0.5733325,0.4104325,0.1192023,1.117197,-0.2191652,0.3779103,0.2531878,-0.03250419,2.521733,-3.176086,32.67
4,-0.01713562,-0.2274017,0.9736328,1.0,0.002731323,-0.2298584,0.9732056,-24.43718,5.806717,-25.56114,5.499619,0.2514511,0.3980875,1.0,-0.03016663,-0.2257385,0.9737091,30.75204,6.530701,-29.87424,5.447968,0.5733325,0.4104325,0.1192023,1.117197,-0.2191652,0.3779103,0.2531878,-0.03250419,2.521733,-3.176086,32.67
4,-0.1408539,-0.1812286,0.9732971,0.8838279,-0.1408539,-0.1812286,0.9732971,-25.22266,6.712006,-25.57355,4.993637,0.3026046,0.3614747,0.5717322,0.0,0.0,0.0,29.74478,7.455109,-29.83504,-1.0,0.6339917,0.35613,0.1226274,1.122298,-0.2202591,0.3625517,0.2692703,-0.02429353,2.521733,-3.176086,32.67
4,-0.1408539,-0.1812286,0.9732971,0.8838279,-0.1408539,-0.1812286,0.9732971,-25.22266,6.712006,-25.57355,4.993637,0.3026046,0.3614747,0.5717322,0.0,0.0,0.0,29.74478,7.455109,-29.83504,-1.0,0.6339917,0.35613,0.1226274,1.122298,-0.2202591,0.3625517,0.2692703,-0.02429353,2.521733,-3.176086,32.67
4,-0.1151428,-0.1723938,0.9782715,0.8675997,-0.1151428,-0.1723938,0.9782715,-25.59586,6.966965,-25.55034,4.319305,0.3116486,0.3515907,0.6302415,0.0,0.0,0.0,29.37317,7.714172,-29.79295,-1.0,0.6609707,0.3483983,0.1254679,1.127002,-0.2221652,0.349495,0.2835171,-0.01606327,2.521733,-3.176086,32.67
4,-0.1151428,-0.1723938,0.9782715,0.8675997,-0.1151428,-0.1723938,0.9782715,-25.59586,6.966965,-25.55034,4.319305,0.3116486,0.3515907,0.6302415,0.0,0.0,0.0,29.37317,7.714172,-29.79295,-1.0,0.6609707,0.3483983,0.1254679,1.127002,-0.2221652,0.349495,0.2835171,-0.01606327,2.521733,-3.176086,32.67
4,-0.2131042,-0.03668213,0.9763336,1.0,-0.2131042,-0.03668213,0.9763336,-25.66782,6.820175,-25.64774,4.790314,0.329974,0.3349473,1.0,0.0,0.0,0.0,29.27475,7.542603,-29.93315,-1.0,0.6718137,0.3294779,0.1273986,1.13108,-0.2247183,0.3391033,0.2945351,-0.009040624,2.521733,-3.176086,32.67
4,-0.2131042,-0.03668213,0.9763336,1.0,-0.2131042,-0.03668213,0.9763336,-25.66782,6.820175,-25.64774,4.790314,0.329974,0.3349473,1.0,0.0,0.0,0.0,29.27475,7.542603,-29.93315,-1.0,0.6718137,0.3294779,0.1273986,1.13108,-0.2247183,0.3391033,0.2945351,-0.009040624,2.521733,-3.176086,32.67
5,-0.2074738,-0.008926392,0.9781952,1.0,-0.1499939,-0.0426178,0.9877625,-25.3681,6.570465,-25.85957,5.305527,0.3084932,0.3448967,1.0,-0.2349854,0.007400513,0.9719543,29.75812,7.086304,-29.90579,5.805054,0.6446271,0.3498539,0.1286223,1.134555,-0.2273486,0.3310731,0.3024991,-0.003257242,2.521733,-1.502014,32.67
5,-0.2074738,-0.008926392,0.9781952,1.0,-0.1499939,-0.0426178,0.9877625,-25.3681,6.570465,-25.85957,5.305527,0.3084932,0.3448967,1.0,-0.2349854,0.007400513,0.9719543,29.75812,7.086304,-29.90579,5.805054,0.6446271,0.3498539,0.1286223,1.134555,-0.2273486,0.3310731,0.3024991,-0.003257242,2.521733,-1.502014,32.67
5,-0.2115326,0.01760864,0.9772034,1.0,-0.1737823,-0.02262878,0.9845123,-25.18483,6.527802,-26.06406,5.694824,0.305466,0.3444843,1.0,-0.2145386,0.02084351,0.9764862,29.98444,6.953598,-29.90411,6.081619,0.6329247,0.3522927,0.1292437,1.137231,-0.2298015,0.3248884,0.3080061,0.000622439,2.521733,-1.502014,32.67
5,-0.2115326,0.01760864,0.9772034,1.0,-0.1737823,-0.02262878,0.9845123,-25.18483,6.527802,-26.06406,5.694824,0.305466,0.3444843,1.0,-0.2145386,0.02084351,0.9764862,29.98444,6.953598,-29.90411,6.081619,0.6329247,0.3522927,0.1292437,1.137231,-0.2298015,0.3248884,0.3080061,0.000622439,2.521733,-1.502014,32.67
5,-0.1611176,-0.001190186,0.9869232,1.0,-0.1320953,-0.09072876,0.9870605,-25.02298,6.677597,-27.26526,5.188156,0.2909475,0.3589178,1.0,-0.1611176,-0.001190186,0.9869232,30.33411,7.246826,-31.51601,6.005569,0.6128979,0.359316,0.1293968,1.139433,-0.2321069,0.3188064,0.3120629,0.003145532,2.521733,-1.502014,32.67
5,-0.1611176,-0.001190186,0.9869232,1.0,-0.1320953,-0.09072876,0.9870605,-25.02298,6.677597,-27.26526,5.188156,0.2909475,0.3589178,1.0,-0.1611176,-0.001190186,0.9869232,30.33411,7.246826,-31.51601,6.005569,0.6128979,0.359316,0.1293968,1.139433,-0.2321069,0.3188064,0.3120629,0.003145532,2.521733,-1.502014,32.67
5,-0.1416168,-0.009658813,0.9898682,1.0,-0.1004181,-0.04356384,0.993988,-24.81844,6.727005,-27.5284,5.301636,0.2773967,0.3499752,1.0,-0.1417542,-0.009536743,0.9898529,30.47528,7.501953,-32.44044,5.834518,0.6057298,0.3588054,0.129378,1.141392,-0.2339838,0.3134526,0.3145915,0.004413141,2.521733,-1.502014,32.67
5,-0.1416168,-0.009658813,0.9898682,1.0,-0.1004181,-0.04356384,0.993988,-24.81844,6.727005,-27.5284,5.301636,0.2773967,0.3499752,1.0,-0.1417542,-0.009536743,0.9898529,30.47528,7.501953,-32.44044,5.834518,0.6057298,0.3588054,0.129378,1.141392,-0.2339838,0.3134526,0.3145915,0.004413141,2.521733,-1.502014,32.67
5,-0.1008606,-0.06993103,0.9924316,1.0,-0.1008606,-0.06993103,0.9924316,-24.76067,6.890381,-27.649,5.647049,0.2750205,0.3500206,1.0,-0.1029816,-0.04055786,0.9938507,30.63284,7.447571,-31.86465,5.851242,0.5925151,0.3615803,0.129088,1.143164,-0.2356124,0.308887,0.3161311,0.004363908,2.521733,-1.502014,32.67
5,-0.1008606,-0.06993103,0.9924316,1.0,-0.1008606,-0.06993103,0.9924316,-24.76067,6.890381,-27.649,5.647049,0.2750205,0.3500206,1.0,-0.1029816,-0.04055786,0.9938507,30.63284,7.447571,-31.86465,5.851242,0.5925151,0.3615803,0.129088,1.143164,-0.2356124,0.308887,0.3161311,0.004363908,2.521733,-1.502014,32.67
5,-0.09861755,-0.04530334,0.9940796,1.0,-0.1382904,-0.05987549,0.9885712,-24.57239,6.527008,-26.10823,5.90155,0.2774031,0.3491439,1.0,-0.09849548,-0.04525757,0.9940948,30.73698,7.553452,-32.05368,5.794861,0.5882304,0.3601324,0.1286091,1.144794,-0.2371607,0.3046109,0.3166913,0.003371882,2.521733,-1.502014,32.67
5,-0.09861755,-0.04530334,0.9940796,1.0,-0.1382904,-0.05987549,0.9885712,-24.57239,6.527008,-26.10823,5.90155,0.2774031,0.3491439,1.0,-0.09849548,-0.04525757,0.9940948,30.73698,7.553452,-32.05368,5.794861,0.5882304,0.3601324,0.1286091,1.144794,-0.2371607,0.3046109,0.3166913,0.003371882,2.521733,-1.502014,32.67
5,-0.08137512,-0.05941772,0.9949036,1.0,-0.1131744,-0.06745911,0.991272,-24.54509,6.776947,-27.08286,5.65567,0.2709828,0.3494988,1.0,-0.08137512,-0.05941772,0.9949036,30.77094,7.573837,-32.08429,5.843246,0.5840506,0.3621446,0.1280401,1.146159,-0.2384933,0.3010646,0.3168042,0.001818807,2.521733,-1.502014,32.67
5,-0.08137512,-0.05941772,0.9949036,1.0,-0.1131744,-0.06745911,0.991272,-24.54509,6.776947,-27.08286,5.65567,0.2709828,0.3494988,1.0,-0.08137512,-0.05941772,0.9949036,30.77094,7.573837,-32.08429,5.843246,0.5840506,0.3621446,0.1280401,1.146159,-0.2384933,0.3010646,0.3168042,0.001818807,2.521733,-1.502014,32.67
5,-0.06970215,-0.06021118,0.9957428,1.0,-0.1109009,-0.07699585,0.9908295,-24.58319,6.663834,-26.48494,5.872131,0.2724429,0.3499554,1.0,-0.06970215,-0.06021118,0.9957428,30.79378,7.61438,-32.12428,5.722275,0.5812272,0.3612151,0.1273186,1.147393,-0.2395459,0.2976112,0.3162208,-0.0001726335,2.521733,-10.63104,32.67
