Second,eye_comb_direction_x,eye_comb_direction_y,eye_comb_direction_z,eye_r_openness,eye_r_direction_x,eye_r_direction_y,eye_r_direction_z,eye_r_origin_x,eye_r_origin_y,eye_r_origin_z,eye_r_pupil_diameter,eye_r_pupil_position_x,eye_r_pupil_position_y,eye_l_openness,eye_l_direction_x,eye_l_direction_y,eye_l_direction_z,eye_l_origin_x,eye_l_origin_y,eye_l_origin_z,eye_l_pupil_diameter,eye_l_pupil_position_x,eye_l_pupil_position_y,head_position_x,head_position_y,head_position_z,head_rotation_roll,head_rotation_pitch,head_rotation_yaw,EDA,BVP,TMP
0,0.0,0.0,0.0,0.0,0.0,0.0,0.0,0.0,0.0,0.0,0.0,0.0,0.0,0.0,0.0,0.0,0.0,0.0,0.0,0.0,0.0,0.0,0.0,0.0,0.0,0.0,0.0,0.0,0.0,0.18479531723968565,0.25268161411100193,30.25205550098232
0,0.05673218,-0.03155518,0.997879,0.6005113,0.05673218,-0.03155518,0.997879,-25.24728,0.07168579,-23.45418,5.124161,0.2747837,0.5369304,0.7244712,-0.0342865,-0.05014038,0.9981384,30.88051,4.871704,-22.69867,4.893356,0.5642213,0.3775083,0.05077159,1.188049,-0.2448831,-0.04166999,-0.01408895,0.0159996,0.18479531723968565,0.25268161411100193,30.25205550098232
1,0.05082703,-0.03036499,0.99823,0.6676934,0.05082703,-0.03036499,0.99823,-25.23862,0.08992004,-23.50826,5.179398,0.2753474,0.5366583,0.7485493,-0.03320313,-0.01757813,0.9992828,30.91142,5.338745,-25.06281,4.856262,0.5647507,0.3753748,0.04873991,1.188201,-0.2460313,-0.0427708,-0.01426239,0.0173842,0.1806786,0.25268161411100193,30.25205550098232
1,0.05082703,-0.03036499,0.99823,0.6676934,0.05082703,-0.03036499,0.99823,-25.23862,0.08992004,-23.50826,5.179398,0.2753474,0.5366583,0.7485493,-0.03320313,-0.01757813,0.9992828,30.91142,5.338745,-25.06281,4.856262,0.5647507,0.3753748,0.04873991,1.188201,-0.2460313,-0.0427708,-0.01426239,0.0173842,0.1806786,0.25268161411100193,30.25205550098232
1,0.05082703,-0.03036499,0.99823,0.6676934,0.05082703,-0.03036499,0.99823,-25.23862,0.08992004,-23.50826,5.179398,0.2753474,0.5366583,0.7485493,-0.03320313,-0.01757813,0.9992828,30.91142,5.338745,-25.06281,4.856262,0.5647507,0.3753748,0.04873991,1.188201,-0.2460313,-0.0427708,-0.01426239,0.0173842,0.1806786,0.25268161411100193,30.25205550098232
1,0.05082703,-0.03036499,0.99823,0.6676934,0.05082703,-0.03036499,0.99823,-25.23862,0.08992004,-23.50826,5.179398,0.2753474,0.5366583,0.7485493,-0.03320313,-0.01757813,0.9992828,30.91142,5.338745,-25.06281,4.856262,0.5647507,0.3753748,0.04873991,1.188201,-0.2460313,-0.0427708,-0.01426239,0.0173842,0.1806786,0.25268161411100193,30.25205550098232
1,0.05082703,-0.03036499,0.99823,0.6676934,0.05082703,-0.03036499,0.99823,-25.23862,0.08992004,-23.50826,5.179398,0.2753474,0.5366583,0.7485493,-0.03320313,-0.01757813,0.9992828,30.91142,5.338745,-25.06281,4.856262,0.5647507,0.3753748,0.04873991,1.188201,-0.2460313,-0.0427708,-0.01426239,0.0173842,0.1806786,0.25268161411100193,30.25205550098232
1,0.05082703,-0.03036499,0.99823,0.6676934,0.05082703,-0.03036499,0.99823,-25.23862,0.08992004,-23.50826,5.179398,0.2753474,0.5366583,0.7485493,-0.03320313,-0.01757813,0.9992828,30.91142,5.338745,-25.06281,4.856262,0.5647507,0.3753748,0.04873991,1.188201,-0.2460313,-0.0427708,-0.01426239,0.0173842,0.1806786,0.25268161411100193,30.25205550098232
1,0.05082703,-0.03036499,0.99823,0.6676934,0.05082703,-0.03036499,0.99823,-25.23862,0.08992004,-23.50826,5.179398,0.2753474,0.5366583,0.7485493,-0.03320313,-0.01757813,0.9992828,30.91142,5.338745,-25.06281,4.856262,0.5647507,0.3753748,0.04873991,1.188201,-0.2460313,-0.0427708,-0.01426239,0.0173842,0.1806786,0.25268161411100193,30.25205550098232
1,0.05082703,-0.03036499,0.99823,0.6676934,0.05082703,-0.03036499,0.99823,-25.23862,0.08992004,-23.50826,5.179398,0.2753474,0.5366583,0.7485493,-0.03320313,-0.01757813,0.9992828,30.91142,5.338745,-25.06281,4.856262,0.5647507,0.3753748,0.04873991,1.188201,-0.2460313,-0.0427708,-0.01426239,0.0173842,0.1806786,0.25268161411100193,30.25205550098232
1,0.05082703,-0.03036499,0.99823,0.6676934,0.05082703,-0.03036499,0.99823,-25.23862,0.08992004,-23.50826,5.179398,0.2753474,0.5366583,0.7485493,-0.03320313,-0.01757813,0.9992828,30.91142,5.338745,-25.06281,4.856262,0.5647507,0.3753748,0.04873991,1.188201,-0.2460313,-0.0427708,-0.01426239,0.0173842,0.1806786,0.25268161411100193,30.25205550098232
1,-0.03392029,-0.0717926,0.9968414,0.8848877,-0.0267334,-0.07653809,0.9967041,-26.40623,0.1823425,-23.8246,4.641068,0.3260752,0.5440706,0.939429,-0.09222412,-0.0330658,0.9951782,30.18982,5.416672,-25.8645,4.55719,0.5993993,0.3818217,0.04848766,1.187502,-0.2451969,-0.0395029,-0.01498435,0.01668215,0.1806786,0.25268161411100193,30.25205550098232
1,-0.03392029,-0.0717926,0.9968414,0.8848877,-0.0267334,-0.07653809,0.9967041,-26.40623,0.1823425,-23.8246,4.641068,0.3260752,0.5440706,0.939429,-0.09222412,-0.0330658,0.9951782,30.18982,5.416672,-25.8645,4.55719,0.5993993,0.3818217,0.04848766,1.187502,-0.2451969,-0.0395029,-0.01498435,0.01668215,0.1806786,0.25268161411100193,30.25205550098232
1,-0.03392029,-0.0717926,0.9968414,0.8848877,-0.0267334,-0.07653809,0.9967041,-26.40623,0.1823425,-23.8246,4.641068,0.3260752,0.5440706,0.939429,-0.09222412,-0.0330658,0.9951782,30.18982,5.416672,-25.8645,4.55719,0.5993993,0.3818217,0.04848766,1.187502,-0.2451969,-0.0395029,-0.01498435,0.01668215,0.1806786,0.25268161411100193,30.25205550098232
1,-0.03392029,-0.0717926,0.9968414,0.8848877,-0.0267334,-0.07653809,0.9967041,-26.40623,0.1823425,-23.8246,4.641068,0.3260752,0.5440706,0.939429,-0.09222412,-0.0330658,0.9951782,30.18982,5.416672,-25.8645,4.55719,0.5993993,0.3818217,0.04848766,1.187502,-0.2451969,-0.0395029,-0.01498435,0.01668215,0.1806786,0.25268161411100193,30.25205550098232
1,-0.03392029,-0.0717926,0.9968414,0.8848877,-0.0267334,-0.07653809,0.9967041,-26.40623,0.1823425,-23.8246,4.641068,0.3260752,0.5440706,0.939429,-0.09222412,-0.0330658,0.9951782,30.18982,5.416672,-25.8645,4.55719,0.5993993,0.3818217,0.04848766,1.187502,-0.2451969,-0.0395029,-0.01498435,0.01668215,0.1806786,0.25268161411100193,30.25205550098232
1,-0.06323242,-0.0541687,0.996521,0.9171107,-0.02770996,-0.07731628,0.9966125,-26.40364,0.1575317,-23.74992,4.486649,0.326283,0.5442402,0.9533538,-0.09332275,-0.03443909,0.9950256,30.19415,5.40535,-25.83176,4.469879,0.5993993,0.3821461,0.04859793,1.187306,-0.2453238,-0.03788745,-0.01418749,0.01590103,0.1806786,0.25268161411100193,30.25205550098232
1,-0.06323242,-0.0541687,0.996521,0.9171107,-0.02770996,-0.07731628,0.9966125,-26.40364,0.1575317,-23.74992,4.486649,0.326283,0.5442402,0.9533538,-0.09332275,-0.03443909,0.9950256,30.19415,5.40535,-25.83176,4.469879,0.5993993,0.3821461,0.04859793,1.187306,-0.2453238,-0.03788745,-0.01418749,0.01590103,0.1806786,0.25268161411100193,30.25205550098232
1,-0.07713318,-0.05001831,0.9957581,0.9083595,-0.0557251,-0.06809998,0.996109,-26.27652,0.1097565,-23.74594,4.427155,0.3266724,0.5442402,0.9488556,-0.09498596,-0.03486633,0.9948578,30.20001,5.40535,-25.82593,4.37088,0.5994747,0.3821461,0.04881823,1.187115,-0.2453761,-0.03669162,-0.0127451,0.0158273,0.1806786,0.25268161411100193,30.25205550098232
1,-0.07771301,-0.04888916,0.9957733,0.9083595,-0.05621338,-0.0675354,0.9961243,-26.27272,0.1097565,-23.74594,4.311615,0.3266724,0.5440702,0.9488556,-0.09550476,-0.03340149,0.9948578,30.20248,5.40535,-25.81862,4.366058,0.5994747,0.3818427,0.04894733,1.187067,-0.2454119,-0.03626166,-0.01220215,0.01584001,0.1806786,0.25268161411100193,30.25205550098232
1,-0.07771301,-0.04888916,0.9957733,0.9083595,-0.05621338,-0.0675354,0.9961243,-26.27272,0.1097565,-23.74594,4.311615,0.3266724,0.5440702,0.9488556,-0.09550476,-0.03340149,0.9948578,30.20248,5.40535,-25.81862,4.366058,0.5994747,0.3818427,0.04894733,1.187067,-0.2454119,-0.03626166,-0.01220215,0.01584001,0.1806786,0.25268161411100193,30.25205550098232
1,-0.07949829,-0.04772949,0.9956818,0.9283538,-0.05827332,-0.06576538,0.9961243,-26.26379,0.1050415,-23.73297,4.281998,0.3267432,0.5438034,0.9533901,-0.0962677,-0.03341675,0.9947815,30.20895,5.40535,-25.81862,4.365692,0.5993849,0.3818427,0.049173,1.18684,-0.2455027,-0.03513505,-0.01081959,0.01594035,0.1806786,-7.855362,30.25205550098232
1,-0.07949829,-0.04772949,0.9956818,0.9283538,-0.05827332,-0.06576538,0.9961243,-26.26379,0.1050415,-23.73297,4.281998,0.3267432,0.5438034,0.9533901,-0.0962677,-0.03341675,0.9947815,30.20895,5.40535,-25.81862,4.365692,0.5993849,0.3818427,0.049173,1.18684,-0.2455027,-0.03513505,-0.01081959,0.01594035,0.1806786,-7.855362,30.25205550098232
1,-0.07949829,-0.04772949,0.9956818,0.9283538,-0.05827332,-0.06576538,0.9961243,-26.26379,0.1050415,-23.73297,4.281998,0.3267432,0.5438034,0.9533901,-0.0962677,-0.03341675,0.9947815,30.20895,5.40535,-25.81862,4.365692,0.5993849,0.3818427,0.049173,1.18684,-0.2455027,-0.03513505,-0.01081959,0.01594035,0.1806786,-7.855362,30.25205550098232
1,-0.08033752,-0.04849243,0.995575,0.9185314,-0.05935669,-0.06591797,0.996048,-26.2579,0.1025848,-23.71997,4.275421,0.3267432,0.5437894,0.9616134,-0.09757996,-0.03413391,0.9946289,30.21275,5.4095,-25.81862,4.365646,0.5994747,0.3818317,0.0494535,1.186597,-0.245513,-0.03350358,-0.009245971,0.01609061,0.1806786,-7.855362,30.25205550098232
1,-0.08033752,-0.04849243,0.995575,0.9185314,-0.05935669,-0.06591797,0.996048,-26.2579,0.1025848,-23.71997,4.275421,0.3267432,0.5437894,0.9616134,-0.09757996,-0.03413391,0.9946289,30.21275,5.4095,-25.81862,4.365646,0.5994747,0.3818317,0.04976261,1.186272,-0.2455604,-0.03159099,-0.007586059,0.01618249,0.1806786,-7.855362,30.25205550098232
1,-0.08033752,-0.04849243,0.995575,0.9185314,-0.05935669,-0.06591797,0.996048,-26.2579,0.1025848,-23.71997,4.275421,0.3267432,0.5437894,0.9616134,-0.09757996,-0.03413391,0.9946289,30.21275,5.4095,-25.81862,4.365646,0.5994747,0.3818317,0.04976261,1.186272,-0.2455604,-0.03159099,-0.007586059,0.01618249,0.1806786,-7.855362,30.25205550098232
1,-0.08033752,-0.04849243,0.995575,0.9185314,-0.05935669,-0.06591797,0.996048,-26.2579,0.1025848,-23.71997,4.275421,0.3267432,0.5437894,0.9616134,-0.09757996,-0.03413391,0.9946289,30.21275,5.4095,-25.81862,4.365646,0.5994747,0.3818317,0.04992163,1.186135,-0.2455512,-0.03034448,-0.006610984,0.01623443,0.1806786,-7.855362,30.25205550098232
1,-0.09117126,-0.04118347,0.9949799,0.9144871,-0.04718018,-0.06715393,0.9966125,-26.17183,0.1071777,-23.44984,4.017441,0.3223971,0.5411813,0.9530397,-0.0952301,-0.03877258,0.9946899,30.29495,5.502396,-26.00645,4.114929,0.5965099,0.3809407,0.05008602,1.185948,-0.2454998,-0.02922788,-0.005729508,0.01639427,0.1806786,-7.855362,30.25205550098232
1,-0.04290771,-0.06732178,0.9967957,0.9323987,-0.04290771,-0.06732178,0.9967957,-26.15727,0.191925,-23.6778,4.019043,0.3209633,0.5405145,0.9617956,-0.08503723,-0.03637695,0.995697,30.29004,5.25589,-24.82443,4.035217,0.5938314,0.3792161,0.05040634,1.185538,-0.2454554,-0.02686962,-0.004180797,0.01670313,0.1806786,-7.855362,30.25205550098232
1,-0.04290771,-0.06732178,0.9967957,0.9323987,-0.04290771,-0.06732178,0.9967957,-26.15727,0.191925,-23.6778,4.019043,0.3209633,0.5405145,0.9617956,-0.08503723,-0.03637695,0.995697,30.29004,5.25589,-24.82443,4.035217,0.5938314,0.3792161,0.05040634,1.185538,-0.2454554,-0.02686962,-0.004180797,0.01670313,0.1806786,-7.855362,30.25205550098232
1,-0.04493713,-0.06245422,0.9970245,0.9488814,-0.04493713,-0.06245422,0.9970245,-26.12752,0.1928864,-23.66826,3.991745,0.3203439,0.5395707,0.9646243,-0.08325195,-0.03347778,0.9959564,30.34161,5.315521,-24.91014,4.038452,0.5919083,0.3774277,0.05054402,1.185305,-0.2454438,-0.02548728,-0.00348275,0.01694185,0.1806786,-7.855362,30.25205550098232
1,-0.04560852,-0.06010437,0.9971466,0.9497647,-0.04560852,-0.06010437,0.9971466,-26.12187,0.1938324,-23.66237,3.970917,0.3202888,0.5390854,0.9694805,-0.0770874,-0.03741455,0.9963074,30.35561,5.321671,-24.90486,3.986725,0.5904099,0.3777963,0.05070317,1.18473,-0.2454577,-0.02277912,-0.002296739,0.01744453,0.1806786,-7.855362,30.25205550098232
1,-0.0418396,-0.05953979,0.997345,0.9331055,-0.04119873,-0.05999756,0.997345,-26.11642,0.2046204,-23.67416,3.990479,0.3193788,0.5388203,0.97092,-0.07894897,-0.032547,0.9963379,30.36536,5.332565,-24.91797,4.027328,0.5904142,0.3767367,0.05081511,1.184497,-0.2454007,-0.02126162,-0.001871302,0.01763441,0.1806786,54.15347,30.25205550098232
1,-0.0418396,-0.05953979,0.997345,0.9331055,-0.04119873,-0.05999756,0.997345,-26.11642,0.2046204,-23.67416,3.990479,0.3193788,0.5388203,0.97092,-0.07894897,-0.032547,0.9963379,30.36536,5.332565,-24.91797,4.027328,0.5904142,0.3767367,0.05081511,1.184497,-0.2454007,-0.02126162,-0.001871302,0.01763441,0.1806786,54.15347,30.25205550098232
1,-0.05662537,-0.04335022,0.9974518,0.9310669,-0.04118347,-0.05540466,0.9976044,-26.10205,0.2067719,-23.6778,3.991196,0.3189097,0.5380228,0.9685457,-0.07984924,-0.02513123,0.9964752,30.37093,5.343948,-24.93515,4.011261,0.5904099,0.3752496,0.05115116,1.183834,-0.2451953,-0.0180532,-0.001132034,0.0182592,0.1806786,54.15347,30.25205550098232
1,-0.05662537,-0.04335022,0.9974518,0.9310669,-0.04118347,-0.05540466,0.9976044,-26.10205,0.2067719,-23.6778,3.991196,0.3189097,0.5380228,0.9685457,-0.07984924,-0.02513123,0.9964752,30.37093,5.343948,-24.93515,4.011261,0.5904099,0.3752496,0.05115116,1.183834,-0.2451953,-0.0180532,-0.001132034,0.0182592,0.1806786,54.15347,30.25205550098232
1,-0.05535889,-0.04277039,0.9975433,0.9310669,-0.03981018,-0.05708313,0.9975739,-26.09882,0.2311554,-23.70308,3.983429,0.318557,0.5377265,0.9685457,-0.07777405,-0.02203369,0.9967194,30.37256,5.347321,-24.93521,4.009644,0.5900156,0.3746078,0.05121839,1.183517,-0.2451436,-0.01643603,-0.0009689031,0.01852455,0.1806786,54.15347,30.25205550098232
1,-0.05535889,-0.04277039,0.9975433,0.9310669,-0.03981018,-0.05708313,0.9975739,-26.09882,0.2311554,-23.70308,3.983429,0.318557,0.5377265,0.9685457,-0.07777405,-0.02203369,0.9967194,30.37256,5.347321,-24.93521,4.009644,0.5900156,0.3746078,0.05125284,1.18296,-0.2449315,-0.01304383,-0.0008097229,0.01877662,0.1806786,54.15347,30.25205550098232
1,-0.05535889,-0.04277039,0.9975433,0.9310669,-0.03981018,-0.05708313,0.9975739,-26.09882,0.2311554,-23.70308,3.983429,0.318557,0.5377265,0.9685457,-0.07777405,-0.02203369,0.9967194,30.37256,5.347321,-24.93521,4.009644,0.5900156,0.3746078,0.05125284,1.18296,-0.2449315,-0.01304383,-0.0008097229,0.01877662,0.1806786,54.15347,30.25205550098232
1,-0.05535889,-0.04277039,0.9975433,0.9310669,-0.03981018,-0.05708313,0.9975739,-26.09882,0.2311554,-23.70308,3.983429,0.318557,0.5377265,0.9685457,-0.07777405,-0.02203369,0.9967194,30.37256,5.347321,-24.93521,4.009644,0.5900156,0.3746078,0.05124772,1.182689,-0.2448287,-0.01150703,-0.0007324219,0.01890002,0.1806786,54.15347,30.25205550098232
1,-0.07450867,-0.01879883,0.9970398,0.934806,-0.04051208,-0.02703857,0.9988098,-26.0107,0.3959961,-24.17593,3.95108,0.3152759,0.5316276,0.9744447,-0.07545471,-0.01855469,0.9969635,30.37384,5.354614,-24.93657,3.998779,0.5895976,0.3737754,0.05128551,1.182261,-0.2444999,-0.008893558,-0.0005725605,0.01915687,0.1806786,54.15347,30.25205550098232
1,-0.07087708,-0.007156372,0.9974518,0.993297,-0.03315735,-0.008972168,0.9994049,-25.99532,0.608139,-24.34453,3.799332,0.3134924,0.5231049,0.9773334,-0.07090759,-0.007156372,0.9974518,30.36432,5.619492,-25.15875,3.96814,0.5894501,0.3647571,0.05132115,1.182019,-0.2443308,-0.007679766,-0.0006224389,0.01906252,0.1806786,54.15347,30.25205550098232
1,-0.07087708,-0.007156372,0.9974518,0.993297,-0.03315735,-0.008972168,0.9994049,-25.99532,0.608139,-24.34453,3.799332,0.3134924,0.5231049,0.9773334,-0.07090759,-0.007156372,0.9974518,30.36432,5.619492,-25.15875,3.96814,0.5894501,0.3647571,0.05132115,1.182019,-0.2443308,-0.007679766,-0.0006224389,0.01906252,0.1806786,54.15347,30.25205550098232
1,-0.07392883,-0.001190186,0.9972534,1.0,-0.03341675,-0.005584717,0.9994202,-25.99413,0.6273193,-24.36942,3.781006,0.3134836,0.5221254,1.0,-0.07426453,-0.001159668,0.9972229,30.36432,5.640442,-25.19394,3.96698,0.5900615,0.3633207,0.05136478,1.181783,-0.2440838,-0.006481233,-0.0007012406,0.01913313,0.1806786,54.15347,30.25205550098232
1,-0.06791687,0.0004272461,0.9976807,1.0,-0.0344696,-0.001907349,0.9993896,-25.99031,0.6458282,-24.40331,3.775284,0.3135003,0.5212144,1.0,-0.07429504,0.000869751,0.9972229,30.36432,5.653168,-25.17892,3.967453,0.5900615,0.3624303,0.05137789,1.181374,-0.2437125,-0.004079779,-0.0009052976,0.01890041,0.1806786,54.15347,30.25205550098232
1,-0.06791687,0.0004272461,0.9976807,1.0,-0.0344696,-0.001907349,0.9993896,-25.99031,0.6458282,-24.40331,3.775284,0.3135003,0.5212144,1.0,-0.07429504,0.000869751,0.9972229,30.36432,5.653168,-25.17892,3.967453,0.5900615,0.3624303,0.05137789,1.181374,-0.2437125,-0.004079779,-0.0009052976,0.01890041,0.1806786,54.15347,30.25205550098232
1,-0.0499115,0.00604248,0.9987335,1.0,-0.03312683,0.003326416,0.9994354,-25.99413,0.6273193,-24.36942,3.789459,0.313448,0.5206639,1.0,-0.07434082,0.01000977,0.9971771,30.36499,5.640442,-25.17851,3.964005,0.5900615,0.3613097,0.05148101,1.181052,-0.2433187,-0.002064396,-0.001170857,0.01959675,0.1806786,54.15347,30.25205550098232
1,-0.05439758,0.009643555,0.9984589,1.0,-0.03268433,0.005813599,0.9994354,-25.99532,0.608139,-24.34453,3.793823,0.313448,0.5206475,1.0,-0.07461548,0.01322937,0.9971161,30.36589,5.619492,-25.15875,3.955399,0.5900615,0.3613097,0.05145669,1.180903,-0.2431977,-0.0008097229,-0.001244878,0.01953888,0.1806786,54.15347,30.25205550098232
1,-0.05439758,0.009643555,0.9984589,1.0,-0.03268433,0.005813599,0.9994354,-25.99532,0.608139,-24.34453,3.793823,0.313448,0.5206475,1.0,-0.07461548,0.01322937,0.9971161,30.36589,5.619492,-25.15875,3.955399,0.5900615,0.3613097,0.05145669,1.180903,-0.2431977,-0.0008097229,-0.001244878,0.01953888,0.1806786,54.15347,30.25205550098232
1,-0.02381897,0.008621216,0.9996643,1.0,-0.02377319,0.008621216,0.9996796,-25.97885,0.440155,-24.17613,3.618439,0.311691,0.5239901,1.0,-0.08659363,0.02018738,0.9960327,30.39534,5.384949,-24.3033,3.988968,0.5902638,0.3613291,0.05138993,1.18048,-0.2430114,0.002078783,-0.001646819,0.0195343,0.1806786,-7.045349,30.25205550098232
1,-0.02381897,0.008621216,0.9996643,1.0,-0.02377319,0.008621216,0.9996796,-25.97885,0.440155,-24.17613,3.618439,0.311691,0.5239901,1.0,-0.08659363,0.02018738,0.9960327,30.39534,5.384949,-24.3033,3.988968,0.5902638,0.3613291,0.05138993,1.18048,-0.2430114,0.002078783,-0.001646819,0.0195343,0.1806786,-7.045349,30.25205550098232
1,-0.02636719,0.02182007,0.9994049,1.0,-0.02636719,0.02182007,0.9994049,-25.96747,0.3831329,-24.15648,3.675797,0.3117641,0.5235271,1.0,-0.087677,0.02233887,0.9958954,30.3978,5.382477,-24.33922,3.976028,0.5904006,0.3613291,0.05138314,1.18022,-0.2428954,0.003450511,-0.001879249,0.01962676,0.1806786,-7.045349,30.25205550098232
1,-0.02661133,0.02030945,0.9994354,1.0,-0.02658081,0.02030945,0.9994354,-25.96747,0.3798218,-24.17651,3.6745,0.3117641,0.5240641,1.0,-0.08883667,0.02705383,0.9956665,30.40187,5.361511,-24.34879,3.964432,0.5904724,0.3613097,0.05131435,1.179745,-0.2426746,0.006350003,-0.002385842,0.01999644,0.1806786,-7.045349,30.25205550098232
1,-0.0272522,0.02140808,0.9993896,1.0,-0.02702332,0.02137756,0.9994049,-25.96671,0.3799591,-24.16801,3.681122,0.311823,0.5238148,1.0,-0.09002686,0.02772522,0.9955444,30.40784,5.36084,-24.34879,3.963989,0.5904724,0.3612233,0.05133879,1.179598,-0.2425466,0.007799137,-0.002623802,0.02033121,0.1806786,-7.045349,30.25205550098232
1,-0.02984619,0.0206604,0.9993286,1.0,-0.02687073,0.02026367,0.9994202,-25.96594,0.3800812,-24.17651,3.674377,0.3117641,0.5240641,1.0,-0.09236145,0.02891541,0.9953003,30.41507,5.36084,-24.34879,3.958786,0.5906245,0.3610225,0.0512892,1.179363,-0.2424501,0.008915314,-0.002960048,0.0205296,0.1806786,-7.045349,30.25205550098232
1,-0.02984619,0.0206604,0.9993286,1.0,-0.02687073,0.02026367,0.9994202,-25.96594,0.3800812,-24.17651,3.674377,0.3117641,0.5240641,1.0,-0.09236145,0.02891541,0.9953003,30.41507,5.36084,-24.34879,3.958786,0.5906245,0.3610225,0.0512892,1.179363,-0.2424501,0.008915314,-0.002960048,0.0205296,0.1806786,-7.045349,30.25205550098232
1,-0.06022644,0.02722168,0.9978027,1.0,-0.02839661,0.02345276,0.9993134,-25.9623,0.3831329,-24.19032,3.681152,0.311882,0.5235655,1.0,-0.09346008,0.03112793,0.9951324,30.41769,5.36084,-24.34879,3.953156,0.5907243,0.3606627,0.05120909,1.179148,-0.2423731,0.01000604,-0.003286844,0.02076308,0.1806786,-7.045349,30.25205550098232
1,-0.09785461,0.04727173,0.9940643,1.0,-0.06645203,0.03363037,0.9972076,-25.89066,0.9500885,-25.98024,3.703827,0.3135745,0.5195293,1.0,-0.09785461,0.04727173,0.9940643,30.4021,5.427231,-24.37721,3.873947,0.5920675,0.3559541,0.05106795,1.17891,-0.2421231,0.01140754,-0.003927175,0.0211097,0.1806786,-7.045349,30.25205550098232
1,-0.1062012,0.05235291,0.9929504,1.0,-0.05026245,0.05204773,0.9973755,-25.91226,0.5933685,-24.68579,3.771378,0.3131439,0.5165203,1.0,-0.1062469,0.05235291,0.9929504,30.44598,5.869064,-25.86777,3.909607,0.5935061,0.3519441,0.05103695,1.178771,-0.2419548,0.01177267,-0.004261985,0.02114637,0.1806786,-7.045349,30.25205550098232
1,-0.1062012,0.05235291,0.9929504,1.0,-0.05026245,0.05204773,0.9973755,-25.91226,0.5933685,-24.68579,3.771378,0.3131439,0.5165203,1.0,-0.1062469,0.05235291,0.9929504,30.44598,5.869064,-25.86777,3.909607,0.5935061,0.3519441,0.05103695,1.178771,-0.2419548,0.01177267,-0.004261985,0.02114637,0.1806786,-7.045349,30.25205550098232
1,-0.0657196,0.04426575,0.9968414,1.0,-0.06195068,0.04391479,0.9971008,-25.92091,0.5628204,-24.40268,3.779617,0.3158162,0.5164104,1.0,-0.1069489,0.0480957,0.9930878,30.42894,5.911804,-25.93068,3.829758,0.594274,0.3516521,0.05100811,1.178725,-0.2417753,0.01218198,-0.00455602,0.02125601,0.1806786,-7.045349,30.25205550098232
1,-0.06211853,0.04598999,0.996994,1.0,-0.06034851,0.04576111,0.9971161,-25.92828,0.548111,-24.31258,3.783737,0.3159193,0.5157905,1.0,-0.1082458,0.05223083,0.9927368,30.4175,5.921722,-25.9325,3.852493,0.5948976,0.3506438,0.05081499,1.178563,-0.2414485,0.01294636,-0.005097806,0.02145522,0.1806786,-7.045349,30.25205550098232
1,-0.06211853,0.04598999,0.996994,1.0,-0.06034851,0.04576111,0.9971161,-25.92828,0.548111,-24.31258,3.783737,0.3159193,0.5157905,1.0,-0.1082458,0.05223083,0.9927368,30.4175,5.921722,-25.9325,3.852493,0.5948976,0.3506438,0.05081499,1.178563,-0.2414485,0.01294636,-0.005097806,0.02145522,0.1806786,-7.045349,30.25205550098232
1,-0.07820129,0.05021667,0.9956665,1.0,-0.06115723,0.04919434,0.9969025,-25.93126,0.5457153,-24.28984,3.802399,0.3161841,0.5151186,1.0,-0.1078339,0.05195618,0.9927979,30.41304,5.925644,-25.93361,3.833069,0.5949798,0.350556,0.0507158,1.178452,-0.2412848,0.01352889,-0.005449588,0.02164366,0.1806786,-7.045349,30.25205550098232
1,-0.1075439,0.05378723,0.9927368,1.0,-0.06201172,0.05197144,0.9967194,-25.93802,0.541275,-24.24185,3.817642,0.3166089,0.5143957,1.0,-0.1075897,0.05378723,0.9927368,30.40573,5.934982,-25.96625,3.866592,0.5952213,0.3502022,0.05061233,1.178213,-0.2408537,0.01488858,-0.006291064,0.02211259,0.1806786,-16.4147,30.25205550098232
1,-0.1090393,0.05747986,0.9923706,1.0,-0.04722595,0.05970764,0.9970856,-26.01103,0.294693,-23.27281,3.855804,0.3177843,0.5125624,1.0,-0.1090546,0.05747986,0.9923706,30.40056,5.937805,-25.98274,3.85997,0.5956736,0.3496016,0.05057704,1.178081,-0.2405951,0.01541811,-0.006640221,0.02219902,0.1806786,-16.4147,30.25205550098232
1,-0.1090393,0.05747986,0.9923706,1.0,-0.04722595,0.05970764,0.9970856,-26.01103,0.294693,-23.27281,3.855804,0.3177843,0.5125624,1.0,-0.1090546,0.05747986,0.9923706,30.40056,5.937805,-25.98274,3.85997,0.5956736,0.3496016,0.05057704,1.178081,-0.2405951,0.01541811,-0.006640221,0.02219902,0.1806786,-16.4147,30.25205550098232
1,-0.1085205,0.06083679,0.992218,1.0,-0.04582214,0.05877686,0.9972076,-26.01779,0.2989807,-23.27235,3.855591,0.3177843,0.5125624,1.0,-0.1085205,0.06083679,0.992218,30.39618,5.940125,-25.98274,3.866959,0.5957434,0.3489534,0.05053127,1.177959,-0.240329,0.01602751,-0.00695158,0.02217685,0.1806786,-16.4147,30.25205550098232
1,-0.1102295,0.06108093,0.9920197,1.0,-0.04612732,0.056427,0.9973297,-26.02473,0.3151855,-23.27281,3.852722,0.318059,0.5124326,1.0,-0.1102295,0.06108093,0.9920197,30.39076,5.937805,-25.96625,3.871262,0.5962013,0.3488719,0.05044329,1.17764,-0.2398292,0.01764877,-0.007482223,0.02174737,0.1806786,-16.4147,30.25205550098232
1,-0.1102295,0.06108093,0.9920197,1.0,-0.04612732,0.056427,0.9973297,-26.02473,0.3151855,-23.27281,3.852722,0.318059,0.5124326,1.0,-0.1102295,0.06108093,0.9920197,30.39076,5.937805,-25.96625,3.871262,0.5962013,0.3488719,0.05044329,1.17764,-0.2398292,0.01764877,-0.007482223,0.02174737,0.1806786,-16.4147,30.25205550098232
1,-0.1178589,0.06193542,0.9910889,1.0,-0.04823303,0.05586243,0.9972687,-26.02768,0.3202209,-23.28188,3.844147,0.3184915,0.5124326,1.0,-0.1178741,0.06193542,0.9910889,30.38399,5.934982,-25.95744,3.885315,0.597721,0.3487865,0.05040073,1.177465,-0.239556,0.01857034,-0.007752186,0.02146946,0.1806786,-16.4147,30.25205550098232
1,-0.1152344,0.06962585,0.9908905,1.0,-0.04414368,0.06378174,0.9969788,-26.01479,0.3129883,-23.28224,3.839798,0.317417,0.5113695,1.0,-0.1163025,0.06971741,0.9907532,30.37672,5.937805,-25.96625,3.892349,0.5977322,0.3474356,0.05039191,1.177238,-0.2393762,0.01990981,-0.008172331,0.02127738,0.1806786,-16.4147,30.25205550098232
1,-0.06541443,0.07440186,0.9950714,1.0,-0.007049561,0.06298828,0.9979858,-25.55194,0.5080109,-23.98055,3.695938,0.2950028,0.5109248,1.0,-0.06642151,0.07460022,0.9949951,30.72569,5.717285,-24.88437,3.811737,0.5765913,0.3455312,0.05034292,1.177026,-0.239154,0.02132949,-0.008594478,0.02102553,0.1806786,-16.4147,30.25205550098232
1,-0.04911804,0.05917358,0.9970245,1.0,-0.005203247,0.05737305,0.9983368,-25.13025,0.7980499,-24.96706,3.693436,0.2796539,0.5111293,1.0,-0.04922485,0.05917358,0.9970245,31.02382,5.688629,-24.87354,3.877884,0.5637608,0.3488065,0.0502007,1.176403,-0.2387975,0.02414525,-0.009829503,0.02107967,0.1806786,-16.4147,30.25205550098232
1,-0.04911804,0.05917358,0.9970245,1.0,-0.005203247,0.05737305,0.9983368,-25.13025,0.7980499,-24.96706,3.693436,0.2796539,0.5111293,1.0,-0.04922485,0.05917358,0.9970245,31.02382,5.688629,-24.87354,3.877884,0.5637608,0.3488065,0.0502007,1.176403,-0.2387975,0.02414525,-0.009829503,0.02107967,0.1806786,-16.4147,30.25205550098232
1,-0.04542542,0.05960083,0.9971771,1.0,-0.003601074,0.05932617,0.99823,-25.16199,0.8436737,-25.0985,3.681,0.2799922,0.5104018,1.0,-0.04544067,0.05960083,0.9971771,31.0103,5.664551,-24.72885,3.828232,0.5634397,0.3485336,0.05011809,1.176109,-0.2386093,0.02576233,-0.01053772,0.02126127,0.1806786,-16.4147,30.25205550098232
1,-0.0489502,0.05929565,0.9970245,1.0,-0.009277344,0.05996704,0.9981537,-25.18962,0.9120636,-25.21005,3.680756,0.2816897,0.5090492,1.0,-0.0489502,0.05929565,0.9970245,30.99748,5.692444,-24.81314,3.842972,0.564514,0.3483265,0.04986143,1.17551,-0.238228,0.02881092,-0.0116031,0.02099929,0.1806786,-16.4147,30.25205550098232
1,-0.0489502,0.05929565,0.9970245,1.0,-0.009277344,0.05996704,0.9981537,-25.18962,0.9120636,-25.21005,3.680756,0.2816897,0.5090492,1.0,-0.0489502,0.05929565,0.9970245,30.99748,5.692444,-24.81314,3.842972,0.564514,0.3483265,0.04986143,1.17551,-0.238228,0.02881092,-0.0116031,0.02099929,0.1806786,-16.4147,30.25205550098232
1,-0.04632568,0.05953979,0.9971466,1.0,0.002655029,0.08799744,0.996109,-25.26396,0.3879852,-23.46933,3.735489,0.2846301,0.5061337,1.0,-0.04632568,0.05953979,0.9971466,30.97221,5.755234,-24.95598,3.837234,0.5650308,0.3472791,0.04970992,1.175275,-0.2380213,0.0301353,-0.01198529,0.02069299,0.1806786,-16.4147,30.25205550098232
1,-0.04351807,0.05645752,0.9974518,1.0,0.004150391,0.08325195,0.9965057,-25.25491,0.3841553,-23.3443,3.663986,0.2845899,0.5059658,1.0,-0.04351807,0.05645752,0.9974518,30.95483,5.791122,-24.97206,3.832916,0.5651617,0.3467084,0.04940522,1.174901,-0.2376733,0.03242593,-0.01255427,0.01999234,0.1806786,-3.887604,30.25205550098232
1,-0.04364014,0.06182861,0.9971161,1.0,0.02090454,0.09034729,0.9956818,-25.28455,0.269516,-22.93585,3.757599,0.2834196,0.5050399,1.0,-0.04364014,0.06182861,0.9971161,30.94389,5.791351,-24.94759,3.819733,0.5655424,0.345597,0.04921544,1.174696,-0.2374913,0.033371,-0.01281564,0.0196628,0.1806786,8.290497,30.25205550098232
1,-0.04364014,0.06182861,0.9971161,1.0,0.02090454,0.09034729,0.9956818,-25.28455,0.269516,-22.93585,3.757599,0.2834196,0.5050399,1.0,-0.04364014,0.06182861,0.9971161,30.94389,5.791351,-24.94759,3.819733,0.5655424,0.345597,0.04921544,1.174696,-0.2374913,0.033371,-0.01281564,0.0196628,0.1806786,8.290497,30.25205550098232
1,-0.04563904,0.07836914,0.9958649,1.0,0.0164032,0.0952301,0.9953156,-25.29413,0.269516,-22.90816,3.681839,0.2845614,0.5039454,1.0,-0.04563904,0.07836914,0.9958649,30.9364,5.792938,-24.93796,3.823837,0.5661522,0.3426993,0.04904521,1.174473,-0.2373332,0.03438506,-0.0130055,0.01929831,0.1806786,8.290497,30.25205550098232
1,-0.04679871,0.08088684,0.9956207,1.0,0.0176239,0.0954895,0.9952698,-25.29985,0.269516,-22.88921,3.710724,0.2845709,0.503763,1.0,-0.04679871,0.08088684,0.9956207,30.92979,5.801941,-24.94466,3.807281,0.5665804,0.34203,0.04855609,1.174074,-0.2371476,0.03653881,-0.01355145,0.01916621,0.1806786,8.290497,30.25205550098232
2,-0.04750061,0.08311462,0.9953918,1.0,0.02099609,0.1052551,0.9942169,-25.33189,0.3226624,-22.99802,3.662674,0.2849387,0.501385,1.0,-0.04951477,0.0824585,0.9953613,30.92354,5.818237,-24.94759,3.803024,0.5672534,0.3412411,0.04830849,1.173863,-0.2370881,0.03768574,-0.01387688,0.01936537,0.1806786,8.290497,30.25205550098232
2,-0.04750061,0.08311462,0.9953918,1.0,0.02099609,0.1052551,0.9942169,-25.33189,0.3226624,-22.99802,3.662674,0.2849387,0.501385,1.0,-0.04951477,0.0824585,0.9953613,30.92354,5.818237,-24.94759,3.803024,0.5672534,0.3412411,0.04830849,1.173863,-0.2370881,0.03768574,-0.01387688,0.01936537,0.1806786,8.290497,30.25205550098232
2,-0.0388031,0.09062195,0.9951172,1.0,0.01701355,0.1078033,0.9940186,-25.34262,0.3525543,-23.04532,3.662689,0.2858723,0.5004181,1.0,-0.04841614,0.08761597,0.9949646,30.91254,5.831421,-24.95053,3.802917,0.567454,0.339953,0.04806411,1.173678,-0.2370198,0.03876708,-0.01414068,0.01957431,0.1806786,8.290497,30.25205550098232
2,-0.04484558,0.09428406,0.9945221,1.0,0.0165863,0.1047363,0.9943542,-25.34854,0.3909149,-23.12973,3.672424,0.2860037,0.5004181,1.0,-0.06155396,0.09138489,0.9938965,30.90631,5.850464,-24.96388,3.792007,0.5698933,0.3388009,0.04747427,1.173279,-0.2369814,0.04090194,-0.01486303,0.02013346,0.1806786,8.290497,30.25205550098232
2,-0.05050659,0.09770203,0.993927,1.0,0.01748657,0.1050568,0.9943085,-25.35109,0.4082794,-23.17014,3.675247,0.2858723,0.5001612,1.0,-0.06062317,0.09657288,0.9934692,30.89618,5.853043,-24.96388,3.792953,0.5700899,0.3378512,0.04715788,1.173093,-0.2369839,0.04197586,-0.01535371,0.02049982,0.1806786,8.290497,30.25205550098232
2,-0.05050659,0.09770203,0.993927,1.0,0.01748657,0.1050568,0.9943085,-25.35109,0.4082794,-23.17014,3.675247,0.2858723,0.5001612,1.0,-0.06062317,0.09657288,0.9934692,30.89618,5.853043,-24.96388,3.792953,0.5700899,0.3378512,0.04715788,1.173093,-0.2369839,0.04197586,-0.01535371,0.02049982,0.1806786,8.290497,30.25205550098232
2,-0.04966736,0.1021576,0.993515,1.0,0.01812744,0.1083221,0.9939423,-25.35437,0.4135132,-23.17056,3.676926,0.2858723,0.4994687,1.0,-0.06240845,0.1009521,0.9929199,30.88591,5.867004,-24.96388,3.766754,0.5707475,0.3366284,0.04678297,1.172921,-0.2369906,0.04293475,-0.01596837,0.02096911,0.1806786,8.290497,30.25205550098232
2,-0.04562378,0.103714,0.9935455,1.0,0.01782227,0.1110992,0.9936371,-25.35475,0.4135437,-23.17131,3.676254,0.285938,0.4990267,1.0,-0.06440735,0.1014404,0.9927521,30.87976,5.877975,-24.97914,3.769974,0.5713041,0.3363055,0.04610944,1.172711,-0.2370604,0.04505718,-0.01756159,0.02209473,0.1806786,8.290497,30.25205550098232
2,-0.02900696,0.1119385,0.9932861,1.0,0.01628113,0.1113586,0.9936371,-25.38983,0.350296,-23.27872,3.558548,0.2872068,0.5018585,1.0,-0.05863953,0.1121979,0.9919434,30.78162,5.824921,-24.99998,3.747803,0.5736399,0.3364106,0.04525149,1.172397,-0.2371823,0.04722165,-0.01906917,0.02319176,0.1806786,8.290497,30.25205550098232
2,-0.02900696,0.1119385,0.9932861,1.0,0.01628113,0.1113586,0.9936371,-25.38983,0.350296,-23.27872,3.558548,0.2872068,0.5018585,1.0,-0.05863953,0.1121979,0.9919434,30.78162,5.824921,-24.99998,3.747803,0.5736399,0.3364106,0.04525149,1.172397,-0.2371823,0.04722165,-0.01906917,0.02319176,0.1806786,8.290497,30.25205550098232
2,-0.02561951,0.02415466,0.9993744,1.0,-0.0005340576,0.02120972,0.9997711,-25.28116,0.2872162,-24.59523,3.482574,0.2844306,0.5303614,1.0,-0.04083252,0.02593994,0.9988251,30.58125,5.471161,-25.58095,3.583603,0.5775077,0.3671656,0.04525149,1.172397,-0.2371823,0.04722165,-0.01906917,0.02319176,0.1806786,8.290497,30.25205550098232
2,-0.02775574,-0.05574036,0.9980469,1.0,0.01535034,-0.04855347,0.9986877,-25.31247,-0.442627,-23.74042,3.428177,0.283458,0.5579148,1.0,-0.02822876,-0.05581665,0.9980316,30.50873,5.058014,-25.6506,3.496857,0.5776283,0.3954279,0.04431927,1.172072,-0.2375029,0.0497129,-0.02127003,0.02424963,0.1806786,8.290497,30.25205550098232
2,-0.03192139,-0.08857727,0.9955444,1.0,0.0120697,-0.07829285,0.9968414,-25.32011,-0.7482452,-23.22289,3.533142,0.2849126,0.5681176,1.0,-0.0349884,-0.08927917,0.9953766,30.47368,4.953979,-25.78607,3.434998,0.5799999,0.4057132,0.04319942,1.171631,-0.2380285,0.05334082,-0.02363219,0.02489426,0.1806786,-1.262329,30.25205550098232
2,-0.0365448,-0.09051514,0.9952087,1.0,0.006546021,-0.07852173,0.9968872,-25.41502,-0.9040527,-23.12723,3.560547,0.2891296,0.5723484,1.0,-0.03756714,-0.09080505,0.9951477,30.48438,4.778885,-25.53458,3.451157,0.5798398,0.4097342,0.04213011,1.170935,-0.238675,0.05715342,-0.02614015,0.02591688,0.1806786,-1.262329,30.25205550098232
2,-0.0365448,-0.09051514,0.9952087,1.0,0.006546021,-0.07852173,0.9968872,-25.41502,-0.9040527,-23.12723,3.560547,0.2891296,0.5723484,1.0,-0.03756714,-0.09080505,0.9951477,30.48438,4.778885,-25.53458,3.451157,0.5798398,0.4097342,0.04213011,1.170935,-0.238675,0.05715342,-0.02614015,0.02591688,0.1806786,-1.262329,30.25205550098232
2,-0.03753662,-0.09121704,0.9951172,0.8468856,0.01217651,-0.07118225,0.9973755,-25.51118,-0.8461304,-23.34691,3.488449,0.2910953,0.5712529,0.9790721,-0.0375824,-0.0912323,0.9951172,30.48438,4.778885,-25.56845,3.411469,0.5798675,0.4100737,0.04098856,1.170358,-0.2392624,0.06036744,-0.02863896,0.02694687,0.1806786,-1.262329,30.25205550098232
2,-0.03753662,-0.09121704,0.9951172,0.8468856,0.01217651,-0.07118225,0.9973755,-25.51118,-0.8461304,-23.34691,3.488449,0.2910953,0.5712529,0.9790721,-0.0375824,-0.0912323,0.9951172,30.48438,4.778885,-25.56845,3.411469,0.5798675,0.4100737,0.04098856,1.170358,-0.2392624,0.06036744,-0.02863896,0.02694687,0.1806786,-1.262329,30.25205550098232
2,-0.04360962,-0.07894897,0.9959106,0.8248494,0.006072998,-0.06448364,0.9978943,-25.60094,-0.8578491,-23.19037,3.404282,0.2952542,0.569018,0.978083,-0.04530334,-0.07943726,0.9958038,30.42313,4.874481,-25.72874,3.478226,0.5833773,0.4062364,0.03986943,1.169988,-0.2398181,0.06292864,-0.03107595,0.02805706,0.1806786,-1.262329,30.25205550098232
2,-0.04360962,-0.07894897,0.9959106,0.8248494,0.006072998,-0.06448364,0.9978943,-25.60094,-0.8578491,-23.19037,3.404282,0.2952542,0.569018,0.978083,-0.04530334,-0.07943726,0.9958038,30.42313,4.874481,-25.72874,3.478226,0.5833773,0.4062364,0.03986943,1.169988,-0.2398181,0.06292864,-0.03107595,0.02805706,0.1806786,-1.262329,30.25205550098232
2,-0.04940796,-0.06752014,0.9964905,1.0,-0.001068115,-0.06567383,0.9978333,-25.70325,-0.5422058,-23.6109,3.454147,0.2993067,0.5629393,1.0,-0.05412292,-0.06768799,0.9962311,30.37083,4.968704,-25.67108,3.485687,0.5866027,0.4006336,0.03886366,1.169556,-0.2403131,0.06462594,-0.03335603,0.02990224,0.1806786,-1.262329,30.25205550098232
2,-0.04940796,-0.06752014,0.9964905,1.0,-0.001068115,-0.06567383,0.9978333,-25.70325,-0.5422058,-23.6109,3.454147,0.2993067,0.5629393,1.0,-0.05412292,-0.06768799,0.9962311,30.37083,4.968704,-25.67108,3.485687,0.5866027,0.4006336,0.03886366,1.169556,-0.2403131,0.06462594,-0.03335603,0.02990224,0.1806786,-1.262329,30.25205550098232
2,-0.04832458,-0.06762695,0.9965363,0.9000848,0.004379272,-0.0526886,0.9985962,-25.75146,-0.4887238,-23.5948,3.419525,0.3000401,0.558857,0.9928727,-0.05235291,-0.0687561,0.9962463,30.32394,4.971405,-25.52324,3.491531,0.5877532,0.3995187,0.03795791,1.169339,-0.2407023,0.06596746,-0.03491553,0.03161315,0.1781158,-1.262329,30.25205550098232
2,-0.04832458,-0.06762695,0.9965363,0.9000848,0.004379272,-0.0526886,0.9985962,-25.75146,-0.4887238,-23.5948,3.419525,0.3000401,0.558857,0.9928727,-0.05235291,-0.0687561,0.9962463,30.32394,4.971405,-25.52324,3.491531,0.5877532,0.3995187,0.03795791,1.169339,-0.2407023,0.06596746,-0.03491553,0.03161315,0.1781158,-1.262329,30.25205550098232
2,-0.04981995,-0.06161499,0.9968414,0.913068,-0.006912231,-0.05236816,0.9985962,-25.82745,-0.362442,-23.71931,3.366562,0.3042652,0.5558465,0.9942461,-0.05322266,-0.06234741,0.9966278,30.28543,5.105286,-25.64653,3.42984,0.5893282,0.3949565,0.03708351,1.169239,-0.2410941,0.06719226,-0.0359681,0.03251588,0.1781158,-1.262329,30.25205550098232
2,-0.04981995,-0.06161499,0.9968414,0.913068,-0.006912231,-0.05236816,0.9985962,-25.82745,-0.362442,-23.71931,3.366562,0.3042652,0.5558465,0.9942461,-0.05322266,-0.06234741,0.9966278,30.28543,5.105286,-25.64653,3.42984,0.5893282,0.3949565,0.03708351,1.169239,-0.2410941,0.06719226,-0.0359681,0.03251588,0.1781158,-1.262329,30.25205550098232
2,-0.02668762,-0.05213928,0.9982758,1.0,-0.009719849,-0.04896545,0.9987488,-25.8568,-0.3209686,-23.74254,3.358536,0.3056861,0.5541402,1.0,-0.05856323,-0.05805969,0.996582,30.26186,5.144455,-25.69214,3.437088,0.5910776,0.3933001,0.0362395,1.169046,-0.2414937,0.06857657,-0.03677863,0.03324887,0.1781158,27.15356,30.25205550098232
2,-0.02668762,-0.05213928,0.9982758,1.0,-0.009719849,-0.04896545,0.9987488,-25.8568,-0.3209686,-23.74254,3.358536,0.3056861,0.5541402,1.0,-0.05856323,-0.05805969,0.996582,30.26186,5.144455,-25.69214,3.437088,0.5910776,0.3933001,0.0362395,1.169046,-0.2414937,0.06857657,-0.03677863,0.03324887,0.1781158,27.15356,30.25205550098232
2,-0.02392578,-0.04672241,0.9986115,1.0,-0.01541138,-0.04502869,0.9988556,-25.91063,-0.258728,-23.90126,3.353104,0.3082102,0.5529316,1.0,-0.06072998,-0.05401611,0.9966888,30.27103,5.128433,-25.68428,3.437973,0.59113,0.3930842,0.03536904,1.16893,-0.2418066,0.06979476,-0.03741888,0.03412122,0.1781158,27.15356,30.25205550098232
2,-0.02392578,-0.04672241,0.9986115,1.0,-0.01541138,-0.04502869,0.9988556,-25.91063,-0.258728,-23.90126,3.353104,0.3082102,0.5529316,1.0,-0.06072998,-0.05401611,0.9966888,30.27103,5.128433,-25.68428,3.437973,0.59113,0.3930842,0.03536904,1.16893,-0.2418066,0.06979476,-0.03741888,0.03412122,0.1781158,27.15356,30.25205550098232
2,-0.01795959,-0.04508972,0.9988098,1.0,-0.01652527,-0.04495239,0.9988403,-25.93915,-0.2604218,-23.88736,3.315414,0.3093455,0.5528257,1.0,-0.06425476,-0.04962158,0.9966888,30.26443,4.960815,-25.09372,3.449997,0.5913892,0.3931277,0.03471136,1.168769,-0.2418736,0.07099982,-0.03790632,0.03478469,0.1781158,27.15356,30.25205550098232
2,-0.01795959,-0.04508972,0.9988098,1.0,-0.01652527,-0.04495239,0.9988403,-25.93915,-0.2604218,-23.88736,3.315414,0.3093455,0.5528257,1.0,-0.06425476,-0.04962158,0.9966888,30.26443,4.960815,-25.09372,3.449997,0.5913892,0.3931277,0.03471136,1.168769,-0.2418736,0.07099982,-0.03790632,0.03478469,0.1781158,27.15356,30.25205550098232
2,-0.01737976,-0.04273987,0.9989319,1.0,-0.01733398,-0.04273987,0.9989319,-25.96355,-0.2348328,-23.92647,3.334061,0.3102324,0.5520068,1.0,-0.06530762,-0.04959106,0.9966278,30.25845,4.945236,-24.995,3.446274,0.5916753,0.3928409,0.03394771,1.168467,-0.2419394,0.07248736,-0.03843955,0.03554615,0.1781158,27.15356,30.25205550098232
2,-0.01737976,-0.04273987,0.9989319,1.0,-0.01733398,-0.04273987,0.9989319,-25.96355,-0.2348328,-23.92647,3.334061,0.3102324,0.5520068,1.0,-0.06530762,-0.04959106,0.9966278,30.25845,4.945236,-24.995,3.446274,0.5916753,0.3928409,0.03394771,1.168467,-0.2419394,0.07248736,-0.03843955,0.03554615,0.1781158,27.15356,30.25205550098232
2,-0.01728821,-0.04191589,0.9989624,1.0,-0.01713562,-0.04188538,0.9989624,-25.97604,-0.2129211,-23.9729,3.333221,0.3105569,0.551572,1.0,-0.07142639,-0.05201721,0.9960785,30.25356,4.943863,-24.90948,3.449799,0.5927842,0.3926329,0.03330731,1.168109,-0.2418886,0.07460614,-0.03916441,0.03676019,0.1781158,27.15356,30.25205550098232
2,-0.01728821,-0.04191589,0.9989624,1.0,-0.01713562,-0.04188538,0.9989624,-25.97604,-0.2129211,-23.9729,3.333221,0.3105569,0.551572,1.0,-0.07142639,-0.05201721,0.9960785,30.25356,4.943863,-24.90948,3.449799,0.5927842,0.3926329,0.03330731,1.168109,-0.2418886,0.07460614,-0.03916441,0.03676019,0.1781158,27.15356,30.25205550098232
2,-0.03913879,-0.04518127,0.9981995,1.0,-0.01765442,-0.04275513,0.9989166,-25.99306,-0.171814,-24.05064,3.331635,0.3111037,0.5510982,1.0,-0.0737915,-0.04905701,0.9960632,30.24701,4.942459,-24.90338,3.456406,0.5933958,0.3921342,0.03268278,1.167455,-0.2418333,0.0776984,-0.04028191,0.0383963,0.1781158,27.15356,30.25205550098232
2,-0.03913879,-0.04518127,0.9981995,1.0,-0.01765442,-0.04275513,0.9989166,-25.99306,-0.171814,-24.05064,3.331635,0.3111037,0.5510982,1.0,-0.0737915,-0.04905701,0.9960632,30.24701,4.942459,-24.90338,3.456406,0.5933958,0.3921342,0.03268278,1.167455,-0.2418333,0.0776984,-0.04028191,0.0383963,0.1781158,27.15356,30.25205550098232
2,-0.0501709,-0.04177856,0.9978638,1.0,-0.0181427,-0.04244995,0.9989319,-26.00499,-0.1440887,-24.06241,3.333862,0.3115663,0.5502599,1.0,-0.07365417,-0.04125977,0.9964142,30.23792,4.942459,-24.90338,3.451645,0.5936874,0.390807,0.03215039,1.166528,-0.2417629,0.08188189,-0.0416682,0.03983665,0.1781158,27.15356,30.25205550098232
2,-0.0501709,-0.04177856,0.9978638,1.0,-0.0181427,-0.04244995,0.9989319,-26.00499,-0.1440887,-24.06241,3.333862,0.3115663,0.5502599,1.0,-0.07365417,-0.04125977,0.9964142,30.23792,4.942459,-24.90338,3.451645,0.5936874,0.390807,0.03215039,1.166528,-0.2417629,0.08188189,-0.0416682,0.03983665,0.1781158,27.15356,30.25205550098232
2,-0.03419495,-0.0796051,0.9962311,1.0,-0.01306152,-0.07427979,0.9971466,-25.81868,-0.6350708,-23.63353,3.423508,0.3048904,0.567631,1.0,-0.05702209,-0.08531189,0.9947052,30.19275,4.730377,-25.33299,3.411957,0.5926871,0.4088072,0.03163922,1.16526,-0.2416481,0.08736484,-0.04317011,0.04088172,0.1781158,27.15356,30.25205550098232
2,-0.03419495,-0.0796051,0.9962311,1.0,-0.01306152,-0.07427979,0.9971466,-25.81868,-0.6350708,-23.63353,3.423508,0.3048904,0.567631,1.0,-0.05702209,-0.08531189,0.9947052,30.19275,4.730377,-25.33299,3.411957,0.5926871,0.4088072,0.03163922,1.16526,-0.2416481,0.08736484,-0.04317011,0.04088172,0.1781158,27.15356,30.25205550098232
2,-0.04586792,-0.2116852,0.9762573,0.8671336,-0.005905151,-0.1980133,0.9801788,-25.58542,-1.217102,-23.86044,3.412476,0.2951222,0.6098758,0.97518,-0.04655457,-0.2119141,0.9761658,30.20335,4.059433,-25.29442,3.269241,0.5903853,0.4526511,0.03100073,1.16363,-0.241456,0.09504348,-0.04496597,0.04209886,0.1781158,-21.66382,30.25205550098232
2,-0.04586792,-0.2116852,0.9762573,0.8671336,-0.005905151,-0.1980133,0.9801788,-25.58542,-1.217102,-23.86044,3.412476,0.2951222,0.6098758,0.97518,-0.04655457,-0.2119141,0.9761658,30.20335,4.059433,-25.29442,3.269241,0.5903853,0.4526511,0.03100073,1.16363,-0.241456,0.09504348,-0.04496597,0.04209886,0.1781158,-21.66382,30.25205550098232
2,-0.05093384,-0.3131256,0.9483337,0.6105938,-0.00592041,-0.3119202,0.9500885,-25.65538,-1.590317,-23.94995,3.316055,0.2965962,0.6432693,0.7457318,-0.0549469,-0.3132172,0.9480896,30.15149,3.623383,-25.45839,3.155991,0.5936467,0.486747,0.03050888,1.161819,-0.2412668,0.1040095,-0.04707769,0.04360935,0.1781158,-21.66382,30.25205550098232
2,-0.05093384,-0.3131256,0.9483337,0.6105938,-0.00592041,-0.3119202,0.9500885,-25.65538,-1.590317,-23.94995,3.316055,0.2965962,0.6432693,0.7457318,-0.0549469,-0.3132172,0.9480896,30.15149,3.623383,-25.45839,3.155991,0.5936467,0.486747,0.03050888,1.161819,-0.2412668,0.1040095,-0.04707769,0.04360935,0.1781158,-21.66382,30.25205550098232
2,-0.05706787,-0.3443604,0.937088,0.5491511,0.006835938,-0.3651733,0.9309082,-25.69821,-1.696945,-23.98767,3.36351,0.2954782,0.6569386,0.7168868,-0.05845642,-0.3439026,0.9371796,30.14708,3.522583,-25.4971,3.344498,0.5944171,0.496016,0.02994561,1.159863,-0.2408606,0.1129468,-0.04909989,0.04508313,0.1781158,-21.66382,30.25205550098232
2,-0.05706787,-0.3443604,0.937088,0.5491511,0.006835938,-0.3651733,0.9309082,-25.69821,-1.696945,-23.98767,3.36351,0.2954782,0.6569386,0.7168868,-0.05845642,-0.3439026,0.9371796,30.14708,3.522583,-25.4971,3.344498,0.5944171,0.496016,0.02994561,1.159863,-0.2408606,0.1129468,-0.04909989,0.04508313,0.1781158,-21.66382,30.25205550098232
2,-0.0276947,-0.3184204,0.9475403,0.5132905,-0.005935669,-0.3168182,0.9484558,-25.83449,-1.623566,-23.9743,3.437515,0.3024325,0.6455043,0.6823063,-0.0559082,-0.3202667,0.9456635,30.19977,3.625,-25.45454,3.207504,0.5921848,0.4879307,0.02935076,1.157952,-0.2401738,0.1211391,-0.05105284,0.04661616,0.1781158,-21.66382,30.25205550098232
2,-0.0276947,-0.3184204,0.9475403,0.5132905,-0.005935669,-0.3168182,0.9484558,-25.83449,-1.623566,-23.9743,3.437515,0.3024325,0.6455043,0.6823063,-0.0559082,-0.3202667,0.9456635,30.19977,3.625,-25.45454,3.207504,0.5921848,0.4879307,0.02935076,1.157952,-0.2401738,0.1211391,-0.05105284,0.04661616,0.1781158,-21.66382,30.25205550098232
2,-0.03765869,-0.3059235,0.9512939,0.5308752,0.004135132,-0.3132172,0.9496613,-25.9335,-1.477264,-23.92473,3.349945,0.3042498,0.6395318,0.6762581,-0.06829834,-0.3002167,0.951416,30.19328,3.747177,-25.40421,3.289932,0.594425,0.4798069,0.02916348,1.155922,-0.2394134,0.1297897,-0.05238367,0.04750559,0.1781158,-21.66382,30.25205550098232
2,-0.03765869,-0.3059235,0.9512939,0.5308752,0.004135132,-0.3132172,0.9496613,-25.9335,-1.477264,-23.92473,3.349945,0.3042498,0.6395318,0.6762581,-0.06829834,-0.3002167,0.951416,30.19328,3.747177,-25.40421,3.289932,0.594425,0.4798069,0.02916348,1.155922,-0.2394134,0.1297897,-0.05238367,0.04750559,0.1781158,-21.66382,30.25205550098232
2,-0.03436279,-0.2854614,0.9577637,0.5304169,-0.004089355,-0.2870483,0.957901,-26.02687,-1.395599,-23.89015,3.309952,0.3089254,0.6317988,0.6702853,-0.06582642,-0.2835236,0.9566956,30.15839,3.837769,-25.36105,3.310638,0.5951483,0.4734019,0.02916968,1.154091,-0.2384891,0.1385168,-0.05205537,0.04710507,0.1781158,-21.66382,30.25205550098232
2,-0.03436279,-0.2854614,0.9577637,0.5304169,-0.004089355,-0.2870483,0.957901,-26.02687,-1.395599,-23.89015,3.309952,0.3089254,0.6317988,0.6702853,-0.06582642,-0.2835236,0.9566956,30.15839,3.837769,-25.36105,3.310638,0.5951483,0.4734019,0.02916968,1.154091,-0.2384891,0.1385168,-0.05205537,0.04710507,0.1781158,-21.66382,30.25205550098232
2,-0.03771973,-0.2709808,0.9618378,0.5334588,-0.01194763,-0.2696991,0.9628601,-26.01782,-1.35054,-23.86313,3.376877,0.3100382,0.6269587,0.6717803,-0.06625366,-0.2721863,0.9599457,30.17397,3.87645,-25.33978,3.227112,0.5946851,0.4699025,0.02923095,1.152547,-0.2374905,0.1456129,-0.05166243,0.04619067,0.1781158,-21.66382,30.25205550098232
2,-0.03771973,-0.2709808,0.9618378,0.5334588,-0.01194763,-0.2696991,0.9628601,-26.01782,-1.35054,-23.86313,3.376877,0.3100382,0.6269587,0.6717803,-0.06625366,-0.2721863,0.9599457,30.17397,3.87645,-25.33978,3.227112,0.5946851,0.4699025,0.02923095,1.152547,-0.2374905,0.1456129,-0.05166243,0.04619067,0.1781158,-21.66382,30.25205550098232
2,-0.04219055,-0.250412,0.9672089,0.5544304,-0.01818848,-0.2565918,0.9663391,-25.99805,-1.322449,-23.86133,3.449753,0.3104611,0.6237026,0.6910996,-0.06039429,-0.2456055,0.9674835,30.24126,3.86142,-25.33797,3.324356,0.5914351,0.4655994,0.02919924,1.151821,-0.2370931,0.1487183,-0.05126604,0.04591402,0.1781158,-21.66382,30.25205550098232
2,-0.04219055,-0.250412,0.9672089,0.5544304,-0.01818848,-0.2565918,0.9663391,-25.99805,-1.322449,-23.86133,3.449753,0.3104611,0.6237026,0.6910996,-0.06039429,-0.2456055,0.9674835,30.24126,3.86142,-25.33797,3.324356,0.5914351,0.4655994,0.02919924,1.151821,-0.2370931,0.1487183,-0.05126604,0.04591402,0.1781158,-21.66382,30.25205550098232
2,-0.04167175,-0.2365417,0.9707184,0.5544304,-0.01272583,-0.2368774,0.9714508,-25.99805,-1.352768,-23.88072,3.460358,0.3095994,0.6213891,0.6910996,-0.07054138,-0.2360229,0.9691772,30.27039,3.819183,-25.33545,3.217316,0.5921564,0.465314,0.02945673,1.150208,-0.2359269,0.1544885,-0.0503837,0.04683859,0.1781158,1.930664,30.25205550098232
2,-0.04095459,-0.2295685,0.9724274,0.5717298,-0.01333618,-0.2366028,0.9715118,-26.0009,-1.348801,-23.88252,3.455582,0.3097962,0.6212299,0.7166287,-0.06674194,-0.2228241,0.9725647,30.24556,3.786209,-25.355,3.237976,0.5923642,0.4642245,0.02971494,1.149386,-0.2353749,0.157442,-0.05004034,0.0477245,0.1781158,16.49545,30.25205550098232
2,-0.04095459,-0.2295685,0.9724274,0.5717298,-0.01333618,-0.2366028,0.9715118,-26.0009,-1.348801,-23.88252,3.455582,0.3097962,0.6212299,0.7166287,-0.06674194,-0.2228241,0.9725647,30.24556,3.786209,-25.355,3.237976,0.5923642,0.4642245,0.02971494,1.149386,-0.2353749,0.157442,-0.05004034,0.0477245,0.1781158,16.49545,30.25205550098232
2,-0.03903198,-0.21698,0.9753876,0.5987023,-0.01171875,-0.2291718,0.9733124,-26.01904,-1.335297,-23.87912,3.458023,0.3101645,0.6194546,0.7551284,-0.06542969,-0.2050018,0.9765625,30.19193,3.799744,-25.34885,3.231094,0.5939407,0.4605668,0.02983415,1.148485,-0.2346373,0.1606009,-0.04956776,0.0485987,0.1781158,16.49545,30.25205550098232
2,-0.03846741,-0.2152557,0.9757843,0.5987023,-0.01190186,-0.2267914,0.9738617,-26.02216,-1.334427,-23.87511,3.460342,0.3103128,0.6189602,0.7551284,-0.06428528,-0.2038574,0.9768829,30.19125,3.802521,-25.34892,3.246979,0.5937705,0.4602778,0.03002751,1.146652,-0.2333928,0.1677226,-0.04899964,0.05096111,0.1781158,16.49545,30.25205550098232
2,-0.03726196,-0.2102051,0.976944,0.6207641,-0.01092529,-0.2223053,0.9748993,-26.03181,-1.334427,-23.87511,3.470581,0.3104875,0.6181734,0.766464,-0.06422424,-0.1976013,0.9781647,30.19098,3.807724,-25.34892,3.255447,0.5937705,0.4589997,0.03003252,1.145671,-0.2327691,0.171985,-0.04900238,0.05196584,0.1781158,16.49545,30.25205550098232
2,-0.03726196,-0.2102051,0.976944,0.6207641,-0.01092529,-0.2223053,0.9748993,-26.03181,-1.334427,-23.87511,3.470581,0.3104875,0.6181734,0.766464,-0.06422424,-0.1976013,0.9781647,30.19098,3.807724,-25.34892,3.255447,0.5937705,0.4589997,0.03003252,1.145671,-0.2327691,0.171985,-0.04900238,0.05196584,0.1781158,16.49545,30.25205550098232
2,-0.03482056,-0.2046051,0.9782104,0.6296632,-0.00843811,-0.2195129,0.9755707,-26.04971,-1.338654,-23.87526,3.48053,0.3106715,0.6178333,0.78203,-0.06236267,-0.1888275,0.980011,30.19156,3.812775,-25.34929,3.31871,0.5934367,0.4573002,0.03009319,1.143532,-0.2316538,0.1812605,-0.04965757,0.05357816,0.1781158,16.49545,30.25205550098232
2,-0.03482056,-0.2046051,0.9782104,0.6296632,-0.00843811,-0.2195129,0.9755707,-26.04971,-1.338654,-23.87526,3.48053,0.3106715,0.6178333,0.78203,-0.06236267,-0.1888275,0.980011,30.19156,3.812775,-25.34929,3.31871,0.5934367,0.4573002,0.03009319,1.143532,-0.2316538,0.1812605,-0.04965757,0.05357816,0.1781158,16.49545,30.25205550098232
2,-0.03334045,-0.197876,0.9796448,0.6453608,-0.007049561,-0.2143555,0.9767151,-26.06105,-1.344818,-23.87912,3.484802,0.3108292,0.6171608,0.7754746,-0.06112671,-0.1802216,0.98172,30.19193,3.809769,-25.34964,3.381546,0.5932141,0.4559029,0.03007317,1.14236,-0.2310731,0.1861718,-0.05032229,0.05422039,0.1781158,16.49545,30.25205550098232
2,-0.03613281,-0.1856995,0.9819336,0.6460462,-0.01184082,-0.1967163,0.9803772,-26.06105,-1.355637,-23.88258,3.487946,0.3116675,0.6144767,0.7767423,-0.06105042,-0.1742249,0.9828033,30.19449,3.807358,-25.3503,3.410019,0.5931158,0.4549458,0.03002584,1.141213,-0.2303485,0.1912029,-0.05110199,0.05493666,0.1781158,16.49545,30.25205550098232
2,-0.03739929,-0.1739502,0.9840393,0.6312346,-0.01156616,-0.1837158,0.9828949,-26.06105,-1.355637,-23.88258,3.500259,0.3116675,0.6122241,0.7759045,-0.06188965,-0.1645508,0.9844208,30.20084,3.803055,-25.3521,3.43399,0.5930438,0.4534255,0.02973998,1.138891,-0.2290277,0.2007766,-0.05389028,0.05647952,0.1781158,16.49545,30.25205550098232
2,-0.04064941,-0.1483002,0.9880981,0.6291438,-0.01304626,-0.1740112,0.9846497,-26.06105,-1.360336,-23.89069,3.526016,0.311923,0.6107967,0.7907068,-0.06411743,-0.126236,0.9899139,30.25125,3.783112,-25.36784,3.47879,0.5917516,0.447584,0.02955377,1.137784,-0.2281995,0.2054343,-0.05570514,0.05724317,0.1781158,16.49545,30.25205550098232
2,-0.04064941,-0.1483002,0.9880981,0.6291438,-0.01304626,-0.1740112,0.9846497,-26.06105,-1.360336,-23.89069,3.526016,0.311923,0.6107967,0.7907068,-0.06411743,-0.126236,0.9899139,30.25125,3.783112,-25.36784,3.47879,0.5917516,0.447584,0.02955377,1.137784,-0.2281995,0.2054343,-0.05570514,0.05724317,0.1781158,16.49545,30.25205550098232
2,-0.04400635,-0.1351166,0.9898376,0.6318163,-0.01463318,-0.1585541,0.9872284,-26.05177,-1.363632,-23.89243,3.5327,0.311923,0.6082498,0.7759596,-0.06866455,-0.1152802,0.9909515,30.26973,3.789551,-25.4015,3.510513,0.5919281,0.4458037,0.02919042,1.136576,-0.2275227,0.2102122,-0.05827845,0.05795101,0.1781158,16.49545,30.25205550098232
2,-0.03987122,-0.1316833,0.9904785,0.6420677,-0.01596069,-0.149353,0.9886475,-26.04034,-1.364624,-23.894,3.535751,0.3117925,0.6067141,0.7729933,-0.0680542,-0.1106567,0.9915161,30.26695,3.790726,-25.41545,3.512543,0.5919362,0.4450801,0.02839816,1.134197,-0.2262584,0.2198222,-0.06405191,0.05940749,0.1781158,16.49545,30.25205550098232
2,-0.06237793,-0.09588623,0.9934235,0.6281009,-0.04031372,-0.04510498,0.9981537,-25.97743,-1.249512,-25.01749,3.703659,0.3124726,0.596159,0.7754189,-0.06237793,-0.09591675,0.9934235,30.24071,3.829544,-25.56564,3.454407,0.5920159,0.4425054,0.02740705,1.132067,-0.2249657,0.2275284,-0.07099614,0.06040261,0.1781158,21.41119,30.25205550098232
2,-0.06237793,-0.09588623,0.9934235,0.6281009,-0.04031372,-0.04510498,0.9981537,-25.97743,-1.249512,-25.01749,3.703659,0.3124726,0.596159,0.7754189,-0.06237793,-0.09591675,0.9934235,30.24071,3.829544,-25.56564,3.454407,0.5920159,0.4425054,0.02740705,1.132067,-0.2249657,0.2275284,-0.07099614,0.06040261,0.1781158,21.41119,30.25205550098232
2,-0.06237793,-0.09588623,0.9934235,0.6281009,-0.04031372,-0.04510498,0.9981537,-25.97743,-1.249512,-25.01749,3.703659,0.3124726,0.596159,0.7754189,-0.06237793,-0.09591675,0.9934235,30.24071,3.829544,-25.56564,3.454407,0.5920159,0.4425054,0.02740705,1.132067,-0.2249657,0.2275284,-0.07099614,0.06040261,0.1781158,21.41119,30.25205550098232
2,-0.07946777,-0.04966736,0.9955902,0.6193049,-0.03294373,-0.07211304,0.9968414,-26.0985,-0.9963531,-24.38913,3.63649,0.315886,0.5863798,0.7656029,-0.07946777,-0.04966736,0.9955902,30.17033,4.337067,-26.53026,3.519943,0.5982731,0.4259273,0.02693141,1.131428,-0.2240674,0.2297507,-0.07473306,0.06032534,0.1781158,21.41119,30.25205550098232
2,-0.09695435,0.03401184,0.9947052,0.5997006,-0.03820801,0.01020813,0.9992065,-26.12325,0.0050354,-25.25633,3.566544,0.3173389,0.5477872,0.7430903,-0.09713745,0.03408813,0.9946747,30.08655,5.33963,-27.5307,3.521896,0.6055063,0.386147,0.02565372,1.130835,-0.2221055,0.2311812,-0.08178466,0.05888334,0.1781158,21.41119,30.25205550098232
2,-0.05438232,0.08917236,0.9945221,0.5710877,-0.05290222,0.08862305,0.9946442,-26.2924,1.118027,-25.89087,3.621689,0.325069,0.5040504,0.7745577,-0.1188202,0.1131134,0.9864349,29.74916,6.302322,-27.1972,3.645889,0.6212931,0.3365743,0.02495193,1.131005,-0.2210356,0.2303264,-0.08489023,0.05743872,0.1781158,21.41119,30.25205550098232
2,-0.05438232,0.08917236,0.9945221,0.5710877,-0.05290222,0.08862305,0.9946442,-26.2924,1.118027,-25.89087,3.621689,0.325069,0.5040504,0.7745577,-0.1188202,0.1131134,0.9864349,29.74916,6.302322,-27.1972,3.645889,0.6212931,0.3365743,0.02495193,1.131005,-0.2210356,0.2303264,-0.08489023,0.05743872,0.1781158,21.41119,30.25205550098232
2,-0.04837036,0.1437378,0.9884186,0.7578128,-0.04801941,0.1437683,0.9884338,-26.4926,1.416824,-25.58878,3.588135,0.3314024,0.4824603,0.9051363,-0.122345,0.1359253,0.9831238,29.5524,6.500717,-25.84149,3.540054,0.6273706,0.3150688,0.02420974,1.131587,-0.2198664,0.2273734,-0.08759461,0.05543767,0.1781158,21.41119,31.57
2,-0.09733582,0.2697449,0.9579926,0.9770769,-0.08239746,0.2676086,0.9599915,-26.67519,1.806137,-24.59074,3.80394,0.3445086,0.4415209,0.991381,-0.1491547,0.2767029,0.949295,29.20778,7.185654,-26.03412,3.728653,0.645463,0.2683734,0.02308118,1.133466,-0.2176939,0.2184395,-0.09142879,0.05197472,0.1781158,21.41119,31.57
2,-0.09733582,0.2697449,0.9579926,0.9770769,-0.08239746,0.2676086,0.9599915,-26.67519,1.806137,-24.59074,3.80394,0.3445086,0.4415209,0.991381,-0.1491547,0.2767029,0.949295,29.20778,7.185654,-26.03412,3.728653,0.645463,0.2683734,0.02308118,1.133466,-0.2176939,0.2184395,-0.09142879,0.05197472,0.1781158,21.41119,31.57
2,-0.1142426,0.3312836,0.9365845,1.0,-0.1139374,0.3311768,0.9366608,-26.7644,2.174637,-24.73447,3.736923,0.3528152,0.4205137,1.0,-0.1535645,0.3449402,0.9259644,28.98041,7.636124,-26.2135,3.517517,0.6557702,0.2404388,0.02277935,1.134753,-0.2168961,0.2128192,-0.09262226,0.05085705,0.1781158,21.41119,31.57
2,-0.1222076,0.412796,0.9025726,1.0,-0.1221771,0.4128113,0.9025726,-26.92311,2.177048,-24.8811,3.833542,0.3594375,0.4086013,1.0,-0.1843414,0.3694916,0.9107513,28.85463,7.70462,-26.29823,3.759888,0.666484,0.2337195,0.02250397,1.136022,-0.2162667,0.2076751,-0.09392872,0.05029963,0.1781158,21.41119,31.57
2,-0.2002716,0.3855743,0.9006653,1.0,-0.1204376,0.4132996,0.9025879,-26.99651,1.924545,-24.86304,4.01828,0.3614626,0.4169136,1.0,-0.2046967,0.3839417,0.9003754,28.84148,7.385452,-26.30341,3.814545,0.6703987,0.242992,0.02228522,1.138749,-0.2157822,0.1950907,-0.09469698,0.04877683,0.1781158,21.41119,31.57
2,-0.1399078,0.408432,0.9019928,1.0,-0.1182251,0.4030609,0.907486,-27.03174,1.781845,-24.83463,3.950378,0.3622637,0.4229124,1.0,-0.1881409,0.4196472,0.88797,28.75587,7.048615,-26.36447,3.791031,0.6704288,0.2492567,0.02240217,1.140336,-0.2156926,0.1882941,-0.09454384,0.04779501,0.1781158,21.41119,31.57
2,-0.1399078,0.408432,0.9019928,1.0,-0.1182251,0.4030609,0.907486,-27.03174,1.781845,-24.83463,3.950378,0.3622637,0.4229124,1.0,-0.1881409,0.4196472,0.88797,28.75587,7.048615,-26.36447,3.791031,0.6704288,0.2492567,0.02240217,1.140336,-0.2156926,0.1882941,-0.09454384,0.04779501,0.1781158,21.41119,31.57
2,-0.153656,0.4064789,0.9006348,1.0,-0.1178741,0.390686,0.9129333,-27.07239,1.604675,-24.80763,3.750427,0.3636083,0.4302062,1.0,-0.1987,0.4255066,0.8828583,28.7339,6.931992,-26.37013,4.004532,0.673123,0.2525728,0.02253878,1.142062,-0.2157018,0.1814521,-0.09382523,0.04683445,0.1781158,-21.84637,31.57
2,-0.1620636,0.4062042,0.899292,1.0,-0.1235809,0.3870239,0.9137421,-27.08167,1.422531,-24.79039,3.864807,0.364818,0.4367946,1.0,-0.2022247,0.4254913,0.8820648,28.75041,6.828339,-26.36156,4.00679,0.6729892,0.2564205,0.02304041,1.14544,-0.2159101,0.1681343,-0.09110911,0.04496299,0.1781158,-21.84637,31.57
2,-0.1620636,0.4062042,0.899292,1.0,-0.1235809,0.3870239,0.9137421,-27.08167,1.422531,-24.79039,3.864807,0.364818,0.4367946,1.0,-0.2022247,0.4254913,0.8820648,28.75041,6.828339,-26.36156,4.00679,0.6729892,0.2564205,0.02304041,1.14544,-0.2159101,0.1681343,-0.09110911,0.04496299,0.1781158,-21.84637,31.57
3,-0.1686249,0.3960571,0.9026031,1.0,-0.1152496,0.3572693,0.9268494,-27.07318,1.218674,-24.72685,3.966431,0.3630222,0.4478219,1.0,-0.202301,0.4198303,0.8847656,28.77711,6.674973,-26.33768,4.1996,0.6717368,0.2630444,0.02340877,1.146939,-0.2161705,0.162194,-0.08943556,0.04412483,0.1781158,-21.84637,31.57
3,-0.170929,0.3748169,0.9111938,1.0,-0.1196136,0.337616,0.9336395,-27.01659,0.9928741,-24.67912,4.047256,0.3618186,0.4580516,1.0,-0.2027893,0.3973541,0.8949738,28.84418,6.458939,-26.27592,4.174454,0.6687453,0.2745704,0.02422273,1.148803,-0.2164148,0.1567917,-0.0871199,0.04329936,0.1781158,-21.84637,31.57
3,-0.170929,0.3748169,0.9111938,1.0,-0.1196136,0.337616,0.9336395,-27.01659,0.9928741,-24.67912,4.047256,0.3618186,0.4580516,1.0,-0.2027893,0.3973541,0.8949738,28.84418,6.458939,-26.27592,4.174454,0.6687453,0.2745704,0.02422273,1.148803,-0.2164148,0.1567917,-0.0871199,0.04329936,0.1781158,-21.84637,31.57
3,-0.1623535,0.3522644,0.9216919,1.0,-0.1220245,0.3391876,0.9327545,-26.93149,0.7619171,-24.66783,4.046722,0.3594031,0.4652142,1.0,-0.1947327,0.3623505,0.9114532,28.96684,6.242844,-26.20903,4.11377,0.6621881,0.2881088,0.02513552,1.151406,-0.2175747,0.1469443,-0.08241203,0.0424359,0.1781158,-21.84637,31.57
3,-0.1502838,0.3392639,0.9285889,1.0,-0.1142883,0.3261719,0.9383698,-26.86005,0.5410614,-24.62167,3.931198,0.3557675,0.4738738,1.0,-0.1991425,0.3563385,0.9128723,29.06598,6.043488,-26.18237,4.054825,0.6592093,0.2961136,0.02513552,1.151406,-0.2175747,0.1469443,-0.08241203,0.0424359,0.1781158,-21.84637,31.57
3,-0.1382751,0.3238373,0.9359436,1.0,-0.1098785,0.3119965,0.9436951,-26.8241,0.442688,-24.57658,4.095184,0.353756,0.4791628,1.0,-0.1836243,0.3421783,0.9215088,29.11595,5.942505,-26.14041,4.092239,0.6543794,0.3018542,0.02631128,1.153577,-0.2191741,0.1386981,-0.07675689,0.04219609,0.1781158,-21.84637,31.57
3,-0.1365967,0.3072357,0.9417725,1.0,-0.1072235,0.2956238,0.9492645,-26.72458,0.2179565,-24.43021,4.065063,0.350108,0.4877517,1.0,-0.1865845,0.3263702,0.9266357,29.2534,5.753494,-26.10783,4.065659,0.6497923,0.3110612,0.02758014,1.155326,-0.22093,0.1322466,-0.07060594,0.04257175,0.1781158,-21.84637,31.57
3,-0.1365967,0.3072357,0.9417725,1.0,-0.1072235,0.2956238,0.9492645,-26.72458,0.2179565,-24.43021,4.065063,0.350108,0.4877517,1.0,-0.1865845,0.3263702,0.9266357,29.2534,5.753494,-26.10783,4.065659,0.6497923,0.3110612,0.02758014,1.155326,-0.22093,0.1322466,-0.07060594,0.04257175,0.1781158,-21.84637,31.57
3,-0.1776886,0.3051758,0.9355621,1.0,-0.09716797,0.2983704,0.9494781,-26.59947,-0.1634674,-23.76743,4.109833,0.3448916,0.4939062,1.0,-0.1791992,0.3052979,0.9352264,29.33867,5.579147,-26.07648,4.112671,0.6451813,0.3205769,0.02900207,1.156579,-0.2228014,0.1276537,-0.06428668,0.04309065,0.1781158,-21.84637,31.57
3,-0.189209,0.3313293,0.9243317,1.0,-0.1172485,0.310318,0.9433594,-26.70853,0.08621216,-24.42125,4.151886,0.351285,0.4897766,1.0,-0.18927,0.3313446,0.9243164,29.26329,5.649658,-26.11774,4.189621,0.6498833,0.3140443,0.03015757,1.157459,-0.2248097,0.1243012,-0.05782308,0.0432806,0.1781158,-21.84637,31.57
3,-0.189209,0.3313293,0.9243317,1.0,-0.1172485,0.310318,0.9433594,-26.70853,0.08621216,-24.42125,4.151886,0.351285,0.4897766,1.0,-0.18927,0.3313446,0.9243164,29.26329,5.649658,-26.11774,4.189621,0.6498833,0.3140443,0.03015757,1.157459,-0.2248097,0.1243012,-0.05782308,0.0432806,0.1781158,-21.84637,31.57
3,-0.189209,0.3313293,0.9243317,1.0,-0.1172485,0.310318,0.9433594,-26.70853,0.08621216,-24.42125,4.151886,0.351285,0.4897766,1.0,-0.18927,0.3313446,0.9243164,29.26329,5.649658,-26.11774,4.189621,0.6498833,0.3140443,0.03015757,1.157459,-0.2248097,0.1243012,-0.05782308,0.0432806,0.1781158,-21.84637,31.57
3,-0.2227936,0.3685608,0.9024963,1.0,-0.1336517,0.333786,0.9331207,-26.84534,0.2787933,-24.53532,4.09874,0.3585302,0.4807715,1.0,-0.2229462,0.3686218,0.9024353,29.04814,5.854507,-26.23598,4.210617,0.6641434,0.3012505,0.03127372,1.158178,-0.2267041,0.1214127,-0.05130628,0.04225167,0.1781158,-21.84637,31.57
3,-0.2051086,0.3526154,0.9129944,1.0,-0.1234894,0.3111267,0.9423065,-26.79401,0.3037109,-24.48573,4.107742,0.3551084,0.4831189,1.0,-0.2053223,0.3527222,0.9129181,29.11333,5.892426,-26.19078,4.202545,0.6584969,0.3023136,0.03227663,1.158686,-0.2286004,0.1192181,-0.04469575,0.04055675,0.1781158,154.6479,31.57
3,-0.2051086,0.3526154,0.9129944,1.0,-0.1234894,0.3111267,0.9423065,-26.79401,0.3037109,-24.48573,4.107742,0.3551084,0.4831189,1.0,-0.2053223,0.3527222,0.9129181,29.11333,5.892426,-26.19078,4.202545,0.6584969,0.3023136,0.03227663,1.158686,-0.2286004,0.1192181,-0.04469575,0.04055675,0.1781158,154.6479,31.57
3,-0.1739502,0.3277435,0.9286041,1.0,-0.1093292,0.3047943,0.946106,-26.75371,0.4342041,-24.46353,4.160629,0.3514139,0.4796925,1.0,-0.1761932,0.3285065,0.9279175,29.177,5.992966,-26.13126,4.045715,0.6508316,0.3023937,0.03336418,1.159063,-0.2304661,0.1176933,-0.03839281,0.03910387,0.1781158,154.6479,31.57
3,-0.1739502,0.3277435,0.9286041,1.0,-0.1093292,0.3047943,0.946106,-26.75371,0.4342041,-24.46353,4.160629,0.3514139,0.4796925,1.0,-0.1761932,0.3285065,0.9279175,29.177,5.992966,-26.13126,4.045715,0.6508316,0.3023937,0.03336418,1.159063,-0.2304661,0.1176933,-0.03839281,0.03910387,0.1781158,154.6479,31.57
3,-0.132843,0.3135834,0.9402161,1.0,-0.1040497,0.3076782,0.9457703,-26.69858,0.4876709,-24.45828,4.203674,0.3487192,0.4774574,1.0,-0.1691895,0.3206635,0.9319458,29.23453,6.013565,-26.10925,4.085266,0.6475128,0.3029258,0.03462362,1.159461,-0.232276,0.1160749,-0.03295356,0.03803034,0.1781158,154.6479,31.57
3,-0.132843,0.3135834,0.9402161,1.0,-0.1040497,0.3076782,0.9457703,-26.69858,0.4876709,-24.45828,4.203674,0.3487192,0.4774574,1.0,-0.1691895,0.3206635,0.9319458,29.23453,6.013565,-26.10925,4.085266,0.6475128,0.3029258,0.03462362,1.159461,-0.232276,0.1160749,-0.03295356,0.03803034,0.1781158,154.6479,31.57
3,-0.1208954,0.3075714,0.9438019,1.0,-0.08895874,0.2986908,0.9501801,-26.60619,0.5687256,-24.42737,4.256622,0.3431557,0.4759736,1.0,-0.1592407,0.3178101,0.9346771,29.34662,6.007462,-26.08296,4.211517,0.6418173,0.303595,0.0359236,1.160192,-0.2338452,0.1134466,-0.02812814,0.03771242,0.1781158,154.6479,31.57
3,-0.1208954,0.3075714,0.9438019,1.0,-0.08895874,0.2986908,0.9501801,-26.60619,0.5687256,-24.42737,4.256622,0.3431557,0.4759736,1.0,-0.1592407,0.3178101,0.9346771,29.34662,6.007462,-26.08296,4.211517,0.6418173,0.303595,0.0359236,1.160192,-0.2338452,0.1134466,-0.02812814,0.03771242,0.1781158,154.6479,31.57
3,-0.1088867,0.3043976,0.9462891,1.0,-0.07278442,0.290451,0.9541016,-26.47255,0.5632629,-24.4043,4.077164,0.3361318,0.4769346,1.0,-0.1455994,0.3181458,0.9367828,29.50874,6.004776,-26.06059,4.045197,0.6338071,0.3033971,0.03730178,1.160997,-0.2353264,0.1097287,-0.02331351,0.03780733,0.1781158,154.6479,31.57
3,-0.1088867,0.3043976,0.9462891,1.0,-0.07278442,0.290451,0.9541016,-26.47255,0.5632629,-24.4043,4.077164,0.3361318,0.4769346,1.0,-0.1455994,0.3181458,0.9367828,29.50874,6.004776,-26.06059,4.045197,0.6338071,0.3033971,0.03730178,1.160997,-0.2353264,0.1097287,-0.02331351,0.03780733,0.1781158,154.6479,31.57
3,-0.0927887,0.2940521,0.9512634,1.0,-0.06787109,0.287262,0.9554291,-26.33144,0.5310364,-24.38454,4.13562,0.3306524,0.4783375,1.0,-0.1214142,0.3016205,0.9456482,29.61682,5.976852,-26.01912,4.061356,0.6256528,0.3069243,0.0385735,1.161878,-0.2367336,0.1057378,-0.01825431,0.03756514,0.1781158,154.6479,31.57
3,-0.0927887,0.2940521,0.9512634,1.0,-0.06787109,0.287262,0.9554291,-26.33144,0.5310364,-24.38454,4.13562,0.3306524,0.4783375,1.0,-0.1214142,0.3016205,0.9456482,29.61682,5.976852,-26.01912,4.061356,0.6256528,0.3069243,0.0385735,1.161878,-0.2367336,0.1057378,-0.01825431,0.03756514,0.1781158,154.6479,31.57
3,-0.08781433,0.2968445,0.9508667,1.0,-0.0619812,0.2865753,0.9560394,-26.24619,0.4991608,-24.3613,4.104858,0.3268867,0.4791927,1.0,-0.1191864,0.309021,0.9435425,29.71269,5.946869,-26.02119,4.01973,0.6220164,0.3067183,0.03978884,1.162858,-0.2380906,0.1017833,-0.01314227,0.03705614,0.1781158,154.6479,31.57
3,-0.08781433,0.2968445,0.9508667,1.0,-0.0619812,0.2865753,0.9560394,-26.24619,0.4991608,-24.3613,4.104858,0.3268867,0.4791927,1.0,-0.1191864,0.309021,0.9435425,29.71269,5.946869,-26.02119,4.01973,0.6220164,0.3067183,0.03978884,1.162858,-0.2380906,0.1017833,-0.01314227,0.03705614,0.1781158,154.6479,31.57
3,-0.08404541,0.2887878,0.9536896,1.0,-0.0512085,0.2772064,0.9594421,-26.17487,0.5001373,-24.34633,4.061234,0.3227542,0.4804189,1.0,-0.1193237,0.3008728,0.946167,29.8129,5.92186,-26.00578,4.074249,0.6185305,0.308959,0.04117882,1.163756,-0.2393994,0.09795319,-0.008474881,0.03620203,0.1781158,154.6479,31.57
3,-0.08404541,0.2887878,0.9536896,1.0,-0.0512085,0.2772064,0.9594421,-26.17487,0.5001373,-24.34633,4.061234,0.3227542,0.4804189,1.0,-0.1193237,0.3008728,0.946167,29.8129,5.92186,-26.00578,4.074249,0.6185305,0.308959,0.04117882,1.163756,-0.2393994,0.09795319,-0.008474881,0.03620203,0.1781158,154.6479,31.57
3,-0.0827179,0.2849884,0.9549408,1.0,-0.05447388,0.2724762,0.9606018,-26.11877,0.4943542,-24.32919,4.011566,0.3214898,0.4811487,1.0,-0.1082611,0.2960815,0.9489899,29.87558,5.892609,-25.98767,4.081665,0.6143935,0.3106668,0.0427072,1.164877,-0.2405069,0.09402648,-0.003674296,0.03491595,0.1781158,-26.17798,31.57
3,-0.0827179,0.2849884,0.9549408,1.0,-0.05447388,0.2724762,0.9606018,-26.11877,0.4943542,-24.32919,4.011566,0.3214898,0.4811487,1.0,-0.1082611,0.2960815,0.9489899,29.87558,5.892609,-25.98767,4.081665,0.6143935,0.3106668,0.0427072,1.164877,-0.2405069,0.09402648,-0.003674296,0.03491595,0.1781158,-26.17798,31.57
3,-0.06604004,0.2775269,0.9584351,1.0,-0.04415894,0.2701874,0.961792,-26.05736,0.4937744,-24.30786,3.990219,0.3177642,0.48127,1.0,-0.09112549,0.2857819,0.9539337,29.92703,5.849396,-25.9655,3.938812,0.6095447,0.3136159,0.04420412,1.166114,-0.241477,0.08918053,0.0008457279,0.03388809,0.1781158,-26.17798,31.57
3,-0.06604004,0.2775269,0.9584351,1.0,-0.04415894,0.2701874,0.961792,-26.05736,0.4937744,-24.30786,3.990219,0.3177642,0.48127,1.0,-0.09112549,0.2857819,0.9539337,29.92703,5.849396,-25.9655,3.938812,0.6095447,0.3136159,0.04420412,1.166114,-0.241477,0.08918053,0.0008457279,0.03388809,0.1781158,-26.17798,31.57
3,-0.06863403,0.2582245,0.9636383,1.0,-0.02406311,0.248764,0.9682617,-26.00221,0.49823,-24.31358,3.878311,0.3125855,0.4844146,1.0,-0.1195984,0.2684021,0.9558411,30.16348,5.836914,-25.94836,4.001663,0.6063317,0.3170654,0.04578674,1.167372,-0.2422147,0.08361933,0.0055913,0.03277219,0.1781158,-26.17798,31.57
3,-0.06863403,0.2582245,0.9636383,1.0,-0.02406311,0.248764,0.9682617,-26.00221,0.49823,-24.31358,3.878311,0.3125855,0.4844146,1.0,-0.1195984,0.2684021,0.9558411,30.16348,5.836914,-25.94836,4.001663,0.6063317,0.3170654,0.04578674,1.167372,-0.2422147,0.08361933,0.0055913,0.03277219,0.1781158,-26.17798,31.57
3,-0.05250549,0.2558899,0.965271,1.0,-0.02159119,0.2467041,0.9688416,-25.9312,0.4573669,-24.30508,4.001129,0.309785,0.4861169,1.0,-0.08670044,0.2657471,0.9601288,30.10435,5.751068,-25.91737,3.996735,0.602549,0.3201414,0.04767036,1.168528,-0.2428595,0.07839405,0.011031,0.03090815,0.1781158,-26.17798,31.57
3,-0.05250549,0.2558899,0.965271,1.0,-0.02159119,0.2467041,0.9688416,-25.9312,0.4573669,-24.30508,4.001129,0.309785,0.4861169,1.0,-0.08670044,0.2657471,0.9601288,30.10435,5.751068,-25.91737,3.996735,0.602549,0.3201414,0.04767036,1.168528,-0.2428595,0.07839405,0.011031,0.03090815,0.1781158,-26.17798,31.57
3,-0.05682373,0.2468719,0.9673767,1.0,-0.0279541,0.2373352,0.9710083,-25.85333,0.5052185,-24.42648,3.929535,0.3081549,0.4870359,1.0,-0.08598328,0.2562866,0.9627533,30.1342,5.7117,-25.89481,3.949158,0.6013268,0.3228746,0.04953659,1.169825,-0.2433363,0.07299621,0.01715251,0.02840333,0.1781158,-26.17798,31.57
3,-0.05682373,0.2468719,0.9673767,1.0,-0.0279541,0.2373352,0.9710083,-25.85333,0.5052185,-24.42648,3.929535,0.3081549,0.4870359,1.0,-0.08598328,0.2562866,0.9627533,30.1342,5.7117,-25.89481,3.949158,0.6013268,0.3228746,0.04953659,1.169825,-0.2433363,0.07299621,0.01715251,0.02840333,0.1781158,-26.17798,31.57
3,-0.05682373,0.2468719,0.9673767,1.0,-0.0279541,0.2373352,0.9710083,-25.85333,0.5052185,-24.42648,3.929535,0.3081549,0.4870359,1.0,-0.08598328,0.2562866,0.9627533,30.1342,5.7117,-25.89481,3.949158,0.6013268,0.3228746,0.05144656,1.171007,-0.2436943,0.0672264,0.02398581,0.02541145,0.1781158,-26.17798,31.57
3,-0.05682373,0.2468719,0.9673767,1.0,-0.0279541,0.2373352,0.9710083,-25.85333,0.5052185,-24.42648,3.929535,0.3081549,0.4870359,1.0,-0.08598328,0.2562866,0.9627533,30.1342,5.7117,-25.89481,3.949158,0.6013268,0.3228746,0.05144656,1.171007,-0.2436943,0.0672264,0.02398581,0.02541145,0.1781158,-26.17798,31.57
3,-0.05682373,0.2468719,0.9673767,1.0,-0.0279541,0.2373352,0.9710083,-25.85333,0.5052185,-24.42648,3.929535,0.3081549,0.4870359,1.0,-0.08598328,0.2562866,0.9627533,30.1342,5.7117,-25.89481,3.949158,0.6013268,0.3228746,0.0536902,1.172144,-0.2438533,0.06121519,0.03264987,0.02196893,0.1781158,-26.17798,31.57
3,-0.05682373,0.2468719,0.9673767,1.0,-0.0279541,0.2373352,0.9710083,-25.85333,0.5052185,-24.42648,3.929535,0.3081549,0.4870359,1.0,-0.08598328,0.2562866,0.9627533,30.1342,5.7117,-25.89481,3.949158,0.6013268,0.3228746,0.0536902,1.172144,-0.2438533,0.06121519,0.03264987,0.02196893,0.1781158,-26.17798,31.57
3,0.01306152,0.2118378,0.9772034,1.0,0.01338196,0.2116852,0.9772339,-25.87099,0.34758,-24.63869,3.768799,0.3014734,0.4979145,1.0,-0.04634094,0.2391052,0.9698792,30.18523,5.295914,-25.10532,3.832779,0.5918109,0.3337111,0.0562247,1.173043,-0.24388,0.05588101,0.04391411,0.0196036,0.1781158,142.0759,31.57
3,0.01306152,0.2118378,0.9772034,1.0,0.01338196,0.2116852,0.9772339,-25.87099,0.34758,-24.63869,3.768799,0.3014734,0.4979145,1.0,-0.04634094,0.2391052,0.9698792,30.18523,5.295914,-25.10532,3.832779,0.5918109,0.3337111,0.0562247,1.173043,-0.24388,0.05588101,0.04391411,0.0196036,0.1781158,142.0759,31.57
3,0.0255127,0.1916199,0.9811249,1.0,0.02552795,0.1916199,0.9811249,-25.93794,0.4819794,-25.03632,3.626541,0.3011183,0.5001201,1.0,-0.03450012,0.2276764,0.973114,30.11252,5.008377,-24.14627,3.774292,0.5912382,0.3378656,0.05925608,1.17369,-0.2438506,0.05178918,0.05801385,0.01730732,0.1781158,142.0759,31.57
3,0.0255127,0.1916199,0.9811249,1.0,0.02552795,0.1916199,0.9811249,-25.93794,0.4819794,-25.03632,3.626541,0.3011183,0.5001201,1.0,-0.03450012,0.2276764,0.973114,30.11252,5.008377,-24.14627,3.774292,0.5912382,0.3378656,0.05925608,1.17369,-0.2438506,0.05178918,0.05801385,0.01730732,0.1781158,142.0759,31.57
3,0.04792786,0.1850586,0.9815521,1.0,0.04792786,0.1850586,0.9815521,-25.88333,0.3821411,-24.80202,3.682922,0.2957915,0.5024269,1.0,-0.02641296,0.2287903,0.973114,30.11252,5.005188,-24.14627,3.779099,0.5898408,0.3378656,0.06280327,1.174137,-0.2439128,0.04900663,0.07593284,0.01353605,0.1781158,142.0759,31.57
3,0.04792786,0.1850586,0.9815521,1.0,0.04792786,0.1850586,0.9815521,-25.88333,0.3821411,-24.80202,3.682922,0.2957915,0.5024269,1.0,-0.02641296,0.2287903,0.973114,30.11252,5.005188,-24.14627,3.779099,0.5898408,0.3378656,0.06280327,1.174137,-0.2439128,0.04900663,0.07593284,0.01353605,0.1781158,142.0759,31.57
3,0.06759644,0.1801605,0.981308,1.0,0.06759644,0.1801605,0.981308,-25.80672,0.2373352,-24.59483,3.717743,0.2901954,0.5061628,1.0,0.002349854,0.2182922,0.9758759,30.21405,4.814774,-23.54512,3.768799,0.5810381,0.3413256,0.0647372,1.174246,-0.2439622,0.04835556,0.08657824,0.01164349,0.1781158,142.0759,31.57
3,0.08786011,0.1894989,0.9779358,1.0,0.08786011,0.1894989,0.9779358,-25.79105,0.2487488,-24.67976,3.583221,0.2861491,0.5048946,1.0,0.01907349,0.2022705,0.9791412,30.26518,4.816559,-23.50589,3.746887,0.5764776,0.3435979,0.06688392,1.174253,-0.24402,0.04810175,0.09818985,0.01087934,0.1781158,142.0759,31.57
3,0.08786011,0.1894989,0.9779358,1.0,0.08786011,0.1894989,0.9779358,-25.79105,0.2487488,-24.67976,3.583221,0.2861491,0.5048946,1.0,0.01907349,0.2022705,0.9791412,30.26518,4.816559,-23.50589,3.746887,0.5764776,0.3435979,0.06688392,1.174253,-0.24402,0.04810175,0.09818985,0.01087934,0.1781158,142.0759,31.57
3,0.1095276,0.1776581,0.9779663,1.0,0.1096802,0.1775513,0.9779663,-25.64392,0.2533722,-24.70406,3.591599,0.2774731,0.5068994,1.0,0.05976868,0.2132416,0.9751587,30.24982,4.710495,-23.41425,3.761902,0.5700809,0.344663,0.07115412,1.174287,-0.2444113,0.04836481,0.1211377,0.01167671,0.1781158,142.0759,31.57
3,0.1095276,0.1776581,0.9779663,1.0,0.1096802,0.1775513,0.9779663,-25.64392,0.2533722,-24.70406,3.591599,0.2774731,0.5068994,1.0,0.05976868,0.2132416,0.9751587,30.24982,4.710495,-23.41425,3.761902,0.5700809,0.344663,0.07115412,1.174287,-0.2444113,0.04836481,0.1211377,0.01167671,0.1781158,142.0759,31.57
3,0.0753479,0.1567383,0.9847565,1.0,0.0753479,0.1567383,0.9847565,-25.96793,0.3321838,-24.82883,3.718765,0.2939305,0.5090234,1.0,0.04943848,0.1866913,0.9811707,30.53383,5.261353,-25.48666,3.58609,0.5638371,0.3466621,0.07329071,1.174221,-0.2445221,0.04859886,0.1326867,0.01259929,0.1781158,142.0759,31.57
3,-0.03140259,0.1814728,0.9828796,1.0,-0.03140259,0.1814728,0.9828796,-26.89386,-0.01397705,-23.42525,3.67308,0.3438882,0.5041437,1.0,-0.04763794,0.1709442,0.9841156,29.95322,5.401886,-25.65535,3.690384,0.6001213,0.3457431,0.07772958,1.173969,-0.2448015,0.0491598,0.1574569,0.01400408,0.1781158,142.0759,31.57
3,-0.03140259,0.1814728,0.9828796,1.0,-0.03140259,0.1814728,0.9828796,-26.89386,-0.01397705,-23.42525,3.67308,0.3438882,0.5041437,1.0,-0.04763794,0.1709442,0.9841156,29.95322,5.401886,-25.65535,3.690384,0.6001213,0.3457431,0.07772958,1.173969,-0.2448015,0.0491598,0.1574569,0.01400408,0.1781158,142.0759,31.57
3,-0.1518402,0.1681366,0.9739838,1.0,-0.1518402,0.1681366,0.9739838,-27.55135,0.5597839,-24.55487,3.496689,0.3845355,0.4981042,1.0,-0.1130676,0.1919098,0.9748688,29.00391,5.381943,-24.98196,3.813293,0.6426936,0.337689,0.08008933,1.173916,-0.2450033,0.04946605,0.1709223,0.01440843,0.1781158,142.0759,31.57
3,-0.226059,0.1696625,0.9592133,1.0,-0.226059,0.1696625,0.9592133,-28.17041,0.5546417,-24.71284,3.383896,0.4171976,0.5000207,1.0,-0.210022,0.2181702,0.9530334,28.32185,5.478561,-25.15547,3.701813,0.6832694,0.3312394,0.08487868,1.173606,-0.2454714,0.05022122,0.1989433,0.01439705,0.1781158,142.0759,31.57
3,-0.3048096,0.1768646,0.9358368,1.0,-0.3045654,0.1737061,0.9365082,-28.54651,0.4789429,-24.87209,3.33786,0.4427847,0.5041295,1.0,-0.3093719,0.2424316,0.9195099,27.75375,5.438553,-25.38469,3.681625,0.7214851,0.3302437,0.08725584,1.173436,-0.2458103,0.05093551,0.213264,0.01468146,0.1781158,-65.5444,31.57
3,-0.3463745,0.2372894,0.9075775,1.0,-0.326416,0.17099,0.9296265,-28.67113,0.417038,-24.92696,3.275421,0.450617,0.5073401,1.0,-0.3472595,0.2403564,0.9064331,27.58745,5.403625,-25.46326,3.800262,0.7344493,0.3325357,0.08961904,1.173362,-0.2461727,0.0518408,0.2273561,0.01525488,0.1781158,-65.5444,31.57
3,-0.3463745,0.2372894,0.9075775,1.0,-0.326416,0.17099,0.9296265,-28.67113,0.417038,-24.92696,3.275421,0.450617,0.5073401,1.0,-0.3472595,0.2403564,0.9064331,27.58745,5.403625,-25.46326,3.800262,0.7344493,0.3325357,0.08961904,1.173362,-0.2461727,0.0518408,0.2273561,0.01525488,0.1781158,-65.5444,31.57
3,-0.4329071,0.2300873,0.8715668,1.0,-0.401123,0.162384,0.9015045,-28.84386,0.3368683,-25.04169,3.431076,0.4689249,0.5137773,1.0,-0.4357758,0.2364044,0.8684387,27.28799,5.335373,-25.66164,3.766052,0.7623144,0.3374391,0.09196484,1.173144,-0.2467059,0.05250045,0.2413036,0.01612068,0.1781158,-65.5444,31.57
3,-0.4617157,0.1459045,0.874939,1.0,-0.4597778,0.1423645,0.8765411,-29.03653,0.2696533,-25.15384,3.558044,0.4851989,0.5216017,1.0,-0.492981,0.2051239,0.8455048,26.99335,5.275818,-25.8051,3.644592,0.7841548,0.3462155,0.09658349,1.172935,-0.2476151,0.05394528,0.2683145,0.0168656,0.1781158,-65.5444,31.57
3,-0.4803162,0.1559448,0.8630981,1.0,-0.4768524,0.1542969,0.8653259,-29.14694,0.2179108,-25.22804,3.438599,0.4920802,0.5222704,1.0,-0.553772,0.1915741,0.810318,26.81644,5.285614,-25.95712,3.763428,0.8032343,0.3500421,0.09873259,1.172799,-0.248238,0.05490817,0.2815665,0.01665846,0.1781158,-65.5444,31.57
3,-0.4803162,0.1559448,0.8630981,1.0,-0.4768524,0.1542969,0.8653259,-29.14694,0.2179108,-25.22804,3.438599,0.4920802,0.5222704,1.0,-0.553772,0.1915741,0.810318,26.81644,5.285614,-25.95712,3.763428,0.8032343,0.3500421,0.09873259,1.172799,-0.248238,0.05490817,0.2815665,0.01665846,0.1781158,-65.5444,31.57
3,-0.515152,0.1530762,0.8433075,1.0,-0.515152,0.1530762,0.8433075,-29.26105,0.231781,-25.32513,3.379532,0.5027419,0.5237634,1.0,0.0,0.0,0.0,26.52495,5.333359,-26.22102,-1.0,0.8286924,0.3488866,0.100789,1.172585,-0.2489032,0.05575581,0.2947682,0.01634831,0.1781158,-65.5444,31.57
3,-0.4689484,0.1458435,0.8710785,1.0,-0.4668121,0.144989,0.8723755,-29.13965,0.2621155,-25.19447,3.466614,0.4899561,0.5218732,1.0,-0.5749512,0.1888885,0.7960663,26.60561,5.305008,-26.08061,3.807541,0.8163402,0.3504261,0.1049339,1.172389,-0.2502243,0.05687966,0.3208232,0.01585458,0.1717087,-65.5444,31.57
3,-0.4513855,0.1330566,0.8823395,1.0,-0.4463959,0.1313934,0.8851318,-29.02194,0.3054962,-25.11697,3.372437,0.4824944,0.521467,1.0,-0.5697021,0.1726074,0.8035126,26.79388,5.301193,-25.97578,3.615036,0.8074325,0.3529667,0.1069548,1.172296,-0.2509632,0.05743496,0.3335308,0.01579715,0.1717087,-65.5444,31.57
3,-0.4513855,0.1330566,0.8823395,1.0,-0.4463959,0.1313934,0.8851318,-29.02194,0.3054962,-25.11697,3.372437,0.4824944,0.521467,1.0,-0.5697021,0.1726074,0.8035126,26.79388,5.301193,-25.97578,3.615036,0.8074325,0.3529667,0.1069548,1.172296,-0.2509632,0.05743496,0.3335308,0.01579715,0.1717087,-65.5444,31.57
3,-0.4243317,0.1443939,0.8939056,1.0,-0.3990326,0.1322784,0.9073334,-28.81598,0.4163361,-24.99007,3.425598,0.467458,0.5156456,1.0,-0.5391846,0.2002258,0.8180237,27.0843,5.354324,-25.85004,3.764389,0.7903771,0.3453684,0.1089505,1.172277,-0.2517475,0.05795281,0.3458787,0.01577827,0.1717087,-65.5444,31.57
3,-0.3961945,0.1657562,0.9030609,1.0,-0.3479919,0.1406555,0.9268799,-28.61366,0.5136566,-24.88655,3.408386,0.4521493,0.5092595,1.0,-0.4823151,0.2109985,0.8502045,27.38835,5.38205,-25.67876,3.662277,0.7676406,0.3408563,0.1109117,1.172098,-0.2525225,0.05835484,0.3579148,0.01566643,0.1717087,-65.5444,31.57
3,-0.3292999,0.1555176,0.9313202,1.0,-0.3102112,0.1464081,0.9393158,-28.4063,0.562439,-24.81779,3.224014,0.4391276,0.505347,1.0,-0.4362793,0.2065125,0.8757782,27.61063,5.400604,-25.54759,3.800217,0.7502248,0.3398803,0.114657,1.172105,-0.2542393,0.05982541,0.3815843,0.0153197,0.1717087,-65.5444,31.57
3,-0.3292999,0.1555176,0.9313202,1.0,-0.3102112,0.1464081,0.9393158,-28.4063,0.562439,-24.81779,3.224014,0.4391276,0.505347,1.0,-0.4362793,0.2065125,0.8757782,27.61063,5.400604,-25.54759,3.800217,0.7502248,0.3398803,0.114657,1.172105,-0.2542393,0.05982541,0.3815843,0.0153197,0.1717087,-65.5444,31.57
3,-0.2845917,0.150116,0.9468079,1.0,-0.2651825,0.1427612,0.9535522,-28.19026,0.6156616,-24.73563,3.301788,0.4243817,0.5029708,1.0,-0.4068909,0.1959991,0.8921814,27.86647,5.494171,-25.40404,3.723755,0.7352183,0.3373107,0.118096,1.172142,-0.2559876,0.06230443,0.40266,0.01510518,0.1717087,-111.1077,31.57
3,-0.2845917,0.150116,0.9468079,1.0,-0.2651825,0.1427612,0.9535522,-28.19026,0.6156616,-24.73563,3.301788,0.4243817,0.5029708,1.0,-0.4068909,0.1959991,0.8921814,27.86647,5.494171,-25.40404,3.723755,0.7352183,0.3373107,0.118096,1.172142,-0.2559876,0.06230443,0.40266,0.01510518,0.1717087,-111.1077,31.57
3,-0.2302551,0.1531219,0.9609985,1.0,-0.2182007,0.1488953,0.9644623,-27.93474,0.6687775,-24.67575,3.419189,0.4080994,0.4992941,1.0,-0.348938,0.1939697,0.9168396,28.15135,5.502014,-25.27164,3.647125,0.7141985,0.3361044,0.1197008,1.171981,-0.2569077,0.06313314,0.4122489,0.01514262,0.1717087,-111.1077,31.57
3,-0.1881256,0.1448822,0.9713898,1.0,-0.1808624,0.1410828,0.9733276,-27.66437,0.770752,-24.63455,3.438736,0.3930093,0.4965346,1.0,-0.2760773,0.1907349,0.9420013,28.35536,5.548706,-25.17027,3.627045,0.6937646,0.3338922,0.1211452,1.171988,-0.2577664,0.06412689,0.4210015,0.01538522,0.1717087,-111.1077,31.57
3,-0.1831665,0.1611786,0.9697723,1.0,-0.1719666,0.1573639,0.9724426,-27.50447,0.7122955,-24.55612,3.32074,0.3864539,0.4948499,1.0,-0.2842102,0.1949005,0.938736,28.50648,5.609756,-25.16374,3.616379,0.690088,0.331208,0.1237355,1.171948,-0.2593559,0.06554698,0.4368093,0.01543164,0.1717087,-111.1077,31.57
3,-0.1632385,0.1716309,0.9715271,1.0,-0.1461792,0.166748,0.9750977,-27.21936,0.7960968,-24.47995,3.487976,0.3728397,0.4898728,1.0,-0.2226715,0.1883087,0.9565277,28.73988,5.682922,-25.08203,3.57077,0.6710461,0.3289452,0.1249211,1.171979,-0.2600602,0.06613181,0.4439724,0.01482187,0.1717087,-111.1077,31.57
3,-0.1632385,0.1716309,0.9715271,1.0,-0.1461792,0.166748,0.9750977,-27.21936,0.7960968,-24.47995,3.487976,0.3728397,0.4898728,1.0,-0.2226715,0.1883087,0.9565277,28.73988,5.682922,-25.08203,3.57077,0.6710461,0.3289452,0.1249211,1.171979,-0.2600602,0.06613181,0.4439724,0.01482187,0.1717087,-111.1077,31.57
3,-0.2010498,0.1895447,0.9610596,1.0,-0.1167755,0.1643372,0.9794617,-26.91063,0.638382,-23.76907,3.236954,0.3585513,0.4886749,1.0,-0.2042999,0.1904907,0.9601898,29.01591,5.761047,-25.03914,3.513336,0.6584319,0.3255992,0.1260277,1.171949,-0.2605664,0.06657512,0.4500187,0.0135311,0.1717087,-111.1077,31.57
3,-0.1813965,0.1826172,0.9662933,1.0,-0.09858704,0.2017365,0.9744568,-26.62004,0.05664063,-22.06503,3.537689,0.3475961,0.4868785,1.0,-0.1813965,0.1826172,0.9662933,29.24933,5.795242,-25.00789,3.538589,0.6464309,0.3255641,0.1269038,1.171702,-0.2611483,0.06688384,0.4559836,0.01198902,0.1717087,-111.1077,31.57
3,-0.1690979,0.1908112,0.9669495,1.0,-0.09355164,0.2029572,0.9747009,-26.50134,0.06950378,-22.03189,3.514252,0.3430572,0.4859233,1.0,-0.1690979,0.1908112,0.9669495,29.35188,5.811523,-25.00662,3.661499,0.640864,0.3236892,0.1269038,1.171702,-0.2611483,0.06688384,0.4559836,0.01198902,0.1717087,-111.1077,31.57
3,-0.1550598,0.1947479,0.9685059,1.0,-0.06582642,0.2045898,0.9766235,-26.50467,0.1128693,-22.112,3.567062,0.3385327,0.4849256,1.0,-0.1550598,0.1947479,0.9685059,29.40805,5.808243,-25.00105,3.550842,0.6365626,0.3229786,0.1285826,1.171407,-0.2619503,0.06694987,0.4651221,0.00892116,0.1717087,-111.1077,31.57
3,-0.1266327,0.1921082,0.9731598,1.0,-0.06114197,0.2061157,0.9766083,-26.28986,0.1989136,-22.22346,3.431763,0.3307893,0.4826466,1.0,-0.1266327,0.1921082,0.9731598,29.58882,5.805862,-24.95319,3.481979,0.6254854,0.3230556,0.1314296,1.172081,-0.2616148,0.06719602,0.4717751,0.006628991,0.1717087,-111.1077,31.57
3,-0.1266327,0.1921082,0.9731598,1.0,-0.06114197,0.2061157,0.9766083,-26.28986,0.1989136,-22.22346,3.431763,0.3307893,0.4826466,1.0,-0.1266327,0.1921082,0.9731598,29.58882,5.805862,-24.95319,3.481979,0.6254854,0.3230556,0.1314296,1.172081,-0.2616148,0.06719602,0.4717751,0.006628991,0.1717087,-111.1077,31.57
3,-0.1160736,0.1974487,0.9734039,1.0,-0.04878235,0.1706848,0.9841156,-26.18861,0.9025269,-24.01494,3.455109,0.3234003,0.4809857,1.0,-0.1160736,0.1974487,0.9734039,29.74205,5.782608,-24.88423,3.626648,0.6184413,0.3225365,0.1329272,1.172019,-0.2613331,0.06680247,0.4745812,0.004573973,0.1717087,-111.1077,31.57
3,-0.1125641,0.1958313,0.9741516,1.0,-0.03807068,0.1794586,0.983017,-26.06834,1.001633,-24.07913,3.413635,0.3176215,0.4767786,1.0,-0.1125641,0.1958313,0.9741516,29.92128,5.83905,-24.96524,3.623962,0.611906,0.3215636,0.1338327,1.171838,-0.261,0.06597322,0.4748203,0.002671639,0.1717087,-111.1077,31.57
3,-0.1125641,0.1958313,0.9741516,1.0,-0.03807068,0.1794586,0.983017,-26.06834,1.001633,-24.07913,3.413635,0.3176215,0.4767786,1.0,-0.1125641,0.1958313,0.9741516,29.92128,5.83905,-24.96524,3.623962,0.611906,0.3215636,0.1338327,1.171838,-0.261,0.06597322,0.4748203,0.002671639,0.1717087,-111.1077,31.57
4,-0.09674072,0.2023468,0.9745178,1.0,-0.03102112,0.177597,0.9836121,-26.02213,1.098068,-24.21147,3.517502,0.3147312,0.475159,1.0,-0.09674072,0.2023468,0.9745178,30.01479,5.912445,-24.91426,3.520187,0.6060788,0.3174636,0.1347854,1.172017,-0.2601577,0.06550855,0.4729242,0.002643605,0.1717087,-59.45193,31.57
4,-0.09674072,0.2023468,0.9745178,1.0,-0.03102112,0.177597,0.9836121,-26.02213,1.098068,-24.21147,3.517502,0.3147312,0.475159,1.0,-0.09674072,0.2023468,0.9745178,30.01479,5.912445,-24.91426,3.520187,0.6060788,0.3174636,0.1347854,1.172017,-0.2601577,0.06550855,0.4729242,0.002643605,0.1717087,-59.45193,31.57
4,-0.09837341,0.2043915,0.9739227,1.0,-0.03033447,0.1775055,0.9836426,-26.01283,1.098068,-24.21147,3.505661,0.314317,0.475159,1.0,-0.09838867,0.2043915,0.9739227,30.02563,5.93605,-24.87601,3.578735,0.6059702,0.3161005,0.1349026,1.171877,-0.2589535,0.06537056,0.4673941,0.002937307,0.1717087,-59.45193,31.57
4,-0.09837341,0.2043915,0.9739227,1.0,-0.03033447,0.1775055,0.9836426,-26.01283,1.098068,-24.21147,3.505661,0.314317,0.475159,1.0,-0.09838867,0.2043915,0.9739227,30.02563,5.93605,-24.87601,3.578735,0.6059702,0.3161005,0.1349026,1.171877,-0.2589535,0.06537056,0.4673941,0.002937307,0.1717087,-59.45193,31.57
4,-0.08106995,0.1934052,0.9777527,1.0,-0.02972412,0.1767731,0.9837952,-25.8903,1.07164,-24.43347,3.505478,0.3098596,0.4779886,1.0,-0.08732605,0.1953888,0.9768219,30.10927,5.906723,-24.75607,3.645569,0.6011061,0.3177409,0.135087,1.171995,-0.2569999,0.06518429,0.4579283,0.003241191,0.1717087,-59.45193,31.57
4,-0.08106995,0.1934052,0.9777527,1.0,-0.02972412,0.1767731,0.9837952,-25.8903,1.07164,-24.43347,3.505478,0.3098596,0.4779886,1.0,-0.08732605,0.1953888,0.9768219,30.10927,5.906723,-24.75607,3.645569,0.6011061,0.3177409,0.135087,1.171995,-0.2569999,0.06518429,0.4579283,0.003241191,0.1717087,-59.45193,31.57
4,-0.07138062,0.1918335,0.9788208,1.0,-0.03164673,0.1759186,0.9838867,-25.91216,1.012253,-24.34232,3.566208,0.3110003,0.4793642,1.0,-0.08787537,0.198349,0.976181,30.14824,5.889648,-24.74393,3.620758,0.5998794,0.3177378,0.1341621,1.171634,-0.2548661,0.06492902,0.444918,0.00348275,0.1717087,-59.45193,31.57
4,-0.07138062,0.1918335,0.9788208,1.0,-0.03164673,0.1759186,0.9838867,-25.91216,1.012253,-24.34232,3.566208,0.3110003,0.4793642,1.0,-0.08787537,0.198349,0.976181,30.14824,5.889648,-24.74393,3.620758,0.5998794,0.3177378,0.1341621,1.171634,-0.2548661,0.06492902,0.444918,0.00348275,0.1717087,-59.45193,31.57
4,-0.0955658,0.2069855,0.9736481,1.0,-0.03744507,0.1843109,0.9821472,-26.02429,0.8766632,-23.95564,3.589447,0.3161358,0.4791605,1.0,-0.100296,0.2088013,0.9727936,30.07777,5.891068,-24.84709,3.587616,0.6045067,0.3167162,0.1335853,1.171903,-0.251809,0.06522268,0.4285704,0.003185544,0.1717087,-59.45193,31.57
4,-0.0955658,0.2069855,0.9736481,1.0,-0.03744507,0.1843109,0.9821472,-26.02429,0.8766632,-23.95564,3.589447,0.3161358,0.4791605,1.0,-0.100296,0.2088013,0.9727936,30.07777,5.891068,-24.84709,3.587616,0.6045067,0.3167162,0.1335853,1.171903,-0.251809,0.06522268,0.4285704,0.003185544,0.1717087,-59.45193,31.57
4,-0.1215515,0.2096405,0.9701843,1.0,-0.05453491,0.2017212,0.9779205,-26.21838,0.2661438,-22.15302,3.444153,0.3273601,0.4805515,1.0,-0.1215515,0.2096405,0.9701843,29.90701,5.915894,-25.00674,3.544952,0.6140899,0.3168919,0.1319009,1.171962,-0.2485321,0.06545656,0.4076725,0.003356379,0.1717087,-59.45193,31.57
4,-0.1215515,0.2096405,0.9701843,1.0,-0.05453491,0.2017212,0.9779205,-26.21838,0.2661438,-22.15302,3.444153,0.3273601,0.4805515,1.0,-0.1215515,0.2096405,0.9701843,29.90701,5.915894,-25.00674,3.544952,0.6140899,0.3168919,0.1319009,1.171962,-0.2485321,0.06545656,0.4076725,0.003356379,0.1717087,-59.45193,31.57
4,-0.1516876,0.2104645,0.9657593,1.0,-0.09629822,0.1885223,0.9773254,-26.51993,0.9004669,-23.81964,3.467438,0.3424689,0.4768013,1.0,-0.1516876,0.2104645,0.9657593,29.71594,5.886246,-25.04282,3.57428,0.6257551,0.3181026,0.1295863,1.172125,-0.2448828,0.06541773,0.3820941,0.003942323,0.1717087,-59.45193,31.57
4,-0.1516876,0.2104645,0.9657593,1.0,-0.09629822,0.1885223,0.9773254,-26.51993,0.9004669,-23.81964,3.467438,0.3424689,0.4768013,1.0,-0.1516876,0.2104645,0.9657593,29.71594,5.886246,-25.04282,3.57428,0.6257551,0.3181026,0.1295863,1.172125,-0.2448828,0.06541773,0.3820941,0.003942323,0.1717087,-59.45193,31.57
4,-0.1832428,0.167572,0.9686737,1.0,0.0,0.0,0.0,-26.84721,1.480972,-24.01514,-1.0,0.3560027,0.4765084,1.0,-0.1832428,0.167572,0.9686737,29.563,5.85144,-25.03134,3.338623,0.6361555,0.3263642,0.1265547,1.172306,-0.2410827,0.06448942,0.3518491,0.004985493,0.1717087,-59.45193,31.57
4,-0.1832428,0.167572,0.9686737,1.0,0.0,0.0,0.0,-26.84721,1.480972,-24.01514,-1.0,0.3560027,0.4765084,1.0,-0.1832428,0.167572,0.9686737,29.563,5.85144,-25.03134,3.338623,0.6361555,0.3263642,0.1265547,1.172306,-0.2410827,0.06448942,0.3518491,0.004985493,0.1717087,-59.45193,31.57
4,-1.0,-1.0,-1.0,0.6505808,0.0,0.0,0.0,-27.17305,-0.5246124,-23.89458,-1.0,0.3807803,0.5634972,0.8793921,0.0,0.0,0.0,31.07063,3.427338,-25.91942,-1.0,0.5376055,0.4364376,0.1224793,1.172326,-0.2376365,0.06312842,0.3177644,0.006822846,0.1717087,-24.98901,31.57
4,-1.0,-1.0,-1.0,0.6505808,0.0,0.0,0.0,-27.17305,-0.5246124,-23.89458,-1.0,0.3807803,0.5634972,0.8793921,0.0,0.0,0.0,31.07063,3.427338,-25.91942,-1.0,0.5376055,0.4364376,0.1224793,1.172326,-0.2376365,0.06312842,0.3177644,0.006822846,0.1717087,-24.98901,31.57
4,-1.0,-1.0,-1.0,0.0,0.0,0.0,0.0,-26.8132,0.519516,-25.34486,-1.0,-1.0,-1.0,0.1871132,0.0,0.0,0.0,29.8306,4.055862,-28.10207,-1.0,0.5935593,0.3943908,0.1178291,1.172378,-0.2343152,0.06120643,0.2814634,0.008233189,0.1717087,-24.98901,31.57
4,-1.0,-1.0,-1.0,0.0,0.0,0.0,0.0,-26.8132,0.519516,-25.34486,-1.0,-1.0,-1.0,0.1871132,0.0,0.0,0.0,29.8306,4.055862,-28.10207,-1.0,0.5935593,0.3943908,0.1178291,1.172378,-0.2343152,0.06120643,0.2814634,0.008233189,0.1717087,-24.98901,31.57
4,-1.0,-1.0,-1.0,0.0,0.0,0.0,0.0,-25.95024,0.1388855,-22.55064,-1.0,0.2922844,0.5182295,0.1976361,0.0,0.0,0.0,31.07774,5.451645,-28.83594,-1.0,0.5600555,0.3947661,0.1125073,1.172517,-0.2313982,0.05900506,0.2432262,0.008038124,0.1717087,-24.98901,31.57
4,-1.0,-1.0,-1.0,0.0,0.0,0.0,0.0,-25.95024,0.1388855,-22.55064,-1.0,0.2922844,0.5182295,0.1976361,0.0,0.0,0.0,31.07774,5.451645,-28.83594,-1.0,0.5600555,0.3947661,0.1125073,1.172517,-0.2313982,0.05900506,0.2432262,0.008038124,0.1717087,-24.98901,31.57
4,-1.0,-1.0,-1.0,0.0,0.0,0.0,0.0,-23.90755,1.560455,-24.14702,-1.0,0.1898208,0.4591803,0.3209598,0.0,0.0,0.0,33.57553,4.562439,-25.82233,-1.0,-1.0,-1.0,0.10655,1.172882,-0.2291957,0.05623084,0.2034901,0.006792201,0.1717087,-24.98901,31.57
4,-1.0,-1.0,-1.0,0.0,0.0,0.0,0.0,-23.90755,1.560455,-24.14702,-1.0,0.1898208,0.4591803,0.3209598,0.0,0.0,0.0,33.57553,4.562439,-25.82233,-1.0,-1.0,-1.0,0.10655,1.172882,-0.2291957,0.05623084,0.2034901,0.006792201,0.1717087,-24.98901,31.57
4,-1.0,-1.0,-1.0,0.413214,0.0,0.0,0.0,-23.17776,1.015152,-24.64063,-1.0,0.1463247,0.4576831,0.6200289,0.0,0.0,0.0,32.55894,6.149948,-25.26668,-1.0,0.4411516,0.3238163,0.1007215,1.173404,-0.2274818,0.05268335,0.1650601,0.006048335,0.1717087,-24.98901,31.57
4,-1.0,-1.0,-1.0,0.413214,0.0,0.0,0.0,-23.17776,1.015152,-24.64063,-1.0,0.1463247,0.4576831,0.6200289,0.0,0.0,0.0,32.55894,6.149948,-25.26668,-1.0,0.4411516,0.3238163,0.1007215,1.173404,-0.2274818,0.05268335,0.1650601,0.006048335,0.1717087,-24.98901,31.57
4,-1.0,-1.0,-1.0,0.6141358,0.0,0.0,0.0,-23.06477,0.9723816,-24.66501,-1.0,0.1259707,0.4723006,0.7378488,0.0,0.0,0.0,32.74887,5.793564,-25.41402,-1.0,0.4316864,0.3285512,0.0948329,1.173865,-0.2266039,0.04891213,0.1294895,0.005131311,0.1717087,-24.98901,31.57
4,-1.0,-1.0,-1.0,0.6141358,0.0,0.0,0.0,-23.06477,0.9723816,-24.66501,-1.0,0.1259707,0.4723006,0.7378488,0.0,0.0,0.0,32.74887,5.793564,-25.41402,-1.0,0.4316864,0.3285512,0.0948329,1.173865,-0.2266039,0.04891213,0.1294895,0.005131311,0.1717087,-24.98901,31.57
4,0.4825897,0.1831512,0.8564758,0.7438296,0.4825897,0.1831512,0.8564758,-23.09653,0.6883087,-24.6355,3.579071,0.1186621,0.492807,0.844341,0.4228973,0.1871338,0.8866272,32.69449,5.577454,-25.45674,3.396408,0.4268188,0.3373452,0.08908117,1.174385,-0.2266659,0.04554826,0.09592591,0.003535827,0.1717087,-24.98901,31.57
4,0.4825897,0.1831512,0.8564758,0.7438296,0.4825897,0.1831512,0.8564758,-23.09653,0.6883087,-24.6355,3.579071,0.1186621,0.492807,0.844341,0.4228973,0.1871338,0.8866272,32.69449,5.577454,-25.45674,3.396408,0.4268188,0.3373452,0.08908117,1.174385,-0.2266659,0.04554826,0.09592591,0.003535827,0.1717087,-24.98901,31.57
4,0.3329468,0.2072601,0.9198761,0.9732152,0.371994,0.2064972,0.9049683,-23.69295,0.3144379,-24.36823,3.612549,0.1636805,0.4980117,0.9996164,0.3272247,0.2073364,0.9219055,32.25038,5.416885,-25.26047,3.493469,0.4586585,0.3369904,0.08393085,1.175105,-0.2272757,0.04239866,0.06645672,0.001682623,0.1717087,-24.98901,31.57
4,0.3329468,0.2072601,0.9198761,0.9732152,0.371994,0.2064972,0.9049683,-23.69295,0.3144379,-24.36823,3.612549,0.1636805,0.4980117,0.9996164,0.3272247,0.2073364,0.9219055,32.25038,5.416885,-25.26047,3.493469,0.4586585,0.3369904,0.08393085,1.175105,-0.2272757,0.04239866,0.06645672,0.001682623,0.1717087,-24.98901,31.57
4,0.2684326,0.1970215,0.9429321,1.0,0.318222,0.201416,0.9263611,-24.18088,0.1855469,-24.20166,3.467178,0.1916996,0.5012528,1.0,0.2567291,0.1959229,0.9464111,31.91553,5.326019,-25.13625,3.492111,0.482136,0.3405244,0.07943308,1.175728,-0.2283288,0.0400679,0.04262562,0.0,0.1717087,-57.92845,31.57
4,0.2684326,0.1970215,0.9429321,1.0,0.318222,0.201416,0.9263611,-24.18088,0.1855469,-24.20166,3.467178,0.1916996,0.5012528,1.0,0.2567291,0.1959229,0.9464111,31.91553,5.326019,-25.13625,3.492111,0.482136,0.3405244,0.07943308,1.175728,-0.2283288,0.0400679,0.04262562,0.0,0.1717087,-57.92845,31.57
4,0.1681061,0.1842499,0.9683838,1.0,0.2177429,0.1934357,0.9566345,-24.89505,0.07519531,-24.02371,3.496277,0.2348317,0.5042076,1.0,0.1641083,0.1834869,0.969223,31.30927,5.385071,-25.45352,3.364349,0.5183153,0.3426069,0.07545841,1.176076,-0.2299981,0.038552,0.02337734,-0.001407783,0.1717087,-57.92845,31.57
4,0.1681061,0.1842499,0.9683838,1.0,0.2177429,0.1934357,0.9566345,-24.89505,0.07519531,-24.02371,3.496277,0.2348317,0.5042076,1.0,0.1641083,0.1834869,0.969223,31.30927,5.385071,-25.45352,3.364349,0.5183153,0.3426069,0.07545841,1.176076,-0.2299981,0.038552,0.02337734,-0.001407783,0.1717087,-57.92845,31.57
4,0.1495819,0.1763153,0.9728851,1.0,0.1495819,0.1763153,0.9728851,-25.43166,0.192627,-24.42023,3.553391,0.2640482,0.5065954,1.0,0.08822632,0.1773682,0.9801788,30.75652,5.34552,-25.51685,3.440506,0.5499543,0.3446376,0.07193434,1.176402,-0.2315972,0.03726965,0.005985181,-0.002640785,0.1717087,-57.92845,31.57
4,0.1495819,0.1763153,0.9728851,1.0,0.1495819,0.1763153,0.9728851,-25.43166,0.192627,-24.42023,3.553391,0.2640482,0.5065954,1.0,0.08822632,0.1773682,0.9801788,30.75652,5.34552,-25.51685,3.440506,0.5499543,0.3446376,0.07193434,1.176402,-0.2315972,0.03726965,0.005985181,-0.002640785,0.1717087,-57.92845,31.57
4,0.1069794,0.1629944,0.9808044,1.0,0.1069794,0.1629944,0.9808044,-25.7261,0.1734467,-24.24716,3.410446,0.281406,0.5076742,1.0,0.04815674,0.1695404,0.9843292,30.47086,5.29895,-25.13881,3.474472,0.5659736,0.3451913,0.07027972,1.176525,-0.2324055,0.03657366,-0.0009841623,-0.003002533,0.1717087,-57.92845,31.57
4,0.07275391,0.156311,0.9850159,1.0,0.07275391,0.156311,0.9850159,-26.04897,0.1767578,-24.09224,3.445999,0.2981295,0.5073608,1.0,0.0141449,0.1676483,0.985733,30.17014,5.345078,-25.08711,3.369965,0.5817438,0.3434974,0.06900299,1.176675,-0.2332156,0.03584069,-0.006160622,-0.002952487,0.1717087,-57.92845,31.57
4,0.07275391,0.156311,0.9850159,1.0,0.07275391,0.156311,0.9850159,-26.04897,0.1767578,-24.09224,3.445999,0.2981295,0.5073608,1.0,0.0141449,0.1676483,0.985733,30.17014,5.345078,-25.08711,3.369965,0.5817438,0.3434974,0.06900299,1.176675,-0.2332156,0.03584069,-0.006160622,-0.002952487,0.1717087,-57.92845,31.57
4,0.04840088,0.1473999,0.9878845,1.0,0.04840088,0.1473999,0.9878845,-26.37695,0.2343292,-24.16275,3.319443,0.3129827,0.5075175,1.0,-0.02098083,0.144104,0.9893341,29.89894,5.465729,-25.11778,3.385071,0.5968358,0.3436302,0.06661928,1.176796,-0.2349431,0.03557926,-0.01350961,-0.002465699,0.1717087,-57.92845,31.57
4,0.04840088,0.1473999,0.9878845,1.0,0.04840088,0.1473999,0.9878845,-26.37695,0.2343292,-24.16275,3.319443,0.3129827,0.5075175,1.0,-0.02098083,0.144104,0.9893341,29.89894,5.465729,-25.11778,3.385071,0.5968358,0.3436302,0.06661928,1.176796,-0.2349431,0.03557926,-0.01350961,-0.002465699,0.1717087,-57.92845,31.57
4,0.0348053,0.1476288,0.9884186,1.0,0.0348053,0.1476288,0.9884186,-26.68929,0.3440247,-24.48991,3.293213,0.3251545,0.5068414,1.0,-0.045578,0.1487274,0.9878235,29.60283,5.46843,-25.12056,3.328552,0.6109554,0.3427491,0.06449091,1.176648,-0.2367578,0.03599688,-0.01825431,-0.001682623,0.1717087,-57.92845,31.57
4,-0.04714966,0.1446228,0.9883575,1.0,0.01306152,0.1388397,0.9902191,-26.80984,0.3805847,-24.62268,3.434082,0.332568,0.5084666,1.0,-0.05612183,0.1454315,0.9877625,29.41167,5.518616,-25.40298,3.45163,0.6195144,0.3438874,0.06345069,1.176591,-0.2376738,0.03614704,-0.02005857,-0.00133163,0.1717087,-57.92845,31.57
4,-0.04714966,0.1446228,0.9883575,1.0,0.01306152,0.1388397,0.9902191,-26.80984,0.3805847,-24.62268,3.434082,0.332568,0.5084666,1.0,-0.05612183,0.1454315,0.9877625,29.41167,5.518616,-25.40298,3.45163,0.6195144,0.3438874,0.06345069,1.176591,-0.2376738,0.03614704,-0.02005857,-0.00133163,0.1717087,-57.92845,31.57
4,-0.06018066,0.149292,0.9869537,1.0,0.006652832,0.1367645,0.9905701,-26.84544,0.3179321,-24.36417,3.506653,0.3350683,0.5086417,1.0,-0.07484436,0.151947,0.9855347,29.34712,5.515823,-25.38525,3.406967,0.624906,0.3427062,0.06241238,1.176594,-0.2385219,0.03617733,-0.02220606,-0.001170857,0.1717087,-57.92845,31.57
4,-0.06135559,0.1489716,0.9869232,1.0,-0.001739502,0.1438904,0.9895782,-26.8524,0.2977448,-24.28358,3.423065,0.3368117,0.5073474,1.0,-0.08244324,0.15065,0.9851379,29.33861,5.545517,-25.48436,3.50737,0.6266291,0.3427677,0.06037104,1.176647,-0.2402017,0.0351166,-0.02482653,-0.001151609,0.1717087,-23.22943,31.57
4,-0.06135559,0.1489716,0.9869232,1.0,-0.001739502,0.1438904,0.9895782,-26.8524,0.2977448,-24.28358,3.423065,0.3368117,0.5073474,1.0,-0.08244324,0.15065,0.9851379,29.33861,5.545517,-25.48436,3.50737,0.6266291,0.3427677,0.06037104,1.176647,-0.2402017,0.0351166,-0.02482653,-0.001151609,0.1717087,-23.22943,31.57
4,-0.06428528,0.1443329,0.9874268,1.0,-0.01324463,0.1292267,0.9915161,-26.90739,0.3169556,-24.26498,3.459198,0.3405323,0.5090194,1.0,-0.08532715,0.1504517,0.9849243,29.33757,5.517838,-25.38525,3.519852,0.6270396,0.3429747,0.05952322,1.176856,-0.2408785,0.03441257,-0.02485443,-0.001035801,0.1717087,-23.22943,31.57
4,-0.09909058,0.1437225,0.9846344,1.0,-0.03608704,0.1220245,0.9918671,-26.93007,0.623642,-25.18747,3.465881,0.3441936,0.5084595,1.0,-0.09971619,0.1439362,0.9845428,29.24771,5.514603,-25.23602,3.564758,0.6323435,0.3430654,0.05875432,1.177082,-0.2416045,0.03362611,-0.02502025,-0.0007221777,0.1717087,-23.22943,31.57
4,-0.09547424,0.1390533,0.9856567,1.0,-0.03521729,0.1200256,0.9921417,-26.94351,0.6361694,-25.22765,3.44928,0.3444183,0.5087146,1.0,-0.0955658,0.1390839,0.9856567,29.21881,5.491043,-25.14262,3.516907,0.6324537,0.3439192,0.05723631,1.177206,-0.2432121,0.03267406,-0.0239541,-0.0001220703,0.1717087,-23.22943,31.57
4,-0.09489441,0.1397858,0.985611,1.0,-0.03581238,0.1179504,0.9923706,-26.94064,0.6361694,-25.22765,3.448318,0.3444183,0.5090566,1.0,-0.09489441,0.1397858,0.985611,29.21147,5.472198,-25.07263,3.520035,0.6324872,0.3439192,0.05639338,1.17723,-0.2440478,0.03212792,-0.0235485,0.0002441406,0.1717087,-23.22943,31.57
4,-0.09489441,0.1397858,0.985611,1.0,-0.03581238,0.1179504,0.9923706,-26.94064,0.6361694,-25.22765,3.448318,0.3444183,0.5090566,1.0,-0.09489441,0.1397858,0.985611,29.21147,5.472198,-25.07263,3.520035,0.6324872,0.3439192,0.05639338,1.17723,-0.2440478,0.03212792,-0.0235485,0.0002441406,0.1717087,-23.22943,31.57
4,-0.0990448,0.1422424,0.984848,1.0,-0.03462219,0.1188507,0.9922943,-26.94351,0.6133575,-25.12096,3.459824,0.3444183,0.5087146,1.0,-0.09906006,0.1422424,0.984848,29.21881,5.472198,-25.07263,3.568192,0.6329545,0.3435668,0.055547,1.177373,-0.2447614,0.03181331,-0.023016,0.000422864,0.1717087,-23.22943,31.57
4,-0.1149292,0.1478119,0.9822998,1.0,-0.01025391,0.1264038,0.9919128,-26.94093,0.3824158,-24.08424,3.586197,0.3413202,0.5059125,1.0,-0.1149292,0.1478119,0.9822998,29.3802,5.538559,-25.29128,3.637589,0.6305549,0.3421925,0.05385482,1.17758,-0.2462134,0.03109871,-0.02182602,0.0004048614,0.1717087,-23.22943,31.57
4,-0.116806,0.1459198,0.9823608,1.0,-0.03433228,0.1308594,0.990799,-26.7963,0.4429779,-24.27211,3.55275,0.3403999,0.5048435,1.0,-0.116806,0.1459198,0.9823608,29.41472,5.53891,-25.31508,3.636322,0.6297386,0.3426849,0.05301416,1.177683,-0.2468667,0.03053051,-0.02112522,0.0006573687,0.1717087,-23.22943,31.57
4,-0.1159058,0.1468353,0.9823303,1.0,-0.03530884,0.130188,0.9908447,-26.79431,0.4401703,-24.25043,3.554382,0.3405165,0.5048543,1.0,-0.1159058,0.1468353,0.9823303,29.42747,5.538727,-25.30318,3.641296,0.6291457,0.3424387,0.05220401,1.177798,-0.2474852,0.02987532,-0.0199528,0.001084985,0.1717087,-23.22943,31.57
4,-0.1159058,0.1468353,0.9823303,1.0,-0.03530884,0.130188,0.9908447,-26.79431,0.4401703,-24.25043,3.554382,0.3405165,0.5048543,1.0,-0.1159058,0.1468353,0.9823303,29.42747,5.538727,-25.30318,3.641296,0.6291457,0.3424387,0.05220401,1.177798,-0.2474852,0.02987532,-0.0199528,0.001084985,0.1717087,-23.22943,31.57
4,-0.1167908,0.1453094,0.9824677,1.0,-0.03529358,0.1279144,0.9911499,-26.79442,0.4635162,-24.30016,3.551956,0.3404684,0.5049021,1.0,-0.1167908,0.1453094,0.9824524,29.45009,5.530014,-25.28317,3.642426,0.6284989,0.3428518,0.05078948,1.178021,-0.2487265,0.02894277,-0.0173443,0.00300005,0.1717087,-23.22943,31.57
4,-0.1167908,0.1453094,0.9824677,1.0,-0.03529358,0.1279144,0.9911499,-26.79442,0.4635162,-24.30016,3.551956,0.3404684,0.5049021,1.0,-0.1167908,0.1453094,0.9824524,29.45009,5.530014,-25.28317,3.642426,0.6284989,0.3428518,0.05010378,1.178035,-0.2493304,0.02838364,-0.01592678,0.004483488,0.1717087,-23.22943,31.57
4,-0.1167908,0.1453094,0.9824677,1.0,-0.03529358,0.1279144,0.9911499,-26.79442,0.4635162,-24.30016,3.551956,0.3404684,0.5049021,1.0,-0.1167908,0.1453094,0.9824524,29.45009,5.530014,-25.28317,3.642426,0.6284989,0.3428518,0.05010378,1.178035,-0.2493304,0.02838364,-0.01592678,0.004483488,0.1717087,-19.33496,31.57
4,-0.1167908,0.1453094,0.9824677,1.0,-0.03529358,0.1279144,0.9911499,-26.79442,0.4635162,-24.30016,3.551956,0.3404684,0.5049021,1.0,-0.1167908,0.1453094,0.9824524,29.45009,5.530014,-25.28317,3.642426,0.6284989,0.3428518,0.04884005,1.17808,-0.2504095,0.02742564,-0.01308546,0.007502112,0.1717087,10.16742,31.57
4,-0.1167908,0.1453094,0.9824677,1.0,-0.03529358,0.1279144,0.9911499,-26.79442,0.4635162,-24.30016,3.551956,0.3404684,0.5049021,1.0,-0.1167908,0.1453094,0.9824524,29.45009,5.530014,-25.28317,3.642426,0.6284989,0.3428518,0.04884005,1.17808,-0.2504095,0.02742564,-0.01308546,0.007502112,0.1717087,10.16742,31.57
4,-0.1167908,0.1453094,0.9824677,1.0,-0.03529358,0.1279144,0.9911499,-26.79442,0.4635162,-24.30016,3.551956,0.3404684,0.5049021,1.0,-0.1167908,0.1453094,0.9824524,29.45009,5.530014,-25.28317,3.642426,0.6284989,0.3428518,0.04777527,1.178265,-0.2513363,0.02657883,-0.01032487,0.01023208,0.1717087,10.16742,31.57
4,-0.1182709,0.1464539,0.9821167,1.0,-0.03547668,0.1247253,0.9915466,-26.7963,0.4840546,-24.32076,3.551514,0.3405369,0.5049393,1.0,-0.1183624,0.1464844,0.9821014,29.45993,5.521484,-25.29128,3.647278,0.6284451,0.3430187,0.04727793,1.178345,-0.2516846,0.02594963,-0.008760194,0.01149018,0.1717087,10.16742,31.57
4,-0.1182709,0.1464539,0.9821167,1.0,-0.03547668,0.1247253,0.9915466,-26.7963,0.4840546,-24.32076,3.551514,0.3405369,0.5049393,1.0,-0.1183624,0.1464844,0.9821014,29.45993,5.521484,-25.29128,3.647278,0.6284451,0.3430187,0.04727793,1.178345,-0.2516846,0.02594963,-0.008760194,0.01149018,0.1717087,10.16742,31.57
4,-0.1182709,0.1464539,0.9821167,1.0,-0.03547668,0.1247253,0.9915466,-26.7963,0.4840546,-24.32076,3.551514,0.3405369,0.5049393,1.0,-0.1183624,0.1464844,0.9821014,29.45993,5.521484,-25.29128,3.647278,0.6284451,0.3430187,0.04679966,1.178492,-0.2520455,0.02537977,-0.00732727,0.01277313,0.1717087,10.16742,31.57
4,-0.1182709,0.1464539,0.9821167,1.0,-0.03547668,0.1247253,0.9915466,-26.7963,0.4840546,-24.32076,3.551514,0.3405369,0.5049393,1.0,-0.1183624,0.1464844,0.9821014,29.45993,5.521484,-25.29128,3.647278,0.6284451,0.3430187,0.04636443,1.178608,-0.2523562,0.02463614,-0.005916319,0.01387473,0.1717087,10.16742,31.57
4,-0.1182709,0.1464539,0.9821167,1.0,-0.03547668,0.1247253,0.9915466,-26.7963,0.4840546,-24.32076,3.551514,0.3405369,0.5049393,1.0,-0.1183624,0.1464844,0.9821014,29.45993,5.521484,-25.29128,3.647278,0.6284451,0.3430187,0.04533732,1.178936,-0.2528871,0.02318115,-0.003102604,0.01627248,0.1717087,10.16742,31.57
4,-0.1182709,0.1464539,0.9821167,1.0,-0.03547668,0.1247253,0.9915466,-26.7963,0.4840546,-24.32076,3.551514,0.3405369,0.5049393,1.0,-0.1183624,0.1464844,0.9821014,29.45993,5.521484,-25.29128,3.647278,0.6284451,0.3430187,0.04533732,1.178936,-0.2528871,0.02318115,-0.003102604,0.01627248,0.1717087,10.16742,31.57
4,-0.029953,0.1221924,0.9920502,1.0,-0.02352905,0.121048,0.9923553,-26.49219,0.4305878,-24.14116,3.537338,0.3287643,0.5055668,1.0,-0.08642578,0.1319733,0.9874725,29.69945,5.266113,-24.42889,3.545227,0.6138943,0.3471313,0.04491901,1.17915,-0.2530437,0.0222958,-0.001777371,0.0174146,0.1717087,10.16742,31.57
4,-0.01387024,0.1299286,0.9914246,1.0,-0.01383972,0.1299286,0.9914246,-26.27025,0.5619507,-24.24805,3.507996,0.3198253,0.5006901,1.0,-0.08074951,0.1399078,0.9868622,29.93248,5.62001,-25.24324,3.643417,0.6059999,0.3405674,0.04448807,1.179332,-0.2532039,0.02147952,-0.0005179005,0.0185964,0.1717087,10.16742,31.57
4,-4.577637e-05,0.1480408,0.9889679,1.0,-4.577637e-05,0.148056,0.9889679,-26.06253,0.7553558,-24.42151,3.524689,0.3105148,0.4928944,1.0,-0.06167603,0.1431732,0.9877625,30.04118,6.246674,-26.88876,3.646545,0.6009161,0.3314775,0.0436765,1.179759,-0.2534019,0.01977162,0.001514853,0.02102659,0.1717087,10.16742,31.57
4,0.008880615,0.1521759,0.9882965,1.0,0.008880615,0.1521759,0.9882965,-25.96188,0.7626953,-24.33319,3.463165,0.3058126,0.4910873,1.0,-0.05345154,0.147049,0.9876709,30.10228,6.335785,-27.12788,3.588516,0.5978118,0.3292274,0.04283524,1.180116,-0.2534169,0.0178832,0.003307182,0.02271623,0.1717087,10.16742,31.57
4,0.008880615,0.1521759,0.9882965,1.0,0.008880615,0.1521759,0.9882965,-25.96188,0.7626953,-24.33319,3.463165,0.3058126,0.4910873,1.0,-0.05345154,0.147049,0.9876709,30.10228,6.335785,-27.12788,3.588516,0.5978118,0.3292274,0.04283524,1.180116,-0.2534169,0.0178832,0.003307182,0.02271623,0.1717087,10.16742,31.57
4,0.01344299,0.158783,0.9872131,1.0,0.01344299,0.158783,0.9872131,-25.92224,0.6605988,-24.12198,3.55806,0.3039867,0.4915861,1.0,-0.0524292,0.1496124,0.9873505,30.13196,6.313171,-27.08473,3.646042,0.5965984,0.3292274,0.04206467,1.180421,-0.2532492,0.01614792,0.0045951,0.02392298,0.1717087,10.16742,31.57
4,0.01344299,0.158783,0.9872131,1.0,0.01344299,0.158783,0.9872131,-25.92224,0.6605988,-24.12198,3.55806,0.3039867,0.4915861,1.0,-0.0524292,0.1496124,0.9873505,30.13196,6.313171,-27.08473,3.646042,0.5965984,0.3292274,0.04206467,1.180421,-0.2532492,0.01614792,0.0045951,0.02392298,0.1717087,7.644196,31.57
4,0.004714966,0.1613007,0.9868774,1.0,0.004714966,0.1613007,0.9868774,-25.84612,0.570694,-23.87318,3.574585,0.3032857,0.4919454,1.0,-0.05123901,0.1497803,0.987381,30.18816,6.272812,-26.98732,3.607269,0.5943562,0.3298471,0.041327,1.180634,-0.2529767,0.01473111,0.005122592,0.02475982,0.1717087,-13.50131,31.53
4,0.004714966,0.1613007,0.9868774,1.0,0.004714966,0.1613007,0.9868774,-25.84612,0.570694,-23.87318,3.574585,0.3032857,0.4919454,1.0,-0.05123901,0.1497803,0.987381,30.18816,6.272812,-26.98732,3.607269,0.5943562,0.3298471,0.041327,1.180634,-0.2529767,0.01473111,0.005122592,0.02475982,0.1717087,-13.50131,31.53
4,-0.05342102,0.1473694,0.9876251,1.0,0.007598877,0.1610107,0.986908,-25.82716,0.5702972,-23.88438,3.576218,0.3021652,0.4920956,1.0,-0.05456543,0.1470947,0.9876099,30.21654,6.262894,-26.97392,3.595886,0.5939378,0.3305423,0.04052365,1.180797,-0.2525894,0.0132518,0.005189065,0.02545305,0.1717087,-13.50131,31.53
4,-0.05342102,0.1473694,0.9876251,1.0,0.007598877,0.1610107,0.986908,-25.82716,0.5702972,-23.88438,3.576218,0.3021652,0.4920956,1.0,-0.05456543,0.1470947,0.9876099,30.21654,6.262894,-26.97392,3.595886,0.5939378,0.3305423,0.04052365,1.180797,-0.2525894,0.0132518,0.005189065,0.02545305,0.1717087,-13.50131,31.53
4,-0.04364014,0.1401825,0.989151,1.0,0.005447388,0.1582642,0.9873657,-25.81589,0.5634918,-23.85455,3.598495,0.3021843,0.4925207,1.0,-0.05451965,0.1361084,0.9891815,30.24231,6.255142,-26.93341,3.574493,0.5929729,0.3323844,0.03982139,1.180808,-0.252295,0.01329278,0.004667494,0.02614129,0.1717087,-13.50131,31.53
4,-0.04364014,0.1401825,0.989151,1.0,0.005447388,0.1582642,0.9873657,-25.81589,0.5634918,-23.85455,3.598495,0.3021843,0.4925207,1.0,-0.05451965,0.1361084,0.9891815,30.24231,6.255142,-26.93341,3.574493,0.5929729,0.3323844,0.03982139,1.180808,-0.252295,0.01329278,0.004667494,0.02614129,0.1717087,-13.50131,31.53
4,0.00567627,0.1489868,0.9888153,1.0,0.01028442,0.1492004,0.988739,-25.81943,0.5158539,-23.93007,3.467987,0.3014029,0.496049,1.0,-0.05749512,0.1458282,0.9876251,30.29984,6.038361,-26.24512,3.571198,0.5908933,0.3327131,0.03904688,1.180549,-0.2520368,0.01405665,0.003351936,0.0266354,0.1717087,-13.50131,31.53
4,0.00567627,0.1489868,0.9888153,1.0,0.01028442,0.1492004,0.988739,-25.81943,0.5158539,-23.93007,3.467987,0.3014029,0.496049,1.0,-0.05749512,0.1458282,0.9876251,30.29984,6.038361,-26.24512,3.571198,0.5908933,0.3327131,0.03904688,1.180549,-0.2520368,0.01405665,0.003351936,0.0266354,0.1717087,-13.50131,31.53
4,0.01060486,0.1614075,0.9868164,1.0,0.01060486,0.1614075,0.9868164,-25.82774,0.4138794,-23.81332,3.601212,0.301737,0.4965085,1.0,-0.06549072,0.1519165,0.9862061,30.35709,5.787827,-25.45396,3.593613,0.5895102,0.3342782,0.03825963,1.180282,-0.2518539,0.01543695,0.001544081,0.02674371,0.1717087,-13.50131,31.53
4,0.01060486,0.1614075,0.9868164,1.0,0.01060486,0.1614075,0.9868164,-25.82774,0.4138794,-23.81332,3.601212,0.301737,0.4965085,1.0,-0.06549072,0.1519165,0.9862061,30.35709,5.787827,-25.45396,3.593613,0.5895102,0.3342782,0.03825963,1.180282,-0.2518539,0.01543695,0.001544081,0.02674371,0.1717087,-13.50131,31.53
4,0.0138855,0.1504669,0.9885101,1.0,0.0138855,0.1504669,0.9885101,-25.84715,0.3637085,-23.87347,3.552612,0.3017445,0.5003788,1.0,-0.05836487,0.1515198,0.9867249,30.36235,5.718658,-25.4084,3.591827,0.5880415,0.3363476,0.03735447,1.17989,-0.251765,0.01699892,-0.0007720405,0.02684881,0.1717087,-13.50131,31.53
4,0.0138855,0.1504669,0.9885101,1.0,0.0138855,0.1504669,0.9885101,-25.84715,0.3637085,-23.87347,3.552612,0.3017445,0.5003788,1.0,-0.05836487,0.1515198,0.9867249,30.36235,5.718658,-25.4084,3.591827,0.5880415,0.3363476,0.03735447,1.17989,-0.251765,0.01699892,-0.0007720405,0.02684881,0.1717087,-13.50131,31.53
5,0.01069641,0.1543732,0.9879456,1.0,0.01071167,0.1543732,0.9879456,-25.87155,0.391861,-24.08508,3.496262,0.3027915,0.5006278,1.0,-0.0587616,0.1414337,0.9881897,30.36235,5.642441,-25.39719,3.583649,0.5880415,0.3405277,0.0362457,1.179657,-0.2516873,0.01873411,-0.004392835,0.02702941,0.1717087,-13.50131,31.53
5,0.01069641,0.1543732,0.9879456,1.0,0.01071167,0.1543732,0.9879456,-25.87155,0.391861,-24.08508,3.496262,0.3027915,0.5006278,1.0,-0.0587616,0.1414337,0.9881897,30.36235,5.642441,-25.39719,3.583649,0.5880415,0.3405277,0.0362457,1.179657,-0.2516873,0.01873411,-0.004392835,0.02702941,0.1717087,-13.50131,31.53
5,-0.04554749,0.1356812,0.9897003,1.0,0.01148987,0.1611633,0.9868469,-25.90469,0.345108,-23.91612,3.565948,0.3039496,0.4996504,1.0,-0.05895996,0.1296082,0.9898071,30.36235,5.642441,-25.39719,3.588577,0.5880415,0.3425273,0.03499031,1.179219,-0.2516331,0.02027286,-0.009241134,0.02749781,0.1717087,76.38879,31.53
5,-0.04554749,0.1356812,0.9897003,1.0,0.01148987,0.1611633,0.9868469,-25.90469,0.345108,-23.91612,3.565948,0.3039496,0.4996504,1.0,-0.05895996,0.1296082,0.9898071,30.36235,5.642441,-25.39719,3.588577,0.5880415,0.3425273,0.03499031,1.179219,-0.2516331,0.02027286,-0.009241134,0.02749781,0.1717087,76.38879,31.53
5,-0.04840088,0.136322,0.9894714,1.0,0.007995605,0.1498108,0.988678,-25.97127,0.3824005,-23.80212,3.588989,0.3068838,0.4993419,1.0,-0.05961609,0.1335754,0.9892426,30.36137,5.601517,-25.41173,3.582199,0.5881928,0.3433484,0.03362906,1.17894,-0.2514397,0.02175011,-0.01570633,0.02812522,0.1717087,76.38879,31.53
5,-0.04840088,0.136322,0.9894714,1.0,0.007995605,0.1498108,0.988678,-25.97127,0.3824005,-23.80212,3.588989,0.3068838,0.4993419,1.0,-0.05961609,0.1335754,0.9892426,30.36137,5.601517,-25.41173,3.582199,0.5881928,0.3433484,0.03362906,1.17894,-0.2514397,0.02175011,-0.01570633,0.02812522,0.1717087,76.38879,31.53
5,0.004013062,0.1516724,0.9884186,1.0,0.006759644,0.1512451,0.9884644,-26.08061,0.5258942,-23.843,3.404312,0.3107351,0.4946609,1.0,-0.05723572,0.1609039,0.9853058,30.0052,5.406555,-24.62549,3.642227,0.5990212,0.3392796,0.03188276,1.178706,-0.2512309,0.02349909,-0.02398985,0.02943844,0.1717087,76.38879,31.53
5,0.004013062,0.1516724,0.9884186,1.0,0.006759644,0.1512451,0.9884644,-26.08061,0.5258942,-23.843,3.404312,0.3107351,0.4946609,1.0,-0.05723572,0.1609039,0.9853058,30.0052,5.406555,-24.62549,3.642227,0.5990212,0.3392796,0.03188276,1.178706,-0.2512309,0.02349909,-0.02398985,0.02943844,0.1717087,76.38879,31.53
5,-0.004226685,0.1499329,0.988678,1.0,-0.004074097,0.1499176,0.988678,-26.1633,0.6325378,-23.95901,3.447098,0.3150821,0.4925034,1.0,-0.07173157,0.1571198,0.9849548,29.96275,5.488113,-24.83928,3.663483,0.6031109,0.3388751,0.02977455,1.178424,-0.2508387,0.02569834,-0.03521575,0.03063187,0.1717087,76.38879,31.53
5,-0.004226685,0.1499329,0.988678,1.0,-0.004074097,0.1499176,0.988678,-26.1633,0.6325378,-23.95901,3.447098,0.3150821,0.4925034,1.0,-0.07173157,0.1571198,0.9849548,29.96275,5.488113,-24.83928,3.663483,0.6031109,0.3388751,0.02977455,1.178424,-0.2508387,0.02569834,-0.03521575,0.03063187,0.1717087,76.38879,31.53
5,-0.02484131,0.1600647,0.9867859,1.0,-0.02468872,0.16008,0.9867859,-26.24002,0.6521454,-23.94463,3.587967,0.3210405,0.4903183,1.0,-0.07403564,0.1593628,0.984436,29.86246,5.422882,-24.68379,3.506882,0.6066812,0.3393764,0.02722228,1.177797,-0.2504674,0.02896747,-0.04906741,0.03199127,0.1717087,76.38879,31.53
5,-0.02484131,0.1600647,0.9867859,1.0,-0.02468872,0.16008,0.9867859,-26.24002,0.6521454,-23.94463,3.587967,0.3210405,0.4903183,1.0,-0.07403564,0.1593628,0.984436,29.86246,5.422882,-24.68379,3.506882,0.6066812,0.3393764,0.02722228,1.177797,-0.2504674,0.02896747,-0.04906741,0.03199127,0.1717087,76.38879,31.53
5,-0.06481934,0.1685638,0.983551,1.0,-0.01741028,0.1563263,0.9875488,-26.41705,0.5288391,-23.68732,3.462952,0.3259393,0.4925779,1.0,-0.08712769,0.1741943,0.980835,29.75354,5.389908,-24.93196,3.547058,0.6128357,0.3399934,0.02411449,1.176757,-0.2501791,0.03428221,-0.0659861,0.03458556,0.1717087,76.38879,31.53
5,-0.06481934,0.1685638,0.983551,1.0,-0.01741028,0.1563263,0.9875488,-26.41705,0.5288391,-23.68732,3.462952,0.3259393,0.4925779,1.0,-0.08712769,0.1741943,0.980835,29.75354,5.389908,-24.93196,3.547058,0.6128357,0.3399934,0.02411449,1.176757,-0.2501791,0.03428221,-0.0659861,0.03458556,0.1717087,76.38879,31.53
5,-0.03370667,0.1584167,0.9867859,1.0,-0.03329468,0.1583557,0.9868164,-26.53725,0.6198578,-24.14993,3.444931,0.3320002,0.4933668,1.0,-0.1239166,0.172699,0.9771423,29.73643,5.451401,-25.47447,3.680389,0.6203842,0.3424207,0.02049339,1.175214,-0.2500236,0.04187617,-0.08659002,0.03891938,0.1717087,76.38879,31.53
5,-0.03370667,0.1584167,0.9867859,1.0,-0.03329468,0.1583557,0.9868164,-26.53725,0.6198578,-24.14993,3.444931,0.3320002,0.4933668,1.0,-0.1239166,0.172699,0.9771423,29.73643,5.451401,-25.47447,3.680389,0.6203842,0.3424207,0.02049339,1.175214,-0.2500236,0.04187617,-0.08659002,0.03891938,0.1717087,76.38879,31.53
5,0.02252197,0.1413422,0.9897003,1.0,0.02252197,0.1413422,0.9897003,-25.69124,0.1999359,-23.82089,3.531769,0.295196,0.5066389,1.0,-0.04344177,0.1279449,0.9908142,30.61928,5.194656,-25.70929,3.420029,0.5768793,0.3601286,0.01634538,1.17321,-0.2500645,0.05150832,-0.1112318,0.04413733,0.1717087,76.38879,31.53
5,0.02252197,0.1413422,0.9897003,1.0,0.02252197,0.1413422,0.9897003,-25.69124,0.1999359,-23.82089,3.531769,0.295196,0.5066389,1.0,-0.04344177,0.1279449,0.9908142,30.61928,5.194656,-25.70929,3.420029,0.5768793,0.3601286,0.01634538,1.17321,-0.2500645,0.05150832,-0.1112318,0.04413733,0.1717087,76.38879,31.53
5,0.1178284,0.1331482,0.9840546,1.0,0.1178284,0.1331482,0.9840546,-24.65216,0.02702332,-24.32799,3.562103,0.2432323,0.5177909,1.0,0.0614624,0.05255127,0.9967194,31.73605,5.936569,-30.1105,3.092468,0.5231445,0.3833665,0.01172876,1.170917,-0.2501268,0.0623477,-0.1388379,0.04934057,0.1717087,72.672,31.53
5,0.1178284,0.1331482,0.9840546,1.0,0.1178284,0.1331482,0.9840546,-24.65216,0.02702332,-24.32799,3.562103,0.2432323,0.5177909,1.0,0.0614624,0.05255127,0.9967194,31.73605,5.936569,-30.1105,3.092468,0.5231445,0.3833665,0.01172876,1.170917,-0.2501268,0.0623477,-0.1388379,0.04934057,0.1717087,72.672,31.53
5,0.2069855,0.07427979,0.9755096,0.6549754,0.2069855,0.07427979,0.9755096,-24.04967,-0.4698486,-24.31339,3.59346,0.2072298,0.544032,0.8063087,0.1763153,0.01200867,0.9842529,31.96254,4.580338,-26.17137,3.36264,0.4944782,0.4041254,0.006952643,1.16842,-0.2505875,0.07394812,-0.168093,0.05413195,0.1717087,72.672,31.53
