Second,eye_comb_direction_x,eye_comb_direction_y,eye_comb_direction_z,eye_r_openness,eye_r_direction_x,eye_r_direction_y,eye_r_direction_z,eye_r_origin_x,eye_r_origin_y,eye_r_origin_z,eye_r_pupil_diameter,eye_r_pupil_position_x,eye_r_pupil_position_y,eye_l_openness,eye_l_direction_x,eye_l_direction_y,eye_l_direction_z,eye_l_origin_x,eye_l_origin_y,eye_l_origin_z,eye_l_pupil_diameter,eye_l_pupil_position_x,eye_l_pupil_position_y,head_position_x,head_position_y,head_position_z,head_rotation_roll,head_rotation_pitch,head_rotation_yaw,EDA,BVP,TMP
0,0.0,0.0,0.0,0.0,0.0,0.0,0.0,0.0,0.0,0.0,0.0,0.0,0.0,0.0,0.0,0.0,0.0,0.0,0.0,0.0,0.0,0.0,0.0,0.0,0.0,0.0,0.0,0.0,0.0,0.20836388284195262,-0.12671201986466885,30.666853552440795
0,-0.6266785,-0.03662109,0.7783966,1.0,-0.6266785,-0.03662109,0.7783966,-30.31784,-0.0949707,-26.58438,4.987244,0.5550554,0.5833544,1.0,0.0,0.0,0.0,25.60623,4.813599,-27.4399,-1.0,0.8738273,0.4194665,0.1048049,1.188843,-0.2523388,0.01005284,0.4053475,0.06560391,0.20836388284195262,-0.12671201986466885,30.666853552440795
1,-0.4946289,-0.009048462,0.8690491,1.0,-0.4946289,-0.009048462,0.8690491,-29.6409,-0.1660614,-26.09804,4.88652,0.5088224,0.5720765,1.0,0.0,0.0,0.0,26.57155,4.705917,-27.09314,-1.0,0.8355967,0.3972811,0.1211321,1.197499,-0.2988726,0.01099785,0.7590231,0.03839863,0.20836388284195262,-0.12671201986466885,30.666853552440795
1,-0.4946289,-0.009048462,0.8690491,1.0,-0.4946289,-0.009048462,0.8690491,-29.6409,-0.1660614,-26.09804,4.88652,0.5088224,0.5720765,1.0,0.0,0.0,0.0,26.57155,4.705917,-27.09314,-1.0,0.8355967,0.3972811,0.1211321,1.197499,-0.2988726,0.01099785,0.7590231,0.03839863,0.20836388284195262,-0.12671201986466885,30.666853552440795
1,-0.4946289,-0.009048462,0.8690491,1.0,-0.4946289,-0.009048462,0.8690491,-29.6409,-0.1660614,-26.09804,4.88652,0.5088224,0.5720765,1.0,0.0,0.0,0.0,26.57155,4.705917,-27.09314,-1.0,0.8355967,0.3972811,0.1211321,1.197499,-0.2988726,0.01099785,0.7590231,0.03839863,0.20836388284195262,-0.12671201986466885,30.666853552440795
1,-0.4946289,-0.009048462,0.8690491,1.0,-0.4946289,-0.009048462,0.8690491,-29.6409,-0.1660614,-26.09804,4.88652,0.5088224,0.5720765,1.0,0.0,0.0,0.0,26.57155,4.705917,-27.09314,-1.0,0.8355967,0.3972811,0.1211321,1.197499,-0.2988726,0.01099785,0.7590231,0.03839863,0.20836388284195262,-0.12671201986466885,30.666853552440795
1,-0.4946289,-0.009048462,0.8690491,1.0,-0.4946289,-0.009048462,0.8690491,-29.6409,-0.1660614,-26.09804,4.88652,0.5088224,0.5720765,1.0,0.0,0.0,0.0,26.57155,4.705917,-27.09314,-1.0,0.8355967,0.3972811,0.1211321,1.197499,-0.2988726,0.01099785,0.7590231,0.03839863,0.20836388284195262,-0.12671201986466885,30.666853552440795
1,-0.4946289,-0.009048462,0.8690491,1.0,-0.4946289,-0.009048462,0.8690491,-29.6409,-0.1660614,-26.09804,4.88652,0.5088224,0.5720765,1.0,0.0,0.0,0.0,26.57155,4.705917,-27.09314,-1.0,0.8355967,0.3972811,0.1211321,1.197499,-0.2988726,0.01099785,0.7590231,0.03839863,0.20836388284195262,-0.12671201986466885,30.666853552440795
1,-0.4946289,-0.009048462,0.8690491,1.0,-0.4946289,-0.009048462,0.8690491,-29.6409,-0.1660614,-26.09804,4.88652,0.5088224,0.5720765,1.0,0.0,0.0,0.0,26.57155,4.705917,-27.09314,-1.0,0.8355967,0.3972811,0.1211321,1.197499,-0.2988726,0.01099785,0.7590231,0.03839863,0.20836388284195262,-0.12671201986466885,30.666853552440795
1,-0.4946289,-0.009048462,0.8690491,1.0,-0.4946289,-0.009048462,0.8690491,-29.6409,-0.1660614,-26.09804,4.88652,0.5088224,0.5720765,1.0,0.0,0.0,0.0,26.57155,4.705917,-27.09314,-1.0,0.8355967,0.3972811,0.1211321,1.197499,-0.2988726,0.01099785,0.7590231,0.03839863,0.20836388284195262,-0.12671201986466885,30.666853552440795
1,-0.4946289,-0.009048462,0.8690491,1.0,-0.4946289,-0.009048462,0.8690491,-29.6409,-0.1660614,-26.09804,4.88652,0.5088224,0.5720765,1.0,0.0,0.0,0.0,26.57155,4.705917,-27.09314,-1.0,0.8355967,0.3972811,0.1211321,1.197499,-0.2988726,0.01099785,0.7590231,0.03839863,0.20836388284195262,-0.12671201986466885,30.666853552440795
1,0.1846924,0.02607727,0.9824371,0.9782774,0.1860962,0.02642822,0.9821625,-26.0322,-0.6552582,-24.34651,4.657639,0.2777321,0.5596228,0.8549874,0.05982971,-0.005523682,0.9981842,30.23933,4.889679,-26.80038,4.013031,0.5728699,0.402196,0.04641593,1.192197,-0.1899432,-0.0006224389,0.04381117,0.04762276,0.2242465,-0.12671201986466885,30.666853552440795
1,0.1846924,0.02607727,0.9824371,0.9782774,0.1860962,0.02642822,0.9821625,-26.0322,-0.6552582,-24.34651,4.657639,0.2777321,0.5596228,0.8549874,0.05982971,-0.005523682,0.9981842,30.23933,4.889679,-26.80038,4.013031,0.5728699,0.402196,0.04641593,1.192197,-0.1899432,-0.0006224389,0.04381117,0.04762276,0.2242465,-0.12671201986466885,30.666853552440795
1,0.1846924,0.02607727,0.9824371,0.9782774,0.1860962,0.02642822,0.9821625,-26.0322,-0.6552582,-24.34651,4.657639,0.2777321,0.5596228,0.8549874,0.05982971,-0.005523682,0.9981842,30.23933,4.889679,-26.80038,4.013031,0.5728699,0.402196,0.04641593,1.192197,-0.1899432,-0.0006224389,0.04381117,0.04762276,0.2242465,-0.12671201986466885,30.666853552440795
1,0.1846924,0.02607727,0.9824371,0.9782774,0.1860962,0.02642822,0.9821625,-26.0322,-0.6552582,-24.34651,4.657639,0.2777321,0.5596228,0.8549874,0.05982971,-0.005523682,0.9981842,30.23933,4.889679,-26.80038,4.013031,0.5728699,0.402196,0.04641593,1.192197,-0.1899432,-0.0006224389,0.04381117,0.04762276,0.2242465,-0.12671201986466885,30.666853552440795
1,0.1846924,0.02607727,0.9824371,0.9782774,0.1860962,0.02642822,0.9821625,-26.0322,-0.6552582,-24.34651,4.657639,0.2777321,0.5596228,0.8549874,0.05982971,-0.005523682,0.9981842,30.23933,4.889679,-26.80038,4.013031,0.5728699,0.402196,0.04641593,1.192197,-0.1899432,-0.0006224389,0.04381117,0.04762276,0.2242465,-0.12671201986466885,30.666853552440795
1,0.00163269,-0.00617981,0.9999695,1.0,0.00163269,-0.00617981,0.9999695,-27.21748,-0.07315063,-25.48354,4.592392,0.346422,0.5562099,1.0,-0.04714966,-0.001068115,0.9988861,28.83977,4.633652,-24.82639,4.275726,0.6359591,0.3940168,0.04638731,1.190908,-0.1932542,0.004911719,0.01027641,0.04274222,0.2242465,-0.12671201986466885,30.666853552440795
1,0.00163269,-0.00617981,0.9999695,1.0,0.00163269,-0.00617981,0.9999695,-27.21748,-0.07315063,-25.48354,4.592392,0.346422,0.5562099,1.0,-0.04714966,-0.001068115,0.9988861,28.83977,4.633652,-24.82639,4.275726,0.6359591,0.3940168,0.04638731,1.190908,-0.1932542,0.004911719,0.01027641,0.04274222,0.2242465,-0.12671201986466885,30.666853552440795
1,0.00163269,-0.00617981,0.9999695,1.0,0.00163269,-0.00617981,0.9999695,-27.21748,-0.07315063,-25.48354,4.592392,0.346422,0.5562099,1.0,-0.04714966,-0.001068115,0.9988861,28.83977,4.633652,-24.82639,4.275726,0.6359591,0.3940168,0.04638731,1.190908,-0.1932542,0.004911719,0.01027641,0.04274222,0.2242465,-0.12671201986466885,30.666853552440795
1,-0.04368591,0.01620483,0.9989014,1.0,-0.0138092,0.01815796,0.9997253,-27.49945,-0.3114014,-24.63287,4.624954,0.3590156,0.5522413,1.0,-0.06840515,0.01457214,0.9975433,28.63786,4.587921,-24.52794,4.276505,0.6459188,0.3905254,0.04724514,1.190314,-0.1950626,0.007999099,-0.001208434,0.04220209,0.2242465,-0.12671201986466885,30.666853552440795
1,-0.09527588,0.01446533,0.9953308,0.9771901,-0.03575134,0.01525879,0.9992371,-27.52635,-0.2688904,-24.70177,4.659836,0.3634683,0.5520293,0.9656135,-0.0954895,0.01445007,0.9953156,28.6402,4.66571,-24.71883,4.215729,0.6506435,0.3895259,0.04838109,1.189685,-0.1970979,0.01078925,-0.0108127,0.04092579,0.2242465,-0.12671201986466885,30.666853552440795
1,-0.09527588,0.01446533,0.9953308,0.9771901,-0.03575134,0.01525879,0.9992371,-27.52635,-0.2688904,-24.70177,4.659836,0.3634683,0.5520293,0.9656135,-0.0954895,0.01445007,0.9953156,28.6402,4.66571,-24.71883,4.215729,0.6506435,0.3895259,0.04838109,1.189685,-0.1970979,0.01078925,-0.0108127,0.04092579,0.2242465,-0.12671201986466885,30.666853552440795
1,-0.05838013,-0.005966187,0.9982758,0.9211274,-0.04528809,-0.008056641,0.9989319,-27.64917,-0.01919556,-25.03183,4.644623,0.3687702,0.5507782,0.9392416,-0.1266022,0.004943848,0.9919281,28.70135,5.128555,-26.14986,4.246735,0.6560253,0.3872309,0.04959738,1.189163,-0.1992868,0.01284119,-0.01700856,0.03731001,0.2242465,-0.12671201986466885,30.666853552440795
1,-0.05838013,-0.005966187,0.9982758,0.9211274,-0.04528809,-0.008056641,0.9989319,-27.64917,-0.01919556,-25.03183,4.644623,0.3687702,0.5507782,0.9392416,-0.1266022,0.004943848,0.9919281,28.70135,5.128555,-26.14986,4.246735,0.6560253,0.3872309,0.04959738,1.189163,-0.1992868,0.01284119,-0.01700856,0.03731001,0.2242465,-0.12671201986466885,30.666853552440795
1,-0.0602417,-0.008804321,0.9981384,0.913749,-0.05145264,-0.01342773,0.9985809,-27.82088,0.1191559,-25.43329,4.604279,0.3751435,0.5508636,0.9331565,-0.12323,0.02444458,0.9920654,28.45993,4.735229,-24.36516,4.333908,0.6609445,0.3827959,0.05029333,1.189026,-0.2004039,0.01397372,-0.01913041,0.03531695,0.2242465,-0.12671201986466885,30.666853552440795
1,-0.0602417,-0.008804321,0.9981384,0.913749,-0.05145264,-0.01342773,0.9985809,-27.82088,0.1191559,-25.43329,4.604279,0.3751435,0.5508636,0.9331565,-0.12323,0.02444458,0.9920654,28.45993,4.735229,-24.36516,4.333908,0.6609445,0.3827959,0.0529213,1.188783,-0.2036877,0.0168156,-0.02284118,0.02992242,0.2242465,-0.12671201986466885,30.666853552440795
1,-0.0602417,-0.008804321,0.9981384,0.913749,-0.05145264,-0.01342773,0.9985809,-27.82088,0.1191559,-25.43329,4.604279,0.3751435,0.5508636,0.9331565,-0.12323,0.02444458,0.9920654,28.45993,4.735229,-24.36516,4.333908,0.6609445,0.3827959,0.0529213,1.188783,-0.2036877,0.0168156,-0.02284118,0.02992242,0.2242465,-0.12671201986466885,30.666853552440795
1,-0.0602417,-0.008804321,0.9981384,0.913749,-0.05145264,-0.01342773,0.9985809,-27.82088,0.1191559,-25.43329,4.604279,0.3751435,0.5508636,0.9331565,-0.12323,0.02444458,0.9920654,28.45993,4.735229,-24.36516,4.333908,0.6609445,0.3827959,0.0529213,1.188783,-0.2036877,0.0168156,-0.02284118,0.02992242,0.2242465,-0.12671201986466885,30.666853552440795
1,-0.0602417,-0.008804321,0.9981384,0.913749,-0.05145264,-0.01342773,0.9985809,-27.82088,0.1191559,-25.43329,4.604279,0.3751435,0.5508636,0.9331565,-0.12323,0.02444458,0.9920654,28.45993,4.735229,-24.36516,4.333908,0.6609445,0.3827959,0.05386972,1.188856,-0.2047048,0.01756965,-0.02436763,0.02805441,0.2242465,-0.12671201986466885,30.666853552440795
1,-0.06410217,-0.01057434,0.997879,0.913749,-0.05769348,-0.01216125,0.9982452,-27.92004,0.2001953,-25.589,4.630524,0.379347,0.5494949,0.9331565,-0.1344452,0.007064819,0.9908905,28.40819,4.737534,-24.28134,4.14389,0.6643623,0.3849398,0.05564201,1.188863,-0.2068504,0.01822122,-0.02672058,0.02279187,0.2242465,-0.12671201986466885,30.666853552440795
1,-0.06410217,-0.01057434,0.997879,0.913749,-0.05769348,-0.01216125,0.9982452,-27.92004,0.2001953,-25.589,4.630524,0.379347,0.5494949,0.9331565,-0.1344452,0.007064819,0.9908905,28.40819,4.737534,-24.28134,4.14389,0.6643623,0.3849398,0.05564201,1.188863,-0.2068504,0.01822122,-0.02672058,0.02279187,0.2242465,-0.12671201986466885,30.666853552440795
1,-0.06004333,0.005523682,0.9981689,0.9419158,-0.05810547,0.005371094,0.998291,-28.01131,0.1797791,-25.50945,4.49559,0.3825622,0.546435,0.9474259,-0.137207,0.01159668,0.9904633,28.35167,4.720718,-24.18877,4.236389,0.6665925,0.3840473,0.05712378,1.189044,-0.2089518,0.01680186,-0.02698582,0.01595109,0.2242465,-0.12671201986466885,30.666853552440795
1,-0.06004333,0.005523682,0.9981689,0.9419158,-0.05810547,0.005371094,0.998291,-28.01131,0.1797791,-25.50945,4.49559,0.3825622,0.546435,0.9474259,-0.137207,0.01159668,0.9904633,28.35167,4.720718,-24.18877,4.236389,0.6665925,0.3840473,0.05785728,1.189102,-0.2100934,0.01620963,-0.02622297,0.0123942,0.2242465,-0.12671201986466885,30.666853552440795
1,-0.06004333,0.005523682,0.9981689,0.9419158,-0.05810547,0.005371094,0.998291,-28.01131,0.1797791,-25.50945,4.49559,0.3825622,0.546435,0.9474259,-0.137207,0.01159668,0.9904633,28.35167,4.720718,-24.18877,4.236389,0.6665925,0.3840473,0.05785728,1.189102,-0.2100934,0.01620963,-0.02622297,0.0123942,0.2242465,-0.12671201986466885,30.666853552440795
1,-0.06004333,0.005523682,0.9981689,0.9419158,-0.05810547,0.005371094,0.998291,-28.01131,0.1797791,-25.50945,4.49559,0.3825622,0.546435,0.9474259,-0.137207,0.01159668,0.9904633,28.35167,4.720718,-24.18877,4.236389,0.6665925,0.3840473,0.05937684,1.189148,-0.2123216,0.01492456,-0.0241958,0.006648071,0.2242465,-54.93163,30.666853552440795
1,-0.09375,-0.001754761,0.9955902,1.0,-0.09352112,-0.002029419,0.9956055,-28.31757,0.7513885,-26.57195,4.65657,0.3978712,0.5389805,1.0,-0.1685638,0.08717346,0.9818268,28.29979,4.884766,-25.11089,4.595734,0.6754173,0.3736143,0.06008899,1.189157,-0.2133878,0.01440119,-0.02292258,0.004295071,0.2242465,-54.93163,30.666853552440795
1,-0.09375,-0.001754761,0.9955902,1.0,-0.09352112,-0.002029419,0.9956055,-28.31757,0.7513885,-26.57195,4.65657,0.3978712,0.5389805,1.0,-0.1685638,0.08717346,0.9818268,28.29979,4.884766,-25.11089,4.595734,0.6754173,0.3736143,0.06008899,1.189157,-0.2133878,0.01440119,-0.02292258,0.004295071,0.2242465,-54.93163,30.666853552440795
2,-0.1004333,0.0009155273,0.9949341,1.0,-0.1004028,0.000869751,0.9949341,-28.2366,0.5614319,-25.92004,4.754852,0.396629,0.5388607,1.0,-0.1700592,0.09457397,0.9808807,28.34555,4.828094,-25.01724,4.652695,0.6740589,0.3734914,0.06120753,1.189113,-0.2158607,0.01347039,-0.02061326,-0.0002729575,0.2242465,-54.93163,30.666853552440795
2,-0.1004333,0.0009155273,0.9949341,1.0,-0.1004028,0.000869751,0.9949341,-28.2366,0.5614319,-25.92004,4.754852,0.396629,0.5388607,1.0,-0.1700592,0.09457397,0.9808807,28.34555,4.828094,-25.01724,4.652695,0.6740589,0.3734914,0.06194627,1.189171,-0.2169498,0.01329334,-0.01925038,-0.002180246,0.2242465,-54.93163,30.666853552440795
2,-0.1004333,0.0009155273,0.9949341,1.0,-0.1004028,0.000869751,0.9949341,-28.2366,0.5614319,-25.92004,4.754852,0.396629,0.5388607,1.0,-0.1700592,0.09457397,0.9808807,28.34555,4.828094,-25.01724,4.652695,0.6740589,0.3734914,0.06194627,1.189171,-0.2169498,0.01329334,-0.01925038,-0.002180246,0.2242465,-54.93163,30.666853552440795
2,-0.1043701,-0.001937866,0.9945221,1.0,-0.1042938,-0.002075195,0.9945374,-28.16873,0.523056,-25.76196,4.705399,0.395128,0.5391112,1.0,-0.1683502,0.1032562,0.9803009,28.42944,4.398651,-23.55977,4.437134,0.6686744,0.3746088,0.06246638,1.189072,-0.2181725,0.01335708,-0.01751486,-0.004057806,0.2242465,-54.93163,30.666853552440795
2,-0.0758667,-0.004074097,0.9971008,1.0,-0.07496643,-0.0050354,0.9971619,-27.92763,0.912796,-26.78134,4.698639,0.3816817,0.5359434,1.0,-0.1747131,0.1005249,0.9794617,28.80872,4.362274,-23.37758,4.667404,0.6565043,0.3753891,0.06364977,1.188848,-0.2204947,0.01401737,-0.01334425,-0.005861918,0.2242465,-54.93163,30.666853552440795
2,-0.0758667,-0.004074097,0.9971008,1.0,-0.07496643,-0.0050354,0.9971619,-27.92763,0.912796,-26.78134,4.698639,0.3816817,0.5359434,1.0,-0.1747131,0.1005249,0.9794617,28.80872,4.362274,-23.37758,4.667404,0.6565043,0.3753891,0.06364977,1.188848,-0.2204947,0.01401737,-0.01334425,-0.005861918,0.2242465,-54.93163,30.666853552440795
2,-0.08555603,0.02270508,0.9960632,1.0,-0.08016968,0.01554871,0.9966583,-27.38962,0.03225708,-24.20335,4.725418,0.3665769,0.5377732,1.0,-0.1261902,0.07699585,0.9889984,29.15381,4.465622,-23.71223,4.678146,0.6372961,0.3783109,0.06405306,1.188089,-0.2232268,0.01699322,-0.009066957,-0.00523481,0.2242465,-54.93163,30.666853552440795
2,-0.08555603,0.02270508,0.9960632,1.0,-0.08016968,0.01554871,0.9966583,-27.38962,0.03225708,-24.20335,4.725418,0.3665769,0.5377732,1.0,-0.1261902,0.07699585,0.9889984,29.15381,4.465622,-23.71223,4.678146,0.6372961,0.3783109,0.06405306,1.188089,-0.2232268,0.01699322,-0.009066957,-0.00523481,0.2242465,-54.93163,30.666853552440795
2,-0.08555603,0.02270508,0.9960632,1.0,-0.08016968,0.01554871,0.9966583,-27.38962,0.03225708,-24.20335,4.725418,0.3665769,0.5377732,1.0,-0.1261902,0.07699585,0.9889984,29.15381,4.465622,-23.71223,4.678146,0.6372961,0.3783109,0.06447756,1.187167,-0.2261546,0.02406334,-0.005455054,-0.002770216,0.2242465,-54.93163,30.666853552440795
2,-0.08555603,0.02270508,0.9960632,1.0,-0.08016968,0.01554871,0.9966583,-27.38962,0.03225708,-24.20335,4.725418,0.3665769,0.5377732,1.0,-0.1261902,0.07699585,0.9889984,29.15381,4.465622,-23.71223,4.678146,0.6372961,0.3783109,0.06447756,1.187167,-0.2261546,0.02406334,-0.005455054,-0.002770216,0.2242465,-54.93163,30.666853552440795
2,-0.08555603,0.02270508,0.9960632,1.0,-0.08016968,0.01554871,0.9966583,-27.38962,0.03225708,-24.20335,4.725418,0.3665769,0.5377732,1.0,-0.1261902,0.07699585,0.9889984,29.15381,4.465622,-23.71223,4.678146,0.6372961,0.3783109,0.06460118,1.186548,-0.2277368,0.02826,-0.00402832,-0.001407783,0.2242465,-54.93163,30.666853552440795
2,-0.08555603,0.02270508,0.9960632,1.0,-0.08016968,0.01554871,0.9966583,-27.38962,0.03225708,-24.20335,4.725418,0.3665769,0.5377732,1.0,-0.1261902,0.07699585,0.9889984,29.15381,4.465622,-23.71223,4.678146,0.6372961,0.3783109,0.06452298,1.184966,-0.2311145,0.03801976,-0.002244235,0.002724111,0.2242465,-54.93163,30.666853552440795
2,-0.08555603,0.02270508,0.9960632,1.0,-0.08016968,0.01554871,0.9966583,-27.38962,0.03225708,-24.20335,4.725418,0.3665769,0.5377732,1.0,-0.1261902,0.07699585,0.9889984,29.15381,4.465622,-23.71223,4.678146,0.6372961,0.3783109,0.06452298,1.184966,-0.2311145,0.03801976,-0.002244235,0.002724111,0.2242465,-54.93163,30.666853552440795
2,-0.01249695,0.004196167,0.9999084,1.0,-0.01174927,0.003097534,0.9999237,-26.27831,0.2864838,-25.65222,4.772461,0.3173198,0.5443499,1.0,-0.03953552,0.04414368,0.99823,30.0231,4.678741,-24.72784,4.529526,0.5950575,0.3844238,0.06424892,1.183654,-0.2343644,0.04536271,-0.001642288,0.007527889,0.2242465,-41.35942,30.666853552440795
2,-0.01249695,0.004196167,0.9999084,1.0,-0.01174927,0.003097534,0.9999237,-26.27831,0.2864838,-25.65222,4.772461,0.3173198,0.5443499,1.0,-0.03953552,0.04414368,0.99823,30.0231,4.678741,-24.72784,4.529526,0.5950575,0.3844238,0.0639987,1.183322,-0.2357782,0.0475758,-0.001434001,0.00945395,0.2242465,-41.35942,30.666853552440795
2,-0.01249695,0.004196167,0.9999084,1.0,-0.01174927,0.003097534,0.9999237,-26.27831,0.2864838,-25.65222,4.772461,0.3173198,0.5443499,1.0,-0.03953552,0.04414368,0.99823,30.0231,4.678741,-24.72784,4.529526,0.5950575,0.3844238,0.0639987,1.183322,-0.2357782,0.0475758,-0.001434001,0.00945395,0.2242465,-41.35942,30.666853552440795
2,-0.01249695,0.004196167,0.9999084,1.0,-0.01174927,0.003097534,0.9999237,-26.27831,0.2864838,-25.65222,4.772461,0.3173198,0.5443499,1.0,-0.03953552,0.04414368,0.99823,30.0231,4.678741,-24.72784,4.529526,0.5950575,0.3844238,0.06370282,1.183175,-0.2372401,0.04879836,-0.001407784,0.01074427,0.2242465,-41.35942,30.666853552440795
2,-0.01205444,0.01683044,0.9997711,1.0,-0.01156616,0.01618958,0.9998016,-26.25491,0.1020355,-25.33054,4.705719,0.3167348,0.5452202,1.0,-0.04402161,0.05815125,0.9973297,30.04871,4.617599,-24.76012,4.602432,0.5950339,0.3843663,0.06277561,1.183217,-0.2398564,0.04789421,-0.0008631675,0.01168182,0.2242465,-41.35942,30.666853552440795
2,0.0004425049,0.1126862,0.9936218,1.0,0.02078247,0.08610535,0.9960632,-25.51218,-0.2285004,-23.54845,4.714615,0.289433,0.5282081,1.0,0.0004425049,0.1126862,0.9936218,30.70781,4.504913,-23.78714,4.505096,0.5650806,0.3712523,0.06227887,1.183619,-0.2410806,0.04564973,-0.0008097229,0.01146292,0.2242465,-41.35942,30.666853552440795
2,0.0004425049,0.1126862,0.9936218,1.0,0.02078247,0.08610535,0.9960632,-25.51218,-0.2285004,-23.54845,4.714615,0.289433,0.5282081,1.0,0.0004425049,0.1126862,0.9936218,30.70781,4.504913,-23.78714,4.505096,0.5650806,0.3712523,0.06227887,1.183619,-0.2410806,0.04564973,-0.0008097229,0.01146292,0.2242465,-41.35942,30.666853552440795
2,-0.004989624,0.1173553,0.9930725,1.0,0.02914429,0.1027832,0.9942627,-25.55177,0.1825409,-23.42442,4.602921,0.2897842,0.5110021,1.0,-0.004989624,0.1173553,0.9930725,30.69795,4.951965,-23.65393,4.406677,0.5663155,0.3546697,0.061252,1.184677,-0.243427,0.04041726,-0.001158061,0.01096868,0.2242465,-41.35942,30.666853552440795
2,-0.004989624,0.1173553,0.9930725,1.0,0.02914429,0.1027832,0.9942627,-25.55177,0.1825409,-23.42442,4.602921,0.2897842,0.5110021,1.0,-0.004989624,0.1173553,0.9930725,30.69795,4.951965,-23.65393,4.406677,0.5663155,0.3546697,0.061252,1.184677,-0.243427,0.04041726,-0.001158061,0.01096868,0.2242465,-41.35942,30.666853552440795
2,-0.0002593994,0.1109009,0.9938202,1.0,0.02990723,0.09182739,0.9953156,-25.48569,0.4027863,-23.42052,4.602936,0.2875916,0.5055934,1.0,-0.0002746582,0.1109161,0.9938202,30.79646,5.128906,-23.61406,4.470398,0.5622932,0.3496516,0.06059325,1.185278,-0.2447001,0.03746485,-0.001871302,0.01093807,0.2242465,-41.35942,30.666853552440795
2,0.05297852,0.1720581,0.9836578,1.0,0.05209351,0.1269684,0.9905243,-25.05704,1.067184,-24.70862,4.571823,0.2676388,0.4893145,1.0,0.05299377,0.1730042,0.98349,31.0724,5.501282,-24.29109,4.408447,0.544871,0.3323627,0.0590905,1.186487,-0.2474871,0.03210936,-0.004573973,0.01107279,0.2242465,-41.35942,30.666853552440795
2,0.1063843,0.2248688,0.9685516,1.0,0.1005096,0.1893768,0.9767303,-24.64565,1.435959,-24.91153,4.619995,0.2448431,0.4685268,1.0,0.1063843,0.224884,0.9685516,31.24535,5.859283,-24.54457,4.389511,0.5304542,0.3135334,0.05826426,1.187114,-0.2489324,0.02937079,-0.006414212,0.01131441,0.2242465,-41.35942,30.666853552440795
2,0.1063843,0.2248688,0.9685516,1.0,0.1005096,0.1893768,0.9767303,-24.64565,1.435959,-24.91153,4.619995,0.2448431,0.4685268,1.0,0.1063843,0.224884,0.9685516,31.24535,5.859283,-24.54457,4.389511,0.5304542,0.3135334,0.05826426,1.187114,-0.2489324,0.02937079,-0.006414212,0.01131441,0.2242465,-41.35942,30.666853552440795
2,0.1164093,0.2791443,0.9531555,1.0,0.1224976,0.2360687,0.963974,-24.48625,1.686203,-25.03067,4.560242,0.2351585,0.4534584,1.0,0.116394,0.2792053,0.9531403,31.29218,6.09111,-24.63419,4.328995,0.5272661,0.2972414,0.05742872,1.187744,-0.2504072,0.02665469,-0.008351786,0.01159668,0.2242465,-41.35942,30.666853552440795
2,0.1131592,0.2878113,0.9509735,1.0,0.1149445,0.2425385,0.9633026,-24.52652,1.617508,-25.02959,4.50499,0.2378576,0.4546252,1.0,0.1130829,0.2893372,0.9505157,31.25293,6.014481,-24.63643,4.345108,0.5291188,0.2981623,0.05568635,1.189187,-0.2531862,0.02063999,-0.01262056,0.01242901,0.2242465,-72.80627,30.666853552440795
2,0.1131592,0.2878113,0.9509735,1.0,0.1149445,0.2425385,0.9633026,-24.52652,1.617508,-25.02959,4.50499,0.2378576,0.4546252,1.0,0.1130829,0.2893372,0.9505157,31.25293,6.014481,-24.63643,4.345108,0.5291188,0.2981623,0.05568635,1.189187,-0.2531862,0.02063999,-0.01262056,0.01242901,0.2242465,-72.80627,30.666853552440795
2,0.1161804,0.2290497,0.9664459,1.0,0.1177521,0.2252197,0.9671478,-24.67838,1.532715,-24.97926,4.574661,0.2427271,0.460029,1.0,0.09405518,0.2819214,0.9548035,31.25993,5.867142,-24.60463,4.331482,0.5320524,0.3041201,0.05335701,1.190098,-0.2562891,0.01455301,-0.01722317,0.01360468,0.2242465,-72.80627,30.666853552440795
2,0.1161804,0.2290497,0.9664459,1.0,0.1177521,0.2252197,0.9671478,-24.67838,1.532715,-24.97926,4.574661,0.2427271,0.460029,1.0,0.09405518,0.2819214,0.9548035,31.25993,5.867142,-24.60463,4.331482,0.5320524,0.3041201,0.05335701,1.190098,-0.2562891,0.01455301,-0.01722317,0.01360468,0.2242465,-72.80627,30.666853552440795
2,0.1161804,0.2290497,0.9664459,1.0,0.1177521,0.2252197,0.9671478,-24.67838,1.532715,-24.97926,4.574661,0.2427271,0.460029,1.0,0.09405518,0.2819214,0.9548035,31.25993,5.867142,-24.60463,4.331482,0.5320524,0.3041201,0.05156827,1.191029,-0.2590709,0.009488562,-0.02222417,0.01525928,0.2242465,-72.80627,30.666853552440795
2,0.1161804,0.2290497,0.9664459,1.0,0.1177521,0.2252197,0.9671478,-24.67838,1.532715,-24.97926,4.574661,0.2427271,0.460029,1.0,0.09405518,0.2819214,0.9548035,31.25993,5.867142,-24.60463,4.331482,0.5320524,0.3041201,0.05066597,1.191382,-0.2604319,0.007446289,-0.02471705,0.01582824,0.2242465,-72.80627,30.666853552440795
2,0.1161804,0.2290497,0.9664459,1.0,0.1177521,0.2252197,0.9671478,-24.67838,1.532715,-24.97926,4.574661,0.2427271,0.460029,1.0,0.09405518,0.2819214,0.9548035,31.25993,5.867142,-24.60463,4.331482,0.5320524,0.3041201,0.05066597,1.191382,-0.2604319,0.007446289,-0.02471705,0.01582824,0.2242465,-72.80627,30.666853552440795
2,0.1161804,0.2290497,0.9664459,1.0,0.1177521,0.2252197,0.9671478,-24.67838,1.532715,-24.97926,4.574661,0.2427271,0.460029,1.0,0.09405518,0.2819214,0.9548035,31.25993,5.867142,-24.60463,4.331482,0.5320524,0.3041201,0.04907393,1.191922,-0.2630773,0.00366211,-0.02922456,0.01632642,0.2242465,-72.80627,30.666853552440795
2,0.1161804,0.2290497,0.9664459,1.0,0.1177521,0.2252197,0.9671478,-24.67838,1.532715,-24.97926,4.574661,0.2427271,0.460029,1.0,0.09405518,0.2819214,0.9548035,31.25993,5.867142,-24.60463,4.331482,0.5320524,0.3041201,0.04907393,1.191922,-0.2630773,0.00366211,-0.02922456,0.01632642,0.2242465,-72.80627,30.666853552440795
2,0.1018219,0.2580414,0.9607391,1.0,0.1180573,0.2268524,0.9667358,-24.74493,1.483932,-24.97137,4.653259,0.244948,0.4614499,1.0,0.08843994,0.2833252,0.9549255,31.21614,5.807968,-24.59792,4.312439,0.5344375,0.3058084,0.04826736,1.192136,-0.2643268,0.001855308,-0.03132739,0.01631318,0.2242465,-72.80627,30.666853552440795
2,0.1018219,0.2580414,0.9607391,1.0,0.1180573,0.2268524,0.9667358,-24.74493,1.483932,-24.97137,4.653259,0.244948,0.4614499,1.0,0.08843994,0.2833252,0.9549255,31.21614,5.807968,-24.59792,4.312439,0.5344375,0.3058084,0.04676831,1.192701,-0.266639,-0.001013992,-0.03518569,0.01656967,0.2242465,-72.80627,30.666853552440795
2,0.1018219,0.2580414,0.9607391,1.0,0.1180573,0.2268524,0.9667358,-24.74493,1.483932,-24.97137,4.653259,0.244948,0.4614499,1.0,0.08843994,0.2833252,0.9549255,31.21614,5.807968,-24.59792,4.312439,0.5344375,0.3058084,0.04676831,1.192701,-0.266639,-0.001013992,-0.03518569,0.01656967,0.2242465,-72.80627,30.666853552440795
2,0.1018219,0.2580414,0.9607391,1.0,0.1180573,0.2268524,0.9667358,-24.74493,1.483932,-24.97137,4.653259,0.244948,0.4614499,1.0,0.08843994,0.2833252,0.9549255,31.21614,5.807968,-24.59792,4.312439,0.5344375,0.3058084,0.04609811,1.192818,-0.2677324,-0.002142325,-0.03685634,0.01656922,0.2242465,-72.80627,30.666853552440795
2,0.09664917,0.2498474,0.9634399,1.0,0.1085358,0.2228241,0.9687805,-24.81099,1.42926,-24.95116,4.468445,0.2489818,0.4635841,1.0,0.08647156,0.272644,0.9582062,31.17342,5.746368,-24.57129,4.338333,0.5361733,0.309499,0.0442754,1.193351,-0.2706039,-0.005102189,-0.04076874,0.01675835,0.2242465,-72.80627,30.666853552440795
2,0.09664917,0.2498474,0.9634399,1.0,0.1085358,0.2228241,0.9687805,-24.81099,1.42926,-24.95116,4.468445,0.2489818,0.4635841,1.0,0.08647156,0.272644,0.9582062,31.17342,5.746368,-24.57129,4.338333,0.5361733,0.309499,0.0442754,1.193351,-0.2706039,-0.005102189,-0.04076874,0.01675835,0.2242465,-72.80627,30.666853552440795
2,0.09664917,0.2498474,0.9634399,1.0,0.1085358,0.2228241,0.9687805,-24.81099,1.42926,-24.95116,4.468445,0.2489818,0.4635841,1.0,0.08647156,0.272644,0.9582062,31.17342,5.746368,-24.57129,4.338333,0.5361733,0.309499,0.0442754,1.193351,-0.2706039,-0.005102189,-0.04076874,0.01675835,0.2242465,-72.80627,30.666853552440795
2,0.06254578,0.1711121,0.9832611,1.0,0.06254578,0.1711121,0.9832611,-25.49628,0.6231232,-23.64977,4.350479,0.2822435,0.4874187,1.0,0.03851318,0.2156982,0.9756927,30.55141,5.011337,-22.85201,4.201721,0.5635193,0.3305224,0.04303467,1.19345,-0.2723352,-0.006743763,-0.04245485,0.01691103,0.2242465,-104.6978,30.666853552440795
2,0.06254578,0.1711121,0.9832611,1.0,0.06254578,0.1711121,0.9832611,-25.49628,0.6231232,-23.64977,4.350479,0.2822435,0.4874187,1.0,0.03851318,0.2156982,0.9756927,30.55141,5.011337,-22.85201,4.201721,0.5635193,0.3305224,0.04303467,1.19345,-0.2723352,-0.006743763,-0.04245485,0.01691103,0.2242465,-104.6978,30.666853552440795
2,0.05169678,0.1569214,0.9862518,1.0,0.05169678,0.1569061,0.9862518,-25.57561,0.6096954,-23.61958,4.33345,0.286738,0.4899042,1.0,0.03700256,0.2029572,0.9784851,30.48062,4.961868,-22.6631,4.221329,0.5659507,0.3327988,0.04264152,1.193622,-0.2730217,-0.007392061,-0.04316545,0.01696338,0.2242465,-104.6978,30.666853552440795
2,0.04159546,0.1977844,0.9793549,1.0,0.04995728,0.1454926,0.9880829,-25.67747,0.5137024,-23.37166,4.282318,0.2907632,0.4926783,1.0,0.0411377,0.2006226,0.9787903,30.42453,4.920746,-22.50119,4.215866,0.5669758,0.3333386,0.0418998,1.193947,-0.2742348,-0.007970173,-0.04398277,0.01745093,0.2242465,-104.6978,30.666853552440795
2,0.04159546,0.1977844,0.9793549,1.0,0.04995728,0.1454926,0.9880829,-25.67747,0.5137024,-23.37166,4.282318,0.2907632,0.4926783,1.0,0.0411377,0.2006226,0.9787903,30.42453,4.920746,-22.50119,4.215866,0.5669758,0.3333386,0.0418998,1.193947,-0.2742348,-0.007970173,-0.04398277,0.01745093,0.2242465,-104.6978,30.666853552440795
2,0.0196228,0.1689453,0.9854279,1.0,0.05345154,0.1476898,0.9875793,-25.74033,0.4368439,-23.30348,4.367172,0.2923513,0.4943423,1.0,0.01324463,0.1729126,0.9848328,30.41884,4.959229,-22.64909,4.208771,0.5718281,0.3376796,0.04158056,1.194085,-0.2748162,-0.008336608,-0.04438864,0.01776532,0.2242465,-104.6978,30.666853552440795
2,0.02198792,0.1626892,0.9864197,1.0,0.04995728,0.1356201,0.9894867,-25.75385,0.4722443,-23.49637,4.40741,0.2930931,0.4968587,1.0,0.009140015,0.1750183,0.9845123,30.40384,4.916702,-22.63799,4.154404,0.5729784,0.3385706,0.04105794,1.194414,-0.2757947,-0.008669571,-0.04479032,0.0187369,0.2242465,-104.6978,30.666853552440795
2,0.02198792,0.1626892,0.9864197,1.0,0.04995728,0.1356201,0.9894867,-25.75385,0.4722443,-23.49637,4.40741,0.2930931,0.4968587,1.0,0.009140015,0.1750183,0.9845123,30.40384,4.916702,-22.63799,4.154404,0.5729784,0.3385706,0.04105794,1.194414,-0.2757947,-0.008669571,-0.04479032,0.0187369,0.2242465,-104.6978,30.666853552440795
2,0.02638245,0.1551514,0.9875336,1.0,0.04560852,0.1404724,0.9890289,-25.78996,0.3296814,-23.44121,4.36467,0.2950372,0.5001737,1.0,0.003875732,0.1722107,0.9850464,30.3851,4.812408,-22.83464,4.1996,0.5745776,0.3439691,0.04090548,1.194509,-0.2762425,-0.008748278,-0.04502922,0.01909298,0.2242465,-104.6978,30.666853552440795
2,0.03363037,0.1374664,0.9899292,1.0,0.04318237,0.1286011,0.9907532,-25.81905,0.3134308,-23.61185,4.304993,0.2961303,0.5040421,1.0,0.002151489,0.1664734,0.9860382,30.37582,4.735016,-22.9566,4.153549,0.5752256,0.3483083,0.04039395,1.194613,-0.2772105,-0.008957832,-0.04566817,0.0194345,0.2242465,-104.6978,30.666853552440795
2,0.02603149,0.1329041,0.9907837,1.0,0.03474426,0.1244354,0.9916077,-25.83134,0.2446594,-23.4838,4.396896,0.2980661,0.5059168,1.0,-0.005081177,0.1630096,0.9866028,30.36363,4.71022,-22.9482,4.119141,0.5768008,0.349591,0.04024732,1.194669,-0.2776084,-0.009165034,-0.0459946,0.01957659,0.2242465,-104.6978,30.666853552440795
2,0.02603149,0.1329041,0.9907837,1.0,0.03474426,0.1244354,0.9916077,-25.83134,0.2446594,-23.4838,4.396896,0.2980661,0.5059168,1.0,-0.005081177,0.1630096,0.9866028,30.36363,4.71022,-22.9482,4.119141,0.5768008,0.349591,0.04024732,1.194669,-0.2776084,-0.009165034,-0.0459946,0.01957659,0.2242465,-104.6978,30.666853552440795
2,0.02825928,0.1325989,0.9907532,1.0,0.03764343,0.1274872,0.9911194,-25.83043,0.2251129,-23.47791,4.376953,0.2976001,0.505991,1.0,-0.006774902,0.1515045,0.9884186,30.37013,4.724808,-23.03418,4.132996,0.5769155,0.3516663,0.03993428,1.194779,-0.278406,-0.009580771,-0.04655731,0.01968628,0.2242465,-104.6978,30.666853552440795
2,0.04193115,0.1463623,0.988327,1.0,0.04646301,0.1422882,0.9887238,-25.67839,0.3406677,-23.51527,4.344879,0.2911139,0.5001148,1.0,0.01838684,0.1674042,0.9857025,30.53239,4.864395,-23.14142,4.194534,0.5675696,0.3453501,0.03985059,1.194818,-0.278922,-0.01020365,-0.04705158,0.01959029,0.2242465,-104.6978,30.666853552440795
2,0.04193115,0.1463623,0.988327,1.0,0.04646301,0.1422882,0.9887238,-25.67839,0.3406677,-23.51527,4.344879,0.2911139,0.5001148,1.0,0.01838684,0.1674042,0.9857025,30.53239,4.864395,-23.14142,4.194534,0.5675696,0.3453501,0.03985059,1.194818,-0.278922,-0.01020365,-0.04705158,0.01959029,0.2242465,70.90683,30.666853552440795
2,0.04193115,0.1463623,0.988327,1.0,0.04646301,0.1422882,0.9887238,-25.67839,0.3406677,-23.51527,4.344879,0.2911139,0.5001148,1.0,0.01838684,0.1674042,0.9857025,30.53239,4.864395,-23.14142,4.194534,0.5675696,0.3453501,0.03985059,1.194818,-0.278922,-0.01020365,-0.04705158,0.01959029,0.2242465,70.90683,30.666853552440795
2,0.04193115,0.1463623,0.988327,1.0,0.04646301,0.1422882,0.9887238,-25.67839,0.3406677,-23.51527,4.344879,0.2911139,0.5001148,1.0,0.01838684,0.1674042,0.9857025,30.53239,4.864395,-23.14142,4.194534,0.5675696,0.3453501,0.03975475,1.194903,-0.2792354,-0.01091898,-0.04752895,0.01944753,0.2242465,70.90683,30.666853552440795
2,0.04193115,0.1463623,0.988327,1.0,0.04646301,0.1422882,0.9887238,-25.67839,0.3406677,-23.51527,4.344879,0.2911139,0.5001148,1.0,0.01838684,0.1674042,0.9857025,30.53239,4.864395,-23.14142,4.194534,0.5675696,0.3453501,0.03996265,1.19497,-0.2793822,-0.01193296,-0.04746762,0.01920349,0.2242465,70.90683,30.666853552440795
2,0.04193115,0.1463623,0.988327,1.0,0.04646301,0.1422882,0.9887238,-25.67839,0.3406677,-23.51527,4.344879,0.2911139,0.5001148,1.0,0.01838684,0.1674042,0.9857025,30.53239,4.864395,-23.14142,4.194534,0.5675696,0.3453501,0.03996265,1.19497,-0.2793822,-0.01193296,-0.04746762,0.01920349,0.2242465,70.90683,30.666853552440795
2,0.05334473,0.2766571,0.9594727,1.0,0.08946228,0.2116852,0.9732208,-25.2249,1.102112,-24.19231,4.45018,0.2676232,0.46987,1.0,0.05334473,0.2766571,0.9594727,30.66971,5.473862,-23.43207,4.186096,0.5577254,0.3095386,0.0402422,1.195059,-0.2793924,-0.01236531,-0.04717145,0.01907932,0.2242465,70.90683,30.666853552440795
2,0.05307007,0.2711945,0.9610443,1.0,0.09010315,0.2231903,0.9705963,-25.25375,1.098282,-24.19537,4.422485,0.2685909,0.4682185,1.0,0.05305481,0.2712097,0.9610443,30.67101,5.455322,-23.42831,4.202454,0.55773,0.3109982,0.04065669,1.195096,-0.2793202,-0.01227823,-0.04646584,0.01873889,0.2242465,70.90683,30.666853552440795
2,0.05307007,0.2711945,0.9610443,1.0,0.09010315,0.2231903,0.9705963,-25.25375,1.098282,-24.19537,4.422485,0.2685909,0.4682185,1.0,0.05305481,0.2712097,0.9610443,30.67101,5.455322,-23.42831,4.202454,0.55773,0.3109982,0.04065669,1.195096,-0.2793202,-0.01227823,-0.04646584,0.01873889,0.2242465,70.90683,30.666853552440795
2,0.05307007,0.2711945,0.9610443,1.0,0.09010315,0.2231903,0.9705963,-25.25375,1.098282,-24.19537,4.422485,0.2685909,0.4682185,1.0,0.05305481,0.2712097,0.9610443,30.67101,5.455322,-23.42831,4.202454,0.55773,0.3109982,0.04127479,1.195201,-0.2791475,-0.01196351,-0.04550211,0.01836296,0.2242465,70.90683,30.666853552440795
2,0.05307007,0.2711945,0.9610443,1.0,0.09010315,0.2231903,0.9705963,-25.25375,1.098282,-24.19537,4.422485,0.2685909,0.4682185,1.0,0.05305481,0.2712097,0.9610443,30.67101,5.455322,-23.42831,4.202454,0.55773,0.3109982,0.04127479,1.195201,-0.2791475,-0.01196351,-0.04550211,0.01836296,0.2242465,70.90683,30.666853552440795
2,0.05307007,0.2711945,0.9610443,1.0,0.09010315,0.2231903,0.9705963,-25.25375,1.098282,-24.19537,4.422485,0.2685909,0.4682185,1.0,0.05305481,0.2712097,0.9610443,30.67101,5.455322,-23.42831,4.202454,0.55773,0.3109982,0.04205287,1.195177,-0.2789998,-0.01183327,-0.0441488,0.01824573,0.2242465,70.90683,30.666853552440795
2,0.05307007,0.2711945,0.9610443,1.0,0.09010315,0.2231903,0.9705963,-25.25375,1.098282,-24.19537,4.422485,0.2685909,0.4682185,1.0,0.05305481,0.2712097,0.9610443,30.67101,5.455322,-23.42831,4.202454,0.55773,0.3109982,0.04205287,1.195177,-0.2789998,-0.01183327,-0.0441488,0.01824573,0.2242465,70.90683,30.666853552440795
2,0.08999634,0.1957703,0.9765015,1.0,0.08999634,0.1957703,0.9765015,-25.52423,1.155029,-24.43413,4.359497,0.2773267,0.4728986,1.0,0.0,0.0,0.0,30.72214,5.693192,-24.35587,-1.0,0.555908,0.3259469,0.04301143,1.1952,-0.2788317,-0.01219909,-0.04248099,0.01805031,0.2242465,70.90683,30.666853552440795
2,0.08999634,0.1957703,0.9765015,1.0,0.08999634,0.1957703,0.9765015,-25.52423,1.155029,-24.43413,4.359497,0.2773267,0.4728986,1.0,0.0,0.0,0.0,30.72214,5.693192,-24.35587,-1.0,0.555908,0.3259469,0.04301143,1.1952,-0.2788317,-0.01219909,-0.04248099,0.01805031,0.2242465,70.90683,30.666853552440795
2,-1.0,-1.0,-1.0,0.0,0.0,0.0,0.0,-25.72292,1.668945,-25.62653,-1.0,-1.0,-1.0,0.0,0.0,0.0,0.0,30.30206,3.738144,-23.29021,-1.0,-1.0,-1.0,0.04398167,1.195151,-0.2787786,-0.01259456,-0.04049185,0.01723268,0.2242465,70.90683,30.666853552440795
2,-1.0,-1.0,-1.0,0.0,0.0,0.0,0.0,-25.72292,1.668945,-25.62653,-1.0,-1.0,-1.0,0.0,0.0,0.0,0.0,30.30206,3.738144,-23.29021,-1.0,-1.0,-1.0,0.04398167,1.195151,-0.2787786,-0.01259456,-0.04049185,0.01723268,0.2242465,70.90683,30.666853552440795
2,-1.0,-1.0,-1.0,0.0,0.0,0.0,0.0,-25.72292,1.668945,-25.62653,-1.0,-1.0,-1.0,0.0,0.0,0.0,0.0,30.30206,3.738144,-23.29021,-1.0,-1.0,-1.0,0.04525006,1.195151,-0.2785971,-0.01299633,-0.03842734,0.01608598,0.2242465,75.47092,30.666853552440795
2,-1.0,-1.0,-1.0,0.0,0.0,0.0,0.0,-25.72292,1.668945,-25.62653,-1.0,-1.0,-1.0,0.0,0.0,0.0,0.0,30.30206,3.738144,-23.29021,-1.0,-1.0,-1.0,0.04525006,1.195151,-0.2785971,-0.01299633,-0.03842734,0.01608598,0.2242465,75.47092,30.666853552440795
2,-1.0,-1.0,-1.0,0.0,0.0,0.0,0.0,-25.72292,1.668945,-25.62653,-1.0,-1.0,-1.0,0.0,0.0,0.0,0.0,30.30206,3.738144,-23.29021,-1.0,-1.0,-1.0,0.04634583,1.194875,-0.2786572,-0.01138792,-0.03647942,0.01525781,0.2242465,75.47092,30.666853552440795
2,-1.0,-1.0,-1.0,0.0,0.0,0.0,0.0,-25.72292,1.668945,-25.62653,-1.0,-1.0,-1.0,0.0,0.0,0.0,0.0,30.30206,3.738144,-23.29021,-1.0,-1.0,-1.0,0.04634583,1.194875,-0.2786572,-0.01138792,-0.03647942,0.01525781,0.2242465,75.47092,30.666853552440795
2,-1.0,-1.0,-1.0,0.0,0.0,0.0,0.0,-25.72292,1.668945,-25.62653,-1.0,0.4014569,0.6441865,0.0,0.0,0.0,0.0,30.30206,3.738144,-23.29021,-1.0,-1.0,-1.0,0.04717124,1.194385,-0.2787608,-0.009715908,-0.03461786,0.01401046,0.2242465,75.47092,31.51
2,-1.0,-1.0,-1.0,0.0,0.0,0.0,0.0,-25.72292,1.668945,-25.62653,-1.0,0.4014569,0.6441865,0.0,0.0,0.0,0.0,30.30206,3.738144,-23.29021,-1.0,-1.0,-1.0,0.04717124,1.194385,-0.2787608,-0.009715908,-0.03461786,0.01401046,0.2242465,75.47092,31.51
2,-1.0,-1.0,-1.0,0.2413915,0.0,0.0,0.0,-25.32764,1.296402,-24.23515,-1.0,0.2648976,0.4616269,0.2069287,0.0,0.0,0.0,31.17274,1.380341,-19.61186,-1.0,0.5370902,0.3967783,0.04840052,1.194466,-0.278605,-0.009427116,-0.03257242,0.01291409,0.2242465,75.47092,31.51
2,-1.0,-1.0,-1.0,0.2413915,0.0,0.0,0.0,-25.32764,1.296402,-24.23515,-1.0,0.2648976,0.4616269,0.2069287,0.0,0.0,0.0,31.17274,1.380341,-19.61186,-1.0,0.5370902,0.3967783,0.04840052,1.194466,-0.278605,-0.009427116,-0.03257242,0.01291409,0.2242465,75.47092,31.51
2,-1.0,-1.0,-1.0,0.7739924,0.0,0.0,0.0,-25.47116,0.6568756,-24.15633,-1.0,0.2638144,0.4675759,0.6519639,0.0,0.0,0.0,30.93875,5.59938,-23.48758,-1.0,0.5430717,0.3169601,0.04925215,1.194301,-0.2786657,-0.009889956,-0.0304467,0.01155484,0.2242465,75.47092,31.51
2,-1.0,-1.0,-1.0,0.7739924,0.0,0.0,0.0,-25.47116,0.6568756,-24.15633,-1.0,0.2638144,0.4675759,0.6519639,0.0,0.0,0.0,30.93875,5.59938,-23.48758,-1.0,0.5430717,0.3169601,0.04925215,1.194301,-0.2786657,-0.009889956,-0.0304467,0.01155484,0.2242465,75.47092,31.51
2,0.09519958,0.220459,0.9707336,1.0,0.09519958,0.220459,0.9707336,-25.1274,1.059555,-24.35225,4.558823,0.2631544,0.4713355,1.0,0.07054138,0.2455292,0.9668121,31.00763,5.362549,-23.5425,4.273788,0.5437171,0.3192124,0.05047989,1.19444,-0.278603,-0.01041039,-0.02899138,0.01059624,0.2242465,75.47092,31.51
2,0.09519958,0.220459,0.9707336,1.0,0.09519958,0.220459,0.9707336,-25.1274,1.059555,-24.35225,4.558823,0.2631544,0.4713355,1.0,0.07054138,0.2455292,0.9668121,31.00763,5.362549,-23.5425,4.273788,0.5437171,0.3192124,0.05047989,1.19444,-0.278603,-0.01041039,-0.02899138,0.01059624,0.2242465,75.47092,31.51
2,0.1197052,0.2106476,0.9701996,1.0,0.1197052,0.2106476,0.9701996,-25.2132,0.9518433,-24.25429,4.632462,0.2620344,0.4757757,1.0,0.07504272,0.2473145,0.9660187,31.00632,5.230225,-23.6597,4.160431,0.5429993,0.3240703,0.05153561,1.194481,-0.2787266,-0.01043897,-0.02780069,0.009531652,0.2242465,75.47092,31.51
2,0.1197052,0.2106476,0.9701996,1.0,0.1197052,0.2106476,0.9701996,-25.2132,0.9518433,-24.25429,4.632462,0.2620344,0.4757757,1.0,0.07504272,0.2473145,0.9660187,31.00632,5.230225,-23.6597,4.160431,0.5429993,0.3240703,0.05153561,1.194481,-0.2787266,-0.01043897,-0.02780069,0.009531652,0.2242465,75.47092,31.51
2,0.09892273,0.2298431,0.9681702,1.0,0.1143799,0.2098389,0.9710083,-25.2256,0.8820953,-24.30502,4.536377,0.2632394,0.4784936,1.0,0.07839966,0.2560425,0.9634705,31.02623,5.13826,-23.72792,4.235138,0.5418122,0.3262769,0.052405,1.194602,-0.2788687,-0.01030754,-0.02704732,0.008135783,0.2242465,29.80489,31.51
2,0.09892273,0.2298431,0.9681702,1.0,0.1143799,0.2098389,0.9710083,-25.2256,0.8820953,-24.30502,4.536377,0.2632394,0.4784936,1.0,0.07839966,0.2560425,0.9634705,31.02623,5.13826,-23.72792,4.235138,0.5418122,0.3262769,0.052405,1.194602,-0.2788687,-0.01030754,-0.02704732,0.008135783,0.2242465,29.80489,31.51
2,0.09892273,0.2298431,0.9681702,1.0,0.1143799,0.2098389,0.9710083,-25.2256,0.8820953,-24.30502,4.536377,0.2632394,0.4784936,1.0,0.07839966,0.2560425,0.9634705,31.02623,5.13826,-23.72792,4.235138,0.5418122,0.3262769,0.052405,1.194602,-0.2788687,-0.01030754,-0.02704732,0.008135783,0.2242465,29.80489,31.51
3,0.0864563,0.2371063,0.9676208,1.0,0.1055603,0.2101898,0.9719391,-25.14233,0.8018494,-24.39125,4.621521,0.2617802,0.4818574,1.0,0.06132507,0.2719116,0.9603577,31.04726,4.985214,-23.59172,4.300964,0.5438946,0.3277726,0.05261815,1.19425,-0.2793744,-0.01040609,-0.02686462,0.007379956,0.2242465,29.80489,31.51
3,0.0864563,0.2371063,0.9676208,1.0,0.1055603,0.2101898,0.9719391,-25.14233,0.8018494,-24.39125,4.621521,0.2617802,0.4818574,1.0,0.06132507,0.2719116,0.9603577,31.04726,4.985214,-23.59172,4.300964,0.5438946,0.3277726,0.05261815,1.19425,-0.2793744,-0.01040609,-0.02686462,0.007379956,0.2242465,29.80489,31.51
3,0.08230591,0.2420959,0.9667511,1.0,0.1035614,0.2059937,0.973053,-25.15109,0.7948914,-24.39621,4.605209,0.2624192,0.482792,1.0,0.0630188,0.2742767,0.9595795,31.04822,4.963837,-23.59325,4.297958,0.5435734,0.3281022,0.05311394,1.194176,-0.2797562,-0.01035801,-0.02702031,0.006941928,0.2242465,29.80489,31.51
3,0.08230591,0.2420959,0.9667511,1.0,0.1035614,0.2059937,0.973053,-25.15109,0.7948914,-24.39621,4.605209,0.2624192,0.482792,1.0,0.0630188,0.2742767,0.9595795,31.04822,4.963837,-23.59325,4.297958,0.5435734,0.3281022,0.05311394,1.194176,-0.2797562,-0.01035801,-0.02702031,0.006941928,0.2242465,29.80489,31.51
3,0.08425903,0.2282562,0.9699402,1.0,0.09738159,0.2046509,0.9739685,-25.15685,0.7938538,-24.39293,4.605087,0.26367,0.4830095,1.0,0.05973816,0.2715759,0.960556,31.04628,4.954605,-23.59018,4.311066,0.5441843,0.3288419,0.05374312,1.193991,-0.2801123,-0.01033208,-0.02734103,0.006645829,0.2242465,29.80489,31.51
3,0.08425903,0.2282562,0.9699402,1.0,0.09738159,0.2046509,0.9739685,-25.15685,0.7938538,-24.39293,4.605087,0.26367,0.4830095,1.0,0.05973816,0.2715759,0.960556,31.04628,4.954605,-23.59018,4.311066,0.5441843,0.3288419,0.05420864,1.19415,-0.2803271,-0.01073247,-0.02750079,0.006639099,0.2242465,29.80489,31.51
3,0.08425903,0.2282562,0.9699402,1.0,0.09738159,0.2046509,0.9739685,-25.15685,0.7938538,-24.39293,4.605087,0.26367,0.4830095,1.0,0.05973816,0.2715759,0.960556,31.04628,4.954605,-23.59018,4.311066,0.5441843,0.3288419,0.05420864,1.19415,-0.2803271,-0.01073247,-0.02750079,0.006639099,0.2242465,29.80489,31.51
3,0.08425903,0.2282562,0.9699402,1.0,0.09738159,0.2046509,0.9739685,-25.15685,0.7938538,-24.39293,4.605087,0.26367,0.4830095,1.0,0.05973816,0.2715759,0.960556,31.04628,4.954605,-23.59018,4.311066,0.5441843,0.3288419,0.05450308,1.194241,-0.2806149,-0.01132231,-0.02786547,0.006610984,0.2242465,29.80489,31.51
3,0.08425903,0.2282562,0.9699402,1.0,0.09738159,0.2046509,0.9739685,-25.15685,0.7938538,-24.39293,4.605087,0.26367,0.4830095,1.0,0.05973816,0.2715759,0.960556,31.04628,4.954605,-23.59018,4.311066,0.5441843,0.3288419,0.05450308,1.194241,-0.2806149,-0.01132231,-0.02786547,0.006610984,0.2242465,29.80489,31.51
3,0.084198,0.2285309,0.9698792,1.0,0.09820557,0.2042542,0.9739685,-25.1613,0.7943726,-24.39458,4.604919,0.2636772,0.4830719,1.0,0.05966187,0.2703094,0.960907,31.04578,4.953125,-23.58795,4.311081,0.5442116,0.3290848,0.05476689,1.19437,-0.2807629,-0.01217648,-0.02809262,0.006387439,0.2242465,29.80489,31.51
3,0.084198,0.2285309,0.9698792,1.0,0.09820557,0.2042542,0.9739685,-25.1613,0.7943726,-24.39458,4.604919,0.2636772,0.4830719,1.0,0.05966187,0.2703094,0.960907,31.04578,4.953125,-23.58795,4.311081,0.5442116,0.3290848,0.05476689,1.19437,-0.2807629,-0.01217648,-0.02809262,0.006387439,0.2242465,29.80489,31.51
3,0.084198,0.2285309,0.9698792,1.0,0.09820557,0.2042542,0.9739685,-25.1613,0.7943726,-24.39458,4.604919,0.2636772,0.4830719,1.0,0.05966187,0.2703094,0.960907,31.04578,4.953125,-23.58795,4.311081,0.5442116,0.3290848,0.0548681,1.194463,-0.2807992,-0.01264474,-0.02821541,0.006382772,0.2242465,29.80489,31.51
3,0.084198,0.2285309,0.9698792,1.0,0.09820557,0.2042542,0.9739685,-25.1613,0.7943726,-24.39458,4.604919,0.2636772,0.4830719,1.0,0.05966187,0.2703094,0.960907,31.04578,4.953125,-23.58795,4.311081,0.5442116,0.3290848,0.0548681,1.194463,-0.2807992,-0.01264474,-0.02821541,0.006382772,0.2242465,29.80489,31.51
3,0.084198,0.2285309,0.9698792,1.0,0.09820557,0.2042542,0.9739685,-25.1613,0.7943726,-24.39458,4.604919,0.2636772,0.4830719,1.0,0.05966187,0.2703094,0.960907,31.04578,4.953125,-23.58795,4.311081,0.5442116,0.3290848,0.0547415,1.194269,-0.2810824,-0.0133699,-0.02807617,0.006181147,0.2242465,29.80489,31.51
3,0.084198,0.2285309,0.9698792,1.0,0.09820557,0.2042542,0.9739685,-25.1613,0.7943726,-24.39458,4.604919,0.2636772,0.4830719,1.0,0.05966187,0.2703094,0.960907,31.04578,4.953125,-23.58795,4.311081,0.5442116,0.3290848,0.0547415,1.194269,-0.2810824,-0.0133699,-0.02807617,0.006181147,0.2242465,29.80489,31.51
3,0.05795288,0.2187347,0.9740448,1.0,0.07192993,0.1756744,0.9818115,-25.36746,0.8524475,-24.05519,4.727188,0.2755744,0.4830359,1.0,0.05099487,0.2398834,0.9694519,30.8024,5.091309,-23.45703,4.472626,0.5536829,0.3286456,0.05491471,1.194286,-0.2812965,-0.01319659,-0.0279541,0.005734707,0.2242465,29.80489,31.51
3,0.04872131,0.2293091,0.9721222,1.0,0.07366943,0.174057,0.9819641,-25.39725,0.8212585,-24.0462,4.638214,0.2763884,0.4841869,1.0,0.04669189,0.2337646,0.9711609,30.78284,5.062317,-23.41785,4.42157,0.5549898,0.3302862,0.05546331,1.194534,-0.2811809,-0.01309457,-0.0278505,0.005302687,0.2242465,42.04565,31.51
3,0.04872131,0.2293091,0.9721222,1.0,0.07366943,0.174057,0.9819641,-25.39725,0.8212585,-24.0462,4.638214,0.2763884,0.4841869,1.0,0.04669189,0.2337646,0.9711609,30.78284,5.062317,-23.41785,4.42157,0.5549898,0.3302862,0.05546331,1.194534,-0.2811809,-0.01309457,-0.0278505,0.005302687,0.2242465,41.81107,31.51
3,0.04980469,0.2274475,0.9725037,1.0,0.06637573,0.1739502,0.9825134,-25.38048,0.8210449,-24.04408,4.784515,0.2770104,0.4843401,1.0,0.04862976,0.2312012,0.9716797,30.78659,5.06012,-23.41461,4.423615,0.5545384,0.3307452,0.0555855,1.194642,-0.2811565,-0.01308489,-0.02772851,0.004846053,0.2242465,-62.51635,31.51
3,0.04980469,0.2274475,0.9725037,1.0,0.06637573,0.1739502,0.9825134,-25.38048,0.8210449,-24.04408,4.784515,0.2770104,0.4843401,1.0,0.04862976,0.2312012,0.9716797,30.78659,5.06012,-23.41461,4.423615,0.5545384,0.3307452,0.05587471,1.194875,-0.2811735,-0.01377773,-0.02736472,0.003983684,0.2242465,-62.51635,31.51
3,0.04980469,0.2274475,0.9725037,1.0,0.06637573,0.1739502,0.9825134,-25.38048,0.8210449,-24.04408,4.784515,0.2770104,0.4843401,1.0,0.04862976,0.2312012,0.9716797,30.78659,5.06012,-23.41461,4.423615,0.5545384,0.3307452,0.05609238,1.195082,-0.2812459,-0.01496644,-0.02712379,0.003797937,0.2191208,-62.51635,31.51
3,0.04980469,0.2274475,0.9725037,1.0,0.06637573,0.1739502,0.9825134,-25.38048,0.8210449,-24.04408,4.784515,0.2770104,0.4843401,1.0,0.04862976,0.2312012,0.9716797,30.78659,5.06012,-23.41461,4.423615,0.5545384,0.3307452,0.05609238,1.195082,-0.2812459,-0.01496644,-0.02712379,0.003797937,0.2191208,-62.51635,31.51
3,0.04980469,0.2274475,0.9725037,1.0,0.06637573,0.1739502,0.9825134,-25.38048,0.8210449,-24.04408,4.784515,0.2770104,0.4843401,1.0,0.04862976,0.2312012,0.9716797,30.78659,5.06012,-23.41461,4.423615,0.5545384,0.3307452,0.05609238,1.195082,-0.2812459,-0.01496644,-0.02712379,0.003797937,0.2191208,-62.51635,31.51
3,0.1134491,0.2642517,0.9577484,1.0,0.1222076,0.2084198,0.9703674,-25.03316,1.045547,-24.24112,4.867569,0.2558213,0.4732454,1.0,0.113327,0.2650299,0.95755,31.07399,5.274628,-23.5383,4.538559,0.5344385,0.3192354,0.05620027,1.195189,-0.2813988,-0.01591041,-0.02709191,0.004128793,0.2191208,-62.51635,31.51
3,0.1329041,0.3118591,0.9407806,1.0,0.1442566,0.2640839,0.9536438,-24.75705,1.349899,-24.33791,4.762955,0.241999,0.4546822,1.0,0.1325836,0.3131714,0.9403839,31.23178,5.606369,-23.64177,4.642792,0.5261315,0.3011168,0.05640209,1.195135,-0.2814918,-0.01613223,-0.02709274,0.00442326,0.2191208,-62.51635,31.51
3,0.1329041,0.3118591,0.9407806,1.0,0.1442566,0.2640839,0.9536438,-24.75705,1.349899,-24.33791,4.762955,0.241999,0.4546822,1.0,0.1325836,0.3131714,0.9403839,31.23178,5.606369,-23.64177,4.642792,0.5261315,0.3011168,0.05640209,1.195135,-0.2814918,-0.01613223,-0.02709274,0.00442326,0.2191208,-62.51635,31.51
3,0.1327362,0.3069,0.9424286,1.0,0.1376495,0.2509918,0.9581451,-24.7702,1.305344,-24.31552,4.89183,0.2436445,0.4582177,1.0,0.1326141,0.3083038,0.9419861,31.2262,5.583206,-23.63373,4.623581,0.5262994,0.3026218,0.05651331,1.195002,-0.2816926,-0.01639155,-0.02710428,0.004869061,0.2191208,-62.51635,31.51
3,0.1327362,0.3069,0.9424286,1.0,0.1376495,0.2509918,0.9581451,-24.7702,1.305344,-24.31552,4.89183,0.2436445,0.4582177,1.0,0.1326141,0.3083038,0.9419861,31.2262,5.583206,-23.63373,4.623581,0.5262994,0.3026218,0.05651331,1.195002,-0.2816926,-0.01639155,-0.02710428,0.004869061,0.2191208,-62.51635,31.51
3,0.1277466,0.3094788,0.942276,1.0,0.130249,0.2527618,0.9587097,-24.78244,1.280792,-24.31245,4.984268,0.2453113,0.4588153,1.0,0.1277008,0.3103638,0.9419861,31.22719,5.575241,-23.63284,4.620438,0.527087,0.3025263,0.05657351,1.194939,-0.2818782,-0.01625645,-0.02717127,0.005151599,0.2191208,-62.51635,31.51
3,0.1277466,0.3094788,0.942276,1.0,0.130249,0.2527618,0.9587097,-24.78244,1.280792,-24.31245,4.984268,0.2453113,0.4588153,1.0,0.1277008,0.3103638,0.9419861,31.22719,5.575241,-23.63284,4.620438,0.527087,0.3025263,0.05659711,1.194926,-0.2819371,-0.01629261,-0.02719019,0.005434528,0.2191208,-62.51635,31.51
3,0.1277466,0.3094788,0.942276,1.0,0.130249,0.2527618,0.9587097,-24.78244,1.280792,-24.31245,4.984268,0.2453113,0.4588153,1.0,0.1277008,0.3103638,0.9419861,31.22719,5.575241,-23.63284,4.620438,0.527087,0.3025263,0.05659711,1.194926,-0.2819371,-0.01629261,-0.02719019,0.005434528,0.2191208,-62.51635,31.51
3,0.1277466,0.3094788,0.942276,1.0,0.130249,0.2527618,0.9587097,-24.78244,1.280792,-24.31245,4.984268,0.2453113,0.4588153,1.0,0.1277008,0.3103638,0.9419861,31.22719,5.575241,-23.63284,4.620438,0.527087,0.3025263,0.05647242,1.195071,-0.2821491,-0.01628347,-0.02720224,0.005927642,0.2191208,-4.037247,31.51
3,0.1257324,0.3070526,0.9433441,1.0,0.1373596,0.2426147,0.9603424,-24.80945,1.238708,-24.29994,4.935501,0.2450824,0.4617063,1.0,0.1255951,0.3077698,0.9431152,31.22765,5.559891,-23.63211,4.619064,0.5274225,0.303454,0.05649984,1.195093,-0.2822237,-0.01649486,-0.02722277,0.006129097,0.2191208,-4.037247,31.51
3,0.1257324,0.3070526,0.9433441,1.0,0.1373596,0.2426147,0.9603424,-24.80945,1.238708,-24.29994,4.935501,0.2450824,0.4617063,1.0,0.1255951,0.3077698,0.9431152,31.22765,5.559891,-23.63211,4.619064,0.5274225,0.303454,0.05649984,1.195093,-0.2822237,-0.01649486,-0.02722277,0.006129097,0.2191208,-4.037247,31.51
3,0.1043701,0.2634583,0.9589996,1.0,0.1197815,0.2342072,0.9647675,-24.9299,1.163513,-24.31223,4.704483,0.2522913,0.4654487,1.0,0.09091187,0.288559,0.953125,31.23363,5.483658,-23.58649,4.675964,0.5330293,0.3088125,0.05610716,1.194929,-0.2824358,-0.01669867,-0.02724849,0.006070467,0.2191208,-4.037247,31.51
3,0.106308,0.2498627,0.9624176,1.0,0.1213684,0.2198792,0.9679413,-24.95354,1.143829,-24.32632,4.859802,0.2527731,0.468702,1.0,0.08876038,0.2841797,0.9546509,31.2262,5.474045,-23.5798,4.625305,0.5336146,0.3097607,0.05616558,1.195114,-0.2824391,-0.01722403,-0.02741967,0.006104736,0.2191208,-4.037247,31.51
3,0.106308,0.2498627,0.9624176,1.0,0.1213684,0.2198792,0.9679413,-24.95354,1.143829,-24.32632,4.859802,0.2527731,0.468702,1.0,0.08876038,0.2841797,0.9546509,31.2262,5.474045,-23.5798,4.625305,0.5336146,0.3097607,0.05616558,1.195114,-0.2824391,-0.01722403,-0.02741967,0.006104736,0.2191208,-4.037247,31.51
3,0.1051636,0.2546082,0.9613037,1.0,0.1214294,0.2261505,0.9664764,-24.99377,1.126846,-24.3168,4.632401,0.2541979,0.4679395,1.0,0.08682251,0.2861023,0.9542542,31.21883,5.463959,-23.58141,4.60025,0.5341716,0.3097607,0.05610514,1.195145,-0.2824833,-0.01752379,-0.02746012,0.006132743,0.2191208,-4.037247,31.51
3,0.1045837,0.2562256,0.9609375,1.0,0.1244659,0.2268982,0.9659271,-25.01973,1.108276,-24.32698,4.776749,0.254489,0.4687026,1.0,0.0852356,0.284256,0.9549408,31.21002,5.454697,-23.58176,4.598984,0.5347257,0.3103749,0.05611718,1.195182,-0.2825552,-0.01832966,-0.02772824,0.006430453,0.2191208,-4.037247,31.51
3,0.09577942,0.2535858,0.9625549,1.0,0.1094666,0.2160034,0.9702301,-25.02513,1.087738,-24.40359,4.729736,0.2571266,0.4717137,1.0,0.08543396,0.2814789,0.9557495,31.20042,5.443954,-23.58195,4.582443,0.5350028,0.3111768,0.05627692,1.195132,-0.2825401,-0.0186935,-0.02773737,0.006588405,0.2191208,-4.037247,31.51
3,0.09577942,0.2535858,0.9625549,1.0,0.1094666,0.2160034,0.9702301,-25.02513,1.087738,-24.40359,4.729736,0.2571266,0.4717137,1.0,0.08543396,0.2814789,0.9557495,31.20042,5.443954,-23.58195,4.582443,0.5350028,0.3111768,0.05627692,1.195132,-0.2825401,-0.0186935,-0.02773737,0.006588405,0.2191208,-4.037247,31.51
3,0.09405518,0.2567749,0.9618683,1.0,0.1081696,0.2117767,0.9712982,-25.03831,1.065338,-24.42543,4.724899,0.2577582,0.4733142,1.0,0.08609009,0.2816162,0.9556427,31.19005,5.430618,-23.58267,4.57579,0.5352291,0.311599,0.0563581,1.195215,-0.2826165,-0.01935921,-0.02776529,0.007359737,0.2191208,-4.037247,31.51
3,0.0949707,0.2580719,0.961441,1.0,0.1132965,0.2042389,0.9723358,-25.05682,1.055374,-24.45364,4.643768,0.2574946,0.4750358,1.0,0.08589172,0.2841187,0.9549255,31.17973,5.412643,-23.58717,4.57756,0.5356023,0.3118248,0.05645573,1.195259,-0.2826906,-0.01963208,-0.02782105,0.007866671,0.2191208,-4.037247,31.51
3,0.0949707,0.2580719,0.961441,1.0,0.1132965,0.2042389,0.9723358,-25.05682,1.055374,-24.45364,4.643768,0.2574946,0.4750358,1.0,0.08589172,0.2841187,0.9549255,31.17973,5.412643,-23.58717,4.57756,0.5356023,0.3118248,0.05645573,1.195259,-0.2826906,-0.01963208,-0.02782105,0.007866671,0.2191208,-4.037247,31.51
3,0.088974,0.2499695,0.9641418,1.0,0.09945679,0.1962891,0.9754791,-25.08928,1.082458,-24.55493,4.660446,0.2607852,0.4763151,1.0,0.08370972,0.2760468,0.957489,31.16174,5.376923,-23.58336,4.565018,0.5365434,0.3142954,0.05690515,1.195584,-0.2826223,-0.02010235,-0.02776315,0.008632538,0.2191208,-4.037247,31.51
3,0.08900452,0.2488708,0.9644318,1.0,0.1029816,0.200119,0.9743347,-25.14072,1.005936,-24.33133,4.668304,0.2622393,0.4762992,1.0,0.08329773,0.2683868,0.9597015,31.14969,5.343109,-23.58336,4.533813,0.5369917,0.316651,0.05706787,1.195671,-0.2826567,-0.02051544,-0.02788739,0.008964484,0.2191208,102.0822,31.51
3,0.08900452,0.2488708,0.9644318,1.0,0.1029816,0.200119,0.9743347,-25.14072,1.005936,-24.33133,4.668304,0.2622393,0.4762992,1.0,0.08329773,0.2683868,0.9597015,31.14969,5.343109,-23.58336,4.533813,0.5369917,0.316651,0.05706787,1.195671,-0.2826567,-0.02051544,-0.02788739,0.008964484,0.2191208,102.0822,31.51
3,0.08573914,0.2449341,0.9657288,1.0,0.097229,0.1912384,0.9766998,-25.16319,1.003754,-24.30527,4.689621,0.264109,0.4776434,1.0,0.08277893,0.2584839,0.9624481,31.1329,5.33432,-23.58336,4.519867,0.5376253,0.3185558,0.05689573,1.195815,-0.282873,-0.02169283,-0.02779453,0.009019997,0.2191208,102.0822,31.51
3,0.08299255,0.2478638,0.9652252,1.0,0.09838867,0.192215,0.9763947,-25.1844,0.9954071,-24.29852,4.647598,0.2646402,0.4776659,1.0,0.08024597,0.2575836,0.9629059,31.12219,5.330872,-23.58336,4.500351,0.5383952,0.3187955,0.05724382,1.195838,-0.282819,-0.02240348,-0.02767229,0.009241134,0.2191208,102.0822,31.51
3,0.08299255,0.2478638,0.9652252,1.0,0.09838867,0.192215,0.9763947,-25.1844,0.9954071,-24.29852,4.647598,0.2646402,0.4776659,1.0,0.08024597,0.2575836,0.9629059,31.12219,5.330872,-23.58336,4.500351,0.5383952,0.3187955,0.05724382,1.195838,-0.282819,-0.02240348,-0.02767229,0.009241134,0.2191208,102.0822,31.51
3,0.08299255,0.2478638,0.9652252,1.0,0.09838867,0.192215,0.9763947,-25.1844,0.9954071,-24.29852,4.647598,0.2646402,0.4776659,1.0,0.08024597,0.2575836,0.9629059,31.12219,5.330872,-23.58336,4.500351,0.5383952,0.3187955,0.0575484,1.196105,-0.2827693,-0.02308582,-0.02770163,0.009558972,0.2191208,102.0822,31.51
3,0.08299255,0.2478638,0.9652252,1.0,0.09838867,0.192215,0.9763947,-25.1844,0.9954071,-24.29852,4.647598,0.2646402,0.4776659,1.0,0.08024597,0.2575836,0.9629059,31.12219,5.330872,-23.58336,4.500351,0.5383952,0.3187955,0.05802822,1.196396,-0.2828348,-0.02448993,-0.02769974,0.01009648,0.2191208,102.0822,31.51
3,0.08299255,0.2478638,0.9652252,1.0,0.09838867,0.192215,0.9763947,-25.1844,0.9954071,-24.29852,4.647598,0.2646402,0.4776659,1.0,0.08024597,0.2575836,0.9629059,31.12219,5.330872,-23.58336,4.500351,0.5383952,0.3187955,0.05802822,1.196396,-0.2828348,-0.02448993,-0.02769974,0.01009648,0.2191208,102.0822,31.51
3,0.08299255,0.2478638,0.9652252,1.0,0.09838867,0.192215,0.9763947,-25.1844,0.9954071,-24.29852,4.647598,0.2646402,0.4776659,1.0,0.08024597,0.2575836,0.9629059,31.12219,5.330872,-23.58336,4.500351,0.5383952,0.3187955,0.0582397,1.196381,-0.2830161,-0.02576146,-0.02768468,0.01007579,0.2191208,102.0822,31.51
3,0.08821106,0.2784576,0.9563751,1.0,0.1016083,0.217514,0.9707489,-25.07043,1.186844,-24.45163,4.637924,0.2599568,0.4685538,1.0,0.08589172,0.2887268,0.953537,31.05507,5.489441,-23.56973,4.589859,0.539745,0.3083913,0.0582397,1.196381,-0.2830161,-0.02576146,-0.02768468,0.01007579,0.2191208,102.0822,31.51
3,0.08821106,0.2784576,0.9563751,1.0,0.1016083,0.217514,0.9707489,-25.07043,1.186844,-24.45163,4.637924,0.2599568,0.4685538,1.0,0.08589172,0.2887268,0.953537,31.05507,5.489441,-23.56973,4.589859,0.539745,0.3083913,0.0582397,1.196381,-0.2830161,-0.02576146,-0.02768468,0.01007579,0.2191208,102.0822,31.51
3,0.0904541,0.2860413,0.9539337,1.0,0.1116333,0.2416687,0.9638977,-25.00177,1.221283,-24.45227,4.621719,0.255836,0.4634599,1.0,0.08285522,0.3016815,0.9497986,31.10054,5.567261,-23.60382,4.522476,0.5387708,0.3038384,0.05833626,1.196352,-0.2833055,-0.02709989,-0.02764536,0.009874122,0.2191208,102.0822,31.51
3,0.0904541,0.2860413,0.9539337,1.0,0.1116333,0.2416687,0.9638977,-25.00177,1.221283,-24.45227,4.621719,0.255836,0.4634599,1.0,0.08285522,0.3016815,0.9497986,31.10054,5.567261,-23.60382,4.522476,0.5387708,0.3038384,0.05833626,1.196352,-0.2833055,-0.02709989,-0.02764536,0.009874122,0.2191208,102.0822,31.51
3,0.09034729,0.2729034,0.9577789,1.0,0.1049805,0.2316132,0.9671173,-25.03847,1.155746,-24.485,4.707626,0.258158,0.4676316,1.0,0.08258057,0.2943726,0.9521027,31.09113,5.478378,-23.58441,4.548981,0.5390963,0.3079022,0.05874312,1.196497,-0.2835628,-0.02799166,-0.02760031,0.009727404,0.2191208,102.0822,31.51
3,0.09034729,0.2729034,0.9577789,1.0,0.1049805,0.2316132,0.9671173,-25.03847,1.155746,-24.485,4.707626,0.258158,0.4676316,1.0,0.08258057,0.2943726,0.9521027,31.09113,5.478378,-23.58441,4.548981,0.5390963,0.3079022,0.05874312,1.196497,-0.2835628,-0.02799166,-0.02760031,0.009727404,0.2191208,102.0822,31.51
3,0.09338379,0.2651062,0.959671,1.0,0.1069183,0.2308044,0.9671021,-25.05118,1.110123,-24.49332,4.670074,0.2582513,0.4692976,1.0,0.08183289,0.293808,0.9523468,31.08768,5.4496,-23.5928,4.542877,0.5393312,0.3090072,0.05924356,1.196415,-0.2837958,-0.02860694,-0.0274528,0.009547272,0.2191208,102.0822,31.51
3,0.088974,0.2565765,0.9624176,1.0,0.09886169,0.2207794,0.9702911,-25.07425,1.072006,-24.50731,4.705032,0.260388,0.4723258,1.0,0.07962036,0.2896881,0.9537964,31.08836,5.423904,-23.59233,4.532623,0.5396676,0.3105253,0.05978274,1.196486,-0.2840152,-0.0290127,-0.02722797,0.009191822,0.2191208,-55.33463,31.51
3,0.088974,0.2565765,0.9624176,1.0,0.09886169,0.2207794,0.9702911,-25.07425,1.072006,-24.50731,4.705032,0.260388,0.4723258,1.0,0.07962036,0.2896881,0.9537964,31.08836,5.423904,-23.59233,4.532623,0.5396676,0.3105253,0.05978274,1.196486,-0.2840152,-0.0290127,-0.02722797,0.009191822,0.2191208,-55.33463,31.51
3,0.0877533,0.2545929,0.9630432,1.0,0.09811401,0.2152252,0.9716187,-25.11475,1.046783,-24.52655,4.690964,0.2618621,0.4742256,1.0,0.07870483,0.2881317,0.9543457,31.08736,5.403656,-23.59233,4.522888,0.5398437,0.311447,0.06033587,1.196885,-0.2841065,-0.02979241,-0.02667816,0.008461683,0.2191208,-55.33463,31.51
3,0.08766174,0.2519226,0.9637604,1.0,0.09934998,0.20784,0.9730988,-25.14081,1.02121,-24.53989,4.693542,0.2625078,0.4763885,1.0,0.07788086,0.2878265,0.9544983,31.08627,5.382538,-23.59351,4.518066,0.5400113,0.3122007,0.06076503,1.197174,-0.2843542,-0.03041095,-0.02597374,0.007897864,0.2191208,-55.33463,31.51
3,0.08766174,0.2519226,0.9637604,1.0,0.09934998,0.20784,0.9730988,-25.14081,1.02121,-24.53989,4.693542,0.2625078,0.4763885,1.0,0.07788086,0.2878265,0.9544983,31.08627,5.382538,-23.59351,4.518066,0.5400113,0.3122007,0.06076503,1.197174,-0.2843542,-0.03041095,-0.02597374,0.007897864,0.2191208,-55.33463,31.51
3,0.0774231,0.2590027,0.9627533,1.0,0.1206818,0.2019806,0.9719086,-25.26228,0.7699585,-23.97147,4.770264,0.2639076,0.4808231,1.0,0.07173157,0.2663727,0.9611816,31.04393,5.138382,-23.53645,4.470673,0.5423204,0.3233658,0.0616051,1.197554,-0.2845117,-0.03118652,-0.02537008,0.007526899,0.2191208,-55.33463,31.51
3,0.0774231,0.2590027,0.9627533,1.0,0.1206818,0.2019806,0.9719086,-25.26228,0.7699585,-23.97147,4.770264,0.2639076,0.4808231,1.0,0.07173157,0.2663727,0.9611816,31.04393,5.138382,-23.53645,4.470673,0.5423204,0.3233658,0.0616051,1.197554,-0.2845117,-0.03118652,-0.02537008,0.007526899,0.2191208,-55.33463,31.51
3,0.07565308,0.2601166,0.9626007,1.0,0.09275818,0.2016296,0.9750519,-25.16017,0.7944794,-24.373,4.717529,0.2645652,0.48341,1.0,0.07371521,0.2666168,0.960968,31.05315,5.046234,-23.54909,4.555008,0.5416884,0.3265657,0.06221128,1.19768,-0.2848978,-0.03224413,-0.0246582,0.007449291,0.2191208,-55.33463,31.51
3,0.07565308,0.2601166,0.9626007,1.0,0.09275818,0.2016296,0.9750519,-25.16017,0.7944794,-24.373,4.717529,0.2645652,0.48341,1.0,0.07371521,0.2666168,0.960968,31.05315,5.046234,-23.54909,4.555008,0.5416884,0.3265657,0.06221128,1.19768,-0.2848978,-0.03224413,-0.0246582,0.007449291,0.2191208,-55.33463,31.51
3,0.06208801,0.2616577,0.96315,1.0,0.08512878,0.2012024,0.9758301,-25.13773,0.605545,-24.15021,4.697525,0.2656361,0.4877689,1.0,0.06199646,0.2619019,0.963089,31.06708,4.942825,-23.55249,4.576813,0.5431575,0.3307964,0.06262946,1.197822,-0.2853101,-0.0335038,-0.02400599,0.00725677,0.2191208,-55.33463,31.51
3,0.06208801,0.2616577,0.96315,1.0,0.08512878,0.2012024,0.9758301,-25.13773,0.605545,-24.15021,4.697525,0.2656361,0.4877689,1.0,0.06199646,0.2619019,0.963089,31.06708,4.942825,-23.55249,4.576813,0.5431575,0.3307964,0.06262946,1.197822,-0.2853101,-0.0335038,-0.02400599,0.00725677,0.2191208,-55.33463,31.51
3,0.06246948,0.2566376,0.9644775,1.0,0.08453369,0.1929169,0.9775543,-25.13518,0.4924927,-24.10927,4.771027,0.265555,0.4924576,1.0,0.06213379,0.2576294,0.9642334,31.06851,4.900375,-23.55475,4.574249,0.5430736,0.3329099,0.06276977,1.197769,-0.2859398,-0.03447077,-0.02329945,0.006815198,0.2191208,-55.33463,31.51
3,0.06246948,0.2566376,0.9644775,1.0,0.08453369,0.1929169,0.9775543,-25.13518,0.4924927,-24.10927,4.771027,0.265555,0.4924576,1.0,0.06213379,0.2576294,0.9642334,31.06851,4.900375,-23.55475,4.574249,0.5430736,0.3329099,0.06276977,1.197769,-0.2859398,-0.03447077,-0.02329945,0.006815198,0.2191208,-55.33463,31.51
3,0.0625,0.2529144,0.9654541,1.0,0.08647156,0.1807404,0.9797058,-25.13252,0.4557343,-24.11372,4.75943,0.2651496,0.4956487,1.0,0.06126404,0.2565765,0.9645691,31.07283,4.879333,-23.56493,4.573608,0.5430736,0.3338568,0.06293905,1.197744,-0.2865013,-0.03525783,-0.02261235,0.006120582,0.2191208,-55.33463,31.51
3,0.0625,0.2529144,0.9654541,1.0,0.08647156,0.1807404,0.9797058,-25.13252,0.4557343,-24.11372,4.75943,0.2651496,0.4956487,1.0,0.06126404,0.2565765,0.9645691,31.07283,4.879333,-23.56493,4.573608,0.5430736,0.3338568,0.06293905,1.197744,-0.2865013,-0.03525783,-0.02261235,0.006120582,0.2191208,-55.33463,31.51
3,0.06376648,0.2394714,0.9687958,1.0,0.08540344,0.1818542,0.979599,-25.12973,0.4495392,-24.20525,4.717941,0.2650915,0.4964207,1.0,0.05969238,0.2501068,0.9663696,31.08113,4.86264,-23.57216,4.569656,0.5430553,0.3355042,0.06324446,1.197664,-0.2869534,-0.03535954,-0.02233654,0.005456421,0.2191208,-55.33463,31.51
3,0.06376648,0.2394714,0.9687958,1.0,0.08540344,0.1818542,0.979599,-25.12973,0.4495392,-24.20525,4.717941,0.2650915,0.4964207,1.0,0.05969238,0.2501068,0.9663696,31.08113,4.86264,-23.57216,4.569656,0.5430553,0.3355042,0.06324446,1.197664,-0.2869534,-0.03535954,-0.02233654,0.005456421,0.2191208,-55.33463,31.51
3,0.07546997,0.2225494,0.9719849,1.0,0.09269714,0.1927643,0.9768524,-25.01361,0.4752197,-24.05679,4.730698,0.2601979,0.492498,1.0,0.06335449,0.2432556,0.9678802,31.18912,4.937897,-23.56184,4.598282,0.5388979,0.3340719,0.06327021,1.19744,-0.2874105,-0.035089,-0.02200349,0.005330714,0.2191208,-55.18787,31.51
3,0.07546997,0.2225494,0.9719849,1.0,0.09269714,0.1927643,0.9768524,-25.01361,0.4752197,-24.05679,4.730698,0.2601979,0.492498,1.0,0.06335449,0.2432556,0.9678802,31.18912,4.937897,-23.56184,4.598282,0.5388979,0.3340719,0.06327021,1.19744,-0.2874105,-0.035089,-0.02200349,0.005330714,0.2191208,-55.18787,31.51
3,0.09541321,0.2435303,0.9651794,1.0,0.1085663,0.2062225,0.9724579,-24.81238,0.6732635,-24.27513,4.86113,0.2502553,0.4857986,1.0,0.08946228,0.2601318,0.9614105,31.34514,5.064224,-23.58937,4.533539,0.5294304,0.3273016,0.0635637,1.197578,-0.2875817,-0.03461657,-0.02164847,0.00579159,0.2191208,-55.18787,31.51
3,0.09541321,0.2435303,0.9651794,1.0,0.1085663,0.2062225,0.9724579,-24.81238,0.6732635,-24.27513,4.86113,0.2502553,0.4857986,1.0,0.08946228,0.2601318,0.9614105,31.34514,5.064224,-23.58937,4.533539,0.5294304,0.3273016,0.0635637,1.197578,-0.2875817,-0.03461657,-0.02164847,0.00579159,0.2191208,-55.18787,31.51
3,0.1252136,0.2515564,0.9597015,1.0,0.1251678,0.2089539,0.9698792,-24.71266,0.755127,-24.31192,4.755997,0.2439914,0.4828498,1.0,0.1251831,0.2641449,0.9563141,31.31346,5.135834,-23.60477,4.574402,0.524551,0.3245018,0.06342542,1.197276,-0.287847,-0.03418906,-0.02113086,0.006189579,0.2191208,-55.18787,31.51
3,0.1252136,0.2515564,0.9597015,1.0,0.1251678,0.2089539,0.9698792,-24.71266,0.755127,-24.31192,4.755997,0.2439914,0.4828498,1.0,0.1251831,0.2641449,0.9563141,31.31346,5.135834,-23.60477,4.574402,0.524551,0.3245018,0.06342542,1.197276,-0.287847,-0.03418906,-0.02113086,0.006189579,0.2191208,-55.18787,31.51
3,0.1216583,0.2436371,0.9621887,1.0,0.1206818,0.2001648,0.97229,-24.74982,0.7405243,-24.27388,4.792725,0.246109,0.4844761,1.0,0.121994,0.2614136,0.9574738,31.30754,5.132202,-23.59978,4.618774,0.5252951,0.3250691,0.06362796,1.196976,-0.2879531,-0.03395816,-0.02049727,0.006501892,0.2191208,-55.18787,31.51
3,0.1216583,0.2436371,0.9621887,1.0,0.1206818,0.2001648,0.97229,-24.74982,0.7405243,-24.27388,4.792725,0.246109,0.4844761,1.0,0.121994,0.2614136,0.9574738,31.30754,5.132202,-23.59978,4.618774,0.5252951,0.3250691,0.06362796,1.196976,-0.2879531,-0.03395816,-0.02049727,0.006501892,0.2191208,-55.18787,31.51
3,0.1216583,0.2436371,0.9621887,1.0,0.1206818,0.2001648,0.97229,-24.74982,0.7405243,-24.27388,4.792725,0.246109,0.4844761,1.0,0.121994,0.2614136,0.9574738,31.30754,5.132202,-23.59978,4.618774,0.5252951,0.3250691,0.06362796,1.196976,-0.2879531,-0.03395816,-0.02049727,0.006501892,0.2191208,-55.18787,31.51
3,0.1142578,0.230011,0.9664459,1.0,0.1076355,0.196701,0.9745331,-24.77544,0.7199554,-24.20964,4.850311,0.2493082,0.4852026,1.0,0.1197205,0.2578888,0.958725,31.3067,5.132858,-23.59843,4.642456,0.5257125,0.32563,0.06365848,1.196854,-0.2880614,-0.03334934,-0.02006823,0.006556665,0.2191208,-55.18787,31.51
3,0.1121368,0.2241974,0.9680634,1.0,0.1126556,0.1886749,0.9755402,-24.79427,0.7364502,-24.18297,4.810211,0.249193,0.4857077,1.0,0.1117401,0.246048,0.9627838,31.30768,5.169922,-23.57539,4.658813,0.5270249,0.3261523,0.06390905,1.196872,-0.2880579,-0.03265215,-0.01980513,0.006104736,0.2191208,-55.18787,31.51
3,0.1121368,0.2241974,0.9680634,1.0,0.1126556,0.1886749,0.9755402,-24.79427,0.7364502,-24.18297,4.810211,0.249193,0.4857077,1.0,0.1117401,0.246048,0.9627838,31.30768,5.169922,-23.57539,4.658813,0.5270249,0.3261523,0.06390905,1.196872,-0.2880579,-0.03265215,-0.01980513,0.006104736,0.2191208,-55.18787,31.51
4,0.1100311,0.2219543,0.968811,1.0,0.1105499,0.1894836,0.9756317,-24.86069,0.7498627,-24.13681,4.84111,0.2519115,0.484819,1.0,0.109726,0.2383118,0.9649658,31.29376,5.195145,-23.56445,4.667419,0.5278276,0.3265017,0.06410217,1.196947,-0.288033,-0.03234633,-0.01948886,0.005958982,0.2191208,-55.18787,31.51
4,0.1100311,0.2219543,0.968811,1.0,0.1105499,0.1894836,0.9756317,-24.86069,0.7498627,-24.13681,4.84111,0.2519115,0.484819,1.0,0.109726,0.2383118,0.9649658,31.29376,5.195145,-23.56445,4.667419,0.5278276,0.3265017,0.06410217,1.196947,-0.288033,-0.03234633,-0.01948886,0.005958982,0.2191208,-55.18787,31.51
4,0.1075745,0.2223663,0.9689941,1.0,0.1091461,0.1789093,0.9777832,-24.90656,0.7275085,-24.01781,4.813858,0.2539326,0.4862158,1.0,0.1070099,0.2368774,0.9656219,31.28014,5.206543,-23.55684,4.666,0.5287305,0.3262962,0.06411159,1.197008,-0.2880371,-0.03208406,-0.01932069,0.005966479,0.2191208,23.54254,31.51
4,0.1075745,0.2223663,0.9689941,1.0,0.1091461,0.1789093,0.9777832,-24.90656,0.7275085,-24.01781,4.813858,0.2539326,0.4862158,1.0,0.1070099,0.2368774,0.9656219,31.28014,5.206543,-23.55684,4.666,0.5287305,0.3262962,0.06411159,1.197008,-0.2880371,-0.03208406,-0.01932069,0.005966479,0.2191208,23.54254,31.51
4,0.1050873,0.2183228,0.9701996,1.0,0.1014252,0.1840363,0.9776611,-24.95126,0.7649994,-24.03925,4.835587,0.2566952,0.484382,1.0,0.1064606,0.2313385,0.9670258,31.19524,5.257355,-23.54414,4.704987,0.5316492,0.325457,0.06404495,1.197122,-0.2879698,-0.03225776,-0.01942453,0.005880952,0.2191208,23.54254,31.51
4,0.1050873,0.2183228,0.9701996,1.0,0.1014252,0.1840363,0.9776611,-24.95126,0.7649994,-24.03925,4.835587,0.2566952,0.484382,1.0,0.1064606,0.2313385,0.9670258,31.19524,5.257355,-23.54414,4.704987,0.5316492,0.325457,0.06404495,1.197122,-0.2879698,-0.03225776,-0.01942453,0.005880952,0.2191208,23.54254,31.51
4,0.1038513,0.2006836,0.9741211,1.0,0.1060944,0.1721954,0.9793243,-24.98555,0.7606049,-23.96872,4.831146,0.2572106,0.4858385,1.0,0.1020966,0.2221069,0.9696503,31.17412,5.264236,-23.54068,4.660706,0.5330569,0.326666,0.06379855,1.197242,-0.2879465,-0.03271075,-0.01989634,0.005754163,0.2191208,23.54254,31.51
4,0.1038513,0.2006836,0.9741211,1.0,0.1060944,0.1721954,0.9793243,-24.98555,0.7606049,-23.96872,4.831146,0.2572106,0.4858385,1.0,0.1020966,0.2221069,0.9696503,31.17412,5.264236,-23.54068,4.660706,0.5330569,0.326666,0.06379855,1.197242,-0.2879465,-0.03271075,-0.01989634,0.005754163,0.2191208,23.54254,31.51
4,0.09352112,0.201828,0.9749298,1.0,0.1107941,0.1698303,0.9792175,-25.01169,0.6947327,-23.80795,4.901703,0.257549,0.4870658,1.0,0.08395386,0.2193298,0.9720154,31.20853,5.223816,-23.53288,4.683411,0.5349195,0.3283848,0.06367147,1.19735,-0.2878907,-0.03315462,-0.02026294,0.005516174,0.2191208,23.54254,31.51
4,0.09352112,0.201828,0.9749298,1.0,0.1107941,0.1698303,0.9792175,-25.01169,0.6947327,-23.80795,4.901703,0.257549,0.4870658,1.0,0.08395386,0.2193298,0.9720154,31.20853,5.223816,-23.53288,4.683411,0.5349195,0.3283848,0.06367147,1.19735,-0.2878907,-0.03315462,-0.02026294,0.005516174,0.2191208,23.54254,31.51
4,0.09352112,0.201828,0.9749298,1.0,0.1107941,0.1698303,0.9792175,-25.01169,0.6947327,-23.80795,4.901703,0.257549,0.4870658,1.0,0.08395386,0.2193298,0.9720154,31.20853,5.223816,-23.53288,4.683411,0.5349195,0.3283848,0.06367147,1.19735,-0.2878907,-0.03315462,-0.02026294,0.005516174,0.2191208,23.54254,31.51
4,0.08831787,0.2124023,0.973175,1.0,0.112915,0.1694946,0.9790344,-25.02669,0.6473236,-23.69676,4.892471,0.2579323,0.4877189,1.0,0.08282471,0.2218628,0.9715424,31.19604,5.205627,-23.52794,4.66832,0.535509,0.3285237,0.06354225,1.197445,-0.2878531,-0.0333893,-0.02063241,0.005332112,0.2191208,23.54254,31.51
4,0.08831787,0.2124023,0.973175,1.0,0.112915,0.1694946,0.9790344,-25.02669,0.6473236,-23.69676,4.892471,0.2579323,0.4877189,1.0,0.08282471,0.2218628,0.9715424,31.19604,5.205627,-23.52794,4.66832,0.535509,0.3285237,0.06337607,1.197461,-0.2878296,-0.03361879,-0.02096484,0.005097806,0.2191208,23.54254,31.51
4,0.08831787,0.2124023,0.973175,1.0,0.112915,0.1694946,0.9790344,-25.02669,0.6473236,-23.69676,4.892471,0.2579323,0.4877189,1.0,0.08282471,0.2218628,0.9715424,31.19604,5.205627,-23.52794,4.66832,0.535509,0.3285237,0.06337607,1.197461,-0.2878296,-0.03361879,-0.02096484,0.005097806,0.2191208,23.54254,31.51
4,0.08831787,0.2124023,0.973175,1.0,0.112915,0.1694946,0.9790344,-25.02669,0.6473236,-23.69676,4.892471,0.2579323,0.4877189,1.0,0.08282471,0.2218628,0.9715424,31.19604,5.205627,-23.52794,4.66832,0.535509,0.3285237,0.06283414,1.197205,-0.2881087,-0.03359685,-0.02141734,0.005110943,0.2191208,23.54254,31.51
4,0.08831787,0.2124023,0.973175,1.0,0.112915,0.1694946,0.9790344,-25.02669,0.6473236,-23.69676,4.892471,0.2579323,0.4877189,1.0,0.08282471,0.2218628,0.9715424,31.19604,5.205627,-23.52794,4.66832,0.535509,0.3285237,0.06283414,1.197205,-0.2881087,-0.03359685,-0.02141734,0.005110943,0.2191208,23.54254,31.51
4,0.08831787,0.2124023,0.973175,1.0,0.112915,0.1694946,0.9790344,-25.02669,0.6473236,-23.69676,4.892471,0.2579323,0.4877189,1.0,0.08282471,0.2218628,0.9715424,31.19604,5.205627,-23.52794,4.66832,0.535509,0.3285237,0.06273282,1.197191,-0.2881395,-0.03352359,-0.02159058,0.005378025,0.2191208,23.54254,31.51
4,0.08831787,0.2124023,0.973175,1.0,0.112915,0.1694946,0.9790344,-25.02669,0.6473236,-23.69676,4.892471,0.2579323,0.4877189,1.0,0.08282471,0.2218628,0.9715424,31.19604,5.205627,-23.52794,4.66832,0.535509,0.3285237,0.06258094,1.197032,-0.2882538,-0.03300732,-0.02180451,0.006302896,0.2191208,23.7262,31.51
4,0.08831787,0.2124023,0.973175,1.0,0.112915,0.1694946,0.9790344,-25.02669,0.6473236,-23.69676,4.892471,0.2579323,0.4877189,1.0,0.08282471,0.2218628,0.9715424,31.19604,5.205627,-23.52794,4.66832,0.535509,0.3285237,0.06258094,1.197032,-0.2882538,-0.03300732,-0.02180451,0.006302896,0.2191208,23.7262,31.51
4,0.08831787,0.2124023,0.973175,1.0,0.112915,0.1694946,0.9790344,-25.02669,0.6473236,-23.69676,4.892471,0.2579323,0.4877189,1.0,0.08282471,0.2218628,0.9715424,31.19604,5.205627,-23.52794,4.66832,0.535509,0.3285237,0.06244516,1.196931,-0.2883575,-0.03269252,-0.02189861,0.007609593,0.2191208,23.7262,31.51
4,0.07336426,0.206543,0.9756775,1.0,0.0955658,0.1496887,0.9841003,-25.12108,0.7076874,-24.06282,4.860641,0.2635271,0.492142,1.0,0.07217407,0.2095795,0.9751129,31.06107,5.029846,-23.31558,4.710724,0.5415934,0.3347529,0.06239307,1.196897,-0.2883806,-0.03258226,-0.02187376,0.008081571,0.2191208,23.7262,31.51
4,0.07336426,0.206543,0.9756775,1.0,0.0955658,0.1496887,0.9841003,-25.12108,0.7076874,-24.06282,4.860641,0.2635271,0.492142,1.0,0.07217407,0.2095795,0.9751129,31.06107,5.029846,-23.31558,4.710724,0.5415934,0.3347529,0.06239307,1.196897,-0.2883806,-0.03258226,-0.02187376,0.008081571,0.2191208,23.7262,31.51
4,0.1230011,0.2325592,0.9647675,1.0,0.1269989,0.1897583,0.9735718,-24.77602,0.8583221,-24.06674,4.834137,0.2464195,0.4806011,1.0,0.1226807,0.2358093,0.9640198,31.24188,5.357513,-23.56145,4.665665,0.5274298,0.3215332,0.06195092,1.196681,-0.2886442,-0.03228546,-0.02147362,0.009007598,0.2191208,23.7262,31.51
4,0.1230011,0.2325592,0.9647675,1.0,0.1269989,0.1897583,0.9735718,-24.77602,0.8583221,-24.06674,4.834137,0.2464195,0.4806011,1.0,0.1226807,0.2358093,0.9640198,31.24188,5.357513,-23.56145,4.665665,0.5274298,0.3215332,0.06195092,1.196681,-0.2886442,-0.03228546,-0.02147362,0.009007598,0.2191208,23.7262,31.51
4,0.1278992,0.2408752,0.9620819,1.0,0.1149902,0.1899261,0.9750366,-24.78775,0.9067078,-24.08229,4.819489,0.2488095,0.4790721,1.0,0.1287384,0.2442017,0.9611359,31.18925,5.42392,-23.56796,4.678513,0.5281798,0.3180345,0.0619421,1.196683,-0.2886306,-0.03204201,-0.02077205,0.009823438,0.2191208,23.7262,31.51
4,0.1278992,0.2408752,0.9620819,1.0,0.1149902,0.1899261,0.9750366,-24.78775,0.9067078,-24.08229,4.819489,0.2488095,0.4790721,1.0,0.1287384,0.2442017,0.9611359,31.18925,5.42392,-23.56796,4.678513,0.5281798,0.3180345,0.06190574,1.196638,-0.2886105,-0.0319421,-0.02046453,0.01016854,0.2191208,23.7262,31.51
4,0.1278992,0.2408752,0.9620819,1.0,0.1149902,0.1899261,0.9750366,-24.78775,0.9067078,-24.08229,4.819489,0.2488095,0.4790721,1.0,0.1287384,0.2442017,0.9611359,31.18925,5.42392,-23.56796,4.678513,0.5281798,0.3180345,0.06190574,1.196638,-0.2886105,-0.0319421,-0.02046453,0.01016854,0.2191208,23.7262,31.51
4,0.1278992,0.2408752,0.9620819,1.0,0.1149902,0.1899261,0.9750366,-24.78775,0.9067078,-24.08229,4.819489,0.2488095,0.4790721,1.0,0.1287384,0.2442017,0.9611359,31.18925,5.42392,-23.56796,4.678513,0.5281798,0.3180345,0.06179035,1.196582,-0.2886319,-0.03153103,-0.01958991,0.01082785,0.2191208,23.7262,31.51
4,0.1222382,0.2298431,0.9655151,1.0,0.1122437,0.1882935,0.9756622,-24.82376,0.8845367,-24.06911,4.851929,0.2504972,0.4799992,1.0,0.1226196,0.2314453,0.9650726,31.16879,5.415833,-23.55225,4.642715,0.5298592,0.3202273,0.06172717,1.196539,-0.2885997,-0.0313005,-0.01922753,0.01114656,0.2191208,23.7262,31.51
4,0.1222382,0.2298431,0.9655151,1.0,0.1122437,0.1882935,0.9756622,-24.82376,0.8845367,-24.06911,4.851929,0.2504972,0.4799992,1.0,0.1226196,0.2314453,0.9650726,31.16879,5.415833,-23.55225,4.642715,0.5298592,0.3202273,0.06172717,1.196539,-0.2885997,-0.0313005,-0.01922753,0.01114656,0.2191208,23.7262,31.51
4,0.1110382,0.2137909,0.9705353,1.0,0.104187,0.1785126,0.9783936,-24.92989,0.8269653,-24.03389,4.716537,0.2555757,0.4830612,1.0,0.1119537,0.2185364,0.9693756,31.13843,5.313126,-23.53952,4.67601,0.5326198,0.325656,0.0613054,1.196258,-0.2888479,-0.03082535,-0.01835322,0.01154904,0.2191208,23.7262,31.51
4,0.1110382,0.2137909,0.9705353,1.0,0.104187,0.1785126,0.9783936,-24.92989,0.8269653,-24.03389,4.716537,0.2555757,0.4830612,1.0,0.1119537,0.2185364,0.9693756,31.13843,5.313126,-23.53952,4.67601,0.5326198,0.325656,0.0613054,1.196258,-0.2888479,-0.03082535,-0.01835322,0.01154904,0.2191208,23.7262,31.51
4,0.1078339,0.2086945,0.9720001,1.0,0.09848022,0.16745,0.9809418,-24.95103,0.9197693,-24.43718,4.808548,0.2565879,0.4854416,1.0,0.1098785,0.2177734,0.9697876,31.11664,5.280792,-23.52919,4.631729,0.5336561,0.3267324,0.06166112,1.196443,-0.2887012,-0.03046944,-0.01748335,0.01181689,0.2191208,-24.4061,31.51
4,0.1078339,0.2086945,0.9720001,1.0,0.09848022,0.16745,0.9809418,-24.95103,0.9197693,-24.43718,4.808548,0.2565879,0.4854416,1.0,0.1098785,0.2177734,0.9697876,31.11664,5.280792,-23.52919,4.631729,0.5336561,0.3267324,0.06166112,1.196443,-0.2887012,-0.03046944,-0.01748335,0.01181689,0.2191208,-24.4061,31.51
4,0.1078339,0.2086945,0.9720001,1.0,0.09848022,0.16745,0.9809418,-24.95103,0.9197693,-24.43718,4.808548,0.2565879,0.4854416,1.0,0.1098785,0.2177734,0.9697876,31.11664,5.280792,-23.52919,4.631729,0.5336561,0.3267324,0.06159675,1.196416,-0.2887865,-0.03044988,-0.01648311,0.01209852,0.2191208,-24.4061,31.51
4,0.1078339,0.2086945,0.9720001,1.0,0.09848022,0.16745,0.9809418,-24.95103,0.9197693,-24.43718,4.808548,0.2565879,0.4854416,1.0,0.1098785,0.2177734,0.9697876,31.11664,5.280792,-23.52919,4.631729,0.5336561,0.3267324,0.06159675,1.196416,-0.2887865,-0.03044988,-0.01648311,0.01209852,0.2191208,-24.4061,31.51
4,0.1078339,0.2086945,0.9720001,1.0,0.09848022,0.16745,0.9809418,-24.95103,0.9197693,-24.43718,4.808548,0.2565879,0.4854416,1.0,0.1098785,0.2177734,0.9697876,31.11664,5.280792,-23.52919,4.631729,0.5336561,0.3267324,0.06157744,1.196417,-0.288765,-0.03065715,-0.0162647,0.01213909,0.2191208,-24.4061,31.51
4,0.1099091,0.2172394,0.9698944,1.0,0.1036377,0.1700287,0.9799652,-24.98582,0.9662628,-24.70219,4.808441,0.2562544,0.4857569,1.0,0.1099396,0.217392,0.9698639,31.1102,5.269409,-23.52174,4.632156,0.5338528,0.3271254,0.06181157,1.196592,-0.2887847,-0.03096185,-0.01572719,0.01226852,0.2191208,-24.4061,31.51
4,0.1099091,0.2172394,0.9698944,1.0,0.1036377,0.1700287,0.9799652,-24.98582,0.9662628,-24.70219,4.808441,0.2562544,0.4857569,1.0,0.1099396,0.217392,0.9698639,31.1102,5.269409,-23.52174,4.632156,0.5338528,0.3271254,0.06181157,1.196592,-0.2887847,-0.03096185,-0.01572719,0.01226852,0.2191208,-24.4061,31.51
4,0.09913635,0.2012939,0.9744873,1.0,0.1069183,0.1595917,0.981369,-25.02045,0.5869598,-23.79779,4.87973,0.2585668,0.4921299,1.0,0.09912109,0.201355,0.9744873,31.07635,5.181961,-23.42586,4.678574,0.5367134,0.3319486,0.0618124,1.196693,-0.2889137,-0.03127169,-0.01538909,0.01242302,0.2191208,-24.4061,31.51
4,0.09202576,0.1987915,0.975708,1.0,0.09860229,0.1642303,0.9814758,-25.03355,0.3609161,-23.29361,4.829651,0.2612993,0.4943186,1.0,0.09202576,0.1987915,0.975708,31.08127,5.176483,-23.50317,4.661972,0.5377527,0.3330785,0.06177032,1.196701,-0.2890095,-0.03149296,-0.01521772,0.01251742,0.2191208,-24.4061,31.51
4,0.09202576,0.1987915,0.975708,1.0,0.09860229,0.1642303,0.9814758,-25.03355,0.3609161,-23.29361,4.829651,0.2612993,0.4943186,1.0,0.09202576,0.1987915,0.975708,31.08127,5.176483,-23.50317,4.661972,0.5377527,0.3330785,0.06177032,1.196701,-0.2890095,-0.03149296,-0.01521772,0.01251742,0.2191208,-24.4061,31.51
4,0.08947754,0.1949463,0.9767151,1.0,0.1022644,0.1601715,0.9817657,-25.0444,0.3136139,-23.23471,4.764877,0.261226,0.4959448,1.0,0.08947754,0.1949463,0.9767151,31.08392,5.168503,-23.46724,4.672577,0.5380725,0.3337047,0.06164467,1.196799,-0.2891991,-0.03182526,-0.0151785,0.01256732,0.2191208,-24.4061,31.51
4,0.0879364,0.1929779,0.9772491,1.0,0.09657288,0.15065,0.9838562,-25.06017,0.264389,-23.10616,4.846848,0.262886,0.4980218,1.0,0.08792114,0.1930542,0.9772339,31.08598,5.157135,-23.38448,4.663208,0.538216,0.3337513,0.06156957,1.196819,-0.2892787,-0.03201316,-0.01529244,0.01256435,0.2191208,-24.4061,31.51
4,0.0879364,0.1929779,0.9772491,1.0,0.09657288,0.15065,0.9838562,-25.06017,0.264389,-23.10616,4.846848,0.262886,0.4980218,1.0,0.08792114,0.1930542,0.9772339,31.08598,5.157135,-23.38448,4.663208,0.538216,0.3337513,0.06156957,1.196819,-0.2892787,-0.03201316,-0.01529244,0.01256435,0.2191208,-24.4061,31.51
4,0.0841217,0.2017517,0.9757996,1.0,0.09880066,0.1529083,0.9832764,-25.06747,0.2461395,-23.05112,4.852081,0.262886,0.4977989,1.0,0.08399963,0.2021484,0.9757385,31.08598,5.079239,-23.38448,4.664383,0.538843,0.3348573,0.06121993,1.19689,-0.2896347,-0.03229401,-0.01605584,0.01289562,0.2191208,-24.4061,31.51
4,0.0841217,0.2017517,0.9757996,1.0,0.09880066,0.1529083,0.9832764,-25.06747,0.2461395,-23.05112,4.852081,0.262886,0.4977989,1.0,0.08399963,0.2021484,0.9757385,31.08598,5.079239,-23.38448,4.664383,0.538843,0.3348573,0.06121993,1.19689,-0.2896347,-0.03229401,-0.01605584,0.01289562,0.2191208,-24.4061,31.51
4,0.09106445,0.1735077,0.9806061,1.0,0.08509827,0.1373444,0.9868469,-25.1412,0.4232025,-23.60156,4.816345,0.2666292,0.4992914,1.0,0.0912323,0.1745453,0.9804077,30.95821,5.058624,-23.5224,4.635986,0.5419134,0.3410542,0.06109858,1.196925,-0.2897533,-0.03245189,-0.01642742,0.0131156,0.2191208,-24.4061,31.51
4,0.09106445,0.1735077,0.9806061,1.0,0.08509827,0.1373444,0.9868469,-25.1412,0.4232025,-23.60156,4.816345,0.2666292,0.4992914,1.0,0.0912323,0.1745453,0.9804077,30.95821,5.058624,-23.5224,4.635986,0.5419134,0.3410542,0.06109858,1.196925,-0.2897533,-0.03245189,-0.01642742,0.0131156,0.2191208,-24.4061,31.51
4,0.09242249,0.1734619,0.980484,1.0,0.08480835,0.1291656,0.9879761,-25.17682,0.4239197,-23.61833,4.729385,0.2678805,0.5006551,1.0,0.092453,0.1736298,0.9804535,30.94223,5.026352,-23.41425,4.639938,0.5421816,0.3414626,0.06089044,1.196944,-0.2899098,-0.03283034,-0.01705406,0.01383547,0.2191208,60.82407,31.51
4,0.09242249,0.1734619,0.980484,1.0,0.08480835,0.1291656,0.9879761,-25.17682,0.4239197,-23.61833,4.729385,0.2678805,0.5006551,1.0,0.092453,0.1736298,0.9804535,30.94223,5.026352,-23.41425,4.639938,0.5421816,0.3414626,0.06089044,1.196944,-0.2899098,-0.03283034,-0.01705406,0.01383547,0.2191208,60.82407,31.51
4,0.09040833,0.1736755,0.9806366,1.0,0.07040405,0.129715,0.9890442,-25.20724,0.416687,-23.63132,4.688965,0.2712797,0.5008774,1.0,0.09068298,0.1742859,0.9804993,30.91931,4.974197,-23.22731,4.651642,0.5431273,0.3416638,0.06047404,1.196924,-0.2902052,-0.03313012,-0.01789694,0.01445438,0.2191208,60.82407,31.51
4,0.09040833,0.1736755,0.9806366,1.0,0.07040405,0.129715,0.9890442,-25.20724,0.416687,-23.63132,4.688965,0.2712797,0.5008774,1.0,0.09068298,0.1742859,0.9804993,30.91931,4.974197,-23.22731,4.651642,0.5431273,0.3416638,0.06047404,1.196924,-0.2902052,-0.03313012,-0.01789694,0.01445438,0.2191208,60.82407,31.51
4,0.1287231,0.1987915,0.9715424,1.0,0.1165924,0.1504211,0.98172,-24.83717,0.2483368,-22.38443,4.827576,0.2534125,0.4922472,1.0,0.1291046,0.2003479,0.9711761,31.24174,5.170914,-23.41223,4.719803,0.5263126,0.3324361,0.06021416,1.196916,-0.2904022,-0.03354847,-0.01880715,0.01503746,0.2191208,60.82407,31.51
4,0.1623077,0.2319031,0.9590912,1.0,0.1689606,0.1997528,0.9651642,-24.55878,0.818161,-23.70029,4.973724,0.2325739,0.4773124,1.0,0.1621704,0.2325745,0.9589539,31.38844,5.390625,-23.46045,4.772766,0.5160463,0.3204112,0.06021416,1.196916,-0.2904022,-0.03354847,-0.01880715,0.01503746,0.2191208,60.82407,31.51
4,0.1623077,0.2319031,0.9590912,1.0,0.1689606,0.1997528,0.9651642,-24.55878,0.818161,-23.70029,4.973724,0.2325739,0.4773124,1.0,0.1621704,0.2325745,0.9589539,31.38844,5.390625,-23.46045,4.772766,0.5160463,0.3204112,0.06021416,1.196916,-0.2904022,-0.03354847,-0.01880715,0.01503746,0.2191208,60.82407,31.51
4,0.1615295,0.2662201,0.9502716,1.0,0.1833649,0.210556,0.9602203,-24.56128,0.9740295,-23.73317,4.917542,0.2300644,0.470732,1.0,0.1612091,0.2670288,0.9501038,31.33231,5.589905,-23.49561,4.822662,0.5180903,0.3084368,0.05994761,1.197069,-0.2904508,-0.0338595,-0.01952744,0.01537601,0.2191208,60.82407,31.51
4,0.1519318,0.2654724,0.9520569,1.0,0.1713257,0.2063751,0.9633484,-24.62775,0.9631653,-23.70987,4.906082,0.2344687,0.4715518,1.0,0.1516876,0.2662201,0.951889,31.28339,5.600403,-23.48152,4.843475,0.5213054,0.3081072,0.05965912,1.19715,-0.2905073,-0.03427634,-0.0204197,0.01592912,0.2191208,60.82407,31.51
4,0.1519318,0.2654724,0.9520569,1.0,0.1713257,0.2063751,0.9633484,-24.62775,0.9631653,-23.70987,4.906082,0.2344687,0.4715518,1.0,0.1516876,0.2662201,0.951889,31.28339,5.600403,-23.48152,4.843475,0.5213054,0.3081072,0.05965912,1.19715,-0.2905073,-0.03427634,-0.0204197,0.01592912,0.2191208,60.82407,31.51
4,0.148468,0.2575226,0.9547882,1.0,0.1634521,0.249527,0.9544678,-24.71483,0.7973175,-23.6629,5.104797,0.2386644,0.4699005,1.0,0.1484528,0.2575226,0.9547882,31.27048,5.592941,-23.47362,4.78717,0.5222527,0.3096662,0.05911756,1.197285,-0.2906489,-0.03439352,-0.02192717,0.01719676,0.2191208,60.82407,31.51
4,0.1493683,0.2348785,0.9604645,1.0,0.1508331,0.2106934,0.9658356,-24.79536,0.9490967,-23.68994,4.867203,0.2437145,0.4711516,1.0,0.1480713,0.2549286,0.9555359,31.24963,5.588455,-23.46869,4.808868,0.5230151,0.3102271,0.05845153,1.197298,-0.2906778,-0.03470749,-0.02329209,0.01851127,0.2191208,60.82407,31.51
4,0.1493683,0.2348785,0.9604645,1.0,0.1508331,0.2106934,0.9658356,-24.79536,0.9490967,-23.68994,4.867203,0.2437145,0.4711516,1.0,0.1480713,0.2549286,0.9555359,31.24963,5.588455,-23.46869,4.808868,0.5230151,0.3102271,0.05845153,1.197298,-0.2906778,-0.03470749,-0.02329209,0.01851127,0.2191208,60.82407,31.51
4,0.1493683,0.2348785,0.9604645,1.0,0.1508331,0.2106934,0.9658356,-24.79536,0.9490967,-23.68994,4.867203,0.2437145,0.4711516,1.0,0.1480713,0.2549286,0.9555359,31.24963,5.588455,-23.46869,4.808868,0.5230151,0.3102271,0.05845153,1.197298,-0.2906778,-0.03470749,-0.02329209,0.01851127,0.2191208,60.82407,31.51
4,0.1404419,0.2274628,0.9635925,1.0,0.1348114,0.1987915,0.9707184,-24.90004,0.9171448,-23.69992,4.967789,0.2499592,0.474317,1.0,0.1450195,0.2509918,0.9570618,31.19153,5.578247,-23.4669,4.805893,0.5254441,0.3111907,0.05758083,1.19744,-0.2907906,-0.03522019,-0.02426284,0.0184039,0.2114324,49.47943,31.51
4,0.1404419,0.2274628,0.9635925,1.0,0.1348114,0.1987915,0.9707184,-24.90004,0.9171448,-23.69992,4.967789,0.2499592,0.474317,1.0,0.1450195,0.2509918,0.9570618,31.19153,5.578247,-23.4669,4.805893,0.5254441,0.3111907,0.05758083,1.19744,-0.2907906,-0.03522019,-0.02426284,0.0184039,0.2114324,49.47943,31.51
4,0.1404419,0.2274628,0.9635925,1.0,0.1348114,0.1987915,0.9707184,-24.90004,0.9171448,-23.69992,4.967789,0.2499592,0.474317,1.0,0.1450195,0.2509918,0.9570618,31.19153,5.578247,-23.4669,4.805893,0.5254441,0.3111907,0.05758083,1.19744,-0.2907906,-0.03522019,-0.02426284,0.0184039,0.2114324,49.47943,31.51
4,0.1337891,0.2241974,0.9653015,1.0,0.1275787,0.1892853,0.973587,-25.00636,0.8900604,-23.78445,4.920883,0.2546294,0.4774458,1.0,0.1378784,0.2475586,0.9589996,31.15305,5.567184,-23.46083,4.802246,0.5278993,0.3120608,0.05692589,1.197695,-0.2909389,-0.03586209,-0.02510022,0.01841118,0.2114324,49.47943,31.51
4,0.1337891,0.2241974,0.9653015,1.0,0.1275787,0.1892853,0.973587,-25.00636,0.8900604,-23.78445,4.920883,0.2546294,0.4774458,1.0,0.1378784,0.2475586,0.9589996,31.15305,5.567184,-23.46083,4.802246,0.5278993,0.3120608,0.05692589,1.197695,-0.2909389,-0.03586209,-0.02510022,0.01841118,0.2114324,49.47943,31.51
4,0.1337891,0.2241974,0.9653015,1.0,0.1275787,0.1892853,0.973587,-25.00636,0.8900604,-23.78445,4.920883,0.2546294,0.4774458,1.0,0.1378784,0.2475586,0.9589996,31.15305,5.567184,-23.46083,4.802246,0.5278993,0.3120608,0.05692589,1.197695,-0.2909389,-0.03586209,-0.02510022,0.01841118,0.2114324,49.47943,31.51
4,0.1069946,0.2242737,0.9686279,1.0,0.1141815,0.174469,0.9780121,-25.07558,0.980423,-24.18007,4.861023,0.2585785,0.4802181,1.0,0.1055603,0.2339325,0.9664917,30.99615,5.474197,-23.41454,4.821396,0.538419,0.3169725,0.05624068,1.197819,-0.2911183,-0.03671517,-0.02557919,0.01870785,0.2114324,49.47943,31.51
4,0.1069946,0.2242737,0.9686279,1.0,0.1141815,0.174469,0.9780121,-25.07558,0.980423,-24.18007,4.861023,0.2585785,0.4802181,1.0,0.1055603,0.2339325,0.9664917,30.99615,5.474197,-23.41454,4.821396,0.538419,0.3169725,0.05624068,1.197819,-0.2911183,-0.03671517,-0.02557919,0.01870785,0.2114324,49.47943,31.51
4,0.1069946,0.2242737,0.9686279,1.0,0.1141815,0.174469,0.9780121,-25.07558,0.980423,-24.18007,4.861023,0.2585785,0.4802181,1.0,0.1055603,0.2339325,0.9664917,30.99615,5.474197,-23.41454,4.821396,0.538419,0.3169725,0.05624068,1.197819,-0.2911183,-0.03671517,-0.02557919,0.01870785,0.2114324,49.47943,31.51
4,0.1060638,0.2283478,0.9677734,1.0,0.1160126,0.1728516,0.9780884,-25.15157,1.043915,-24.53564,4.975723,0.2600384,0.4815837,1.0,0.1060638,0.2283936,0.9677734,30.95912,5.427307,-23.40282,4.861984,0.5395545,0.3194025,0.05562198,1.197983,-0.2914072,-0.03767526,-0.02568935,0.01877741,0.2114324,49.47943,31.51
4,0.1060638,0.2283478,0.9677734,1.0,0.1160126,0.1728516,0.9780884,-25.15157,1.043915,-24.53564,4.975723,0.2600384,0.4815837,1.0,0.1060638,0.2283936,0.9677734,30.95912,5.427307,-23.40282,4.861984,0.5395545,0.3194025,0.05562198,1.197983,-0.2914072,-0.03767526,-0.02568935,0.01877741,0.2114324,49.47943,31.51
4,0.1060638,0.2283478,0.9677734,1.0,0.1160126,0.1728516,0.9780884,-25.15157,1.043915,-24.53564,4.975723,0.2600384,0.4815837,1.0,0.1060638,0.2283936,0.9677734,30.95912,5.427307,-23.40282,4.861984,0.5395545,0.3194025,0.05562198,1.197983,-0.2914072,-0.03767526,-0.02568935,0.01877741,0.2114324,49.47943,31.51
4,0.09947205,0.2235107,0.9696045,1.0,0.09397888,0.1631317,0.9821014,-25.21867,1.017792,-24.48969,4.9673,0.2662699,0.4836727,1.0,0.09950256,0.2238007,0.9695282,30.93596,5.396088,-23.3907,4.861847,0.5413886,0.3210886,0.05497193,1.19788,-0.2918671,-0.03834407,-0.0257137,0.01865401,0.2114324,49.47943,31.51
4,0.09947205,0.2235107,0.9696045,1.0,0.09397888,0.1631317,0.9821014,-25.21867,1.017792,-24.48969,4.9673,0.2662699,0.4836727,1.0,0.09950256,0.2238007,0.9695282,30.93596,5.396088,-23.3907,4.861847,0.5413886,0.3210886,0.05497193,1.19788,-0.2918671,-0.03834407,-0.0257137,0.01865401,0.2114324,49.47943,31.51
4,0.09947205,0.2235107,0.9696045,1.0,0.09397888,0.1631317,0.9821014,-25.21867,1.017792,-24.48969,4.9673,0.2662699,0.4836727,1.0,0.09950256,0.2238007,0.9695282,30.93596,5.396088,-23.3907,4.861847,0.5413886,0.3210886,0.05497193,1.19788,-0.2918671,-0.03834407,-0.0257137,0.01865401,0.2114324,49.47943,31.51
4,0.09823608,0.1624451,0.9818115,1.0,0.09823608,0.1624451,0.9818115,-25.4973,1.05571,-24.42059,4.929276,0.2749472,0.4819998,1.0,0.06150818,0.03755188,0.9973907,31.17287,7.638611,-31.46643,3.974182,0.5439488,0.3388551,0.05460346,1.197788,-0.2924007,-0.03847656,-0.02583943,0.01804701,0.2114324,-9.361023,31.51
4,0.09823608,0.1624451,0.9818115,1.0,0.09823608,0.1624451,0.9818115,-25.4973,1.05571,-24.42059,4.929276,0.2749472,0.4819998,1.0,0.06150818,0.03755188,0.9973907,31.17287,7.638611,-31.46643,3.974182,0.5439488,0.3388551,0.05460346,1.197788,-0.2924007,-0.03847656,-0.02583943,0.01804701,0.2114324,-9.361023,31.51
4,0.09823608,0.1624451,0.9818115,1.0,0.09823608,0.1624451,0.9818115,-25.4973,1.05571,-24.42059,4.929276,0.2749472,0.4819998,1.0,0.06150818,0.03755188,0.9973907,31.17287,7.638611,-31.46643,3.974182,0.5439488,0.3388551,0.05460346,1.197788,-0.2924007,-0.03847656,-0.02583943,0.01804701,0.2114324,-9.361023,31.51
4,-1.0,-1.0,-1.0,0.3247473,0.0,0.0,0.0,-25.79958,1.79541,-25.0164,-1.0,0.2841007,0.5035932,0.1991297,0.0,0.0,0.0,31.27866,4.393524,-24.66396,-1.0,-1.0,-1.0,0.05425751,1.197789,-0.2928667,-0.03873536,-0.02607794,0.01750252,0.2114324,-9.361023,31.51
4,-1.0,-1.0,-1.0,0.3247473,0.0,0.0,0.0,-25.79958,1.79541,-25.0164,-1.0,0.2841007,0.5035932,0.1991297,0.0,0.0,0.0,31.27866,4.393524,-24.66396,-1.0,-1.0,-1.0,0.05425751,1.197789,-0.2928667,-0.03873536,-0.02607794,0.01750252,0.2114324,-9.361023,31.51
4,-1.0,-1.0,-1.0,0.3247473,0.0,0.0,0.0,-25.79958,1.79541,-25.0164,-1.0,0.2841007,0.5035932,0.1991297,0.0,0.0,0.0,31.27866,4.393524,-24.66396,-1.0,-1.0,-1.0,0.05425751,1.197789,-0.2928667,-0.03873536,-0.02607794,0.01750252,0.2114324,-9.361023,31.51
4,-1.0,-1.0,-1.0,0.1851183,0.0,0.0,0.0,-25.75032,1.595612,-24.16553,-1.0,0.2804994,0.4861955,0.09416163,0.0,0.0,0.0,31.27866,4.393524,-24.66396,-1.0,-1.0,-1.0,0.0537771,1.197617,-0.2935863,-0.03871574,-0.02652215,0.01617697,0.2114324,-9.361023,31.51
4,-1.0,-1.0,-1.0,0.1851183,0.0,0.0,0.0,-25.75032,1.595612,-24.16553,-1.0,0.2804994,0.4861955,0.09416163,0.0,0.0,0.0,31.27866,4.393524,-24.66396,-1.0,-1.0,-1.0,0.0537771,1.197617,-0.2935863,-0.03871574,-0.02652215,0.01617697,0.2114324,-9.361023,31.51
4,-1.0,-1.0,-1.0,0.1851183,0.0,0.0,0.0,-25.75032,1.595612,-24.16553,-1.0,0.2804994,0.4861955,0.09416163,0.0,0.0,0.0,31.27866,4.393524,-24.66396,-1.0,-1.0,-1.0,0.0537771,1.197617,-0.2935863,-0.03871574,-0.02652215,0.01617697,0.2114324,-9.361023,31.51
4,-1.0,-1.0,-1.0,0.4382981,0.0,0.0,0.0,-25.46536,1.373077,-24.19244,-1.0,0.2717488,0.4678543,0.3569117,0.0,0.0,0.0,31.19652,7.760513,-30.24583,-1.0,0.5413128,0.3330233,0.0534035,1.19756,-0.2942712,-0.03866297,-0.02691533,0.01401631,0.2114324,-9.361023,31.51
4,-1.0,-1.0,-1.0,0.4382981,0.0,0.0,0.0,-25.46536,1.373077,-24.19244,-1.0,0.2717488,0.4678543,0.3569117,0.0,0.0,0.0,31.19652,7.760513,-30.24583,-1.0,0.5413128,0.3330233,0.0534035,1.19756,-0.2942712,-0.03866297,-0.02691533,0.01401631,0.2114324,-9.361023,31.51
4,-1.0,-1.0,-1.0,0.4382981,0.0,0.0,0.0,-25.46536,1.373077,-24.19244,-1.0,0.2717488,0.4678543,0.3569117,0.0,0.0,0.0,31.19652,7.760513,-30.24583,-1.0,0.5413128,0.3330233,0.0534035,1.19756,-0.2942712,-0.03866297,-0.02691533,0.01401631,0.2114324,-9.361023,31.51
5,0.1300049,0.2010193,0.9709167,0.7199982,0.1300049,0.2010193,0.9709167,-25.47565,1.217407,-24.00998,5.071793,0.2695198,0.467201,0.5578175,0.106308,0.07720947,0.9913177,30.92297,6.533707,-25.4912,4.188156,0.5417644,0.3225509,0.05352426,1.197642,-0.2949116,-0.03845176,-0.02782052,0.01197223,0.2114324,-9.361023,31.51
5,0.1300049,0.2010193,0.9709167,0.7199982,0.1300049,0.2010193,0.9709167,-25.47565,1.217407,-24.00998,5.071793,0.2695198,0.467201,0.5578175,0.106308,0.07720947,0.9913177,30.92297,6.533707,-25.4912,4.188156,0.5417644,0.3225509,0.05352426,1.197642,-0.2949116,-0.03845176,-0.02782052,0.01197223,0.2114324,-9.361023,31.51
5,0.1300049,0.2010193,0.9709167,0.7199982,0.1300049,0.2010193,0.9709167,-25.47565,1.217407,-24.00998,5.071793,0.2695198,0.467201,0.5578175,0.106308,0.07720947,0.9913177,30.92297,6.533707,-25.4912,4.188156,0.5417644,0.3225509,0.05352426,1.197642,-0.2949116,-0.03845176,-0.02782052,0.01197223,0.2114324,-9.361023,31.51
5,0.1300049,0.2010193,0.9709167,0.7199982,0.1300049,0.2010193,0.9709167,-25.47565,1.217407,-24.00998,5.071793,0.2695198,0.467201,0.5578175,0.106308,0.07720947,0.9913177,30.92297,6.533707,-25.4912,4.188156,0.5417644,0.3225509,0.05352426,1.197642,-0.2949116,-0.03845176,-0.02782052,0.01197223,0.2114324,-9.361023,31.51
5,0.0801239,0.1762543,0.9810638,0.9370204,0.0801239,0.1762543,0.9810638,-25.43634,1.245407,-24.68141,5.047668,0.2753825,0.4758312,0.7352552,0.06921387,0.1788025,0.9814453,30.93123,6.388367,-26.23184,4.761703,0.5483916,0.3156941,0.0536952,1.197978,-0.2954694,-0.03950234,-0.02822201,0.00863944,0.2114324,-9.361023,31.51
5,0.0801239,0.1762543,0.9810638,0.9370204,0.0801239,0.1762543,0.9810638,-25.43634,1.245407,-24.68141,5.047668,0.2753825,0.4758312,0.7352552,0.06921387,0.1788025,0.9814453,30.93123,6.388367,-26.23184,4.761703,0.5483916,0.3156941,0.0536952,1.197978,-0.2954694,-0.03950234,-0.02822201,0.00863944,0.2114324,-9.361023,31.51
5,0.08676147,0.1733246,0.9810333,1.0,0.08676147,0.1733246,0.9810333,-25.46582,1.021042,-24.16658,5.003601,0.2761104,0.4792067,1.0,0.03279114,0.1546021,0.9874268,31.1185,6.735794,-28.00836,4.543533,0.5490821,0.3220109,0.05431175,1.198372,-0.2958277,-0.04113263,-0.02820458,0.005229114,0.2114324,-10.83194,31.51
5,0.08676147,0.1733246,0.9810333,1.0,0.08676147,0.1733246,0.9810333,-25.46582,1.021042,-24.16658,5.003601,0.2761104,0.4792067,1.0,0.03279114,0.1546021,0.9874268,31.1185,6.735794,-28.00836,4.543533,0.5490821,0.3220109,0.05431175,1.198372,-0.2958277,-0.04113263,-0.02820458,0.005229114,0.2114324,-10.83194,31.51
5,0.08676147,0.1733246,0.9810333,1.0,0.08676147,0.1733246,0.9810333,-25.46582,1.021042,-24.16658,5.003601,0.2761104,0.4792067,1.0,0.03279114,0.1546021,0.9874268,31.1185,6.735794,-28.00836,4.543533,0.5490821,0.3220109,0.05431175,1.198372,-0.2958277,-0.04113263,-0.02820458,0.005229114,0.2114324,-10.83194,31.51
5,0.07928467,0.169693,0.9822998,1.0,0.07931519,0.169693,0.9822845,-25.51912,0.7056274,-23.46724,5.030457,0.2803411,0.4841419,1.0,0.04342651,0.1589813,0.9863129,30.94363,5.926163,-25.48003,4.592407,0.551616,0.3292966,0.05477214,1.198431,-0.2966807,-0.04209055,-0.02757844,0.002557657,0.2114324,-10.83194,31.51
5,0.07928467,0.169693,0.9822998,1.0,0.07931519,0.169693,0.9822845,-25.51912,0.7056274,-23.46724,5.030457,0.2803411,0.4841419,1.0,0.04342651,0.1589813,0.9863129,30.94363,5.926163,-25.48003,4.592407,0.551616,0.3292966,0.05477214,1.198431,-0.2966807,-0.04209055,-0.02757844,0.002557657,0.2114324,-10.83194,31.51
5,0.07928467,0.169693,0.9822998,1.0,0.07931519,0.169693,0.9822845,-25.51912,0.7056274,-23.46724,5.030457,0.2803411,0.4841419,1.0,0.04342651,0.1589813,0.9863129,30.94363,5.926163,-25.48003,4.592407,0.551616,0.3292966,0.05477214,1.198431,-0.2966807,-0.04209055,-0.02757844,0.002557657,0.2114324,-10.83194,31.51
5,0.07727051,0.1657104,0.983139,1.0,0.0773468,0.1656952,0.9831238,-25.51894,0.5717316,-23.32555,5.064758,0.280918,0.487957,1.0,0.04005432,0.171875,0.9842987,30.94464,5.813766,-25.38319,4.747757,0.5521117,0.3303007,0.05531657,1.198436,-0.2975221,-0.04339887,-0.02687405,-0.0002729575,0.2114324,-10.83194,31.51
5,0.07727051,0.1657104,0.983139,1.0,0.0773468,0.1656952,0.9831238,-25.51894,0.5717316,-23.32555,5.064758,0.280918,0.487957,1.0,0.04005432,0.171875,0.9842987,30.94464,5.813766,-25.38319,4.747757,0.5521117,0.3303007,0.05531657,1.198436,-0.2975221,-0.04339887,-0.02687405,-0.0002729575,0.2114324,-10.83194,31.51
5,0.07727051,0.1657104,0.983139,1.0,0.0773468,0.1656952,0.9831238,-25.51894,0.5717316,-23.32555,5.064758,0.280918,0.487957,1.0,0.04005432,0.171875,0.9842987,30.94464,5.813766,-25.38319,4.747757,0.5521117,0.3303007,0.05531657,1.198436,-0.2975221,-0.04339887,-0.02687405,-0.0002729575,0.2114324,-10.83194,31.51
5,0.04637146,0.161377,0.9857941,1.0,0.06509399,0.1501465,0.9865112,-25.52216,0.559906,-23.53447,5.046707,0.2826927,0.4925843,1.0,0.03994751,0.1652222,0.9854431,30.89621,5.682999,-25.29085,4.827438,0.553661,0.3352362,0.05630875,1.198796,-0.2979534,-0.0448857,-0.02598349,-0.00259525,0.2114324,-10.83194,31.51
5,0.04637146,0.161377,0.9857941,1.0,0.06509399,0.1501465,0.9865112,-25.52216,0.559906,-23.53447,5.046707,0.2826927,0.4925843,1.0,0.03994751,0.1652222,0.9854431,30.89621,5.682999,-25.29085,4.827438,0.553661,0.3352362,0.05630875,1.198796,-0.2979534,-0.0448857,-0.02598349,-0.00259525,0.2114324,-10.83194,31.51
5,0.04637146,0.161377,0.9857941,1.0,0.06509399,0.1501465,0.9865112,-25.52216,0.559906,-23.53447,5.046707,0.2826927,0.4925843,1.0,0.03994751,0.1652222,0.9854431,30.89621,5.682999,-25.29085,4.827438,0.553661,0.3352362,0.05630875,1.198796,-0.2979534,-0.0448857,-0.02598349,-0.00259525,0.2114324,-10.83194,31.51
5,0.0426178,0.1486816,0.9879608,1.0,0.056427,0.1479187,0.987381,-25.53627,0.3891296,-23.24121,5.050323,0.2850443,0.4959445,1.0,0.03395081,0.1491547,0.9882202,30.86366,5.519699,-25.11598,4.799606,0.5555727,0.3420335,0.05662739,1.198864,-0.2986338,-0.04651072,-0.02599123,-0.004369027,0.2114324,20.04465,31.51
5,0.0426178,0.1486816,0.9879608,1.0,0.056427,0.1479187,0.987381,-25.53627,0.3891296,-23.24121,5.050323,0.2850443,0.4959445,1.0,0.03395081,0.1491547,0.9882202,30.86366,5.519699,-25.11598,4.799606,0.5555727,0.3420335,0.05662739,1.198864,-0.2986338,-0.04651072,-0.02599123,-0.004369027,0.2114324,20.04465,31.51
5,0.0426178,0.1486816,0.9879608,1.0,0.056427,0.1479187,0.987381,-25.53627,0.3891296,-23.24121,5.050323,0.2850443,0.4959445,1.0,0.03395081,0.1491547,0.9882202,30.86366,5.519699,-25.11598,4.799606,0.5555727,0.3420335,0.05662739,1.198864,-0.2986338,-0.04651072,-0.02599123,-0.004369027,0.2114324,20.04465,31.51
5,0.03691101,0.1531067,0.9875183,1.0,0.05335999,0.1436615,0.9881744,-25.56647,0.3677063,-23.33376,5.026062,0.2864029,0.4981064,1.0,0.03179932,0.1560211,0.9872284,30.841,5.406387,-25.04141,4.842911,0.5566266,0.3441717,0.05739677,1.199094,-0.2990835,-0.0479421,-0.0254346,-0.006093743,0.2114324,20.04465,31.51
5,0.03691101,0.1531067,0.9875183,1.0,0.05335999,0.1436615,0.9881744,-25.56647,0.3677063,-23.33376,5.026062,0.2864029,0.4981064,1.0,0.03179932,0.1560211,0.9872284,30.841,5.406387,-25.04141,4.842911,0.5566266,0.3441717,0.05739677,1.199094,-0.2990835,-0.0479421,-0.0254346,-0.006093743,0.2114324,20.04465,31.51
5,0.03691101,0.1531067,0.9875183,1.0,0.05335999,0.1436615,0.9881744,-25.56647,0.3677063,-23.33376,5.026062,0.2864029,0.4981064,1.0,0.03179932,0.1560211,0.9872284,30.841,5.406387,-25.04141,4.842911,0.5566266,0.3441717,0.05739677,1.199094,-0.2990835,-0.0479421,-0.0254346,-0.006093743,0.2114324,20.04465,31.51
5,0.05987549,0.1210938,0.9908295,1.0,0.05987549,0.1210938,0.9908295,-25.62424,0.1994476,-23.08951,5.032928,0.2876213,0.50506,1.0,0.05863953,0.1692352,0.9838257,30.6107,4.627792,-22.74699,5.002594,0.558258,0.350519,0.05870938,1.199282,-0.2993848,-0.04835865,-0.02480822,-0.007209386,0.2114324,20.04465,31.51
5,0.05987549,0.1210938,0.9908295,1.0,0.05987549,0.1210938,0.9908295,-25.62424,0.1994476,-23.08951,5.032928,0.2876213,0.50506,1.0,0.05863953,0.1692352,0.9838257,30.6107,4.627792,-22.74699,5.002594,0.558258,0.350519,0.05870938,1.199282,-0.2993848,-0.04835865,-0.02480822,-0.007209386,0.2114324,20.04465,31.51
5,0.05987549,0.1210938,0.9908295,1.0,0.05987549,0.1210938,0.9908295,-25.62424,0.1994476,-23.08951,5.032928,0.2876213,0.50506,1.0,0.05863953,0.1692352,0.9838257,30.6107,4.627792,-22.74699,5.002594,0.558258,0.350519,0.05870938,1.199282,-0.2993848,-0.04835865,-0.02480822,-0.007209386,0.2114324,20.04465,31.51
5,0.06283569,0.1455994,0.9873352,1.0,0.06283569,0.1455994,0.9873352,-25.66409,0.3356934,-23.10178,5.177979,0.2884248,0.4970331,1.0,0.02432251,0.1590271,0.986969,30.72408,5.369522,-24.84068,4.854614,0.561631,0.343445,0.05968559,1.199272,-0.2998595,-0.04874887,-0.0236574,-0.008169596,0.2114324,20.04465,31.51
5,0.06283569,0.1455994,0.9873352,1.0,0.06283569,0.1455994,0.9873352,-25.66409,0.3356934,-23.10178,5.177979,0.2884248,0.4970331,1.0,0.02432251,0.1590271,0.986969,30.72408,5.369522,-24.84068,4.854614,0.561631,0.343445,0.05968559,1.199272,-0.2998595,-0.04874887,-0.0236574,-0.008169596,0.2114324,20.04465,31.51
5,0.06283569,0.1455994,0.9873352,1.0,0.06283569,0.1455994,0.9873352,-25.66409,0.3356934,-23.10178,5.177979,0.2884248,0.4970331,1.0,0.02432251,0.1590271,0.986969,30.72408,5.369522,-24.84068,4.854614,0.561631,0.343445,0.05968559,1.199272,-0.2998595,-0.04874887,-0.0236574,-0.008169596,0.2114324,20.04465,31.51
5,0.05317688,0.2210999,0.9737854,1.0,0.05317688,0.2210999,0.9737854,-25.54643,1.090485,-23.80226,5.10405,0.2849754,0.466351,1.0,0.0196228,0.2406158,0.9704132,30.62091,6.020996,-24.90904,4.952194,0.5663427,0.3083541,0.0608393,1.199475,-0.3002607,-0.04989795,-0.02193329,-0.009355717,0.2114324,20.04465,31.51
5,0.05317688,0.2210999,0.9737854,1.0,0.05317688,0.2210999,0.9737854,-25.54643,1.090485,-23.80226,5.10405,0.2849754,0.466351,1.0,0.0196228,0.2406158,0.9704132,30.62091,6.020996,-24.90904,4.952194,0.5663427,0.3083541,0.0608393,1.199475,-0.3002607,-0.04989795,-0.02193329,-0.009355717,0.2114324,20.04465,31.51
5,0.05317688,0.2210999,0.9737854,1.0,0.05317688,0.2210999,0.9737854,-25.54643,1.090485,-23.80226,5.10405,0.2849754,0.466351,1.0,0.0196228,0.2406158,0.9704132,30.62091,6.020996,-24.90904,4.952194,0.5663427,0.3083541,0.0608393,1.199475,-0.3002607,-0.04989795,-0.02193329,-0.009355717,0.2114324,20.04465,31.51
5,0.02851868,0.2468262,0.9686279,1.0,0.04988098,0.2081604,0.9768066,-25.58946,1.15358,-24.13753,5.103867,0.2865109,0.4692599,1.0,0.02742004,0.2488251,0.9681549,30.5318,5.894791,-24.66162,5.046143,0.5678216,0.309606,0.06148994,1.199276,-0.3008609,-0.05062947,-0.02030591,-0.01080098,0.2114324,20.04465,31.51
5,0.02851868,0.2468262,0.9686279,1.0,0.04988098,0.2081604,0.9768066,-25.58946,1.15358,-24.13753,5.103867,0.2865109,0.4692599,1.0,0.02742004,0.2488251,0.9681549,30.5318,5.894791,-24.66162,5.046143,0.5678216,0.309606,0.06148994,1.199276,-0.3008609,-0.05062947,-0.02030591,-0.01080098,0.2114324,20.04465,31.51
5,0.02851868,0.2468262,0.9686279,1.0,0.04988098,0.2081604,0.9768066,-25.58946,1.15358,-24.13753,5.103867,0.2865109,0.4692599,1.0,0.02742004,0.2488251,0.9681549,30.5318,5.894791,-24.66162,5.046143,0.5678216,0.309606,0.06148994,1.199276,-0.3008609,-0.05062947,-0.02030591,-0.01080098,0.2114324,20.04465,31.51
5,0.02752686,0.2212372,0.974823,1.0,0.03991699,0.1959991,0.9797821,-25.60628,1.132034,-24.30139,5.082489,0.2884432,0.4732893,1.0,0.01708984,0.2423248,0.9700317,30.58191,5.880798,-24.62062,5.040909,0.5678216,0.3108472,0.06253934,1.199458,-0.3012831,-0.05160154,-0.01864362,-0.01296132,0.2114324,-2.428314,31.51
5,0.02752686,0.2212372,0.974823,1.0,0.03991699,0.1959991,0.9797821,-25.60628,1.132034,-24.30139,5.082489,0.2884432,0.4732893,1.0,0.01708984,0.2423248,0.9700317,30.58191,5.880798,-24.62062,5.040909,0.5678216,0.3108472,0.06253934,1.199458,-0.3012831,-0.05160154,-0.01864362,-0.01296132,0.2114324,-2.428314,31.51
5,0.02752686,0.2212372,0.974823,1.0,0.03991699,0.1959991,0.9797821,-25.60628,1.132034,-24.30139,5.082489,0.2884432,0.4732893,1.0,0.01708984,0.2423248,0.9700317,30.58191,5.880798,-24.62062,5.040909,0.5678216,0.3108472,0.06253934,1.199458,-0.3012831,-0.05160154,-0.01864362,-0.01296132,0.2114324,-2.428314,31.51
5,0.02006531,0.2335815,0.9721222,1.0,0.04107666,0.1983795,0.9792633,-25.60939,1.105484,-24.26318,5.04921,0.2884283,0.4734145,1.0,0.01570129,0.2408447,0.9704285,30.58922,5.879913,-24.61073,5.047623,0.5678008,0.3110512,0.06314623,1.199667,-0.3013674,-0.05234398,-0.01761835,-0.01374416,0.2114324,-2.428314,31.51
5,0.02006531,0.2335815,0.9721222,1.0,0.04107666,0.1983795,0.9792633,-25.60939,1.105484,-24.26318,5.04921,0.2884283,0.4734145,1.0,0.01570129,0.2408447,0.9704285,30.58922,5.879913,-24.61073,5.047623,0.5678008,0.3110512,0.06314623,1.199667,-0.3013674,-0.05234398,-0.01761835,-0.01374416,0.2114324,-2.428314,31.51
5,0.02006531,0.2335815,0.9721222,1.0,0.04107666,0.1983795,0.9792633,-25.60939,1.105484,-24.26318,5.04921,0.2884283,0.4734145,1.0,0.01570129,0.2408447,0.9704285,30.58922,5.879913,-24.61073,5.047623,0.5678008,0.3110512,0.06379676,1.199738,-0.3015528,-0.05264105,-0.01689517,-0.01416331,0.2114324,-2.428314,31.51
5,0.02006531,0.2335815,0.9721222,1.0,0.04107666,0.1983795,0.9792633,-25.60939,1.105484,-24.26318,5.04921,0.2884283,0.4734145,1.0,0.01570129,0.2408447,0.9704285,30.58922,5.879913,-24.61073,5.047623,0.5678008,0.3110512,0.06379676,1.199738,-0.3015528,-0.05264105,-0.01689517,-0.01416331,0.2114324,-2.428314,31.51
5,0.02325439,0.2290192,0.9731293,1.0,0.04243469,0.1903381,0.9807892,-25.62224,1.070389,-24.21481,5.111542,0.2886886,0.4755017,1.0,0.01667786,0.242157,0.9700928,30.59871,5.863708,-24.58418,5.073959,0.5673019,0.3112107,0.06441724,1.19977,-0.3016145,-0.05282176,-0.01617098,-0.01482388,0.2114324,-2.428314,31.51
5,0.02325439,0.2290192,0.9731293,1.0,0.04243469,0.1903381,0.9807892,-25.62224,1.070389,-24.21481,5.111542,0.2886886,0.4755017,1.0,0.01667786,0.242157,0.9700928,30.59871,5.863708,-24.58418,5.073959,0.5673019,0.3112107,0.06441724,1.19977,-0.3016145,-0.05282176,-0.01617098,-0.01482388,0.2114324,-2.428314,31.51
5,0.04736328,0.1749268,0.983429,1.0,0.04994202,0.1714935,0.983902,-25.64806,0.9843903,-24.06061,5.084396,0.2885364,0.4799723,1.0,0.007064819,0.2279205,0.9736481,30.6266,5.452667,-23.65723,5.045853,0.5671888,0.320306,0.06543839,1.20018,-0.3013539,-0.05295376,-0.01547166,-0.01564692,0.2114324,-2.428314,31.51
5,0.04736328,0.1749268,0.983429,1.0,0.04994202,0.1714935,0.983902,-25.64806,0.9843903,-24.06061,5.084396,0.2885364,0.4799723,1.0,0.007064819,0.2279205,0.9736481,30.6266,5.452667,-23.65723,5.045853,0.5671888,0.320306,0.06543839,1.20018,-0.3013539,-0.05295376,-0.01547166,-0.01564692,0.2114324,-2.428314,31.51
5,0.04736328,0.1749268,0.983429,1.0,0.04994202,0.1714935,0.983902,-25.64806,0.9843903,-24.06061,5.084396,0.2885364,0.4799723,1.0,0.007064819,0.2279205,0.9736481,30.6266,5.452667,-23.65723,5.045853,0.5671888,0.320306,0.06611073,1.200225,-0.3015164,-0.05293293,-0.0149754,-0.01664011,0.2114324,-2.428314,31.51
5,0.04736328,0.1749268,0.983429,1.0,0.04994202,0.1714935,0.983902,-25.64806,0.9843903,-24.06061,5.084396,0.2885364,0.4799723,1.0,0.007064819,0.2279205,0.9736481,30.6266,5.452667,-23.65723,5.045853,0.5671888,0.320306,0.06611073,1.200225,-0.3015164,-0.05293293,-0.0149754,-0.01664011,0.2114324,-2.428314,31.51
5,0.04693604,0.1654816,0.9850922,1.0,0.04693604,0.1654663,0.9850922,-25.6355,0.6560364,-23.62816,5.236984,0.2892239,0.4880637,1.0,0.006469727,0.2095032,0.9777832,30.64038,5.247803,-23.43661,5.087509,0.56652,0.3287709,0.06642616,1.199886,-0.3018678,-0.05299764,-0.01447962,-0.01787153,0.2114324,-17.96741,31.51
5,0.04693604,0.1654816,0.9850922,1.0,0.04693604,0.1654663,0.9850922,-25.6355,0.6560364,-23.62816,5.236984,0.2892239,0.4880637,1.0,0.006469727,0.2095032,0.9777832,30.64038,5.247803,-23.43661,5.087509,0.56652,0.3287709,0.06642616,1.199886,-0.3018678,-0.05299764,-0.01447962,-0.01787153,0.2114324,-17.96741,31.51
5,0.04063416,0.156601,0.9868164,1.0,0.04267883,0.1539459,0.9871521,-25.63278,0.5536957,-23.41373,5.128891,0.2902158,0.4912742,1.0,0.003189087,0.2045746,0.9788361,30.63693,5.230865,-23.41985,5.09082,0.5671425,0.3300325,0.067065,1.199827,-0.3019321,-0.05294236,-0.01387043,-0.01890829,0.2114324,-17.96741,31.51
5,0.04063416,0.156601,0.9868164,1.0,0.04267883,0.1539459,0.9871521,-25.63278,0.5536957,-23.41373,5.128891,0.2902158,0.4912742,1.0,0.003189087,0.2045746,0.9788361,30.63693,5.230865,-23.41985,5.09082,0.5671425,0.3300325,0.067065,1.199827,-0.3019321,-0.05294236,-0.01387043,-0.01890829,0.2114324,-17.96741,31.51
5,0.006835938,0.2008514,0.9795837,1.0,0.04318237,0.1515961,0.9874878,-25.63484,0.5427399,-23.39929,5.180206,0.2902071,0.4919301,1.0,0.004989624,0.2033539,0.9790802,30.6331,5.218552,-23.38887,5.091873,0.5669459,0.3304092,0.06749344,1.199644,-0.3021281,-0.05256612,-0.01327427,-0.02018594,0.2114324,-17.96741,31.51
5,0.006835938,0.2008514,0.9795837,1.0,0.04318237,0.1515961,0.9874878,-25.63484,0.5427399,-23.39929,5.180206,0.2902071,0.4919301,1.0,0.004989624,0.2033539,0.9790802,30.6331,5.218552,-23.38887,5.091873,0.5669459,0.3304092,0.06749344,1.199644,-0.3021281,-0.05256612,-0.01327427,-0.02018594,0.2114324,-17.96741,31.51
5,0.00831604,0.198349,0.9800873,1.0,0.0428009,0.1504669,0.9876862,-25.63634,0.5367737,-23.39262,5.189301,0.290327,0.4922511,1.0,0.004547119,0.203537,0.9790497,30.63089,5.212997,-23.37498,5.097015,0.5670825,0.3304659,0.06816816,1.199692,-0.3020339,-0.05214046,-0.01293945,-0.021734,0.2114324,-17.96741,31.51
5,0.00831604,0.198349,0.9800873,1.0,0.0428009,0.1504669,0.9876862,-25.63634,0.5367737,-23.39262,5.189301,0.290327,0.4922511,1.0,0.004547119,0.203537,0.9790497,30.63089,5.212997,-23.37498,5.097015,0.5670825,0.3304659,0.06816816,1.199692,-0.3020339,-0.05214046,-0.01293945,-0.021734,0.2114324,-17.96741,31.51
5,0.00831604,0.198349,0.9800873,1.0,0.0428009,0.1504669,0.9876862,-25.63634,0.5367737,-23.39262,5.189301,0.290327,0.4922511,1.0,0.004547119,0.203537,0.9790497,30.63089,5.212997,-23.37498,5.097015,0.5670825,0.3304659,0.06892431,1.199611,-0.3017484,-0.05155025,-0.01274159,-0.02340346,0.2114324,-17.96741,31.51
5,0.00831604,0.198349,0.9800873,1.0,0.0428009,0.1504669,0.9876862,-25.63634,0.5367737,-23.39262,5.189301,0.290327,0.4922511,1.0,0.004547119,0.203537,0.9790497,30.63089,5.212997,-23.37498,5.097015,0.5670825,0.3304659,0.06892431,1.199611,-0.3017484,-0.05155025,-0.01274159,-0.02340346,0.2114324,-17.96741,31.51
5,0.00831604,0.198349,0.9800873,1.0,0.0428009,0.1504669,0.9876862,-25.63634,0.5367737,-23.39262,5.189301,0.290327,0.4922511,1.0,0.004547119,0.203537,0.9790497,30.63089,5.212997,-23.37498,5.097015,0.5670825,0.3304659,0.06897604,1.199104,-0.3019897,-0.05135795,-0.012441,-0.02469474,0.2114324,-17.96741,31.51
5,0.00831604,0.198349,0.9800873,1.0,0.0428009,0.1504669,0.9876862,-25.63634,0.5367737,-23.39262,5.189301,0.290327,0.4922511,1.0,0.004547119,0.203537,0.9790497,30.63089,5.212997,-23.37498,5.097015,0.5670825,0.3304659,0.06897604,1.199104,-0.3019897,-0.05135795,-0.012441,-0.02469474,0.2114324,-17.96741,31.51
5,0.01113892,0.1929779,0.9811249,1.0,0.04382324,0.1511993,0.9875183,-25.63612,0.5212097,-23.35446,5.181595,0.2902071,0.4923037,1.0,0.00479126,0.2010193,0.9795685,30.62898,5.209259,-23.36501,5.116226,0.5670932,0.3309411,0.07011759,1.199227,-0.3017486,-0.05106013,-0.01222167,-0.02589963,0.2114324,-17.96741,31.51
5,0.01113892,0.1929779,0.9811249,1.0,0.04382324,0.1511993,0.9875183,-25.63612,0.5212097,-23.35446,5.181595,0.2902071,0.4923037,1.0,0.00479126,0.2010193,0.9795685,30.62898,5.209259,-23.36501,5.116226,0.5670932,0.3309411,0.07011759,1.199227,-0.3017486,-0.05106013,-0.01222167,-0.02589963,0.2114324,-17.96741,31.51
5,0.01113892,0.1929779,0.9811249,1.0,0.04382324,0.1511993,0.9875183,-25.63612,0.5212097,-23.35446,5.181595,0.2902071,0.4923037,1.0,0.00479126,0.2010193,0.9795685,30.62898,5.209259,-23.36501,5.116226,0.5670932,0.3309411,0.07084858,1.199237,-0.3015531,-0.05112502,-0.01181815,-0.02708558,0.2114324,-17.96741,31.51
5,0.01113892,0.1929779,0.9811249,1.0,0.04382324,0.1511993,0.9875183,-25.63612,0.5212097,-23.35446,5.181595,0.2902071,0.4923037,1.0,0.00479126,0.2010193,0.9795685,30.62898,5.209259,-23.36501,5.116226,0.5670932,0.3309411,0.07084858,1.199237,-0.3015531,-0.05112502,-0.01181815,-0.02708558,0.2114324,-17.96741,31.51
5,-0.02119446,0.1979523,0.9799805,1.0,0.0003356934,0.1429901,0.9897156,-25.91522,0.8730316,-24.0087,5.111069,0.305748,0.4879501,1.0,-0.02426147,0.2057343,0.978302,30.26776,5.278015,-23.08498,5.12706,0.5836437,0.3257751,0.07151937,1.199198,-0.3014499,-0.05117906,-0.01139119,-0.02790368,0.2114324,-17.96741,31.51
5,-0.02119446,0.1979523,0.9799805,1.0,0.0003356934,0.1429901,0.9897156,-25.91522,0.8730316,-24.0087,5.111069,0.305748,0.4879501,1.0,-0.02426147,0.2057343,0.978302,30.26776,5.278015,-23.08498,5.12706,0.5836437,0.3257751,0.07151937,1.199198,-0.3014499,-0.05117906,-0.01139119,-0.02790368,0.2114324,-17.96741,31.51
5,-0.02816772,0.236618,0.9711761,1.0,-0.01895142,0.1829987,0.9829254,-26.0641,1.156067,-23.99527,5.077393,0.3138483,0.472265,1.0,-0.02998352,0.2470856,0.9685211,30.0343,5.81749,-24.03773,5.090683,0.5935094,0.3079393,0.07193005,1.199285,-0.3013684,-0.05075689,-0.01093875,-0.0286098,0.2114324,-8.802917,31.51
5,-0.02816772,0.236618,0.9711761,1.0,-0.01895142,0.1829987,0.9829254,-26.0641,1.156067,-23.99527,5.077393,0.3138483,0.472265,1.0,-0.02998352,0.2470856,0.9685211,30.0343,5.81749,-24.03773,5.090683,0.5935094,0.3079393,0.07193005,1.199285,-0.3013684,-0.05075689,-0.01093875,-0.0286098,0.2114324,-8.802917,31.51
5,-0.02897644,0.223999,0.9741516,1.0,-0.01551819,0.1833649,0.9829102,-26.06104,1.168137,-24.03224,5.082047,0.3131303,0.4721226,1.0,-0.03742981,0.2493896,0.9676666,30.01854,5.831207,-24.04498,5.175293,0.5953199,0.3071928,0.07238281,1.199158,-0.3012722,-0.05033177,-0.01045538,-0.02920926,0.2114324,-8.802917,31.51
5,-0.02897644,0.223999,0.9741516,1.0,-0.01551819,0.1833649,0.9829102,-26.06104,1.168137,-24.03224,5.082047,0.3131303,0.4721226,1.0,-0.03742981,0.2493896,0.9676666,30.01854,5.831207,-24.04498,5.175293,0.5953199,0.3071928,0.07238281,1.199158,-0.3012722,-0.05033177,-0.01045538,-0.02920926,0.2114324,-8.802917,31.51
5,-0.02897644,0.223999,0.9741516,1.0,-0.01551819,0.1833649,0.9829102,-26.06104,1.168137,-24.03224,5.082047,0.3131303,0.4721226,1.0,-0.03742981,0.2493896,0.9676666,30.01854,5.831207,-24.04498,5.175293,0.5953199,0.3071928,0.07296157,1.199094,-0.3011204,-0.0499378,-0.009839353,-0.02949937,0.2114324,-8.802917,31.51
5,-0.02897644,0.223999,0.9741516,1.0,-0.01551819,0.1833649,0.9829102,-26.06104,1.168137,-24.03224,5.082047,0.3131303,0.4721226,1.0,-0.03742981,0.2493896,0.9676666,30.01854,5.831207,-24.04498,5.175293,0.5953199,0.3071928,0.07296157,1.199094,-0.3011204,-0.0499378,-0.009839353,-0.02949937,0.2114324,-8.802917,31.51
5,-0.02218628,0.1889496,0.98172,1.0,-0.01896667,0.1764832,0.9841156,-26.07083,1.121155,-24.08505,5.116547,0.3139111,0.4752517,1.0,-0.03460693,0.2368927,0.9709167,30.05309,5.761887,-23.99684,5.121735,0.5935696,0.3111958,0.07343948,1.198995,-0.3008754,-0.04977192,-0.008906115,-0.02958109,0.2114324,-8.802917,31.51
5,-0.02218628,0.1889496,0.98172,1.0,-0.01896667,0.1764832,0.9841156,-26.07083,1.121155,-24.08505,5.116547,0.3139111,0.4752517,1.0,-0.03460693,0.2368927,0.9709167,30.05309,5.761887,-23.99684,5.121735,0.5935696,0.3111958,0.07343948,1.198995,-0.3008754,-0.04977192,-0.008906115,-0.02958109,0.2114324,-8.802917,31.51
5,-0.01495361,0.166626,0.9859009,1.0,-0.01437378,0.1630707,0.986496,-26.08142,0.9334717,-23.80949,5.112106,0.3138521,0.4811174,1.0,-0.02529907,0.2282104,0.9732666,30.07143,5.578094,-23.7793,5.092194,0.591091,0.317215,0.07370412,1.199244,-0.3004745,-0.04974931,-0.008270208,-0.02945413,0.2114324,-8.802917,31.51
5,-0.01495361,0.166626,0.9859009,1.0,-0.01437378,0.1630707,0.986496,-26.08142,0.9334717,-23.80949,5.112106,0.3138521,0.4811174,1.0,-0.02529907,0.2282104,0.9732666,30.07143,5.578094,-23.7793,5.092194,0.591091,0.317215,0.07370412,1.199244,-0.3004745,-0.04974931,-0.008270208,-0.02945413,0.2114324,-8.802917,31.51
5,-0.01521301,0.1814728,0.9832611,1.0,-0.007995605,0.1538849,0.9880524,-26.09569,0.9268646,-24.0488,5.003021,0.312982,0.4847376,1.0,-0.02555847,0.220871,0.9749603,30.08057,5.497055,-23.69884,5.094864,0.5907009,0.3205483,0.07390034,1.199351,-0.3001335,-0.04975709,-0.007530858,-0.02907939,0.2114324,-8.802917,31.51
