Second,eye_comb_direction_x,eye_comb_direction_y,eye_comb_direction_z,eye_r_openness,eye_r_direction_x,eye_r_direction_y,eye_r_direction_z,eye_r_origin_x,eye_r_origin_y,eye_r_origin_z,eye_r_pupil_diameter,eye_r_pupil_position_x,eye_r_pupil_position_y,eye_l_openness,eye_l_direction_x,eye_l_direction_y,eye_l_direction_z,eye_l_origin_x,eye_l_origin_y,eye_l_origin_z,eye_l_pupil_diameter,eye_l_pupil_position_x,eye_l_pupil_position_y,head_position_x,head_position_y,head_position_z,head_rotation_roll,head_rotation_pitch,head_rotation_yaw,EDA,BVP,TMP
0,0.0,0.0,0.0,0.0,0.0,0.0,0.0,0.0,0.0,0.0,0.0,0.0,0.0,0.0,0.0,0.0,0.0,0.0,0.0,0.0,0.0,0.0,0.0,0.0,0.0,0.0,0.0,0.0,0.0,0.2867702910187008,2.2846740427903542,30.79890748031496
0,-0.02612305,0.01673889,0.9995117,1.0,-0.02593994,0.01660156,0.9995117,-27.48015,1.324585,-26.00375,5.101791,0.3595099,0.5117092,1.0,-0.09288025,0.06791687,0.9933472,28.54234,3.933609,-23.29982,4.940308,0.6514751,0.3940075,0.05492604,1.19,-0.2323416,-0.02017339,0.006306442,0.006985793,0.2867702910187008,2.2846740427903542,30.79890748031496
1,-0.08538818,0.06315613,0.994339,1.0,-0.02752686,0.01513672,0.9994965,-27.49707,1.363937,-26.21474,5.060043,0.3600441,0.5125322,1.0,-0.08538818,0.06315613,0.994339,28.47949,3.831161,-22.88747,4.999405,0.6516798,0.394915,0.0553962,1.191187,-0.2399278,-0.02454797,0.000690534,0.002909271,0.2908797,2.2846740427903542,30.79890748031496
1,-0.08538818,0.06315613,0.994339,1.0,-0.02752686,0.01513672,0.9994965,-27.49707,1.363937,-26.21474,5.060043,0.3600441,0.5125322,1.0,-0.08538818,0.06315613,0.994339,28.47949,3.831161,-22.88747,4.999405,0.6516798,0.394915,0.0553962,1.191187,-0.2399278,-0.02454797,0.000690534,0.002909271,0.2908797,2.2846740427903542,30.79890748031496
1,-0.08538818,0.06315613,0.994339,1.0,-0.02752686,0.01513672,0.9994965,-27.49707,1.363937,-26.21474,5.060043,0.3600441,0.5125322,1.0,-0.08538818,0.06315613,0.994339,28.47949,3.831161,-22.88747,4.999405,0.6516798,0.394915,0.0553962,1.191187,-0.2399278,-0.02454797,0.000690534,0.002909271,0.2908797,2.2846740427903542,30.79890748031496
1,-0.08538818,0.06315613,0.994339,1.0,-0.02752686,0.01513672,0.9994965,-27.49707,1.363937,-26.21474,5.060043,0.3600441,0.5125322,1.0,-0.08538818,0.06315613,0.994339,28.47949,3.831161,-22.88747,4.999405,0.6516798,0.394915,0.0553962,1.191187,-0.2399278,-0.02454797,0.000690534,0.002909271,0.2908797,2.2846740427903542,30.79890748031496
1,-0.08538818,0.06315613,0.994339,1.0,-0.02752686,0.01513672,0.9994965,-27.49707,1.363937,-26.21474,5.060043,0.3600441,0.5125322,1.0,-0.08538818,0.06315613,0.994339,28.47949,3.831161,-22.88747,4.999405,0.6516798,0.394915,0.0553962,1.191187,-0.2399278,-0.02454797,0.000690534,0.002909271,0.2908797,2.2846740427903542,30.79890748031496
1,-0.08538818,0.06315613,0.994339,1.0,-0.02752686,0.01513672,0.9994965,-27.49707,1.363937,-26.21474,5.060043,0.3600441,0.5125322,1.0,-0.08538818,0.06315613,0.994339,28.47949,3.831161,-22.88747,4.999405,0.6516798,0.394915,0.0553962,1.191187,-0.2399278,-0.02454797,0.000690534,0.002909271,0.2908797,2.2846740427903542,30.79890748031496
1,-0.08538818,0.06315613,0.994339,1.0,-0.02752686,0.01513672,0.9994965,-27.49707,1.363937,-26.21474,5.060043,0.3600441,0.5125322,1.0,-0.08538818,0.06315613,0.994339,28.47949,3.831161,-22.88747,4.999405,0.6516798,0.394915,0.0553962,1.191187,-0.2399278,-0.02454797,0.000690534,0.002909271,0.2908797,2.2846740427903542,30.79890748031496
1,-0.08538818,0.06315613,0.994339,1.0,-0.02752686,0.01513672,0.9994965,-27.49707,1.363937,-26.21474,5.060043,0.3600441,0.5125322,1.0,-0.08538818,0.06315613,0.994339,28.47949,3.831161,-22.88747,4.999405,0.6516798,0.394915,0.0553962,1.191187,-0.2399278,-0.02454797,0.000690534,0.002909271,0.2908797,2.2846740427903542,30.79890748031496
1,-0.08538818,0.06315613,0.994339,1.0,-0.02752686,0.01513672,0.9994965,-27.49707,1.363937,-26.21474,5.060043,0.3600441,0.5125322,1.0,-0.08538818,0.06315613,0.994339,28.47949,3.831161,-22.88747,4.999405,0.6516798,0.394915,0.0553962,1.191187,-0.2399278,-0.02454797,0.000690534,0.002909271,0.2908797,2.2846740427903542,30.79890748031496
1,-0.01422119,-0.01499939,0.9997711,0.8664271,-0.01419067,-0.01501465,0.9997864,-27.53322,0.002258301,-25.82121,4.280533,0.3592211,0.5581902,0.8815383,-0.05567932,-0.002166748,0.9984436,28.91101,3.001114,-24.90729,4.027618,0.6347034,0.448896,0.05580115,1.194282,-0.2447453,-0.0379409,-0.005874614,0.007999099,0.2908797,2.2846740427903542,30.79890748031496
1,-0.01422119,-0.01499939,0.9997711,0.8664271,-0.01419067,-0.01501465,0.9997864,-27.53322,0.002258301,-25.82121,4.280533,0.3592211,0.5581902,0.8815383,-0.05567932,-0.002166748,0.9984436,28.91101,3.001114,-24.90729,4.027618,0.6347034,0.448896,0.05580115,1.194282,-0.2447453,-0.0379409,-0.005874614,0.007999099,0.2908797,2.2846740427903542,30.79890748031496
1,-0.01422119,-0.01499939,0.9997711,0.8664271,-0.01419067,-0.01501465,0.9997864,-27.53322,0.002258301,-25.82121,4.280533,0.3592211,0.5581902,0.8815383,-0.05567932,-0.002166748,0.9984436,28.91101,3.001114,-24.90729,4.027618,0.6347034,0.448896,0.05580115,1.194282,-0.2447453,-0.0379409,-0.005874614,0.007999099,0.2908797,2.2846740427903542,30.79890748031496
1,-0.01422119,-0.01499939,0.9997711,0.8664271,-0.01419067,-0.01501465,0.9997864,-27.53322,0.002258301,-25.82121,4.280533,0.3592211,0.5581902,0.8815383,-0.05567932,-0.002166748,0.9984436,28.91101,3.001114,-24.90729,4.027618,0.6347034,0.448896,0.05580115,1.194282,-0.2447453,-0.0379409,-0.005874614,0.007999099,0.2908797,2.2846740427903542,30.79890748031496
1,-0.01422119,-0.01499939,0.9997711,0.8664271,-0.01419067,-0.01501465,0.9997864,-27.53322,0.002258301,-25.82121,4.280533,0.3592211,0.5581902,0.8815383,-0.05567932,-0.002166748,0.9984436,28.91101,3.001114,-24.90729,4.027618,0.6347034,0.448896,0.05580115,1.194282,-0.2447453,-0.0379409,-0.005874614,0.007999099,0.2908797,2.2846740427903542,30.79890748031496
1,-0.03018188,-0.01557922,0.9994202,1.0,-0.03018188,-0.01557922,0.9994202,-27.54878,0.1344147,-26.04515,4.304153,0.3621777,0.5560717,1.0,-0.0643158,0.01126099,0.9978638,28.92245,2.703232,-23.62476,4.079727,0.6341403,0.445663,0.05556977,1.193782,-0.2453746,-0.03563052,-0.005189065,0.007927055,0.2908797,2.2846740427903542,30.79890748031496
1,-0.02850342,-0.01954651,0.9993896,1.0,-0.02850342,-0.01954651,0.9993896,-27.55231,0.1753387,-26.11081,4.222839,0.3619763,0.5559354,1.0,-0.06036377,0.01173401,0.9980927,28.92262,2.693558,-23.5304,4.066666,0.6333634,0.445087,0.05547059,1.193714,-0.2454435,-0.03526565,-0.004972025,0.007985116,0.2908797,2.2846740427903542,30.79890748031496
1,-0.02850342,-0.01954651,0.9993896,1.0,-0.02850342,-0.01954651,0.9993896,-27.55231,0.1753387,-26.11081,4.222839,0.3619763,0.5559354,1.0,-0.06036377,0.01173401,0.9980927,28.92262,2.693558,-23.5304,4.066666,0.6333634,0.445087,0.05547059,1.193714,-0.2454435,-0.03526565,-0.004972025,0.007985116,0.2908797,2.2846740427903542,30.79890748031496
1,-0.02497864,-0.01953125,0.9994965,1.0,-0.02497864,-0.01953125,0.9994965,-27.5466,0.1973267,-26.13705,4.203751,0.361198,0.5554227,1.0,-0.06039429,0.01004028,0.9981079,28.92261,2.693558,-23.5304,4.039841,0.6333634,0.4453497,0.05536544,1.1938,-0.2456744,-0.03477247,-0.004766998,0.00791765,0.2908797,2.2846740427903542,30.79890748031496
1,-0.02497864,-0.01953125,0.9994965,1.0,-0.02497864,-0.01953125,0.9994965,-27.5466,0.1973267,-26.13705,4.203751,0.361198,0.5554227,1.0,-0.06039429,0.01004028,0.9981079,28.92261,2.693558,-23.5304,4.039841,0.6333634,0.4453497,0.05536544,1.1938,-0.2456744,-0.03477247,-0.004766998,0.00791765,0.2908797,2.2846740427903542,30.79890748031496
1,-0.03063965,-0.01765442,0.9993744,1.0,-0.02932739,-0.0189209,0.9993896,-27.5466,0.1973267,-26.13705,4.203979,0.3619083,0.5553309,1.0,-0.06039429,0.01119995,0.9981079,28.92261,2.69606,-23.5304,4.064163,0.6333634,0.445087,0.05531967,1.193882,-0.2458262,-0.034603,-0.004756045,0.007737756,0.2908797,2.2846740427903542,30.79890748031496
1,-0.05618286,0.0116272,0.9983521,1.0,-0.0269165,-0.0202179,0.9994202,-27.52124,0.2218628,-26.23383,4.155655,0.3605927,0.5555924,1.0,-0.05618286,0.01164246,0.9983368,28.92816,2.751175,-23.76172,4.016266,0.6327671,0.4451208,0.05523837,1.194139,-0.2463381,-0.03417227,-0.004891959,0.00729568,0.2908797,2.2846740427903542,30.79890748031496
1,-0.05618286,0.0116272,0.9983521,1.0,-0.0269165,-0.0202179,0.9994202,-27.52124,0.2218628,-26.23383,4.155655,0.3605927,0.5555924,1.0,-0.05618286,0.01164246,0.9983368,28.92816,2.751175,-23.76172,4.016266,0.6327671,0.4451208,0.05523837,1.194139,-0.2463381,-0.03417227,-0.004891959,0.00729568,0.2908797,2.2846740427903542,30.79890748031496
1,-0.05786133,0.01077271,0.9982605,1.0,-0.02474976,-0.02345276,0.9994049,-27.52898,0.2340851,-26.27525,4.128311,0.3604569,0.5561007,1.0,-0.05789185,0.01080322,0.9982605,28.92892,2.767532,-23.87964,4.019836,0.6331751,0.4457196,0.05519187,1.19432,-0.2467528,-0.03405784,-0.00505082,0.006986859,0.2908797,2.2846740427903542,30.79890748031496
1,-0.05628967,0.007034302,0.9983826,1.0,-0.02452087,-0.0234375,0.9994202,-27.52715,0.2355347,-26.28334,4.126389,0.3603498,0.5561221,1.0,-0.05636597,0.007125854,0.9983826,28.92958,2.774918,-23.93796,3.972137,0.63297,0.4465385,0.05517042,1.194598,-0.2480464,-0.03380422,-0.005563247,0.006112054,0.2908797,2.2846740427903542,30.79890748031496
1,-0.05628967,0.007034302,0.9983826,1.0,-0.02452087,-0.0234375,0.9994202,-27.52715,0.2355347,-26.28334,4.126389,0.3603498,0.5561221,1.0,-0.05636597,0.007125854,0.9983826,28.92958,2.774918,-23.93796,3.972137,0.63297,0.4465385,0.05517042,1.194598,-0.2480464,-0.03380422,-0.005563247,0.006112054,0.2908797,2.2846740427903542,30.79890748031496
1,-0.05781555,0.006988525,0.998291,1.0,-0.0249939,-0.02033997,0.9994659,-27.52988,0.2218628,-26.23383,4.124069,0.3605691,0.5555924,1.0,-0.05807495,0.00718689,0.9982758,28.92812,2.774918,-23.93796,3.972153,0.6333029,0.4465385,0.05520809,1.194811,-0.2488416,-0.03406221,-0.006052029,0.00564699,0.2908797,2.2846740427903542,30.79890748031496
1,-0.05699158,0.008529663,0.9983368,1.0,-0.02487183,-0.01722717,0.999527,-27.53078,0.2096558,-26.1924,4.123383,0.3606205,0.5550842,1.0,-0.0572052,0.00869751,0.9983215,28.92804,2.774094,-23.9366,3.980545,0.6331613,0.4463023,0.05509377,1.195427,-0.2505144,-0.0354372,-0.006979391,0.005194806,0.2908797,2.2846740427903542,30.79890748031496
1,-0.05699158,0.008529663,0.9983368,1.0,-0.02487183,-0.01722717,0.999527,-27.53078,0.2096558,-26.1924,4.123383,0.3606205,0.5550842,1.0,-0.0572052,0.00869751,0.9983215,28.92804,2.774094,-23.9366,3.980545,0.6331613,0.4463023,0.05509377,1.195427,-0.2505144,-0.0354372,-0.006979391,0.005194806,0.2908797,2.2846740427903542,30.79890748031496
1,-0.05699158,0.008529663,0.9983368,1.0,-0.02487183,-0.01722717,0.999527,-27.53078,0.2096558,-26.1924,4.123383,0.3606205,0.5550842,1.0,-0.0572052,0.00869751,0.9983215,28.92804,2.774094,-23.9366,3.980545,0.6331613,0.4463023,0.05490839,1.196469,-0.2533087,-0.03891861,-0.009020823,0.005189065,0.2908797,2.2846740427903542,30.79890748031496
1,-0.05699158,0.008529663,0.9983368,1.0,-0.02487183,-0.01722717,0.999527,-27.53078,0.2096558,-26.1924,4.123383,0.3606205,0.5550842,1.0,-0.0572052,0.00869751,0.9983215,28.92804,2.774094,-23.9366,3.980545,0.6331613,0.4463023,0.05490839,1.196469,-0.2533087,-0.03891861,-0.009020823,0.005189065,0.2908797,2.2846740427903542,30.79890748031496
1,-0.05699158,0.008529663,0.9983368,1.0,-0.02487183,-0.01722717,0.999527,-27.53078,0.2096558,-26.1924,4.123383,0.3606205,0.5550842,1.0,-0.0572052,0.00869751,0.9983215,28.92804,2.774094,-23.9366,3.980545,0.6331613,0.4463023,0.05490839,1.196469,-0.2533087,-0.03891861,-0.009020823,0.005189065,0.2908797,2.2846740427903542,30.79890748031496
1,-0.05699158,0.008529663,0.9983368,1.0,-0.02487183,-0.01722717,0.999527,-27.53078,0.2096558,-26.1924,4.123383,0.3606205,0.5550842,1.0,-0.0572052,0.00869751,0.9983215,28.92804,2.774094,-23.9366,3.980545,0.6331613,0.4463023,0.05483425,1.196723,-0.254257,-0.04022675,-0.009913282,0.005186193,0.2908797,2.2846740427903542,30.79890748031496
1,-0.05699158,0.008529663,0.9983368,1.0,-0.02487183,-0.01722717,0.999527,-27.53078,0.2096558,-26.1924,4.123383,0.3606205,0.5550842,1.0,-0.0572052,0.00869751,0.9983215,28.92804,2.774094,-23.9366,3.980545,0.6331613,0.4463023,0.05454719,1.197113,-0.2564006,-0.04218232,-0.01201509,0.004721455,0.2908797,2.2846740427903542,30.79890748031496
1,-0.05699158,0.008529663,0.9983368,1.0,-0.02487183,-0.01722717,0.999527,-27.53078,0.2096558,-26.1924,4.123383,0.3606205,0.5550842,1.0,-0.0572052,0.00869751,0.9983215,28.92804,2.774094,-23.9366,3.980545,0.6331613,0.4463023,0.05454719,1.197113,-0.2564006,-0.04218232,-0.01201509,0.004721455,0.2908797,2.2846740427903542,30.79890748031496
1,-0.05807495,0.01036072,0.9982452,1.0,-0.02761841,-0.01554871,0.9994965,-27.53337,0.2562256,-26.09113,4.021164,0.3613003,0.5522413,1.0,-0.05813599,0.01040649,0.9982452,28.92757,2.772461,-23.92615,3.9814,0.6333206,0.445994,0.05426586,1.197326,-0.258597,-0.04312401,-0.01388546,0.003548448,0.2908797,2.2846740427903542,30.79890748031496
1,-0.05807495,0.01036072,0.9982452,1.0,-0.02761841,-0.01554871,0.9994965,-27.53337,0.2562256,-26.09113,4.021164,0.3613003,0.5522413,1.0,-0.05813599,0.01040649,0.9982452,28.92757,2.772461,-23.92615,3.9814,0.6333206,0.445994,0.05426586,1.197326,-0.258597,-0.04312401,-0.01388546,0.003548448,0.2908797,2.2846740427903542,30.79890748031496
1,-0.05807495,0.01036072,0.9982452,1.0,-0.02761841,-0.01554871,0.9994965,-27.53337,0.2562256,-26.09113,4.021164,0.3613003,0.5522413,1.0,-0.05813599,0.01040649,0.9982452,28.92757,2.772461,-23.92615,3.9814,0.6333206,0.445994,0.05445802,1.197334,-0.2604924,-0.04302992,-0.01583106,0.002528359,0.2908797,-20.9862,30.79890748031496
1,-0.05807495,0.01036072,0.9982452,1.0,-0.02761841,-0.01554871,0.9994965,-27.53337,0.2562256,-26.09113,4.021164,0.3613003,0.5522413,1.0,-0.05813599,0.01040649,0.9982452,28.92757,2.772461,-23.92615,3.9814,0.6333206,0.445994,0.05445802,1.197334,-0.2604924,-0.04302992,-0.01583106,0.002528359,0.2908797,-20.9862,30.79890748031496
1,-0.05807495,0.01036072,0.9982452,1.0,-0.02761841,-0.01554871,0.9994965,-27.53337,0.2562256,-26.09113,4.021164,0.3613003,0.5522413,1.0,-0.05813599,0.01040649,0.9982452,28.92757,2.772461,-23.92615,3.9814,0.6333206,0.445994,0.0546844,1.197267,-0.2611446,-0.04292434,-0.01689693,0.002128369,0.2908797,-20.9862,30.79890748031496
1,-0.05807495,0.01036072,0.9982452,1.0,-0.02761841,-0.01554871,0.9994965,-27.53337,0.2562256,-26.09113,4.021164,0.3613003,0.5522413,1.0,-0.05813599,0.01040649,0.9982452,28.92757,2.772461,-23.92615,3.9814,0.6333206,0.445994,0.05473495,1.19733,-0.2625377,-0.04299198,-0.01910547,0.001381068,0.2908797,-20.9862,30.79890748031496
1,-0.05807495,0.01036072,0.9982452,1.0,-0.02761841,-0.01554871,0.9994965,-27.53337,0.2562256,-26.09113,4.021164,0.3613003,0.5522413,1.0,-0.05813599,0.01040649,0.9982452,28.92757,2.772461,-23.92615,3.9814,0.6333206,0.445994,0.05473495,1.19733,-0.2625377,-0.04299198,-0.01910547,0.001381068,0.2908797,-20.9862,30.79890748031496
1,-0.05807495,0.01036072,0.9982452,1.0,-0.02761841,-0.01554871,0.9994965,-27.53337,0.2562256,-26.09113,4.021164,0.3613003,0.5522413,1.0,-0.05813599,0.01040649,0.9982452,28.92757,2.772461,-23.92615,3.9814,0.6333206,0.445994,0.05443203,1.197443,-0.263296,-0.04324633,-0.02013309,0.0008802615,0.2908797,-20.9862,30.79890748031496
1,-0.05807495,0.01036072,0.9982452,1.0,-0.02761841,-0.01554871,0.9994965,-27.53337,0.2562256,-26.09113,4.021164,0.3613003,0.5522413,1.0,-0.05813599,0.01040649,0.9982452,28.92757,2.772461,-23.92615,3.9814,0.6333206,0.445994,0.05408359,1.19752,-0.2647429,-0.04361738,-0.02192751,0.0002729575,0.2908797,-20.9862,30.79890748031496
1,-0.05807495,0.01036072,0.9982452,1.0,-0.02761841,-0.01554871,0.9994965,-27.53337,0.2562256,-26.09113,4.021164,0.3613003,0.5522413,1.0,-0.05813599,0.01040649,0.9982452,28.92757,2.772461,-23.92615,3.9814,0.6333206,0.445994,0.05408359,1.19752,-0.2647429,-0.04361738,-0.02192751,0.0002729575,0.2908797,-20.9862,30.79890748031496
1,-0.05807495,0.01036072,0.9982452,1.0,-0.02761841,-0.01554871,0.9994965,-27.53337,0.2562256,-26.09113,4.021164,0.3613003,0.5522413,1.0,-0.05813599,0.01040649,0.9982452,28.92757,2.772461,-23.92615,3.9814,0.6333206,0.445994,0.05359888,1.197496,-0.2662945,-0.04327629,-0.02328185,0.0002441406,0.2908797,-20.9862,30.79890748031496
1,-0.05807495,0.01036072,0.9982452,1.0,-0.02761841,-0.01554871,0.9994965,-27.53337,0.2562256,-26.09113,4.021164,0.3613003,0.5522413,1.0,-0.05813599,0.01040649,0.9982452,28.92757,2.772461,-23.92615,3.9814,0.6333206,0.445994,0.05359888,1.197496,-0.2662945,-0.04327629,-0.02328185,0.0002441406,0.2908797,-20.9862,30.79890748031496
1,0.01231384,0.03761292,0.9992065,1.0,0.04116821,0.05023193,0.997879,-26.95877,0.1933289,-24.40262,4.053192,0.3327279,0.5277398,1.0,0.01228333,0.03759766,0.9992065,29.45448,3.486618,-24.41606,3.844894,0.604772,0.4218337,0.05345809,1.197543,-0.2667754,-0.04292347,-0.02385499,0.0004727763,0.2908797,-20.9862,30.79890748031496
1,-0.001861572,0.06494141,0.997879,1.0,0.04092407,0.07556152,0.9962921,-26.90556,0.8030853,-23.96674,3.917419,0.3318577,0.4997984,1.0,-0.001861572,0.06494141,0.997879,29.4258,4.331802,-24.2404,3.743271,0.608103,0.3879462,0.05334091,1.197463,-0.2671868,-0.04253481,-0.02449328,0.0007720405,0.2908797,-20.9862,30.79890748031496
1,-0.007675171,0.06263733,0.9980011,1.0,0.03733826,0.06837463,0.9969482,-26.91806,0.835556,-24.02664,3.913177,0.3327868,0.5004488,1.0,-0.007675171,0.06263733,0.9980011,29.41475,4.316391,-24.1796,3.701981,0.6093709,0.388319,0.05289102,1.197244,-0.2679158,-0.04160772,-0.02535686,0.001739234,0.2908797,-20.9862,30.79890748031496
1,-0.007675171,0.06263733,0.9980011,1.0,0.03733826,0.06837463,0.9969482,-26.91806,0.835556,-24.02664,3.913177,0.3327868,0.5004488,1.0,-0.007675171,0.06263733,0.9980011,29.41475,4.316391,-24.1796,3.701981,0.6093709,0.388319,0.05290425,1.197181,-0.2682438,-0.04123213,-0.02565714,0.002180245,0.2908797,-20.9862,30.79890748031496
1,-0.007675171,0.06263733,0.9980011,1.0,0.03733826,0.06837463,0.9969482,-26.91806,0.835556,-24.02664,3.913177,0.3327868,0.5004488,1.0,-0.007675171,0.06263733,0.9980011,29.41475,4.316391,-24.1796,3.701981,0.6093709,0.388319,0.05290425,1.197181,-0.2682438,-0.04123213,-0.02565714,0.002180245,0.2908797,-20.9862,30.79890748031496
1,-0.007675171,0.06263733,0.9980011,1.0,0.03733826,0.06837463,0.9969482,-26.91806,0.835556,-24.02664,3.913177,0.3327868,0.5004488,1.0,-0.007675171,0.06263733,0.9980011,29.41475,4.316391,-24.1796,3.701981,0.6093709,0.388319,0.05286264,1.197127,-0.2684377,-0.04087132,-0.02565249,0.002557657,0.2908797,-20.9862,30.79890748031496
1,-0.007675171,0.06263733,0.9980011,1.0,0.03733826,0.06837463,0.9969482,-26.91806,0.835556,-24.02664,3.913177,0.3327868,0.5004488,1.0,-0.007675171,0.06263733,0.9980011,29.41475,4.316391,-24.1796,3.701981,0.6093709,0.388319,0.05293047,1.197171,-0.2688051,-0.04036912,-0.02497971,0.003304928,0.2908797,-79.43984,30.79890748031496
1,-0.007675171,0.06263733,0.9980011,1.0,0.03733826,0.06837463,0.9969482,-26.91806,0.835556,-24.02664,3.913177,0.3327868,0.5004488,1.0,-0.007675171,0.06263733,0.9980011,29.41475,4.316391,-24.1796,3.701981,0.6093709,0.388319,0.05296171,1.197053,-0.2687893,-0.04027544,-0.02457163,0.003521046,0.2908797,-79.43984,30.79890748031496
1,-0.007675171,0.06263733,0.9980011,1.0,0.03733826,0.06837463,0.9969482,-26.91806,0.835556,-24.02664,3.913177,0.3327868,0.5004488,1.0,-0.007675171,0.06263733,0.9980011,29.41475,4.316391,-24.1796,3.701981,0.6093709,0.388319,0.05296171,1.197053,-0.2687893,-0.04027544,-0.02457163,0.003521046,0.2908797,-79.43984,30.79890748031496
1,-0.006851196,0.06454468,0.997879,1.0,0.03514099,0.06861877,0.9970093,-26.92091,0.8557892,-24.0831,3.8806,0.3331845,0.5002133,1.0,-0.006851196,0.06454468,0.997879,29.41328,4.310516,-24.18533,3.700912,0.6092877,0.3882423,0.0529623,1.196949,-0.2687736,-0.04021508,-0.02387216,0.003801858,0.2908797,-79.43984,30.79890748031496
1,-0.006851196,0.06454468,0.997879,1.0,0.03514099,0.06861877,0.9970093,-26.92091,0.8557892,-24.0831,3.8806,0.3331845,0.5002133,1.0,-0.006851196,0.06454468,0.997879,29.41328,4.310516,-24.18533,3.700912,0.6092877,0.3882423,0.05301845,1.196859,-0.2686908,-0.04009578,-0.02313579,0.004009782,0.2908797,-79.43984,31.21
1,-0.006851196,0.06454468,0.997879,1.0,0.03514099,0.06861877,0.9970093,-26.92091,0.8557892,-24.0831,3.8806,0.3331845,0.5002133,1.0,-0.006851196,0.06454468,0.997879,29.41328,4.310516,-24.18533,3.700912,0.6092877,0.3882423,0.05339551,1.196681,-0.2683307,-0.03944893,-0.02111922,0.004982503,0.2908797,-79.43984,31.21
1,-0.006851196,0.06454468,0.997879,1.0,0.03514099,0.06861877,0.9970093,-26.92091,0.8557892,-24.0831,3.8806,0.3331845,0.5002133,1.0,-0.006851196,0.06454468,0.997879,29.41328,4.310516,-24.18533,3.700912,0.6092877,0.3882423,0.05339551,1.196681,-0.2683307,-0.03944893,-0.02111922,0.004982503,0.2908797,-79.43984,31.21
1,-0.006851196,0.06454468,0.997879,1.0,0.03514099,0.06861877,0.9970093,-26.92091,0.8557892,-24.0831,3.8806,0.3331845,0.5002133,1.0,-0.006851196,0.06454468,0.997879,29.41328,4.310516,-24.18533,3.700912,0.6092877,0.3882423,0.05355537,1.196577,-0.2680771,-0.039085,-0.02007231,0.005489094,0.2908797,-79.43984,31.21
1,-0.1435089,0.03486633,0.9890289,1.0,-0.07417297,-0.01124573,0.9971771,-28.42302,1.214264,-25.94279,3.348846,0.3990827,0.5184063,1.0,-0.1435089,0.03486633,0.9890289,27.97421,3.84552,-23.86263,3.4617,0.6796199,0.4060796,0.0538969,1.196379,-0.2675096,-0.03806265,-0.01782519,0.006249475,0.2908797,-79.43984,31.21
1,-0.1435089,0.03486633,0.9890289,1.0,-0.07417297,-0.01124573,0.9971771,-28.42302,1.214264,-25.94279,3.348846,0.3990827,0.5184063,1.0,-0.1435089,0.03486633,0.9890289,27.97421,3.84552,-23.86263,3.4617,0.6796199,0.4060796,0.0538969,1.196379,-0.2675096,-0.03806265,-0.01782519,0.006249475,0.2908797,-79.43984,31.21
1,-0.1438751,0.03926086,0.9888,1.0,-0.07099915,-0.01594543,0.997345,-28.40852,1.217361,-25.93195,3.326614,0.3980768,0.5189924,1.0,-0.1438751,0.03926086,0.9888,28.00432,3.828522,-23.75311,3.451233,0.6784635,0.4050533,0.05385733,1.196147,-0.2672762,-0.03735671,-0.01663026,0.00630526,0.2908797,-79.43984,31.21
1,-0.1509705,0.04434204,0.9875336,1.0,-0.06593323,-0.01060486,0.997757,-28.37053,1.166168,-25.88779,3.450424,0.3959706,0.5194483,1.0,-0.1509705,0.04434204,0.9875336,28.01735,3.433716,-22.29097,3.433197,0.6769398,0.4052985,0.05464435,1.195799,-0.2667994,-0.03649759,-0.01543791,0.006378101,0.2908797,-79.43984,31.21
1,-0.1509705,0.04434204,0.9875336,1.0,-0.06593323,-0.01060486,0.997757,-28.37053,1.166168,-25.88779,3.450424,0.3959706,0.5194483,1.0,-0.1509705,0.04434204,0.9875336,28.01735,3.433716,-22.29097,3.433197,0.6769398,0.4052985,0.05464435,1.195799,-0.2667994,-0.03649759,-0.01543791,0.006378101,0.2908797,-79.43984,31.21
1,-0.05493164,-0.009048462,0.9984436,1.0,-0.05493164,-0.009048462,0.9984436,-28.33093,1.057892,-25.79605,3.348328,0.3928989,0.5217843,1.0,-0.1477051,0.04124451,0.9881592,28.04343,3.32312,-22.03806,3.477203,0.6749146,0.4075489,0.05477381,1.195645,-0.2661027,-0.03505055,-0.01339551,0.006202806,0.2908797,-79.43984,31.21
1,-0.06008911,-0.002380371,0.9981842,1.0,-0.06008911,-0.002380371,0.9981842,-28.32047,1.037796,-25.78236,3.331848,0.3934312,0.5212042,1.0,-0.1500549,0.04026794,0.987854,28.0497,3.316681,-22.03685,3.45369,0.6751077,0.4079005,0.0549562,1.195476,-0.2657598,-0.0341258,-0.01230854,0.006099852,0.2908797,25.92751,31.21
1,-0.05198669,0.007415771,0.9986115,1.0,-0.05198669,0.007415771,0.9986115,-28.29303,0.8249359,-25.23132,3.287216,0.3915243,0.5214878,1.0,-0.1427765,0.04083252,0.9889069,28.09537,3.300568,-22.08446,3.415741,0.6724651,0.4086443,0.05512631,1.195323,-0.2652099,-0.03255916,-0.01034505,0.005892343,0.2908797,25.92751,31.21
1,-0.05198669,0.007415771,0.9986115,1.0,-0.05198669,0.007415771,0.9986115,-28.29303,0.8249359,-25.23132,3.287216,0.3915243,0.5214878,1.0,-0.1427765,0.04083252,0.9889069,28.09537,3.300568,-22.08446,3.415741,0.6724651,0.4086443,0.05512631,1.195323,-0.2652099,-0.03255916,-0.01034505,0.005892343,0.2908797,25.92751,31.21
1,-0.08613586,0.01916504,0.9960938,1.0,-0.05595398,0.00440979,0.9984131,-28.27319,0.8249359,-25.23132,3.286514,0.3915243,0.5219895,1.0,-0.133667,0.04243469,0.9901123,28.14073,3.266525,-21.99147,3.316467,0.6693428,0.4086132,0.05538297,1.195274,-0.2647871,-0.03169553,-0.009906516,0.005821104,0.2908797,25.92751,31.21
1,-0.1312714,0.04438782,0.9903412,1.0,-0.04714966,0.003067017,0.9988708,-28.25339,0.8260803,-25.24811,3.280289,0.3894001,0.5222967,1.0,-0.1314392,0.04447937,0.9903107,28.16261,3.244904,-21.9422,3.336884,0.6681669,0.4085921,0.05592263,1.194964,-0.2644446,-0.03032901,-0.009285371,0.00542355,0.2908797,25.92751,31.21
2,-0.1295929,0.04518127,0.9905243,1.0,-0.04766846,0.003631592,0.9988556,-28.2419,0.8255157,-25.23972,3.282883,0.3891164,0.5221431,1.0,-0.1298981,0.04533386,0.9904785,28.16385,3.246826,-21.94676,3.347977,0.6678746,0.4084264,0.05601597,1.194833,-0.2636126,-0.02842299,-0.009083376,0.005941452,0.2908797,25.92751,31.21
2,-0.1295929,0.04518127,0.9905243,1.0,-0.04766846,0.003631592,0.9988556,-28.2419,0.8255157,-25.23972,3.282883,0.3891164,0.5221431,1.0,-0.1298981,0.04533386,0.9904785,28.16385,3.246826,-21.94676,3.347977,0.6678746,0.4084264,0.05601597,1.194833,-0.2636126,-0.02842299,-0.009083376,0.005941452,0.2908797,25.92751,31.21
2,-0.1299744,0.04328918,0.9905701,1.0,-0.04820251,0.003952026,0.9988251,-28.23041,0.8260803,-25.23132,3.281235,0.3888327,0.5219895,1.0,-0.1310272,0.04379272,0.9904022,28.16261,3.248764,-21.9422,3.358047,0.6680935,0.4085921,0.05610943,1.194633,-0.2632911,-0.02727145,-0.009050508,0.006225586,0.2908797,25.92751,31.21
2,-0.1299744,0.04328918,0.9905701,1.0,-0.04820251,0.003952026,0.9988251,-28.23041,0.8260803,-25.23132,3.281235,0.3888327,0.5219895,1.0,-0.1310272,0.04379272,0.9904022,28.16261,3.248764,-21.9422,3.358047,0.6680935,0.4085921,0.05621362,1.194356,-0.2625946,-0.02441315,-0.009555073,0.007017716,0.2908797,25.92751,31.21
2,-0.1299744,0.04328918,0.9905701,1.0,-0.04820251,0.003952026,0.9988251,-28.23041,0.8260803,-25.23132,3.281235,0.3888327,0.5219895,1.0,-0.1310272,0.04379272,0.9904022,28.16261,3.248764,-21.9422,3.358047,0.6680935,0.4085921,0.05621362,1.194356,-0.2625946,-0.02441315,-0.009555073,0.007017716,0.2908797,25.92751,31.21
2,-0.1299744,0.04328918,0.9905701,1.0,-0.04820251,0.003952026,0.9988251,-28.23041,0.8260803,-25.23132,3.281235,0.3888327,0.5219895,1.0,-0.1310272,0.04379272,0.9904022,28.16261,3.248764,-21.9422,3.358047,0.6680935,0.4085921,0.05614412,1.194098,-0.2625419,-0.02281931,-0.01002092,0.007545684,0.2908797,25.92751,31.21
2,-0.1299744,0.04328918,0.9905701,1.0,-0.04820251,0.003952026,0.9988251,-28.23041,0.8260803,-25.23132,3.281235,0.3888327,0.5219895,1.0,-0.1310272,0.04379272,0.9904022,28.16261,3.248764,-21.9422,3.358047,0.6680935,0.4085921,0.05607784,1.193887,-0.2623775,-0.02112875,-0.01073733,0.008013058,0.2908797,25.92751,31.21
2,0.06793213,-0.04328918,0.9967346,1.0,0.06793213,-0.04328918,0.9967346,-26.43709,0.05880737,-24.86955,3.218369,0.3104467,0.5512214,1.0,0.034729,-0.0528717,0.9979858,29.74448,3.55545,-25.39485,2.872711,0.5920421,0.4423544,0.05581653,1.193305,-0.2618757,-0.01816429,-0.0128829,0.008416657,0.2908797,25.92751,31.21
2,0.06793213,-0.04328918,0.9967346,1.0,0.06793213,-0.04328918,0.9967346,-26.43709,0.05880737,-24.86955,3.218369,0.3104467,0.5512214,1.0,0.034729,-0.0528717,0.9979858,29.74448,3.55545,-25.39485,2.872711,0.5920421,0.4423544,0.05581653,1.193305,-0.2618757,-0.01816429,-0.0128829,0.008416657,0.2908797,25.92751,31.21
2,0.08370972,-0.04071045,0.9956512,1.0,0.08370972,-0.04071045,0.9956512,-26.41057,-0.01313782,-24.68773,3.230316,0.3071714,0.5515016,1.0,0.04006958,-0.0617981,0.9972687,29.77354,3.629715,-25.63426,3.057098,0.5904358,0.4436269,0.05572796,1.193038,-0.2616264,-0.01685676,-0.01436649,0.008187816,0.2908797,25.92751,31.21
2,0.08288574,-0.03587341,0.9959106,1.0,0.08288574,-0.03587341,0.9959106,-26.50597,-0.1496277,-24.21339,3.222626,0.311126,0.5507748,1.0,0.03265381,-0.05445862,0.9979706,29.71471,3.645737,-25.63504,2.984741,0.5936486,0.4418007,0.05555785,1.192825,-0.2615383,-0.01546203,-0.01546395,0.008253977,0.2908797,25.92751,31.21
2,0.07794189,-0.03997803,0.9961548,1.0,0.07794189,-0.03997803,0.9961548,-26.58398,-0.006668091,-24.52983,3.211899,0.3141285,0.5497255,1.0,0.02131653,-0.05375671,0.9983215,29.66637,3.673889,-25.65956,3.030762,0.597223,0.440985,0.05495739,1.192182,-0.2612906,-0.01279877,-0.01814665,0.008153165,0.2908797,18.34137,31.21
2,0.07794189,-0.03997803,0.9961548,1.0,0.07794189,-0.03997803,0.9961548,-26.58398,-0.006668091,-24.52983,3.211899,0.3141285,0.5497255,1.0,0.02131653,-0.05375671,0.9983215,29.66637,3.673889,-25.65956,3.030762,0.597223,0.440985,0.05495739,1.192182,-0.2612906,-0.01279877,-0.01814665,0.008153165,0.2908797,18.34137,31.21
2,0.01568604,-0.05062866,0.9985809,1.0,0.08506775,-0.03863525,0.9956207,-26.66786,0.03343201,-24.49065,3.157288,0.3157721,0.5478252,1.0,0.0153656,-0.0506897,0.9985809,29.61914,3.647263,-25.42311,2.912109,0.5995656,0.4392794,0.05500865,1.191852,-0.2610098,-0.01149602,-0.0196427,0.007913886,0.2908797,18.34137,31.21
2,0.0202179,-0.04241943,0.9988861,1.0,0.07519531,-0.03521729,0.9965363,-26.71387,0.1578217,-24.73123,3.183304,0.3186787,0.5453995,1.0,0.01118469,-0.04359436,0.9989777,29.56845,3.6633,-25.37476,2.97818,0.6019387,0.4371534,0.05480373,1.191585,-0.2608722,-0.009922297,-0.02126022,0.007788622,0.2908797,18.34137,31.21
2,0.0292511,-0.0344696,0.9989624,1.0,0.06356812,-0.02142334,0.9977417,-26.79472,0.1916656,-24.67886,3.084702,0.3233714,0.5414186,1.0,0.006820679,-0.04296875,0.9990387,29.51547,3.725784,-25.4028,2.974396,0.6044863,0.4352226,0.05419958,1.190927,-0.2605623,-0.006941927,-0.02464853,0.007524919,0.2908797,18.34137,31.21
2,0.0292511,-0.0344696,0.9989624,1.0,0.06356812,-0.02142334,0.9977417,-26.79472,0.1916656,-24.67886,3.084702,0.3233714,0.5414186,1.0,0.006820679,-0.04296875,0.9990387,29.51547,3.725784,-25.4028,2.974396,0.6044863,0.4352226,0.05419958,1.190927,-0.2605623,-0.006941927,-0.02464853,0.007524919,0.2908797,18.34137,31.21
2,0.04896545,-0.01554871,0.9986725,1.0,0.05337524,-0.01303101,0.9984894,-26.82233,0.2745972,-24.88556,3.143326,0.3257729,0.5392188,1.0,0.01574707,-0.03445435,0.9992676,29.38446,3.492691,-24.39626,3.078445,0.6063556,0.4330702,0.0541203,1.190297,-0.2600978,-0.003871765,-0.02785183,0.007215584,0.2908797,18.34137,31.21
2,0.05262756,-0.02313232,0.9983368,1.0,0.05265808,-0.02313232,0.9983368,-26.90526,0.4494781,-25.24895,3.219315,0.3282153,0.5385957,1.0,0.006103516,-0.03373718,0.9994049,29.33746,3.551834,-24.33423,3.036041,0.6094591,0.4304649,0.05359983,1.189927,-0.259683,-0.001669287,-0.03075906,0.006444342,0.2908797,18.34137,31.21
2,0.05262756,-0.02313232,0.9983368,1.0,0.05265808,-0.02313232,0.9983368,-26.90526,0.4494781,-25.24895,3.219315,0.3282153,0.5385957,1.0,0.006103516,-0.03373718,0.9994049,29.33746,3.551834,-24.33423,3.036041,0.6094591,0.4304649,0.05359983,1.189927,-0.259683,-0.001669287,-0.03075906,0.006444342,0.2908797,18.34137,31.21
2,0.04924011,-0.026474,0.9984283,1.0,0.04924011,-0.02648926,0.9984283,-27.02446,0.5399475,-25.23021,3.210587,0.3327602,0.5360383,1.0,-0.005355835,-0.02217102,0.9997253,29.23697,3.577286,-24.09834,3.143814,0.6144935,0.4257946,0.05322051,1.189663,-0.2593675,0.0002441406,-0.03282943,0.005567263,0.2908797,18.34137,31.21
2,0.04924011,-0.026474,0.9984283,1.0,0.04924011,-0.02648926,0.9984283,-27.02446,0.5399475,-25.23021,3.210587,0.3327602,0.5360383,1.0,-0.005355835,-0.02217102,0.9997253,29.23697,3.577286,-24.09834,3.143814,0.6144935,0.4257946,0.05322051,1.189663,-0.2593675,0.0002441406,-0.03282943,0.005567263,0.2908797,18.34137,31.21
2,0.04777527,-0.01882935,0.9986725,1.0,0.04815674,-0.01882935,0.9986572,-27.08212,0.5919495,-25.27896,3.14537,0.3348291,0.5334501,1.0,-0.006881714,-0.0181427,0.9998016,29.18947,3.660614,-24.19089,3.100739,0.6164311,0.4231302,0.05271161,1.189137,-0.2591462,0.001879249,-0.03471586,0.004688199,0.2908797,18.34137,31.21
2,0.04777527,-0.01882935,0.9986725,1.0,0.04815674,-0.01882935,0.9986572,-27.08212,0.5919495,-25.27896,3.14537,0.3348291,0.5334501,1.0,-0.006881714,-0.0181427,0.9998016,29.18947,3.660614,-24.19089,3.100739,0.6164311,0.4231302,0.05271161,1.189137,-0.2591462,0.001879249,-0.03471586,0.004688199,0.2908797,18.34137,31.21
2,0.01921082,-0.007995605,0.9997711,1.0,0.03729248,-0.006469727,0.9992828,-27.16281,0.626297,-25.17943,3.180511,0.3394492,0.5293829,1.0,-0.01208496,-0.01063538,0.9998627,29.12227,3.700058,-24.17955,3.124924,0.6195371,0.4204916,0.05271161,1.189137,-0.2591462,0.001879249,-0.03471586,0.004688199,0.2908797,18.34137,31.21
2,0.01919556,-0.008666992,0.9997711,1.0,0.04129028,-0.004714966,0.9991302,-27.17682,0.6154175,-25.10127,3.120468,0.3393312,0.5286896,1.0,-0.005523682,-0.01309204,0.9998932,29.10487,3.690994,-24.11966,3.064713,0.6189379,0.4206777,0.05255175,1.188993,-0.2589469,0.003512572,-0.03586292,0.003478469,0.2908797,18.34137,31.21
2,0.01316833,-0.002731323,0.9999084,1.0,0.03233337,-0.00201416,0.9994659,-27.20584,0.647522,-25.12856,3.186157,0.341766,0.5274921,1.0,-0.007614136,-0.003494263,0.9999542,29.07816,3.651917,-23.95483,3.066772,0.6199923,0.4189855,0.05238032,1.188691,-0.258478,0.004659506,-0.03691674,0.002551824,0.2908797,18.34137,31.21
2,0.02441406,0.008010864,0.9996643,1.0,0.02947998,0.007965088,0.999527,-27.23306,0.7159576,-25.29324,3.187378,0.3430004,0.5250726,1.0,-0.01223755,0.008361816,0.9998779,29.03844,3.595779,-23.7303,3.102966,0.6218359,0.4170144,0.05224276,1.188428,-0.2580836,0.005627163,-0.03772012,0.001910703,0.2908797,-15.88242,31.21
2,0.02441406,0.008010864,0.9996643,1.0,0.02947998,0.007965088,0.999527,-27.23306,0.7159576,-25.29324,3.187378,0.3430004,0.5250726,1.0,-0.01223755,0.008361816,0.9998779,29.03844,3.595779,-23.7303,3.102966,0.6218359,0.4170144,0.05224276,1.188428,-0.2580836,0.005627163,-0.03772012,0.001910703,0.2908797,-15.88242,31.21
2,0.0202179,0.0,0.9997864,1.0,0.02186584,-0.0006408691,0.9997559,-27.27499,0.8138733,-25.53529,3.181793,0.3454128,0.5255007,1.0,-0.01290894,0.01274109,0.9998322,28.98904,3.543427,-23.54558,3.091461,0.6233638,0.4164876,0.05239034,1.188156,-0.2577818,0.006301714,-0.03788765,0.001250849,0.2908797,-15.88242,31.21
2,0.0202179,0.0,0.9997864,1.0,0.02186584,-0.0006408691,0.9997559,-27.27499,0.8138733,-25.53529,3.181793,0.3454128,0.5255007,1.0,-0.01290894,0.01274109,0.9998322,28.98904,3.543427,-23.54558,3.091461,0.6233638,0.4164876,0.05239034,1.188156,-0.2577818,0.006301714,-0.03788765,0.001250849,0.2908797,-15.88242,31.21
2,0.003799438,0.01086426,0.9999237,1.0,0.02198792,0.005401611,0.9997406,-27.29831,0.8955688,-25.74599,3.212997,0.3459679,0.5237382,1.0,-0.01049805,0.01515198,0.9998169,28.97202,3.517868,-23.41574,3.093735,0.6233719,0.4158561,0.0522114,1.187898,-0.2576075,0.006858787,-0.03787742,0.0007221777,0.2908797,-15.88242,31.21
2,0.003799438,0.01086426,0.9999237,1.0,0.02198792,0.005401611,0.9997406,-27.29831,0.8955688,-25.74599,3.212997,0.3459679,0.5237382,1.0,-0.01049805,0.01515198,0.9998169,28.97202,3.517868,-23.41574,3.093735,0.6233719,0.4158561,0.0522114,1.187898,-0.2576075,0.006858787,-0.03787742,0.0007221777,0.2908797,-15.88242,31.21
2,-0.007644653,0.01269531,0.9998779,1.0,0.02249146,0.003997803,0.9997253,-27.30405,0.9226379,-25.80865,3.231705,0.3460122,0.5236719,1.0,-0.01277161,0.01417542,0.9998169,28.96732,3.52005,-23.38924,3.096237,0.6238746,0.4157361,0.05217516,1.187729,-0.2574282,0.007284438,-0.03777933,0.0006103516,0.2908797,-15.88242,31.21
2,-0.007644653,0.01269531,0.9998779,1.0,0.02249146,0.003997803,0.9997253,-27.30405,0.9226379,-25.80865,3.231705,0.3460122,0.5236719,1.0,-0.01277161,0.01417542,0.9998169,28.96732,3.52005,-23.38924,3.096237,0.6238746,0.4157361,0.05217516,1.187729,-0.2574282,0.007284438,-0.03777933,0.0006103516,0.2908797,-15.88242,31.21
2,-0.007644653,0.01269531,0.9998779,1.0,0.02249146,0.003997803,0.9997253,-27.30405,0.9226379,-25.80865,3.231705,0.3460122,0.5236719,1.0,-0.01277161,0.01417542,0.9998169,28.96732,3.52005,-23.38924,3.096237,0.6238746,0.4157361,0.05217516,1.187729,-0.2574282,0.007284438,-0.03777933,0.0006103516,0.2908797,-15.88242,31.21
2,-0.004669189,0.01353455,0.9998932,1.0,0.02243042,0.002822876,0.9997406,-27.30405,0.9470367,-25.82227,3.222229,0.3460122,0.5231825,1.0,-0.01345825,0.01701355,0.9997559,28.96474,3.522263,-23.38589,3.096878,0.624072,0.4151697,0.05223227,1.187817,-0.257387,0.007519968,-0.03759984,0.0007816314,0.2908797,-15.88242,31.21
2,-0.004669189,0.01353455,0.9998932,1.0,0.02243042,0.002822876,0.9997406,-27.30405,0.9470367,-25.82227,3.222229,0.3460122,0.5231825,1.0,-0.01345825,0.01701355,0.9997559,28.96474,3.522263,-23.38589,3.096878,0.624072,0.4151697,0.05249393,1.187937,-0.257232,0.007852452,-0.03727164,0.0006224389,0.2908797,-15.88242,31.21
2,-0.004669189,0.01353455,0.9998932,1.0,0.02243042,0.002822876,0.9997406,-27.30405,0.9470367,-25.82227,3.222229,0.3460122,0.5231825,1.0,-0.01345825,0.01701355,0.9997559,28.96474,3.522263,-23.38589,3.096878,0.624072,0.4151697,0.05249393,1.187937,-0.257232,0.007852452,-0.03727164,0.0006224389,0.2908797,-15.88242,31.21
2,-0.004669189,0.01353455,0.9998932,1.0,0.02243042,0.002822876,0.9997406,-27.30405,0.9470367,-25.82227,3.222229,0.3460122,0.5231825,1.0,-0.01345825,0.01701355,0.9997559,28.96474,3.522263,-23.38589,3.096878,0.624072,0.4151697,0.05221069,1.188007,-0.2572017,0.008092627,-0.03720823,0.0006103516,0.2908797,-15.88242,31.21
2,-0.004669189,0.01353455,0.9998932,1.0,0.02243042,0.002822876,0.9997406,-27.30405,0.9470367,-25.82227,3.222229,0.3460122,0.5231825,1.0,-0.01345825,0.01701355,0.9997559,28.96474,3.522263,-23.38589,3.096878,0.624072,0.4151697,0.05221069,1.188007,-0.2572017,0.008092627,-0.03720823,0.0006103516,0.2908797,-15.88242,31.21
2,-0.01512146,0.02246094,0.9996185,1.0,0.03691101,0.02963257,0.9988708,-27.33746,0.3765869,-23.87917,3.295883,0.3466155,0.5199361,1.0,-0.01512146,0.02246094,0.9996185,28.96732,3.531326,-23.39134,3.10318,0.6242784,0.4140095,0.05200946,1.188039,-0.2570783,0.008276512,-0.03749507,0.0007012406,0.2908797,12.77091,31.21
2,-0.01512146,0.02246094,0.9996185,1.0,0.03691101,0.02963257,0.9988708,-27.33746,0.3765869,-23.87917,3.295883,0.3466155,0.5199361,1.0,-0.01512146,0.02246094,0.9996185,28.96732,3.531326,-23.39134,3.10318,0.6242784,0.4140095,0.05200946,1.188039,-0.2570783,0.008276512,-0.03749507,0.0007012406,0.2908797,12.77091,31.21
2,-0.01651001,0.02548218,0.999527,1.0,0.04266357,0.02877808,0.9986725,-27.33543,0.3791199,-23.88255,3.267471,0.3456007,0.5200025,1.0,-0.01651001,0.02548218,0.999527,28.97202,3.540344,-23.40384,3.112869,0.624374,0.4133208,0.051808,1.188,-0.2569537,0.008019565,-0.03789217,0.0008097229,0.2908797,12.77091,31.21
2,-0.01651001,0.02548218,0.999527,1.0,0.04266357,0.02877808,0.9986725,-27.33543,0.3791199,-23.88255,3.267471,0.3456007,0.5200025,1.0,-0.01651001,0.02548218,0.999527,28.97202,3.540344,-23.40384,3.112869,0.624374,0.4133208,0.051808,1.188,-0.2569537,0.008019565,-0.03789217,0.0008097229,0.2908797,12.77091,31.21
2,-0.01731873,0.02932739,0.9994049,1.0,0.04222107,0.02957153,0.9986572,-27.33742,0.4002075,-23.9369,3.255112,0.3456903,0.5196583,1.0,-0.01731873,0.02932739,0.9994049,28.97507,3.624008,-23.4915,3.118713,0.624524,0.4106756,0.05153108,1.188,-0.2569813,0.00742926,-0.03824679,0.0009455526,0.2908797,12.77091,31.21
2,-0.01731873,0.02932739,0.9994049,1.0,0.04222107,0.02957153,0.9986572,-27.33742,0.4002075,-23.9369,3.255112,0.3456903,0.5196583,1.0,-0.01731873,0.02932739,0.9994049,28.97507,3.624008,-23.4915,3.118713,0.624524,0.4106756,0.05153108,1.188,-0.2569813,0.00742926,-0.03824679,0.0009455526,0.2908797,12.77091,31.21
2,0.01521301,0.02909851,0.9994507,1.0,0.04205322,0.02926636,0.9986725,-27.33746,0.4108276,-23.96135,3.254532,0.3456944,0.5195839,1.0,-0.01753235,0.02888489,0.9994202,28.97507,3.62793,-23.49649,3.118729,0.6245695,0.4106544,0.05119193,1.188066,-0.2571476,0.007183504,-0.0386805,0.0008886853,0.2908797,12.77091,31.21
2,0.01521301,0.02909851,0.9994507,1.0,0.04205322,0.02926636,0.9986725,-27.33746,0.4108276,-23.96135,3.254532,0.3456944,0.5195839,1.0,-0.01753235,0.02888489,0.9994202,28.97507,3.62793,-23.49649,3.118729,0.6245695,0.4106544,0.05119193,1.188066,-0.2571476,0.007183504,-0.0386805,0.0008886853,0.2908797,12.77091,31.21
2,0.01612854,0.03034973,0.9994049,1.0,0.04249573,0.02984619,0.998642,-27.34033,0.4164276,-23.97353,3.252609,0.3457048,0.5194173,1.0,-0.01763916,0.03097534,0.9993591,28.97507,3.633484,-23.49649,3.147827,0.6245925,0.4101438,0.05087185,1.188203,-0.2572576,0.006938707,-0.03911453,0.0007623289,0.2908797,12.77091,31.21
2,0.01612854,0.03034973,0.9994049,1.0,0.04249573,0.02984619,0.998642,-27.34033,0.4164276,-23.97353,3.252609,0.3457048,0.5194173,1.0,-0.01763916,0.03097534,0.9993591,28.97507,3.633484,-23.49649,3.147827,0.6245925,0.4101438,0.05087185,1.188203,-0.2572576,0.006938707,-0.03911453,0.0007623289,0.2908797,12.77091,31.21
2,0.01612854,0.03034973,0.9994049,1.0,0.04249573,0.02984619,0.998642,-27.34033,0.4164276,-23.97353,3.252609,0.3457048,0.5194173,1.0,-0.01763916,0.03097534,0.9993591,28.97507,3.633484,-23.49649,3.147827,0.6245925,0.4101438,0.05091834,1.188174,-0.2570891,0.006585012,-0.03967379,0.0003860202,0.2908797,12.77091,31.21
2,0.01612854,0.03034973,0.9994049,1.0,0.04249573,0.02984619,0.998642,-27.34033,0.4164276,-23.97353,3.252609,0.3457048,0.5194173,1.0,-0.01763916,0.03097534,0.9993591,28.97507,3.633484,-23.49649,3.147827,0.6245925,0.4101438,0.05091834,1.188174,-0.2570891,0.006585012,-0.03967379,0.0003860202,0.2908797,12.77091,31.21
2,0.01612854,0.03034973,0.9994049,1.0,0.04249573,0.02984619,0.998642,-27.34033,0.4164276,-23.97353,3.252609,0.3457048,0.5194173,1.0,-0.01763916,0.03097534,0.9993591,28.97507,3.633484,-23.49649,3.147827,0.6245925,0.4101438,0.05061877,1.188262,-0.2570114,0.006109616,-0.04027044,-0.0001220703,0.2908797,12.77091,31.21
2,0.01612854,0.03034973,0.9994049,1.0,0.04249573,0.02984619,0.998642,-27.34033,0.4164276,-23.97353,3.252609,0.3457048,0.5194173,1.0,-0.01763916,0.03097534,0.9993591,28.97507,3.633484,-23.49649,3.147827,0.6245925,0.4101438,0.05061877,1.188262,-0.2570114,0.006109616,-0.04027044,-0.0001220703,0.2908797,12.77091,31.21
2,0.0123291,0.03038025,0.9994507,1.0,0.04330444,0.0300293,0.9985962,-27.34702,0.4353485,-24.02054,3.253555,0.3457459,0.5191951,1.0,-0.02209473,0.03074646,0.9992676,28.97507,3.641006,-23.49881,3.147842,0.6253417,0.4099618,0.05052745,1.188403,-0.2568558,0.005813419,-0.04088828,-0.000422864,0.2908797,12.77091,31.21
2,0.0123291,0.03038025,0.9994507,1.0,0.04330444,0.0300293,0.9985962,-27.34702,0.4353485,-24.02054,3.253555,0.3457459,0.5191951,1.0,-0.02209473,0.03074646,0.9992676,28.97507,3.641006,-23.49881,3.147842,0.6253417,0.4099618,0.05052745,1.188403,-0.2568558,0.005813419,-0.04088828,-0.000422864,0.2908797,12.77091,31.21
2,0.0123291,0.03038025,0.9994507,1.0,0.04330444,0.0300293,0.9985962,-27.34702,0.4353485,-24.02054,3.253555,0.3457459,0.5191951,1.0,-0.02209473,0.03074646,0.9992676,28.97507,3.641006,-23.49881,3.147842,0.6253417,0.4099618,0.05052745,1.188403,-0.2568558,0.005813419,-0.04088828,-0.000422864,0.2908797,12.77091,31.21
2,-0.04429626,0.02983093,0.9985657,1.0,0.02078247,0.03469849,0.999176,-27.55656,0.5837402,-24.31885,3.312363,0.3560587,0.5163618,1.0,-0.0484314,0.0295105,0.9983826,28.79044,3.683517,-23.60866,3.194077,0.6359957,0.4097653,0.05047798,1.188616,-0.2568754,0.005521574,-0.04146044,-0.000791106,0.2908797,14.74454,31.21
2,-0.04182434,0.04341125,0.9981689,1.0,0.01617432,0.03121948,0.9993744,-27.60706,0.6553192,-24.57495,3.32045,0.3582442,0.5169137,1.0,-0.05522156,0.04621887,0.9973907,28.76601,3.749847,-24.18422,3.248566,0.6386812,0.4095592,0.05045712,1.188637,-0.2567524,0.00532512,-0.04204591,-0.001202253,0.2908797,14.74454,31.21
2,-0.04182434,0.04341125,0.9981689,1.0,0.01617432,0.03121948,0.9993744,-27.60706,0.6553192,-24.57495,3.32045,0.3582442,0.5169137,1.0,-0.05522156,0.04621887,0.9973907,28.76601,3.749847,-24.18422,3.248566,0.6386812,0.4095592,0.05045712,1.188637,-0.2567524,0.00532512,-0.04204591,-0.001202253,0.2908797,14.74454,31.21
2,0.01156616,0.0401001,0.999115,1.0,0.01208496,0.0401001,0.999115,-27.65927,0.6370544,-24.53775,3.343231,0.3606664,0.5157419,1.0,-0.05931091,0.04107666,0.9973907,28.73396,3.728287,-24.17262,3.235031,0.6404389,0.4110029,0.05082464,1.18848,-0.2566931,0.005233387,-0.042741,-0.001454636,0.2934425,14.74454,31.21
2,0.01156616,0.0401001,0.999115,1.0,0.01208496,0.0401001,0.999115,-27.65927,0.6370544,-24.53775,3.343231,0.3606664,0.5157419,1.0,-0.05931091,0.04107666,0.9973907,28.73396,3.728287,-24.17262,3.235031,0.6404389,0.4110029,0.05082464,1.18848,-0.2566931,0.005233387,-0.042741,-0.001454636,0.2934425,14.74454,31.21
2,0.01156616,0.0401001,0.999115,1.0,0.01208496,0.0401001,0.999115,-27.65927,0.6370544,-24.53775,3.343231,0.3606664,0.5157419,1.0,-0.05931091,0.04107666,0.9973907,28.73396,3.728287,-24.17262,3.235031,0.6404389,0.4110029,0.05082464,1.18848,-0.2566931,0.005233387,-0.042741,-0.001454636,0.2934425,14.74454,31.21
2,0.006408691,0.04455566,0.9989777,1.0,0.00680542,0.04457092,0.9989777,-27.68225,0.6214142,-24.46159,3.240662,0.3623751,0.51475,1.0,-0.05632019,0.04301453,0.9974823,28.68649,3.66922,-23.96927,3.221207,0.6412516,0.4109365,0.05053473,1.188576,-0.2567064,0.004654706,-0.04332792,-0.001777371,0.2934425,14.74454,31.21
2,0.001190186,0.04283142,0.9990692,1.0,0.001296997,0.04281616,0.9990692,-27.75389,0.7425385,-24.7171,3.237335,0.3654391,0.5133862,1.0,-0.05264282,0.0511322,0.9972992,28.5527,3.545227,-23.4959,3.271408,0.6444383,0.4098542,0.05048656,1.188707,-0.2568856,0.004710396,-0.04360406,-0.002075195,0.2934425,14.74454,31.21
2,0.001190186,0.04283142,0.9990692,1.0,0.001296997,0.04281616,0.9990692,-27.75389,0.7425385,-24.7171,3.237335,0.3654391,0.5133862,1.0,-0.05264282,0.0511322,0.9972992,28.5527,3.545227,-23.4959,3.271408,0.6444383,0.4098542,0.05048656,1.188707,-0.2568856,0.004710396,-0.04360406,-0.002075195,0.2934425,14.74454,31.21
2,0.001205444,0.05036926,0.9987183,1.0,0.001266479,0.05036926,0.9987183,-27.78798,0.7060089,-24.55565,3.326492,0.3666891,0.5119673,1.0,-0.04804993,0.04919434,0.9976196,28.53107,3.546173,-23.46725,3.251862,0.6443391,0.4098813,0.05045712,1.188781,-0.2567832,0.004293337,-0.04420817,-0.002480762,0.2934425,14.74454,31.21
2,0.001205444,0.05036926,0.9987183,1.0,0.001266479,0.05036926,0.9987183,-27.78798,0.7060089,-24.55565,3.326492,0.3666891,0.5119673,1.0,-0.04804993,0.04919434,0.9976196,28.53107,3.546173,-23.46725,3.251862,0.6443391,0.4098813,0.05045712,1.188781,-0.2567832,0.004293337,-0.04420817,-0.002480762,0.2934425,14.74454,31.21
2,0.006881714,0.03535461,0.9993439,1.0,0.007110596,0.0353241,0.9993439,-27.89445,0.8137207,-24.66705,3.292862,0.3691324,0.5119485,1.0,-0.06021118,0.04798889,0.9970245,28.49449,3.530701,-23.16838,3.248322,0.6471854,0.4082012,0.05031562,1.188626,-0.2567889,0.004162938,-0.04505056,-0.002660461,0.2934425,14.74454,31.21
2,-0.02996826,0.01835632,0.9993744,0.9377066,0.006118774,0.009521484,0.9999237,-28.03102,1.519058,-26.48816,3.197037,0.3724373,0.509407,0.9769548,-0.04008484,0.02082825,0.9989777,28.49164,4.220963,-25.332,3.124222,0.6468397,0.4075474,0.05026996,1.188588,-0.2567341,0.00411976,-0.04535845,-0.002844526,0.2934425,14.74454,31.21
2,-0.02996826,0.01835632,0.9993744,0.9377066,0.006118774,0.009521484,0.9999237,-28.03102,1.519058,-26.48816,3.197037,0.3724373,0.509407,0.9769548,-0.04008484,0.02082825,0.9989777,28.49164,4.220963,-25.332,3.124222,0.6468397,0.4075474,0.05026996,1.188588,-0.2567341,0.00411976,-0.04535845,-0.002844526,0.2934425,14.74454,31.21
2,-1.0,-1.0,-1.0,0.9377066,0.0,0.0,0.0,-28.06102,1.694931,-26.65213,-1.0,0.3737,0.509663,0.9769548,0.0,0.0,0.0,28.63734,4.779602,-27.07838,-1.0,0.6453285,0.408991,0.05022442,1.188551,-0.256731,0.004072468,-0.0457832,-0.002911831,0.2934425,14.74454,31.21
2,-1.0,-1.0,-1.0,0.5223431,0.0,0.0,0.0,-27.88338,1.963242,-27.28954,-1.0,0.3636478,0.509271,0.6781482,0.0,0.0,0.0,28.85927,4.887802,-26.99652,-1.0,0.6354663,0.4150815,0.05006802,1.188577,-0.2566005,0.004145002,-0.0465027,-0.003041977,0.2934425,-12.14541,31.21
2,-1.0,-1.0,-1.0,0.5223431,0.0,0.0,0.0,-27.88338,1.963242,-27.28954,-1.0,0.3636478,0.509271,0.6781482,0.0,0.0,0.0,28.85927,4.887802,-26.99652,-1.0,0.6354663,0.4150815,0.05006802,1.188577,-0.2566005,0.004145002,-0.0465027,-0.003041977,0.2934425,-12.14541,31.21
2,-1.0,-1.0,-1.0,0.5223431,0.0,0.0,0.0,-27.88338,1.963242,-27.28954,-1.0,0.3636478,0.509271,0.6781482,0.0,0.0,0.0,28.85927,4.887802,-26.99652,-1.0,0.6354663,0.4150815,0.0499562,1.188608,-0.2567391,0.004426627,-0.04666009,-0.002860199,0.2934425,-12.14541,31.21
2,-1.0,-1.0,-1.0,0.5223431,0.0,0.0,0.0,-27.88338,1.963242,-27.28954,-1.0,0.3636478,0.509271,0.6781482,0.0,0.0,0.0,28.85927,4.887802,-26.99652,-1.0,0.6354663,0.4150815,0.04989755,1.188629,-0.2567152,0.004547836,-0.04689947,-0.002756736,0.2934425,-12.14541,31.21
2,-1.0,-1.0,-1.0,0.5223431,0.0,0.0,0.0,-27.88338,1.963242,-27.28954,-1.0,0.3636478,0.509271,0.6781482,0.0,0.0,0.0,28.85927,4.887802,-26.99652,-1.0,0.6354663,0.4150815,0.04989755,1.188629,-0.2567152,0.004547836,-0.04689947,-0.002756736,0.2934425,-12.14541,31.21
2,-1.0,-1.0,-1.0,0.08434163,0.0,0.0,0.0,-28.23393,0.07228088,-24.8046,-1.0,0.3966608,0.5585939,0.3475302,0.0,0.0,0.0,30.85757,2.659103,-24.22562,-1.0,0.5021881,0.4808343,0.04988277,1.188541,-0.2565571,0.004599962,-0.04702798,-0.002857593,0.2934425,-12.14541,31.21
2,-1.0,-1.0,-1.0,0.2438169,0.0,0.0,0.0,-26.75697,1.45784,-24.88556,-1.0,0.2969882,0.4871322,0.4134489,0.0,0.0,0.0,29.83737,5.365585,-27.79251,-1.0,0.5787631,0.3948746,0.04995549,1.188497,-0.2563118,0.004622582,-0.04725367,-0.002826132,0.2934425,-12.14541,31.21
2,-1.0,-1.0,-1.0,0.401259,0.0,0.0,0.0,-26.63525,1.345367,-24.97018,-1.0,0.3013071,0.4851585,0.5803267,0.0,0.0,0.0,29.71907,5.070007,-26.80801,-1.0,0.5830425,0.3878759,0.04998207,1.188469,-0.2562693,0.004923839,-0.04721376,-0.002654854,0.2934425,-12.14541,31.21
2,-1.0,-1.0,-1.0,0.401259,0.0,0.0,0.0,-26.63525,1.345367,-24.97018,-1.0,0.3013071,0.4851585,0.5803267,0.0,0.0,0.0,29.71907,5.070007,-26.80801,-1.0,0.5830425,0.3878759,0.04998207,1.188469,-0.2562693,0.004923839,-0.04721376,-0.002654854,0.2934425,-12.14541,31.21
2,0.1741486,0.08610535,0.9809418,0.5250446,0.1741486,0.08610535,0.9809418,-26.76382,1.401138,-24.99599,3.343918,0.3036899,0.4873602,0.6894593,0.04804993,0.05392456,0.9973755,30.06496,5.780212,-30.16479,2.947128,0.583428,0.3890144,0.04999137,1.188383,-0.2561857,0.005204835,-0.04709953,-0.002583741,0.2934425,-12.14541,31.21
2,0.1441498,0.1057129,0.9838867,0.6507874,0.1441498,0.1057129,0.9838867,-26.65189,1.359863,-25.33611,3.342789,0.3045627,0.4882576,0.7552047,0.04029846,0.05274963,0.9977875,30.01823,5.646698,-29.73486,2.926559,0.5860448,0.3901249,0.05006242,1.188387,-0.25626,0.0055913,-0.04682888,-0.002360727,0.2934425,-12.14541,31.21
2,0.141037,0.1013336,0.9848022,0.771977,0.141037,0.1013336,0.9848022,-26.65298,1.404831,-25.57657,3.320663,0.3048111,0.4895824,0.8279055,0.05883789,0.07592773,0.9953613,29.88162,5.076584,-27.47794,3.072098,0.5855465,0.3868609,0.05013287,1.18835,-0.2561934,0.005444117,-0.0466818,-0.002444456,0.2934425,-12.14541,31.21
2,0.141037,0.1013336,0.9848022,0.771977,0.141037,0.1013336,0.9848022,-26.65298,1.404831,-25.57657,3.320663,0.3048111,0.4895824,0.8279055,0.05883789,0.07592773,0.9953613,29.88162,5.076584,-27.47794,3.072098,0.5855465,0.3868609,0.05013287,1.18835,-0.2561934,0.005444117,-0.0466818,-0.002444456,0.2934425,-12.14541,31.21
2,0.1409912,0.0962677,0.9853058,0.845407,0.1409912,0.0962677,0.9853058,-26.65143,1.426208,-25.69453,3.304459,0.3046002,0.4907407,0.8791756,0.05792236,0.07977295,0.9951172,29.87819,5.060638,-27.43298,3.00563,0.5857155,0.3864141,0.05020964,1.188384,-0.2561461,0.005304093,-0.0464878,-0.002483764,0.2934425,-12.14541,31.21
2,0.1333313,0.1026764,0.985733,0.917614,0.1333313,0.1026764,0.985733,-26.58298,1.113876,-24.70232,3.324524,0.3049501,0.4911968,0.9391769,0.05487061,0.0799408,0.995285,29.87787,5.039444,-27.3576,3.007446,0.5861871,0.3864852,0.0502938,1.188431,-0.256089,0.00504344,-0.04615565,-0.002615269,0.2934425,-12.14541,31.21
2,0.1424561,0.1147614,0.9831085,0.9775929,0.1424561,0.1147614,0.9831085,-26.60793,0.8531036,-23.92796,3.350143,0.3052512,0.4910268,0.9803172,0.03819275,0.0922699,0.9949951,29.97806,5.141083,-27.78163,3.144897,0.586088,0.384495,0.05111325,1.188547,-0.2559121,0.004643488,-0.04548409,-0.003032164,0.2934425,-12.14541,31.21
3,0.1386414,0.1163635,0.9834747,0.9777454,0.1386414,0.1163635,0.9834747,-26.61542,0.842926,-23.89804,3.329315,0.3061869,0.490809,0.9804515,0.04347229,0.08766174,0.9951935,29.95966,5.071655,-27.48331,3.072495,0.5855223,0.3851081,0.05116475,1.188562,-0.2559141,0.004421575,-0.04517888,-0.003356379,0.2934425,-12.14541,31.21
3,0.1386414,0.1163635,0.9834747,0.9777454,0.1386414,0.1163635,0.9834747,-26.61542,0.842926,-23.89804,3.329315,0.3061869,0.490809,0.9804515,0.04347229,0.08766174,0.9951935,29.95966,5.071655,-27.48331,3.072495,0.5855223,0.3851081,0.05116475,1.188562,-0.2559141,0.004421575,-0.04517888,-0.003356379,0.2934425,-12.14541,31.21
3,0.05105591,0.1082611,0.9927979,1.0,0.1392517,0.1174316,0.9832611,-26.62177,0.843689,-23.88312,3.413345,0.3063278,0.4905696,1.0,0.04660034,0.1077728,0.9930725,29.83745,4.677521,-26.02208,3.197525,0.5878287,0.3831765,0.0509814,1.188594,-0.255911,0.004039403,-0.04490877,-0.003736628,0.2934425,-78.19077,31.21
3,0.1338654,0.1173553,0.984024,1.0,0.1339111,0.1173553,0.9840088,-26.63144,0.8756714,-23.94453,3.317566,0.3074594,0.4899656,1.0,0.04719543,0.105484,0.9932861,29.82872,4.67746,-25.97737,3.185181,0.587975,0.3831963,0.05121768,1.188858,-0.2557793,0.003374091,-0.0443053,-0.004708814,0.2934425,-78.19077,31.21
3,0.1353455,0.1148376,0.9841156,1.0,0.1353455,0.1148376,0.9841156,-26.63564,0.906662,-24.01656,3.375946,0.307264,0.4900568,1.0,0.04759216,0.1054688,0.9932709,29.82011,4.674637,-25.96008,3.17601,0.5881786,0.3831439,0.05154622,1.18891,-0.2556462,0.002939842,-0.04397684,-0.005059664,0.2934425,-78.19077,31.21
3,0.1353455,0.1148376,0.9841156,1.0,0.1353455,0.1148376,0.9841156,-26.63564,0.906662,-24.01656,3.375946,0.307264,0.4900568,1.0,0.04759216,0.1054688,0.9932709,29.82011,4.674637,-25.96008,3.17601,0.5881786,0.3831439,0.05154622,1.18891,-0.2556462,0.002939842,-0.04397684,-0.005059664,0.2934425,-78.19077,31.21
3,0.1352386,0.1165314,0.9839325,1.0,0.1352386,0.1165314,0.9839325,-26.63728,0.9096527,-24.01999,3.383698,0.3073316,0.4897251,1.0,0.04776001,0.1055908,0.9932556,29.81683,4.67276,-25.95284,3.171753,0.5882519,0.3831241,0.05162466,1.18899,-0.2556915,0.00281027,-0.04359295,-0.005201972,0.2934425,-78.19077,31.21
3,0.1353149,0.1146088,0.9841461,1.0,0.1354675,0.1146393,0.9841156,-26.64256,0.9229431,-24.03232,3.392426,0.307456,0.4897251,1.0,0.04801941,0.1026764,0.9935455,29.81087,4.672089,-25.888,3.174225,0.5883504,0.3831241,0.05179763,1.189171,-0.2557166,0.002049909,-0.04324116,-0.005304092,0.2934425,-78.19077,31.21
3,0.1353149,0.1146088,0.9841461,1.0,0.1354675,0.1146393,0.9841156,-26.64256,0.9229431,-24.03232,3.392426,0.307456,0.4897251,1.0,0.04801941,0.1026764,0.9935455,29.81087,4.672089,-25.888,3.174225,0.5883504,0.3831241,0.05179763,1.189171,-0.2557166,0.002049909,-0.04324116,-0.005304092,0.2934425,-78.19077,31.21
3,0.0872345,0.1091156,0.9901886,1.0,0.1329803,0.1171265,0.9841614,-26.64243,0.9096527,-24.01999,3.38736,0.3078789,0.4896184,1.0,0.04920959,0.1023102,0.9935303,29.80255,4.671906,-25.87878,3.18187,0.5884205,0.3831241,0.05179298,1.189261,-0.2558291,0.001818807,-0.04297603,-0.005346066,0.2934425,-78.19077,31.21
3,0.09922791,0.1110687,0.9888306,1.0,0.1340485,0.1172943,0.9839935,-26.64143,0.903656,-24.01311,3.384201,0.3076763,0.4897251,1.0,0.04859924,0.1018219,0.9936066,29.80255,4.670486,-25.86913,3.174591,0.5885135,0.3831637,0.05186725,1.18926,-0.2559882,0.001747781,-0.04275581,-0.005350246,0.2934425,-78.19077,31.21
3,0.08792114,0.1089935,0.9901428,1.0,0.1322479,0.1169128,0.9842834,-26.62663,0.7934875,-23.82321,3.304825,0.3077067,0.4916185,1.0,0.04914856,0.1018982,0.993576,29.80255,4.669846,-25.86913,3.172882,0.5884205,0.383172,0.05221272,1.189176,-0.2562588,0.001802347,-0.04246223,-0.00532652,0.2934425,-78.19077,31.21
3,0.07139587,0.1064453,0.991745,1.0,0.1286316,0.1173248,0.984726,-26.61737,0.7639618,-23.7831,3.426361,0.3080822,0.4922707,1.0,0.04917908,0.1021423,0.9935455,29.80235,4.668701,-25.86908,3.173203,0.5884205,0.383172,0.05221272,1.189176,-0.2562588,0.001802347,-0.04246223,-0.00532652,0.2934425,-78.19077,31.21
3,0.07139587,0.1064453,0.991745,1.0,0.1286316,0.1173248,0.984726,-26.61737,0.7639618,-23.7831,3.426361,0.3080822,0.4922707,1.0,0.04917908,0.1021423,0.9935455,29.80235,4.668701,-25.86908,3.173203,0.5884205,0.383172,0.05221272,1.189176,-0.2562588,0.001802347,-0.04246223,-0.00532652,0.2934425,-78.19077,31.21
3,0.06213379,0.1040039,0.99263,1.0,0.1298828,0.1196289,0.9842834,-26.61353,0.7565918,-23.77809,3.357056,0.3077458,0.4920261,1.0,0.04997253,0.1011658,0.9936066,29.79813,4.668549,-25.86565,3.161194,0.5884205,0.3833105,0.05215168,1.189175,-0.2567102,0.002176825,-0.04239093,-0.0056549,0.2934425,-78.19077,31.21
3,0.06213379,0.1040039,0.99263,1.0,0.1298828,0.1196289,0.9842834,-26.61353,0.7565918,-23.77809,3.357056,0.3077458,0.4920261,1.0,0.04997253,0.1011658,0.9936066,29.79813,4.668549,-25.86565,3.161194,0.5884205,0.3833105,0.05218017,1.189124,-0.2570376,0.002207415,-0.04255424,-0.005863188,0.2934425,-78.19077,31.21
3,0.06213379,0.1040039,0.99263,1.0,0.1298828,0.1196289,0.9842834,-26.61353,0.7565918,-23.77809,3.357056,0.3077458,0.4920261,1.0,0.04997253,0.1011658,0.9936066,29.79813,4.668549,-25.86565,3.161194,0.5884205,0.3833105,0.05218017,1.189124,-0.2570376,0.002207415,-0.04255424,-0.005863188,0.2934425,-78.19077,31.21
3,0.06213379,0.1040039,0.99263,1.0,0.1298828,0.1196289,0.9842834,-26.61353,0.7565918,-23.77809,3.357056,0.3077458,0.4920261,1.0,0.04997253,0.1011658,0.9936066,29.79813,4.668549,-25.86565,3.161194,0.5884205,0.3833105,0.05221367,1.189308,-0.2574959,0.002373318,-0.04262334,-0.005884751,0.2934425,10.46276,31.21
3,0.06213379,0.1040039,0.99263,1.0,0.1298828,0.1196289,0.9842834,-26.61353,0.7565918,-23.77809,3.357056,0.3077458,0.4920261,1.0,0.04997253,0.1011658,0.9936066,29.79813,4.668549,-25.86565,3.161194,0.5884205,0.3833105,0.05180156,1.189205,-0.2579682,0.002071602,-0.04279431,-0.006144879,0.2934425,10.46276,31.21
3,0.06213379,0.1040039,0.99263,1.0,0.1298828,0.1196289,0.9842834,-26.61353,0.7565918,-23.77809,3.357056,0.3077458,0.4920261,1.0,0.04997253,0.1011658,0.9936066,29.79813,4.668549,-25.86565,3.161194,0.5884205,0.3833105,0.05180156,1.189205,-0.2579682,0.002071602,-0.04279431,-0.006144879,0.2934425,10.46276,31.21
3,0.1208344,0.1247559,0.984787,1.0,0.1208344,0.1247559,0.984787,-26.63678,0.9636536,-24.05777,3.449448,0.3096994,0.486967,1.0,0.04803467,0.1064606,0.9931488,29.75569,4.462219,-24.91129,3.306915,0.5893093,0.381791,0.05190134,1.189336,-0.2581952,0.001449505,-0.04288457,-0.006492718,0.2934425,10.46276,31.21
3,0.1208344,0.1247559,0.984787,1.0,0.1208344,0.1247559,0.984787,-26.63678,0.9636536,-24.05777,3.449448,0.3096994,0.486967,1.0,0.04803467,0.1064606,0.9931488,29.75569,4.462219,-24.91129,3.306915,0.5893093,0.381791,0.05190134,1.189336,-0.2581952,0.001449505,-0.04288457,-0.006492718,0.2934425,10.46276,31.21
3,0.1122284,0.1100616,0.9875641,1.0,0.1122284,0.1100616,0.9875641,-26.70662,1.169098,-24.25897,3.420074,0.3132329,0.4844142,1.0,0.05960083,0.1309509,0.9895935,29.58163,4.094559,-23.40195,3.352844,0.5918409,0.3777975,0.05205631,1.189433,-0.2583594,0.0007221777,-0.04302576,-0.006704983,0.2934425,10.46276,31.21
3,0.1122284,0.1100616,0.9875641,1.0,0.1122284,0.1100616,0.9875641,-26.70662,1.169098,-24.25897,3.420074,0.3132329,0.4844142,1.0,0.05960083,0.1309509,0.9895935,29.58163,4.094559,-23.40195,3.352844,0.5918409,0.3777975,0.05205631,1.189433,-0.2583594,0.0007221777,-0.04302576,-0.006704983,0.2934425,10.46276,31.21
3,0.1087341,0.1085358,0.9881134,1.0,0.1087341,0.1085358,0.9881134,-26.74016,1.207016,-24.28964,3.427353,0.3148753,0.4837063,1.0,0.06030273,0.1333923,0.989212,29.56026,4.094559,-23.40195,3.350952,0.5923838,0.3774785,0.05212176,1.189572,-0.2585143,0.0,-0.0430048,-0.0070209,0.2934425,10.46276,31.21
3,0.1087341,0.1085358,0.9881134,1.0,0.1087341,0.1085358,0.9881134,-26.74016,1.207016,-24.28964,3.427353,0.3148753,0.4837063,1.0,0.06030273,0.1333923,0.989212,29.56026,4.094559,-23.40195,3.350952,0.5923838,0.3774785,0.05212176,1.189572,-0.2585143,0.0,-0.0430048,-0.0070209,0.2934425,10.46276,31.21
3,0.1039886,0.1212158,0.9871521,1.0,0.1039886,0.1212158,0.9871521,-26.78293,1.233429,-24.2103,3.464508,0.3171751,0.4801212,1.0,0.03019714,0.1062469,0.993866,29.57359,4.476212,-24.0466,3.433807,0.5976214,0.3746147,0.05233622,1.189711,-0.2587114,-0.0008368719,-0.04239145,-0.007343521,0.2934425,10.46276,31.21
3,0.1039886,0.1212158,0.9871521,1.0,0.1039886,0.1212158,0.9871521,-26.78293,1.233429,-24.2103,3.464508,0.3171751,0.4801212,1.0,0.03019714,0.1062469,0.993866,29.57359,4.476212,-24.0466,3.433807,0.5976214,0.3746147,0.05233622,1.189711,-0.2587114,-0.0008368719,-0.04239145,-0.007343521,0.2934425,10.46276,31.21
3,0.1105652,0.1156464,0.9871063,1.0,0.1105652,0.1156464,0.9871063,-26.82385,1.264557,-24.1181,3.5186,0.3175598,0.4793172,1.0,0.0400238,0.1347961,0.9900513,29.44466,4.101196,-22.63068,3.395706,0.5988606,0.3710738,0.05265665,1.189898,-0.2588618,-0.002117841,-0.04182703,-0.007492174,0.2934425,10.46276,31.21
3,0.1105652,0.1156464,0.9871063,1.0,0.1105652,0.1156464,0.9871063,-26.82385,1.264557,-24.1181,3.5186,0.3175598,0.4793172,1.0,0.0400238,0.1347961,0.9900513,29.44466,4.101196,-22.63068,3.395706,0.5988606,0.3710738,0.05265665,1.189898,-0.2588618,-0.002117841,-0.04182703,-0.007492174,0.2934425,10.46276,31.21
3,0.106308,0.120163,0.98703,1.0,0.106308,0.120163,0.98703,-26.85381,1.29895,-24.05777,3.469025,0.3193302,0.4768949,1.0,0.03970337,0.1269684,0.9911041,29.43265,4.177841,-22.69926,3.416885,0.5994214,0.3703616,0.05295503,1.190387,-0.2591476,-0.003461291,-0.04127999,-0.007493169,0.2934425,10.46276,31.21
3,0.106308,0.120163,0.98703,1.0,0.106308,0.120163,0.98703,-26.85381,1.29895,-24.05777,3.469025,0.3193302,0.4768949,1.0,0.03970337,0.1269684,0.9911041,29.43265,4.177841,-22.69926,3.416885,0.5994214,0.3703616,0.05295503,1.190387,-0.2591476,-0.003461291,-0.04127999,-0.007493169,0.2934425,10.46276,31.21
3,0.1091003,0.1157837,0.9872589,1.0,0.1091003,0.1157837,0.9872589,-26.86894,1.341751,-24.10579,3.601013,0.3193263,0.4767786,1.0,0.05174255,0.1296539,0.9902039,29.39619,4.277802,-23.01955,3.431885,0.5989143,0.3692232,0.05313873,1.190569,-0.2592411,-0.005037527,-0.04037576,-0.007842008,0.2934425,9.640913,31.21
3,0.1091003,0.1157837,0.9872589,1.0,0.1091003,0.1157837,0.9872589,-26.86894,1.341751,-24.10579,3.601013,0.3193263,0.4767786,1.0,0.05174255,0.1296539,0.9902039,29.39619,4.277802,-23.01955,3.431885,0.5989143,0.3692232,0.05313873,1.190569,-0.2592411,-0.005037527,-0.04037576,-0.007842008,0.2934425,9.640913,31.21
3,0.1091003,0.1157837,0.9872589,1.0,0.1091003,0.1157837,0.9872589,-26.86894,1.341751,-24.10579,3.601013,0.3193263,0.4767786,1.0,0.05174255,0.1296539,0.9902039,29.39619,4.277802,-23.01955,3.431885,0.5989143,0.3692232,0.05313873,1.190569,-0.2592411,-0.005037527,-0.04037576,-0.007842008,0.2934425,9.640913,31.21
3,0.1091003,0.1157837,0.9872589,1.0,0.1091003,0.1157837,0.9872589,-26.86894,1.341751,-24.10579,3.601013,0.3193263,0.4767786,1.0,0.05174255,0.1296539,0.9902039,29.39619,4.277802,-23.01955,3.431885,0.5989143,0.3692232,0.05382025,1.19086,-0.2594877,-0.005957732,-0.0390831,-0.008583201,0.2934425,9.640913,31.21
3,0.1091919,0.114151,0.987442,1.0,0.1092072,0.114151,0.987442,-26.88535,1.383804,-24.17258,3.596146,0.3197762,0.476249,1.0,0.04881287,0.1178131,0.9918213,29.41592,4.405396,-23.36891,3.424866,0.5991005,0.3697022,0.05409443,1.190963,-0.2595516,-0.007000709,-0.03774066,-0.009116128,0.2934425,9.640913,31.21
3,0.1091919,0.114151,0.987442,1.0,0.1092072,0.114151,0.987442,-26.88535,1.383804,-24.17258,3.596146,0.3197762,0.476249,1.0,0.04881287,0.1178131,0.9918213,29.41592,4.405396,-23.36891,3.424866,0.5991005,0.3697022,0.05409443,1.190963,-0.2595516,-0.007000709,-0.03774066,-0.009116128,0.2934425,9.640913,31.21
3,0.1064911,0.10849,0.9883728,1.0,0.1065216,0.10849,0.9883575,-26.95876,1.41217,-24.08681,3.39418,0.3227355,0.4753418,1.0,0.05101013,0.1139069,0.9921722,29.31294,4.420761,-22.86095,3.380219,0.6016437,0.3658515,0.05441773,1.191143,-0.2598225,-0.007709782,-0.03619935,-0.009621898,0.2934425,9.640913,31.21
3,0.1064911,0.10849,0.9883728,1.0,0.1065216,0.10849,0.9883575,-26.95876,1.41217,-24.08681,3.39418,0.3227355,0.4753418,1.0,0.05101013,0.1139069,0.9921722,29.31294,4.420761,-22.86095,3.380219,0.6016437,0.3658515,0.05441773,1.191143,-0.2598225,-0.007709782,-0.03619935,-0.009621898,0.2934425,9.640913,31.21
3,0.1074524,0.1032257,0.9888306,1.0,0.1074677,0.1032257,0.9888306,-26.99409,1.374817,-24.00601,3.537491,0.3238403,0.4768707,1.0,0.05836487,0.1307678,0.9896851,29.20447,4.070114,-21.85788,3.387466,0.602957,0.3667571,0.05458295,1.191296,-0.2601637,-0.008502091,-0.03470299,-0.01029235,0.2934425,9.640913,31.21
3,0.1074524,0.1032257,0.9888306,1.0,0.1074677,0.1032257,0.9888306,-26.99409,1.374817,-24.00601,3.537491,0.3238403,0.4768707,1.0,0.05836487,0.1307678,0.9896851,29.20447,4.070114,-21.85788,3.387466,0.602957,0.3667571,0.05458295,1.191296,-0.2601637,-0.008502091,-0.03470299,-0.01029235,0.2934425,9.640913,31.21
3,0.1079407,0.1038208,0.9887085,1.0,0.1079407,0.1038208,0.9887085,-26.99675,1.373611,-23.99638,3.530594,0.3238575,0.4767273,1.0,0.05867004,0.1309052,0.9896545,29.2043,4.06813,-21.85327,3.377655,0.6028841,0.3667894,0.05493033,1.191393,-0.2602843,-0.009279753,-0.0336199,-0.01058357,0.2934425,9.640913,31.21
3,0.1079407,0.1038208,0.9887085,1.0,0.1079407,0.1038208,0.9887085,-26.99675,1.373611,-23.99638,3.530594,0.3238575,0.4767273,1.0,0.05867004,0.1309052,0.9896545,29.2043,4.06813,-21.85327,3.377655,0.6028841,0.3667894,0.05493033,1.191393,-0.2602843,-0.009279753,-0.0336199,-0.01058357,0.2934425,9.640913,31.21
3,0.1079407,0.1038208,0.9887085,1.0,0.1079407,0.1038208,0.9887085,-26.99675,1.373611,-23.99638,3.530594,0.3238575,0.4767273,1.0,0.05867004,0.1309052,0.9896545,29.2043,4.06813,-21.85327,3.377655,0.6028841,0.3667894,0.05493033,1.191393,-0.2602843,-0.009279753,-0.0336199,-0.01058357,0.2934425,9.640913,31.21
3,0.1079407,0.1038208,0.9887085,1.0,0.1079407,0.1038208,0.9887085,-26.99675,1.373611,-23.99638,3.530594,0.3238575,0.4767273,1.0,0.05867004,0.1309052,0.9896545,29.2043,4.06813,-21.85327,3.377655,0.6028841,0.3667894,0.05532062,1.191436,-0.26045,-0.009289382,-0.03282738,-0.01090943,0.2934425,9.640913,31.21
3,0.105896,0.103653,0.9889526,1.0,0.105896,0.103653,0.9889526,-27.00157,1.372971,-23.99327,3.419006,0.3243547,0.4766362,1.0,0.05871582,0.1278381,0.9900513,29.20111,4.073578,-21.83391,3.376953,0.6029599,0.3669668,0.05560493,1.191405,-0.2606937,-0.009385929,-0.03236958,-0.0111666,0.2934425,9.640913,31.21
3,0.105896,0.103653,0.9889526,1.0,0.105896,0.103653,0.9889526,-27.00157,1.372971,-23.99327,3.419006,0.3243547,0.4766362,1.0,0.05871582,0.1278381,0.9900513,29.20111,4.073578,-21.83391,3.376953,0.6029599,0.3669668,0.05560493,1.191405,-0.2606937,-0.009385929,-0.03236958,-0.0111666,0.2934425,9.640913,31.21
3,0.1071472,0.09901428,0.9892883,1.0,0.1071625,0.09901428,0.9892883,-27.00656,1.353073,-23.85338,3.435196,0.324476,0.4768707,1.0,0.06018066,0.1249084,0.9903259,29.19316,4.070114,-21.8181,3.388916,0.6029629,0.3674461,0.05586374,1.19142,-0.2608229,-0.01018903,-0.03202084,-0.011384,0.2934425,4.593319,31.21
3,0.1071472,0.09901428,0.9892883,1.0,0.1071625,0.09901428,0.9892883,-27.00656,1.353073,-23.85338,3.435196,0.324476,0.4768707,1.0,0.06018066,0.1249084,0.9903259,29.19316,4.070114,-21.8181,3.388916,0.6029629,0.3674461,0.05586374,1.19142,-0.2608229,-0.01018903,-0.03202084,-0.011384,0.2934425,4.593319,31.21
3,0.06852722,0.1146088,0.9910431,1.0,0.1083374,0.09329224,0.9897156,-27.01598,1.31015,-23.71117,3.450272,0.3247575,0.4779905,1.0,0.05934143,0.1194763,0.9910583,29.19609,4.065903,-21.77327,3.402817,0.6029629,0.3681229,0.05621076,1.191736,-0.2609672,-0.01098294,-0.0316327,-0.01146617,0.2934425,4.593319,31.21
3,0.06852722,0.1146088,0.9910431,1.0,0.1083374,0.09329224,0.9897156,-27.01598,1.31015,-23.71117,3.450272,0.3247575,0.4779905,1.0,0.05934143,0.1194763,0.9910583,29.19609,4.065903,-21.77327,3.402817,0.6029629,0.3681229,0.05621076,1.191736,-0.2609672,-0.01098294,-0.0316327,-0.01146617,0.2934425,4.593319,31.21
3,0.06877136,0.1098328,0.9915619,1.0,0.107605,0.09367371,0.9897614,-27.01747,1.307266,-23.71948,3.450348,0.3249169,0.4780931,1.0,0.05877686,0.1139374,0.991745,29.19316,4.064224,-21.76575,3.405243,0.6031412,0.369023,0.05637646,1.191829,-0.2611235,-0.01182949,-0.03151992,-0.01151156,0.2934425,4.593319,31.21
3,0.06877136,0.1098328,0.9915619,1.0,0.107605,0.09367371,0.9897614,-27.01747,1.307266,-23.71948,3.450348,0.3249169,0.4780931,1.0,0.05877686,0.1139374,0.991745,29.19316,4.064224,-21.76575,3.405243,0.6031412,0.369023,0.05637646,1.191829,-0.2611235,-0.01182949,-0.03151992,-0.01151156,0.2934425,4.593319,31.21
3,0.07481384,0.09619141,0.9925385,1.0,0.1041565,0.07954407,0.9913635,-27.04691,1.284225,-23.81355,3.461777,0.3263429,0.4819605,1.0,0.05845642,0.1054077,0.9927063,29.19316,4.066147,-21.77327,3.415558,0.6032023,0.3704197,0.05618894,1.191837,-0.2614549,-0.01252931,-0.03184444,-0.01211821,0.2934425,4.593319,31.21
3,0.07481384,0.09619141,0.9925385,1.0,0.1041565,0.07954407,0.9913635,-27.04691,1.284225,-23.81355,3.461777,0.3263429,0.4819605,1.0,0.05845642,0.1054077,0.9927063,29.19316,4.066147,-21.77327,3.415558,0.6032023,0.3704197,0.05618894,1.191837,-0.2614549,-0.01252931,-0.03184444,-0.01211821,0.2934425,4.593319,31.21
3,0.03262329,0.04489136,0.9984589,1.0,0.03262329,0.04489136,0.9984589,-27.48837,0.9788971,-23.59457,3.490204,0.3526964,0.4956486,1.0,-0.01298523,0.04003906,0.9990997,28.76329,4.31958,-23.43069,3.412262,0.6309451,0.38583,0.05623257,1.191889,-0.2615378,-0.01272755,-0.03212954,-0.01254833,0.2934425,4.593319,31.21
3,0.03262329,0.04489136,0.9984589,1.0,0.03262329,0.04489136,0.9984589,-27.48837,0.9788971,-23.59457,3.490204,0.3526964,0.4956486,1.0,-0.01298523,0.04003906,0.9990997,28.76329,4.31958,-23.43069,3.412262,0.6309451,0.38583,0.05623257,1.191889,-0.2615378,-0.01272755,-0.03212954,-0.01254833,0.2934425,4.593319,31.21
3,0.01998901,0.01609802,0.9996643,1.0,0.01998901,0.01609802,0.9996643,-27.81754,1.169693,-24.42393,3.351517,0.3647686,0.5014314,1.0,-0.0380249,0.02732849,0.9989014,28.45798,4.140518,-23.1373,3.238968,0.64476,0.3913988,0.05646539,1.192049,-0.261685,-0.01344991,-0.03254039,-0.0133699,0.2934425,4.593319,31.21
3,0.01998901,0.01609802,0.9996643,1.0,0.01998901,0.01609802,0.9996643,-27.81754,1.169693,-24.42393,3.351517,0.3647686,0.5014314,1.0,-0.0380249,0.02732849,0.9989014,28.45798,4.140518,-23.1373,3.238968,0.64476,0.3913988,0.05646539,1.192049,-0.261685,-0.01344991,-0.03254039,-0.0133699,0.2934425,4.593319,31.21
3,0.01998901,0.01609802,0.9996643,1.0,0.01998901,0.01609802,0.9996643,-27.81754,1.169693,-24.42393,3.351517,0.3647686,0.5014314,1.0,-0.0380249,0.02732849,0.9989014,28.45798,4.140518,-23.1373,3.238968,0.64476,0.3913988,0.05659556,1.192144,-0.2617484,-0.01373874,-0.03269867,-0.01391762,0.2934425,4.593319,31.21
3,0.01998901,0.01609802,0.9996643,1.0,0.01998901,0.01609802,0.9996643,-27.81754,1.169693,-24.42393,3.351517,0.3647686,0.5014314,1.0,-0.0380249,0.02732849,0.9989014,28.45798,4.140518,-23.1373,3.238968,0.64476,0.3913988,0.0566721,1.192332,-0.2618617,-0.01456683,-0.03285393,-0.01458727,0.2934425,-13.93687,31.21
3,0.01998901,0.01609802,0.9996643,1.0,0.01998901,0.01609802,0.9996643,-27.81754,1.169693,-24.42393,3.351517,0.3647686,0.5014314,1.0,-0.0380249,0.02732849,0.9989014,28.45798,4.140518,-23.1373,3.238968,0.64476,0.3913988,0.05667722,1.192451,-0.2620298,-0.01492207,-0.03294474,-0.01492606,0.2934425,-13.93687,31.21
3,0.01998901,0.01609802,0.9996643,1.0,0.01998901,0.01609802,0.9996643,-27.81754,1.169693,-24.42393,3.351517,0.3647686,0.5014314,1.0,-0.0380249,0.02732849,0.9989014,28.45798,4.140518,-23.1373,3.238968,0.64476,0.3913988,0.05667722,1.192451,-0.2620298,-0.01492207,-0.03294474,-0.01492606,0.2934425,-13.93687,31.21
3,-0.0806427,-0.01098633,0.9966736,1.0,-0.03025818,-0.03912354,0.998764,-28.31267,1.367142,-25.62006,3.35672,0.3883374,0.5150471,1.0,-0.08076477,-0.01091003,0.9966583,27.95876,3.805588,-23.20193,3.438721,0.668368,0.409489,0.05677295,1.192827,-0.2625266,-0.01549668,-0.03304387,-0.01572292,0.2934425,-13.93687,31.21
3,-0.08122253,-0.008560181,0.9966583,1.0,-0.009277344,-0.02345276,0.9996796,-28.3959,1.033417,-24.63301,3.34613,0.3882346,0.514453,1.0,-0.08122253,-0.008560181,0.9966583,27.94121,3.798264,-23.26546,3.391693,0.6691194,0.4098329,0.05685699,1.192933,-0.2626137,-0.01602705,-0.03307137,-0.01597676,0.2934425,-13.93687,31.21
3,-0.08122253,-0.008560181,0.9966583,1.0,-0.009277344,-0.02345276,0.9996796,-28.3959,1.033417,-24.63301,3.34613,0.3882346,0.514453,1.0,-0.08122253,-0.008560181,0.9966583,27.94121,3.798264,-23.26546,3.391693,0.6691194,0.4098329,0.05685699,1.192933,-0.2626137,-0.01602705,-0.03307137,-0.01597676,0.2934425,-13.93687,31.21
3,-0.09397888,-0.01435852,0.9954681,1.0,-0.01617432,-0.04345703,0.9989166,-28.47424,1.40625,-25.56818,3.365952,0.3913676,0.5140442,1.0,-0.09516907,-0.01391602,0.9953613,27.90802,3.40065,-21.57031,3.453552,0.6700105,0.4099865,0.05711842,1.193037,-0.2627086,-0.0168987,-0.03272486,-0.01653771,0.2934425,-13.93687,31.21
3,-0.09397888,-0.01435852,0.9954681,1.0,-0.01617432,-0.04345703,0.9989166,-28.47424,1.40625,-25.56818,3.365952,0.3913676,0.5140442,1.0,-0.09516907,-0.01391602,0.9953613,27.90802,3.40065,-21.57031,3.453552,0.6700105,0.4099865,0.05711842,1.193037,-0.2627086,-0.0168987,-0.03272486,-0.01653771,0.2934425,-13.93687,31.21
3,-0.01849365,-0.03756714,0.999115,1.0,-0.01849365,-0.03756714,0.999115,-28.51183,1.456131,-25.66954,3.31279,0.3929541,0.5123078,1.0,-0.1221924,-0.01660156,0.9923553,27.82805,2.938293,-19.5854,3.533524,0.6739026,0.4096918,0.05729675,1.193046,-0.2627397,-0.01713034,-0.03213372,-0.01675835,0.2934425,-13.93687,31.21
3,-0.01930237,-0.02114868,0.999588,1.0,-0.01930237,-0.02114868,0.999588,-28.58148,1.274506,-25.02763,3.207581,0.395788,0.5096915,1.0,-0.09199524,-0.006240845,0.9957275,27.769,3.72435,-22.91373,3.368347,0.6760597,0.4090508,0.05799806,1.193067,-0.2627782,-0.01692249,-0.03086038,-0.01674634,0.2934425,-13.93687,31.21
3,-0.01930237,-0.02114868,0.999588,1.0,-0.01930237,-0.02114868,0.999588,-28.58148,1.274506,-25.02763,3.207581,0.395788,0.5096915,1.0,-0.09199524,-0.006240845,0.9957275,27.769,3.72435,-22.91373,3.368347,0.6760597,0.4090508,0.05799806,1.193067,-0.2627782,-0.01692249,-0.03086038,-0.01674634,0.2934425,-13.93687,31.21
3,-0.01272583,-0.02351379,0.9996338,1.0,-0.01272583,-0.02351379,0.9996338,-28.6608,1.331543,-25.08078,3.190536,0.3972829,0.5087023,1.0,-0.09393311,0.002075195,0.995575,27.72037,3.746124,-22.90683,3.343979,0.6780069,0.4068916,0.05867898,1.192913,-0.2625131,-0.01679831,-0.02965806,-0.01658315,0.2934425,-13.93687,31.21
3,-0.01272583,-0.02351379,0.9996338,1.0,-0.01272583,-0.02351379,0.9996338,-28.6608,1.331543,-25.08078,3.190536,0.3972829,0.5087023,1.0,-0.09393311,0.002075195,0.995575,27.72037,3.746124,-22.90683,3.343979,0.6780069,0.4068916,0.05867898,1.192913,-0.2625131,-0.01679831,-0.02965806,-0.01658315,0.2934425,-13.93687,31.21
3,-0.02438354,-0.03590393,0.999054,1.0,-0.02438354,-0.03591919,0.999054,-28.69319,1.626633,-25.67647,3.198547,0.3999643,0.5064754,1.0,-0.09362793,-1.525879e-05,0.9956055,27.69566,3.781372,-22.82806,3.413071,0.6786515,0.4054903,0.05930912,1.192816,-0.2622572,-0.01675835,-0.02796156,-0.01616452,0.2934425,-13.93687,31.21
3,-0.09295654,0.002716064,0.9956512,1.0,-0.0181427,-0.02223206,0.9995728,-28.69409,1.394867,-25.02382,3.212143,0.3993181,0.5059444,1.0,-0.09335327,0.002838135,0.9956207,27.69331,3.783981,-22.84486,3.413666,0.6787142,0.4050581,0.0595516,1.192754,-0.2622181,-0.01669197,-0.02709576,-0.01625782,0.2934425,-13.93687,31.21
3,-0.09295654,0.002716064,0.9956512,1.0,-0.0181427,-0.02223206,0.9995728,-28.69409,1.394867,-25.02382,3.212143,0.3993181,0.5059444,1.0,-0.09335327,0.002838135,0.9956207,27.69331,3.783981,-22.84486,3.413666,0.6787142,0.4050581,0.0595516,1.192754,-0.2622181,-0.01669197,-0.02709576,-0.01625782,0.2934425,-13.93687,31.21
3,-0.09294128,0.001296997,0.9956665,1.0,-0.01464844,-0.02212524,0.9996338,-28.68933,1.394867,-25.02382,3.248962,0.3985802,0.5059444,1.0,-0.09335327,0.001419067,0.9956207,27.69566,3.793701,-22.85329,3.436722,0.6786515,0.4050581,0.06018662,1.192509,-0.2620602,-0.01644963,-0.02546417,-0.01615991,0.2934425,-0.1325226,31.23
3,-0.09275818,6.103516e-05,0.9956818,1.0,-0.02682495,-0.0198822,0.9994354,-28.60934,1.440613,-25.1942,3.257156,0.3978782,0.5055969,1.0,-0.09310913,0.0001678467,0.9956512,27.69965,3.802078,-22.85442,3.412704,0.6784791,0.404988,0.06023002,1.192549,-0.2619994,-0.01630907,-0.02466425,-0.01612253,0.2934425,54.94002,31.23
3,-0.09275818,6.103516e-05,0.9956818,1.0,-0.02682495,-0.0198822,0.9994354,-28.60934,1.440613,-25.1942,3.257156,0.3978782,0.5055969,1.0,-0.09310913,0.0001678467,0.9956512,27.69965,3.802078,-22.85442,3.412704,0.6784791,0.404988,0.06023002,1.192549,-0.2619994,-0.01630907,-0.02466425,-0.01612253,0.2934425,54.94002,31.23
3,-0.04525757,-0.009597778,0.9989166,1.0,-0.02268982,-0.01890564,0.9995575,-28.5768,1.465836,-25.2281,3.35379,0.3960965,0.504966,1.0,-0.08692932,0.007629395,0.99617,27.73848,3.65506,-22.27646,3.522369,0.6752394,0.4039554,0.06043696,1.192481,-0.2619507,-0.01616038,-0.02400102,-0.01610496,0.2934425,54.94002,31.23
3,-0.02053833,-0.008102417,0.9997559,1.0,-0.02008057,-0.008209229,0.9997559,-28.5331,1.462814,-25.09741,3.393433,0.3943234,0.5021377,1.0,-0.08796692,0.008880615,0.9960785,27.77994,3.747223,-22.41051,3.436829,0.6742439,0.4018047,0.06059945,1.192523,-0.2618426,-0.01592632,-0.02282029,-0.0160957,0.2934425,54.94002,31.23
3,-0.01683044,-0.007263184,0.9998169,1.0,-0.01493835,-0.007797241,0.9998474,-28.50204,1.413986,-24.83511,3.339157,0.3926212,0.501279,1.0,-0.07260132,0.008453369,0.9973145,27.82893,3.859024,-22.64595,3.426346,0.670472,0.4000446,0.06072402,1.192614,-0.2619715,-0.01592959,-0.02240946,-0.01621974,0.2934425,54.94002,31.23
3,-0.01683044,-0.007263184,0.9998169,1.0,-0.01493835,-0.007797241,0.9998474,-28.50204,1.413986,-24.83511,3.339157,0.3926212,0.501279,1.0,-0.07260132,0.008453369,0.9973145,27.82893,3.859024,-22.64595,3.426346,0.670472,0.4000446,0.06072402,1.192614,-0.2619715,-0.01592959,-0.02240946,-0.01621974,0.2934425,54.94002,31.23
3,-0.05050659,0.003219604,0.998703,1.0,-0.03231812,-0.02716064,0.9990997,-28.41418,1.91713,-26.35283,3.273651,0.3917099,0.5014758,1.0,-0.05670166,0.01361084,0.998291,27.84697,3.904083,-22.72769,3.361557,0.6673678,0.3983017,0.06083548,1.192601,-0.2619634,-0.01599401,-0.02189555,-0.01638428,0.2934425,54.94002,31.23
3,-0.06604004,0.01663208,0.9976654,1.0,-0.01062012,-0.009002686,0.9998932,-28.40736,1.509216,-25.04869,3.377045,0.3886784,0.5002885,1.0,-0.06613159,0.0166626,0.9976654,27.94283,3.991119,-22.93796,3.436523,0.666118,0.3966859,0.06103885,1.192635,-0.2619662,-0.01611698,-0.02147883,-0.01657821,0.2934425,54.94002,31.23
3,-0.06770325,0.01953125,0.9975128,1.0,-0.01934814,0.004653931,0.9998016,-28.33002,1.422272,-24.74779,3.368576,0.3877903,0.4981561,1.0,-0.06777954,0.01954651,0.9974976,27.99059,4.034943,-22.98241,3.38385,0.6649102,0.3950803,0.06131876,1.192666,-0.2620432,-0.01664146,-0.02066741,-0.01717638,0.2934425,54.94002,31.23
3,-0.07034302,0.01956177,0.9973297,1.0,-0.0189209,0.00453186,0.9998016,-28.2841,1.43277,-24.78299,3.358658,0.3861973,0.4981226,1.0,-0.07035828,0.01957703,0.9973145,28.00772,4.039063,-22.9631,3.398605,0.6647505,0.3948101,0.06185853,1.192669,-0.2619703,-0.01689473,-0.0204689,-0.01730947,0.2934425,54.94002,31.23
3,-0.07034302,0.01956177,0.9973297,1.0,-0.0189209,0.00453186,0.9998016,-28.2841,1.43277,-24.78299,3.358658,0.3861973,0.4981226,1.0,-0.07035828,0.01957703,0.9973145,28.00772,4.039063,-22.9631,3.398605,0.6647505,0.3948101,0.06185853,1.192669,-0.2619703,-0.01689473,-0.0204689,-0.01730947,0.2934425,54.94002,31.23
3,-0.06492615,0.02722168,0.9975128,1.0,-0.01583862,0.00453186,0.9998627,-28.23138,1.459473,-24.87198,3.401184,0.3838974,0.4980517,1.0,-0.06492615,0.02722168,0.9975128,28.09554,4.077682,-22.91901,3.394531,0.6608988,0.391914,0.06204736,1.192882,-0.2620938,-0.01743855,-0.02003293,-0.01777957,0.2934425,54.94002,31.23
4,-0.06964111,0.02746582,0.9971924,1.0,-0.01107788,0.01026917,0.9998779,-28.17038,1.39502,-24.63597,3.378876,0.3812836,0.4970793,1.0,-0.06964111,0.02746582,0.9971924,28.16679,4.117157,-22.94664,3.524933,0.6593837,0.3908996,0.06218302,1.19295,-0.2621523,-0.01766143,-0.01985773,-0.0180338,0.2934425,54.94002,31.23
4,-0.06964111,0.02746582,0.9971924,1.0,-0.01107788,0.01026917,0.9998779,-28.17038,1.39502,-24.63597,3.378876,0.3812836,0.4970793,1.0,-0.06964111,0.02746582,0.9971924,28.16679,4.117157,-22.94664,3.524933,0.6593837,0.3908996,0.06218302,1.19295,-0.2621523,-0.01766143,-0.01985773,-0.0180338,0.2934425,54.94002,31.23
4,-0.06976318,0.02780151,0.9971619,1.0,-0.009658813,0.005447388,0.9999237,-28.14542,1.411667,-24.68393,3.442307,0.3801871,0.4977933,1.0,-0.06977844,0.02781677,0.9971619,28.19656,4.139954,-22.96527,3.503754,0.6584575,0.3902307,0.06128514,1.192454,-0.2627513,-0.01813063,-0.01960967,-0.01850483,0.2934425,54.94002,31.23
4,-0.04421997,0.02363586,0.9987335,1.0,-0.005325317,0.004394531,0.9999695,-28.19913,1.432098,-24.74918,3.357101,0.3811978,0.4978275,1.0,-0.06358337,0.03323364,0.9974213,28.15846,4.135223,-22.85616,3.557602,0.658551,0.3886356,0.06128514,1.192454,-0.2627513,-0.01813063,-0.01960967,-0.01850483,0.2934425,54.94002,31.23
4,-0.08914185,0.01193237,0.9959412,1.0,-0.03726196,-0.007400513,0.9992676,-28.50768,1.527161,-25.08928,3.452637,0.3963337,0.499894,1.0,-0.09857178,0.01545715,0.9949951,27.85622,4.209,-23.01224,3.57515,0.6745857,0.3905167,0.06169581,1.192722,-0.2628444,-0.01872695,-0.01922482,-0.01909493,0.2934425,38.8314,31.23
4,-0.1489563,0.02807617,0.9884338,1.0,-0.08058167,-0.03868103,0.9959869,-29.04501,1.973663,-26.20094,3.353882,0.4206832,0.5006052,1.0,-0.1489716,0.02809143,0.9884338,27.22711,3.972824,-22.10718,3.494888,0.7023879,0.3890474,0.06222963,1.192728,-0.2631193,-0.01863602,-0.01889883,-0.01932609,0.2934425,38.8314,31.23
4,-0.1489563,0.02807617,0.9884338,1.0,-0.08058167,-0.03868103,0.9959869,-29.04501,1.973663,-26.20094,3.353882,0.4206832,0.5006052,1.0,-0.1489716,0.02809143,0.9884338,27.22711,3.972824,-22.10718,3.494888,0.7023879,0.3890474,0.06222963,1.192728,-0.2631193,-0.01863602,-0.01889883,-0.01932609,0.2934425,38.8314,31.23
4,-0.197113,0.02511597,0.9800415,1.0,-0.1052551,-0.01623535,0.9943085,-29.10703,1.640396,-24.99582,3.400604,0.4272569,0.497205,1.0,-0.1971588,0.02513123,0.9800415,27.06831,4.202591,-22.77875,3.596405,0.7171116,0.3876241,0.06223595,1.192766,-0.2632353,-0.01870386,-0.01872536,-0.01951789,0.2934425,38.8314,31.23
4,-0.1812286,0.02607727,0.9830933,1.0,-0.1108398,-0.009292603,0.9937897,-29.09627,1.639648,-24.93619,3.404068,0.4278604,0.4955774,1.0,-0.1812592,0.02609253,0.983078,27.09065,4.204285,-22.7065,3.710205,0.7135223,0.3868019,0.06222987,1.192869,-0.2633774,-0.0186947,-0.01879169,-0.01931567,0.2934425,38.8314,31.23
4,-0.1812286,0.02607727,0.9830933,1.0,-0.1108398,-0.009292603,0.9937897,-29.09627,1.639648,-24.93619,3.404068,0.4278604,0.4955774,1.0,-0.1812592,0.02609253,0.983078,27.09065,4.204285,-22.7065,3.710205,0.7135223,0.3868019,0.06222987,1.192869,-0.2633774,-0.0186947,-0.01879169,-0.01931567,0.2934425,38.8314,31.23
4,-0.1812286,0.02607727,0.9830933,1.0,-0.1108398,-0.009292603,0.9937897,-29.09627,1.639648,-24.93619,3.404068,0.4278604,0.4955774,1.0,-0.1812592,0.02609253,0.983078,27.09065,4.204285,-22.7065,3.710205,0.7135223,0.3868019,0.06222987,1.192869,-0.2633774,-0.0186947,-0.01879169,-0.01931567,0.2934425,38.8314,31.23
4,-0.1764374,0.03778076,0.9835815,1.0,-0.1057739,-0.006729126,0.9943542,-29.0997,1.670959,-24.99631,3.38858,0.4271317,0.4946183,1.0,-0.1764679,0.03779602,0.9835663,27.10355,4.217514,-22.6891,3.640762,0.7122952,0.3842279,0.06246889,1.192942,-0.2633541,-0.01870386,-0.01876987,-0.01872138,0.2934425,38.8314,31.23
4,-0.1764374,0.03778076,0.9835815,1.0,-0.1057739,-0.006729126,0.9943542,-29.0997,1.670959,-24.99631,3.38858,0.4271317,0.4946183,1.0,-0.1764679,0.03779602,0.9835663,27.10355,4.217514,-22.6891,3.640762,0.7122952,0.3842279,0.06246889,1.192942,-0.2633541,-0.01870386,-0.01876987,-0.01872138,0.2934425,38.8314,31.23
4,-0.1764374,0.03778076,0.9835815,1.0,-0.1057739,-0.006729126,0.9943542,-29.0997,1.670959,-24.99631,3.38858,0.4271317,0.4946183,1.0,-0.1764679,0.03779602,0.9835663,27.10355,4.217514,-22.6891,3.640762,0.7122952,0.3842279,0.06246889,1.192942,-0.2633541,-0.01870386,-0.01876987,-0.01872138,0.2934425,38.8314,31.23
4,-0.07925415,-0.01277161,0.9967651,1.0,-0.07876587,-0.01304626,0.9967957,-29.13474,1.998474,-25.97424,3.331436,0.4235004,0.4934382,1.0,-0.1677551,0.0380249,0.9850922,27.16354,3.867462,-21.0363,3.615326,0.7055454,0.382776,0.06245911,1.193004,-0.2636361,-0.01843707,-0.01866359,-0.01814542,0.2934425,38.8314,31.23
4,-0.09063721,-0.01403809,0.9957733,1.0,-0.09063721,-0.01403809,0.9957733,-29.07198,1.918442,-25.72502,3.354736,0.4234799,0.4940995,1.0,-0.1732941,0.04402161,0.9838715,27.17201,3.90509,-21.16232,3.640701,0.7063847,0.3816458,0.0624094,1.193033,-0.2639216,-0.01798747,-0.0186576,-0.01748931,0.2934425,38.8314,31.23
4,-0.07730103,-0.01187134,0.996933,1.0,-0.07730103,-0.01187134,0.996933,-29.09256,1.96666,-25.91211,3.359207,0.4218791,0.4937432,1.0,-0.1676331,0.03794861,0.9851074,27.20372,3.793076,-20.79808,3.64502,0.7037092,0.3833988,0.06228805,1.192974,-0.2640928,-0.01797172,-0.0184124,-0.01698533,0.2934425,38.8314,31.23
4,-0.07730103,-0.01187134,0.996933,1.0,-0.07730103,-0.01187134,0.996933,-29.09256,1.96666,-25.91211,3.359207,0.4218791,0.4937432,1.0,-0.1676331,0.03794861,0.9851074,27.20372,3.793076,-20.79808,3.64502,0.7037092,0.3833988,0.06228805,1.192974,-0.2640928,-0.01797172,-0.0184124,-0.01698533,0.2934425,38.8314,31.23
4,-0.09910583,-0.007919312,0.9950409,1.0,-0.09910583,-0.007919312,0.9950409,-29.00575,1.809036,-25.52359,3.329269,0.4227863,0.4948721,1.0,-0.1765442,0.04078674,0.9834442,27.24818,3.784485,-20.84451,3.748123,0.7037885,0.3837088,0.06273341,1.192861,-0.2640493,-0.0181039,-0.01793437,-0.01655797,0.2844726,-18.20148,31.23
4,-0.09910583,-0.007919312,0.9950409,1.0,-0.09910583,-0.007919312,0.9950409,-29.00575,1.809036,-25.52359,3.329269,0.4227863,0.4948721,1.0,-0.1765442,0.04078674,0.9834442,27.24818,3.784485,-20.84451,3.748123,0.7037885,0.3837088,0.06273341,1.192861,-0.2640493,-0.0181039,-0.01793437,-0.01655797,0.2844726,-18.20148,31.23
4,-0.1594391,0.0322876,0.9866638,1.0,-0.09112549,-0.01542664,0.9957123,-28.99309,1.779861,-25.56232,3.446075,0.4209708,0.4974687,1.0,-0.1770477,0.04469299,0.9831696,27.26425,3.776093,-20.85744,3.692444,0.7033952,0.3834131,0.06209207,1.192616,-0.2644656,-0.01845161,-0.01719936,-0.01605213,0.2844726,-18.20148,31.23
4,-0.1594391,0.0322876,0.9866638,1.0,-0.09112549,-0.01542664,0.9957123,-28.99309,1.779861,-25.56232,3.446075,0.4209708,0.4974687,1.0,-0.1770477,0.04469299,0.9831696,27.26425,3.776093,-20.85744,3.692444,0.7033952,0.3834131,0.06209207,1.192616,-0.2644656,-0.01845161,-0.01719936,-0.01605213,0.2844726,-18.20148,31.23
4,-0.1607666,0.03250122,0.9864502,1.0,-0.08985901,-0.01702881,0.9958038,-28.99234,1.780701,-25.57974,3.454742,0.4207244,0.4978529,1.0,-0.1772461,0.0440979,0.9831696,27.26898,3.770126,-20.85811,3.705261,0.703266,0.3837088,0.06235921,1.192619,-0.264559,-0.01870426,-0.01637472,-0.01534886,0.2844726,-18.20148,31.23
4,-0.1607666,0.03250122,0.9864502,1.0,-0.08985901,-0.01702881,0.9958038,-28.99234,1.780701,-25.57974,3.454742,0.4207244,0.4978529,1.0,-0.1772461,0.0440979,0.9831696,27.26898,3.770126,-20.85811,3.705261,0.703266,0.3837088,0.06235921,1.192619,-0.264559,-0.01870426,-0.01637472,-0.01534886,0.2844726,-18.20148,31.23
4,-0.1607666,0.03250122,0.9864502,1.0,-0.08985901,-0.01702881,0.9958038,-28.99234,1.780701,-25.57974,3.454742,0.4207244,0.4978529,1.0,-0.1772461,0.0440979,0.9831696,27.26898,3.770126,-20.85811,3.705261,0.703266,0.3837088,0.06212592,1.192608,-0.2648525,-0.01886095,-0.01563025,-0.01517948,0.2844726,-18.20148,31.23
4,-0.1607666,0.03250122,0.9864502,1.0,-0.08985901,-0.01702881,0.9958038,-28.99234,1.780701,-25.57974,3.454742,0.4207244,0.4978529,1.0,-0.1772461,0.0440979,0.9831696,27.26898,3.770126,-20.85811,3.705261,0.703266,0.3837088,0.06212592,1.192608,-0.2648525,-0.01886095,-0.01563025,-0.01517948,0.2844726,-18.20148,31.23
4,-0.1607666,0.03250122,0.9864502,1.0,-0.08985901,-0.01702881,0.9958038,-28.99234,1.780701,-25.57974,3.454742,0.4207244,0.4978529,1.0,-0.1772461,0.0440979,0.9831696,27.26898,3.770126,-20.85811,3.705261,0.703266,0.3837088,0.06207812,1.192861,-0.2652369,-0.01884079,-0.01472959,-0.01505281,0.2844726,-18.20148,31.23
4,-0.1607666,0.03250122,0.9864502,1.0,-0.08985901,-0.01702881,0.9958038,-28.99234,1.780701,-25.57974,3.454742,0.4207244,0.4978529,1.0,-0.1772461,0.0440979,0.9831696,27.26898,3.770126,-20.85811,3.705261,0.703266,0.3837088,0.06207812,1.192861,-0.2652369,-0.01884079,-0.01472959,-0.01505281,0.2844726,-18.20148,31.23
4,-0.1687164,0.03904724,0.9848785,1.0,-0.08944702,-0.01701355,0.9958344,-28.98982,1.781235,-25.59895,3.431488,0.4205704,0.4979929,1.0,-0.1770477,0.04499817,0.9831696,27.27332,3.768173,-20.85823,3.703018,0.7030962,0.383627,0.06215096,1.193007,-0.2653652,-0.01890751,-0.01386398,-0.0149749,0.2844726,-18.20148,31.23
4,-0.1687164,0.03904724,0.9848785,1.0,-0.08944702,-0.01701355,0.9958344,-28.98982,1.781235,-25.59895,3.431488,0.4205704,0.4979929,1.0,-0.1770477,0.04499817,0.9831696,27.27332,3.768173,-20.85823,3.703018,0.7030962,0.383627,0.06215096,1.193007,-0.2653652,-0.01890751,-0.01386398,-0.0149749,0.2844726,-18.20148,31.23
4,-0.1687164,0.03904724,0.9848785,1.0,-0.08944702,-0.01701355,0.9958344,-28.98982,1.781235,-25.59895,3.431488,0.4205704,0.4979929,1.0,-0.1770477,0.04499817,0.9831696,27.27332,3.768173,-20.85823,3.703018,0.7030962,0.383627,0.06231701,1.193169,-0.2653818,-0.01945404,-0.01321069,-0.01454226,0.2844726,-18.20148,31.23
4,-0.1687164,0.03904724,0.9848785,1.0,-0.08944702,-0.01701355,0.9958344,-28.98982,1.781235,-25.59895,3.431488,0.4205704,0.4979929,1.0,-0.1770477,0.04499817,0.9831696,27.27332,3.768173,-20.85823,3.703018,0.7030962,0.383627,0.06231701,1.193169,-0.2653818,-0.01945404,-0.01321069,-0.01454226,0.2844726,-18.20148,31.23
4,-0.1653442,0.04103088,0.9853668,1.0,-0.08906555,-0.01745605,0.9958649,-28.9873,1.780701,-25.60266,3.453598,0.4204163,0.4981329,1.0,-0.1737366,0.04751587,0.9836426,27.31792,3.765457,-20.88065,3.722641,0.7011271,0.38347,0.06247723,1.193352,-0.2654347,-0.01985998,-0.01246493,-0.01392725,0.2844726,-18.20148,31.23
4,-0.1653442,0.04103088,0.9853668,1.0,-0.08906555,-0.01745605,0.9958649,-28.9873,1.780701,-25.60266,3.453598,0.4204163,0.4981329,1.0,-0.1737366,0.04751587,0.9836426,27.31792,3.765457,-20.88065,3.722641,0.7011271,0.38347,0.06247723,1.193352,-0.2654347,-0.01985998,-0.01246493,-0.01392725,0.2844726,-18.20148,31.23
4,-0.04902649,0.03701782,0.9981079,1.0,-0.04594421,0.03547668,0.9983063,-28.39955,1.774445,-24.83243,3.596176,0.394477,0.4825892,1.0,-0.1166687,0.07067871,0.9906464,27.76253,4.357773,-21.78357,3.705826,0.678932,0.3671532,0.06258333,1.193389,-0.2655765,-0.020576,-0.0118829,-0.01266241,0.2844726,-48.37959,31.23
4,-0.04902649,0.03701782,0.9981079,1.0,-0.04594421,0.03547668,0.9983063,-28.39955,1.774445,-24.83243,3.596176,0.394477,0.4825892,1.0,-0.1166687,0.07067871,0.9906464,27.76253,4.357773,-21.78357,3.705826,0.678932,0.3671532,0.06258333,1.193389,-0.2655765,-0.020576,-0.0118829,-0.01266241,0.2844726,-48.37959,31.23
4,-0.0533905,0.03834534,0.9978333,1.0,-0.05221558,0.0377655,0.9979095,-28.242,1.66954,-24.80472,3.572052,0.3903548,0.4853416,1.0,-0.1161499,0.06948853,0.9907837,27.90892,4.397446,-22.11517,3.738785,0.6745635,0.3686319,0.06266844,1.193536,-0.2658052,-0.02113474,-0.01115325,-0.01158061,0.2844726,-48.37959,31.23
4,-0.0533905,0.03834534,0.9978333,1.0,-0.05221558,0.0377655,0.9979095,-28.242,1.66954,-24.80472,3.572052,0.3903548,0.4853416,1.0,-0.1161499,0.06948853,0.9907837,27.90892,4.397446,-22.11517,3.738785,0.6745635,0.3686319,0.06266844,1.193536,-0.2658052,-0.02113474,-0.01115325,-0.01158061,0.2844726,-48.37959,31.23
4,-0.06526184,0.04972839,0.9966125,1.0,-0.05230713,0.04458618,0.9976196,-28.15782,1.491989,-24.47453,3.643448,0.3877951,0.4871561,1.0,-0.1087341,0.06698608,0.991806,28.01167,4.415543,-22.28368,3.790314,0.6701974,0.3697642,0.06258059,1.193605,-0.266034,-0.02144272,-0.01072275,-0.01066841,0.2844726,-48.37959,31.23
4,-0.06526184,0.04972839,0.9966125,1.0,-0.05230713,0.04458618,0.9976196,-28.15782,1.491989,-24.47453,3.643448,0.3877951,0.4871561,1.0,-0.1087341,0.06698608,0.991806,28.01167,4.415543,-22.28368,3.790314,0.6701974,0.3697642,0.06258059,1.193605,-0.266034,-0.02144272,-0.01072275,-0.01066841,0.2844726,-48.37959,31.23
4,-0.06002808,0.04830933,0.9970245,1.0,-0.05615234,0.04577637,0.9973602,-28.10411,1.495407,-24.64711,3.66217,0.3865502,0.4883641,1.0,-0.09613037,0.0717926,0.9927673,28.10123,4.483871,-22.59297,3.723511,0.6656654,0.3690301,0.0624795,1.193542,-0.2662537,-0.0214639,-0.01024591,-0.01014506,0.2844726,-48.37959,31.23
4,-0.06002808,0.04830933,0.9970245,1.0,-0.05615234,0.04577637,0.9973602,-28.10411,1.495407,-24.64711,3.66217,0.3865502,0.4883641,1.0,-0.09613037,0.0717926,0.9927673,28.10123,4.483871,-22.59297,3.723511,0.6656654,0.3690301,0.0624795,1.193542,-0.2662537,-0.0214639,-0.01024591,-0.01014506,0.2844726,-48.37959,31.23
4,-0.0556488,0.04199219,0.9975586,1.0,-0.046875,0.03923035,0.9981232,-28.07111,1.463821,-24.67131,3.65242,0.3839112,0.490639,1.0,-0.09915161,0.05570984,0.9934998,28.18359,4.36734,-22.29573,3.665573,0.6629149,0.3731743,0.06229651,1.19356,-0.2663114,-0.02105987,-0.01009869,-0.009852217,0.2844726,-48.37959,31.23
4,-0.0556488,0.04199219,0.9975586,1.0,-0.046875,0.03923035,0.9981232,-28.07111,1.463821,-24.67131,3.65242,0.3839112,0.490639,1.0,-0.09915161,0.05570984,0.9934998,28.18359,4.36734,-22.29573,3.665573,0.6629149,0.3731743,0.06229651,1.19356,-0.2663114,-0.02105987,-0.01009869,-0.009852217,0.2844726,-48.37959,31.23
4,-0.05197144,0.04190063,0.997757,1.0,-0.03582764,0.03527832,0.9987335,-28.08446,1.346512,-24.39995,3.624161,0.382702,0.4926749,1.0,-0.09030151,0.05760193,0.9942322,28.24113,4.340698,-22.34868,3.756363,0.6596341,0.374175,0.06217313,1.193544,-0.2663918,-0.02057781,-0.009866574,-0.009985172,0.2844726,-48.37959,31.23
4,-0.05197144,0.04190063,0.997757,1.0,-0.03582764,0.03527832,0.9987335,-28.08446,1.346512,-24.39995,3.624161,0.382702,0.4926749,1.0,-0.09030151,0.05760193,0.9942322,28.24113,4.340698,-22.34868,3.756363,0.6596341,0.374175,0.06217313,1.193544,-0.2663918,-0.02057781,-0.009866574,-0.009985172,0.2844726,-48.37959,31.23
4,-0.07017517,0.04841614,0.9963531,1.0,-0.03829956,0.03752136,0.9985504,-28.04024,1.355072,-24.5141,3.625214,0.3815855,0.493028,1.0,-0.09208679,0.05587769,0.9941711,28.24922,4.315887,-22.31596,3.71756,0.6596047,0.374988,0.06264436,1.19328,-0.2662225,-0.02015233,-0.009800658,-0.01007358,0.2844726,-48.37959,31.23
4,-0.07017517,0.04841614,0.9963531,1.0,-0.03829956,0.03752136,0.9985504,-28.04024,1.355072,-24.5141,3.625214,0.3815855,0.493028,1.0,-0.09208679,0.05587769,0.9941711,28.24922,4.315887,-22.31596,3.71756,0.6596047,0.374988,0.06264436,1.19328,-0.2662225,-0.02015233,-0.009800658,-0.01007358,0.2844726,-48.37959,31.23
4,-0.08311462,0.05162048,0.9951935,1.0,-0.04321289,0.03944397,0.9982758,-28.00835,1.36235,-24.61784,3.619629,0.3812806,0.4933811,1.0,-0.09243774,0.05445862,0.9942169,28.25136,4.308258,-22.30827,3.718292,0.6595751,0.3754113,0.06258905,1.193227,-0.266222,-0.01972371,-0.009911778,-0.01017147,0.2844726,-48.37959,31.23
4,-0.08638,0.05232239,0.994873,1.0,-0.04270935,0.03459167,0.9984741,-28.00818,1.361435,-24.64418,3.620987,0.3811618,0.4944416,1.0,-0.09233093,0.05473328,0.9942169,28.2541,4.298035,-22.30688,3.717773,0.6594632,0.3756865,0.062989,1.193087,-0.2657107,-0.01915804,-0.01046464,-0.01002093,0.2844726,36.4332,31.23
4,-0.08638,0.05232239,0.994873,1.0,-0.04270935,0.03459167,0.9984741,-28.00818,1.361435,-24.64418,3.620987,0.3811618,0.4944416,1.0,-0.09233093,0.05473328,0.9942169,28.2541,4.298035,-22.30688,3.717773,0.6594632,0.3756865,0.062989,1.193087,-0.2657107,-0.01915804,-0.01046464,-0.01002093,0.2844726,36.4332,31.23
4,-0.08343506,0.04759216,0.9953613,1.0,-0.04266357,0.03086853,0.9986115,-28.00188,1.363632,-24.70703,3.621231,0.3808946,0.495536,1.0,-0.08972168,0.0501709,0.9946899,28.29245,4.265442,-22.45122,3.749527,0.6579587,0.3786311,0.06290567,1.19302,-0.2656171,-0.01889095,-0.01074982,-0.009760284,0.2844726,36.4332,31.23
4,-0.0713501,0.04864502,0.9962616,1.0,-0.03677368,0.02848816,0.9989166,-28.00119,1.366577,-24.72034,3.623047,0.3798887,0.495936,1.0,-0.08422852,0.05615234,0.9948578,28.29654,4.262863,-22.45122,3.732513,0.6569251,0.3777013,0.06266165,1.193301,-0.2654777,-0.01844878,-0.01132494,-0.009421582,0.2844726,36.4332,31.23
4,-0.06329346,0.04295349,0.9970551,1.0,-0.03643799,0.02780151,0.9989471,-27.99753,1.3703,-24.73668,3.620468,0.3797017,0.4960661,1.0,-0.08279419,0.05397034,0.9951019,28.29823,4.26416,-22.46948,3.741089,0.6566533,0.3781662,0.06262827,1.193154,-0.2653883,-0.0181409,-0.01183705,-0.009142244,0.2844726,36.4332,31.23
4,-0.06329346,0.04295349,0.9970551,1.0,-0.03643799,0.02780151,0.9989471,-27.99753,1.3703,-24.73668,3.620468,0.3797017,0.4960661,1.0,-0.08279419,0.05397034,0.9951019,28.29823,4.26416,-22.46948,3.741089,0.6566533,0.3781662,0.06262827,1.193154,-0.2653883,-0.0181409,-0.01183705,-0.009142244,0.2844726,36.4332,31.23
4,-0.05502319,0.03829956,0.9977417,1.0,-0.03521729,0.02845764,0.9989624,-27.99011,1.3759,-24.77069,3.619476,0.3792349,0.4960661,1.0,-0.08255005,0.05195618,0.995224,28.30577,4.270294,-22.5159,3.75206,0.6564263,0.3786614,0.06236076,1.192989,-0.2653395,-0.01786944,-0.01215014,-0.009158528,0.2844726,36.4332,31.23
4,-0.04032898,0.0316925,0.9986725,1.0,-0.03398132,0.02929688,0.9989777,-27.97714,1.37619,-24.77266,3.62178,0.3786068,0.495936,1.0,-0.08662415,0.04919434,0.9950104,28.33855,4.336426,-22.74107,3.745529,0.6563816,0.3786918,0.06175196,1.193302,-0.2653022,-0.01716163,-0.01290313,-0.008849045,0.2844726,36.4332,31.23
4,-0.04032898,0.0316925,0.9986725,1.0,-0.03398132,0.02929688,0.9989777,-27.97714,1.37619,-24.77266,3.62178,0.3786068,0.495936,1.0,-0.08662415,0.04919434,0.9950104,28.33855,4.336426,-22.74107,3.745529,0.6563816,0.3786918,0.06175196,1.193302,-0.2653022,-0.01716163,-0.01290313,-0.008849045,0.2844726,36.4332,31.23
4,-0.03450012,0.03085327,0.9989166,1.0,-0.0324707,0.03013611,0.9990082,-27.96411,1.37915,-24.78835,3.62706,0.3779211,0.4958341,1.0,-0.08630371,0.04901123,0.9950562,28.33992,4.346497,-22.77353,3.779755,0.6563113,0.3786918,0.06147063,1.193233,-0.2650354,-0.01650931,-0.01362657,-0.008519599,0.2844726,36.4332,31.23
4,-0.0330658,0.03149414,0.9989471,1.0,-0.03025818,0.03056335,0.9990692,-27.95557,1.387894,-24.81381,3.632156,0.3772591,0.4956931,1.0,-0.08584595,0.04884338,0.9951019,28.34607,4.346497,-22.77068,3.779953,0.6560286,0.3786951,0.06131244,1.193204,-0.26489,-0.01614423,-0.014054,-0.008337501,0.2844726,36.4332,31.23
4,-0.0330658,0.03149414,0.9989471,1.0,-0.03025818,0.03056335,0.9990692,-27.95557,1.387894,-24.81381,3.632156,0.3772591,0.4956931,1.0,-0.08584595,0.04884338,0.9951019,28.34607,4.346497,-22.77068,3.779953,0.6560286,0.3786951,0.06131244,1.193204,-0.26489,-0.01614423,-0.014054,-0.008337501,0.2844726,36.4332,31.23
4,-0.0436554,0.03445435,0.9984436,1.0,-0.03134155,0.03010559,0.999054,-27.94574,1.394073,-24.81721,3.643036,0.3771104,0.4956158,1.0,-0.0864563,0.04956055,0.9950104,28.34938,4.336426,-22.74107,3.814545,0.6559824,0.3786951,0.06114602,1.193093,-0.2648232,-0.0159996,-0.01454277,-0.008224134,0.2844726,36.4332,31.23
4,-0.04920959,0.03820801,0.9980469,1.0,-0.02833557,0.03117371,0.9990997,-27.94339,1.394485,-24.82167,3.643295,0.3765361,0.4954609,1.0,-0.08253479,0.04942322,0.9953613,28.35831,4.336426,-22.74107,3.821808,0.6550325,0.3787121,0.06065285,1.19293,-0.2647135,-0.01571012,-0.01544419,-0.008127537,0.2844726,36.4332,31.23
4,-0.04920959,0.03820801,0.9980469,1.0,-0.02833557,0.03117371,0.9990997,-27.94339,1.394485,-24.82167,3.643295,0.3765361,0.4954609,1.0,-0.08253479,0.04942322,0.9953613,28.35831,4.336426,-22.74107,3.821808,0.6550325,0.3787121,0.06065285,1.19293,-0.2647135,-0.01571012,-0.01544419,-0.008127537,0.2844726,36.4332,31.23
4,-0.05706787,0.03778076,0.9976501,1.0,-0.0292511,0.02711487,0.9991913,-27.93253,1.42897,-24.8511,3.668274,0.3763019,0.4952758,1.0,-0.08192444,0.04728699,0.9955139,28.36913,4.344788,-22.74107,3.822968,0.6545721,0.3787824,0.06057274,1.192805,-0.2643993,-0.01567119,-0.01635879,-0.008037197,0.2844726,36.4332,31.23
4,-0.05445862,0.03720093,0.997818,1.0,-0.02622986,0.02560425,0.9993134,-27.92686,1.45816,-24.88033,3.666672,0.3756019,0.4948242,1.0,-0.07904053,0.04728699,0.9957428,28.37698,4.344788,-22.74107,3.822983,0.6538351,0.3787824,0.06054568,1.192809,-0.2642032,-0.01573666,-0.017275,-0.007684615,0.2844726,14.73035,31.23
4,-0.05445862,0.03720093,0.997818,1.0,-0.02622986,0.02560425,0.9993134,-27.92686,1.45816,-24.88033,3.666672,0.3756019,0.4948242,1.0,-0.07904053,0.04728699,0.9957428,28.37698,4.344788,-22.74107,3.822983,0.6538351,0.3787824,0.06054568,1.192809,-0.2642032,-0.01573666,-0.017275,-0.007684615,0.2844726,14.73035,31.23
4,-0.05445862,0.03720093,0.997818,1.0,-0.02622986,0.02560425,0.9993134,-27.92686,1.45816,-24.88033,3.666672,0.3756019,0.4948242,1.0,-0.07904053,0.04728699,0.9957428,28.37698,4.344788,-22.74107,3.822983,0.6538351,0.3787824,0.06054568,1.192809,-0.2642032,-0.01573666,-0.017275,-0.007684615,0.2844726,14.73035,31.23
4,-0.04818726,0.03800964,0.9981079,1.0,-0.0239563,0.0280304,0.9993134,-27.91826,1.488632,-24.89207,3.705948,0.3749399,0.4935572,1.0,-0.07046509,0.04718018,0.9963837,28.37698,4.333328,-22.683,3.840256,0.6523318,0.3787121,0.06035066,1.192736,-0.2639347,-0.01572671,-0.01790984,-0.007461282,0.2844726,14.73035,31.23
4,-0.04606628,0.03742981,0.99823,1.0,-0.02323914,0.0282135,0.9993286,-27.90872,1.490921,-24.89252,3.710663,0.3745075,0.4934583,1.0,-0.07041931,0.04725647,0.9963837,28.39497,4.331009,-22.67314,3.826187,0.6517143,0.3786951,0.06007779,1.192866,-0.2637998,-0.01577732,-0.01843828,-0.007373895,0.2844726,14.73035,31.23
4,-0.04606628,0.03742981,0.99823,1.0,-0.02323914,0.0282135,0.9993286,-27.90872,1.490921,-24.89252,3.710663,0.3745075,0.4934583,1.0,-0.07041931,0.04725647,0.9963837,28.39497,4.331009,-22.67314,3.826187,0.6517143,0.3786951,0.06007779,1.192866,-0.2637998,-0.01577732,-0.01843828,-0.007373895,0.2844726,14.73035,31.23
4,-0.04103088,0.0375061,0.9984436,1.0,-0.0146637,0.02830505,0.9994812,-27.89899,1.492691,-24.89461,3.709747,0.3727756,0.4933896,1.0,-0.07234192,0.04841614,0.9962006,28.40974,4.325012,-22.65395,3.842072,0.65152,0.3785592,0.0599395,1.192826,-0.2636662,-0.01572245,-0.01867915,-0.007337431,0.2844726,14.73035,31.23
4,-0.04110718,0.03868103,0.9983978,1.0,-0.0145874,0.02937317,0.9994507,-27.8972,1.492691,-24.89253,3.705307,0.3727094,0.4931856,1.0,-0.07106018,0.04916382,0.9962463,28.41461,4.323059,-22.64812,3.830933,0.6511399,0.3784515,0.05959082,1.192866,-0.2635649,-0.01555906,-0.01933418,-0.006933336,0.2844726,14.73035,31.23
4,-0.04110718,0.03868103,0.9983978,1.0,-0.0145874,0.02937317,0.9994507,-27.8972,1.492691,-24.89253,3.705307,0.3727094,0.4931856,1.0,-0.07106018,0.04916382,0.9962463,28.41461,4.323059,-22.64812,3.830933,0.6511399,0.3784515,0.05959082,1.192866,-0.2635649,-0.01555906,-0.01933418,-0.006933336,0.2844726,14.73035,31.23
4,-0.04116821,0.03929138,0.9983673,1.0,-0.0145874,0.02957153,0.9994507,-27.8972,1.49176,-24.89252,3.705612,0.3727094,0.4931856,1.0,-0.07124329,0.05026245,0.9961853,28.41556,4.317535,-22.64796,3.83139,0.6511399,0.3784515,0.05976784,1.19274,-0.2634581,-0.01535128,-0.01968817,-0.006626743,0.2844726,14.73035,31.23
4,-0.04190063,0.03894043,0.9983521,1.0,-0.01457214,0.02938843,0.9994507,-27.8972,1.491135,-24.88992,3.705276,0.3727094,0.4932117,1.0,-0.07136536,0.04919434,0.9962311,28.41556,4.314316,-22.63513,3.842575,0.6511399,0.3786332,0.05995381,1.192689,-0.2633232,-0.01504241,-0.01993263,-0.006362897,0.2844726,14.73035,31.23
4,-0.04232788,0.03903198,0.9983368,1.0,-0.01495361,0.02947998,0.9994507,-27.8972,1.488632,-24.8848,3.705597,0.3727756,0.4932291,1.0,-0.07139587,0.04914856,0.9962311,28.41556,4.306671,-22.6339,3.842667,0.6511399,0.3788836,0.0595597,1.192818,-0.263344,-0.01469972,-0.0201453,-0.006018698,0.2844726,14.73035,31.23
4,-0.04232788,0.03903198,0.9983368,1.0,-0.01495361,0.02947998,0.9994507,-27.8972,1.488632,-24.8848,3.705597,0.3727756,0.4932291,1.0,-0.07139587,0.04914856,0.9962311,28.41556,4.306671,-22.6339,3.842667,0.6511399,0.3788836,0.0595597,1.192818,-0.263344,-0.01469972,-0.0201453,-0.006018698,0.2844726,14.73035,31.23
4,-0.04440308,0.040802,0.9981689,1.0,-0.01655579,0.03242493,0.9993286,-27.89987,1.46875,-24.88438,3.711227,0.3731264,0.4934011,1.0,-0.07351685,0.04954529,0.996048,28.41556,4.298996,-22.62993,3.842773,0.6514843,0.3790402,0.05946088,1.192762,-0.2633204,-0.01445902,-0.02018779,-0.00601746,0.2844726,14.73035,31.23
4,-0.04354858,0.04180908,0.9981689,1.0,-0.0165863,0.03384399,0.9992828,-27.9072,1.458542,-24.87987,3.728165,0.3733726,0.4934742,1.0,-0.07203674,0.05020142,0.9961243,28.40579,4.288284,-22.60576,3.846146,0.6515296,0.3790907,0.059497,1.1926,-0.2631565,-0.01390155,-0.02023387,-0.005891078,0.2844726,14.73035,31.23
4,-0.05757141,0.04774475,0.9971924,1.0,-0.02752686,0.03959656,0.9988251,-27.99731,1.378311,-24.58861,3.693909,0.3783478,0.4926096,1.0,-0.07287598,0.05187988,0.9959869,28.39894,4.273331,-22.60661,3.849838,0.6518925,0.3793205,0.05928493,1.192627,-0.2631252,-0.0136795,-0.02024675,-0.00591254,0.2844726,14.73035,31.23
4,-0.05757141,0.04774475,0.9971924,1.0,-0.02752686,0.03959656,0.9988251,-27.99731,1.378311,-24.58861,3.693909,0.3783478,0.4926096,1.0,-0.07287598,0.05187988,0.9959869,28.39894,4.273331,-22.60661,3.849838,0.6518925,0.3793205,0.05928493,1.192627,-0.2631252,-0.0136795,-0.02024675,-0.00591254,0.2844726,14.73035,31.23
4,-0.06678772,0.05184937,0.9964142,1.0,-0.03317261,0.04708862,0.9983368,-28.01244,1.381302,-24.56296,3.727524,0.3797978,0.4911015,1.0,-0.07225037,0.0526123,0.9959869,28.38721,4.269196,-22.60576,3.847015,0.652173,0.3793205,0.05906737,1.192555,-0.2630721,-0.01358714,-0.0200801,-0.005679878,0.2844726,-24.79311,31.23
4,-0.06678772,0.05184937,0.9964142,1.0,-0.03317261,0.04708862,0.9983368,-28.01244,1.381302,-24.56296,3.727524,0.3797978,0.4911015,1.0,-0.07225037,0.0526123,0.9959869,28.38721,4.269196,-22.60576,3.847015,0.652173,0.3793205,0.05906737,1.192555,-0.2630721,-0.01358714,-0.0200801,-0.005679878,0.2844726,-24.79311,31.23
4,-0.07580566,0.0581665,0.9954224,1.0,-0.02755737,0.04981995,0.9983673,-28.04692,1.348572,-24.36653,3.74646,0.3801456,0.4900114,1.0,-0.07611084,0.05822754,0.9953918,28.24513,4.285278,-22.57455,3.783813,0.6574638,0.3775984,0.05906737,1.192555,-0.2630721,-0.01358714,-0.0200801,-0.005679878,0.2844726,-24.79311,31.23
4,-0.07223511,0.05982971,0.9955902,1.0,-0.02848816,0.04766846,0.9984436,-28.06009,1.356888,-24.35223,3.74202,0.3807374,0.4899668,1.0,-0.07267761,0.05995178,0.9955444,28.22528,4.304077,-22.56615,3.802719,0.6575555,0.3766295,0.0593847,1.192394,-0.2629785,-0.01315814,-0.02011495,-0.005619213,0.2844726,-24.79311,31.23
4,-0.07646179,0.05924988,0.9953003,1.0,-0.02865601,0.04980469,0.9983368,-28.07172,1.357956,-24.36653,3.742493,0.381137,0.4897144,1.0,-0.08015442,0.0599823,0.9949646,28.21838,4.324631,-22.58261,3.70282,0.6590428,0.3760479,0.05894768,1.192385,-0.2633153,-0.0130404,-0.0198476,-0.006049566,0.2844726,-24.79311,31.23
4,-0.07646179,0.05924988,0.9953003,1.0,-0.02865601,0.04980469,0.9983368,-28.07172,1.357956,-24.36653,3.742493,0.381137,0.4897144,1.0,-0.08015442,0.0599823,0.9949646,28.21838,4.324631,-22.58261,3.70282,0.6590428,0.3760479,0.05894768,1.192385,-0.2633153,-0.0130404,-0.0198476,-0.006049566,0.2844726,-24.79311,31.23
4,-0.05802917,0.05641174,0.9967041,1.0,-0.027771,0.04830933,0.9984436,-28.08333,1.376602,-24.38339,3.745499,0.3813617,0.4895042,1.0,-0.07710266,0.06150818,0.9951172,28.21547,4.332718,-22.57709,3.711884,0.6586305,0.3754851,0.05912673,1.192245,-0.2632408,-0.01291352,-0.01986298,-0.006036004,0.2844726,-24.79311,31.23
4,-0.05392456,0.05586243,0.9969788,1.0,-0.02693176,0.04701233,0.9985199,-28.09093,1.396896,-24.41122,3.795517,0.3814442,0.4893451,1.0,-0.07769775,0.06362915,0.9949341,28.21234,4.339096,-22.58154,3.737167,0.6588454,0.3749844,0.05893481,1.192361,-0.2632359,-0.01303754,-0.01986223,-0.005951475,0.2844726,-24.79311,31.23
4,-0.05392456,0.05586243,0.9969788,1.0,-0.02693176,0.04701233,0.9985199,-28.09093,1.396896,-24.41122,3.795517,0.3814442,0.4893451,1.0,-0.07769775,0.06362915,0.9949341,28.21234,4.339096,-22.58154,3.737167,0.6588454,0.3749844,0.05893481,1.192361,-0.2632359,-0.01303754,-0.01986223,-0.005951475,0.2844726,-24.79311,31.23
5,-0.05839539,0.05712891,0.9966431,1.0,-0.0317688,0.04655457,0.9983978,-28.09959,1.423813,-24.4234,3.790924,0.3825161,0.4886615,1.0,-0.07904053,0.06532288,0.9947205,28.20529,4.343857,-22.57402,3.749969,0.6592985,0.3744925,0.05888259,1.192426,-0.2632785,-0.01317624,-0.01980438,-0.005842821,0.2844726,-24.79311,31.23
5,-0.05839539,0.05712891,0.9966431,1.0,-0.0317688,0.04655457,0.9983978,-28.09959,1.423813,-24.4234,3.790924,0.3825161,0.4886615,1.0,-0.07904053,0.06532288,0.9947205,28.20529,4.343857,-22.57402,3.749969,0.6592985,0.3744925,0.05888259,1.192426,-0.2632785,-0.01317624,-0.01980438,-0.005842821,0.2844726,-24.79311,31.23
5,-0.0569458,0.05715942,0.9967346,1.0,-0.03155518,0.0456543,0.9984436,-28.10738,1.441833,-24.41464,3.798965,0.3827419,0.4881587,1.0,-0.07818604,0.06677246,0.9946899,28.19745,4.342453,-22.57353,3.776932,0.6594189,0.3743142,0.058797,1.192553,-0.2635249,-0.01333754,-0.01979272,-0.0056549,0.2844726,-24.79311,31.23
5,-0.0569458,0.05715942,0.9967346,1.0,-0.03155518,0.0456543,0.9984436,-28.10738,1.441833,-24.41464,3.798965,0.3827419,0.4881587,1.0,-0.07818604,0.06677246,0.9946899,28.19745,4.342453,-22.57353,3.776932,0.6594189,0.3743142,0.058797,1.192553,-0.2635249,-0.01333754,-0.01979272,-0.0056549,0.2844726,-24.79311,31.23
5,-0.0569458,0.05715942,0.9967346,1.0,-0.03155518,0.0456543,0.9984436,-28.10738,1.441833,-24.41464,3.798965,0.3827419,0.4881587,1.0,-0.07818604,0.06677246,0.9946899,28.19745,4.342453,-22.57353,3.776932,0.6594189,0.3743142,0.058797,1.192553,-0.2635249,-0.01333754,-0.01979272,-0.0056549,0.2844726,-24.79311,31.23
5,-0.05886841,0.06018066,0.9964447,1.0,-0.03630066,0.05253601,0.9979553,-28.12305,1.452591,-24.41464,3.808044,0.3840436,0.4866999,1.0,-0.08180237,0.06793213,0.9943237,28.18686,4.338547,-22.5614,3.79953,0.6603548,0.3741753,0.05871189,1.192658,-0.2636907,-0.01338272,-0.01996922,-0.005661484,0.2844726,-58.42511,31.23
5,-0.05886841,0.06018066,0.9964447,1.0,-0.03630066,0.05253601,0.9979553,-28.12305,1.452591,-24.41464,3.808044,0.3840436,0.4866999,1.0,-0.08180237,0.06793213,0.9943237,28.18686,4.338547,-22.5614,3.79953,0.6603548,0.3741753,0.05869675,1.192711,-0.2637842,-0.01357782,-0.01989559,-0.005673315,0.2844726,-58.42511,31.23
5,-0.05886841,0.06018066,0.9964447,1.0,-0.03630066,0.05253601,0.9979553,-28.12305,1.452591,-24.41464,3.808044,0.3840436,0.4866999,1.0,-0.08180237,0.06793213,0.9943237,28.18686,4.338547,-22.5614,3.79953,0.6603548,0.3741753,0.05869675,1.192711,-0.2637842,-0.01357782,-0.01989559,-0.005673315,0.2844726,-58.42511,31.23
5,-0.05886841,0.06018066,0.9964447,1.0,-0.03630066,0.05253601,0.9979553,-28.12305,1.452591,-24.41464,3.808044,0.3840436,0.4866999,1.0,-0.08180237,0.06793213,0.9943237,28.18686,4.338547,-22.5614,3.79953,0.6603548,0.3741753,0.05899632,1.192587,-0.2634654,-0.01358879,-0.01994048,-0.005489094,0.2844726,-58.42511,31.23
5,-0.05886841,0.06018066,0.9964447,1.0,-0.03630066,0.05253601,0.9979553,-28.12305,1.452591,-24.41464,3.808044,0.3840436,0.4866999,1.0,-0.08180237,0.06793213,0.9943237,28.18686,4.338547,-22.5614,3.79953,0.6603548,0.3741753,0.05899632,1.192587,-0.2634654,-0.01358879,-0.01994048,-0.005489094,0.2844726,-58.42511,31.23
5,-0.05923462,0.06025696,0.9964142,1.0,-0.03662109,0.05439758,0.9978333,-28.12997,1.455353,-24.41464,3.818314,0.3843236,0.4863229,1.0,-0.08398438,0.06666565,0.9942322,28.17505,4.337189,-22.51555,3.812881,0.6610413,0.3740894,0.05900812,1.192608,-0.2635186,-0.01378314,-0.02006377,-0.005637746,0.2844726,-58.42511,31.23
5,-0.05923462,0.06025696,0.9964142,1.0,-0.03662109,0.05439758,0.9978333,-28.12997,1.455353,-24.41464,3.818314,0.3843236,0.4863229,1.0,-0.08398438,0.06666565,0.9942322,28.17505,4.337189,-22.51555,3.812881,0.6610413,0.3740894,0.05900812,1.192608,-0.2635186,-0.01378314,-0.02006377,-0.005637746,0.2844726,-58.42511,31.23
5,-0.06022644,0.06210327,0.9962463,1.0,-0.03353882,0.05047607,0.9981537,-28.13544,1.492203,-24.31226,3.905884,0.3840562,0.4849384,1.0,-0.09414673,0.076828,0.9925842,28.14815,4.343521,-22.43085,3.905807,0.6635197,0.3716549,0.05924726,1.192798,-0.2634256,-0.0142937,-0.01989896,-0.005858103,0.2844726,-58.42511,31.23
5,-0.06022644,0.06210327,0.9962463,1.0,-0.03353882,0.05047607,0.9981537,-28.13544,1.492203,-24.31226,3.905884,0.3840562,0.4849384,1.0,-0.09414673,0.076828,0.9925842,28.14815,4.343521,-22.43085,3.905807,0.6635197,0.3716549,0.05924726,1.192798,-0.2634256,-0.0142937,-0.01989896,-0.005858103,0.2844726,-58.42511,31.23
5,-0.06652832,0.06546021,0.9956207,1.0,-0.03529358,0.05459595,0.997879,-28.12225,1.478226,-24.29477,3.911987,0.3839242,0.484575,1.0,-0.09632874,0.07579041,0.9924469,28.14888,4.356216,-22.45081,3.938156,0.6638879,0.3715925,0.05928254,1.192887,-0.2636642,-0.01443685,-0.01973353,-0.005822383,0.2844726,-58.42511,31.23
5,-0.06652832,0.06546021,0.9956207,1.0,-0.03529358,0.05459595,0.997879,-28.12225,1.478226,-24.29477,3.911987,0.3839242,0.484575,1.0,-0.09632874,0.07579041,0.9924469,28.14888,4.356216,-22.45081,3.938156,0.6638879,0.3715925,0.05928254,1.192887,-0.2636642,-0.01443685,-0.01973353,-0.005822383,0.2844726,-58.42511,31.23
5,-0.06539917,0.06600952,0.9956665,1.0,-0.03511047,0.05476379,0.997879,-28.12161,1.479614,-24.27705,3.910324,0.3838876,0.484352,1.0,-0.09597778,0.07733154,0.9923706,28.14906,4.367004,-22.45615,3.987167,0.6638451,0.3710661,0.05990911,1.192661,-0.2634602,-0.01453508,-0.01974749,-0.005607268,0.2844726,-58.42511,31.23
5,-0.06539917,0.06600952,0.9956665,1.0,-0.03511047,0.05476379,0.997879,-28.12161,1.479614,-24.27705,3.910324,0.3838876,0.484352,1.0,-0.09597778,0.07733154,0.9923706,28.14906,4.367004,-22.45615,3.987167,0.6638451,0.3710661,0.05990911,1.192661,-0.2634602,-0.01453508,-0.01974749,-0.005607268,0.2844726,-58.42511,31.23
5,-0.06611633,0.0663147,0.9956055,1.0,-0.034729,0.05392456,0.9979248,-28.12044,1.479736,-24.26158,3.909027,0.3837968,0.484352,1.0,-0.09596252,0.07803345,0.9923096,28.14931,4.374023,-22.45782,3.987274,0.6638404,0.3707286,0.06025183,1.192842,-0.2631204,-0.0144935,-0.01946208,-0.005305497,0.2844726,-58.42511,31.23
5,-0.06611633,0.0663147,0.9956055,1.0,-0.034729,0.05392456,0.9979248,-28.12044,1.479736,-24.26158,3.909027,0.3837968,0.484352,1.0,-0.09596252,0.07803345,0.9923096,28.14931,4.374023,-22.45782,3.987274,0.6638404,0.3707286,0.06025183,1.192842,-0.2631204,-0.0144935,-0.01946208,-0.005305497,0.2844726,-58.42511,31.23
5,-0.06565857,0.06503296,0.9957123,1.0,-0.03347778,0.05110168,0.9981232,-28.12016,1.493637,-24.24155,3.903427,0.3835995,0.4841797,1.0,-0.09439087,0.07743835,0.9925079,28.15302,4.392746,-22.47919,3.991592,0.6634935,0.3703749,0.06021643,1.192876,-0.2630936,-0.01456223,-0.01918757,-0.005291435,0.2844726,39.81286,31.23
5,-0.06565857,0.06503296,0.9957123,1.0,-0.03347778,0.05110168,0.9981232,-28.12016,1.493637,-24.24155,3.903427,0.3835995,0.4841797,1.0,-0.09439087,0.07743835,0.9925079,28.15302,4.392746,-22.47919,3.991592,0.6634935,0.3703749,0.06021643,1.192876,-0.2630936,-0.01456223,-0.01918757,-0.005291435,0.2844726,39.81286,31.23
5,-0.06472778,0.06433105,0.9958191,1.0,-0.03483582,0.05319214,0.9979706,-28.10687,1.496338,-24.22342,3.901367,0.3834054,0.4835872,1.0,-0.09283447,0.07476807,0.9928589,28.17064,4.421799,-22.48633,3.985306,0.662667,0.3699156,0.06061077,1.192903,-0.2631595,-0.01417173,-0.01884079,-0.005273099,0.2844726,39.81286,31.23
5,-0.06472778,0.06433105,0.9958191,1.0,-0.03483582,0.05319214,0.9979706,-28.10687,1.496338,-24.22342,3.901367,0.3834054,0.4835872,1.0,-0.09283447,0.07476807,0.9928589,28.17064,4.421799,-22.48633,3.985306,0.662667,0.3699156,0.06061077,1.192903,-0.2631595,-0.01417173,-0.01884079,-0.005273099,0.2844726,39.81286,31.23
5,-0.0612793,0.06242371,0.9961548,1.0,-0.03103638,0.04920959,0.998291,-28.09526,1.50563,-24.17793,3.8815,0.3824396,0.4835097,1.0,-0.08778381,0.07398987,0.9933777,28.18263,4.42659,-22.49266,3.983505,0.6614424,0.3699156,0.06072211,1.192946,-0.2631154,-0.01370562,-0.01862123,-0.005094883,0.2844726,39.81286,31.23
5,-0.0612793,0.06242371,0.9961548,1.0,-0.03103638,0.04920959,0.998291,-28.09526,1.50563,-24.17793,3.8815,0.3824396,0.4835097,1.0,-0.08778381,0.07398987,0.9933777,28.18263,4.42659,-22.49266,3.983505,0.6614424,0.3699156,0.06072211,1.192946,-0.2631154,-0.01370562,-0.01862123,-0.005094883,0.2844726,39.81286,31.23
5,-0.06019592,0.06240845,0.9962311,1.0,-0.02565002,0.04844666,0.9984894,-28.06995,1.506134,-24.17793,3.856918,0.3807361,0.4835872,1.0,-0.08674622,0.07310486,0.9935303,28.21082,4.42659,-22.49266,3.900177,0.6603304,0.3700103,0.06065357,1.192945,-0.2629042,-0.01365715,-0.01846412,-0.004938948,0.2844726,39.81286,31.23
5,-0.06019592,0.06240845,0.9962311,1.0,-0.02565002,0.04844666,0.9984894,-28.06995,1.506134,-24.17793,3.856918,0.3807361,0.4835872,1.0,-0.08674622,0.07310486,0.9935303,28.21082,4.42659,-22.49266,3.900177,0.6603304,0.3700103,0.06065357,1.192945,-0.2629042,-0.01365715,-0.01846412,-0.004938948,0.2844726,39.81286,31.23
5,-0.06034851,0.06066895,0.9963226,1.0,-0.02705383,0.04640198,0.9985504,-28.0614,1.506134,-24.17793,3.85611,0.3806851,0.483923,1.0,-0.08761597,0.07232666,0.993515,28.21489,4.42659,-22.47601,3.896927,0.6603184,0.3700103,0.06055343,1.192935,-0.262804,-0.013857,-0.01830811,-0.004699311,0.2844726,39.81286,31.23
5,-0.06034851,0.06066895,0.9963226,1.0,-0.02705383,0.04640198,0.9985504,-28.0614,1.506134,-24.17793,3.85611,0.3806851,0.483923,1.0,-0.08761597,0.07232666,0.993515,28.21489,4.42659,-22.47601,3.896927,0.6603184,0.3700103,0.06055343,1.192935,-0.262804,-0.013857,-0.01830811,-0.004699311,0.2844726,39.81286,31.23
5,-0.05296326,0.05703735,0.9969635,1.0,-0.02659607,0.04493713,0.9986267,-28.04239,1.506134,-24.18059,3.838226,0.3799891,0.4841614,1.0,-0.08174133,0.07023621,0.9941711,28.23393,4.408508,-22.46696,3.877472,0.6586856,0.3708457,0.06093574,1.192822,-0.2626467,-0.01371975,-0.01830729,-0.004384347,0.2844726,39.81286,31.23
5,-0.05296326,0.05703735,0.9969635,1.0,-0.02659607,0.04493713,0.9986267,-28.04239,1.506134,-24.18059,3.838226,0.3799891,0.4841614,1.0,-0.08174133,0.07023621,0.9941711,28.23393,4.408508,-22.46696,3.877472,0.6586856,0.3708457,0.06093574,1.192822,-0.2626467,-0.01371975,-0.01830729,-0.004384347,0.2844726,39.81286,31.23
5,-0.04388428,0.05232239,0.9976501,1.0,-0.03100586,0.05056763,0.99823,-28.00937,1.47612,-24.22821,3.818085,0.3796014,0.4846148,1.0,-0.08105469,0.05732727,0.9950562,28.30544,4.45256,-22.68846,3.801178,0.6565096,0.373197,0.06081903,1.192771,-0.2627378,-0.01368876,-0.01846977,-0.004289865,0.2844726,39.81286,31.23
5,-0.04388428,0.05232239,0.9976501,1.0,-0.03100586,0.05056763,0.99823,-28.00937,1.47612,-24.22821,3.818085,0.3796014,0.4846148,1.0,-0.08105469,0.05732727,0.9950562,28.30544,4.45256,-22.68846,3.801178,0.6565096,0.373197,0.06081903,1.192771,-0.2627378,-0.01368876,-0.01846977,-0.004289865,0.2844726,39.81286,31.23
5,-0.03555298,0.05130005,0.9980469,1.0,-0.02790833,0.05122375,0.998291,-28.00009,1.47612,-24.25525,3.796738,0.3787771,0.4847179,1.0,-0.08380127,0.05174255,0.9951324,28.32552,4.473526,-22.73889,3.758636,0.6563684,0.3738007,0.06065392,1.192725,-0.2628953,-0.01357178,-0.01839944,-0.00418792,0.2844726,39.81286,31.23
5,-0.03555298,0.05130005,0.9980469,1.0,-0.02790833,0.05122375,0.998291,-28.00009,1.47612,-24.25525,3.796738,0.3787771,0.4847179,1.0,-0.08380127,0.05174255,0.9951324,28.32552,4.473526,-22.73889,3.758636,0.6563684,0.3738007,0.06065392,1.192725,-0.2628953,-0.01357178,-0.01839944,-0.00418792,0.2844726,39.81286,31.23
