Second,eye_comb_direction_x,eye_comb_direction_y,eye_comb_direction_z,eye_r_openness,eye_r_direction_x,eye_r_direction_y,eye_r_direction_z,eye_r_origin_x,eye_r_origin_y,eye_r_origin_z,eye_r_pupil_diameter,eye_r_pupil_position_x,eye_r_pupil_position_y,eye_l_openness,eye_l_direction_x,eye_l_direction_y,eye_l_direction_z,eye_l_origin_x,eye_l_origin_y,eye_l_origin_z,eye_l_pupil_diameter,eye_l_pupil_position_x,eye_l_pupil_position_y,head_position_x,head_position_y,head_position_z,head_rotation_roll,head_rotation_pitch,head_rotation_yaw,EDA,BVP,TMP
0,0.0,0.0,0.0,0.0,0.0,0.0,0.0,0.0,0.0,0.0,0.0,0.0,0.0,0.0,0.0,0.0,0.0,0.0,0.0,0.0,0.0,0.0,0.0,0.0,0.0,0.0,0.0,0.0,0.0,0.28188441348837207,0.8137526417135864,30.691334149326806
0,-0.05108643,0.06266785,0.9967194,1.0,-0.009750366,0.04290771,0.9990234,-27.40138,0.9674988,-23.71385,5.233032,0.3563442,0.4988731,1.0,-0.09143066,0.08187866,0.9924316,28.64662,4.258652,-22.35062,5.117477,0.646571,0.3738141,0.04546142,1.187283,-0.267735,-0.00444175,-0.02315735,0.01196787,0.28188441348837207,0.8137526417135864,30.691334149326806
0,-0.0531311,0.06364441,0.9965515,1.0,-0.01325989,0.04423523,0.9989319,-27.40138,0.9758606,-23.73131,5.251404,0.3568862,0.4985596,1.0,-0.0934906,0.08322144,0.9921265,28.64661,4.263824,-22.33856,5.142105,0.6468973,0.3733665,0.04517198,1.186938,-0.2683107,-0.002942376,-0.02363724,0.01144666,0.2895983,0.8137526417135864,30.691334149326806
0,-0.0531311,0.06364441,0.9965515,1.0,-0.01325989,0.04423523,0.9989319,-27.40138,0.9758606,-23.73131,5.251404,0.3568862,0.4985596,1.0,-0.0934906,0.08322144,0.9921265,28.64661,4.263824,-22.33856,5.142105,0.6468973,0.3733665,0.04517198,1.186938,-0.2683107,-0.002942376,-0.02363724,0.01144666,0.2895983,0.8137526417135864,30.691334149326806
0,-0.0531311,0.06364441,0.9965515,1.0,-0.01325989,0.04423523,0.9989319,-27.40138,0.9758606,-23.73131,5.251404,0.3568862,0.4985596,1.0,-0.0934906,0.08322144,0.9921265,28.64661,4.263824,-22.33856,5.142105,0.6468973,0.3733665,0.04517198,1.186938,-0.2683107,-0.002942376,-0.02363724,0.01144666,0.2895983,0.8137526417135864,30.691334149326806
0,-0.0531311,0.06364441,0.9965515,1.0,-0.01325989,0.04423523,0.9989319,-27.40138,0.9758606,-23.73131,5.251404,0.3568862,0.4985596,1.0,-0.0934906,0.08322144,0.9921265,28.64661,4.263824,-22.33856,5.142105,0.6468973,0.3733665,0.04517198,1.186938,-0.2683107,-0.002942376,-0.02363724,0.01144666,0.2895983,0.8137526417135864,30.691334149326806
0,-0.0531311,0.06364441,0.9965515,1.0,-0.01325989,0.04423523,0.9989319,-27.40138,0.9758606,-23.73131,5.251404,0.3568862,0.4985596,1.0,-0.0934906,0.08322144,0.9921265,28.64661,4.263824,-22.33856,5.142105,0.6468973,0.3733665,0.04517198,1.186938,-0.2683107,-0.002942376,-0.02363724,0.01144666,0.2895983,0.8137526417135864,30.691334149326806
0,-0.0531311,0.06364441,0.9965515,1.0,-0.01325989,0.04423523,0.9989319,-27.40138,0.9758606,-23.73131,5.251404,0.3568862,0.4985596,1.0,-0.0934906,0.08322144,0.9921265,28.64661,4.263824,-22.33856,5.142105,0.6468973,0.3733665,0.04517198,1.186938,-0.2683107,-0.002942376,-0.02363724,0.01144666,0.2895983,0.8137526417135864,30.691334149326806
0,-0.0531311,0.06364441,0.9965515,1.0,-0.01325989,0.04423523,0.9989319,-27.40138,0.9758606,-23.73131,5.251404,0.3568862,0.4985596,1.0,-0.0934906,0.08322144,0.9921265,28.64661,4.263824,-22.33856,5.142105,0.6468973,0.3733665,0.04517198,1.186938,-0.2683107,-0.002942376,-0.02363724,0.01144666,0.2895983,0.8137526417135864,30.691334149326806
0,-0.0531311,0.06364441,0.9965515,1.0,-0.01325989,0.04423523,0.9989319,-27.40138,0.9758606,-23.73131,5.251404,0.3568862,0.4985596,1.0,-0.0934906,0.08322144,0.9921265,28.64661,4.263824,-22.33856,5.142105,0.6468973,0.3733665,0.04517198,1.186938,-0.2683107,-0.002942376,-0.02363724,0.01144666,0.2895983,0.8137526417135864,30.691334149326806
0,-0.0531311,0.06364441,0.9965515,1.0,-0.01325989,0.04423523,0.9989319,-27.40138,0.9758606,-23.73131,5.251404,0.3568862,0.4985596,1.0,-0.0934906,0.08322144,0.9921265,28.64661,4.263824,-22.33856,5.142105,0.6468973,0.3733665,0.04517198,1.186938,-0.2683107,-0.002942376,-0.02363724,0.01144666,0.2895983,0.8137526417135864,30.691334149326806
1,-0.101059,0.06549072,0.9927063,1.0,-0.0546875,0.02319336,0.99823,-27.91818,1.510941,-25.17271,4.762527,0.3794689,0.4970241,1.0,-0.1112366,0.07478333,0.9909668,28.54143,4.330963,-22.57802,4.787292,0.6537215,0.374029,0.0437063,1.187905,-0.2700088,-0.008106424,-0.02337957,0.01446211,0.2895983,0.8137526417135864,30.691334149326806
1,-0.101059,0.06549072,0.9927063,1.0,-0.0546875,0.02319336,0.99823,-27.91818,1.510941,-25.17271,4.762527,0.3794689,0.4970241,1.0,-0.1112366,0.07478333,0.9909668,28.54143,4.330963,-22.57802,4.787292,0.6537215,0.374029,0.0437063,1.187905,-0.2700088,-0.008106424,-0.02337957,0.01446211,0.2895983,0.8137526417135864,30.691334149326806
1,-0.101059,0.06549072,0.9927063,1.0,-0.0546875,0.02319336,0.99823,-27.91818,1.510941,-25.17271,4.762527,0.3794689,0.4970241,1.0,-0.1112366,0.07478333,0.9909668,28.54143,4.330963,-22.57802,4.787292,0.6537215,0.374029,0.0437063,1.187905,-0.2700088,-0.008106424,-0.02337957,0.01446211,0.2895983,0.8137526417135864,30.691334149326806
1,-0.101059,0.06549072,0.9927063,1.0,-0.0546875,0.02319336,0.99823,-27.91818,1.510941,-25.17271,4.762527,0.3794689,0.4970241,1.0,-0.1112366,0.07478333,0.9909668,28.54143,4.330963,-22.57802,4.787292,0.6537215,0.374029,0.0437063,1.187905,-0.2700088,-0.008106424,-0.02337957,0.01446211,0.2895983,0.8137526417135864,30.691334149326806
1,-0.101059,0.06549072,0.9927063,1.0,-0.0546875,0.02319336,0.99823,-27.91818,1.510941,-25.17271,4.762527,0.3794689,0.4970241,1.0,-0.1112366,0.07478333,0.9909668,28.54143,4.330963,-22.57802,4.787292,0.6537215,0.374029,0.0437063,1.187905,-0.2700088,-0.008106424,-0.02337957,0.01446211,0.2895983,0.8137526417135864,30.691334149326806
1,-0.101059,0.06549072,0.9927063,1.0,-0.0546875,0.02319336,0.99823,-27.91818,1.510941,-25.17271,4.762527,0.3794689,0.4970241,1.0,-0.1112366,0.07478333,0.9909668,28.54143,4.330963,-22.57802,4.787292,0.6537215,0.374029,0.0437063,1.187905,-0.2700088,-0.008106424,-0.02337957,0.01446211,0.2895983,0.8137526417135864,30.691334149326806
1,-0.06007385,0.1035156,0.9927979,1.0,-0.05049133,0.09283447,0.9943848,-27.68416,1.63916,-24.41479,4.636063,0.3718971,0.4747771,1.0,-0.08798218,0.1345673,0.9869843,28.56468,4.969467,-23.44054,4.710922,0.6506601,0.3498732,0.04380918,1.18803,-0.27,-0.008546665,-0.02269655,0.01410216,0.2895983,0.8137526417135864,30.691334149326806
1,-0.06007385,0.1035156,0.9927979,1.0,-0.05049133,0.09283447,0.9943848,-27.68416,1.63916,-24.41479,4.636063,0.3718971,0.4747771,1.0,-0.08798218,0.1345673,0.9869843,28.56468,4.969467,-23.44054,4.710922,0.6506601,0.3498732,0.04380918,1.18803,-0.27,-0.008546665,-0.02269655,0.01410216,0.2895983,0.8137526417135864,30.691334149326806
1,-0.04963684,0.0909729,0.9946136,1.0,-0.04960632,0.09094238,0.9946136,-27.68863,1.606491,-24.3056,4.618195,0.3719805,0.4751825,1.0,-0.08920288,0.1368713,0.986557,28.57234,4.963745,-23.47136,4.6828,0.6506552,0.3498954,0.04384768,1.18803,-0.2698886,-0.008696171,-0.02250236,0.014054,0.2895983,0.8137526417135864,30.691334149326806
1,-0.04963684,0.0909729,0.9946136,1.0,-0.04960632,0.09094238,0.9946136,-27.68863,1.606491,-24.3056,4.618195,0.3719805,0.4751825,1.0,-0.08920288,0.1368713,0.986557,28.57234,4.963745,-23.47136,4.6828,0.6506552,0.3498954,0.04384768,1.18803,-0.2698886,-0.008696171,-0.02250236,0.014054,0.2895983,0.8137526417135864,30.691334149326806
1,-0.04794312,0.09004211,0.9947815,1.0,-0.04692078,0.08894348,0.9949188,-27.68752,1.59433,-24.2803,4.591095,0.3715337,0.4756509,1.0,-0.08984375,0.1352386,0.9867249,28.57596,4.96225,-23.47203,4.653397,0.6506315,0.3502037,0.04395127,1.188082,-0.2698298,-0.008727814,-0.02247951,0.01417803,0.2895983,0.8137526417135864,30.691334149326806
1,-0.07049561,0.1161957,0.9907074,1.0,-0.04510498,0.09197998,0.9947357,-27.68489,1.589523,-24.33589,4.569717,0.3711176,0.4757696,1.0,-0.08738708,0.1322784,0.9873505,28.58051,4.957703,-23.48634,4.625351,0.6500738,0.3509232,0.04453599,1.187917,-0.2695661,-0.008720128,-0.0223662,0.01411958,0.2895983,0.8137526417135864,30.691334149326806
1,-0.07049561,0.1161957,0.9907074,1.0,-0.04510498,0.09197998,0.9947357,-27.68489,1.589523,-24.33589,4.569717,0.3711176,0.4757696,1.0,-0.08738708,0.1322784,0.9873505,28.58051,4.957703,-23.48634,4.625351,0.6500738,0.3509232,0.04453599,1.187917,-0.2695661,-0.008720128,-0.0223662,0.01411958,0.2895983,0.8137526417135864,30.691334149326806
1,-0.07014465,0.1155853,0.9908142,1.0,-0.04563904,0.09118652,0.9947815,-27.68134,1.588043,-24.39612,4.549072,0.3710405,0.4764407,1.0,-0.08557129,0.1309204,0.9876862,28.58641,4.95285,-23.49622,4.577942,0.6495776,0.3513592,0.04447222,1.187964,-0.2695282,-0.008766145,-0.02231417,0.01406036,0.2895983,0.8137526417135864,30.691334149326806
1,-0.0723877,0.1145477,0.9907684,1.0,-0.04649353,0.08679199,0.9951324,-27.675,1.586304,-24.39612,4.524857,0.3709702,0.4771889,1.0,-0.0867157,0.1298828,0.9877167,28.5948,4.950577,-23.48993,4.536102,0.6494692,0.3515224,0.04432225,1.188084,-0.2695765,-0.008843992,-0.02232686,0.01414805,0.2895983,0.8137526417135864,30.691334149326806
1,-0.07273865,0.1136169,0.9908447,1.0,-0.04664612,0.08424377,0.9953461,-27.66949,1.585358,-24.3653,4.502151,0.3708438,0.4773384,1.0,-0.08758545,0.1303253,0.9875793,28.60916,4.940552,-23.49155,4.503128,0.6491312,0.3517786,0.0442996,1.188121,-0.2696075,-0.008665273,-0.02234554,0.01410269,0.2895983,0.8137526417135864,30.691334149326806
1,-0.07273865,0.1136169,0.9908447,1.0,-0.04664612,0.08424377,0.9953461,-27.66949,1.585358,-24.3653,4.502151,0.3708438,0.4773384,1.0,-0.08758545,0.1303253,0.9875793,28.60916,4.940552,-23.49155,4.503128,0.6491312,0.3517786,0.0442996,1.188121,-0.2696075,-0.008665273,-0.02234554,0.01410269,0.2895983,0.8137526417135864,30.691334149326806
1,-0.07130432,0.1114044,0.9912109,1.0,-0.04658508,0.08474731,0.9953003,-27.66751,1.585327,-24.37744,4.497009,0.3707634,0.4773551,1.0,-0.08786011,0.1292419,0.9877014,28.61234,4.94014,-23.49995,4.495987,0.6490767,0.3520364,0.04422534,1.18807,-0.2697029,-0.008567562,-0.02229313,0.01398864,0.2895983,0.8137526417135864,30.691334149326806
1,-0.07130432,0.1114044,0.9912109,1.0,-0.04658508,0.08474731,0.9953003,-27.66751,1.585327,-24.37744,4.497009,0.3707634,0.4773551,1.0,-0.08786011,0.1292419,0.9877014,28.61234,4.94014,-23.49995,4.495987,0.6490767,0.3520364,0.04427958,1.1881,-0.2697628,-0.008322296,-0.02224763,0.01417909,0.2895983,0.8137526417135864,30.691334149326806
1,-0.07130432,0.1114044,0.9912109,1.0,-0.04658508,0.08474731,0.9953003,-27.66751,1.585327,-24.37744,4.497009,0.3707634,0.4773551,1.0,-0.08786011,0.1292419,0.9877014,28.61234,4.94014,-23.49995,4.495987,0.6490767,0.3520364,0.04427958,1.1881,-0.2697628,-0.008322296,-0.02224763,0.01417909,0.2895983,0.8137526417135864,30.691334149326806
1,-0.07130432,0.1114044,0.9912109,1.0,-0.04658508,0.08474731,0.9953003,-27.66751,1.585327,-24.37744,4.497009,0.3707634,0.4773551,1.0,-0.08786011,0.1292419,0.9877014,28.61234,4.94014,-23.49995,4.495987,0.6490767,0.3520364,0.04427958,1.1881,-0.2697628,-0.008322296,-0.02224763,0.01417909,0.2895983,0.8137526417135864,30.691334149326806
1,-0.06958008,0.1087189,0.9916229,1.0,-0.04647827,0.08502197,0.995285,-27.66542,1.584061,-24.37744,4.496582,0.3706766,0.4773551,1.0,-0.08784485,0.1274261,0.9879456,28.6156,4.934967,-23.50087,4.438065,0.6489522,0.3524699,0.04426718,1.188141,-0.2697723,-0.008270208,-0.02225365,0.01425769,0.2895983,0.8137526417135864,30.691334149326806
1,-0.0677948,0.1087036,0.991745,1.0,-0.04467773,0.09461975,0.9945068,-27.64307,1.630066,-24.5186,4.181671,0.3696449,0.475217,1.0,-0.08757019,0.1207275,0.9888,28.62856,4.977997,-23.63689,4.22789,0.6486331,0.3530369,0.0441817,1.188144,-0.2698967,-0.00845816,-0.02210754,0.01429474,0.2895983,0.8137526417135864,30.691334149326806
1,-0.0677948,0.1087036,0.991745,1.0,-0.04467773,0.09461975,0.9945068,-27.64307,1.630066,-24.5186,4.181671,0.3696449,0.475217,1.0,-0.08757019,0.1207275,0.9888,28.62856,4.977997,-23.63689,4.22789,0.6486331,0.3530369,0.0441817,1.188144,-0.2698967,-0.00845816,-0.02210754,0.01429474,0.2895983,0.8137526417135864,30.691334149326806
1,-0.06645203,0.1100311,0.9916992,1.0,-0.04315186,0.09216309,0.9947968,-27.64307,1.62381,-24.49464,4.181137,0.369409,0.4756104,1.0,-0.08815002,0.1266174,0.9880219,28.62952,4.97699,-23.60538,4.230286,0.6486824,0.351858,0.04419172,1.188076,-0.2699668,-0.008597945,-0.02205017,0.01431557,0.2895983,0.8137526417135864,30.691334149326806
1,-0.06208801,0.1088257,0.9921112,1.0,-0.0403595,0.09251404,0.9948883,-27.64091,1.623459,-24.49283,4.157135,0.3688895,0.4755169,1.0,-0.08691406,0.1274109,0.9880219,28.63025,4.977692,-23.60367,4.204361,0.6484474,0.3516779,0.04419577,1.188103,-0.2700031,-0.008676443,-0.02198215,0.01432442,0.2895983,0.8137526417135864,30.691334149326806
1,-0.06208801,0.1088257,0.9921112,1.0,-0.0403595,0.09251404,0.9948883,-27.64091,1.623459,-24.49283,4.157135,0.3688895,0.4755169,1.0,-0.08691406,0.1274109,0.9880219,28.63025,4.977692,-23.60367,4.204361,0.6484474,0.3516779,0.04419577,1.188103,-0.2700031,-0.008676443,-0.02198215,0.01432442,0.2895983,0.8137526417135864,30.691334149326806
1,-0.06227112,0.1090698,0.9920654,1.0,-0.04153442,0.09184265,0.9949036,-27.63805,1.625534,-24.48907,4.145264,0.3689958,0.4755169,1.0,-0.08580017,0.1285553,0.9879761,28.63222,4.978363,-23.59937,4.1698,0.6481917,0.3514099,0.04420078,1.188119,-0.270059,-0.008852413,-0.02184376,0.01441412,0.2895983,0.8137526417135864,30.691334149326806
1,-0.06419373,0.1098175,0.9918671,1.0,-0.04368591,0.09141541,0.9948425,-27.63356,1.628662,-24.48386,4.137238,0.3692053,0.4754383,1.0,-0.08518982,0.1286011,0.9880219,28.63525,4.97934,-23.59526,4.145905,0.6479776,0.3513125,0.04422879,1.188075,-0.2701187,-0.008890206,-0.0217573,0.01437738,0.2895983,0.8137526417135864,30.691334149326806
1,-0.06504822,0.1107483,0.9917145,1.0,-0.04466248,0.09146118,0.9947968,-27.62851,1.630234,-24.48386,4.126938,0.3692053,0.475374,1.0,-0.08552551,0.1300964,0.987793,28.63774,4.97934,-23.59259,4.142197,0.6479549,0.3510518,0.04474843,1.187983,-0.2699642,-0.0086876,-0.02154844,0.01437064,0.2895983,0.8137526417135864,30.691334149326806
1,-0.06504822,0.1107483,0.9917145,1.0,-0.04466248,0.09146118,0.9947968,-27.62851,1.630234,-24.48386,4.126938,0.3692053,0.475374,1.0,-0.08552551,0.1300964,0.987793,28.63774,4.97934,-23.59259,4.142197,0.6479549,0.3510518,0.04474843,1.187983,-0.2699642,-0.0086876,-0.02154844,0.01437064,0.2895983,0.8137526417135864,30.691334149326806
1,-0.06486511,0.1116028,0.9916229,1.0,-0.04490662,0.09185791,0.994751,-27.62605,1.630386,-24.48712,4.121567,0.369164,0.4753247,1.0,-0.08508301,0.1315613,0.9876404,28.63914,4.978745,-23.59003,4.138931,0.6478336,0.3508004,0.04476929,1.187961,-0.2699956,-0.008642889,-0.02147154,0.01434053,0.2895983,15.6696,30.691334149326806
1,-0.06385803,0.1118011,0.9916687,1.0,-0.04342651,0.09187317,0.994812,-27.6232,1.63382,-24.48839,4.119568,0.3688277,0.475217,1.0,-0.08499146,0.1323853,0.9875336,28.64148,4.97995,-23.57928,4.130844,0.6477288,0.3505425,0.04473519,1.18805,-0.2700547,-0.008591011,-0.0215076,0.01435611,0.2895983,15.6696,30.691334149326806
1,-0.06416321,0.1109772,0.991745,1.0,-0.04379272,0.09275818,0.9947205,-27.61275,1.641708,-24.48839,4.072571,0.3685627,0.4747617,1.0,-0.08682251,0.1311951,0.9875336,28.64908,4.98494,-23.54282,4.066589,0.6477262,0.3502461,0.04477262,1.188022,-0.2701025,-0.00863944,-0.02151037,0.01429578,0.2895983,15.6696,30.691334149326806
1,-0.06416321,0.1109772,0.991745,1.0,-0.04379272,0.09275818,0.9947205,-27.61275,1.641708,-24.48839,4.072571,0.3685627,0.4747617,1.0,-0.08682251,0.1311951,0.9875336,28.64908,4.98494,-23.54282,4.066589,0.6477262,0.3502461,0.04477262,1.188022,-0.2701025,-0.00863944,-0.02151037,0.01429578,0.2895983,15.6696,30.691334149326806
1,-0.06365967,0.1104736,0.9918365,1.0,-0.04582214,0.09553528,0.9943695,-27.59727,1.654221,-24.49268,4.051834,0.3683962,0.4739304,1.0,-0.08862305,0.1313171,0.9873657,28.65646,4.986877,-23.50548,4.038177,0.6477262,0.3498718,0.04460216,1.188134,-0.2701886,-0.008838936,-0.0213623,0.01427179,0.2895983,15.6696,30.691334149326806
1,-0.06584167,0.1112823,0.9915924,1.0,-0.04885864,0.09513855,0.9942627,-27.58896,1.696106,-24.55473,4.038086,0.3685847,0.4731574,1.0,-0.08958435,0.1338196,0.9869385,28.66162,4.991547,-23.50548,4.017075,0.6477262,0.3493004,0.04460216,1.188134,-0.2701886,-0.008838936,-0.0213623,0.01427179,0.2895983,15.6696,30.691334149326806
1,-0.06584167,0.1112823,0.9915924,1.0,-0.04885864,0.09513855,0.9942627,-27.58896,1.696106,-24.55473,4.038086,0.3685847,0.4731574,1.0,-0.08958435,0.1338196,0.9869385,28.66162,4.991547,-23.50548,4.017075,0.6477262,0.3493004,0.04460216,1.188134,-0.2701886,-0.008838936,-0.0213623,0.01427179,0.2895983,15.6696,30.691334149326806
1,-0.06936646,0.1137695,0.9910736,1.0,-0.04972839,0.09402466,0.9943237,-27.58533,1.720169,-24.61404,4.03006,0.3685627,0.4730618,1.0,-0.0901947,0.1346741,0.9867706,28.66487,4.998642,-23.50548,4.014786,0.6477262,0.3489247,0.04459846,1.188247,-0.2701236,-0.008903606,-0.02137312,0.01437945,0.2895983,15.6696,30.691334149326806
1,-0.07910156,0.1229401,0.9892426,1.0,-0.04986572,0.09538269,0.9941864,-27.58492,1.747971,-24.67082,3.997604,0.3685397,0.4723877,1.0,-0.09230042,0.1353455,0.9864807,28.66618,5.010712,-23.50548,3.978851,0.6480419,0.348389,0.04466224,1.188257,-0.2700531,-0.009060381,-0.02127353,0.01429474,0.2895983,15.6696,30.691334149326806
1,-0.08410645,0.1258545,0.9884644,1.0,-0.04795837,0.09384155,0.9944153,-27.5836,1.774506,-24.70775,3.932312,0.3681722,0.4720346,1.0,-0.0921936,0.1330109,0.9868011,28.66638,5.031906,-23.52605,3.958374,0.6480419,0.348217,0.0446229,1.188336,-0.2701293,-0.009138984,-0.02113862,0.01424985,0.2895983,15.6696,30.691334149326806
1,-0.08410645,0.1258545,0.9884644,1.0,-0.04795837,0.09384155,0.9944153,-27.5836,1.774506,-24.70775,3.932312,0.3681722,0.4720346,1.0,-0.0921936,0.1330109,0.9868011,28.66638,5.031906,-23.52605,3.958374,0.6480419,0.348217,0.0446229,1.188336,-0.2701293,-0.009138984,-0.02113862,0.01424985,0.2895983,15.6696,30.691334149326806
1,-0.08210754,0.1244507,0.9888153,1.0,-0.04647827,0.09516907,0.9943695,-27.58318,1.794388,-24.70775,3.902664,0.3679287,0.4711398,1.0,-0.09263611,0.1330872,0.9867554,28.66922,5.043732,-23.53525,3.950729,0.6480419,0.3478689,0.04447663,1.188252,-0.2702506,-0.009387517,-0.02123813,0.01439602,0.2895983,15.6696,30.691334149326806
1,-0.08210754,0.1244507,0.9888153,1.0,-0.04647827,0.09516907,0.9943695,-27.58318,1.794388,-24.70775,3.902664,0.3679287,0.4711398,1.0,-0.09263611,0.1330872,0.9867554,28.66922,5.043732,-23.53525,3.950729,0.6480419,0.3478689,0.04447663,1.188252,-0.2702506,-0.009387517,-0.02123813,0.01439602,0.2895983,15.6696,30.691334149326806
1,-0.06843567,0.1203461,0.9903564,1.0,-0.04490662,0.1023407,0.9937286,-27.57599,1.794388,-24.70775,3.881058,0.3674536,0.4699396,1.0,-0.09132385,0.1377869,0.9862366,28.67427,5.068878,-23.57404,3.906158,0.6477307,0.3465165,0.0444566,1.188348,-0.2702546,-0.009446067,-0.02130328,0.01445593,0.2895983,15.6696,30.691334149326806
1,-0.06843567,0.1203461,0.9903564,1.0,-0.04490662,0.1023407,0.9937286,-27.57599,1.794388,-24.70775,3.881058,0.3674536,0.4699396,1.0,-0.09132385,0.1377869,0.9862366,28.67427,5.068878,-23.57404,3.906158,0.6477307,0.3465165,0.0444566,1.188348,-0.2702546,-0.009446067,-0.02130328,0.01445593,0.2895983,15.6696,30.691334149326806
1,-0.06547546,0.1178741,0.99086,1.0,-0.04455566,0.1016083,0.9938202,-27.56905,1.794388,-24.69228,3.859528,0.3671844,0.4699036,1.0,-0.09243774,0.1387634,0.9859924,28.68211,5.092819,-23.59236,3.902451,0.6476982,0.3457049,0.04435289,1.188296,-0.2703943,-0.009468912,-0.02133648,0.01443375,0.2895983,15.6696,30.691334149326806
1,-0.06547546,0.1178741,0.99086,1.0,-0.04455566,0.1016083,0.9938202,-27.56905,1.794388,-24.69228,3.859528,0.3671844,0.4699036,1.0,-0.09243774,0.1387634,0.9859924,28.68211,5.092819,-23.59236,3.902451,0.6476982,0.3457049,0.04435289,1.188296,-0.2703943,-0.009468912,-0.02133648,0.01443375,0.2895983,15.6696,30.691334149326806
1,-0.06445313,0.1190033,0.9907837,1.0,-0.03826904,0.1006775,0.9941711,-27.56277,1.792572,-24.61916,3.798187,0.3660194,0.4694027,1.0,-0.09115601,0.1375885,0.9862823,28.69266,5.110443,-23.61978,3.87825,0.64717,0.3455033,0.0443542,1.188232,-0.2704462,-0.009642782,-0.02129488,0.01448065,0.2895983,-16.08794,30.691334149326806
1,-0.06445313,0.1190033,0.9907837,1.0,-0.03826904,0.1006775,0.9941711,-27.56277,1.792572,-24.61916,3.798187,0.3660194,0.4694027,1.0,-0.09115601,0.1375885,0.9862823,28.69266,5.110443,-23.61978,3.87825,0.64717,0.3455033,0.0443542,1.188232,-0.2704462,-0.009642782,-0.02129488,0.01448065,0.2895983,-16.08794,30.691334149326806
1,-0.068573,0.1237946,0.9899292,1.0,-0.04089355,0.1026459,0.993866,-27.5423,1.779251,-24.59093,3.760559,0.3658167,0.4692455,1.0,-0.08882141,0.1392365,0.9862518,28.69756,5.122925,-23.66077,3.855881,0.6466799,0.3451036,0.04432034,1.188233,-0.2704591,-0.009608726,-0.02131587,0.01449916,0.2895983,-16.08794,30.691334149326806
1,-0.068573,0.1237946,0.9899292,1.0,-0.04089355,0.1026459,0.993866,-27.5423,1.779251,-24.59093,3.760559,0.3658167,0.4692455,1.0,-0.08882141,0.1392365,0.9862518,28.69756,5.122925,-23.66077,3.855881,0.6466799,0.3451036,0.04432034,1.188233,-0.2704591,-0.009608726,-0.02131587,0.01449916,0.2895983,-16.08794,30.691334149326806
1,-0.06759644,0.1250153,0.9898376,1.0,-0.0397644,0.1026764,0.9939117,-27.53325,1.774567,-24.5659,3.732056,0.3653632,0.4691477,1.0,-0.08824158,0.1415405,0.9859772,28.69891,5.124832,-23.67055,3.817795,0.6465576,0.3447005,0.04440165,1.188236,-0.2704445,-0.00946655,-0.0211777,0.01433274,0.2895983,-16.08794,30.691334149326806
1,-0.06759644,0.1250153,0.9898376,1.0,-0.0397644,0.1026764,0.9939117,-27.53325,1.774567,-24.5659,3.732056,0.3653632,0.4691477,1.0,-0.08824158,0.1415405,0.9859772,28.69891,5.124832,-23.67055,3.817795,0.6465576,0.3447005,0.04440165,1.188236,-0.2704445,-0.00946655,-0.0211777,0.01433274,0.2895983,-16.08794,30.691334149326806
1,-0.06634521,0.1227722,0.9902039,1.0,-0.03625488,0.1012726,0.9941864,-27.52716,1.766983,-24.48358,3.694351,0.3646604,0.4688702,1.0,-0.08903503,0.1389008,0.9862823,28.70477,5.142609,-23.67232,3.786133,0.6464928,0.3445443,0.04445076,1.188152,-0.2704821,-0.009287778,-0.0210581,0.01430099,0.2895983,-16.08794,30.691334149326806
1,-0.06634521,0.1227722,0.9902039,1.0,-0.03625488,0.1012726,0.9941864,-27.52716,1.766983,-24.48358,3.694351,0.3646604,0.4688702,1.0,-0.08903503,0.1389008,0.9862823,28.70477,5.142609,-23.67232,3.786133,0.6464928,0.3445443,0.04445076,1.188152,-0.2704821,-0.009287778,-0.0210581,0.01430099,0.2895983,-16.08794,30.691334149326806
1,-0.07305908,0.1264038,0.9892731,1.0,-0.03463745,0.106842,0.9936676,-27.4604,1.688385,-24.354,3.573318,0.3623454,0.4692648,1.0,-0.09031677,0.1351318,0.9866943,28.71545,5.166382,-23.6879,3.772614,0.6463713,0.344494,0.04443824,1.188132,-0.2705592,-0.009143874,-0.02103615,0.01446469,0.2895983,-16.08794,30.691334149326806
1,-0.07305908,0.1264038,0.9892731,1.0,-0.03463745,0.106842,0.9936676,-27.4604,1.688385,-24.354,3.573318,0.3623454,0.4692648,1.0,-0.09031677,0.1351318,0.9866943,28.71545,5.166382,-23.6879,3.772614,0.6463713,0.344494,0.04443824,1.188132,-0.2705592,-0.009143874,-0.02103615,0.01446469,0.2895983,-16.08794,30.691334149326806
1,-0.03863525,0.08602905,0.9955292,1.0,0.01470947,0.06681824,0.9976501,-27.00346,1.405914,-24.46179,3.612564,0.3389527,0.4857255,1.0,-0.04696655,0.08900452,0.9949188,29.09883,4.796906,-23.45622,3.609756,0.6257648,0.3624379,0.04443574,1.188083,-0.2706385,-0.009087477,-0.02104642,0.01462298,0.2895983,-16.08794,30.691334149326806
1,-0.03863525,0.08602905,0.9955292,1.0,0.01470947,0.06681824,0.9976501,-27.00346,1.405914,-24.46179,3.612564,0.3389527,0.4857255,1.0,-0.04696655,0.08900452,0.9949188,29.09883,4.796906,-23.45622,3.609756,0.6257648,0.3624379,0.04443574,1.188083,-0.2706385,-0.009087477,-0.02104642,0.01462298,0.2895983,-16.08794,30.691334149326806
1,-0.01795959,0.05941772,0.9980621,1.0,0.02127075,0.04275513,0.9988556,-26.71053,1.230972,-24.32549,3.634048,0.3283755,0.4941199,1.0,-0.02592468,0.06278992,0.9976807,29.36,4.68573,-23.56372,3.561829,0.6136519,0.3712095,0.04455531,1.188105,-0.2706003,-0.00918939,-0.02115271,0.01449248,0.2895983,-16.08794,30.691334149326806
1,-0.01795959,0.05941772,0.9980621,1.0,0.02127075,0.04275513,0.9988556,-26.71053,1.230972,-24.32549,3.634048,0.3283755,0.4941199,1.0,-0.02592468,0.06278992,0.9976807,29.36,4.68573,-23.56372,3.561829,0.6136519,0.3712095,0.04455531,1.188105,-0.2706003,-0.00918939,-0.02115271,0.01449248,0.2895983,-16.08794,30.691334149326806
1,-0.02531433,0.05848694,0.9979553,1.0,0.02371216,0.04338074,0.998764,-26.72214,1.221725,-24.28763,3.63092,0.3283971,0.4939842,1.0,-0.02804565,0.05932617,0.9978333,29.36623,4.683502,-23.56554,3.627228,0.6138085,0.3719105,0.04448843,1.188169,-0.2705721,-0.009376399,-0.0212276,0.01435663,0.2895983,-47.29961,30.691334149326806
1,-0.02531433,0.05848694,0.9979553,1.0,0.02371216,0.04338074,0.998764,-26.72214,1.221725,-24.28763,3.63092,0.3283971,0.4939842,1.0,-0.02804565,0.05932617,0.9978333,29.36623,4.683502,-23.56554,3.627228,0.6138085,0.3719105,0.04448843,1.188169,-0.2705721,-0.009376399,-0.0212276,0.01435663,0.2895983,-47.29961,30.691334149326806
1,-0.02432251,0.05751038,0.9980469,1.0,0.02388,0.04382324,0.9987488,-26.72308,1.220551,-24.27338,3.62532,0.3284193,0.4938278,1.0,-0.0256958,0.05789185,0.9979858,29.36879,4.680603,-23.56316,3.619644,0.6133238,0.3722091,0.04448223,1.188148,-0.2706206,-0.009513657,-0.02110581,0.01417068,0.2895983,-47.29961,30.691334149326806
1,-0.02432251,0.05751038,0.9980469,1.0,0.02388,0.04382324,0.9987488,-26.72308,1.220551,-24.27338,3.62532,0.3284193,0.4938278,1.0,-0.0256958,0.05789185,0.9979858,29.36879,4.680603,-23.56316,3.619644,0.6133238,0.3722091,0.04448223,1.188148,-0.2706206,-0.009513657,-0.02110581,0.01417068,0.2895983,-47.29961,30.691334149326806
1,-0.0007476807,0.05024719,0.9987335,1.0,0.02409363,0.04411316,0.9987335,-26.72386,1.217834,-24.26584,3.627686,0.3284186,0.4938061,1.0,-0.02435303,0.05606079,0.9981232,29.37828,4.681259,-23.54875,3.617111,0.6127715,0.3723782,0.04451132,1.188083,-0.270763,-0.009370039,-0.02092002,0.01408524,0.2895983,-47.29961,30.691334149326806
1,-0.0007476807,0.05024719,0.9987335,1.0,0.02409363,0.04411316,0.9987335,-26.72386,1.217834,-24.26584,3.627686,0.3284186,0.4938061,1.0,-0.02435303,0.05606079,0.9981232,29.37828,4.681259,-23.54875,3.617111,0.6127715,0.3723782,0.04451132,1.188083,-0.270763,-0.009370039,-0.02092002,0.01408524,0.2895983,-47.29961,30.691334149326806
1,-0.001327515,0.05073547,0.998703,1.0,0.02485657,0.04388428,0.9987183,-26.7263,1.212891,-24.2392,3.626373,0.3284026,0.4937676,1.0,-0.02610779,0.05715942,0.9980164,29.39046,4.684921,-23.54515,3.611786,0.6126561,0.3720494,0.04460371,1.188102,-0.2708089,-0.009148761,-0.02064649,0.01397425,0.2895983,-47.29961,30.691334149326806
1,-0.001327515,0.05073547,0.998703,1.0,0.02485657,0.04388428,0.9987183,-26.7263,1.212891,-24.2392,3.626373,0.3284026,0.4937676,1.0,-0.02610779,0.05715942,0.9980164,29.39046,4.684921,-23.54515,3.611786,0.6126561,0.3720494,0.04460371,1.188102,-0.2708089,-0.009148761,-0.02064649,0.01397425,0.2895983,-47.29961,30.691334149326806
1,-0.002944946,0.05007935,0.9987335,1.0,0.02554321,0.04379272,0.998703,-26.72737,1.209839,-24.1969,3.630066,0.3283755,0.4935171,1.0,-0.02703857,0.05537415,0.9980927,29.40262,4.691299,-23.53067,3.617386,0.6123948,0.372029,0.04459846,1.188064,-0.2708073,-0.009200733,-0.02042153,0.01388224,0.2895983,-47.29961,30.691334149326806
1,-0.002944946,0.05007935,0.9987335,1.0,0.02554321,0.04379272,0.998703,-26.72737,1.209839,-24.1969,3.630066,0.3283755,0.4935171,1.0,-0.02703857,0.05537415,0.9980927,29.40262,4.691299,-23.53067,3.617386,0.6123948,0.372029,0.04459846,1.188064,-0.2708073,-0.009200733,-0.02042153,0.01388224,0.2895983,-47.29961,30.691334149326806
1,-0.00491333,0.05126953,0.9986572,1.0,0.0269165,0.04542542,0.9985962,-26.72748,1.207123,-24.16901,3.631226,0.3281863,0.4930948,1.0,-0.02905273,0.05566406,0.9980164,29.42096,4.700562,-23.52394,3.623093,0.6121191,0.3716319,0.04461324,1.187985,-0.2708688,-0.009282963,-0.02049073,0.01416384,0.2895983,-47.29961,30.691334149326806
1,-0.00491333,0.05126953,0.9986572,1.0,0.0269165,0.04542542,0.9985962,-26.72748,1.207123,-24.16901,3.631226,0.3281863,0.4930948,1.0,-0.02905273,0.05566406,0.9980164,29.42096,4.700562,-23.52394,3.623093,0.6121191,0.3716319,0.04461324,1.187985,-0.2708688,-0.009282963,-0.02049073,0.01416384,0.2895983,-47.29961,30.691334149326806
1,-0.00491333,0.05126953,0.9986572,1.0,0.0269165,0.04542542,0.9985962,-26.72748,1.207123,-24.16901,3.631226,0.3281863,0.4930948,1.0,-0.02905273,0.05566406,0.9980164,29.42096,4.700562,-23.52394,3.623093,0.6121191,0.3716319,0.04471552,1.187988,-0.270812,-0.00932141,-0.02039451,0.01426239,0.2895983,-47.29961,30.691334149326806
1,-0.00491333,0.05126953,0.9986572,1.0,0.0269165,0.04542542,0.9985962,-26.72748,1.207123,-24.16901,3.631226,0.3281863,0.4930948,1.0,-0.02905273,0.05566406,0.9980164,29.42096,4.700562,-23.52394,3.623093,0.6121191,0.3716319,0.04471552,1.187988,-0.270812,-0.00932141,-0.02039451,0.01426239,0.2895983,-47.29961,30.691334149326806
1,-0.00491333,0.05126953,0.9986572,1.0,0.0269165,0.04542542,0.9985962,-26.72748,1.207123,-24.16901,3.631226,0.3281863,0.4930948,1.0,-0.02905273,0.05566406,0.9980164,29.42096,4.700562,-23.52394,3.623093,0.6121191,0.3716319,0.04473448,1.187976,-0.2707937,-0.009176408,-0.02040912,0.01417436,0.2895983,-47.29961,30.691334149326806
1,-0.00491333,0.05126953,0.9986572,1.0,0.0269165,0.04542542,0.9985962,-26.72748,1.207123,-24.16901,3.631226,0.3281863,0.4930948,1.0,-0.02905273,0.05566406,0.9980164,29.42096,4.700562,-23.52394,3.623093,0.6121191,0.3716319,0.04473448,1.187976,-0.2707937,-0.009176408,-0.02040912,0.01417436,0.2895983,-47.29961,30.691334149326806
1,-0.004348755,0.05931091,0.9982147,1.0,0.03234863,0.05705261,0.9978333,-26.68465,1.19455,-23.97026,3.740738,0.3261096,0.4899393,1.0,-0.02255249,0.06039429,0.9979095,29.51466,4.78537,-23.56645,3.667816,0.6080186,0.3684103,0.0447098,1.187961,-0.2708397,-0.009135722,-0.02050164,0.01395077,0.2895983,38.63316,31.33
1,-0.004348755,0.05931091,0.9982147,1.0,0.03234863,0.05705261,0.9978333,-26.68465,1.19455,-23.97026,3.740738,0.3261096,0.4899393,1.0,-0.02255249,0.06039429,0.9979095,29.51466,4.78537,-23.56645,3.667816,0.6080186,0.3684103,0.0447098,1.187961,-0.2708397,-0.009135722,-0.02050164,0.01395077,0.2895983,38.63316,31.33
1,-0.01483154,0.05918884,0.9981232,1.0,0.02781677,0.06082153,0.997757,-26.66905,1.19725,-23.96458,3.776886,0.3263622,0.4892203,1.0,-0.02200317,0.05891418,0.9980164,29.53432,4.796936,-23.56914,3.701523,0.6072891,0.368313,0.04475331,1.187925,-0.2708859,-0.008988554,-0.02058252,0.01398864,0.2895983,38.63316,31.33
1,-0.01483154,0.05918884,0.9981232,1.0,0.02781677,0.06082153,0.997757,-26.66905,1.19725,-23.96458,3.776886,0.3263622,0.4892203,1.0,-0.02200317,0.05891418,0.9980164,29.53432,4.796936,-23.56914,3.701523,0.6072891,0.368313,0.04475331,1.187925,-0.2708859,-0.008988554,-0.02058252,0.01398864,0.2895983,38.63316,31.33
1,-0.0118866,0.06037903,0.9980927,1.0,0.03044128,0.05970764,0.9977417,-26.66026,1.195618,-23.91919,3.776978,0.3256939,0.4890624,1.0,-0.02284241,0.06053162,0.9978943,29.54794,4.800583,-23.55666,3.689255,0.6069674,0.3678254,0.04474795,1.187923,-0.2709054,-0.008982751,-0.02065515,0.01399769,0.2895983,38.63316,31.33
1,0.005157471,0.0597229,0.9981995,1.0,0.03375244,0.05661011,0.997818,-26.73607,1.244095,-24.04941,3.832153,0.3274868,0.4891964,1.0,-0.01570129,0.06196594,0.9979401,29.51712,4.786774,-23.43657,3.735626,0.6066903,0.3671179,0.04479921,1.187971,-0.2708848,-0.008807693,-0.02065046,0.01404498,0.2895983,38.63316,31.33
1,0.005157471,0.0597229,0.9981995,1.0,0.03375244,0.05661011,0.997818,-26.73607,1.244095,-24.04941,3.832153,0.3274868,0.4891964,1.0,-0.01570129,0.06196594,0.9979401,29.51712,4.786774,-23.43657,3.735626,0.6066903,0.3671179,0.04479921,1.187971,-0.2708848,-0.008807693,-0.02065046,0.01404498,0.2895983,38.63316,31.33
1,-0.0997467,0.1051941,0.9894257,1.0,-0.04394531,0.0657196,0.9968567,-27.68794,1.696548,-24.58897,3.718765,0.3710223,0.4779653,1.0,-0.1000824,0.105423,0.9893646,28.53801,4.956696,-23.36366,3.755814,0.65325,0.3539262,0.04485273,1.187969,-0.2708511,-0.008963653,-0.02069947,0.01393742,0.2895983,38.63316,31.33
1,-0.1138,0.1199188,0.9862366,1.0,-0.04866028,0.07402039,0.9960632,-27.83696,1.758667,-24.60068,3.785965,0.3766816,0.4748027,1.0,-0.1139374,0.1200104,0.9862061,28.34149,4.992462,-23.2836,3.843506,0.6621233,0.3497291,0.0447793,1.187999,-0.2707802,-0.009049685,-0.02068002,0.0139481,0.2895983,38.63316,31.33
1,-0.1138,0.1199188,0.9862366,1.0,-0.04866028,0.07402039,0.9960632,-27.83696,1.758667,-24.60068,3.785965,0.3766816,0.4748027,1.0,-0.1139374,0.1200104,0.9862061,28.34149,4.992462,-23.2836,3.843506,0.6621233,0.3497291,0.0447793,1.187999,-0.2707802,-0.009049685,-0.02068002,0.0139481,0.2895983,38.63316,31.33
1,-0.1118774,0.12677,0.9855957,1.0,-0.04618835,0.07356262,0.9962158,-27.80965,1.778702,-24.63466,3.829285,0.3753473,0.4745365,1.0,-0.111908,0.1268005,0.9855804,28.30986,5.020599,-23.38597,3.777725,0.6630162,0.3483926,0.04478848,1.187956,-0.2706757,-0.009153645,-0.02071494,0.01405718,0.2895983,38.63316,31.33
1,-0.1121979,0.1242828,0.9858704,1.0,-0.04548645,0.07470703,0.9961548,-27.79965,1.768463,-24.61748,3.830307,0.3749171,0.4745365,1.0,-0.1127014,0.1246643,0.9857635,28.34044,4.943039,-23.15392,3.865967,0.66175,0.3496267,0.04477751,1.187948,-0.2706409,-0.009221764,-0.02068326,0.01421739,0.2895983,38.63316,31.33
1,-0.07069397,0.09651184,0.9928131,1.0,-0.04524231,0.07585144,0.9960785,-27.7562,1.716614,-24.44351,3.892242,0.3735657,0.4745834,1.0,-0.1086578,0.1272278,0.9859009,28.37044,4.912949,-23.02463,3.853668,0.6598607,0.3492328,0.04479587,1.187948,-0.2706056,-0.009160968,-0.02064685,0.01415174,0.2895983,38.63316,31.33
1,-0.06350708,0.08583069,0.994278,1.0,-0.0491333,0.07234192,0.9961548,-27.74205,1.703125,-24.40636,3.906693,0.373761,0.4752926,1.0,-0.1059113,0.1256104,0.9864044,28.37704,4.917023,-23.04254,3.85141,0.6591969,0.3495023,0.04483807,1.18798,-0.2705562,-0.009105496,-0.02041313,0.01387956,0.2895983,38.63316,31.33
1,-0.06350708,0.08583069,0.994278,1.0,-0.0491333,0.07234192,0.9961548,-27.74205,1.703125,-24.40636,3.906693,0.373761,0.4752926,1.0,-0.1059113,0.1256104,0.9864044,28.37704,4.917023,-23.04254,3.85141,0.6591969,0.3495023,0.04483807,1.18798,-0.2705562,-0.009105496,-0.02041313,0.01387956,0.2895983,38.63316,31.33
1,-0.06550598,0.09321594,0.9934845,1.0,-0.04792786,0.07737732,0.9958344,-27.72969,1.694443,-24.38518,3.915085,0.3731809,0.4745722,1.0,-0.1016235,0.1257324,0.9868317,28.39226,4.929001,-23.09532,3.870529,0.6580532,0.3494885,0.04485905,1.18797,-0.270519,-0.009110404,-0.02031728,0.0138344,0.2895983,23.94478,31.33
2,-0.08380127,0.1100922,0.9903717,1.0,-0.04960632,0.07775879,0.9957275,-27.72095,1.689331,-24.37331,3.915527,0.3731774,0.4745722,1.0,-0.1014862,0.1267853,0.9867096,28.41043,4.948135,-23.17276,3.862991,0.6575503,0.3492634,0.04488409,1.187963,-0.2704911,-0.009102223,-0.02019295,0.01384947,0.2895983,23.94478,31.33
2,-0.07118225,0.1006165,0.9923706,1.0,-0.04850769,0.07841492,0.9957275,-27.71147,1.687607,-24.37331,3.920334,0.3726871,0.4745203,1.0,-0.09568787,0.1245575,0.9875793,28.50316,4.979477,-23.30147,3.720642,0.6536688,0.3494783,0.04489267,1.187938,-0.2704753,-0.009132459,-0.01987873,0.01375933,0.2895983,23.94478,31.33
2,-0.07118225,0.1006165,0.9923706,1.0,-0.04850769,0.07841492,0.9957275,-27.71147,1.687607,-24.37331,3.920334,0.3726871,0.4745203,1.0,-0.09568787,0.1245575,0.9875793,28.50316,4.979477,-23.30147,3.720642,0.6536688,0.3494783,0.04489267,1.187938,-0.2704753,-0.009132459,-0.01987873,0.01375933,0.2895983,23.94478,31.33
2,-0.04573059,0.07870483,0.9958344,1.0,-0.04573059,0.07868958,0.9958344,-27.70538,1.685928,-24.37331,3.923477,0.3720345,0.4745203,1.0,-0.1172791,0.1309967,0.9844055,28.64337,5.201889,-24.31474,3.883606,0.6542354,0.3488749,0.0449239,1.187945,-0.2704415,-0.009076812,-0.01978255,0.01368985,0.2895983,23.94478,31.33
2,-0.04408264,0.07888794,0.9958954,1.0,-0.04408264,0.07888794,0.9958954,-27.70103,1.686768,-24.37346,3.921616,0.3716208,0.4744614,1.0,-0.1174011,0.1316071,0.984314,28.65625,5.211365,-24.36446,3.835983,0.6538998,0.3488127,0.04498839,1.187906,-0.2704669,-0.009158528,-0.01970935,0.01369094,0.2895983,23.94478,31.33
2,-0.04115295,0.0785675,0.996048,1.0,-0.04115295,0.0785675,0.996048,-27.69084,1.688477,-24.37598,3.920746,0.3708071,0.4744614,1.0,-0.1146851,0.1311798,0.9846954,28.67769,5.21582,-24.37758,3.835236,0.6527429,0.3488127,0.04498875,1.187879,-0.2704923,-0.009114493,-0.01945672,0.01367569,0.2895983,23.94478,31.33
2,-0.03990173,0.07891846,0.9960785,1.0,-0.03990173,0.07891846,0.9960785,-27.685,1.689331,-24.37833,3.922699,0.370407,0.4744023,1.0,-0.1153107,0.1309814,0.9846497,28.68742,5.221634,-24.39847,3.83812,0.6525511,0.3488232,0.04505563,1.187876,-0.2704889,-0.009141428,-0.01920116,0.01341552,0.2895983,23.94478,31.33
2,-0.03990173,0.07891846,0.9960785,1.0,-0.03990173,0.07891846,0.9960785,-27.685,1.689331,-24.37833,3.922699,0.370407,0.4744023,1.0,-0.1153107,0.1309814,0.9846497,28.68742,5.221634,-24.39847,3.83812,0.6525511,0.3488232,0.04505563,1.187876,-0.2704889,-0.009141428,-0.01920116,0.01341552,0.2895983,23.94478,31.33
2,-0.0382843,0.07937622,0.9960938,1.0,-0.03826904,0.07937622,0.9960938,-27.66971,1.689865,-24.38518,3.925262,0.3696357,0.4743636,1.0,-0.1121826,0.1309814,0.9850006,28.68742,5.221634,-24.39847,3.874191,0.652028,0.3488232,0.04511929,1.187864,-0.2705115,-0.0092064,-0.01900067,0.01329166,0.2895983,23.94478,31.33
2,-0.0677948,0.1029358,0.9923706,1.0,-0.0390625,0.08177185,0.9958801,-27.63864,1.689865,-24.39525,3.950256,0.3687372,0.4740762,1.0,-0.1073761,0.131958,0.9854126,28.67587,5.213593,-24.37102,3.913422,0.6515596,0.3487434,0.04515362,1.187847,-0.270528,-0.00925805,-0.01890632,0.01324224,0.2895983,23.94478,31.33
2,-0.06898499,0.1061554,0.9919434,1.0,-0.03477478,0.08232117,0.9959869,-27.62317,1.694153,-24.41826,3.949356,0.367512,0.4740279,1.0,-0.1069794,0.1325073,0.9853821,28.67769,5.211365,-24.36446,3.909454,0.6514227,0.3486742,0.04521751,1.187897,-0.2705415,-0.00920802,-0.01887872,0.01334871,0.2895983,23.94478,31.33
2,-0.06428528,0.1051178,0.9923706,1.0,-0.03614807,0.08276367,0.9959106,-27.59457,1.694656,-24.41895,3.949417,0.3668,0.4739424,1.0,-0.09893799,0.1325531,0.9862213,28.68134,5.192429,-24.26503,3.922256,0.649793,0.3485238,0.04529166,1.187943,-0.27055,-0.009318211,-0.01887832,0.01331574,0.2895983,23.94478,31.33
2,-0.06428528,0.1051178,0.9923706,1.0,-0.03614807,0.08276367,0.9959106,-27.59457,1.694656,-24.41895,3.949417,0.3668,0.4739424,1.0,-0.09893799,0.1325531,0.9862213,28.68134,5.192429,-24.26503,3.922256,0.649793,0.3485238,0.04529166,1.187943,-0.27055,-0.009318211,-0.01887832,0.01331574,0.2895983,23.94478,31.33
2,-0.02841187,0.08436584,0.9960175,1.0,-0.02784729,0.08406067,0.9960632,-27.56956,1.694656,-24.42206,3.952835,0.3646183,0.4737251,1.0,-0.1039886,0.1255493,0.986618,28.68726,5.076309,-23.56866,3.954681,0.6494387,0.3482453,0.04524767,1.187991,-0.2705874,-0.009258854,-0.01890593,0.01332804,0.2895983,23.94478,31.33
2,-0.0269165,0.08496094,0.9960175,1.0,-0.02687073,0.08494568,0.9960175,-27.56244,1.694656,-24.42285,3.958237,0.3642241,0.4735941,1.0,-0.1045227,0.1260681,0.986496,28.69102,5.074615,-23.55775,3.959274,0.649335,0.348216,0.04519629,1.187946,-0.2706578,-0.009309412,-0.01890317,0.01320167,0.2895983,-18.12726,31.33
2,-0.0269165,0.08496094,0.9960175,1.0,-0.02687073,0.08494568,0.9960175,-27.56244,1.694656,-24.42285,3.958237,0.3642241,0.4735941,1.0,-0.1045227,0.1260681,0.986496,28.69102,5.074615,-23.55775,3.959274,0.649335,0.348216,0.04519629,1.187946,-0.2706578,-0.009309412,-0.01890317,0.01320167,0.2895983,-18.12726,31.33
2,-0.02377319,0.08605957,0.9960022,1.0,-0.02377319,0.08604431,0.9960022,-27.54387,1.694656,-24.44376,3.968689,0.3630888,0.4735929,1.0,-0.1002502,0.1293793,0.9865112,28.69102,5.070419,-23.53725,3.970062,0.648599,0.3476442,0.0452143,1.187994,-0.2707131,-0.00934137,-0.01897477,0.01294291,0.2895983,-18.12726,31.33
2,-0.02410889,0.08648682,0.9959564,1.0,-0.02409363,0.08648682,0.9959564,-27.53168,1.693802,-24.44376,3.976456,0.3627401,0.4735478,1.0,-0.09376526,0.1284027,0.9872742,28.68726,5.070419,-23.5061,4.003067,0.6475879,0.3475779,0.04522789,1.188039,-0.2707684,-0.009508956,-0.01910157,0.01299691,0.2870355,-18.12726,31.33
2,-0.03053284,0.09066772,0.9954071,1.0,-0.02973938,0.09016418,0.9954681,-27.50208,1.693802,-24.45804,4.025452,0.3626764,0.4731271,1.0,-0.09268188,0.1293335,0.9872437,28.68457,5.070419,-23.50121,4.020355,0.6474953,0.3474025,0.04522789,1.188039,-0.2707684,-0.009508956,-0.01910157,0.01299691,0.2870355,-18.12726,31.33
2,-0.05938721,0.1089172,0.9922638,1.0,-0.02981567,0.09077454,0.9954224,-27.50208,1.693802,-24.46806,4.048477,0.3626764,0.4731271,1.0,-0.09301758,0.129425,0.9872131,28.68625,5.070419,-23.50121,4.0327,0.6474953,0.3474025,0.04523945,1.188092,-0.2708095,-0.00958932,-0.01938306,0.01310708,0.2870355,-18.12726,31.33
2,-0.06106567,0.1108093,0.9919586,1.0,-0.02990723,0.09269714,0.9952393,-27.50208,1.693802,-24.4866,4.055313,0.3626764,0.4729866,1.0,-0.09321594,0.1293945,0.9871979,28.68726,5.070419,-23.50121,4.032486,0.6474953,0.3474025,0.04519057,1.188114,-0.2708781,-0.00983405,-0.0195686,0.01299117,0.2870355,-18.12726,31.33
2,-0.06106567,0.1108093,0.9919586,1.0,-0.02990723,0.09269714,0.9952393,-27.50208,1.693802,-24.4866,4.055313,0.3626764,0.4729866,1.0,-0.09321594,0.1293945,0.9871979,28.68726,5.070419,-23.50121,4.032486,0.6474953,0.3474025,0.04519057,1.188114,-0.2708781,-0.00983405,-0.0195686,0.01299117,0.2870355,-18.12726,31.33
2,-0.0657196,0.1126862,0.9914398,1.0,-0.03094482,0.09472656,0.9950104,-27.50208,1.693802,-24.52309,4.066086,0.3628123,0.4729866,1.0,-0.0944519,0.1274414,0.9873352,28.69102,5.079041,-23.50121,4.044724,0.6475749,0.3474495,0.04516375,1.188122,-0.2709523,-0.009945547,-0.01981679,0.01284583,0.2870355,-18.12726,31.33
2,-0.0657196,0.1126862,0.9914398,1.0,-0.03094482,0.09472656,0.9950104,-27.50208,1.693802,-24.52309,4.066086,0.3628123,0.4729866,1.0,-0.0944519,0.1274414,0.9873352,28.69102,5.079041,-23.50121,4.044724,0.6475749,0.3474495,0.04516375,1.188122,-0.2709523,-0.009945547,-0.01981679,0.01284583,0.2870355,-18.12726,31.33
2,-0.07192993,0.1125031,0.9910431,1.0,-0.03370667,0.09246826,0.9951324,-27.50864,1.725189,-24.59085,4.066284,0.3634265,0.4729189,1.0,-0.09532166,0.1246796,0.9875946,28.69102,5.094772,-23.51323,4.064011,0.6477333,0.3474925,0.0451628,1.188121,-0.270995,-0.009873368,-0.01992328,0.01281564,0.2870355,-18.12726,31.33
2,-0.07192993,0.1125031,0.9910431,1.0,-0.03370667,0.09246826,0.9951324,-27.50864,1.725189,-24.59085,4.066284,0.3634265,0.4729189,1.0,-0.09532166,0.1246796,0.9875946,28.69102,5.094772,-23.51323,4.064011,0.6477333,0.3474925,0.0451628,1.188121,-0.270995,-0.009873368,-0.01992328,0.01281564,0.2870355,-18.12726,31.33
2,-0.03993225,0.08822632,0.995285,1.0,-0.03977966,0.08810425,0.9953156,-27.53023,1.778381,-24.71252,4.082047,0.3650213,0.4729866,1.0,-0.09216309,0.1272888,0.9875641,28.69368,5.272995,-24.34726,4.034515,0.6483664,0.3474025,0.04500628,1.18804,-0.2710588,-0.00995977,-0.02008159,0.0128638,0.2870355,-18.12726,31.33
2,-0.03993225,0.08822632,0.995285,1.0,-0.03977966,0.08810425,0.9953156,-27.53023,1.778381,-24.71252,4.082047,0.3650213,0.4729866,1.0,-0.09216309,0.1272888,0.9875641,28.69368,5.272995,-24.34726,4.034515,0.6483664,0.3474025,0.04500628,1.18804,-0.2710588,-0.00995977,-0.02008159,0.0128638,0.2870355,-18.12726,31.33
2,-0.04406738,0.0879364,0.9951477,1.0,-0.04406738,0.0879364,0.9951477,-27.5537,1.779358,-24.71252,4.102478,0.3664914,0.4730128,1.0,-0.102356,0.1297302,0.9862366,28.69368,5.272995,-24.34726,4.040268,0.6501013,0.3470194,0.04490805,1.188045,-0.271084,-0.009935054,-0.02003144,0.01292793,0.2870355,-59.56046,31.33
2,-0.04406738,0.0879364,0.9951477,1.0,-0.04406738,0.0879364,0.9951477,-27.5537,1.779358,-24.71252,4.102478,0.3664914,0.4730128,1.0,-0.102356,0.1297302,0.9862366,28.69368,5.272995,-24.34726,4.040268,0.6501013,0.3470194,0.04490805,1.188045,-0.271084,-0.009935054,-0.02003144,0.01292793,0.2870355,-59.56046,31.33
2,-0.04718018,0.08627319,0.9951477,1.0,-0.04718018,0.08627319,0.9951477,-27.57542,1.786469,-24.72432,4.14389,0.3676906,0.47321,1.0,-0.1004333,0.131424,0.9862213,28.48651,5.084732,-23.51572,4.170456,0.6555989,0.3465396,0.04482627,1.188055,-0.2711086,-0.009987411,-0.02003516,0.01307122,0.2870355,-59.56046,31.33
2,-0.04718018,0.08627319,0.9951477,1.0,-0.04718018,0.08627319,0.9951477,-27.57542,1.786469,-24.72432,4.14389,0.3676906,0.47321,1.0,-0.1004333,0.131424,0.9862213,28.48651,5.084732,-23.51572,4.170456,0.6555989,0.3465396,0.04482627,1.188055,-0.2711086,-0.009987411,-0.02003516,0.01307122,0.2870355,-59.56046,31.33
2,-0.04847717,0.08580017,0.9951172,1.0,-0.04847717,0.08580017,0.9951172,-27.62425,1.809708,-24.80055,4.148193,0.3694447,0.47321,1.0,-0.1057281,0.1286011,0.9860382,28.44687,5.056946,-23.35522,4.198669,0.6574099,0.3469574,0.04485643,1.188071,-0.2711388,-0.01004914,-0.01983746,0.01295499,0.2870355,-59.56046,31.33
2,-0.04847717,0.08580017,0.9951172,1.0,-0.04847717,0.08580017,0.9951172,-27.62425,1.809708,-24.80055,4.148193,0.3694447,0.47321,1.0,-0.1057281,0.1286011,0.9860382,28.44687,5.056946,-23.35522,4.198669,0.6574099,0.3469574,0.04485643,1.188071,-0.2711388,-0.01004914,-0.01983746,0.01295499,0.2870355,-59.56046,31.33
2,-0.01277161,0.07817078,0.9968567,1.0,-0.01277161,0.07817078,0.9968567,-27.13893,1.614136,-24.41414,4.248215,0.3479392,0.4773412,1.0,-0.03993225,0.10112,0.9940643,28.99623,5.020996,-23.43556,4.19519,0.6281421,0.3532861,0.04489768,1.188128,-0.2711498,-0.01018903,-0.01961309,0.01276379,0.2870355,-59.56046,31.33
2,-0.01277161,0.07817078,0.9968567,1.0,-0.01277161,0.07817078,0.9968567,-27.13893,1.614136,-24.41414,4.248215,0.3479392,0.4773412,1.0,-0.03993225,0.10112,0.9940643,28.99623,5.020996,-23.43556,4.19519,0.6281421,0.3532861,0.04489768,1.188128,-0.2711498,-0.01018903,-0.01961309,0.01276379,0.2870355,-59.56046,31.33
2,0.005477905,0.08790588,0.996109,1.0,0.02610779,0.07989502,0.9964447,-26.67271,1.488571,-24.258,4.31221,0.3263749,0.4796591,1.0,-0.01815796,0.09701538,0.9951019,29.40472,5.005463,-23.56981,4.246933,0.6111405,0.3555521,0.04496324,1.188108,-0.2711158,-0.01038459,-0.01937152,0.01253526,0.2870355,-59.56046,31.33
2,0.005477905,0.08790588,0.996109,1.0,0.02610779,0.07989502,0.9964447,-26.67271,1.488571,-24.258,4.31221,0.3263749,0.4796591,1.0,-0.01815796,0.09701538,0.9951019,29.40472,5.005463,-23.56981,4.246933,0.6111405,0.3555521,0.04496324,1.188108,-0.2711158,-0.01038459,-0.01937152,0.01253526,0.2870355,-59.56046,31.33
2,-0.02394104,0.09552002,0.9951324,1.0,0.02352905,0.07922363,0.9965668,-26.69034,1.442108,-24.14226,4.354736,0.3275113,0.4803371,1.0,-0.02427673,0.09562683,0.9951172,29.37389,4.954376,-23.49489,4.220093,0.6130834,0.3568486,0.04493392,1.188117,-0.2711215,-0.01017074,-0.01893704,0.01237314,0.2870355,-59.56046,31.33
2,-0.02394104,0.09552002,0.9951324,1.0,0.02352905,0.07922363,0.9965668,-26.69034,1.442108,-24.14226,4.354736,0.3275113,0.4803371,1.0,-0.02427673,0.09562683,0.9951172,29.37389,4.954376,-23.49489,4.220093,0.6130834,0.3568486,0.04493392,1.188117,-0.2711215,-0.01017074,-0.01893704,0.01237314,0.2870355,-59.56046,31.33
2,-0.01843262,0.09367371,0.9954224,1.0,0.02062988,0.07914734,0.9966431,-26.70744,1.437637,-24.13445,4.338135,0.3285581,0.480419,1.0,-0.02433777,0.09587097,0.9950867,29.3658,4.946274,-23.47371,4.20491,0.6133332,0.3569092,0.0449928,1.18799,-0.2711512,-0.009907268,-0.01870865,0.0121991,0.2870355,-59.56046,31.33
2,-0.01843262,0.09367371,0.9954224,1.0,0.02062988,0.07914734,0.9966431,-26.70744,1.437637,-24.13445,4.338135,0.3285581,0.480419,1.0,-0.02433777,0.09587097,0.9950867,29.3658,4.946274,-23.47371,4.20491,0.6133332,0.3569092,0.0449928,1.18799,-0.2711512,-0.009907268,-0.01870865,0.0121991,0.2870355,-59.56046,31.33
2,-0.008773804,0.08926392,0.9959564,1.0,0.02134705,0.07974243,0.996582,-26.7227,1.426849,-24.12517,4.338928,0.3289531,0.4805905,1.0,-0.02662659,0.09484863,0.9951324,29.35777,4.94075,-23.45609,4.197861,0.6139539,0.3571149,0.04495144,1.187925,-0.2711732,-0.00960795,-0.0185165,0.01240741,0.2870355,-59.56046,31.33
2,-0.008773804,0.08926392,0.9959564,1.0,0.02134705,0.07974243,0.996582,-26.7227,1.426849,-24.12517,4.338928,0.3289531,0.4805905,1.0,-0.02662659,0.09484863,0.9951324,29.35777,4.94075,-23.45609,4.197861,0.6139539,0.3571149,0.04495144,1.187925,-0.2711732,-0.00960795,-0.0185165,0.01240741,0.2870355,-59.56046,31.33
2,0.002212524,0.08605957,0.9962769,1.0,0.02359009,0.08041382,0.9964752,-26.74342,1.423492,-24.12589,4.340393,0.3292671,0.4806103,1.0,-0.02580261,0.09339905,0.995285,29.34422,4.924286,-23.40282,4.197586,0.6142004,0.3574928,0.04497111,1.18782,-0.2712116,-0.009512873,-0.01864562,0.0125685,0.2870355,-59.56046,31.33
2,0.002212524,0.08605957,0.9962769,1.0,0.02359009,0.08041382,0.9964752,-26.74342,1.423492,-24.12589,4.340393,0.3292671,0.4806103,1.0,-0.02580261,0.09339905,0.995285,29.34422,4.924286,-23.40282,4.197586,0.6142004,0.3574928,0.04497111,1.18782,-0.2712116,-0.009512873,-0.01864562,0.0125685,0.2870355,-59.56046,31.33
2,0.001296997,0.08348083,0.9965057,1.0,0.02008057,0.07855225,0.9967041,-26.76003,1.434433,-24.13445,4.336639,0.3303772,0.4806348,1.0,-0.02613831,0.09062195,0.9955292,29.33023,4.915329,-23.37605,4.199402,0.6146825,0.3580328,0.04500413,1.187727,-0.2711809,-0.009416836,-0.01880873,0.01261465,0.2870355,29.22093,31.33
2,0.001296997,0.08348083,0.9965057,1.0,0.02008057,0.07855225,0.9967041,-26.76003,1.434433,-24.13445,4.336639,0.3303772,0.4806348,1.0,-0.02613831,0.09062195,0.9955292,29.33023,4.915329,-23.37605,4.199402,0.6146825,0.3580328,0.04500413,1.187727,-0.2711809,-0.009416836,-0.01880873,0.01261465,0.2870355,29.22093,31.33
2,0.001693726,0.08224487,0.9965973,1.0,0.0214386,0.07635498,0.9968414,-26.76886,1.437637,-24.14178,4.337021,0.3304364,0.4809476,1.0,-0.02534485,0.09024048,0.9955902,29.32066,4.903793,-23.34441,4.205917,0.6148294,0.358232,0.04510438,1.187662,-0.2711327,-0.009486207,-0.01906682,0.01244219,0.2870355,29.22093,31.33
2,0.001693726,0.08224487,0.9965973,1.0,0.0214386,0.07635498,0.9968414,-26.76886,1.437637,-24.14178,4.337021,0.3304364,0.4809476,1.0,-0.02534485,0.09024048,0.9955902,29.32066,4.903793,-23.34441,4.205917,0.6148294,0.358232,0.04510438,1.187662,-0.2711327,-0.009486207,-0.01906682,0.01244219,0.2870355,29.22093,31.33
2,-0.007171631,0.0836792,0.99646,1.0,0.01734924,0.07437134,0.9970703,-26.86887,1.493912,-24.30972,4.352768,0.3342038,0.4809393,1.0,-0.02734375,0.09130859,0.9954376,29.30667,4.883926,-23.28009,4.219101,0.6155501,0.358232,0.04510999,1.18773,-0.2710536,-0.009074349,-0.01943718,0.01210283,0.2870355,29.22093,31.33
2,-0.007171631,0.0836792,0.99646,1.0,0.01734924,0.07437134,0.9970703,-26.86887,1.493912,-24.30972,4.352768,0.3342038,0.4809393,1.0,-0.02734375,0.09130859,0.9954376,29.30667,4.883926,-23.28009,4.219101,0.6155501,0.358232,0.04510999,1.18773,-0.2710536,-0.009074349,-0.01943718,0.01210283,0.2870355,29.22093,31.33
2,0.004806519,0.07678223,0.9970245,1.0,0.01327515,0.07341003,0.9972076,-26.89754,1.54393,-24.39313,4.31134,0.3357352,0.4801681,1.0,-0.03044128,0.09074402,0.9954071,29.29318,4.92746,-23.28717,4.274002,0.6166114,0.3568538,0.04509556,1.187677,-0.2711085,-0.008658391,-0.01961081,0.0120442,0.2870355,29.22093,31.33
2,0.004806519,0.07678223,0.9970245,1.0,0.01327515,0.07341003,0.9972076,-26.89754,1.54393,-24.39313,4.31134,0.3357352,0.4801681,1.0,-0.03044128,0.09074402,0.9954071,29.29318,4.92746,-23.28717,4.274002,0.6166114,0.3568538,0.04509556,1.187677,-0.2711085,-0.008658391,-0.01961081,0.0120442,0.2870355,29.22093,31.33
2,0.02035522,0.04551697,0.9987488,1.0,0.02035522,0.04551697,0.9987488,-27.0405,2.10611,-25.74625,4.29155,0.3379123,0.4781059,1.0,0.0,0.0,0.0,29.4687,6.16571,-27.64568,-1.0,0.6146283,0.3615095,0.0451026,1.187698,-0.2711306,-0.008515226,-0.01984685,0.01195666,0.2870355,29.22093,31.33
2,0.02035522,0.04551697,0.9987488,1.0,0.02035522,0.04551697,0.9987488,-27.0405,2.10611,-25.74625,4.29155,0.3379123,0.4781059,1.0,0.0,0.0,0.0,29.4687,6.16571,-27.64568,-1.0,0.6146283,0.3615095,0.0451026,1.187698,-0.2711306,-0.008515226,-0.01984685,0.01195666,0.2870355,29.22093,31.33
2,-1.0,-1.0,-1.0,0.2754463,0.0,0.0,0.0,-27.38159,3.036102,-27.69485,-1.0,0.3458061,0.5036616,0.2938285,0.0,0.0,0.0,30.62714,3.42482,-23.27728,-1.0,0.578426,0.4444393,0.04514074,1.187728,-0.2712407,-0.008626495,-0.01989185,0.01192171,0.2870355,29.22093,31.33
2,-1.0,-1.0,-1.0,0.2754463,0.0,0.0,0.0,-27.38159,3.036102,-27.69485,-1.0,0.3458061,0.5036616,0.2938285,0.0,0.0,0.0,30.62714,3.42482,-23.27728,-1.0,0.578426,0.4444393,0.04514074,1.187728,-0.2712407,-0.008626495,-0.01989185,0.01192171,0.2870355,29.22093,31.33
2,-1.0,-1.0,-1.0,0.0,0.0,0.0,0.0,-27.38159,3.036102,-27.69485,-1.0,0.3843574,0.5294883,0.0,0.0,0.0,0.0,30.62714,3.42482,-23.27728,-1.0,0.2532818,0.5266855,0.04516208,1.187718,-0.2713163,-0.008262095,-0.02006006,0.0121059,0.2870355,29.22093,31.33
2,-1.0,-1.0,-1.0,0.0,0.0,0.0,0.0,-27.38159,3.036102,-27.69485,-1.0,0.3843574,0.5294883,0.0,0.0,0.0,0.0,30.62714,3.42482,-23.27728,-1.0,0.2532818,0.5266855,0.04516208,1.187718,-0.2713163,-0.008262095,-0.02006006,0.0121059,0.2870355,29.22093,31.33
2,-1.0,-1.0,-1.0,0.0,0.0,0.0,0.0,-27.30708,0.8851013,-24.51219,-1.0,0.358655,0.5234526,0.0,0.0,0.0,0.0,30.0598,3.781448,-23.70396,-1.0,0.5657238,0.4327464,0.04514778,1.187785,-0.2713857,-0.008291801,-0.01987985,0.01231761,0.2870355,29.22093,31.33
2,-1.0,-1.0,-1.0,0.0,0.0,0.0,0.0,-27.30708,0.8851013,-24.51219,-1.0,0.358655,0.5234526,0.0,0.0,0.0,0.0,30.0598,3.781448,-23.70396,-1.0,0.5657238,0.4327464,0.04514778,1.187785,-0.2713857,-0.008291801,-0.01987985,0.01231761,0.2870355,29.22093,31.33
2,-1.0,-1.0,-1.0,0.1889165,0.0,0.0,0.0,-27.74309,2.703949,-26.90096,-1.0,0.3677769,0.4831237,0.26437,0.0,0.0,0.0,28.8268,6.258347,-27.75131,-1.0,0.6495745,0.3901266,0.04523277,1.187815,-0.2714925,-0.008251267,-0.01970103,0.01245656,0.2870355,25.42543,31.33
2,-1.0,-1.0,-1.0,0.4032875,0.0,0.0,0.0,-27.73871,2.636459,-26.88719,-1.0,0.3682147,0.4765312,0.4130679,0.0,0.0,0.0,28.70589,5.282272,-22.75481,-1.0,0.6497954,0.3618559,0.04536593,1.187932,-0.2716467,-0.008391835,-0.01956403,0.01239359,0.2870355,25.42543,31.33
2,-1.0,-1.0,-1.0,0.4032875,0.0,0.0,0.0,-27.73871,2.636459,-26.88719,-1.0,0.3682147,0.4765312,0.4130679,0.0,0.0,0.0,28.70589,5.282272,-22.75481,-1.0,0.6497954,0.3618559,0.04536593,1.187932,-0.2716467,-0.008391835,-0.01956403,0.01239359,0.2870355,25.42543,31.33
2,-1.0,-1.0,-1.0,0.5340432,0.0,0.0,0.0,-27.68892,2.50235,-26.8028,-1.0,0.368183,0.4786095,0.5418842,0.0,0.0,0.0,28.78767,6.112061,-27.55948,-1.0,0.6475799,0.3622299,0.04539835,1.187997,-0.2717282,-0.008592744,-0.01948733,0.01238217,0.2870355,25.42543,31.33
2,-1.0,-1.0,-1.0,0.6981096,0.0,0.0,0.0,-27.70029,2.095947,-25.67105,-1.0,0.3677247,0.4795268,0.663036,0.0,0.0,0.0,28.66232,5.700623,-26.18295,-1.0,0.6470401,0.3605711,0.0454253,1.188066,-0.2718385,-0.00896199,-0.01921823,0.0123442,0.2870355,25.42543,31.33
2,-0.02931213,0.04412842,0.9985809,0.6981096,-0.0276947,0.04348755,0.9986572,-27.70004,2.08345,-25.66098,4.298462,0.367743,0.4787235,0.663036,-0.06982422,0.06039429,0.9957275,28.64491,5.696198,-26.30141,4.016449,0.6489024,0.3594519,0.04558122,1.188037,-0.2719555,-0.009169098,-0.01904844,0.01224238,0.2870355,25.42543,31.33
2,-0.04615784,0.05569458,0.9973755,0.7834613,-0.04615784,0.05569458,0.9973755,-27.60106,1.96553,-25.56236,4.24913,0.3675979,0.4797087,0.7463363,-0.0821991,0.07989502,0.9933929,28.67044,5.402847,-25.50124,4.038651,0.648968,0.3598393,0.0456481,1.188051,-0.2721065,-0.009160154,-0.01881824,0.01217219,0.2870355,25.42543,31.33
2,-0.04615784,0.05569458,0.9973755,0.7834613,-0.04615784,0.05569458,0.9973755,-27.60106,1.96553,-25.56236,4.24913,0.3675979,0.4797087,0.7463363,-0.0821991,0.07989502,0.9933929,28.67044,5.402847,-25.50124,4.038651,0.648968,0.3598393,0.0456481,1.188051,-0.2721065,-0.009160154,-0.01881824,0.01217219,0.2870355,25.42543,31.33
2,-0.04069519,0.0566864,0.9975586,0.8743004,-0.04069519,0.0566864,0.9975586,-27.61253,1.901505,-25.38019,4.298843,0.3672085,0.4800798,0.8375977,-0.08184814,0.06140137,0.994751,28.6691,5.335541,-25.3287,3.998077,0.6486292,0.3638436,0.04577732,1.188007,-0.272432,-0.009062026,-0.01832234,0.01201447,0.2870355,25.42543,31.33
2,-0.03619385,0.06578064,0.9971619,0.934532,-0.03619385,0.06576538,0.9971771,-27.62413,1.719818,-24.82523,4.272797,0.3673022,0.4796863,0.9032012,-0.09158325,0.08592224,0.9920807,28.70909,5.042221,-24.41512,4.012451,0.6477002,0.3623576,0.04585207,1.188037,-0.2725437,-0.009121031,-0.01820158,0.01190984,0.2870355,25.42543,31.33
2,-0.04489136,0.06204224,0.9970551,0.9688277,-0.04489136,0.06202698,0.9970551,-27.56566,1.901688,-25.50143,4.29071,0.3662808,0.4802526,0.9616444,-0.09579468,0.09669495,0.9906769,28.72015,5.015167,-24.33022,4.20607,0.6478447,0.3611198,0.04592776,1.188079,-0.2726717,-0.009282964,-0.01801644,0.01175493,0.2870355,25.42543,31.33
2,-0.04478455,0.05960083,0.9972076,0.9884196,-0.04478455,0.05960083,0.9972076,-27.57483,1.920456,-25.44901,4.298523,0.3665868,0.4795867,0.9884117,-0.09420776,0.1062775,0.9898529,28.73373,5.050125,-24.38297,4.045471,0.6472261,0.3586629,0.04601955,1.188159,-0.2727689,-0.009614151,-0.01799575,0.01162363,0.2870355,25.42543,31.33
2,-0.04478455,0.05960083,0.9972076,0.9884196,-0.04478455,0.05960083,0.9972076,-27.57483,1.920456,-25.44901,4.298523,0.3665868,0.4795867,0.9884117,-0.09420776,0.1062775,0.9898529,28.73373,5.050125,-24.38297,4.045471,0.6472261,0.3586629,0.04601955,1.188159,-0.2727689,-0.009614151,-0.01799575,0.01162363,0.2870355,25.42543,31.33
2,-0.04397583,0.05888367,0.9972839,0.9884196,-0.04397583,0.05888367,0.9972839,-27.58727,1.926682,-25.41769,4.297318,0.3668928,0.4792251,0.9884117,-0.09040833,0.1021576,0.9906464,28.62573,4.821487,-23.27687,4.336426,0.6487489,0.3583675,0.04608977,1.188308,-0.2729534,-0.0102909,-0.01800237,0.01137614,0.2870355,20.09409,31.33
2,-0.039505,0.06861877,0.9968567,1.0,-0.03941345,0.068573,0.9968567,-27.62057,1.960587,-25.32082,4.287277,0.3673502,0.4756786,1.0,-0.1032715,0.1053619,0.9890442,28.69391,5.105377,-24.33936,4.202271,0.6500546,0.3567696,0.04611957,1.188347,-0.2730203,-0.0107297,-0.0180061,0.01127417,0.2870355,-15.15645,31.33
2,-0.039505,0.06861877,0.9968567,1.0,-0.03941345,0.068573,0.9968567,-27.62057,1.960587,-25.32082,4.287277,0.3673502,0.4756786,1.0,-0.1032715,0.1053619,0.9890442,28.69391,5.105377,-24.33936,4.202271,0.6500546,0.3567696,0.04611957,1.188347,-0.2730203,-0.0107297,-0.0180061,0.01127417,0.2870355,-15.15645,31.33
2,-0.0426178,0.0597229,0.9972992,1.0,-0.04258728,0.05969238,0.9972992,-27.63287,1.969315,-25.30513,4.322495,0.3682692,0.4767639,1.0,-0.08816528,0.09790039,0.991272,28.64265,5.412109,-25.40227,4.170563,0.6507017,0.3560516,0.04620051,1.188395,-0.2731289,-0.01066772,-0.01820813,0.0111151,0.2870355,-15.15645,31.33
2,-0.04296875,0.065979,0.9968872,1.0,-0.04296875,0.065979,0.9968872,-27.63765,2.000031,-25.38338,4.287201,0.3684523,0.475371,1.0,-0.08799744,0.1063385,0.9904175,28.65152,5.286743,-24.94543,4.194504,0.6499358,0.3549864,0.04626369,1.188372,-0.2731793,-0.01064324,-0.0181183,0.01100395,0.2870355,-15.15645,31.33
2,-0.04347229,0.06558228,0.9968872,1.0,-0.04347229,0.06558228,0.9968872,-27.63953,2.003815,-25.41441,4.318329,0.3685617,0.4756028,1.0,-0.09442139,0.11409,0.9889679,28.64731,5.153305,-24.45418,4.246643,0.6503742,0.3545535,0.04641998,1.1884,-0.2732259,-0.01031332,-0.01811171,0.01068237,0.2870355,-15.15645,31.33
2,-0.04347229,0.06558228,0.9968872,1.0,-0.04347229,0.06558228,0.9968872,-27.63953,2.003815,-25.41441,4.318329,0.3685617,0.4756028,1.0,-0.09442139,0.11409,0.9889679,28.64731,5.153305,-24.45418,4.246643,0.6503742,0.3545535,0.04641998,1.1884,-0.2732259,-0.01031332,-0.01811171,0.01068237,0.2870355,-15.15645,31.33
2,-0.04379272,0.0650177,0.9969177,1.0,-0.04379272,0.0650177,0.9969177,-27.64093,2.004532,-25.41528,4.309875,0.36866,0.4756757,1.0,-0.09376526,0.1171875,0.9886627,28.64195,5.146271,-24.41965,4.271042,0.6504067,0.3540186,0.04653609,1.188333,-0.2732377,-0.01033569,-0.01805939,0.01062292,0.2870355,-15.15645,31.33
2,-0.04295349,0.06558228,0.9969177,1.0,-0.04295349,0.06558228,0.9969177,-27.64719,2.005692,-25.43027,4.309326,0.3687172,0.4756757,1.0,-0.09931946,0.1177979,0.9880524,28.64075,5.13179,-24.36658,4.281403,0.6513043,0.3540186,0.04660523,1.18833,-0.2732345,-0.01059624,-0.01808413,0.01046321,0.2870355,-15.15645,31.33
2,-0.04302979,0.06526184,0.996933,1.0,-0.04302979,0.06526184,0.996933,-27.65099,2.006409,-25.43027,4.326035,0.3688487,0.4757282,1.0,-0.100174,0.1190033,0.9878235,28.63264,5.108398,-24.27895,4.292145,0.6515914,0.3539291,0.04665756,1.188324,-0.2732897,-0.01064534,-0.0180627,0.01025173,0.2870355,-15.15645,31.33
2,-0.04302979,0.06526184,0.996933,1.0,-0.04302979,0.06526184,0.996933,-27.65099,2.006409,-25.43027,4.326035,0.3688487,0.4757282,1.0,-0.100174,0.1190033,0.9878235,28.63264,5.108398,-24.27895,4.292145,0.6515914,0.3539291,0.04665756,1.188324,-0.2732897,-0.01064534,-0.0180627,0.01025173,0.2870355,-15.15645,31.33
2,-0.04727173,0.06692505,0.9966278,1.0,-0.04515076,0.06513977,0.9968414,-27.65385,2.005692,-25.41931,4.32695,0.3693012,0.4756757,1.0,-0.1068573,0.1170959,0.9873505,28.61284,5.120087,-24.13753,4.35379,0.6531757,0.3528429,0.04685271,1.188239,-0.2732618,-0.01037669,-0.01791816,0.009935054,0.2870355,-15.15645,31.33
2,-0.04473877,0.07051086,0.9965057,1.0,-0.03701782,0.06375122,0.9972687,-27.52325,2.015594,-25.42952,4.383926,0.3636251,0.4756532,1.0,-0.08847046,0.1087646,0.9901123,28.75964,5.161179,-24.33043,4.383911,0.6453878,0.3543757,0.04698098,1.188199,-0.2732203,-0.01008392,-0.01790069,0.009877895,0.2870355,-15.15645,31.33
2,-0.04473877,0.07051086,0.9965057,1.0,-0.03701782,0.06375122,0.9972687,-27.52325,2.015594,-25.42952,4.383926,0.3636251,0.4756532,1.0,-0.08847046,0.1087646,0.9901123,28.75964,5.161179,-24.33043,4.383911,0.6453878,0.3543757,0.04698098,1.188199,-0.2732203,-0.01008392,-0.01790069,0.009877895,0.2870355,-15.15645,31.33
3,-0.05569458,0.08985901,0.9943848,1.0,-0.01907349,0.06547546,0.9976654,-27.40013,1.663559,-24.35651,4.435654,0.357547,0.4775598,1.0,-0.05569458,0.08985901,0.9943848,28.72365,5.171051,-24.04414,4.365112,0.6407046,0.3548492,0.04723966,1.18805,-0.2731637,-0.009533215,-0.0176361,0.009572213,0.2870355,-15.15645,31.33
3,-0.0561676,0.09516907,0.993866,1.0,-0.02523804,0.06706238,0.9974213,-27.41707,1.658356,-24.43172,4.422562,0.3590389,0.4781251,1.0,-0.0561676,0.09516907,0.993866,28.70883,5.118958,-23.93544,4.365234,0.6411169,0.3548902,0.04746222,1.187945,-0.2730871,-0.008859143,-0.01736705,0.009287778,0.2870355,-15.15645,31.33
3,-0.0561676,0.09516907,0.993866,1.0,-0.02523804,0.06706238,0.9974213,-27.41707,1.658356,-24.43172,4.422562,0.3590389,0.4781251,1.0,-0.0561676,0.09516907,0.993866,28.70883,5.118958,-23.93544,4.365234,0.6411169,0.3548902,0.04746222,1.187945,-0.2730871,-0.008859143,-0.01736705,0.009287778,0.2870355,-15.15645,31.33
3,-0.05679321,0.09376526,0.9939575,1.0,-0.0269165,0.06835938,0.9972839,-27.42113,1.659973,-24.46103,4.431885,0.3594175,0.4781251,1.0,-0.05679321,0.09376526,0.9939575,28.70787,5.111816,-23.92409,4.352951,0.641227,0.3552653,0.0475415,1.187912,-0.2730125,-0.008742314,-0.01721278,0.009089937,0.2870355,-62.76727,31.33
3,-0.05497742,0.09222412,0.9942169,1.0,-0.02597046,0.06842041,0.9973145,-27.42682,1.669022,-24.48351,4.490677,0.3594175,0.4780672,1.0,-0.05770874,0.09446716,0.9938507,28.70564,5.107224,-23.91901,4.353455,0.6414482,0.3552653,0.04766667,1.187916,-0.2729393,-0.008676443,-0.01702782,0.008915313,0.2870355,-62.76727,31.33
3,-0.05497742,0.09222412,0.9942169,1.0,-0.02597046,0.06842041,0.9973145,-27.42682,1.669022,-24.48351,4.490677,0.3594175,0.4780672,1.0,-0.05770874,0.09446716,0.9938507,28.70564,5.107224,-23.91901,4.353455,0.6414482,0.3552653,0.04766667,1.187916,-0.2729393,-0.008676443,-0.01702782,0.008915313,0.2870355,-62.76727,31.33
3,-0.0369873,0.07260132,0.9966736,1.0,-0.0239563,0.0619812,0.9977875,-27.48999,1.732742,-24.51437,4.493011,0.3611344,0.4773263,1.0,-0.0572052,0.08905029,0.9943695,28.66527,5.100296,-23.66644,4.295135,0.6423797,0.35437,0.04790902,1.187956,-0.2728211,-0.008833877,-0.01655347,0.008371389,0.2870355,-62.76727,31.33
3,-0.02493286,0.06811523,0.9973602,1.0,-0.02493286,0.06811523,0.9973602,-27.51468,1.747421,-24.48665,4.478256,0.3621448,0.4756016,1.0,-0.07164001,0.09376526,0.9930115,28.7438,5.415039,-24.96466,4.298904,0.6440289,0.353114,0.04790902,1.187956,-0.2728211,-0.008833877,-0.01655347,0.008371389,0.2870355,-62.76727,31.33
3,-0.02577209,0.06565857,0.9974976,1.0,-0.02577209,0.06565857,0.9974976,-27.52242,1.766266,-24.51071,4.47641,0.3625147,0.4756016,1.0,-0.07247925,0.09313965,0.9929962,28.73331,5.422424,-24.96254,4.297089,0.6445365,0.352933,0.04824686,1.188059,-0.2725627,-0.008953672,-0.01598515,0.008159558,0.2870355,-62.76727,31.33
3,-0.02577209,0.06565857,0.9974976,1.0,-0.02577209,0.06565857,0.9974976,-27.52242,1.766266,-24.51071,4.47641,0.3625147,0.4756016,1.0,-0.07247925,0.09313965,0.9929962,28.73331,5.422424,-24.96254,4.297089,0.6445365,0.352933,0.04824686,1.188059,-0.2725627,-0.008953672,-0.01598515,0.008159558,0.2870355,-62.76727,31.33
3,-0.02597046,0.06658936,0.9974365,1.0,-0.02597046,0.06658936,0.9974365,-27.53006,1.781586,-24.53595,4.495407,0.3627746,0.4751857,1.0,-0.07278442,0.09312439,0.992981,28.72618,5.422424,-24.96254,4.297058,0.6448281,0.352933,0.04858077,1.188096,-0.2723863,-0.008916148,-0.01536971,0.008099988,0.2870355,-62.76727,31.33
3,-0.02568054,0.06562805,0.9975128,1.0,-0.02568054,0.06562805,0.9975128,-27.53397,1.787949,-24.54622,4.501511,0.3628454,0.475227,1.0,-0.07298279,0.09286499,0.9929962,28.72253,5.420914,-24.96204,4.295547,0.6449831,0.3530234,0.04870558,1.188023,-0.2723434,-0.00872696,-0.01490908,0.007857195,0.2870355,-62.76727,31.33
3,-0.02568054,0.06562805,0.9975128,1.0,-0.02568054,0.06562805,0.9975128,-27.53397,1.787949,-24.54622,4.501511,0.3628454,0.475227,1.0,-0.07298279,0.09286499,0.9929962,28.72253,5.420914,-24.96204,4.295547,0.6449831,0.3530234,0.04870558,1.188023,-0.2723434,-0.00872696,-0.01490908,0.007857195,0.2870355,-62.76727,31.33
3,-0.03112793,0.07148743,0.9969482,1.0,-0.03094482,0.07139587,0.9969635,-27.56046,1.802963,-24.74419,4.543671,0.364401,0.4755724,1.0,-0.07272339,0.09283447,0.9930115,28.7198,5.417221,-24.96359,4.318314,0.6450334,0.3531647,0.04895794,1.18804,-0.2725019,-0.00835892,-0.01446675,0.007533825,0.2870355,-62.76727,31.33
3,-0.03112793,0.07148743,0.9969482,1.0,-0.03094482,0.07139587,0.9969635,-27.56046,1.802963,-24.74419,4.543671,0.364401,0.4755724,1.0,-0.07272339,0.09283447,0.9930115,28.7198,5.417221,-24.96359,4.318314,0.6450334,0.3531647,0.04895794,1.18804,-0.2725019,-0.00835892,-0.01446675,0.007533825,0.2870355,-62.76727,31.33
3,-0.03112793,0.07148743,0.9969482,1.0,-0.03094482,0.07139587,0.9969635,-27.56046,1.802963,-24.74419,4.543671,0.364401,0.4755724,1.0,-0.07272339,0.09283447,0.9930115,28.7198,5.417221,-24.96359,4.318314,0.6450334,0.3531647,0.04920185,1.187935,-0.2725084,-0.008128453,-0.01419589,0.007513029,0.2870355,-62.76727,31.33
3,-0.03112793,0.07148743,0.9969482,1.0,-0.03094482,0.07139587,0.9969635,-27.56046,1.802963,-24.74419,4.543671,0.364401,0.4755724,1.0,-0.07272339,0.09283447,0.9930115,28.7198,5.417221,-24.96359,4.318314,0.6450334,0.3531647,0.04920185,1.187935,-0.2725084,-0.008128453,-0.01419589,0.007513029,0.2870355,-62.76727,31.33
3,-0.03112793,0.07148743,0.9969482,1.0,-0.03094482,0.07139587,0.9969635,-27.56046,1.802963,-24.74419,4.543671,0.364401,0.4755724,1.0,-0.07272339,0.09283447,0.9930115,28.7198,5.417221,-24.96359,4.318314,0.6450334,0.3531647,0.04934394,1.187832,-0.2725632,-0.007888425,-0.01400674,0.00764476,0.2870355,-62.76727,31.33
3,-0.03112793,0.07148743,0.9969482,1.0,-0.03094482,0.07139587,0.9969635,-27.56046,1.802963,-24.74419,4.543671,0.364401,0.4755724,1.0,-0.07272339,0.09283447,0.9930115,28.7198,5.417221,-24.96359,4.318314,0.6450334,0.3531647,0.04934394,1.187832,-0.2725632,-0.007888425,-0.01400674,0.00764476,0.2870355,-62.76727,31.33
3,-0.03546143,0.06710815,0.9971008,1.0,-0.03544617,0.0670929,0.9971008,-27.57251,1.785858,-24.81113,4.592072,0.3654421,0.4774581,1.0,-0.06332397,0.0856781,0.9942932,28.62527,5.046188,-23.73422,4.42244,0.6447911,0.3573514,0.04952574,1.187686,-0.2727118,-0.00734555,-0.01389405,0.007569344,0.2870355,38.78569,31.33
3,-0.03546143,0.06710815,0.9971008,1.0,-0.03544617,0.0670929,0.9971008,-27.57251,1.785858,-24.81113,4.592072,0.3654421,0.4774581,1.0,-0.06332397,0.0856781,0.9942932,28.62527,5.046188,-23.73422,4.42244,0.6447911,0.3573514,0.04952574,1.187686,-0.2727118,-0.00734555,-0.01389405,0.007569344,0.2870355,38.78569,31.33
3,-0.03462219,0.06890869,0.9970093,1.0,-0.03462219,0.06890869,0.9970093,-27.57341,1.766846,-24.80429,4.603821,0.3653393,0.4777306,1.0,-0.06393433,0.08885193,0.993988,28.62823,5.052032,-23.73584,4.416748,0.6447939,0.3566622,0.04970372,1.187555,-0.2728007,-0.006500746,-0.01349415,0.007364796,0.2870355,38.78569,31.33
3,-0.03462219,0.06890869,0.9970093,1.0,-0.03462219,0.06890869,0.9970093,-27.57341,1.766846,-24.80429,4.603821,0.3653393,0.4777306,1.0,-0.06393433,0.08885193,0.993988,28.62823,5.052032,-23.73584,4.416748,0.6447939,0.3566622,0.04970372,1.187555,-0.2728007,-0.006500746,-0.01349415,0.007364796,0.2870355,38.78569,31.33
3,-0.03082275,0.06756592,0.9972229,1.0,-0.03070068,0.06750488,0.9972382,-27.57587,1.76532,-24.80298,4.602554,0.3647813,0.4779935,1.0,-0.06240845,0.08865356,0.9940948,28.63185,5.05957,-23.74312,4.416199,0.6444311,0.3565005,0.04985785,1.187547,-0.2728572,-0.006178736,-0.01294176,0.007012405,0.2870355,38.78569,31.33
3,-0.03082275,0.06756592,0.9972229,1.0,-0.03070068,0.06750488,0.9972382,-27.57587,1.76532,-24.80298,4.602554,0.3647813,0.4779935,1.0,-0.06240845,0.08865356,0.9940948,28.63185,5.05957,-23.74312,4.416199,0.6444311,0.3565005,0.04985785,1.187547,-0.2728572,-0.006178736,-0.01294176,0.007012405,0.2870355,38.78569,31.33
3,-0.03625488,0.0692749,0.996933,1.0,-0.0324707,0.06684875,0.9972229,-27.57661,1.76532,-24.80298,4.595383,0.3650948,0.478096,1.0,-0.06639099,0.08860779,0.9938354,28.67525,5.194199,-24.31081,4.38916,0.6443876,0.3565005,0.0500083,1.18761,-0.2728029,-0.006733813,-0.01251027,0.006850092,0.2870355,38.78569,31.33
3,-0.03625488,0.0692749,0.996933,1.0,-0.0324707,0.06684875,0.9972229,-27.57661,1.76532,-24.80298,4.595383,0.3650948,0.478096,1.0,-0.06639099,0.08860779,0.9938354,28.67525,5.194199,-24.31081,4.38916,0.6443876,0.3565005,0.0500083,1.18761,-0.2728029,-0.006733813,-0.01251027,0.006850092,0.2870355,38.78569,31.33
3,-0.03131104,0.0670166,0.9972534,1.0,-0.03131104,0.0670166,0.9972534,-27.57906,1.766174,-24.79704,4.602753,0.3649895,0.4779935,1.0,-0.06997681,0.08694458,0.9937439,28.71892,5.324905,-24.8354,4.317261,0.6443632,0.356275,0.05019152,1.187688,-0.2726804,-0.007222809,-0.01207386,0.00684574,0.2870355,38.78569,31.33
3,-0.03131104,0.0670166,0.9972534,1.0,-0.03131104,0.0670166,0.9972534,-27.57906,1.766174,-24.79704,4.602753,0.3649895,0.4779935,1.0,-0.06997681,0.08694458,0.9937439,28.71892,5.324905,-24.8354,4.317261,0.6443632,0.356275,0.05019152,1.187688,-0.2726804,-0.007222809,-0.01207386,0.00684574,0.2870355,38.78569,31.33
3,-0.02871704,0.06871033,0.9972076,1.0,-0.02871704,0.06871033,0.9972076,-27.59181,1.767136,-24.79599,4.604691,0.3649895,0.4776803,1.0,-0.07637024,0.08959961,0.993042,28.72083,5.1698,-24.10104,4.388519,0.6443184,0.3554345,0.05030382,1.18763,-0.2726222,-0.007510053,-0.01196974,0.006817384,0.2870355,38.78569,31.33
3,-0.02871704,0.06871033,0.9972076,1.0,-0.02871704,0.06871033,0.9972076,-27.59181,1.767136,-24.79599,4.604691,0.3649895,0.4776803,1.0,-0.07637024,0.08959961,0.993042,28.72083,5.1698,-24.10104,4.388519,0.6443184,0.3554345,0.05030382,1.18763,-0.2726222,-0.007510053,-0.01196974,0.006817384,0.2870355,38.78569,31.33
3,-0.02713013,0.06846619,0.9972687,1.0,-0.02713013,0.06846619,0.9972839,-27.59181,1.789032,-24.78833,4.606644,0.3647401,0.4769357,1.0,-0.07673645,0.09275818,0.9927216,28.72559,5.173141,-24.10104,4.389984,0.6442312,0.3548001,0.05043662,1.187586,-0.2725236,-0.007287506,-0.01164477,0.006831577,0.2870355,38.78569,31.33
3,-0.02713013,0.06846619,0.9972687,1.0,-0.02713013,0.06846619,0.9972839,-27.59181,1.789032,-24.78833,4.606644,0.3647401,0.4769357,1.0,-0.07673645,0.09275818,0.9927216,28.72559,5.173141,-24.10104,4.389984,0.6442312,0.3548001,0.05043662,1.187586,-0.2725236,-0.007287506,-0.01164477,0.006831577,0.2870355,38.78569,31.33
3,-0.02001953,0.07745361,0.9967804,1.0,-0.01998901,0.07745361,0.9967804,-27.47658,1.756577,-24.44487,4.623093,0.3600933,0.4735433,1.0,-0.06866455,0.08747864,0.9937897,28.80879,5.041687,-23.19276,4.523788,0.6389753,0.3529916,0.05049491,1.187531,-0.2724569,-0.006895623,-0.01166075,0.007141896,0.2870355,38.78569,31.33
3,-0.02001953,0.07745361,0.9967804,1.0,-0.01998901,0.07745361,0.9967804,-27.47658,1.756577,-24.44487,4.623093,0.3600933,0.4735433,1.0,-0.06866455,0.08747864,0.9937897,28.80879,5.041687,-23.19276,4.523788,0.6389753,0.3529916,0.05049491,1.187531,-0.2724569,-0.006895623,-0.01166075,0.007141896,0.2870355,38.78569,31.33
3,0.02809143,0.1307526,0.9910126,1.0,0.02809143,0.1307526,0.9910126,-26.73016,2.044342,-24.54691,4.733109,0.3275938,0.4561978,1.0,0.005615234,0.1208191,0.9926453,29.48575,6.031448,-25.92374,4.439636,0.6071959,0.3358511,0.05049205,1.187488,-0.2722952,-0.006772427,-0.01168947,0.007399112,0.2870355,21.56509,31.33
3,0.02809143,0.1307526,0.9910126,1.0,0.02809143,0.1307526,0.9910126,-26.73016,2.044342,-24.54691,4.733109,0.3275938,0.4561978,1.0,0.005615234,0.1208191,0.9926453,29.48575,6.031448,-25.92374,4.439636,0.6071959,0.3358511,0.05049205,1.187488,-0.2722952,-0.006772427,-0.01168947,0.007399112,0.2870355,21.56509,31.33
3,0.06626892,0.1676178,0.9836121,1.0,0.06626892,0.1676178,0.9836121,-26.62802,2.520004,-25.17375,4.668793,0.3172038,0.4398444,1.0,0.02676392,0.1486969,0.9885101,29.46178,6.133041,-25.08504,4.38678,0.6040435,0.3204398,0.05045712,1.187422,-0.2721106,-0.006637977,-0.01191609,0.007594893,0.2870355,21.56509,31.33
3,0.06626892,0.1676178,0.9836121,1.0,0.06626892,0.1676178,0.9836121,-26.62802,2.520004,-25.17375,4.668793,0.3172038,0.4398444,1.0,0.02676392,0.1486969,0.9885101,29.46178,6.133041,-25.08504,4.38678,0.6040435,0.3204398,0.05045712,1.187422,-0.2721106,-0.006637977,-0.01191609,0.007594893,0.2870355,21.56509,31.33
3,0.06770325,0.1652679,0.9839172,1.0,0.06770325,0.1652679,0.9839172,-26.63933,2.544632,-25.08961,4.637863,0.3174076,0.4386507,1.0,0.01634216,0.2097626,0.9776154,29.42839,5.553452,-22.93925,4.530716,0.6045226,0.3144219,0.05040085,1.187417,-0.2720196,-0.006447809,-0.01235385,0.007660338,0.2870355,21.56509,31.33
3,0.06770325,0.1652679,0.9839172,1.0,0.06770325,0.1652679,0.9839172,-26.63933,2.544632,-25.08961,4.637863,0.3174076,0.4386507,1.0,0.01634216,0.2097626,0.9776154,29.42839,5.553452,-22.93925,4.530716,0.6045226,0.3144219,0.05040085,1.187417,-0.2720196,-0.006447809,-0.01235385,0.007660338,0.2870355,21.56509,31.33
3,0.04275513,0.1716766,0.9842224,1.0,0.04275513,0.1716766,0.9842224,-26.54622,2.584595,-25.34033,4.658096,0.3181334,0.4383645,1.0,0.008728027,0.217514,0.9760132,29.43321,5.540405,-22.90262,4.561951,0.6055963,0.313376,0.05028403,1.187442,-0.2719516,-0.006452429,-0.01301409,0.007461282,0.2870355,21.56509,31.33
3,0.04275513,0.1716766,0.9842224,1.0,0.04275513,0.1716766,0.9842224,-26.54622,2.584595,-25.34033,4.658096,0.3181334,0.4383645,1.0,0.008728027,0.217514,0.9760132,29.43321,5.540405,-22.90262,4.561951,0.6055963,0.313376,0.05028403,1.187442,-0.2719516,-0.006452429,-0.01301409,0.007461282,0.2870355,21.56509,31.33
3,0.0450592,0.1720428,0.9840546,1.0,0.0450592,0.1720428,0.9840546,-26.55049,2.582687,-25.34033,4.647751,0.3178958,0.4383645,1.0,0.008972168,0.2195129,0.9755554,29.43452,5.556488,-22.93411,4.565002,0.6055632,0.312728,0.05019796,1.187428,-0.2719667,-0.006752596,-0.01416226,0.007250607,0.2870355,21.56509,31.33
3,0.0450592,0.1720428,0.9840546,1.0,0.0450592,0.1720428,0.9840546,-26.55049,2.582687,-25.34033,4.647751,0.3178958,0.4383645,1.0,0.008972168,0.2195129,0.9755554,29.43452,5.556488,-22.93411,4.565002,0.6055632,0.312728,0.05019796,1.187428,-0.2719667,-0.006752596,-0.01416226,0.007250607,0.2870355,21.56509,31.33
3,0.04631042,0.1717072,0.9840546,1.0,0.04631042,0.1717072,0.9840546,-26.55536,2.582657,-25.32935,4.650452,0.3178627,0.4383256,1.0,0.01985168,0.1840515,0.9827118,29.43527,6.151627,-24.77368,4.545151,0.6056982,0.3122678,0.04994905,1.187493,-0.2719712,-0.00716481,-0.0155231,0.007034682,0.2870355,21.56509,31.33
3,0.04631042,0.1717072,0.9840546,1.0,0.04631042,0.1717072,0.9840546,-26.55536,2.582657,-25.32935,4.650452,0.3178627,0.4383256,1.0,0.01985168,0.1840515,0.9827118,29.43527,6.151627,-24.77368,4.545151,0.6056982,0.3122678,0.04994905,1.187493,-0.2719712,-0.00716481,-0.0155231,0.007034682,0.2870355,21.56509,31.33
3,0.04437256,0.1719971,0.9840851,1.0,0.04437256,0.1719971,0.9840851,-26.55789,2.582687,-25.32684,4.669357,0.3182699,0.438283,1.0,0.007522583,0.2268982,0.973877,29.44019,5.556488,-22.96461,4.652496,0.6056938,0.3118031,0.04962373,1.187545,-0.2720425,-0.007554565,-0.01683597,0.00706533,0.2870355,21.56509,31.33
3,0.04437256,0.1719971,0.9840851,1.0,0.04437256,0.1719971,0.9840851,-26.55789,2.582687,-25.32684,4.669357,0.3182699,0.438283,1.0,0.007522583,0.2268982,0.973877,29.44019,5.556488,-22.96461,4.652496,0.6056938,0.3118031,0.04962373,1.187545,-0.2720425,-0.007554565,-0.01683597,0.00706533,0.2870355,21.56509,31.33
3,0.0435791,0.1713715,0.9842377,1.0,0.0435791,0.1713715,0.9842377,-26.56226,2.584595,-25.33179,4.67308,0.3185421,0.4383645,1.0,0.00668335,0.2262115,0.9740448,29.44354,5.55777,-22.94081,4.661057,0.6056938,0.3117122,0.04948795,1.187713,-0.2720643,-0.007922354,-0.01803008,0.007167929,0.2870355,-10.21967,31.33
3,0.0435791,0.1713715,0.9842377,1.0,0.0435791,0.1713715,0.9842377,-26.56226,2.584595,-25.33179,4.67308,0.3185421,0.4383645,1.0,0.00668335,0.2262115,0.9740448,29.44354,5.55777,-22.94081,4.661057,0.6056938,0.3117122,0.04948795,1.187713,-0.2720643,-0.007922354,-0.01803008,0.007167929,0.2870355,-10.21967,31.33
3,0.04255676,0.1711273,0.984314,1.0,0.04255676,0.1711273,0.984314,-26.56696,2.586487,-25.33804,4.680023,0.3188594,0.4384034,1.0,0.001800537,0.2250366,0.9743347,29.46767,5.566956,-22.94658,4.668549,0.6057147,0.3116535,0.04930866,1.187778,-0.2722058,-0.008352678,-0.01881309,0.006677146,0.2870355,-10.21967,31.33
3,0.04255676,0.1711273,0.984314,1.0,0.04255676,0.1711273,0.984314,-26.56696,2.586487,-25.33804,4.680023,0.3188594,0.4384034,1.0,0.001800537,0.2250366,0.9743347,29.46767,5.566956,-22.94658,4.668549,0.6057147,0.3116535,0.04930866,1.187778,-0.2722058,-0.008352678,-0.01881309,0.006677146,0.2870355,-10.21967,31.33
3,0.04057312,0.1755371,0.9836273,1.0,0.0406189,0.1755066,0.9836273,-26.6458,2.523605,-25.33659,4.756577,0.3217952,0.4398789,1.0,0.01445007,0.1928101,0.9811249,29.44522,6.099792,-24.2872,4.528244,0.6056949,0.3091511,0.04923224,1.187833,-0.2722776,-0.008775488,-0.01894412,0.006047103,0.2870355,-10.21967,31.33
3,0.03842163,0.1657257,0.9854126,1.0,0.0385437,0.1655731,0.9854279,-26.83463,2.591003,-25.53757,4.710388,0.3282328,0.4410127,1.0,-0.005157471,0.2176208,0.9760132,29.35117,5.705154,-23.07918,4.678513,0.6110997,0.3087289,0.04908681,1.187795,-0.2723943,-0.009200733,-0.01889489,0.005405662,0.2870355,-10.21967,31.33
3,-0.06610107,0.1803589,0.981369,1.0,-0.04690552,0.1869659,0.9812317,-27.80504,2.055466,-23.64166,4.576294,0.3760642,0.4396424,1.0,-0.1155548,0.1629333,0.9798431,28.57121,6.106735,-23.8412,4.434784,0.6563667,0.3099428,0.04889071,1.187955,-0.2725883,-0.009852973,-0.01847461,0.00408343,0.2870355,-10.21967,31.33
3,-0.06610107,0.1803589,0.981369,1.0,-0.04690552,0.1869659,0.9812317,-27.80504,2.055466,-23.64166,4.576294,0.3760642,0.4396424,1.0,-0.1155548,0.1629333,0.9798431,28.57121,6.106735,-23.8412,4.434784,0.6563667,0.3099428,0.04889071,1.187955,-0.2725883,-0.009852973,-0.01847461,0.00408343,0.2870355,-10.21967,31.33
3,-0.1533661,0.1769562,0.9721832,1.0,-0.15242,0.1764679,0.9724274,-28.62135,2.52977,-25.21111,4.578705,0.4191746,0.4397471,1.0,-0.1944275,0.1985321,0.9606018,27.51363,6.123825,-24.01196,4.488922,0.7065547,0.3039615,0.04882157,1.188012,-0.2727067,-0.009979201,-0.01811295,0.003803818,0.2870355,-10.21967,31.33
3,-0.2286377,0.1721039,0.9581604,1.0,-0.223526,0.1685333,0.9600067,-29.08208,2.52623,-25.35744,4.447739,0.4460828,0.4428921,1.0,-0.2947235,0.2182007,0.9303284,26.89172,6.05278,-24.2357,4.695221,0.7468215,0.3042383,0.04877067,1.188056,-0.2728438,-0.01032054,-0.01769556,0.003686443,0.2870355,-10.21967,31.33
3,-0.2286377,0.1721039,0.9581604,1.0,-0.223526,0.1685333,0.9600067,-29.08208,2.52623,-25.35744,4.447739,0.4460828,0.4428921,1.0,-0.2947235,0.2182007,0.9303284,26.89172,6.05278,-24.2357,4.695221,0.7468215,0.3042383,0.04877067,1.188056,-0.2728438,-0.01032054,-0.01769556,0.003686443,0.2870355,-10.21967,31.33
3,-0.317627,0.2185669,0.9226685,1.0,-0.2312012,0.1609955,0.9594879,-29.19685,2.490768,-25.37268,4.609695,0.4509901,0.4456621,1.0,-0.3255463,0.2238312,0.9186401,26.71048,5.989471,-24.3195,4.646194,0.7592067,0.3057901,0.04883564,1.188245,-0.2731178,-0.01060256,-0.01636653,0.004468507,0.2870355,-10.21967,31.33
3,-0.3286591,0.2382965,0.9138794,1.0,-0.2305603,0.1630859,0.9592896,-29.20222,2.496628,-25.37401,4.484116,0.4511481,0.4450088,1.0,-0.3294678,0.2389069,0.9134216,26.75954,5.974091,-24.32982,4.680191,0.7584267,0.3038803,0.0488801,1.188276,-0.2732682,-0.0108855,-0.01545046,0.004796602,0.2870355,-10.21967,31.33
3,-0.3219757,0.2158661,0.9217987,1.0,-0.228363,0.1565247,0.960907,-29.21399,2.488815,-25.36803,4.531265,0.4511105,0.4463001,1.0,-0.3225861,0.2162476,0.9214935,26.74173,6.026321,-24.26624,4.594101,0.7574007,0.3053772,0.0489639,1.188333,-0.2734081,-0.011031,-0.01423886,0.005567263,0.2870355,-10.21967,31.33
3,-0.2511902,0.1765289,0.9516907,1.0,-0.2221222,0.1572876,0.9622345,-29.20172,2.477112,-25.36388,4.554688,0.4496582,0.4465045,1.0,-0.3145142,0.2184143,0.9237671,26.77406,6.020584,-24.24835,4.600632,0.7546899,0.3051678,0.04916537,1.188411,-0.2736846,-0.01151868,-0.01138596,0.006514485,0.2870355,-10.21967,31.33
3,-0.2511902,0.1765289,0.9516907,1.0,-0.2221222,0.1572876,0.9622345,-29.20172,2.477112,-25.36388,4.554688,0.4496582,0.4465045,1.0,-0.3145142,0.2184143,0.9237671,26.77406,6.020584,-24.24835,4.600632,0.7546899,0.3051678,0.04916537,1.188411,-0.2736846,-0.01151868,-0.01138596,0.006514485,0.2870355,-10.21967,31.33
3,-0.2561035,0.180191,0.9496918,1.0,-0.2222137,0.1578522,0.9621277,-29.19533,2.479675,-25.3645,4.504791,0.4494977,0.4462704,1.0,-0.3121796,0.2171021,0.9248657,26.7944,6.017776,-24.24088,4.605942,0.7534969,0.3054575,0.04928422,1.188477,-0.2737687,-0.01185026,-0.009844651,0.006708317,0.2870355,-61.42764,31.33
3,-0.2560883,0.1776276,0.9501801,1.0,-0.224472,0.1556702,0.9619598,-29.17892,2.487488,-25.36603,4.488693,0.4493372,0.4463852,1.0,-0.3037415,0.2107086,0.9291534,26.83911,6.035416,-24.21332,4.704498,0.750236,0.3058256,0.04938853,1.188526,-0.2738644,-0.01222777,-0.007797226,0.006800971,0.2870355,-61.42764,31.33
3,-0.2540283,0.1800232,0.9502869,1.0,-0.2201843,0.155899,0.9629059,-29.174,2.490524,-25.36665,4.477722,0.4484717,0.4462108,1.0,-0.3017426,0.2140656,0.9290314,26.86288,6.035049,-24.21159,4.68222,0.7490618,0.3052769,0.04985225,1.188574,-0.2741034,-0.01285337,-0.003540039,0.007093745,0.2870355,-61.42764,31.33
3,-0.2540283,0.1800232,0.9502869,1.0,-0.2201843,0.155899,0.9629059,-29.174,2.490524,-25.36665,4.477722,0.4484717,0.4462108,1.0,-0.3017426,0.2140656,0.9290314,26.86288,6.035049,-24.21159,4.68222,0.7490618,0.3052769,0.04985225,1.188574,-0.2741034,-0.01285337,-0.003540039,0.007093745,0.2870355,-61.42764,31.33
3,-0.2541199,0.1847382,0.9493561,1.0,-0.2159424,0.1559601,0.9638519,-29.16403,2.496475,-25.36696,4.493027,0.4474297,0.4459792,1.0,-0.2993164,0.2188263,0.9287109,26.93629,6.035782,-24.19925,4.637543,0.7460526,0.3044262,0.05014908,1.188631,-0.2742219,-0.01325236,-0.001348311,0.00733032,0.2870355,-61.42764,31.33
3,-0.2481537,0.1703033,0.9536285,1.0,-0.2025604,0.1542358,0.967041,-29.08916,2.533722,-25.35101,4.393707,0.4428108,0.4446759,1.0,-0.3091125,0.191452,0.9315491,27.04811,6.169922,-24.16017,4.715988,0.7436153,0.3043854,0.0504154,1.18871,-0.2743378,-0.01358769,0.0008457279,0.007802958,0.2870355,-61.42764,31.33
3,-0.2496948,0.1701355,0.9532471,1.0,-0.2041321,0.1519623,0.9670715,-29.0667,2.546417,-25.34848,4.412766,0.4423174,0.4446371,1.0,-0.3107452,0.1941833,0.9304352,27.08289,6.156158,-24.16173,4.681244,0.7426889,0.3044596,0.05095971,1.188894,-0.2745819,-0.01437945,0.005401526,0.008763595,0.2870355,-61.42764,31.33
3,-0.2496948,0.1701355,0.9532471,1.0,-0.2041321,0.1519623,0.9670715,-29.0667,2.546417,-25.34848,4.412766,0.4423174,0.4446371,1.0,-0.3107452,0.1941833,0.9304352,27.08289,6.156158,-24.16173,4.681244,0.7426889,0.3044596,0.05095971,1.188894,-0.2745819,-0.01437945,0.005401526,0.008763595,0.2870355,-61.42764,31.33
3,-0.2352142,0.1849365,0.9541779,1.0,-0.1922455,0.1464691,0.9703522,-29.00955,2.557709,-25.33472,4.397842,0.4384636,0.44491,1.0,-0.2825775,0.2274628,0.9318695,27.06847,6.019684,-24.1714,4.62764,0.7383736,0.3034193,0.05126679,1.189001,-0.2747289,-0.0147215,0.007685584,0.009245164,0.2870355,-61.42764,31.33
3,-0.2302399,0.1834106,0.9556885,1.0,-0.1951141,0.1499634,0.9692383,-28.96042,2.565186,-25.34543,4.43219,0.4373173,0.444244,1.0,-0.2692261,0.2206726,0.937439,27.15112,6.005432,-24.13947,4.607559,0.7328816,0.3049134,0.05157053,1.189073,-0.2749406,-0.01500571,0.009971732,0.009758756,0.2870355,-61.42764,31.33
3,-0.2160187,0.1801453,0.95961,1.0,-0.1793823,0.1438141,0.9732056,-28.92181,2.564575,-25.35944,4.372543,0.4334498,0.4451841,1.0,-0.2586365,0.2225189,0.9399872,27.18997,5.997299,-24.13382,4.615952,0.7296123,0.3048649,0.05258381,1.189235,-0.2754066,-0.01637336,0.01662533,0.01131441,0.2870355,-61.42764,31.35
3,-0.2160187,0.1801453,0.95961,1.0,-0.1793823,0.1438141,0.9732056,-28.92181,2.564575,-25.35944,4.372543,0.4334498,0.4451841,1.0,-0.2586365,0.2225189,0.9399872,27.18997,5.997299,-24.13382,4.615952,0.7296123,0.3048649,0.05258381,1.189235,-0.2754066,-0.01637336,0.01662533,0.01131441,0.2870355,-61.42764,31.35
3,-0.2160187,0.1801453,0.95961,1.0,-0.1793823,0.1438141,0.9732056,-28.92181,2.564575,-25.35944,4.372543,0.4334498,0.4451841,1.0,-0.2586365,0.2225189,0.9399872,27.18997,5.997299,-24.13382,4.615952,0.7296123,0.3048649,0.05258381,1.189235,-0.2754066,-0.01637336,0.01662533,0.01131441,0.2870355,-61.42764,31.35
3,-0.2203369,0.1842194,0.9578552,1.0,-0.1743774,0.1473083,0.973587,-28.83987,2.582687,-25.39435,4.396042,0.4299193,0.4442934,1.0,-0.2703552,0.2243805,0.9362335,27.26181,5.963089,-24.12883,4.654892,0.7291595,0.3058552,0.05295551,1.189324,-0.2756029,-0.01665444,0.01877503,0.01182256,0.2870355,-61.42764,31.35
3,-0.2183075,0.1949463,0.956192,1.0,-0.1709137,0.1644135,0.9714661,-28.77649,2.462646,-25.27022,4.432648,0.4273289,0.4443882,1.0,-0.2583466,0.2206116,0.9405212,27.31671,5.931503,-24.10869,4.662369,0.7249609,0.3074926,0.05332553,1.189473,-0.2757851,-0.01692469,0.02093675,0.01214523,0.2870355,-61.42764,31.35
3,-0.2217712,0.194458,0.9555054,1.0,-0.1678009,0.1457062,0.9749908,-28.78973,2.591629,-25.46507,4.34024,0.4271824,0.4447341,1.0,-0.2606659,0.2296143,0.9377136,27.34489,5.935104,-24.11461,4.684937,0.7245169,0.3059264,0.05371881,1.189549,-0.2759879,-0.01719459,0.02294759,0.01232185,0.2870355,26.41069,31.35
3,-0.2102966,0.2025299,0.9564209,1.0,-0.1635895,0.1605988,0.9733582,-28.70036,2.443237,-25.21236,4.389832,0.4236457,0.4450429,1.0,-0.2316284,0.2216644,0.9472046,27.39197,5.922287,-24.07526,4.519943,0.7175176,0.3073235,0.05442607,1.189732,-0.2763647,-0.01793146,0.02712599,0.01260579,0.2870355,26.41069,31.35
3,-0.2102966,0.2025299,0.9564209,1.0,-0.1635895,0.1605988,0.9733582,-28.70036,2.443237,-25.21236,4.389832,0.4236457,0.4450429,1.0,-0.2316284,0.2216644,0.9472046,27.39197,5.922287,-24.07526,4.519943,0.7175176,0.3073235,0.05442607,1.189732,-0.2763647,-0.01793146,0.02712599,0.01260579,0.2870355,26.41069,31.35
3,-0.2132568,0.2061462,0.9549866,1.0,-0.1611786,0.166275,0.9728088,-28.66127,2.440323,-25.20543,4.326645,0.4220148,0.4440657,1.0,-0.2266541,0.2163696,0.9496307,27.41603,5.914063,-24.06581,4.458878,0.7157114,0.3084185,0.0547713,1.18979,-0.2765492,-0.01824247,0.02916101,0.01267005,0.2870355,26.41069,31.35
3,-0.2132568,0.2061462,0.9549866,1.0,-0.1611786,0.166275,0.9728088,-28.66127,2.440323,-25.20543,4.326645,0.4220148,0.4440657,1.0,-0.2266541,0.2163696,0.9496307,27.41603,5.914063,-24.06581,4.458878,0.7157114,0.3084185,0.0547713,1.18979,-0.2765492,-0.01824247,0.02916101,0.01267005,0.2870355,26.41069,31.35
3,-0.2132568,0.2061462,0.9549866,1.0,-0.1611786,0.166275,0.9728088,-28.66127,2.440323,-25.20543,4.326645,0.4220148,0.4440657,1.0,-0.2266541,0.2163696,0.9496307,27.41603,5.914063,-24.06581,4.458878,0.7157114,0.3084185,0.05519545,1.189894,-0.276752,-0.01855509,0.03125644,0.01289851,0.2870355,26.41069,31.35
3,-0.2132568,0.2061462,0.9549866,1.0,-0.1611786,0.166275,0.9728088,-28.66127,2.440323,-25.20543,4.326645,0.4220148,0.4440657,1.0,-0.2266541,0.2163696,0.9496307,27.41603,5.914063,-24.06581,4.458878,0.7157114,0.3084185,0.05519545,1.189894,-0.276752,-0.01855509,0.03125644,0.01289851,0.2870355,26.41069,31.35
3,-0.2132568,0.2061462,0.9549866,1.0,-0.1611786,0.166275,0.9728088,-28.66127,2.440323,-25.20543,4.326645,0.4220148,0.4440657,1.0,-0.2266541,0.2163696,0.9496307,27.41603,5.914063,-24.06581,4.458878,0.7157114,0.3084185,0.0560832,1.18986,-0.277234,-0.0186552,0.03500312,0.01327315,0.2870355,26.41069,31.35
3,-0.2132568,0.2061462,0.9549866,1.0,-0.1611786,0.166275,0.9728088,-28.66127,2.440323,-25.20543,4.326645,0.4220148,0.4440657,1.0,-0.2266541,0.2163696,0.9496307,27.41603,5.914063,-24.06581,4.458878,0.7157114,0.3084185,0.05690777,1.189873,-0.2777171,-0.0187663,0.03809806,0.01384409,0.2870355,26.41069,31.35
3,-0.2138367,0.2115936,0.9536743,1.0,-0.1586914,0.1710205,0.9723969,-28.58925,2.499542,-25.18552,4.371185,0.4192487,0.4411996,1.0,-0.2328186,0.2254944,0.9460144,27.55325,5.922043,-24.07742,4.505157,0.7121712,0.3068753,0.05761504,1.189894,-0.2782197,-0.01872695,0.04067653,0.01420901,0.2870355,26.41069,31.35
3,-0.2138367,0.2115936,0.9536743,1.0,-0.1586914,0.1710205,0.9723969,-28.58925,2.499542,-25.18552,4.371185,0.4192487,0.4411996,1.0,-0.2328186,0.2254944,0.9460144,27.55325,5.922043,-24.07742,4.505157,0.7121712,0.3068753,0.05761504,1.189894,-0.2782197,-0.01872695,0.04067653,0.01420901,0.2870355,26.41069,31.35
4,-0.2055054,0.2081757,0.9562531,1.0,-0.1519012,0.1634521,0.9747772,-28.56062,2.493988,-25.09239,4.297989,0.4172398,0.4417015,1.0,-0.2282104,0.2270813,0.9467468,27.56795,5.938858,-24.07805,4.434067,0.7108923,0.3059784,0.05831468,1.189867,-0.2786411,-0.01876749,0.04224533,0.01443272,0.2870355,26.41069,31.35
4,-0.2055054,0.2081757,0.9562531,1.0,-0.1519012,0.1634521,0.9747772,-28.56062,2.493988,-25.09239,4.297989,0.4172398,0.4417015,1.0,-0.2282104,0.2270813,0.9467468,27.56795,5.938858,-24.07805,4.434067,0.7108923,0.3059784,0.05831468,1.189867,-0.2786411,-0.01876749,0.04224533,0.01443272,0.2870355,26.41069,31.35
4,-0.2012634,0.2088165,0.957016,1.0,-0.1498413,0.1671753,0.9744568,-28.54131,2.500946,-25.06676,4.339661,0.4162702,0.440682,1.0,-0.2233887,0.2266846,0.947998,27.56795,5.956696,-24.07466,4.429733,0.7100485,0.3053888,0.05881321,1.189913,-0.2790579,-0.01878059,0.0431145,0.0143265,0.2870355,26.41069,31.35
4,-0.2012634,0.2088165,0.957016,1.0,-0.1498413,0.1671753,0.9744568,-28.54131,2.500946,-25.06676,4.339661,0.4162702,0.440682,1.0,-0.2233887,0.2266846,0.947998,27.56795,5.956696,-24.07466,4.429733,0.7100485,0.3053888,0.05881321,1.189913,-0.2790579,-0.01878059,0.0431145,0.0143265,0.2870355,26.41069,31.35
4,-0.1902771,0.1956024,0.9620361,1.0,-0.1512146,0.1652679,0.9745789,-28.52591,2.509644,-25.05263,4.31987,0.4160018,0.4405686,1.0,-0.2194519,0.2181702,0.9509125,27.55617,6.001053,-24.05389,4.433914,0.7096832,0.3051317,0.05904281,1.18995,-0.2793285,-0.01899047,0.04302593,0.01372626,0.2870355,26.41069,31.35
4,-0.1902771,0.1956024,0.9620361,1.0,-0.1512146,0.1652679,0.9745789,-28.52591,2.509644,-25.05263,4.31987,0.4160018,0.4405686,1.0,-0.2194519,0.2181702,0.9509125,27.55617,6.001053,-24.05389,4.433914,0.7096832,0.3051317,0.05904281,1.18995,-0.2793285,-0.01899047,0.04302593,0.01372626,0.2870355,26.41069,31.35
4,-0.1805573,0.1915741,0.9647217,1.0,-0.1423492,0.1641235,0.9761047,-28.50954,2.543976,-25.00221,4.348953,0.4140116,0.43919,1.0,-0.2155609,0.216568,0.9521637,27.55487,6.008865,-24.05357,4.433319,0.7090288,0.3051249,0.05912435,1.189975,-0.279608,-0.01904962,0.04180993,0.0131048,0.2870355,16.58037,31.35
4,-0.1805573,0.1915741,0.9647217,1.0,-0.1423492,0.1641235,0.9761047,-28.50954,2.543976,-25.00221,4.348953,0.4140116,0.43919,1.0,-0.2155609,0.216568,0.9521637,27.55487,6.008865,-24.05357,4.433319,0.7090288,0.3051249,0.05912435,1.189975,-0.279608,-0.01904962,0.04180993,0.0131048,0.2870355,16.58037,31.35
4,-0.16922,0.2030029,0.9644318,1.0,-0.1359558,0.1698608,0.9760437,-28.24243,2.36644,-24.16711,4.3871,0.4046158,0.4370034,1.0,-0.170105,0.2038727,0.9640961,27.83607,6.112122,-23.9825,4.307632,0.6912736,0.3032871,0.059075,1.190006,-0.279781,-0.01905822,0.03921802,0.01246732,0.2870355,16.58037,31.35
4,-0.16922,0.2030029,0.9644318,1.0,-0.1359558,0.1698608,0.9760437,-28.24243,2.36644,-24.16711,4.3871,0.4046158,0.4370034,1.0,-0.170105,0.2038727,0.9640961,27.83607,6.112122,-23.9825,4.307632,0.6912736,0.3032871,0.059075,1.190006,-0.279781,-0.01905822,0.03921802,0.01246732,0.2870355,16.58037,31.35
4,-0.06903076,0.1572876,0.9851227,1.0,-0.02911377,0.1603088,0.9866333,-27.34126,2.816269,-25.10637,4.327164,0.3569656,0.4309358,1.0,-0.06903076,0.1572876,0.9851227,28.97649,6.642242,-25.36028,4.222794,0.6370593,0.3039142,0.05880105,1.190014,-0.2799175,-0.01913313,0.03593784,0.01176127,0.2870355,16.58037,31.35
4,-0.06903076,0.1572876,0.9851227,1.0,-0.02911377,0.1603088,0.9866333,-27.34126,2.816269,-25.10637,4.327164,0.3569656,0.4309358,1.0,-0.06903076,0.1572876,0.9851227,28.97649,6.642242,-25.36028,4.222794,0.6370593,0.3039142,0.05880105,1.190014,-0.2799175,-0.01913313,0.03593784,0.01176127,0.2870355,16.58037,31.35
4,0.03105164,0.1519623,0.9878845,0.7910035,0.03105164,0.1519623,0.9878845,-26.85089,3.211166,-26.16496,4.306442,0.3293804,0.4275801,0.8250146,0.0,0.0,0.0,29.61475,7.298431,-27.60757,-1.0,0.6056402,0.3080737,0.05838311,1.189921,-0.2801375,-0.01925541,0.03208801,0.01087317,0.2870355,16.58037,31.35
4,0.03105164,0.1519623,0.9878845,0.7910035,0.03105164,0.1519623,0.9878845,-26.85089,3.211166,-26.16496,4.306442,0.3293804,0.4275801,0.8250146,0.0,0.0,0.0,29.61475,7.298431,-27.60757,-1.0,0.6056402,0.3080737,0.05838311,1.189921,-0.2801375,-0.01925541,0.03208801,0.01087317,0.2870355,16.58037,31.35
4,-1.0,-1.0,-1.0,0.6025524,0.0,0.0,0.0,-26.23961,2.899033,-25.14433,-1.0,0.2969619,0.4265926,0.6353458,0.0,0.0,0.0,30.1143,6.753738,-24.20734,-1.0,0.5722004,0.3235703,0.05781734,1.189842,-0.2802653,-0.01956593,0.02738976,0.009536341,0.2870355,16.58037,31.35
4,-1.0,-1.0,-1.0,0.6025524,0.0,0.0,0.0,-26.23961,2.899033,-25.14433,-1.0,0.2969619,0.4265926,0.6353458,0.0,0.0,0.0,30.1143,6.753738,-24.20734,-1.0,0.5722004,0.3235703,0.05781734,1.189842,-0.2802653,-0.01956593,0.02738976,0.009536341,0.2870355,16.58037,31.35
4,-1.0,-1.0,-1.0,0.4980788,0.0,0.0,0.0,-26.09505,3.058548,-25.03253,-1.0,0.2801199,0.4404331,0.4247013,0.0,0.0,0.0,29.06569,4.852493,-25.57791,-1.0,0.6009676,0.3890791,0.05711973,1.189914,-0.2803051,-0.01972295,0.02222719,0.008308856,0.2870355,16.58037,31.35
4,-1.0,-1.0,-1.0,0.4980788,0.0,0.0,0.0,-26.09505,3.058548,-25.03253,-1.0,0.2801199,0.4404331,0.4247013,0.0,0.0,0.0,29.06569,4.852493,-25.57791,-1.0,0.6009676,0.3890791,0.05711973,1.189914,-0.2803051,-0.01972295,0.02222719,0.008308856,0.2870355,16.58037,31.35
4,-1.0,-1.0,-1.0,0.2083399,0.0,0.0,0.0,-25.97504,1.349731,-25.35991,-1.0,-1.0,-1.0,0.3596255,0.0,0.0,0.0,31.71005,5.048477,-24.69594,-1.0,0.4460594,0.3781154,0.05633163,1.18993,-0.280373,-0.0199957,0.01669643,0.007382984,0.2870355,16.58037,31.35
4,-1.0,-1.0,-1.0,0.2083399,0.0,0.0,0.0,-25.97504,1.349731,-25.35991,-1.0,-1.0,-1.0,0.3596255,0.0,0.0,0.0,31.71005,5.048477,-24.69594,-1.0,0.4460594,0.3781154,0.05633163,1.18993,-0.280373,-0.0199957,0.01669643,0.007382984,0.2870355,16.58037,31.35
4,-1.0,-1.0,-1.0,0.03353165,0.0,0.0,0.0,-25.97504,1.349731,-25.35991,-1.0,-1.0,-1.0,0.2461206,0.0,0.0,0.0,31.71005,5.048477,-24.69594,-1.0,-1.0,-1.0,0.05562985,1.190089,-0.2803793,-0.02028646,0.01084023,0.006512197,0.2870355,-0.4404221,31.35
4,-1.0,-1.0,-1.0,0.03353165,0.0,0.0,0.0,-25.97504,1.349731,-25.35991,-1.0,-1.0,-1.0,0.2461206,0.0,0.0,0.0,31.71005,5.048477,-24.69594,-1.0,-1.0,-1.0,0.05562985,1.190089,-0.2803793,-0.02028646,0.01084023,0.006512197,0.2870355,-0.4404221,31.35
4,-1.0,-1.0,-1.0,0.1212867,0.0,0.0,0.0,-25.41002,3.269211,-25.2072,-1.0,0.2440629,0.4334147,0.2859038,0.0,0.0,0.0,34.37213,5.202271,-29.73492,-1.0,-1.0,-1.0,0.05466616,1.190248,-0.2804039,-0.02085688,0.004776367,0.005951475,0.2870355,-0.4404221,31.35
4,-1.0,-1.0,-1.0,0.1212867,0.0,0.0,0.0,-25.41002,3.269211,-25.2072,-1.0,0.2440629,0.4334147,0.2859038,0.0,0.0,0.0,34.37213,5.202271,-29.73492,-1.0,-1.0,-1.0,0.05466616,1.190248,-0.2804039,-0.02085688,0.004776367,0.005951475,0.2870355,-0.4404221,31.35
4,-1.0,-1.0,-1.0,0.3637244,0.0,0.0,0.0,-25.61385,3.053909,-25.28197,-1.0,0.2489399,0.4262441,0.4169845,0.0,0.0,0.0,30.59001,6.568817,-23.94554,-1.0,0.5337231,0.3327508,0.05369747,1.190385,-0.2804331,-0.02169557,-0.001268592,0.005748981,0.2870355,-0.4404221,31.35
4,-1.0,-1.0,-1.0,0.3637244,0.0,0.0,0.0,-25.61385,3.053909,-25.28197,-1.0,0.2489399,0.4262441,0.4169845,0.0,0.0,0.0,30.59001,6.568817,-23.94554,-1.0,0.5337231,0.3327508,0.05369747,1.190385,-0.2804331,-0.02169557,-0.001268592,0.005748981,0.2870355,-0.4404221,31.35
4,-1.0,-1.0,-1.0,0.5104994,0.0,0.0,0.0,-25.94568,2.580795,-25.19467,-1.0,0.277922,0.4370519,0.5595639,0.0,0.0,0.0,30.31281,6.436234,-23.97299,-1.0,0.5582052,0.3243833,0.05278659,1.190578,-0.2804332,-0.02245397,-0.007187651,0.005549838,0.2870355,-0.4404221,31.35
4,-1.0,-1.0,-1.0,0.5104994,0.0,0.0,0.0,-25.94568,2.580795,-25.19467,-1.0,0.277922,0.4370519,0.5595639,0.0,0.0,0.0,30.31281,6.436234,-23.97299,-1.0,0.5582052,0.3243833,0.05278659,1.190578,-0.2804332,-0.02245397,-0.007187651,0.005549838,0.2870355,-0.4404221,31.35
4,-1.0,-1.0,-1.0,0.5984979,0.0,0.0,0.0,-26.06419,2.501205,-25.16069,-1.0,0.2852064,0.4422435,0.6257041,0.0,0.0,0.0,30.15977,6.04039,-24.32671,-1.0,0.5673156,0.3245944,0.05184972,1.190682,-0.2805616,-0.02317697,-0.01284873,0.005372481,0.2870355,-0.4404221,31.35
4,-1.0,-1.0,-1.0,0.5984979,0.0,0.0,0.0,-26.06419,2.501205,-25.16069,-1.0,0.2852064,0.4422435,0.6257041,0.0,0.0,0.0,30.15977,6.04039,-24.32671,-1.0,0.5673156,0.3245944,0.05184972,1.190682,-0.2805616,-0.02317697,-0.01284873,0.005372481,0.2870355,-0.4404221,31.35
4,0.107666,0.1453094,0.9835052,0.7724121,0.107666,0.1453094,0.9835052,-26.04607,2.480438,-25.17084,4.467484,0.2907825,0.4442049,0.7975847,0.08242798,0.1520538,0.9849243,30.1488,5.958115,-24.42195,4.219955,0.5708722,0.3212621,0.05094123,1.190766,-0.2807378,-0.02378461,-0.01816511,0.005315318,0.2870355,-0.4404221,31.35
4,0.1051331,0.1557922,0.9821625,0.8557743,0.1051331,0.1557922,0.9821625,-26.16692,2.431931,-25.15343,4.492798,0.2952763,0.4440448,0.8717279,0.04177856,0.1703491,0.9844818,30.19591,6.092667,-25.37358,4.373642,0.5769784,0.320742,0.05001366,1.190892,-0.2808882,-0.0239973,-0.02293233,0.005074367,0.2870355,-0.4404221,31.35
4,0.1051331,0.1557922,0.9821625,0.8557743,0.1051331,0.1557922,0.9821625,-26.16692,2.431931,-25.15343,4.492798,0.2952763,0.4440448,0.8717279,0.04177856,0.1703491,0.9844818,30.19591,6.092667,-25.37358,4.373642,0.5769784,0.320742,0.05001366,1.190892,-0.2808882,-0.0239973,-0.02293233,0.005074367,0.2870355,-0.4404221,31.35
4,0.1051331,0.1557922,0.9821625,0.8557743,0.1051331,0.1557922,0.9821625,-26.16692,2.431931,-25.15343,4.492798,0.2952763,0.4440448,0.8717279,0.04177856,0.1703491,0.9844818,30.19591,6.092667,-25.37358,4.373642,0.5769784,0.320742,0.05001366,1.190892,-0.2808882,-0.0239973,-0.02293233,0.005074367,0.2870355,-0.4404221,31.35
4,0.09086609,0.1563873,0.9835052,0.995258,0.09086609,0.1563873,0.9835052,-26.23901,2.390976,-25.23441,4.583542,0.299961,0.4460956,0.9937896,0.03056335,0.1488342,0.9883728,30.1124,6.00325,-25.10921,4.191696,0.5813383,0.3252461,0.04919612,1.190841,-0.2811133,-0.0240094,-0.02714,0.00493291,0.2870355,-0.4404221,31.35
4,0.09086609,0.1563873,0.9835052,0.995258,0.09086609,0.1563873,0.9835052,-26.23901,2.390976,-25.23441,4.583542,0.299961,0.4460956,0.9937896,0.03056335,0.1488342,0.9883728,30.1124,6.00325,-25.10921,4.191696,0.5813383,0.3252461,0.04919612,1.190841,-0.2811133,-0.0240094,-0.02714,0.00493291,0.2870355,-0.4404221,31.35
4,0.08543396,0.1538849,0.984375,1.0,0.08544922,0.1538849,0.984375,-26.3109,2.332687,-25.07748,4.563889,0.3034857,0.4471073,1.0,0.03582764,0.1506805,0.9879303,30.02049,5.918732,-24.84123,4.199188,0.5832849,0.3257806,0.04845154,1.190797,-0.2813029,-0.02369265,-0.03061922,0.004841438,0.2870355,-52.69577,31.35
4,0.08543396,0.1538849,0.984375,1.0,0.08544922,0.1538849,0.984375,-26.3109,2.332687,-25.07748,4.563889,0.3034857,0.4471073,1.0,0.03582764,0.1506805,0.9879303,30.02049,5.918732,-24.84123,4.199188,0.5832849,0.3257806,0.04845154,1.190797,-0.2813029,-0.02369265,-0.03061922,0.004841438,0.2870355,-52.69577,31.35
4,0.07839966,0.1482086,0.9858398,1.0,0.07839966,0.1482086,0.9858398,-26.38295,2.254105,-24.8855,4.631088,0.3073668,0.4491055,1.0,0.0664978,0.1786194,0.9816589,29.75192,5.383957,-22.80644,4.359329,0.5852031,0.3242728,0.04777074,1.190731,-0.2814871,-0.02311259,-0.03352625,0.004779486,0.2870355,-52.69577,31.35
4,0.07839966,0.1482086,0.9858398,1.0,0.07839966,0.1482086,0.9858398,-26.38295,2.254105,-24.8855,4.631088,0.3073668,0.4491055,1.0,0.0664978,0.1786194,0.9816589,29.75192,5.383957,-22.80644,4.359329,0.5852031,0.3242728,0.04777074,1.190731,-0.2814871,-0.02311259,-0.03352625,0.004779486,0.2870355,-52.69577,31.35
4,0.0846405,0.151947,0.9847412,1.0,0.0846405,0.151947,0.9847412,-26.54533,2.216476,-24.67285,4.551147,0.3120064,0.4479505,1.0,0.0528717,0.1949463,0.9793701,29.74277,5.168274,-22.22926,4.43306,0.5873339,0.3242237,0.04750824,1.190673,-0.2815993,-0.02292063,-0.03469547,0.004632242,0.2870355,-52.69577,31.35
4,0.08308411,0.1548767,0.9844208,1.0,0.08308411,0.1548767,0.9844208,-26.55222,2.211746,-24.65721,4.568497,0.3125271,0.4475374,1.0,0.04879761,0.1950226,0.9795685,29.7357,5.154419,-22.15512,4.447662,0.588122,0.3242728,0.04697299,1.190684,-0.2818108,-0.02233453,-0.03685877,0.004353651,0.2870355,-52.69577,31.35
4,0.08308411,0.1548767,0.9844208,1.0,0.08308411,0.1548767,0.9844208,-26.55222,2.211746,-24.65721,4.568497,0.3125271,0.4475374,1.0,0.04879761,0.1950226,0.9795685,29.7357,5.154419,-22.15512,4.447662,0.588122,0.3242728,0.04697299,1.190684,-0.2818108,-0.02233453,-0.03685877,0.004353651,0.2870355,-52.69577,31.35
4,0.07545471,0.1554718,0.9849396,1.0,0.07545471,0.1554718,0.9849396,-26.65466,2.111786,-24.30652,4.504211,0.317654,0.4477513,1.0,0.04626465,0.197113,0.9792786,29.6637,5.129852,-22.07677,4.481277,0.5908238,0.324201,0.04670906,1.190626,-0.2819228,-0.02217685,-0.0376244,0.004375842,0.2870355,-52.69577,31.35
4,0.07194519,0.1459503,0.9866638,1.0,0.07199097,0.1458588,0.9866791,-26.68211,2.123535,-24.3455,4.553085,0.3190945,0.4493147,1.0,0.04367065,0.1987152,0.9790802,29.64648,5.124344,-22.06844,4.488647,0.5918078,0.324067,0.0464679,1.190638,-0.2820476,-0.02200789,-0.03843335,0.004461833,0.2870355,-52.69577,31.35
4,0.04241943,0.1469879,0.9882202,1.0,0.04241943,0.1467438,0.9882507,-26.61845,2.253937,-24.81758,4.565948,0.3213146,0.4488584,1.0,0.04237366,0.199646,0.9789429,29.61319,5.115738,-22.05563,4.512833,0.5931039,0.324125,0.0462842,1.190585,-0.282173,-0.02188023,-0.03899722,0.004471841,0.2870355,-52.69577,31.35
4,0.0428772,0.2020111,0.9784393,1.0,0.04447937,0.1482544,0.9879456,-26.66306,2.257797,-24.81328,4.627975,0.3224057,0.448499,1.0,0.04286194,0.2028198,0.9782715,29.55928,5.101349,-22.03212,4.533493,0.5947732,0.323933,0.04596579,1.190554,-0.2823703,-0.02195196,-0.03988786,0.004419889,0.2870355,-52.69577,31.35
4,0.0428772,0.2020111,0.9784393,1.0,0.04447937,0.1482544,0.9879456,-26.66306,2.257797,-24.81328,4.627975,0.3224057,0.448499,1.0,0.04286194,0.2028198,0.9782715,29.55928,5.101349,-22.03212,4.533493,0.5947732,0.323933,0.04596579,1.190554,-0.2823703,-0.02195196,-0.03988786,0.004419889,0.2870355,-52.69577,31.35
4,0.03262329,0.2029877,0.9786224,1.0,0.04440308,0.1468964,0.9881439,-26.69855,2.252823,-24.79967,4.580154,0.3236307,0.4487504,1.0,0.03256226,0.2032776,0.9785767,29.50446,5.09317,-21.98241,4.542633,0.5982075,0.3237633,0.04569626,1.190512,-0.2824845,-0.02214996,-0.0404543,0.004272461,0.2870355,-52.69577,31.35
4,0.03262329,0.2029877,0.9786224,1.0,0.04440308,0.1468964,0.9881439,-26.69855,2.252823,-24.79967,4.580154,0.3236307,0.4487504,1.0,0.03256226,0.2032776,0.9785767,29.50446,5.09317,-21.98241,4.542633,0.5982075,0.3237633,0.04569626,1.190512,-0.2824845,-0.02214996,-0.0404543,0.004272461,0.2870355,-52.69577,31.35
4,0.03024292,0.2043152,0.9784241,1.0,0.0464325,0.1463623,0.9881287,-26.71165,2.276077,-24.86873,4.665741,0.3236307,0.4487504,1.0,0.02999878,0.2052002,0.9782562,29.46594,5.09317,-21.98241,4.546921,0.5998905,0.3234523,0.0456326,1.190572,-0.2825117,-0.02217383,-0.0406562,0.004150391,0.2870355,33.60284,31.35
4,0.03352356,0.1826324,0.982605,1.0,0.04574585,0.1411285,0.9889221,-26.7216,2.281342,-24.86873,4.642471,0.3240787,0.4494039,1.0,0.02661133,0.2058258,0.9782104,29.44958,5.09317,-21.98241,4.568802,0.6009887,0.3233743,0.04544628,1.190583,-0.2824945,-0.0222426,-0.04094963,0.004032018,0.2870355,33.60284,31.35
4,0.03352356,0.1826324,0.982605,1.0,0.04574585,0.1411285,0.9889221,-26.7216,2.281342,-24.86873,4.642471,0.3240787,0.4494039,1.0,0.02661133,0.2058258,0.9782104,29.44958,5.09317,-21.98241,4.568802,0.6009887,0.3233743,0.04544628,1.190583,-0.2824945,-0.0222426,-0.04094963,0.004032018,0.2870355,33.60284,31.35
4,0.0337677,0.1616821,0.9862518,1.0,0.0438385,0.1399994,0.9891663,-26.73422,2.291641,-24.88499,4.640717,0.3247932,0.4493899,1.0,0.01567078,0.2002716,0.979599,29.42668,5.192062,-22.30093,4.554077,0.6038492,0.3233743,0.04519451,1.190605,-0.2825654,-0.02247453,-0.04109348,0.003972446,0.2870355,33.60284,31.35
4,0.0337677,0.1616821,0.9862518,1.0,0.0438385,0.1399994,0.9891663,-26.73422,2.291641,-24.88499,4.640717,0.3247932,0.4493899,1.0,0.01567078,0.2002716,0.979599,29.42668,5.192062,-22.30093,4.554077,0.6038492,0.3233743,0.04519451,1.190605,-0.2825654,-0.02247453,-0.04109348,0.003972446,0.2870355,33.60284,31.35
4,0.03814697,0.1439209,0.9888458,1.0,0.03977966,0.1401215,0.9893188,-26.73981,2.303467,-24.89412,4.640915,0.3256409,0.4490631,1.0,0.01420593,0.1991882,0.9798431,29.41989,5.204849,-22.31929,4.567673,0.6043615,0.3232141,0.04505622,1.190596,-0.2825876,-0.02256816,-0.04118711,0.003836971,0.2870355,33.60284,31.35
4,0.03688049,0.1415863,0.9892273,1.0,0.037323,0.1404724,0.9893799,-26.74542,2.318359,-24.91399,4.64061,0.3262112,0.4486913,1.0,0.01473999,0.1963501,0.9804077,29.41013,5.242355,-22.40434,4.577347,0.6046881,0.3230743,0.04491377,1.190663,-0.282545,-0.02282095,-0.04139066,0.003758497,0.2870355,33.60284,31.35
4,0.03688049,0.1415863,0.9892273,1.0,0.037323,0.1404724,0.9893799,-26.74542,2.318359,-24.91399,4.64061,0.3262112,0.4486913,1.0,0.01473999,0.1963501,0.9804077,29.41013,5.242355,-22.40434,4.577347,0.6046881,0.3230743,0.04491377,1.190663,-0.282545,-0.02282095,-0.04139066,0.003758497,0.2870355,33.60284,31.35
4,0.03688049,0.1429749,0.9890289,1.0,0.03790283,0.1407013,0.9893188,-26.75136,2.331284,-24.9296,4.64032,0.3262926,0.4483577,1.0,0.01272583,0.1956787,0.9805756,29.40901,5.26857,-22.4357,4.575745,0.6051021,0.3225347,0.04484928,1.190646,-0.2825261,-0.02289298,-0.04150121,0.00382725,0.2870355,33.60284,31.35
4,0.0327301,0.1502533,0.9880981,1.0,0.03860474,0.1398773,0.9894104,-26.75916,2.355774,-24.97079,4.645096,0.3263915,0.4480433,1.0,0.00994873,0.1902008,0.9816895,29.40663,5.302826,-22.46724,4.585464,0.6056718,0.3225347,0.04467905,1.190688,-0.2824836,-0.0229755,-0.04171573,0.004039403,0.2870355,33.60284,31.35
4,0.0327301,0.1502533,0.9880981,1.0,0.03860474,0.1398773,0.9894104,-26.75916,2.355774,-24.97079,4.645096,0.3263915,0.4480433,1.0,0.00994873,0.1902008,0.9816895,29.40663,5.302826,-22.46724,4.585464,0.6056718,0.3225347,0.04467905,1.190688,-0.2824836,-0.0229755,-0.04171573,0.004039403,0.2870355,33.60284,31.35
4,0.02854919,0.1582489,0.986969,1.0,0.03894043,0.1401672,0.9893494,-26.76326,2.368851,-24.98114,4.644363,0.3264571,0.4476569,1.0,0.009628296,0.1909637,0.9815369,29.40656,5.303101,-22.46724,4.585892,0.6057315,0.322398,0.04456306,1.190678,-0.2824537,-0.02280494,-0.04184911,0.004006064,0.2870355,33.60284,31.35
4,-0.006790161,0.1067657,0.9942474,1.0,-0.005615234,0.1056671,0.9943695,-27.14723,2.043549,-24.63283,4.653793,0.3468103,0.4611329,1.0,-0.03088379,0.1292572,0.9911194,28.93916,5.431488,-23.36896,4.542801,0.6286543,0.3349788,0.04440129,1.190723,-0.282395,-0.0227454,-0.04180387,0.003873689,0.2870355,33.60284,31.35
4,-0.04234314,0.06195068,0.9971771,1.0,-0.04232788,0.06190491,0.9971771,-27.34442,1.991592,-24.97299,4.657333,0.3589307,0.4729903,1.0,-0.0627594,0.09255981,0.9937134,28.60989,5.152512,-23.3308,4.52623,0.6447365,0.3496877,0.04422927,1.190657,-0.2824457,-0.02230883,-0.04155611,0.003623248,0.2870355,33.60284,31.35
4,-0.04234314,0.06195068,0.9971771,1.0,-0.04232788,0.06190491,0.9971771,-27.34442,1.991592,-24.97299,4.657333,0.3589307,0.4729903,1.0,-0.0627594,0.09255981,0.9937134,28.60989,5.152512,-23.3308,4.52623,0.6447365,0.3496877,0.04422927,1.190657,-0.2824457,-0.02230883,-0.04155611,0.003623248,0.2870355,33.60284,31.35
4,-0.03746033,0.01998901,0.9990845,1.0,-0.03730774,0.01982117,0.9990997,-27.61021,1.697189,-24.6525,4.547607,0.3670425,0.4866332,1.0,-0.08068848,0.06251526,0.9947662,28.30272,4.690704,-22.66808,4.643234,0.6567415,0.3648072,0.04412615,1.190598,-0.2823595,-0.02223456,-0.04131589,0.00351045,0.2870355,33.60284,31.35
4,-0.04579163,0.02406311,0.9986572,1.0,-0.04551697,0.02363586,0.9986725,-27.58479,1.809067,-25.18082,4.583221,0.3671156,0.4870155,1.0,-0.06930542,0.06147766,0.995697,28.32123,4.705231,-22.75177,4.56012,0.654305,0.3651594,0.04410338,1.190566,-0.2822903,-0.02198825,-0.04117626,0.003617073,0.2870355,33.60284,31.35
4,-0.05149841,0.03179932,0.9981537,1.0,-0.04812622,0.02702332,0.9984741,-27.60599,1.812134,-25.26382,4.57637,0.3681597,0.4870929,1.0,-0.07344055,0.06282043,0.9953156,28.35126,4.684753,-22.83371,4.563049,0.6541269,0.3662175,0.04409504,1.190434,-0.2822235,-0.02165054,-0.04066518,0.004202128,0.2870355,19.33581,31.35
4,-0.05149841,0.03179932,0.9981537,1.0,-0.04812622,0.02702332,0.9984741,-27.60599,1.812134,-25.26382,4.57637,0.3681597,0.4870929,1.0,-0.07344055,0.06282043,0.9953156,28.35126,4.684753,-22.83371,4.563049,0.6541269,0.3662175,0.04409504,1.190434,-0.2822235,-0.02165054,-0.04066518,0.004202128,0.2870355,19.33581,31.35
4,-0.06564331,0.05892944,0.9960938,1.0,-0.0478363,0.02616882,0.9985046,-27.61417,1.795074,-25.21051,4.575394,0.368421,0.4873287,1.0,-0.06880188,0.06474304,0.9955139,28.36119,4.752274,-23.04135,4.518082,0.6533051,0.3653059,0.04409337,1.190416,-0.2821634,-0.02156192,-0.04032609,0.004418204,0.2870355,19.33581,31.35
4,-0.06813049,0.05308533,0.9962616,1.0,-0.04708862,0.02633667,0.9985352,-27.61429,1.794327,-25.21027,4.572418,0.3683059,0.4873164,1.0,-0.07249451,0.05863953,0.995636,28.37143,4.754959,-23.0528,4.494308,0.6536127,0.3662494,0.04406047,1.190342,-0.2821106,-0.02145731,-0.04002901,0.004596722,0.2870355,19.33581,31.35
4,-0.07020569,0.05751038,0.9958649,1.0,-0.04678345,0.02655029,0.9985504,-27.61447,1.786774,-25.18733,4.570129,0.3682819,0.4873287,1.0,-0.07275391,0.06088257,0.9954834,28.38167,4.752274,-23.04135,4.476685,0.6533051,0.3658643,0.0441035,1.190305,-0.2821004,-0.021326,-0.03963753,0.004782602,0.2870355,19.33581,31.35
4,-0.05036926,0.03187561,0.9982147,1.0,-0.04667664,0.02752686,0.9985199,-27.61417,1.776688,-25.15514,4.570953,0.3682819,0.4872188,1.0,-0.07980347,0.06672668,0.9945679,28.42676,4.635452,-22.62865,4.49614,0.6523848,0.3655913,0.04419589,1.190248,-0.281943,-0.02100071,-0.03897371,0.004835279,0.2870355,19.33581,31.35
4,-0.05036926,0.03187561,0.9982147,1.0,-0.04667664,0.02752686,0.9985199,-27.61417,1.776688,-25.15514,4.570953,0.3682819,0.4872188,1.0,-0.07980347,0.06672668,0.9945679,28.42676,4.635452,-22.62865,4.49614,0.6523848,0.3655913,0.04419589,1.190248,-0.281943,-0.02100071,-0.03897371,0.004835279,0.2870355,19.33581,31.35
4,-0.04830933,0.03096008,0.9983368,1.0,-0.04637146,0.02838135,0.9985199,-27.61272,1.767853,-25.1256,4.572205,0.3682087,0.487107,1.0,-0.07492065,0.06658936,0.9949493,28.44618,4.633331,-22.61266,4.49968,0.6508885,0.3655913,0.04419589,1.190248,-0.281943,-0.02100071,-0.03897371,0.004835279,0.2870355,19.33581,31.35
4,-0.04728699,0.02935791,0.9984436,1.0,-0.04666138,0.0284729,0.9984894,-27.60869,1.762985,-25.09734,4.573059,0.3681465,0.4869979,1.0,-0.07287598,0.06604004,0.9951477,28.45798,4.635452,-22.59534,4.468277,0.6501334,0.3654514,0.04429042,1.190219,-0.281847,-0.02067714,-0.03819845,0.005027163,0.2870355,19.33581,31.35
4,-0.04751587,0.02949524,0.9984283,1.0,-0.04708862,0.02891541,0.9984589,-27.60599,1.76181,-25.08937,4.571075,0.3681333,0.4869029,1.0,-0.07376099,0.06484985,0.995163,28.4651,4.644257,-22.59985,4.469666,0.6500495,0.3653958,0.0444845,1.190172,-0.2817972,-0.02046854,-0.03746266,0.005155936,0.2870355,19.33581,31.35
4,-0.05075073,0.03344727,0.9981384,1.0,-0.04678345,0.02828979,0.9984894,-27.60599,1.761566,-25.07672,4.571426,0.3680944,0.4869029,1.0,-0.07383728,0.06344604,0.9952393,28.47778,4.654495,-22.60446,4.465088,0.6496483,0.3653231,0.04462874,1.19008,-0.2817557,-0.02030334,-0.03671619,0.004982503,0.2870355,19.33581,31.35
4,-0.05075073,0.03344727,0.9981384,1.0,-0.04678345,0.02828979,0.9984894,-27.60599,1.761566,-25.07672,4.571426,0.3680944,0.4869029,1.0,-0.07383728,0.06344604,0.9952393,28.47778,4.654495,-22.60446,4.465088,0.6496483,0.3653231,0.04462874,1.19008,-0.2817557,-0.02030334,-0.03671619,0.004982503,0.2870355,19.33581,31.35
4,-0.05905151,0.04696655,0.9971466,1.0,-0.04312134,0.0295105,0.9986267,-27.60472,1.754562,-25.05754,4.563614,0.3674757,0.4867451,1.0,-0.07229614,0.06147766,0.9954834,28.49673,4.666794,-22.61266,4.466446,0.6487806,0.3653059,0.04481649,1.190086,-0.2815787,-0.02022245,-0.03592851,0.004846053,0.2870355,19.33581,31.35
4,-0.05905151,0.04696655,0.9971466,1.0,-0.04312134,0.0295105,0.9986267,-27.60472,1.754562,-25.05754,4.563614,0.3674757,0.4867451,1.0,-0.07229614,0.06147766,0.9954834,28.49673,4.666794,-22.61266,4.466446,0.6487806,0.3653059,0.04481649,1.190086,-0.2815787,-0.02022245,-0.03592851,0.004846053,0.2870355,-10.68937,31.35
4,-0.05905151,0.04696655,0.9971466,1.0,-0.04312134,0.0295105,0.9986267,-27.60472,1.754562,-25.05754,4.563614,0.3674757,0.4867451,1.0,-0.07229614,0.06147766,0.9954834,28.49673,4.666794,-22.61266,4.466446,0.6487806,0.3653059,0.04481649,1.190086,-0.2815787,-0.02022245,-0.03592851,0.004846053,0.2870355,-10.68937,31.35
4,-0.05877686,0.04656982,0.9971771,1.0,-0.04119873,0.02961731,0.998703,-27.58492,1.752945,-25.04703,4.552628,0.3665224,0.4866692,1.0,-0.07458496,0.06184387,0.995285,28.53192,4.667847,-22.61266,4.469742,0.647997,0.3652268,0.04500902,1.190078,-0.2814748,-0.02023792,-0.0352705,0.005041962,0.2870355,-10.68937,31.35
4,-0.05877686,0.04656982,0.9971771,1.0,-0.04119873,0.02961731,0.998703,-27.58492,1.752945,-25.04703,4.552628,0.3665224,0.4866692,1.0,-0.07458496,0.06184387,0.995285,28.53192,4.667847,-22.61266,4.469742,0.647997,0.3652268,0.04500902,1.190078,-0.2814748,-0.02023792,-0.0352705,0.005041962,0.2870355,-10.68937,31.35
4,-0.05918884,0.04634094,0.9971619,1.0,-0.04273987,0.02973938,0.998642,-27.57649,1.752243,-25.04445,4.549316,0.3664992,0.4866436,1.0,-0.07485962,0.06216431,0.9952393,28.5499,4.677933,-22.64326,4.465042,0.6474901,0.3650813,0.04524839,1.190032,-0.2814174,-0.02025337,-0.03468172,0.005227689,0.2870355,-10.68937,31.35
4,-0.0565033,0.04486084,0.9973907,1.0,-0.04377747,0.02966309,0.9985962,-27.5558,1.751434,-25.04175,4.529037,0.3659937,0.4866436,1.0,-0.07264709,0.06416321,0.995285,28.56726,4.678864,-22.68695,4.468643,0.6466201,0.3650503,0.04546273,1.189985,-0.281363,-0.02008084,-0.03418906,0.005069961,0.2870355,-10.68937,31.35
4,-0.0565033,0.04486084,0.9973907,1.0,-0.04377747,0.02966309,0.9985962,-27.5558,1.751434,-25.04175,4.529037,0.3659937,0.4866436,1.0,-0.07264709,0.06416321,0.995285,28.56726,4.678864,-22.68695,4.468643,0.6466201,0.3650503,0.04546273,1.189985,-0.281363,-0.02008084,-0.03418906,0.005069961,0.2870355,-10.68937,31.35
4,-0.0565033,0.04486084,0.9973907,1.0,-0.04377747,0.02966309,0.9985962,-27.5558,1.751434,-25.04175,4.529037,0.3659937,0.4866436,1.0,-0.07264709,0.06416321,0.995285,28.56726,4.678864,-22.68695,4.468643,0.6466201,0.3650503,0.04546273,1.189985,-0.281363,-0.02008084,-0.03418906,0.005069961,0.2870355,-10.68937,31.35
4,-0.0544281,0.04318237,0.9975739,1.0,-0.04504395,0.03009033,0.9985199,-27.5472,1.744522,-25.04175,4.524063,0.3659183,0.4867991,1.0,-0.06900024,0.0635376,0.995575,28.57841,4.685211,-22.72559,4.494324,0.6457081,0.3652451,0.04562974,1.189997,-0.2812743,-0.01989372,-0.03363276,0.004829112,0.2870355,-10.68937,31.35
4,-0.0544281,0.04318237,0.9975739,1.0,-0.04504395,0.03009033,0.9985199,-27.5472,1.744522,-25.04175,4.524063,0.3659183,0.4867991,1.0,-0.06900024,0.0635376,0.995575,28.57841,4.685211,-22.72559,4.494324,0.6457081,0.3652451,0.04562974,1.189997,-0.2812743,-0.01989372,-0.03363276,0.004829112,0.2870355,-10.68937,31.35
5,-0.05444336,0.04249573,0.9976044,1.0,-0.04524231,0.03076172,0.9984894,-27.54056,1.744522,-25.04366,4.523727,0.3657321,0.4867077,1.0,-0.06977844,0.06207275,0.9956207,28.58917,4.696716,-22.7717,4.49231,0.6455451,0.3654651,0.04583251,1.190007,-0.2812555,-0.02000166,-0.03330529,0.004567453,0.2870355,-10.68937,31.35
5,-0.05485535,0.0415802,0.9976196,1.0,-0.04548645,0.03091431,0.9984741,-27.53812,1.743301,-25.04366,4.520905,0.3656924,0.4867077,1.0,-0.07102966,0.06001282,0.9956512,28.59895,4.70282,-22.79836,4.479202,0.6454595,0.3657945,0.04610288,1.189988,-0.2812407,-0.02010272,-0.03296938,0.004468507,0.2870355,-10.68937,31.35
5,-0.05485535,0.0415802,0.9976196,1.0,-0.04548645,0.03091431,0.9984741,-27.53812,1.743301,-25.04366,4.520905,0.3656924,0.4867077,1.0,-0.07102966,0.06001282,0.9956512,28.59895,4.70282,-22.79836,4.479202,0.6454595,0.3657945,0.04610288,1.189988,-0.2812407,-0.02010272,-0.03296938,0.004468507,0.2870355,-10.68937,31.35
5,-0.05485535,0.0415802,0.9976196,1.0,-0.04548645,0.03091431,0.9984741,-27.53812,1.743301,-25.04366,4.520905,0.3656924,0.4867077,1.0,-0.07102966,0.06001282,0.9956512,28.59895,4.70282,-22.79836,4.479202,0.6454595,0.3657945,0.04610288,1.189988,-0.2812407,-0.02010272,-0.03296938,0.004468507,0.2870355,-10.68937,31.35
5,-0.05625916,0.04321289,0.997467,1.0,-0.04544067,0.0305481,0.9984894,-27.53812,1.741333,-25.04037,4.517044,0.365687,0.4868078,1.0,-0.07051086,0.05990601,0.995697,28.59895,4.70282,-22.79836,4.478958,0.645373,0.3658097,0.0462836,1.19002,-0.281137,-0.02006563,-0.0327285,0.004374139,0.2870355,-10.68937,31.35
5,-0.05625916,0.04321289,0.997467,1.0,-0.04544067,0.0305481,0.9984894,-27.53812,1.741333,-25.04037,4.517044,0.365687,0.4868078,1.0,-0.07051086,0.05990601,0.995697,28.59895,4.70282,-22.79836,4.478958,0.645373,0.3658097,0.0462836,1.19002,-0.281137,-0.02006563,-0.0327285,0.004374139,0.2870355,-10.68937,31.35
5,-0.05754089,0.04408264,0.9973602,1.0,-0.04547119,0.03063965,0.9984894,-27.53812,1.740967,-25.04037,4.516891,0.3656924,0.4867991,1.0,-0.07052612,0.05856323,0.9957733,28.59895,4.70282,-22.79836,4.469498,0.645373,0.366032,0.04641354,1.190043,-0.2810588,-0.01980777,-0.03242432,0.004096182,0.2870355,-10.68937,31.35
5,-0.05828857,0.04530334,0.9972687,1.0,-0.04568481,0.03129578,0.9984589,-27.54231,1.740753,-25.03331,4.517761,0.3658724,0.486643,1.0,-0.07144165,0.05992126,0.995636,28.59879,4.690536,-22.76157,4.471466,0.6454797,0.3659256,0.04663289,1.190057,-0.2809861,-0.01948198,-0.03222263,0.003700563,0.2870355,-61.86958,31.35
5,-0.05828857,0.04530334,0.9972687,1.0,-0.04568481,0.03129578,0.9984589,-27.54231,1.740753,-25.03331,4.517761,0.3658724,0.486643,1.0,-0.07144165,0.05992126,0.995636,28.59879,4.690536,-22.76157,4.471466,0.6454797,0.3659256,0.04663289,1.190057,-0.2809861,-0.01948198,-0.03222263,0.003700563,0.2870355,-61.86958,31.35
