Second,eye_comb_direction_x,eye_comb_direction_y,eye_comb_direction_z,eye_r_openness,eye_r_direction_x,eye_r_direction_y,eye_r_direction_z,eye_r_origin_x,eye_r_origin_y,eye_r_origin_z,eye_r_pupil_diameter,eye_r_pupil_position_x,eye_r_pupil_position_y,eye_l_openness,eye_l_direction_x,eye_l_direction_y,eye_l_direction_z,eye_l_origin_x,eye_l_origin_y,eye_l_origin_z,eye_l_pupil_diameter,eye_l_pupil_position_x,eye_l_pupil_position_y,head_position_x,head_position_y,head_position_z,head_rotation_roll,head_rotation_pitch,head_rotation_yaw,EDA,BVP,TMP
0,0.0,0.0,0.0,0.0,0.0,0.0,0.0,0.0,0.0,0.0,0.0,0.0,0.0,0.0,0.0,0.0,0.0,0.0,0.0,0.0,0.0,0.0,0.0,0.0,0.0,0.0,0.0,0.0,0.0,0.2811776322604066,-0.22461974937076454,31.219339303000968
0,0.004638672,0.4328308,0.9014435,1.0,0.004638672,0.4328308,0.9014435,-27.51022,2.974548,-27.01064,5.350143,0.3545671,0.3980192,1.0,-0.04605103,0.4077454,0.9119263,28.20711,6.260162,-25.23624,4.959198,0.6611315,0.2725913,0.03907549,1.135033,-0.1295069,0.2071757,-0.06375226,0.01133481,0.2811776322604066,-0.22461974937076454,31.219339303000968
1,0.000213623,0.3513794,0.9362183,1.0,0.0136261,0.3469238,0.9377899,-27.31792,1.639999,-26.72133,5.233963,0.3469231,0.4539739,1.0,-0.04820251,0.3668671,0.9290161,28.33916,4.787949,-24.90442,4.897903,0.6547363,0.3285867,0.05644023,1.192315,-0.2475964,0.02142743,-0.01966204,0.01644645,0.2811776322604066,-0.22461974937076454,31.219339303000968
1,0.000213623,0.3513794,0.9362183,1.0,0.0136261,0.3469238,0.9377899,-27.31792,1.639999,-26.72133,5.233963,0.3469231,0.4539739,1.0,-0.04820251,0.3668671,0.9290161,28.33916,4.787949,-24.90442,4.897903,0.6547363,0.3285867,0.05644023,1.192315,-0.2475964,0.02142743,-0.01966204,0.01644645,0.2811776322604066,-0.22461974937076454,31.219339303000968
1,0.000213623,0.3513794,0.9362183,1.0,0.0136261,0.3469238,0.9377899,-27.31792,1.639999,-26.72133,5.233963,0.3469231,0.4539739,1.0,-0.04820251,0.3668671,0.9290161,28.33916,4.787949,-24.90442,4.897903,0.6547363,0.3285867,0.05644023,1.192315,-0.2475964,0.02142743,-0.01966204,0.01644645,0.2811776322604066,-0.22461974937076454,31.219339303000968
1,0.000213623,0.3513794,0.9362183,1.0,0.0136261,0.3469238,0.9377899,-27.31792,1.639999,-26.72133,5.233963,0.3469231,0.4539739,1.0,-0.04820251,0.3668671,0.9290161,28.33916,4.787949,-24.90442,4.897903,0.6547363,0.3285867,0.05644023,1.192315,-0.2475964,0.02142743,-0.01966204,0.01644645,0.2811776322604066,-0.22461974937076454,31.219339303000968
1,0.000213623,0.3513794,0.9362183,1.0,0.0136261,0.3469238,0.9377899,-27.31792,1.639999,-26.72133,5.233963,0.3469231,0.4539739,1.0,-0.04820251,0.3668671,0.9290161,28.33916,4.787949,-24.90442,4.897903,0.6547363,0.3285867,0.05644023,1.192315,-0.2475964,0.02142743,-0.01966204,0.01644645,0.2811776322604066,-0.22461974937076454,31.219339303000968
1,0.000213623,0.3513794,0.9362183,1.0,0.0136261,0.3469238,0.9377899,-27.31792,1.639999,-26.72133,5.233963,0.3469231,0.4539739,1.0,-0.04820251,0.3668671,0.9290161,28.33916,4.787949,-24.90442,4.897903,0.6547363,0.3285867,0.05644023,1.192315,-0.2475964,0.02142743,-0.01966204,0.01644645,0.2811776322604066,-0.22461974937076454,31.219339303000968
1,0.000213623,0.3513794,0.9362183,1.0,0.0136261,0.3469238,0.9377899,-27.31792,1.639999,-26.72133,5.233963,0.3469231,0.4539739,1.0,-0.04820251,0.3668671,0.9290161,28.33916,4.787949,-24.90442,4.897903,0.6547363,0.3285867,0.05644023,1.192315,-0.2475964,0.02142743,-0.01966204,0.01644645,0.2811776322604066,-0.22461974937076454,31.219339303000968
1,0.000213623,0.3513794,0.9362183,1.0,0.0136261,0.3469238,0.9377899,-27.31792,1.639999,-26.72133,5.233963,0.3469231,0.4539739,1.0,-0.04820251,0.3668671,0.9290161,28.33916,4.787949,-24.90442,4.897903,0.6547363,0.3285867,0.05644023,1.192315,-0.2475964,0.02142743,-0.01966204,0.01644645,0.2811776322604066,-0.22461974937076454,31.219339303000968
1,0.000213623,0.3513794,0.9362183,1.0,0.0136261,0.3469238,0.9377899,-27.31792,1.639999,-26.72133,5.233963,0.3469231,0.4539739,1.0,-0.04820251,0.3668671,0.9290161,28.33916,4.787949,-24.90442,4.897903,0.6547363,0.3285867,0.05644023,1.192315,-0.2475964,0.02142743,-0.01966204,0.01644645,0.2811776322604066,-0.22461974937076454,31.219339303000968
1,-0.162796,0.09310913,0.9822388,1.0,-0.1144257,0.02059937,0.9932098,-29.31546,1.98996,-26.41293,4.923248,0.4347408,0.4934233,1.0,-0.1628876,0.0932312,0.9822235,26.97321,4.682907,-24.283,4.893326,0.7183089,0.3723766,0.02846622,1.201234,-0.2955933,-0.02970977,-0.1753872,0.001855308,0.2811776322604066,-0.22461974937076454,31.219339303000968
1,-0.162796,0.09310913,0.9822388,1.0,-0.1144257,0.02059937,0.9932098,-29.31546,1.98996,-26.41293,4.923248,0.4347408,0.4934233,1.0,-0.1628876,0.0932312,0.9822235,26.97321,4.682907,-24.283,4.893326,0.7183089,0.3723766,0.02846622,1.201234,-0.2955933,-0.02970977,-0.1753872,0.001855308,0.2811776322604066,-0.22461974937076454,31.219339303000968
1,-0.162796,0.09310913,0.9822388,1.0,-0.1144257,0.02059937,0.9932098,-29.31546,1.98996,-26.41293,4.923248,0.4347408,0.4934233,1.0,-0.1628876,0.0932312,0.9822235,26.97321,4.682907,-24.283,4.893326,0.7183089,0.3723766,0.02846622,1.201234,-0.2955933,-0.02970977,-0.1753872,0.001855308,0.2811776322604066,-0.22461974937076454,31.219339303000968
1,-0.162796,0.09310913,0.9822388,1.0,-0.1144257,0.02059937,0.9932098,-29.31546,1.98996,-26.41293,4.923248,0.4347408,0.4934233,1.0,-0.1628876,0.0932312,0.9822235,26.97321,4.682907,-24.283,4.893326,0.7183089,0.3723766,0.02846622,1.201234,-0.2955933,-0.02970977,-0.1753872,0.001855308,0.2811776322604066,-0.22461974937076454,31.219339303000968
1,-0.162796,0.09310913,0.9822388,1.0,-0.1144257,0.02059937,0.9932098,-29.31546,1.98996,-26.41293,4.923248,0.4347408,0.4934233,1.0,-0.1628876,0.0932312,0.9822235,26.97321,4.682907,-24.283,4.893326,0.7183089,0.3723766,0.02846622,1.201234,-0.2955933,-0.02970977,-0.1753872,0.001855308,0.2811776322604066,-0.22461974937076454,31.219339303000968
1,-0.08140564,0.02774048,0.9962921,1.0,-0.08140564,0.02774048,0.9962921,-28.59015,1.262619,-25.01555,4.947144,0.4058872,0.5034929,1.0,-0.1196136,0.08273315,0.9893646,27.57228,3.812164,-21.71289,4.846268,0.685442,0.3831525,0.03248107,1.20123,-0.2926065,-0.0310805,-0.1395054,0.005183319,0.2811776322604066,-0.22461974937076454,31.219339303000968
1,-0.08140564,0.02774048,0.9962921,1.0,-0.08140564,0.02774048,0.9962921,-28.59015,1.262619,-25.01555,4.947144,0.4058872,0.5034929,1.0,-0.1196136,0.08273315,0.9893646,27.57228,3.812164,-21.71289,4.846268,0.685442,0.3831525,0.03248107,1.20123,-0.2926065,-0.0310805,-0.1395054,0.005183319,0.2811776322604066,-0.22461974937076454,31.219339303000968
1,-0.102356,0.0756073,0.9918671,1.0,-0.06526184,0.01760864,0.9977112,-28.33344,1.21846,-24.96231,4.939224,0.3948754,0.5059177,1.0,-0.1061554,0.08155823,0.9909973,27.80397,3.955627,-22.29733,4.88884,0.6765474,0.3832558,0.03452873,1.201298,-0.2917041,-0.03124237,-0.1248454,0.006491571,0.2811776322604066,-0.22461974937076454,31.219339303000968
1,-0.08511353,0.07411194,0.9936066,1.0,-0.04888916,0.0402832,0.9979858,-28.06027,1.243103,-25.27046,4.972885,0.3830668,0.5040709,1.0,-0.08511353,0.07411194,0.9936066,28.1265,4.097504,-22.69487,4.705399,0.6630722,0.3827388,0.03552425,1.201264,-0.2911801,-0.03119392,-0.1178235,0.00715232,0.2811776322604066,-0.22461974937076454,31.219339303000968
1,-0.08511353,0.07411194,0.9936066,1.0,-0.04888916,0.0402832,0.9979858,-28.06027,1.243103,-25.27046,4.972885,0.3830668,0.5040709,1.0,-0.08511353,0.07411194,0.9936066,28.1265,4.097504,-22.69487,4.705399,0.6630722,0.3827388,0.03552425,1.201264,-0.2911801,-0.03119392,-0.1178235,0.00715232,0.2811776322604066,-0.22461974937076454,31.219339303000968
1,-0.07757568,0.06866455,0.9946136,1.0,-0.03799438,0.04675293,0.9981689,-27.78888,1.160934,-25.00969,5.016846,0.3725272,0.5033414,1.0,-0.07757568,0.06866455,0.9946136,28.37021,4.236404,-22.99429,4.78653,0.6542683,0.3814265,0.03642845,1.20124,-0.2908506,-0.0310025,-0.111115,0.007770425,0.2811776322604066,-0.22461974937076454,31.219339303000968
1,-0.04603577,0.06596375,0.9967499,1.0,-0.02282715,0.06193542,0.997818,-27.50954,0.9518127,-24.38879,4.994904,0.3614002,0.5020856,1.0,-0.04673767,0.06608582,0.9967041,28.62215,4.264862,-23.07918,4.744492,0.6409756,0.3815037,0.0381093,1.201207,-0.2903806,-0.03055442,-0.09829951,0.008759343,0.2811776322604066,-0.22461974937076454,31.219339303000968
1,-0.04603577,0.06596375,0.9967499,1.0,-0.02282715,0.06193542,0.997818,-27.50954,0.9518127,-24.38879,4.994904,0.3614002,0.5020856,1.0,-0.04673767,0.06608582,0.9967041,28.62215,4.264862,-23.07918,4.744492,0.6409756,0.3815037,0.0381093,1.201207,-0.2903806,-0.03055442,-0.09829951,0.008759343,0.2811776322604066,-0.22461974937076454,31.219339303000968
1,-0.01213074,0.05859375,0.9981995,1.0,-0.0120697,0.05857849,0.9981995,-27.34326,1.00029,-24.50648,4.971817,0.3541114,0.5019975,1.0,-0.04542542,0.06661987,0.9967346,28.85939,4.402435,-23.50278,4.735214,0.6334881,0.3801998,0.03988981,1.200963,-0.2899032,-0.02989527,-0.08582238,0.009114493,0.2811776322604066,-0.22461974937076454,31.219339303000968
1,0.008255005,0.05966187,0.9981842,1.0,0.008499146,0.05964661,0.9981689,-27.22592,1.082062,-24.73967,5.00116,0.3466851,0.5011871,1.0,-0.02401733,0.0609436,0.9978485,28.98247,4.441406,-23.68553,4.664291,0.6260863,0.3812243,0.04066503,1.200868,-0.2898039,-0.02922252,-0.0796806,0.009417628,0.2811776322604066,-0.22461974937076454,31.219339303000968
1,0.008255005,0.05966187,0.9981842,1.0,0.008499146,0.05964661,0.9981689,-27.22592,1.082062,-24.73967,5.00116,0.3466851,0.5011871,1.0,-0.02401733,0.0609436,0.9978485,28.98247,4.441406,-23.68553,4.664291,0.6260863,0.3812243,0.04066503,1.200868,-0.2898039,-0.02922252,-0.0796806,0.009417628,0.2811776322604066,-0.22461974937076454,31.219339303000968
1,0.01417542,0.06494141,0.9977875,1.0,0.01417542,0.06494141,0.9977875,-27.08118,1.005798,-24.53278,5.073532,0.3411733,0.5010186,1.0,0.002578735,0.05436707,0.9985046,29.09926,4.570969,-24.33775,4.572006,0.618575,0.3831125,0.04230702,1.200526,-0.2895689,-0.02782132,-0.06784079,0.01042826,0.2811776322604066,-0.22461974937076454,31.219339303000968
1,-0.004623413,0.04785156,0.9988403,1.0,-0.004592896,0.04785156,0.9988403,-27.40329,1.001038,-24.67838,4.893677,0.3547167,0.5051674,1.0,-0.03672791,0.04832458,0.9981537,28.826,4.234177,-23.46138,4.727814,0.633079,0.3883282,0.04316568,1.200339,-0.2895086,-0.02699411,-0.06241542,0.01151156,0.2811776322604066,-0.22461974937076454,31.219339303000968
1,-0.08457947,-0.03207397,0.9958954,1.0,-0.08416748,-0.03271484,0.9959106,-28.2231,1.533371,-26.21236,4.742264,0.3935272,0.5149309,1.0,-0.1270599,0.03652954,0.9912109,27.95175,3.615768,-22.17664,4.729416,0.6748404,0.4004927,0.04470646,1.199863,-0.2893472,-0.02512662,-0.05231721,0.01433638,0.2811776322604066,-0.22461974937076454,31.219339303000968
1,-0.08457947,-0.03207397,0.9958954,1.0,-0.08416748,-0.03271484,0.9959106,-28.2231,1.533371,-26.21236,4.742264,0.3935272,0.5149309,1.0,-0.1270599,0.03652954,0.9912109,27.95175,3.615768,-22.17664,4.729416,0.6748404,0.4004927,0.04470646,1.199863,-0.2893472,-0.02512662,-0.05231721,0.01433638,0.2811776322604066,-0.22461974937076454,31.219339303000968
1,-0.08457947,-0.03207397,0.9958954,1.0,-0.08416748,-0.03271484,0.9959106,-28.2231,1.533371,-26.21236,4.742264,0.3935272,0.5149309,1.0,-0.1270599,0.03652954,0.9912109,27.95175,3.615768,-22.17664,4.729416,0.6748404,0.4004927,0.04470646,1.199863,-0.2893472,-0.02512662,-0.05231721,0.01433638,0.2811776322604066,-0.22461974937076454,31.219339303000968
1,-0.1138153,-0.02636719,0.9931488,1.0,-0.1138153,-0.02636719,0.9931488,-28.49519,1.153091,-25.25334,4.697296,0.4078525,0.5179111,1.0,-0.1809998,0.03981018,0.982666,27.5744,3.273346,-21.10083,4.871628,0.6941822,0.4029472,0.04611969,1.199325,-0.2894027,-0.02265482,-0.04336246,0.01677968,0.2811776322604066,-46.71576,31.219339303000968
1,-0.1016998,-0.03695679,0.9941254,1.0,-0.1016998,-0.03695679,0.9941254,-28.40259,1.488327,-26.28127,4.72168,0.4022774,0.517867,1.0,-0.1570892,0.04481506,0.986557,27.73717,3.388748,-21.33157,4.686707,0.6852375,0.4001072,0.04676712,1.199018,-0.2894658,-0.02117489,-0.03949121,0.01756795,0.2811776322604066,-46.71576,31.43
1,-0.1016998,-0.03695679,0.9941254,1.0,-0.1016998,-0.03695679,0.9941254,-28.40259,1.488327,-26.28127,4.72168,0.4022774,0.517867,1.0,-0.1570892,0.04481506,0.986557,27.73717,3.388748,-21.33157,4.686707,0.6852375,0.4001072,0.04676712,1.199018,-0.2894658,-0.02117489,-0.03949121,0.01756795,0.2811776322604066,-46.71576,31.43
1,-0.0841217,-0.0246582,0.9961395,1.0,-0.07785034,-0.03192139,0.9964447,-28.30363,1.506119,-26.22571,4.61586,0.3951778,0.5157364,1.0,-0.1451111,0.04664612,0.9883118,27.85434,3.523178,-21.65129,4.699722,0.6800009,0.3979198,0.04793239,1.198428,-0.2894094,-0.01842817,-0.0319787,0.01898733,0.2811776322604066,-46.71576,31.43
1,-0.1184692,0.02911377,0.9925232,1.0,-0.08959961,-0.02288818,0.9957123,-28.10138,1.527649,-26.1055,4.674057,0.3904617,0.5124972,1.0,-0.1219025,0.03535461,0.9918976,27.96591,3.697784,-22.09897,4.675949,0.6732715,0.3974825,0.04836082,1.198184,-0.2892479,-0.0172668,-0.02871534,0.0193796,0.2811776322604066,-46.71576,31.43
1,-0.1184692,0.02911377,0.9925232,1.0,-0.08959961,-0.02288818,0.9957123,-28.10138,1.527649,-26.1055,4.674057,0.3904617,0.5124972,1.0,-0.1219025,0.03535461,0.9918976,27.96591,3.697784,-22.09897,4.675949,0.6732715,0.3974825,0.04836082,1.198184,-0.2892479,-0.0172668,-0.02871534,0.0193796,0.2811776322604066,-46.71576,31.43
1,-0.1184692,0.02911377,0.9925232,1.0,-0.08959961,-0.02288818,0.9957123,-28.10138,1.527649,-26.1055,4.674057,0.3904617,0.5124972,1.0,-0.1219025,0.03535461,0.9918976,27.96591,3.697784,-22.09897,4.675949,0.6732715,0.3974825,0.04929101,1.197789,-0.2891297,-0.01493604,-0.02321295,0.02007491,0.2811776322604066,-46.71576,31.43
1,-0.1184692,0.02911377,0.9925232,1.0,-0.08959961,-0.02288818,0.9957123,-28.10138,1.527649,-26.1055,4.674057,0.3904617,0.5124972,1.0,-0.1219025,0.03535461,0.9918976,27.96591,3.697784,-22.09897,4.675949,0.6732715,0.3974825,0.04972494,1.19757,-0.2890717,-0.0138527,-0.02109169,0.020494,0.2811776322604066,-46.71576,31.43
1,-0.1184692,0.02911377,0.9925232,1.0,-0.08959961,-0.02288818,0.9957123,-28.10138,1.527649,-26.1055,4.674057,0.3904617,0.5124972,1.0,-0.1219025,0.03535461,0.9918976,27.96591,3.697784,-22.09897,4.675949,0.6732715,0.3974825,0.05001485,1.197339,-0.2890005,-0.0129089,-0.01924573,0.02076739,0.2811776322604066,-46.71576,31.43
1,-0.1184692,0.02911377,0.9925232,1.0,-0.08959961,-0.02288818,0.9957123,-28.10138,1.527649,-26.1055,4.674057,0.3904617,0.5124972,1.0,-0.1219025,0.03535461,0.9918976,27.96591,3.697784,-22.09897,4.675949,0.6732715,0.3974825,0.05001485,1.197339,-0.2890005,-0.0129089,-0.01924573,0.02076739,0.2811776322604066,-46.71576,31.43
1,-0.1184692,0.02911377,0.9925232,1.0,-0.08959961,-0.02288818,0.9957123,-28.10138,1.527649,-26.1055,4.674057,0.3904617,0.5124972,1.0,-0.1219025,0.03535461,0.9918976,27.96591,3.697784,-22.09897,4.675949,0.6732715,0.3974825,0.05042589,1.197001,-0.2887646,-0.01124108,-0.01634284,0.02148299,0.2811776322604066,-46.71576,31.43
1,-0.0667572,0.03401184,0.9971771,1.0,-0.04951477,0.02371216,0.9984894,-27.73199,1.193466,-24.69701,4.614349,0.3728267,0.5029213,1.0,-0.08592224,0.04544067,0.9952545,28.38385,4.030457,-22.53458,4.549194,0.6543605,0.3882524,0.05065811,1.196877,-0.2885412,-0.01055467,-0.01497042,0.02163642,0.2811776322604066,-46.71576,31.43
1,-0.0667572,0.03401184,0.9971771,1.0,-0.04951477,0.02371216,0.9984894,-27.73199,1.193466,-24.69701,4.614349,0.3728267,0.5029213,1.0,-0.08592224,0.04544067,0.9952545,28.38385,4.030457,-22.53458,4.549194,0.6543605,0.3882524,0.05065811,1.196877,-0.2885412,-0.01055467,-0.01497042,0.02163642,0.2811776322604066,-46.71576,31.43
1,-0.06144714,0.0475769,0.9969635,1.0,-0.04127502,0.03192139,0.9986267,-27.66762,1.224564,-24.72102,4.517731,0.3694369,0.5006711,1.0,-0.0614624,0.0475769,0.9969635,28.45912,4.200302,-22.93303,4.427689,0.6484846,0.3853181,0.05088067,1.196801,-0.2881165,-0.009479921,-0.01277546,0.02114355,0.2811776322604066,-46.71576,31.43
1,-0.05612183,0.04676819,0.9973145,1.0,-0.03985596,0.03282166,0.9986572,-27.65373,1.212265,-24.69342,4.519669,0.3687725,0.5006711,1.0,-0.05612183,0.04676819,0.9973145,28.48714,4.265549,-23.10513,4.37468,0.6469381,0.3846085,0.05096173,1.1967,-0.2878605,-0.009157715,-0.01175176,0.02075554,0.2811776322604066,-78.96824,31.43
1,-0.05786133,0.04814148,0.9971619,1.0,-0.03482056,0.03657532,0.9987183,-27.64616,1.192886,-24.69342,4.520737,0.3677096,0.5006711,1.0,-0.05900574,0.04872131,0.9970551,28.49883,4.258636,-23.07883,4.375656,0.6469976,0.3843059,0.05076015,1.196403,-0.2878574,-0.008897745,-0.01086289,0.02035795,0.2811776322604066,-78.96824,31.43
1,-0.05786133,0.04814148,0.9971619,1.0,-0.03482056,0.03657532,0.9987183,-27.64616,1.192886,-24.69342,4.520737,0.3677096,0.5006711,1.0,-0.05900574,0.04872131,0.9970551,28.49883,4.258636,-23.07883,4.375656,0.6469976,0.3843059,0.05076015,1.196403,-0.2878574,-0.008897745,-0.01086289,0.02035795,0.2811776322604066,-78.96824,31.43
1,-0.0350647,0.03713989,0.9986877,1.0,-0.03451538,0.0368042,0.9987183,-27.64014,1.192886,-24.69887,4.520401,0.3674556,0.5006769,1.0,-0.06011963,0.05258179,0.9967957,28.50414,4.241943,-23.02832,4.359558,0.6469381,0.3838175,0.05077338,1.196229,-0.2877802,-0.008064035,-0.01009574,0.01925154,0.2811776322604066,-78.96824,31.43
2,-0.03530884,0.03866577,0.9986267,1.0,-0.03282166,0.03726196,0.998764,-27.63937,1.193848,-24.70995,4.519485,0.3671472,0.500674,1.0,-0.05856323,0.05183411,0.996933,28.50728,4.239243,-23.02225,4.369934,0.646566,0.3839859,0.05107272,1.196005,-0.2874495,-0.006777926,-0.00888266,0.01848428,0.2811776322604066,-78.96824,31.43
2,-0.03198242,0.04324341,0.9985504,1.0,-0.01757813,0.03900146,0.9990692,-27.66551,1.200516,-24.62692,4.505554,0.365607,0.4994063,1.0,-0.05050659,0.04867554,0.9975281,28.49568,4.286957,-23.08868,4.398605,0.6457233,0.3834632,0.05141497,1.195939,-0.2872837,-0.006204007,-0.008112856,0.0184738,0.2811776322604066,-78.96824,31.43
2,-0.03198242,0.04324341,0.9985504,1.0,-0.01757813,0.03900146,0.9990692,-27.66551,1.200516,-24.62692,4.505554,0.365607,0.4994063,1.0,-0.05050659,0.04867554,0.9975281,28.49568,4.286957,-23.08868,4.398605,0.6457233,0.3834632,0.05141497,1.195939,-0.2872837,-0.006204007,-0.008112856,0.0184738,0.2811776322604066,-78.96824,31.43
2,-0.03570557,0.05461121,0.9978638,1.0,-0.01651001,0.05227661,0.9984894,-27.69022,1.247284,-24.67116,4.265244,0.3662897,0.4959018,1.0,-0.0539856,0.05680847,0.9969177,28.48189,4.309021,-23.05046,4.358017,0.6467226,0.3810814,0.05178177,1.19585,-0.2870281,-0.005390479,-0.006250667,0.01847501,0.2811776322604066,-78.96824,31.43
2,-0.03736877,0.05183411,0.9979553,1.0,-0.01698303,0.04980469,0.9986115,-27.69022,1.281158,-24.74245,4.348892,0.3662897,0.4959018,1.0,-0.05422974,0.05351257,0.9970856,28.48251,4.323181,-23.03987,4.357742,0.6467226,0.3810814,0.05194545,1.195773,-0.2869579,-0.005140015,-0.005096344,0.01857917,0.2811776322604066,-78.96824,31.43
2,-0.03686523,0.05238342,0.9979401,1.0,-0.01631165,0.04872131,0.9986725,-27.68687,1.282578,-24.74643,4.355606,0.3660631,0.4960738,1.0,-0.05223083,0.05511475,0.9971008,28.48393,4.336624,-23.04517,4.36293,0.6463623,0.3804161,0.05212486,1.195649,-0.2868636,-0.004985493,-0.00397057,0.01841685,0.2811776322604066,-78.96824,31.43
2,-0.03686523,0.05238342,0.9979401,1.0,-0.01631165,0.04872131,0.9986725,-27.68687,1.282578,-24.74643,4.355606,0.3660631,0.4960738,1.0,-0.05223083,0.05511475,0.9971008,28.48393,4.336624,-23.04517,4.36293,0.6463623,0.3804161,0.05212486,1.195649,-0.2868636,-0.004985493,-0.00397057,0.01841685,0.2811776322604066,-78.96824,31.43
2,-0.03601074,0.05307007,0.9979401,1.0,-0.01559448,0.04776001,0.9987335,-27.68353,1.281158,-24.74245,4.362564,0.3658367,0.4962458,1.0,-0.05024719,0.05674744,0.9971161,28.48535,4.350067,-23.05046,4.366882,0.6460019,0.3797508,0.05229318,1.195585,-0.2868388,-0.004681838,-0.002770216,0.01828652,0.2811776322604066,-78.96824,31.43
2,-0.03601074,0.05307007,0.9979401,1.0,-0.01559448,0.04776001,0.9987335,-27.68353,1.281158,-24.74245,4.362564,0.3658367,0.4962458,1.0,-0.05024719,0.05674744,0.9971161,28.48535,4.350067,-23.05046,4.366882,0.6460019,0.3797508,0.05237079,1.195619,-0.2869556,-0.004210983,-0.001464844,0.01818233,0.2811776322604066,-78.96824,31.43
2,-0.03601074,0.05307007,0.9979401,1.0,-0.01559448,0.04776001,0.9987335,-27.68353,1.281158,-24.74245,4.362564,0.3658367,0.4962458,1.0,-0.05024719,0.05674744,0.9971161,28.48535,4.350067,-23.05046,4.366882,0.6460019,0.3797508,0.05270684,1.195623,-0.287063,-0.003919579,0.001386452,0.0179626,0.2811776322604066,-78.96824,31.43
2,-0.03601074,0.05307007,0.9979401,1.0,-0.01559448,0.04776001,0.9987335,-27.68353,1.281158,-24.74245,4.362564,0.3658367,0.4962458,1.0,-0.05024719,0.05674744,0.9971161,28.48535,4.350067,-23.05046,4.366882,0.6460019,0.3797508,0.05293787,1.195623,-0.2871734,-0.003844731,0.003211169,0.01753739,0.2811776322604066,-78.96824,31.43
2,-0.03678894,0.05828857,0.9976196,1.0,-0.01982117,0.05279541,0.9983978,-27.63104,1.226944,-24.64844,4.385559,0.3648732,0.496377,1.0,-0.05104065,0.06289673,0.9967041,28.51521,4.431198,-23.20665,4.299332,0.6453659,0.3772703,0.05324328,1.195675,-0.2872711,-0.003756515,0.00506408,0.01698445,0.2811776322604066,-78.96824,31.43
2,-0.03678894,0.05828857,0.9976196,1.0,-0.01982117,0.05279541,0.9983978,-27.63104,1.226944,-24.64844,4.385559,0.3648732,0.496377,1.0,-0.05104065,0.06289673,0.9967041,28.51521,4.431198,-23.20665,4.299332,0.6453659,0.3772703,0.05324328,1.195675,-0.2872711,-0.003756515,0.00506408,0.01698445,0.2811776322604066,-78.96824,31.43
2,-0.0684967,0.06243896,0.9956818,1.0,-0.04060364,0.04364014,0.9982147,-28.0605,1.407715,-25.09348,4.407181,0.3820471,0.4960615,1.0,-0.08274841,0.07203674,0.9939575,28.17719,4.45488,-22.89671,4.388107,0.6614898,0.3725943,0.05381775,1.195792,-0.2875189,-0.00435194,0.009553513,0.01605167,0.2811776322604066,77.64163,31.43
2,-0.0684967,0.06243896,0.9956818,1.0,-0.04060364,0.04364014,0.9982147,-28.0605,1.407715,-25.09348,4.407181,0.3820471,0.4960615,1.0,-0.08274841,0.07203674,0.9939575,28.17719,4.45488,-22.89671,4.388107,0.6614898,0.3725943,0.05403292,1.195878,-0.2876318,-0.004976518,0.01192171,0.01558011,0.2811776322604066,77.64163,31.43
2,-0.0684967,0.06243896,0.9956818,1.0,-0.04060364,0.04364014,0.9982147,-28.0605,1.407715,-25.09348,4.407181,0.3820471,0.4960615,1.0,-0.08274841,0.07203674,0.9939575,28.17719,4.45488,-22.89671,4.388107,0.6614898,0.3725943,0.05440104,1.196126,-0.28776,-0.005833888,0.01458932,0.01526416,0.2811776322604066,77.64163,31.43
2,-0.0684967,0.06243896,0.9956818,1.0,-0.04060364,0.04364014,0.9982147,-28.0605,1.407715,-25.09348,4.407181,0.3820471,0.4960615,1.0,-0.08274841,0.07203674,0.9939575,28.17719,4.45488,-22.89671,4.388107,0.6614898,0.3725943,0.05466294,1.196385,-0.2880747,-0.006555528,0.01744196,0.01514853,0.2811776322604066,77.64163,31.43
2,-0.0684967,0.06243896,0.9956818,1.0,-0.04060364,0.04364014,0.9982147,-28.0605,1.407715,-25.09348,4.407181,0.3820471,0.4960615,1.0,-0.08274841,0.07203674,0.9939575,28.17719,4.45488,-22.89671,4.388107,0.6614898,0.3725943,0.05533612,1.196676,-0.2885311,-0.00823952,0.0233036,0.01497938,0.279347,77.64163,31.43
2,-0.0684967,0.06243896,0.9956818,1.0,-0.04060364,0.04364014,0.9982147,-28.0605,1.407715,-25.09348,4.407181,0.3820471,0.4960615,1.0,-0.08274841,0.07203674,0.9939575,28.17719,4.45488,-22.89671,4.388107,0.6614898,0.3725943,0.05533612,1.196676,-0.2885311,-0.00823952,0.0233036,0.01497938,0.279347,77.64163,31.43
2,-0.286087,0.09004211,0.953949,1.0,-0.225708,0.07850647,0.9710236,-29.34973,1.807129,-25.32492,4.309921,0.4548721,0.4807069,1.0,-0.286087,0.09004211,0.953949,26.55022,4.894943,-23.13121,4.233261,0.7516264,0.3571365,0.05569935,1.196832,-0.2888469,-0.008860826,0.02636804,0.01512736,0.279347,77.64163,31.43
2,-0.286087,0.09004211,0.953949,1.0,-0.225708,0.07850647,0.9710236,-29.34973,1.807129,-25.32492,4.309921,0.4548721,0.4807069,1.0,-0.286087,0.09004211,0.953949,26.55022,4.894943,-23.13121,4.233261,0.7516264,0.3571365,0.05569935,1.196832,-0.2888469,-0.008860826,0.02636804,0.01512736,0.279347,77.64163,31.43
2,-0.2783508,0.1225433,0.9526215,1.0,-0.2170868,0.07653809,0.9731445,-29.29143,1.780334,-25.31447,4.266541,0.4515459,0.481647,1.0,-0.2783508,0.1225433,0.9526215,26.63069,4.859848,-23.14468,4.42717,0.7478411,0.3529978,0.05611563,1.196887,-0.2892267,-0.009463402,0.02953345,0.01521625,0.279347,77.64163,31.43
2,-0.2690582,0.1271362,0.9546814,1.0,-0.2050171,0.07402039,0.9759521,-29.23228,1.758652,-25.30508,4.297852,0.4475789,0.4825988,1.0,-0.2690582,0.1271362,0.9546814,26.72548,4.785141,-23.12517,4.528976,0.7428768,0.3546707,0.05690539,1.197142,-0.2902175,-0.01041683,0.0360246,0.01587665,0.279347,77.64163,31.43
2,-0.2648315,0.1295471,0.9555359,1.0,-0.1918488,0.07070923,0.9788666,-29.17142,1.751022,-25.30788,4.26442,0.4434122,0.4832574,1.0,-0.2648315,0.1295471,0.9555359,26.80324,4.753052,-23.1142,4.404358,0.7394283,0.3552309,0.05734348,1.197185,-0.2905947,-0.01112114,0.03925467,0.01624315,0.279347,77.64163,31.43
2,-0.2648315,0.1295471,0.9555359,1.0,-0.1918488,0.07070923,0.9788666,-29.17142,1.751022,-25.30788,4.26442,0.4434122,0.4832574,1.0,-0.2648315,0.1295471,0.9555359,26.80324,4.753052,-23.1142,4.404358,0.7394283,0.3552309,0.05734348,1.197185,-0.2905947,-0.01112114,0.03925467,0.01624315,0.279347,77.64163,31.43
2,-0.2385864,0.1193237,0.9637451,1.0,-0.1815186,0.07299805,0.9806671,-29.089,1.765945,-25.33002,4.211807,0.4390321,0.4824397,1.0,-0.2416534,0.1218262,0.962677,26.87733,4.739548,-23.07617,4.432999,0.7327038,0.3565982,0.05759501,1.197169,-0.2917335,-0.01285975,0.04583737,0.01648447,0.279347,77.64163,31.43
2,-0.1949768,0.09373474,0.9763031,1.0,-0.1694641,0.06809998,0.9831696,-29.02823,1.798325,-25.43282,4.195068,0.4350156,0.4829566,1.0,-0.2241364,0.1231995,0.9667206,26.96706,4.72464,-23.04619,4.436035,0.7265391,0.3566161,0.05814445,1.197453,-0.2920991,-0.01384301,0.0492063,0.01635833,0.279347,77.64163,31.43
2,-0.2203979,0.1155243,0.9685364,1.0,-0.141983,0.05770874,0.9881744,-29.03847,2.060806,-26.27074,4.214951,0.4305382,0.4832354,1.0,-0.2210999,0.1160431,0.9683075,27.03429,4.732788,-23.02631,4.456024,0.723641,0.3574202,0.05848515,1.197639,-0.2925411,-0.01499876,0.05245601,0.01603123,0.279347,77.64163,31.43
2,-0.2112122,0.1251068,0.9693909,1.0,-0.1282654,0.0499115,0.9904785,-29.08078,2.351379,-27.25526,4.170792,0.429366,0.4834985,1.0,-0.2112122,0.1251068,0.9693909,27.04674,4.728485,-23.02164,4.41629,0.7215668,0.355952,0.05902195,1.197846,-0.2929668,-0.0158743,0.0557685,0.01587243,0.279347,-24.68832,31.43
2,-0.2112122,0.1251068,0.9693909,1.0,-0.1282654,0.0499115,0.9904785,-29.08078,2.351379,-27.25526,4.170792,0.429366,0.4834985,1.0,-0.2112122,0.1251068,0.9693909,27.04674,4.728485,-23.02164,4.41629,0.7215668,0.355952,0.05902195,1.197846,-0.2929668,-0.0158743,0.0557685,0.01587243,0.279347,-24.68832,31.43
2,-0.2060547,0.1151581,0.9717255,1.0,-0.12146,0.042099,0.9916992,-29.04369,2.398102,-27.49052,4.218796,0.426879,0.4853791,1.0,-0.2060547,0.1151581,0.9717255,27.10292,4.669739,-22.98775,4.461929,0.7186028,0.3593315,0.05995536,1.197972,-0.2937083,-0.01709551,0.06176987,0.01613131,0.279347,-24.68832,31.43
2,-0.1865082,0.1073761,0.9765625,1.0,-0.1041718,0.03688049,0.993866,-28.99857,2.459564,-27.69131,4.228851,0.422403,0.4858913,1.0,-0.1865082,0.1073761,0.9765625,27.18044,4.625854,-22.92064,4.393845,0.7124361,0.3614721,0.06074095,1.198147,-0.2945504,-0.01814418,0.06705328,0.01687266,0.279347,-24.68832,31.43
2,-0.1865082,0.1073761,0.9765625,1.0,-0.1041718,0.03688049,0.993866,-28.99857,2.459564,-27.69131,4.228851,0.422403,0.4858913,1.0,-0.1865082,0.1073761,0.9765625,27.18044,4.625854,-22.92064,4.393845,0.7124361,0.3614721,0.06074095,1.198147,-0.2945504,-0.01814418,0.06705328,0.01687266,0.279347,-24.68832,31.43
2,-0.1755829,0.1051941,0.9788208,1.0,-0.09461975,0.03713989,0.994812,-28.91432,2.538513,-27.80202,4.307938,0.417926,0.4842097,1.0,-0.1755829,0.1051941,0.9788208,27.28223,4.609543,-22.77625,4.353973,0.7068412,0.3612537,0.06112611,1.198149,-0.2948755,-0.01862163,0.0695322,0.0170772,0.279347,-24.68832,31.43
2,-0.1708679,0.1067047,0.9794922,1.0,-0.09132385,0.03424072,0.995224,-28.81526,2.478882,-27.52524,4.322144,0.4141673,0.4841776,1.0,-0.1714783,0.107254,0.9793243,27.35558,4.599182,-22.67442,4.419098,0.7034789,0.3605485,0.061432,1.198191,-0.2952939,-0.01901047,0.07182622,0.01728276,0.279347,-24.68832,31.43
2,-0.1708679,0.1067047,0.9794922,1.0,-0.09132385,0.03424072,0.995224,-28.81526,2.478882,-27.52524,4.322144,0.4141673,0.4841776,1.0,-0.1714783,0.107254,0.9793243,27.35558,4.599182,-22.67442,4.419098,0.7034789,0.3605485,0.061432,1.198191,-0.2952939,-0.01901047,0.07182622,0.01728276,0.279347,-24.68832,31.43
2,-0.16922,0.1076813,0.9796753,1.0,-0.1210938,0.0692749,0.9902191,-28.519,1.480728,-24.39799,4.388,0.4106867,0.4838485,1.0,-0.16922,0.1076813,0.9796753,27.43497,4.538712,-22.40193,4.525055,0.699928,0.3604778,0.06204045,1.198225,-0.2960368,-0.01953697,0.07617511,0.01735933,0.279347,-24.68832,31.43
2,-0.1630707,0.1091309,0.980545,1.0,-0.1213074,0.06719971,0.9903259,-28.42291,1.42186,-24.26695,4.414612,0.4076259,0.4849619,1.0,-0.1630707,0.1091309,0.980545,27.5406,4.504974,-22.29356,4.51442,0.6951182,0.3605786,0.06232738,1.198224,-0.2963572,-0.01948695,0.07799978,0.01750167,0.279347,-24.68832,31.43
2,-0.1630707,0.1091309,0.980545,1.0,-0.1213074,0.06719971,0.9903259,-28.42291,1.42186,-24.26695,4.414612,0.4076259,0.4849619,1.0,-0.1630707,0.1091309,0.980545,27.5406,4.504974,-22.29356,4.51442,0.6951182,0.3605786,0.06232738,1.198224,-0.2963572,-0.01948695,0.07799978,0.01750167,0.279347,-24.68832,31.43
2,-0.1562042,0.1080933,0.981781,1.0,-0.1147308,0.07054138,0.9908752,-28.3924,1.35939,-24.11617,4.496552,0.4056052,0.4851736,1.0,-0.1562042,0.1080933,0.981781,27.56003,4.520615,-22.35403,4.406448,0.6934197,0.3606058,0.06301367,1.198018,-0.2972484,-0.01929406,0.08308838,0.01749911,0.279347,-24.68832,31.43
2,-0.2164764,0.1272583,0.9679565,1.0,-0.1319427,0.05667114,0.989624,-29.02025,2.528168,-27.70879,4.294357,0.4277902,0.4806771,1.0,-0.2164764,0.1272583,0.9679565,27.10564,4.737915,-22.79755,4.701523,0.7199626,0.3538921,0.06301367,1.198018,-0.2972484,-0.01929406,0.08308838,0.01749911,0.279347,-24.68832,31.43
2,-0.2671814,0.1413879,0.9532013,1.0,-0.1931152,0.07144165,0.9785614,-29.08841,2.046585,-25.98875,4.335434,0.4407303,0.4795406,1.0,-0.2671814,0.1413879,0.9532013,26.87291,4.779907,-22.88414,4.572174,0.7369861,0.3508549,0.0633899,1.198047,-0.2977161,-0.01917281,0.08565396,0.01730172,0.279347,-24.68832,31.43
2,-0.2671814,0.1413879,0.9532013,1.0,-0.1931152,0.07144165,0.9785614,-29.08841,2.046585,-25.98875,4.335434,0.4407303,0.4795406,1.0,-0.2671814,0.1413879,0.9532013,26.87291,4.779907,-22.88414,4.572174,0.7369861,0.3508549,0.0633899,1.198047,-0.2977161,-0.01917281,0.08565396,0.01730172,0.279347,-24.68832,31.43
2,-0.3394928,0.1692047,0.9252625,1.0,-0.239212,0.08839417,0.9669189,-29.25838,2.055389,-25.97232,4.437622,0.4539934,0.4768103,1.0,-0.3394928,0.1692047,0.9252625,26.63831,4.853088,-23.00104,4.702545,0.7584815,0.3449901,0.06351614,1.197899,-0.2983452,-0.01962904,0.08821107,0.01718072,0.279347,-75.34447,31.43
2,-0.3321838,0.1703186,0.9276886,1.0,-0.2226257,0.08561707,0.9711304,-29.26497,2.03476,-25.97066,4.409424,0.4514576,0.4777373,1.0,-0.3321838,0.1703186,0.9276886,26.67078,4.801086,-22.99057,4.670578,0.7560229,0.3464021,0.06421006,1.19826,-0.2985494,-0.02066669,0.09091977,0.01722316,0.279347,-75.34447,31.43
2,-0.3321838,0.1703186,0.9276886,1.0,-0.2226257,0.08561707,0.9711304,-29.26497,2.03476,-25.97066,4.409424,0.4514576,0.4777373,1.0,-0.3321838,0.1703186,0.9276886,26.67078,4.801086,-22.99057,4.670578,0.7560229,0.3464021,0.06421006,1.19826,-0.2985494,-0.02066669,0.09091977,0.01722316,0.279347,-75.34447,31.43
2,-0.3151703,0.1559296,0.9361267,1.0,-0.2207184,0.08256531,0.9718323,-29.26758,2.02916,-25.97131,4.417938,0.4512089,0.4784299,1.0,-0.3151703,0.1559296,0.9361267,26.69035,4.759186,-22.95753,4.687836,0.7520457,0.3498536,0.0647136,1.198671,-0.2986934,-0.02296674,0.09334844,0.01747269,0.279347,-75.34447,31.43
2,-0.3151703,0.1559296,0.9361267,1.0,-0.2207184,0.08256531,0.9718323,-29.26758,2.02916,-25.97131,4.417938,0.4512089,0.4784299,1.0,-0.3151703,0.1559296,0.9361267,26.69035,4.759186,-22.95753,4.687836,0.7520457,0.3498536,0.0647136,1.198671,-0.2986934,-0.02296674,0.09334844,0.01747269,0.279347,-75.34447,31.43
2,-0.2454071,0.1127167,0.9628296,1.0,-0.2053986,0.08050537,0.9753571,-29.25569,2.085785,-25.97571,4.443314,0.4482603,0.4768324,1.0,-0.2998962,0.1569977,0.9409485,26.73592,4.799362,-22.93416,4.643112,0.7477522,0.3480699,0.06507301,1.199247,-0.2988279,-0.02584087,0.0959075,0.01806476,0.279347,-75.34447,31.43
2,-0.2454071,0.1127167,0.9628296,1.0,-0.2053986,0.08050537,0.9753571,-29.25569,2.085785,-25.97571,4.443314,0.4482603,0.4768324,1.0,-0.2998962,0.1569977,0.9409485,26.73592,4.799362,-22.93416,4.643112,0.7477522,0.3480699,0.06507301,1.199247,-0.2988279,-0.02584087,0.0959075,0.01806476,0.279347,-75.34447,31.43
2,-0.2315979,0.1033783,0.9672852,1.0,-0.2014618,0.07040405,0.9769592,-29.2403,2.184082,-25.9639,4.456711,0.4470751,0.475125,1.0,-0.2739868,0.1502991,0.9499054,26.76244,4.893173,-22.88995,4.551086,0.7421997,0.3455128,0.06554019,1.199885,-0.2990419,-0.02829768,0.09845863,0.01878218,0.279347,-75.34447,31.43
2,-0.2315979,0.1033783,0.9672852,1.0,-0.2014618,0.07040405,0.9769592,-29.2403,2.184082,-25.9639,4.456711,0.4470751,0.475125,1.0,-0.2739868,0.1502991,0.9499054,26.76244,4.893173,-22.88995,4.551086,0.7421997,0.3455128,0.06554019,1.199885,-0.2990419,-0.02829768,0.09845863,0.01878218,0.279347,-75.34447,31.43
2,-0.2382813,0.09844971,0.9661865,1.0,-0.1879272,0.06599426,0.97995,-29.2056,2.188217,-25.99231,4.393631,0.443705,0.4757797,1.0,-0.3017731,0.139679,0.9430847,26.90744,4.976913,-22.8772,4.486938,0.7420406,0.3446344,0.06597483,1.200571,-0.2993228,-0.03087197,0.101335,0.01912028,0.279347,-75.34447,31.43
2,-0.2382813,0.09844971,0.9661865,1.0,-0.1879272,0.06599426,0.97995,-29.2056,2.188217,-25.99231,4.393631,0.443705,0.4757797,1.0,-0.3017731,0.139679,0.9430847,26.90744,4.976913,-22.8772,4.486938,0.7420406,0.3446344,0.06597483,1.200571,-0.2993228,-0.03087197,0.101335,0.01912028,0.279347,-75.34447,31.43
2,-0.2327423,0.09872437,0.9674988,1.0,-0.1898804,0.0680542,0.9794312,-29.16714,2.157776,-26.0383,4.39679,0.4427464,0.4768568,1.0,-0.2796173,0.1324768,0.9509125,26.8708,4.877808,-22.85614,4.63324,0.739208,0.3488936,0.06662726,1.201156,-0.2996216,-0.03311122,0.1043596,0.019279,0.279347,-75.34447,31.43
2,-0.2327423,0.09872437,0.9674988,1.0,-0.1898804,0.0680542,0.9794312,-29.16714,2.157776,-26.0383,4.39679,0.4427464,0.4768568,1.0,-0.2796173,0.1324768,0.9509125,26.8708,4.877808,-22.85614,4.63324,0.739208,0.3488936,0.06662726,1.201156,-0.2996216,-0.03311122,0.1043596,0.019279,0.279347,-75.34447,31.43
2,-0.2490234,0.1173401,0.9613495,1.0,-0.1781616,0.06867981,0.9815979,-29.11673,2.109833,-26.21544,4.332977,0.4391215,0.4797217,1.0,-0.2758331,0.1358643,0.9515381,26.94461,4.738632,-22.84438,4.509186,0.7359188,0.3528796,0.06722677,1.201501,-0.3001528,-0.03502695,0.1079334,0.01961233,0.279347,-75.34447,31.43
2,-0.2490234,0.1173401,0.9613495,1.0,-0.1781616,0.06867981,0.9815979,-29.11673,2.109833,-26.21544,4.332977,0.4391215,0.4797217,1.0,-0.2758331,0.1358643,0.9515381,26.94461,4.738632,-22.84438,4.509186,0.7359188,0.3528796,0.06722677,1.201501,-0.3001528,-0.03502695,0.1079334,0.01961233,0.279347,-75.34447,31.43
2,-0.2468109,0.1202698,0.9615631,1.0,-0.1668701,0.05409241,0.9844818,-29.08409,2.102295,-26.5909,4.251495,0.4360516,0.4855091,1.0,-0.2495117,0.1225281,0.9605713,27.02539,4.549133,-22.80731,4.547195,0.7282755,0.3610325,0.06808388,1.201832,-0.3008121,-0.03614498,0.1122012,0.01994309,0.279347,22.95076,31.43
2,-0.2468109,0.1202698,0.9615631,1.0,-0.1668701,0.05409241,0.9844818,-29.08409,2.102295,-26.5909,4.251495,0.4360516,0.4855091,1.0,-0.2495117,0.1225281,0.9605713,27.02539,4.549133,-22.80731,4.547195,0.7282755,0.3610325,0.06808388,1.201832,-0.3008121,-0.03614498,0.1122012,0.01994309,0.279347,22.95076,31.43
2,-0.2396851,0.1103516,0.9645538,1.0,-0.1678619,0.05018616,0.9845276,-28.99628,1.991577,-26.34517,4.411407,0.4332721,0.4877611,1.0,-0.2448578,0.1147308,0.962738,27.10431,4.463455,-22.77989,4.431686,0.7246371,0.3649031,0.06897593,1.201961,-0.3015722,-0.03739996,0.1167181,0.02012236,0.279347,22.95076,31.43
2,-0.2396851,0.1103516,0.9645538,1.0,-0.1678619,0.05018616,0.9845276,-28.99628,1.991577,-26.34517,4.411407,0.4332721,0.4877611,1.0,-0.2448578,0.1147308,0.962738,27.10431,4.463455,-22.77989,4.431686,0.7246371,0.3649031,0.06897593,1.201961,-0.3015722,-0.03739996,0.1167181,0.02012236,0.279347,22.95076,31.43
2,-0.2290039,0.1016541,0.9680939,1.0,-0.1615448,0.04521179,0.9858246,-28.96877,2.04335,-26.44316,4.358582,0.4313029,0.4876389,1.0,-0.2444458,0.1146698,0.9628448,27.15863,4.487732,-22.75899,4.496506,0.7226915,0.3640142,0.06997716,1.201954,-0.302056,-0.03797368,0.1212892,0.02012384,0.279347,22.95076,31.43
2,-0.2290039,0.1016541,0.9680939,1.0,-0.1615448,0.04521179,0.9858246,-28.96877,2.04335,-26.44316,4.358582,0.4313029,0.4876389,1.0,-0.2444458,0.1146698,0.9628448,27.15863,4.487732,-22.75899,4.496506,0.7226915,0.3640142,0.06997716,1.201954,-0.302056,-0.03797368,0.1212892,0.02012384,0.279347,22.95076,31.43
2,-0.2292938,0.1017609,0.9680176,1.0,-0.1387329,0.04371643,0.9893494,-28.96429,2.204514,-26.86835,4.410843,0.4272231,0.4862235,1.0,-0.2351379,0.1055298,0.9662018,27.22029,4.52034,-22.71765,4.418198,0.7189,0.3640364,0.07079971,1.201924,-0.3026285,-0.03765785,0.1259631,0.02003813,0.279347,22.95076,31.43
2,-0.2292938,0.1017609,0.9680176,1.0,-0.1387329,0.04371643,0.9893494,-28.96429,2.204514,-26.86835,4.410843,0.4272231,0.4862235,1.0,-0.2351379,0.1055298,0.9662018,27.22029,4.52034,-22.71765,4.418198,0.7189,0.3640364,0.07079971,1.201924,-0.3026285,-0.03765785,0.1259631,0.02003813,0.279347,22.95076,31.43
2,-0.2233429,0.1109924,0.9683838,1.0,-0.1285095,0.03410339,0.9911194,-28.89182,2.330429,-27.14957,4.410156,0.4230022,0.4860738,1.0,-0.2233734,0.1110229,0.9683838,27.33246,4.532532,-22.67587,4.439163,0.713052,0.36241,0.07183623,1.201773,-0.3032602,-0.03718639,0.1306344,0.02003293,0.279347,22.95076,31.43
2,-0.2233429,0.1109924,0.9683838,1.0,-0.1285095,0.03410339,0.9911194,-28.89182,2.330429,-27.14957,4.410156,0.4230022,0.4860738,1.0,-0.2233734,0.1110229,0.9683838,27.33246,4.532532,-22.67587,4.439163,0.713052,0.36241,0.07183623,1.201773,-0.3032602,-0.03718639,0.1306344,0.02003293,0.279347,22.95076,31.43
2,-0.2084961,0.1018524,0.972702,1.0,-0.1231842,0.03434753,0.9917755,-28.76613,2.258743,-26.98192,4.378067,0.4180046,0.4868266,1.0,-0.2087402,0.102066,0.9726257,27.45724,4.458633,-22.53934,4.411438,0.7060221,0.365226,0.07290304,1.201586,-0.3037359,-0.03689675,0.1353669,0.01939651,0.279347,22.95076,31.43
2,-0.2084961,0.1018524,0.972702,1.0,-0.1231842,0.03434753,0.9917755,-28.76613,2.258743,-26.98192,4.378067,0.4180046,0.4868266,1.0,-0.2087402,0.102066,0.9726257,27.45724,4.458633,-22.53934,4.411438,0.7060221,0.365226,0.07290304,1.201586,-0.3037359,-0.03689675,0.1353669,0.01939651,0.279347,22.95076,31.43
2,-0.2032928,0.1013947,0.9738464,1.0,-0.1049194,0.03427124,0.9938812,-28.72513,2.391022,-27.44122,4.335022,0.4134313,0.4863828,1.0,-0.2108307,0.1065674,0.9716949,27.52673,4.459015,-22.50424,4.464645,0.7039806,0.3642961,0.07376492,1.201484,-0.3042817,-0.03657671,0.1403294,0.01930796,0.279347,22.95076,31.43
2,-0.2032928,0.1013947,0.9738464,1.0,-0.1049194,0.03427124,0.9938812,-28.72513,2.391022,-27.44122,4.335022,0.4134313,0.4863828,1.0,-0.2108307,0.1065674,0.9716949,27.52673,4.459015,-22.50424,4.464645,0.7039806,0.3642961,0.07376492,1.201484,-0.3042817,-0.03657671,0.1403294,0.01930796,0.279347,22.95076,31.43
2,-0.1972046,0.10849,0.9743347,1.0,-0.1390228,0.06954956,0.9878387,-28.35995,1.315201,-24.00172,4.465042,0.408555,0.4858713,1.0,-0.1972046,0.10849,0.9743347,27.62648,4.392212,-22.17673,4.544434,0.6977452,0.3636786,0.07457125,1.201395,-0.3048031,-0.03658547,0.1446747,0.01982093,0.279347,22.95076,31.43
2,-0.1972046,0.10849,0.9743347,1.0,-0.1390228,0.06954956,0.9878387,-28.35995,1.315201,-24.00172,4.465042,0.408555,0.4858713,1.0,-0.1972046,0.10849,0.9743347,27.62648,4.392212,-22.17673,4.544434,0.6977452,0.3636786,0.07457125,1.201395,-0.3048031,-0.03658547,0.1446747,0.01982093,0.279347,22.95076,31.43
2,-0.1767273,0.1063385,0.9784851,1.0,-0.1364899,0.07211304,0.9880066,-28.20534,1.24263,-23.48671,4.499008,0.4033762,0.4833305,1.0,-0.1767273,0.1063385,0.9784851,27.74577,4.35022,-21.70624,4.494476,0.6894717,0.3617533,0.07528257,1.201256,-0.3052328,-0.03700301,0.1480349,0.01983821,0.279347,-11.39554,31.43
2,-0.1767273,0.1063385,0.9784851,1.0,-0.1364899,0.07211304,0.9880066,-28.20534,1.24263,-23.48671,4.499008,0.4033762,0.4833305,1.0,-0.1767273,0.1063385,0.9784851,27.74577,4.35022,-21.70624,4.494476,0.6894717,0.3617533,0.07528257,1.201256,-0.3052328,-0.03700301,0.1480349,0.01983821,0.279347,-11.39554,31.43
2,-0.1669006,0.1018219,0.9806976,1.0,-0.1262665,0.05934143,0.9902039,-28.1501,1.448929,-23.88472,4.527695,0.3996909,0.4821245,1.0,-0.1669006,0.1018219,0.9806976,27.86244,4.551056,-22.0782,4.516373,0.6846386,0.3587641,0.0759275,1.20115,-0.3055649,-0.03669853,0.15108,0.01864881,0.279347,-11.39554,31.43
2,-0.1669006,0.1018219,0.9806976,1.0,-0.1262665,0.05934143,0.9902039,-28.1501,1.448929,-23.88472,4.527695,0.3996909,0.4821245,1.0,-0.1669006,0.1018219,0.9806976,27.86244,4.551056,-22.0782,4.516373,0.6846386,0.3587641,0.0759275,1.20115,-0.3055649,-0.03669853,0.15108,0.01864881,0.279347,-11.39554,31.43
2,-0.1377106,0.07730103,0.987442,1.0,-0.1273041,0.06680298,0.9896088,-28.0834,1.421204,-23.8013,4.538544,0.3977486,0.4810921,1.0,-0.1647644,0.1046753,0.9807587,27.92767,4.590576,-22.21996,4.486008,0.682406,0.3580381,0.07635772,1.200989,-0.3058083,-0.03598011,0.1534615,0.01734645,0.279347,-11.39554,31.43
2,-0.1377106,0.07730103,0.987442,1.0,-0.1273041,0.06680298,0.9896088,-28.0834,1.421204,-23.8013,4.538544,0.3977486,0.4810921,1.0,-0.1647644,0.1046753,0.9807587,27.92767,4.590576,-22.21996,4.486008,0.682406,0.3580381,0.07635772,1.200989,-0.3058083,-0.03598011,0.1534615,0.01734645,0.279347,-11.39554,31.43
2,-0.1187286,0.07080078,0.990387,1.0,-0.1109161,0.06582642,0.9916382,-28.01245,1.429581,-23.79242,4.527145,0.3928016,0.4807874,1.0,-0.1625366,0.09873962,0.9817352,28.0024,4.575027,-22.20233,4.511978,0.6795028,0.3593915,0.07663107,1.200811,-0.3062451,-0.0354641,0.1555115,0.01654807,0.279347,-11.39554,31.43
2,-0.1187286,0.07080078,0.990387,1.0,-0.1109161,0.06582642,0.9916382,-28.01245,1.429581,-23.79242,4.527145,0.3928016,0.4807874,1.0,-0.1625366,0.09873962,0.9817352,28.0024,4.575027,-22.20233,4.511978,0.6795028,0.3593915,0.07663107,1.200811,-0.3062451,-0.0354641,0.1555115,0.01654807,0.279347,-11.39554,31.43
2,-0.1272736,0.08746338,0.9879913,1.0,-0.1068268,0.06739807,0.9919891,-27.99181,1.458923,-23.72672,4.538925,0.3915166,0.4790127,1.0,-0.1542664,0.1139679,0.9814301,28.03143,4.563568,-22.05431,4.507996,0.6769938,0.3561342,0.07671297,1.200641,-0.3068538,-0.0357368,0.1573209,0.01607347,0.279347,-11.39554,31.43
2,-0.1272736,0.08746338,0.9879913,1.0,-0.1068268,0.06739807,0.9919891,-27.99181,1.458923,-23.72672,4.538925,0.3915166,0.4790127,1.0,-0.1542664,0.1139679,0.9814301,28.03143,4.563568,-22.05431,4.507996,0.6769938,0.3561342,0.07671297,1.200641,-0.3068538,-0.0357368,0.1573209,0.01607347,0.279347,-11.39554,31.43
2,-0.1154327,0.07730103,0.9902954,1.0,-0.1049042,0.06837463,0.9921265,-27.99319,1.494461,-23.78203,4.598572,0.3912022,0.4782206,1.0,-0.1533966,0.1095581,0.9820557,28.04106,4.570084,-21.9276,4.62178,0.6763012,0.35576,0.07666147,1.200634,-0.3075998,-0.03593909,0.1589065,0.01573855,0.279347,-11.39554,31.43
2,-0.1154327,0.07730103,0.9902954,1.0,-0.1049042,0.06837463,0.9921265,-27.99319,1.494461,-23.78203,4.598572,0.3912022,0.4782206,1.0,-0.1533966,0.1095581,0.9820557,28.04106,4.570084,-21.9276,4.62178,0.6763012,0.35576,0.07666147,1.200634,-0.3075998,-0.03593909,0.1589065,0.01573855,0.279347,-11.39554,31.43
2,-0.1812592,0.1430206,0.9729767,1.0,-0.08433533,0.04840088,0.9952545,-28.6772,3.08194,-28.68752,4.516739,0.4078636,0.4719879,1.0,-0.1812592,0.1430206,0.9729767,27.65498,4.795288,-22.42831,4.476974,0.6953424,0.3460764,0.0766505,1.200725,-0.3080485,-0.03614395,0.1595731,0.01574092,0.279347,-11.39554,31.43
2,-0.1812592,0.1430206,0.9729767,1.0,-0.08433533,0.04840088,0.9952545,-28.6772,3.08194,-28.68752,4.516739,0.4078636,0.4719879,1.0,-0.1812592,0.1430206,0.9729767,27.65498,4.795288,-22.42831,4.476974,0.6953424,0.3460764,0.0766505,1.200725,-0.3080485,-0.03614395,0.1595731,0.01574092,0.279347,-11.39554,31.43
2,-0.2250366,0.1643372,0.9603882,1.0,-0.1448822,0.076828,0.9864502,-28.74779,2.629333,-26.92122,4.489487,0.4211519,0.4672897,1.0,-0.2250366,0.1643372,0.9603882,27.38518,4.896347,-22.46686,4.585983,0.7116987,0.340167,0.07668531,1.200839,-0.3089888,-0.03748255,0.1615089,0.01555235,0.279347,-11.39554,31.43
3,-0.2250366,0.1643372,0.9603882,1.0,-0.1448822,0.076828,0.9864502,-28.74779,2.629333,-26.92122,4.489487,0.4211519,0.4672897,1.0,-0.2250366,0.1643372,0.9603882,27.38518,4.896347,-22.46686,4.585983,0.7116987,0.340167,0.07688868,1.201046,-0.3094634,-0.03837476,0.1630412,0.01534983,0.279347,6.565018,31.43
3,-0.2250366,0.1643372,0.9603882,1.0,-0.1448822,0.076828,0.9864502,-28.74779,2.629333,-26.92122,4.489487,0.4211519,0.4672897,1.0,-0.2250366,0.1643372,0.9603882,27.38518,4.896347,-22.46686,4.585983,0.7116987,0.340167,0.0772351,1.201191,-0.3107059,-0.03976345,0.1676044,0.01408207,0.279347,6.565018,31.43
3,-0.2250366,0.1643372,0.9603882,1.0,-0.1448822,0.076828,0.9864502,-28.74779,2.629333,-26.92122,4.489487,0.4211519,0.4672897,1.0,-0.2250366,0.1643372,0.9603882,27.38518,4.896347,-22.46686,4.585983,0.7116987,0.340167,0.0772351,1.201191,-0.3107059,-0.03976345,0.1676044,0.01408207,0.279347,6.565018,31.43
3,-0.2250366,0.1643372,0.9603882,1.0,-0.1448822,0.076828,0.9864502,-28.74779,2.629333,-26.92122,4.489487,0.4211519,0.4672897,1.0,-0.2250366,0.1643372,0.9603882,27.38518,4.896347,-22.46686,4.585983,0.7116987,0.340167,0.07760966,1.201303,-0.3112504,-0.04006473,0.1705942,0.01363367,0.279347,6.565018,31.43
3,-0.2250366,0.1643372,0.9603882,1.0,-0.1448822,0.076828,0.9864502,-28.74779,2.629333,-26.92122,4.489487,0.4211519,0.4672897,1.0,-0.2250366,0.1643372,0.9603882,27.38518,4.896347,-22.46686,4.585983,0.7116987,0.340167,0.07760966,1.201303,-0.3112504,-0.04006473,0.1705942,0.01363367,0.279347,6.565018,31.43
3,-0.2791595,0.1737061,0.944397,1.0,-0.2050629,0.1037445,0.9732208,-28.85466,2.130447,-25.14418,4.55394,0.4352456,0.46444,1.0,-0.2791595,0.1737061,0.944397,27.11563,4.980591,-22.54547,4.653381,0.7304571,0.3365921,0.07834828,1.201271,-0.3125563,-0.0406065,0.1777478,0.0135575,0.279347,6.565018,31.43
3,-0.2791595,0.1737061,0.944397,1.0,-0.2050629,0.1037445,0.9732208,-28.85466,2.130447,-25.14418,4.55394,0.4352456,0.46444,1.0,-0.2791595,0.1737061,0.944397,27.11563,4.980591,-22.54547,4.653381,0.7304571,0.3365921,0.07877505,1.201164,-0.3132194,-0.04056208,0.1824804,0.01422159,0.279347,6.565018,31.43
3,-0.2791595,0.1737061,0.944397,1.0,-0.2050629,0.1037445,0.9732208,-28.85466,2.130447,-25.14418,4.55394,0.4352456,0.46444,1.0,-0.2791595,0.1737061,0.944397,27.11563,4.980591,-22.54547,4.653381,0.7304571,0.3365921,0.07928073,1.20105,-0.3139056,-0.04021008,0.1873525,0.01507309,0.279347,6.565018,31.43
3,-0.2791595,0.1737061,0.944397,1.0,-0.2050629,0.1037445,0.9732208,-28.85466,2.130447,-25.14418,4.55394,0.4352456,0.46444,1.0,-0.2791595,0.1737061,0.944397,27.11563,4.980591,-22.54547,4.653381,0.7304571,0.3365921,0.07928073,1.20105,-0.3139056,-0.04021008,0.1873525,0.01507309,0.279347,6.565018,31.43
3,-0.2791595,0.1737061,0.944397,1.0,-0.2050629,0.1037445,0.9732208,-28.85466,2.130447,-25.14418,4.55394,0.4352456,0.46444,1.0,-0.2791595,0.1737061,0.944397,27.11563,4.980591,-22.54547,4.653381,0.7304571,0.3365921,0.08030546,1.200568,-0.3153666,-0.03824212,0.1978206,0.01657012,0.279347,6.565018,31.43
3,-0.360672,0.2041779,0.9100647,1.0,-0.268692,0.1351318,0.9536896,-29.4501,1.43013,-25.32779,4.522552,0.4653541,0.4844598,1.0,-0.360672,0.2041779,0.9100647,26.55934,4.350143,-22.79819,4.703506,0.7644945,0.354692,0.08082259,1.200236,-0.3160115,-0.03689533,0.2030652,0.01749187,0.279347,6.565018,31.43
3,-0.3640137,0.2063446,0.9082336,1.0,-0.2559814,0.1253662,0.9585114,-29.40825,1.437347,-25.30095,4.556747,0.4617956,0.4854593,1.0,-0.3640137,0.2063446,0.9082336,26.62334,4.344284,-22.79814,4.702698,0.7628667,0.354639,0.08145964,1.199852,-0.3166665,-0.03520094,0.2087983,0.01860802,0.279347,6.565018,31.43
3,-0.3640137,0.2063446,0.9082336,1.0,-0.2559814,0.1253662,0.9585114,-29.40825,1.437347,-25.30095,4.556747,0.4617956,0.4854593,1.0,-0.3640137,0.2063446,0.9082336,26.62334,4.344284,-22.79814,4.702698,0.7628667,0.354639,0.08145964,1.199852,-0.3166665,-0.03520094,0.2087983,0.01860802,0.279347,6.565018,31.43
3,-0.3212738,0.1996613,0.9256897,1.0,-0.2399902,0.1268768,0.9624329,-29.2343,1.550247,-25.24988,4.594101,0.4534325,0.4809208,1.0,-0.3212738,0.1996613,0.9256897,26.81281,4.410172,-22.69319,4.664993,0.7484031,0.3525144,0.08287632,1.198907,-0.3179082,-0.03058391,0.2205106,0.02008789,0.279347,6.565018,31.43
3,-0.2386932,0.1524353,0.9590454,1.0,-0.2095032,0.13237,0.9687958,-29.08012,1.659637,-25.24728,4.619659,0.4433444,0.476153,1.0,-0.2938232,0.1903839,0.9366913,26.94571,4.561081,-22.62498,4.751236,0.7388484,0.3484572,0.08350825,1.198333,-0.3183888,-0.02811277,0.2263511,0.02053032,0.279347,6.565018,31.43
3,-0.2386932,0.1524353,0.9590454,1.0,-0.2095032,0.13237,0.9687958,-29.08012,1.659637,-25.24728,4.619659,0.4433444,0.476153,1.0,-0.2938232,0.1903839,0.9366913,26.94571,4.561081,-22.62498,4.751236,0.7388484,0.3484572,0.08350825,1.198333,-0.3183888,-0.02811277,0.2263511,0.02053032,0.279347,6.565018,31.43
3,-0.2218933,0.1495972,0.9635162,1.0,-0.1960449,0.1269226,0.9723358,-28.94664,1.740158,-25.29523,4.67334,0.4366864,0.4747369,1.0,-0.2743073,0.1957703,0.9414978,27.0658,4.631271,-22.60397,4.789093,0.7313971,0.3450468,0.08497012,1.197142,-0.3190731,-0.02227273,0.2378726,0.02051544,0.279347,6.565018,31.43
3,-0.2545013,0.1131744,0.9604187,1.0,-0.1473389,0.03512573,0.9884491,-28.82507,1.92514,-26.93175,4.587494,0.4238316,0.497597,1.0,-0.2545319,0.1131897,0.9604034,27.19395,4.179642,-22.47314,4.712967,0.7224187,0.3724863,0.08568227,1.196687,-0.319211,-0.01911599,0.243131,0.0204281,0.279347,-35.09833,31.43
3,-0.2433624,0.06552124,0.9677124,1.0,-0.1624451,0.006607056,0.9866791,-28.57335,1.135223,-25.02051,4.676331,0.4185213,0.5113458,1.0,-0.2433777,0.0655365,0.9676971,27.24812,3.902939,-22.41724,4.696671,0.7181571,0.3889101,0.08629835,1.196083,-0.3193835,-0.01573382,0.2479987,0.02005263,0.279347,-35.09833,31.43
3,-0.2433624,0.06552124,0.9677124,1.0,-0.1624451,0.006607056,0.9866791,-28.57335,1.135223,-25.02051,4.676331,0.4185213,0.5113458,1.0,-0.2433777,0.0655365,0.9676971,27.24812,3.902939,-22.41724,4.696671,0.7181571,0.3889101,0.08629835,1.196083,-0.3193835,-0.01573382,0.2479987,0.02005263,0.279347,-35.09833,31.43
3,-0.1872253,-0.0249939,0.9819946,1.0,-0.1306763,-0.07676697,0.9884338,-28.26088,0.8285675,-25.3559,4.687683,0.402626,0.5378492,1.0,-0.1872406,-0.02496338,0.9819794,27.53601,3.419342,-22.1671,4.547989,0.6982188,0.4171145,0.08747041,1.194785,-0.3194152,-0.009058737,0.2561635,0.01906604,0.279347,-35.09833,31.43
3,-0.1464386,-0.07324219,0.986496,0.9546445,-0.09356689,-0.1218262,0.9881134,-27.98212,0.4820099,-25.00435,4.649261,0.3874454,0.5532435,0.9988515,-0.1464539,-0.07321167,0.986496,27.85127,3.180054,-22.15945,4.459534,0.6808966,0.4325135,0.08788812,1.194235,-0.3193271,-0.005792877,0.2595808,0.01881547,0.279347,-35.09833,31.43
3,-0.1464386,-0.07324219,0.986496,0.9546445,-0.09356689,-0.1218262,0.9881134,-27.98212,0.4820099,-25.00435,4.649261,0.3874454,0.5532435,0.9988515,-0.1464539,-0.07321167,0.986496,27.85127,3.180054,-22.15945,4.459534,0.6808966,0.4325135,0.08788812,1.194235,-0.3193271,-0.005792877,0.2595808,0.01881547,0.279347,-35.09833,31.43
3,-0.1449585,-0.06903076,0.9870148,0.9075373,-0.0847168,-0.1134644,0.9899139,-27.85875,0.5254364,-24.9491,4.703033,0.38202,0.5498583,0.9426242,-0.1449585,-0.06903076,0.9870148,28.08791,3.25885,-22.39519,4.549591,0.6732299,0.4312097,0.0881964,1.193655,-0.3191395,-0.00279165,0.2621328,0.01857596,0.279347,-35.09833,31.43
3,-0.1242676,-0.05992126,0.9904327,0.8882461,-0.07980347,-0.09988403,0.9917908,-27.72705,0.6043243,-24.96672,4.698135,0.3769229,0.5451233,0.9204889,-0.1242676,-0.05990601,0.9904327,28.24306,3.319427,-22.40941,4.518539,0.6647741,0.4277358,0.08897412,1.192579,-0.3181581,0.002210787,0.2652061,0.01757304,0.279347,-35.09833,31.43
3,-0.1107635,-0.05941772,0.9920654,0.892329,-0.0680542,-0.08416748,0.9941101,-27.67839,0.7880096,-25.20912,4.634262,0.3733352,0.5386116,0.9271141,-0.113327,-0.05793762,0.9918518,28.35889,3.490906,-22.6362,4.482285,0.6595137,0.4236133,0.08916903,1.192203,-0.3176045,0.004134203,0.2659217,0.01666204,0.279347,-35.09833,31.43
3,-0.1107635,-0.05941772,0.9920654,0.892329,-0.0680542,-0.08416748,0.9941101,-27.67839,0.7880096,-25.20912,4.634262,0.3733352,0.5386116,0.9271141,-0.113327,-0.05793762,0.9918518,28.35889,3.490906,-22.6362,4.482285,0.6595137,0.4236133,0.08916903,1.192203,-0.3176045,0.004134203,0.2659217,0.01666204,0.279347,-35.09833,31.43
3,-0.06968689,-0.07695007,0.9945831,0.8718044,-0.0643158,-0.08007813,0.9947052,-27.6743,0.9109344,-25.24341,4.671524,0.3725896,0.5342257,0.9418777,-0.105484,-0.05601501,0.9928284,28.39468,3.621964,-22.77385,4.500046,0.6573296,0.4200841,0.08940089,1.191294,-0.3164344,0.008033488,0.2661717,0.01486604,0.279347,-35.09833,31.43
3,-0.06968689,-0.07695007,0.9945831,0.8718044,-0.0643158,-0.08007813,0.9947052,-27.6743,0.9109344,-25.24341,4.671524,0.3725896,0.5342257,0.9418777,-0.105484,-0.05601501,0.9928284,28.39468,3.621964,-22.77385,4.500046,0.6573296,0.4200841,0.08940089,1.191294,-0.3164344,0.008033488,0.2661717,0.01486604,0.279347,-35.09833,31.43
3,-0.06385803,-0.07647705,0.9950104,0.8747971,-0.06243896,-0.07766724,0.9950104,-27.70709,0.9859924,-25.22003,4.771591,0.3733815,0.5312001,0.9430965,-0.1048126,-0.04177856,0.9936066,28.37444,3.749527,-22.96248,4.517776,0.6581691,0.4151359,0.08945203,1.190621,-0.3150351,0.01156322,0.2644973,0.01300207,0.279347,-35.09833,31.43
3,-0.05673218,-0.07621765,0.9954681,0.9056852,-0.05639648,-0.07661438,0.9954529,-27.76089,1.068649,-25.30702,4.678619,0.374161,0.5290499,0.9519028,-0.08981323,-0.03764343,0.9952393,28.3363,3.830536,-23.07701,4.578476,0.6571803,0.412691,0.08959687,1.190229,-0.3142565,0.01293139,0.2629431,0.01220703,0.279347,-35.09833,31.43
3,-0.05825806,-0.06697083,0.996048,0.901138,-0.05752563,-0.06759644,0.996048,-27.79195,1.024414,-25.12912,4.702942,0.3755118,0.5274112,0.9415138,-0.09371948,-0.03614807,0.9949341,28.30708,3.838303,-22.95789,4.5439,0.6586391,0.4112105,0.08953762,1.190046,-0.3135433,0.01393314,0.2615791,0.01150832,0.279347,-0.8832245,31.43
3,-0.05825806,-0.06697083,0.996048,0.901138,-0.05752563,-0.06759644,0.996048,-27.79195,1.024414,-25.12912,4.702942,0.3755118,0.5274112,0.9415138,-0.09371948,-0.03614807,0.9949341,28.30708,3.838303,-22.95789,4.5439,0.6586391,0.4112105,0.08953762,1.190046,-0.3135433,0.01393314,0.2615791,0.01150832,0.279347,-0.8832245,31.43
3,-0.0506897,-0.06106567,0.9968414,0.9251307,-0.0506897,-0.06106567,0.9968414,-27.93269,1.173965,-25.29297,4.74939,0.378961,0.5229552,0.955514,-0.0960083,-0.004333496,0.9953613,28.20786,3.6026,-21.89795,4.604553,0.6607085,0.4052559,0.08967149,1.189815,-0.3119724,0.01537698,0.2586916,0.01000977,0.279347,-0.8832245,31.43
3,-0.05619812,-0.0552063,0.9968872,0.9364878,-0.05619812,-0.0552063,0.9968872,-28.00587,1.265823,-25.55147,4.719757,0.3821166,0.5213291,0.9637699,-0.09907532,0.00302124,0.9950714,28.1452,3.60704,-21.79672,4.646835,0.6631301,0.403141,0.08979058,1.189776,-0.3112649,0.01560544,0.2576845,0.009258854,0.279347,-0.8832245,31.43
3,-0.06217957,-0.05169678,0.9967194,0.9386186,-0.06217957,-0.05169678,0.9967194,-28.05675,1.256332,-25.58147,4.789566,0.3847303,0.5214099,0.9762424,-0.1047211,0.001174927,0.9944916,28.0995,3.575195,-21.72826,4.590775,0.6654326,0.4039197,0.08979058,1.189776,-0.3112649,0.01560544,0.2576845,0.009258854,0.279347,-0.8832245,31.43
3,-0.05815125,-0.05033875,0.9970245,0.943848,-0.05809021,-0.05038452,0.9970245,-28.11832,1.226273,-25.65848,4.771408,0.3860524,0.522866,0.9786656,-0.111618,0.005508423,0.9937286,28.04216,3.551376,-21.8532,4.678635,0.6686085,0.405074,0.08988869,1.189592,-0.3101383,0.01632323,0.2562842,0.007659365,0.279347,-0.8832245,31.43
3,-0.05815125,-0.05033875,0.9970245,0.943848,-0.05809021,-0.05038452,0.9970245,-28.11832,1.226273,-25.65848,4.771408,0.3860524,0.522866,0.9786656,-0.111618,0.005508423,0.9937286,28.04216,3.551376,-21.8532,4.678635,0.6686085,0.405074,0.08988869,1.189592,-0.3101383,0.01632323,0.2562842,0.007659365,0.279347,-0.8832245,31.43
3,-0.1050873,-0.006713867,0.9944305,0.9620826,-0.05661011,-0.0531311,0.9969788,-28.15764,1.135895,-25.50917,4.702866,0.3872069,0.5248976,0.9887103,-0.1193237,0.006988525,0.9928284,28.01527,3.536835,-22.0157,4.663986,0.6710037,0.4066224,0.09001839,1.189335,-0.3093804,0.01730473,0.2553933,0.006761418,0.279347,-0.8832245,31.43
3,-0.1050873,-0.006713867,0.9944305,0.9620826,-0.05661011,-0.0531311,0.9969788,-28.15764,1.135895,-25.50917,4.702866,0.3872069,0.5248976,0.9887103,-0.1193237,0.006988525,0.9928284,28.01527,3.536835,-22.0157,4.663986,0.6710037,0.4066224,0.09001839,1.189335,-0.3093804,0.01730473,0.2553933,0.006761418,0.279347,-0.8832245,31.43
3,-0.09046936,-0.02027893,0.9956818,0.968556,-0.06283569,-0.04379272,0.9970551,-28.20364,1.137848,-25.62276,4.758133,0.3896691,0.5243865,0.9949454,-0.1268463,0.010849,0.9918518,27.9938,3.489807,-21.99733,4.703186,0.6729175,0.4074248,0.09017336,1.189073,-0.3087698,0.01780721,0.2555217,0.006864217,0.279347,-0.8832245,31.43
3,-0.07861328,-0.02825928,0.9964905,0.9892859,-0.06387329,-0.03970337,0.9971619,-28.23033,1.132538,-25.62563,4.73494,0.390729,0.5239086,0.9986326,-0.1260071,0.008758545,0.9919891,27.96811,3.486725,-22.01286,4.715286,0.6736445,0.4079899,0.09055388,1.188899,-0.3084527,0.0183881,0.2570872,0.00744629,0.279347,-0.8832245,31.43
3,-0.07861328,-0.02825928,0.9964905,0.9892859,-0.06387329,-0.03970337,0.9971619,-28.23033,1.132538,-25.62563,4.73494,0.390729,0.5239086,0.9986326,-0.1260071,0.008758545,0.9919891,27.96811,3.486725,-22.01286,4.715286,0.6736445,0.4079899,0.09055388,1.188899,-0.3084527,0.0183881,0.2570872,0.00744629,0.279347,-0.8832245,31.43
3,-0.09159851,-0.01773071,0.995636,1.0,-0.06048584,-0.04171753,0.9972839,-28.27986,1.144272,-25.71307,4.781677,0.3917418,0.5246787,1.0,-0.1302338,0.01223755,0.991394,27.93658,3.482819,-22.01822,4.742081,0.675393,0.4076231,0.09091103,1.188638,-0.308477,0.01930834,0.2594146,0.008466965,0.279347,-0.8832245,31.43
3,-0.09159851,-0.01773071,0.995636,1.0,-0.06048584,-0.04171753,0.9972839,-28.27986,1.144272,-25.71307,4.781677,0.3917418,0.5246787,1.0,-0.1302338,0.01223755,0.991394,27.93658,3.482819,-22.01822,4.742081,0.675393,0.4076231,0.09091103,1.188638,-0.308477,0.01930834,0.2594146,0.008466965,0.279347,-0.8832245,31.43
3,-0.1077728,-0.004074097,0.9941559,1.0,-0.06079102,-0.04304504,0.9972076,-28.25314,1.08876,-25.65907,4.82077,0.3909173,0.5262536,1.0,-0.12677,0.01177979,0.9918518,27.93893,3.480774,-22.03354,4.760666,0.6747715,0.4078827,0.09130609,1.188519,-0.3086077,0.01992814,0.2620322,0.009254025,0.279347,-0.8832245,31.43
3,-0.1077728,-0.004074097,0.9941559,1.0,-0.06079102,-0.04304504,0.9972076,-28.25314,1.08876,-25.65907,4.82077,0.3909173,0.5262536,1.0,-0.12677,0.01177979,0.9918518,27.93893,3.480774,-22.03354,4.760666,0.6747715,0.4078827,0.09130609,1.188519,-0.3086077,0.01992814,0.2620322,0.009254025,0.279347,-0.8832245,31.43
3,-0.09742737,-0.002822876,0.995224,1.0,-0.06382751,-0.03378296,0.9973755,-28.2068,1.118805,-25.74252,4.770935,0.3898594,0.5244593,1.0,-0.1224823,0.02038574,0.9922485,28.002,3.496902,-22.04167,4.753799,0.6720354,0.4060101,0.09180689,1.188303,-0.3089405,0.01959143,0.2662147,0.009395451,0.279347,-4.989716,31.43
3,-0.09742737,-0.002822876,0.995224,1.0,-0.06382751,-0.03378296,0.9973755,-28.2068,1.118805,-25.74252,4.770935,0.3898594,0.5244593,1.0,-0.1224823,0.02038574,0.9922485,28.002,3.496902,-22.04167,4.753799,0.6720354,0.4060101,0.09180689,1.188303,-0.3089405,0.01959143,0.2662147,0.009395451,0.279347,-4.989716,31.43
3,-0.09153748,-0.006896973,0.9957733,1.0,-0.05952454,-0.04072571,0.9973907,-28.19246,1.123703,-25.65347,4.778519,0.3887337,0.5246239,1.0,-0.1169128,0.02005005,0.9929352,27.99789,3.557037,-22.08444,4.724442,0.6713259,0.4044175,0.09309304,1.188745,-0.309252,0.0182963,0.2734733,0.00860141,0.279347,-4.989716,31.43
3,-0.09153748,-0.006896973,0.9957733,1.0,-0.05952454,-0.04072571,0.9973907,-28.19246,1.123703,-25.65347,4.778519,0.3887337,0.5246239,1.0,-0.1169128,0.02005005,0.9929352,27.99789,3.557037,-22.08444,4.724442,0.6713259,0.4044175,0.09309304,1.188745,-0.309252,0.0182963,0.2734733,0.00860141,0.279347,-4.989716,31.43
3,-0.0901947,0.003845215,0.9959106,1.0,-0.04681396,-0.03533936,0.9982758,-28.26704,1.185303,-25.89182,4.753342,0.3890055,0.5238295,1.0,-0.1084137,0.020401,0.9938812,27.94066,3.631744,-22.0128,4.813126,0.6717442,0.4013718,0.09500444,1.189172,-0.3098285,0.0159954,0.2839293,0.007342507,0.279347,-4.989716,31.43
3,-0.0901947,0.003845215,0.9959106,1.0,-0.04681396,-0.03533936,0.9982758,-28.26704,1.185303,-25.89182,4.753342,0.3890055,0.5238295,1.0,-0.1084137,0.020401,0.9938812,27.94066,3.631744,-22.0128,4.813126,0.6717442,0.4013718,0.09500444,1.189172,-0.3098285,0.0159954,0.2839293,0.007342507,0.279347,-4.989716,31.43
3,-0.1782684,0.02241516,0.9837189,1.0,-0.1676941,0.004455566,0.9858246,-29.14824,1.238617,-25.61485,4.78363,0.4380406,0.5138438,1.0,-0.1971893,0.05485535,0.9788208,26.89972,3.985886,-22.16998,4.730927,0.7213519,0.3857701,0.09705222,1.189621,-0.3109772,0.01240501,0.2988631,0.006769126,0.279347,-4.989716,31.43
3,-0.1782684,0.02241516,0.9837189,1.0,-0.1676941,0.004455566,0.9858246,-29.14824,1.238617,-25.61485,4.78363,0.4380406,0.5138438,1.0,-0.1971893,0.05485535,0.9788208,26.89972,3.985886,-22.16998,4.730927,0.7213519,0.3857701,0.09705222,1.189621,-0.3109772,0.01240501,0.2988631,0.006769126,0.279347,-4.989716,31.43
3,-0.3078766,0.06518555,0.949173,1.0,-0.3057861,0.06228638,0.950058,-29.85834,1.587143,-25.84668,4.751785,0.4844996,0.4965123,1.0,-0.3729248,0.1574402,0.9143982,25.96085,4.441208,-22.65469,4.961044,0.7864344,0.3582619,0.09936035,1.190027,-0.3126068,0.01000455,0.3175309,0.007300785,0.279347,-4.989716,31.43
3,-0.3078766,0.06518555,0.949173,1.0,-0.3057861,0.06228638,0.950058,-29.85834,1.587143,-25.84668,4.751785,0.4844996,0.4965123,1.0,-0.3729248,0.1574402,0.9143982,25.96085,4.441208,-22.65469,4.961044,0.7864344,0.3582619,0.09936035,1.190027,-0.3126068,0.01000455,0.3175309,0.007300785,0.279347,-4.989716,31.43
3,-0.4802704,0.1343689,0.8667603,1.0,-0.4802704,0.1343536,0.8667603,-30.70239,1.856583,-26.33862,4.809113,0.5428916,0.4832691,1.0,-0.5304413,0.1808167,0.8282013,24.66808,4.93306,-23.3967,5.025818,0.8685164,0.3420161,0.1018596,1.190445,-0.3141873,0.008590143,0.3364381,0.009183713,0.279347,-4.989716,31.43
3,-0.4802704,0.1343689,0.8667603,1.0,-0.4802704,0.1343536,0.8667603,-30.70239,1.856583,-26.33862,4.809113,0.5428916,0.4832691,1.0,-0.5304413,0.1808167,0.8282013,24.66808,4.93306,-23.3967,5.025818,0.8685164,0.3420161,0.1018596,1.190445,-0.3141873,0.008590143,0.3364381,0.009183713,0.279347,-4.989716,31.43
3,-0.5925598,0.1286316,0.7951813,1.0,-0.5925446,0.1286316,0.7951813,-31.19569,1.9729,-26.72516,4.946259,0.57971,0.4867065,1.0,-0.6121826,0.1255646,0.7806702,23.96371,5.097717,-23.86163,3.921036,0.9165491,0.3477676,0.1043104,1.190952,-0.3156651,0.006482382,0.3555923,0.01091694,0.279347,-4.989716,31.43
3,-0.5925598,0.1286316,0.7951813,1.0,-0.5925446,0.1286316,0.7951813,-31.19569,1.9729,-26.72516,4.946259,0.57971,0.4867065,1.0,-0.6121826,0.1255646,0.7806702,23.96371,5.097717,-23.86163,3.921036,0.9165491,0.3477676,0.1043104,1.190952,-0.3156651,0.006482382,0.3555923,0.01091694,0.279347,-4.989716,31.43
3,-1.0,-1.0,-1.0,1.0,0.0,0.0,0.0,-31.35986,1.989288,-26.8737,-1.0,0.5932341,0.492774,1.0,0.0,0.0,0.0,23.77077,5.25795,-24.38867,-1.0,-1.0,-1.0,0.106511,1.191572,-0.3173652,0.00427943,0.3767416,0.01115659,0.2780656,6.29744,31.43
3,-1.0,-1.0,-1.0,1.0,0.0,0.0,0.0,-31.35986,1.989288,-26.8737,-1.0,0.5932341,0.492774,1.0,0.0,0.0,0.0,23.77077,5.25795,-24.38867,-1.0,-1.0,-1.0,0.106511,1.191572,-0.3173652,0.00427943,0.3767416,0.01115659,0.2780656,6.29744,31.43
3,-0.6103516,0.1168213,0.7834625,1.0,-0.6103516,0.1168213,0.7834625,-31.14577,1.809921,-26.7486,4.846985,0.5813689,0.4947575,1.0,0.0,0.0,0.0,24.0874,4.856308,-23.83017,-1.0,0.9184511,0.3669575,0.1085976,1.192066,-0.3190882,0.003051758,0.3986742,0.01129859,0.2780656,6.29744,31.43
3,-0.6103516,0.1168213,0.7834625,1.0,-0.6103516,0.1168213,0.7834625,-31.14577,1.809921,-26.7486,4.846985,0.5813689,0.4947575,1.0,0.0,0.0,0.0,24.0874,4.856308,-23.83017,-1.0,0.9184511,0.3669575,0.1085976,1.192066,-0.3190882,0.003051758,0.3986742,0.01129859,0.2780656,6.29744,31.43
3,-0.5661469,0.1206512,0.8154144,1.0,-0.5661469,0.1206512,0.8154144,-30.73251,1.568115,-26.52498,4.829971,0.5592724,0.4988033,1.0,0.0,0.0,0.0,24.72995,4.562042,-23.68962,-1.0,0.8985076,0.362723,0.1101123,1.192343,-0.3208718,0.002322546,0.4201123,0.0124404,0.2780656,6.29744,31.43
3,-0.5661469,0.1206512,0.8154144,1.0,-0.5661469,0.1206512,0.8154144,-30.73251,1.568115,-26.52498,4.829971,0.5592724,0.4988033,1.0,0.0,0.0,0.0,24.72995,4.562042,-23.68962,-1.0,0.8985076,0.362723,0.1101123,1.192343,-0.3208718,0.002322546,0.4201123,0.0124404,0.2780656,6.29744,31.43
3,-0.5393524,0.1168823,0.8339233,1.0,-0.5393524,0.1168823,0.8339233,-30.3974,1.451401,-26.37196,4.810776,0.5431404,0.5011482,1.0,0.0,0.0,0.0,25.1555,4.385803,-23.44481,-1.0,0.8730682,0.3661085,0.1117862,1.192859,-0.3221529,0.002085938,0.4405833,0.01442807,0.2780656,6.29744,31.43
3,-0.5393524,0.1168823,0.8339233,1.0,-0.5393524,0.1168823,0.8339233,-30.3974,1.451401,-26.37196,4.810776,0.5431404,0.5011482,1.0,0.0,0.0,0.0,25.1555,4.385803,-23.44481,-1.0,0.8730682,0.3661085,0.1117862,1.192859,-0.3221529,0.002085938,0.4405833,0.01442807,0.2780656,6.29744,31.43
3,-0.5020447,0.1328888,0.8545532,1.0,-0.4760895,0.1188812,0.8713074,-29.98465,1.41568,-26.16544,4.676071,0.5182595,0.498503,1.0,-0.6023102,0.1886139,0.7756348,25.7832,4.223663,-23.15323,5.135101,0.8397255,0.3665508,0.1124345,1.193012,-0.3234835,0.002382717,0.4605043,0.01619124,0.2780656,6.29744,31.43
3,-0.5020447,0.1328888,0.8545532,1.0,-0.4760895,0.1188812,0.8713074,-29.98465,1.41568,-26.16544,4.676071,0.5182595,0.498503,1.0,-0.6023102,0.1886139,0.7756348,25.7832,4.223663,-23.15323,5.135101,0.8397255,0.3665508,0.1124345,1.193012,-0.3234835,0.002382717,0.4605043,0.01619124,0.2780656,6.29744,31.43
3,-0.432251,0.1159668,0.8942566,1.0,-0.422226,0.1105042,0.8997192,-29.69295,1.466156,-26.0101,4.663788,0.4991402,0.4957046,1.0,-0.5548096,0.184494,0.8112488,26.18285,4.213821,-22.92284,5.032776,0.814391,0.3656593,0.1129588,1.193244,-0.3244419,0.002702142,0.4799038,0.01707414,0.2780656,6.29744,31.43
3,-0.432251,0.1159668,0.8942566,1.0,-0.422226,0.1105042,0.8997192,-29.69295,1.466156,-26.0101,4.663788,0.4991402,0.4957046,1.0,-0.5548096,0.184494,0.8112488,26.18285,4.213821,-22.92284,5.032776,0.814391,0.3656593,0.1129588,1.193244,-0.3244419,0.002702142,0.4799038,0.01707414,0.2780656,6.29744,31.43
3,-0.3925171,0.1031799,0.9139252,1.0,-0.3777771,0.09420776,0.9210815,-29.54292,1.503998,-25.91325,4.647934,0.4864707,0.4954768,1.0,-0.5120239,0.1778259,0.8403473,26.43475,4.237427,-22.79132,5.049881,0.7964572,0.3646528,0.1128453,1.193099,-0.325315,0.002972606,0.4983136,0.01728535,0.2780656,6.29744,31.43
3,-0.3925171,0.1031799,0.9139252,1.0,-0.3777771,0.09420776,0.9210815,-29.54292,1.503998,-25.91325,4.647934,0.4864707,0.4954768,1.0,-0.5120239,0.1778259,0.8403473,26.43475,4.237427,-22.79132,5.049881,0.7964572,0.3646528,0.1128453,1.193099,-0.325315,0.002972606,0.4983136,0.01728535,0.2780656,6.29744,31.43
3,-0.3418274,0.1014099,0.9342651,1.0,-0.3236694,0.08702087,0.9421539,-29.30421,1.619888,-25.79303,4.575043,0.4694777,0.4908713,1.0,-0.4457855,0.1859589,0.8755951,26.72365,4.297058,-22.64479,4.987335,0.7735521,0.359569,0.1123959,1.193248,-0.3255789,0.003792047,0.5155461,0.01714599,0.2780656,6.29744,31.45
3,-0.3418274,0.1014099,0.9342651,1.0,-0.3236694,0.08702087,0.9421539,-29.30421,1.619888,-25.79303,4.575043,0.4694777,0.4908713,1.0,-0.4457855,0.1859589,0.8755951,26.72365,4.297058,-22.64479,4.987335,0.7735521,0.359569,0.1123959,1.193248,-0.3255789,0.003792047,0.5155461,0.01714599,0.2780656,6.29744,31.45
3,-0.2957458,0.1123352,0.9486237,1.0,-0.2671051,0.09162903,0.9592896,-29.04008,1.757309,-25.69658,4.528641,0.4513917,0.4839709,1.0,-0.3806152,0.1745453,0.9080963,27.00075,4.390747,-22.51717,4.985291,0.7517136,0.3568697,0.1113025,1.193158,-0.3258688,0.003979005,0.5316182,0.01662466,0.2780656,-43.46579,31.45
3,-0.2957458,0.1123352,0.9486237,1.0,-0.2671051,0.09162903,0.9592896,-29.04008,1.757309,-25.69658,4.528641,0.4513917,0.4839709,1.0,-0.3806152,0.1745453,0.9080963,27.00075,4.390747,-22.51717,4.985291,0.7517136,0.3568697,0.1113025,1.193158,-0.3258688,0.003979005,0.5316182,0.01662466,0.2780656,-43.46579,31.45
3,-0.2652893,0.1101837,0.95784,1.0,-0.2319641,0.08673096,0.9688416,-28.88431,1.768204,-25.65384,4.527725,0.440412,0.4836348,1.0,-0.3445435,0.1665344,0.9238586,27.21072,4.358826,-22.43779,4.807114,0.7378839,0.35835,0.1108413,1.193281,-0.3257143,0.003952704,0.5390224,0.01678522,0.2780656,-43.46579,31.45
3,-0.2288666,0.1048889,0.9677734,1.0,-0.1958466,0.07655334,0.9776306,-28.71458,1.786438,-25.68864,4.511337,0.4288093,0.4846284,1.0,-0.2946472,0.1618805,0.9417877,27.38843,4.32074,-22.39363,4.775406,0.7230034,0.3596887,0.1100307,1.193397,-0.3256158,0.004466006,0.5464734,0.01664974,0.2780656,-43.46579,31.45
3,-0.2288666,0.1048889,0.9677734,1.0,-0.1958466,0.07655334,0.9776306,-28.71458,1.786438,-25.68864,4.511337,0.4288093,0.4846284,1.0,-0.2946472,0.1618805,0.9417877,27.38843,4.32074,-22.39363,4.775406,0.7230034,0.3596887,0.1100307,1.193397,-0.3256158,0.004466006,0.5464734,0.01664974,0.2780656,-43.46579,31.45
3,-0.2583008,0.1577911,0.9530792,1.0,-0.1330566,0.06326294,0.9890747,-28.71259,2.550186,-28.22011,4.428162,0.4174007,0.483379,1.0,-0.2583008,0.1577911,0.9530792,27.5269,4.327942,-22.35336,4.833481,0.7119722,0.359653,0.1086534,1.19356,-0.3249471,0.005756104,0.5595521,0.016743,0.2780656,-43.46579,31.45
3,-0.2131042,0.1579437,0.9641724,1.0,-0.1033783,0.06315613,0.99263,-28.58482,2.889221,-29.09087,4.441895,0.407723,0.4796999,1.0,-0.2131042,0.1579437,0.9641724,27.72151,4.360611,-22.39685,4.707565,0.6978593,0.3586063,0.1079028,1.193743,-0.3244873,0.006285732,0.565325,0.01731958,0.2780656,-43.46579,31.45
3,-0.2131042,0.1579437,0.9641724,1.0,-0.1033783,0.06315613,0.99263,-28.58482,2.889221,-29.09087,4.441895,0.407723,0.4796999,1.0,-0.2131042,0.1579437,0.9641724,27.72151,4.360611,-22.39685,4.707565,0.6978593,0.3586063,0.1079028,1.193743,-0.3244873,0.006285732,0.565325,0.01731958,0.2780656,-43.46579,31.45
3,-0.1815796,0.1443481,0.9727173,1.0,-0.1455841,0.1082916,0.9833984,-28.03525,1.367691,-23.94728,4.632172,0.3991196,0.4775817,1.0,-0.1815796,0.1443481,0.9727173,27.95659,4.523544,-22.89476,4.58551,0.6855137,0.3591181,0.1057796,1.193799,-0.323529,0.00666933,0.5754921,0.01764455,0.2780656,-43.46579,31.45
3,-0.163147,0.1396027,0.9766693,1.0,-0.1183472,0.1074524,0.9871368,-27.87936,1.426926,-24.11009,4.562698,0.3895451,0.4769451,1.0,-0.163147,0.1396027,0.9766693,28.12157,4.618515,-23.32053,4.686432,0.6776826,0.3599513,0.1044055,1.193731,-0.3230213,0.006960684,0.5803416,0.01732818,0.2780656,-43.46579,31.45
3,-0.163147,0.1396027,0.9766693,1.0,-0.1183472,0.1074524,0.9871368,-27.87936,1.426926,-24.11009,4.562698,0.3895451,0.4769451,1.0,-0.163147,0.1396027,0.9766693,28.12157,4.618515,-23.32053,4.686432,0.6776826,0.3599513,0.1044055,1.193731,-0.3230213,0.006960684,0.5803416,0.01732818,0.2780656,-43.46579,31.45
3,-0.1379395,0.1355133,0.9811096,1.0,-0.07917786,0.09066772,0.9927216,-27.82167,1.662369,-24.90314,4.549835,0.3807382,0.4786405,1.0,-0.1379395,0.1355133,0.9811096,28.25754,4.666092,-23.44063,4.552475,0.6691031,0.3597851,0.1020542,1.193863,-0.3215884,0.006585578,0.5895025,0.01620067,0.2780656,-43.46579,31.45
3,-0.1231842,0.1394043,0.9825287,1.0,-0.07397461,0.09249878,0.9929504,-27.63243,1.625107,-24.71579,4.446228,0.3738351,0.477767,1.0,-0.1231842,0.1394043,0.9825287,28.50183,4.856873,-24.10675,4.518387,0.6594875,0.3579803,0.1006488,1.193974,-0.3208647,0.006170289,0.5936186,0.01567214,0.2780656,-43.46579,31.45
4,-0.1224365,0.1345673,0.9833069,1.0,-0.05516052,0.09587097,0.9938507,-27.58646,1.563385,-24.53268,4.525742,0.3693702,0.4776453,1.0,-0.1224365,0.1345673,0.9833069,28.60617,4.973526,-24.44138,4.599197,0.6564336,0.3574606,0.09929347,1.19426,-0.3200315,0.00574055,0.5974886,0.01545263,0.2780656,-43.46579,31.45
4,-0.1224365,0.1345673,0.9833069,1.0,-0.05516052,0.09587097,0.9938507,-27.58646,1.563385,-24.53268,4.525742,0.3693702,0.4776453,1.0,-0.1224365,0.1345673,0.9833069,28.60617,4.973526,-24.44138,4.599197,0.6564336,0.3574606,0.09929347,1.19426,-0.3200315,0.00574055,0.5974886,0.01545263,0.2780656,-43.46579,31.45
4,-0.06785583,0.1156616,0.9909515,1.0,-0.0586853,0.1094971,0.9922485,-27.42044,1.595322,-24.61079,4.614334,0.3644314,0.4751304,1.0,-0.09364319,0.1329651,0.9866791,28.63858,4.852539,-23.57634,4.439056,0.6492553,0.3548753,0.09613025,1.194606,-0.3182558,0.004107988,0.6052396,0.01611213,0.2780656,-43.46579,31.45
4,-0.05853271,0.1075592,0.9924622,1.0,-0.05110168,0.1046448,0.9931946,-27.3206,1.673615,-24.85254,4.514679,0.3597483,0.4752896,1.0,-0.08299255,0.1171112,0.9896393,28.74973,4.92038,-23.62123,4.388153,0.6437827,0.3555524,0.09444416,1.194687,-0.3173652,0.003581885,0.6092941,0.01631957,0.2780656,35.35869,31.45
4,-0.03315735,0.1113892,0.9932098,1.0,-0.03265381,0.1111908,0.9932556,-27.20793,1.510193,-24.61136,4.494049,0.3532174,0.4773732,1.0,-0.06465149,0.1236115,0.9902191,28.82182,4.858536,-23.54216,4.496964,0.6382252,0.3559941,0.09269273,1.194863,-0.3164339,0.003500886,0.6133327,0.016551,0.2780656,35.35869,31.45
4,-0.02859497,0.1126862,0.9932098,1.0,-0.02812195,0.1125031,0.9932404,-27.13788,1.453339,-24.54234,4.51474,0.3502256,0.4784009,1.0,-0.0572052,0.1236267,0.9906769,28.89722,4.864929,-23.66037,4.543274,0.634634,0.3567264,0.09099376,1.195135,-0.3154242,0.00316913,0.6171556,0.01677123,0.2780656,35.35869,31.45
4,-0.02859497,0.1126862,0.9932098,1.0,-0.02812195,0.1125031,0.9932404,-27.13788,1.453339,-24.54234,4.51474,0.3502256,0.4784009,1.0,-0.0572052,0.1236267,0.9906769,28.89722,4.864929,-23.66037,4.543274,0.634634,0.3567264,0.09099376,1.195135,-0.3154242,0.00316913,0.6171556,0.01677123,0.2780656,35.35869,31.45
4,-0.01728821,0.1165161,0.9930267,1.0,-0.01486206,0.1164398,0.9930725,-26.99065,1.501511,-24.78345,4.437424,0.3429961,0.4781315,1.0,-0.05039978,0.1175995,0.9917755,29.0549,4.892883,-23.84515,4.399567,0.628458,0.358102,0.08732879,1.195353,-0.3134048,0.003088162,0.6240194,0.01790901,0.2780656,35.35869,31.45
4,-0.02087402,0.1090546,0.9938049,1.0,-0.007507324,0.1042786,0.9945068,-26.8474,1.518234,-24.9747,4.474045,0.3368153,0.4811764,1.0,-0.04264832,0.116806,0.9922333,29.22626,4.875977,-23.9735,4.306885,0.6216035,0.359701,0.0850563,1.195441,-0.3125321,0.00301615,0.6270457,0.01831604,0.2780656,35.35869,31.45
4,-0.02087402,0.1090546,0.9938049,1.0,-0.007507324,0.1042786,0.9945068,-26.8474,1.518234,-24.9747,4.474045,0.3368153,0.4811764,1.0,-0.04264832,0.116806,0.9922333,29.22626,4.875977,-23.9735,4.306885,0.6216035,0.359701,0.0850563,1.195441,-0.3125321,0.00301615,0.6270457,0.01831604,0.2780656,35.35869,31.45
4,-0.01597595,0.1087189,0.9939423,1.0,-0.002990723,0.1071777,0.9942322,-26.7289,1.4496,-25.11565,4.336319,0.3320309,0.4839975,1.0,-0.03407288,0.1108398,0.9932404,29.33884,4.766479,-23.90939,4.375534,0.6163127,0.363874,0.083058,1.195553,-0.311453,0.002693857,0.6300773,0.01835647,0.2780656,35.35869,31.45
4,-0.01507568,0.1136932,0.9933929,1.0,0.005233765,0.1132507,0.9935455,-26.69612,1.374832,-25.17235,4.341278,0.3294874,0.4859205,1.0,-0.02488708,0.1138916,0.9931793,29.37643,4.731918,-23.96851,4.37294,0.6135929,0.3649702,0.07880402,1.195904,-0.3094994,0.001317568,0.6365681,0.0177542,0.2780656,35.35869,31.45
4,-0.001983643,0.1107483,0.9938354,1.0,0.02774048,0.1152191,0.9929504,-26.68436,1.123474,-24.88687,4.286911,0.3256678,0.4912519,1.0,-0.00831604,0.109787,0.9939117,29.38737,4.646133,-23.99883,4.282944,0.6104699,0.3686233,0.07663167,1.195838,-0.3085849,0.0005033088,0.6401482,0.01741247,0.2780656,35.35869,31.45
4,0.008071899,0.1077881,0.9941254,1.0,0.0397644,0.1210022,0.9918518,-26.64328,0.8825073,-24.68684,4.356552,0.3225012,0.4964875,1.0,-0.0001678467,0.1043243,0.9945374,29.43117,4.544235,-24.18155,4.079361,0.6077577,0.3741907,0.07437813,1.195749,-0.30776,0.0002589503,0.643452,0.01739984,0.2780656,35.35869,31.45
4,0.008071899,0.1077881,0.9941254,1.0,0.0397644,0.1210022,0.9918518,-26.64328,0.8825073,-24.68684,4.356552,0.3225012,0.4964875,1.0,-0.0001678467,0.1043243,0.9945374,29.43117,4.544235,-24.18155,4.079361,0.6077577,0.3741907,0.07437813,1.195749,-0.30776,0.0002589503,0.643452,0.01739984,0.2780656,35.35869,31.45
4,0.04298401,0.1212921,0.991684,1.0,0.04916382,0.1183929,0.991745,-26.57986,0.8490753,-24.96764,4.299011,0.3185057,0.5004066,1.0,0.007751465,0.1377411,0.9904327,29.46786,4.03833,-23.18335,4.201111,0.6042236,0.3775275,0.07225096,1.195663,-0.3068762,0.0003343033,0.646351,0.01748228,0.2780656,35.35869,31.45
4,0.05029297,0.1149139,0.9920959,1.0,0.05047607,0.1148224,0.9920959,-26.56509,0.7910767,-24.91383,4.319733,0.3178269,0.5024142,1.0,0.0138855,0.1315613,0.9911957,29.50368,3.989548,-23.16745,4.180405,0.6019341,0.3800774,0.06816399,1.195102,-0.3053561,-8.631675e-05,0.6532424,0.01760333,0.2780656,35.35869,31.45
4,0.06776428,0.1130829,0.9912567,1.0,0.06776428,0.1130829,0.9912567,-26.55519,0.6617737,-24.86208,4.201889,0.3146863,0.5063634,1.0,0.02110291,0.1299744,0.9912872,29.51704,3.953384,-23.18921,4.190521,0.6003126,0.3817031,0.0659368,1.194774,-0.3049397,-0.0004139606,0.6576261,0.01730839,0.2780656,35.35869,31.45
4,0.0788269,0.1148682,0.9902344,1.0,0.0788269,0.1148682,0.9902344,-26.55388,0.6441956,-25.00897,4.170074,0.312606,0.5079362,1.0,0.01956177,0.1092377,0.9938202,29.58414,4.352966,-24.45161,4.120514,0.5995522,0.3819731,0.06373346,1.194315,-0.3045365,-0.000149505,0.6630505,0.01655055,0.2780656,35.35869,31.45
4,0.0788269,0.1148682,0.9902344,1.0,0.0788269,0.1148682,0.9902344,-26.55388,0.6441956,-25.00897,4.170074,0.312606,0.5079362,1.0,0.01956177,0.1092377,0.9938202,29.58414,4.352966,-24.45161,4.120514,0.5995522,0.3819731,0.06373346,1.194315,-0.3045365,-0.000149505,0.6630505,0.01655055,0.2780656,35.35869,31.45
4,0.09158325,0.118927,0.9886627,1.0,0.09158325,0.118927,0.9886627,-26.52444,0.5933075,-25.2869,4.123474,0.3090968,0.511376,1.0,0.05197144,0.1331177,0.9897308,29.50073,3.954453,-23.50023,4.080322,0.5960509,0.3834571,0.0590694,1.19326,-0.3039547,0.001444355,0.6751677,0.01598422,0.2780656,32.2462,31.45
4,0.08468628,0.1043854,0.990921,1.0,0.08468628,0.1043854,0.990921,-26.73277,0.5406189,-25.21066,4.016357,0.3172597,0.5147436,1.0,0.04063416,0.1352692,0.9899597,29.37448,3.859802,-23.07831,4.116119,0.6016619,0.3829463,0.05667698,1.192662,-0.3040549,0.002176825,0.6820521,0.01650705,0.2780656,32.2462,31.45
4,0.08468628,0.1043854,0.990921,1.0,0.08468628,0.1043854,0.990921,-26.73277,0.5406189,-25.21066,4.016357,0.3172597,0.5147436,1.0,0.04063416,0.1352692,0.9899597,29.37448,3.859802,-23.07831,4.116119,0.6016619,0.3829463,0.05667698,1.192662,-0.3040549,0.002176825,0.6820521,0.01650705,0.2780656,32.2462,31.45
4,0.08468628,0.1043854,0.990921,1.0,0.08468628,0.1043854,0.990921,-26.73277,0.5406189,-25.21066,4.016357,0.3172597,0.5147436,1.0,0.04063416,0.1352692,0.9899597,29.37448,3.859802,-23.07831,4.116119,0.6016619,0.3829463,0.05414295,1.192102,-0.3042796,0.002548903,0.6892958,0.01679255,0.2780656,32.2462,31.45
4,0.08468628,0.1043854,0.990921,1.0,0.08468628,0.1043854,0.990921,-26.73277,0.5406189,-25.21066,4.016357,0.3172597,0.5147436,1.0,0.04063416,0.1352692,0.9899597,29.37448,3.859802,-23.07831,4.116119,0.6016619,0.3829463,0.04914188,1.19137,-0.3046631,0.001851288,0.7057675,0.01554373,0.2780656,32.2462,31.45
4,0.08468628,0.1043854,0.990921,1.0,0.08468628,0.1043854,0.990921,-26.73277,0.5406189,-25.21066,4.016357,0.3172597,0.5147436,1.0,0.04063416,0.1352692,0.9899597,29.37448,3.859802,-23.07831,4.116119,0.6016619,0.3829463,0.04914188,1.19137,-0.3046631,0.001851288,0.7057675,0.01554373,0.2780656,32.2462,31.45
4,-0.3233948,0.1212616,0.938446,1.0,-0.3232727,0.1210938,0.9385071,-29.7446,0.9622192,-25.60545,3.871399,0.4846036,0.5046177,1.0,-0.3555298,0.1734009,0.9184265,25.99582,4.771759,-24.20035,4.259781,0.7874013,0.3551165,0.04463983,1.191016,-0.3045514,-0.0004139606,0.7227947,0.01440559,0.2780656,32.2462,31.45
4,-0.3233948,0.1212616,0.938446,1.0,-0.3232727,0.1210938,0.9385071,-29.7446,0.9622192,-25.60545,3.871399,0.4846036,0.5046177,1.0,-0.3555298,0.1734009,0.9184265,25.99582,4.771759,-24.20035,4.259781,0.7874013,0.3551165,0.04463983,1.191016,-0.3045514,-0.0004139606,0.7227947,0.01440559,0.2780656,32.2462,31.45
4,-0.4264374,0.1142883,0.8972626,1.0,-0.4244385,0.1136017,0.8982849,-30.20201,1.037567,-25.85452,3.937576,0.5170331,0.5073928,1.0,-0.4970093,0.1386414,0.8565826,25.47136,4.996628,-24.58585,3.975586,0.835398,0.3565152,0.04027927,1.190659,-0.3048128,-0.002732303,0.7394834,0.01529488,0.2780656,32.2462,31.45
4,-0.5424194,0.09916687,0.8342285,1.0,-0.5423126,0.09910583,0.8342896,-30.63379,1.196228,-26.18095,3.93428,0.552276,0.5102656,1.0,-0.6088562,0.1415253,0.7805328,24.79904,5.057724,-25.17203,4.081787,0.888815,0.3578575,0.03562093,1.190083,-0.3051078,-0.004276819,0.7566294,0.01607277,0.2780656,32.2462,31.45
4,-0.5424194,0.09916687,0.8342285,1.0,-0.5423126,0.09910583,0.8342896,-30.63379,1.196228,-26.18095,3.93428,0.552276,0.5102656,1.0,-0.6088562,0.1415253,0.7805328,24.79904,5.057724,-25.17203,4.081787,0.888815,0.3578575,0.03562093,1.190083,-0.3051078,-0.004276819,0.7566294,0.01607277,0.2780656,32.2462,31.45
4,-0.5325928,0.0900116,0.8415527,1.0,-0.5322876,0.08992004,0.8417664,-30.58655,1.172104,-26.13719,3.840576,0.5489008,0.5118663,1.0,-0.6181793,0.1163788,0.777359,24.89314,4.912064,-25.11255,4.070313,0.8864133,0.3673414,0.03125846,1.189385,-0.3054001,-0.004701688,0.7728274,0.01680784,0.2780656,32.2462,31.45
4,-0.5325928,0.0900116,0.8415527,1.0,-0.5322876,0.08992004,0.8417664,-30.58655,1.172104,-26.13719,3.840576,0.5489008,0.5118663,1.0,-0.6181793,0.1163788,0.777359,24.89314,4.912064,-25.11255,4.070313,0.8864133,0.3673414,0.03125846,1.189385,-0.3054001,-0.004701688,0.7728274,0.01680784,0.2780656,32.2462,31.45
4,-0.4718475,0.1003723,0.8759308,1.0,-0.4670258,0.09875488,0.8786926,-30.24387,1.101273,-25.9165,3.776855,0.5259607,0.5090645,1.0,-0.5641785,0.1316681,0.8150787,25.47881,4.641037,-24.73384,4.136108,0.8493125,0.3720476,0.02713001,1.18894,-0.305239,-0.003537934,0.786925,0.01895591,0.2780656,-16.17943,31.45
4,-0.4718475,0.1003723,0.8759308,1.0,-0.4670258,0.09875488,0.8786926,-30.24387,1.101273,-25.9165,3.776855,0.5259607,0.5090645,1.0,-0.5641785,0.1316681,0.8150787,25.47881,4.641037,-24.73384,4.136108,0.8493125,0.3720476,0.02713001,1.18894,-0.305239,-0.003537934,0.786925,0.01895591,0.2780656,-16.17943,31.45
4,-0.4718475,0.1003723,0.8759308,1.0,-0.4670258,0.09875488,0.8786926,-30.24387,1.101273,-25.9165,3.776855,0.5259607,0.5090645,1.0,-0.5641785,0.1316681,0.8150787,25.47881,4.641037,-24.73384,4.136108,0.8493125,0.3720476,0.02713001,1.18894,-0.305239,-0.003537934,0.786925,0.01895591,0.2780656,-16.17943,31.45
4,-0.3582764,0.08610535,0.9296265,1.0,-0.3518372,0.08348083,0.9323273,-29.55142,1.146729,-25.55798,3.680618,0.4830905,0.5045479,1.0,-0.47612,0.1347809,0.8689728,26.4386,4.478195,-24.24847,4.05101,0.7939079,0.3737241,0.0222255,1.188195,-0.3051555,-0.000149505,0.7990456,0.01905177,0.2780656,-16.17943,31.45
4,-0.3382263,0.08634949,0.937088,1.0,-0.3313293,0.08201599,0.9399414,-29.42505,1.149017,-25.51309,3.649994,0.4754551,0.5039488,1.0,-0.4225922,0.1402283,0.8953857,26.56079,4.445465,-24.15181,3.919022,0.779155,0.3725272,0.01905537,1.187989,-0.3043418,0.001381068,0.8091476,0.01885581,0.2780656,-16.17943,31.45
4,-0.3382263,0.08634949,0.937088,1.0,-0.3313293,0.08201599,0.9399414,-29.42505,1.149017,-25.51309,3.649994,0.4754551,0.5039488,1.0,-0.4225922,0.1402283,0.8953857,26.56079,4.445465,-24.15181,3.919022,0.779155,0.3725272,0.01905537,1.187989,-0.3043418,0.001381068,0.8091476,0.01885581,0.2780656,-16.17943,31.45
4,-0.3116455,0.08622742,0.9462738,1.0,-0.3061218,0.08288574,0.9483643,-29.16617,1.202774,-25.44463,3.614731,0.4627078,0.501003,1.0,-0.3869171,0.1321411,0.9125824,26.87099,4.492203,-24.01508,3.821304,0.7611887,0.3710944,0.01496172,1.18742,-0.303259,0.002477757,0.8176664,0.01729698,0.2780656,-16.17943,31.45
4,-0.3116455,0.08622742,0.9462738,1.0,-0.3061218,0.08288574,0.9483643,-29.16617,1.202774,-25.44463,3.614731,0.4627078,0.501003,1.0,-0.3869171,0.1321411,0.9125824,26.87099,4.492203,-24.01508,3.821304,0.7611887,0.3710944,0.01496172,1.18742,-0.303259,0.002477757,0.8176664,0.01729698,0.2780656,-16.17943,31.45
4,-0.2754211,0.08598328,0.9574585,1.0,-0.2676239,0.08287048,0.9599457,-28.963,1.222122,-25.38419,3.727692,0.4494635,0.4994151,1.0,-0.3650208,0.1219482,0.9229736,27.14209,4.534271,-23.92485,3.911911,0.7474101,0.3707512,0.01197588,1.187335,-0.3017348,0.002022466,0.8251144,0.01700046,0.2780656,-16.17943,31.45
4,-0.2754211,0.08598328,0.9574585,1.0,-0.2676239,0.08287048,0.9599457,-28.963,1.222122,-25.38419,3.727692,0.4494635,0.4994151,1.0,-0.3650208,0.1219482,0.9229736,27.14209,4.534271,-23.92485,3.911911,0.7474101,0.3707512,0.01197588,1.187335,-0.3017348,0.002022466,0.8251144,0.01700046,0.2780656,-16.17943,31.45
4,-0.2389374,0.08222961,0.9675293,1.0,-0.2251587,0.07383728,0.9715118,-28.74312,1.32309,-25.32146,3.619034,0.4351972,0.4964572,1.0,-0.3107452,0.1262665,0.9420624,27.36928,4.600632,-23.83505,3.9245,0.7297127,0.3667342,0.009245992,1.187061,-0.2999399,0.001945481,0.8316024,0.01693833,0.2780656,-16.17943,31.45
4,-0.2389374,0.08222961,0.9675293,1.0,-0.2251587,0.07383728,0.9715118,-28.74312,1.32309,-25.32146,3.619034,0.4351972,0.4964572,1.0,-0.3107452,0.1262665,0.9420624,27.36928,4.600632,-23.83505,3.9245,0.7297127,0.3667342,0.009245992,1.187061,-0.2999399,0.001945481,0.8316024,0.01693833,0.2780656,-16.17943,31.45
4,-0.2000427,0.07670593,0.9767761,1.0,-0.1804962,0.06542969,0.9813843,-28.6006,1.377075,-25.39215,3.610199,0.4230218,0.4962659,1.0,-0.2553711,0.1087341,0.9606934,27.49025,4.648132,-23.74242,3.781586,0.715562,0.3669293,0.00765574,1.187294,-0.2975363,0.002685547,0.8370719,0.01739406,0.2780656,-16.17943,31.45
4,-0.2000427,0.07670593,0.9767761,1.0,-0.1804962,0.06542969,0.9813843,-28.6006,1.377075,-25.39215,3.610199,0.4230218,0.4962659,1.0,-0.2553711,0.1087341,0.9606934,27.49025,4.648132,-23.74242,3.781586,0.715562,0.3669293,0.00765574,1.187294,-0.2975363,0.002685547,0.8370719,0.01739406,0.2780656,-16.17943,31.45
4,-0.2293549,0.114212,0.9666138,1.0,-0.1389313,0.05888367,0.9885406,-28.60342,1.785156,-26.72694,3.50116,0.415693,0.4953859,1.0,-0.2297821,0.1144714,0.9664764,27.58594,4.617508,-23.71001,3.72258,0.707822,0.3665711,0.005473495,1.187034,-0.2956221,0.003029705,0.8426,0.01767366,0.2780656,-16.17943,31.45
4,-0.2293549,0.114212,0.9666138,1.0,-0.1389313,0.05888367,0.9885406,-28.60342,1.785156,-26.72694,3.50116,0.415693,0.4953859,1.0,-0.2297821,0.1144714,0.9664764,27.58594,4.617508,-23.71001,3.72258,0.707822,0.3665711,0.005473495,1.187034,-0.2956221,0.003029705,0.8426,0.01767366,0.2780656,-16.17943,31.45
4,-0.2124786,0.1110535,0.9708252,1.0,-0.1256714,0.04936218,0.9908295,-28.73944,1.911667,-27.42874,3.56839,0.4176579,0.499151,1.0,-0.2124786,0.1110535,0.9708252,27.49796,4.615997,-23.6801,3.781357,0.7076765,0.3669002,0.003177285,1.186844,-0.2939171,0.003121756,0.8486971,0.01804412,0.2780656,-18.43132,31.45
4,-0.2124786,0.1110535,0.9708252,1.0,-0.1256714,0.04936218,0.9908295,-28.73944,1.911667,-27.42874,3.56839,0.4176579,0.499151,1.0,-0.2124786,0.1110535,0.9708252,27.49796,4.615997,-23.6801,3.781357,0.7076765,0.3669002,0.003177285,1.186844,-0.2939171,0.003121756,0.8486971,0.01804412,0.2780656,-18.43132,31.45
4,-0.358078,0.09138489,0.9291992,1.0,-0.275238,0.04637146,0.9602509,-29.20737,1.263565,-25.94209,3.552521,0.4586877,0.5090798,1.0,-0.358078,0.09138489,0.9291992,26.74088,4.470566,-23.91158,3.735703,0.7596643,0.3776134,0.001465082,1.186887,-0.2921699,0.003641708,0.8551567,0.01860441,0.2780656,-18.43132,31.45
4,-0.358078,0.09138489,0.9291992,1.0,-0.275238,0.04637146,0.9602509,-29.20737,1.263565,-25.94209,3.552521,0.4586877,0.5090798,1.0,-0.358078,0.09138489,0.9291992,26.74088,4.470566,-23.91158,3.735703,0.7596643,0.3776134,0.001465082,1.186887,-0.2921699,0.003641708,0.8551567,0.01860441,0.2780656,-18.43132,31.45
4,-0.5028229,0.08659363,0.8600311,1.0,-0.3911743,0.04495239,0.9192047,-29.69681,1.146942,-26.15858,3.447739,0.4947233,0.5168833,1.0,-0.5028229,0.08659363,0.8600311,26.13873,4.475281,-24.27872,3.627258,0.8093716,0.3824134,-0.000844717,1.186439,-0.2909257,0.004684225,0.8616549,0.01885087,0.2780656,-18.43132,31.45
4,-0.5028229,0.08659363,0.8600311,1.0,-0.3911743,0.04495239,0.9192047,-29.69681,1.146942,-26.15858,3.447739,0.4947233,0.5168833,1.0,-0.5028229,0.08659363,0.8600311,26.13873,4.475281,-24.27872,3.627258,0.8093716,0.3824134,-0.000844717,1.186439,-0.2909257,0.004684225,0.8616549,0.01885087,0.2780656,-18.43132,31.45
4,-0.5933075,0.06504822,0.8023224,1.0,-0.4868469,0.04176331,0.8724823,-30.10759,1.087692,-26.39479,3.53923,0.5250124,0.523694,1.0,-0.5933075,0.06504822,0.8023224,25.52493,4.561478,-24.6559,3.726746,0.8519608,0.3868004,-0.002630711,1.186062,-0.2895234,0.005894871,0.8678505,0.01913898,0.2780656,-18.43132,31.45
4,-0.5933075,0.06504822,0.8023224,1.0,-0.4868469,0.04176331,0.8724823,-30.10759,1.087692,-26.39479,3.53923,0.5250124,0.523694,1.0,-0.5933075,0.06504822,0.8023224,25.52493,4.561478,-24.6559,3.726746,0.8519608,0.3868004,-0.002630711,1.186062,-0.2895234,0.005894871,0.8678505,0.01913898,0.2780656,-18.43132,31.45
4,-0.4510193,0.03886414,0.8916626,1.0,-0.4464569,0.03761292,0.8939972,-30.01062,1.105606,-26.29521,3.446091,0.5147233,0.5218989,1.0,-0.5816803,0.0758667,0.8098602,25.7877,4.538223,-24.53378,3.772095,0.8392963,0.3848926,-0.004485011,1.185339,-0.2882438,0.007825841,0.8735155,0.01997333,0.2780656,-18.43132,31.45
4,-0.4510193,0.03886414,0.8916626,1.0,-0.4464569,0.03761292,0.8939972,-30.01062,1.105606,-26.29521,3.446091,0.5147233,0.5218989,1.0,-0.5816803,0.0758667,0.8098602,25.7877,4.538223,-24.53378,3.772095,0.8392963,0.3848926,-0.004485011,1.185339,-0.2882438,0.007825841,0.8735155,0.01997333,0.2780656,-18.43132,31.45
4,-0.4444275,0.04025269,0.8948975,1.0,-0.4197998,0.03172302,0.9070435,-29.89336,1.111801,-26.2213,3.418854,0.5061594,0.5214188,1.0,-0.5445862,0.07598877,0.8352509,25.95668,4.500137,-24.40225,3.622498,0.8249059,0.3846824,-0.006159186,1.184558,-0.287141,0.009059559,0.8783568,0.02133473,0.2780656,-18.43132,31.45
4,-0.4444275,0.04025269,0.8948975,1.0,-0.4197998,0.03172302,0.9070435,-29.89336,1.111801,-26.2213,3.418854,0.5061594,0.5214188,1.0,-0.5445862,0.07598877,0.8352509,25.95668,4.500137,-24.40225,3.622498,0.8249059,0.3846824,-0.006159186,1.184558,-0.287141,0.009059559,0.8783568,0.02133473,0.2780656,-18.43132,31.45
4,-0.4192352,0.04153442,0.9069214,1.0,-0.3875275,0.03315735,0.9212494,-29.72896,1.143204,-26.13545,3.449646,0.4950877,0.5187415,1.0,-0.5122528,0.06663513,0.8562317,26.21556,4.543884,-24.22513,3.558197,0.8083251,0.3832015,-0.007875085,1.183959,-0.2860047,0.01021824,0.8828687,0.02258829,0.2780656,-18.43132,31.45
4,-0.4192352,0.04153442,0.9069214,1.0,-0.3875275,0.03315735,0.9212494,-29.72896,1.143204,-26.13545,3.449646,0.4950877,0.5187415,1.0,-0.5122528,0.06663513,0.8562317,26.21556,4.543884,-24.22513,3.558197,0.8083251,0.3832015,-0.007875085,1.183959,-0.2860047,0.01021824,0.8828687,0.02258829,0.2780656,-18.43132,31.45
4,-0.3734894,0.02966309,0.9271545,1.0,-0.3541107,0.02137756,0.9349518,-29.6017,1.148834,-26.05878,3.362717,0.4851546,0.5191815,1.0,-0.4824371,0.07752991,0.8724823,26.41133,4.547409,-24.1338,3.681427,0.7952268,0.3802732,-0.009072661,1.183467,-0.2847359,0.01116059,0.8869425,0.02350321,0.2780656,-18.43132,31.45
4,-0.3734894,0.02966309,0.9271545,1.0,-0.3541107,0.02137756,0.9349518,-29.6017,1.148834,-26.05878,3.362717,0.4851546,0.5191815,1.0,-0.4824371,0.07752991,0.8724823,26.41133,4.547409,-24.1338,3.681427,0.7952268,0.3802732,-0.009072661,1.183467,-0.2847359,0.01116059,0.8869425,0.02350321,0.2780656,-18.43132,31.45
4,-0.3625488,0.029953,0.9314728,1.0,-0.3353882,0.01974487,0.941864,-29.53462,1.129852,-26.02469,3.405975,0.4796837,0.5194948,1.0,-0.4719849,0.0721283,0.8786469,26.53891,4.510178,-24.07495,3.537964,0.7884415,0.3819582,-0.01040328,1.182707,-0.2834706,0.01180111,0.8905984,0.02346673,0.2780656,-18.43132,31.45
4,-0.3625488,0.029953,0.9314728,1.0,-0.3353882,0.01974487,0.941864,-29.53462,1.129852,-26.02469,3.405975,0.4796837,0.5194948,1.0,-0.4719849,0.0721283,0.8786469,26.53891,4.510178,-24.07495,3.537964,0.7884415,0.3819582,-0.01040328,1.182707,-0.2834706,0.01180111,0.8905984,0.02346673,0.2780656,-18.43132,31.45
4,-0.3440857,0.02555847,0.9385834,1.0,-0.3095398,0.01344299,0.9507751,-29.42119,1.117691,-25.97913,3.260056,0.4716307,0.5200239,1.0,-0.4332886,0.05752563,0.8994141,26.69341,4.461212,-23.97644,3.585831,0.7751782,0.3849641,-0.01140428,1.18198,-0.2822405,0.01330846,0.8935673,0.02285292,0.2780656,-18.43132,31.45
4,-0.3440857,0.02555847,0.9385834,1.0,-0.3095398,0.01344299,0.9507751,-29.42119,1.117691,-25.97913,3.260056,0.4716307,0.5200239,1.0,-0.4332886,0.05752563,0.8994141,26.69341,4.461212,-23.97644,3.585831,0.7751782,0.3849641,-0.01140428,1.18198,-0.2822405,0.01330846,0.8935673,0.02285292,0.2780656,-18.43132,31.45
4,-0.3309784,0.03134155,0.9431,1.0,-0.2859955,0.01538086,0.9580994,-29.34363,1.137207,-25.93654,3.346985,0.4650188,0.5183906,1.0,-0.4153442,0.06187439,0.907547,26.82018,4.437881,-23.92438,3.536224,0.7673024,0.3844283,-0.01191413,1.181534,-0.2816048,0.01433066,0.8948627,0.02340314,0.2780656,-18.43132,31.45
4,-0.3269958,0.03541565,0.9443512,1.0,-0.2805786,0.02326965,0.9595337,-29.31572,1.146271,-25.93219,3.382538,0.4631872,0.5166736,1.0,-0.4122009,0.05805969,0.9092255,26.83791,4.433319,-23.9102,3.532883,0.7660302,0.385094,-0.01282072,1.180933,-0.2806237,0.01744752,0.8971569,0.02539444,0.2780656,47.44017,31.45
4,-0.3269958,0.03541565,0.9443512,1.0,-0.2805786,0.02326965,0.9595337,-29.31572,1.146271,-25.93219,3.382538,0.4631872,0.5166736,1.0,-0.4122009,0.05805969,0.9092255,26.83791,4.433319,-23.9102,3.532883,0.7660302,0.385094,-0.01282072,1.180933,-0.2806237,0.01744752,0.8971569,0.02539444,0.2780656,47.44017,31.45
4,-0.3155518,0.03785706,0.9481354,1.0,-0.2603455,0.02268982,0.9652405,-29.28722,1.181152,-25.90146,3.388992,0.4588307,0.5151036,1.0,-0.3869934,0.05776978,0.9202576,26.88957,4.4021,-23.86107,3.500763,0.7594644,0.3855067,-0.01361942,1.180409,-0.2805775,0.01915415,0.8983125,0.02651456,0.2780656,47.44017,31.45
4,-0.3155518,0.03785706,0.9481354,1.0,-0.2603455,0.02268982,0.9652405,-29.28722,1.181152,-25.90146,3.388992,0.4588307,0.5151036,1.0,-0.3869934,0.05776978,0.9202576,26.88957,4.4021,-23.86107,3.500763,0.7594644,0.3855067,-0.01361942,1.180409,-0.2805775,0.01915415,0.8983125,0.02651456,0.2780656,47.44017,31.45
4,-0.2938232,0.03666687,0.9551392,1.0,-0.2468719,0.01486206,0.9689178,-29.28593,1.142761,-25.89043,3.282669,0.4565578,0.5173485,1.0,-0.3522339,0.06420898,0.9337006,26.8739,4.325424,-23.84174,3.437668,0.7536633,0.3863953,-0.01465678,1.179624,-0.2801468,0.02245231,0.9012836,0.02784006,0.2780656,47.44017,31.45
4,-0.2760925,0.03088379,0.9606323,1.0,-0.2314758,0.008361816,0.9727936,-29.28473,1.084686,-25.88252,3.255356,0.4539129,0.5200832,1.0,-0.3311615,0.05906677,0.9417114,26.89964,4.216919,-23.82368,3.393631,0.7488425,0.3905284,-0.01600397,1.17867,-0.2799883,0.02535539,0.904682,0.02769517,0.2780656,47.44017,31.45
4,-0.2760925,0.03088379,0.9606323,1.0,-0.2314758,0.008361816,0.9727936,-29.28473,1.084686,-25.88252,3.255356,0.4539129,0.5200832,1.0,-0.3311615,0.05906677,0.9417114,26.89964,4.216919,-23.82368,3.393631,0.7488425,0.3905284,-0.01600397,1.17867,-0.2799883,0.02535539,0.904682,0.02769517,0.2780656,47.44017,31.45
4,-0.2637939,0.03219604,0.964035,1.0,-0.2233582,0.01028442,0.9746704,-29.26765,1.023804,-25.88483,3.306885,0.4519465,0.5217335,1.0,-0.3143311,0.05992126,0.947403,26.88844,4.13147,-23.81743,3.454147,0.7461281,0.3930455,-0.01667738,1.178118,-0.2800043,0.02622296,0.9065688,0.02746365,0.2780656,47.44017,31.45
4,-0.2587128,0.03335571,0.9653625,1.0,-0.2137909,0.01277161,0.9767914,-29.25079,0.9783173,-25.88156,3.180923,0.4498622,0.522586,1.0,-0.3127136,0.05839539,0.9480438,26.89874,4.100433,-23.81807,3.406219,0.7454727,0.3943133,-0.01748407,1.177523,-0.2800719,0.02640107,0.9087439,0.0264118,0.2780656,47.44017,31.45
4,-0.2587128,0.03335571,0.9653625,1.0,-0.2137909,0.01277161,0.9767914,-29.25079,0.9783173,-25.88156,3.180923,0.4498622,0.522586,1.0,-0.3127136,0.05839539,0.9480438,26.89874,4.100433,-23.81807,3.406219,0.7454727,0.3943133,-0.01748407,1.177523,-0.2800719,0.02640107,0.9087439,0.0264118,0.2780656,47.44017,31.45
4,-0.2520752,0.03466797,0.9670715,1.0,-0.2027435,0.01924133,0.9790344,-29.20738,0.9098358,-25.87624,3.220215,0.4465591,0.5236066,1.0,-0.3068848,0.05195618,0.9503174,26.97409,3.999054,-23.7932,3.372971,0.7417128,0.3985422,-0.01898956,1.176263,-0.2800242,0.02679965,0.9128272,0.02395659,0.2780656,47.44017,31.45
4,-0.2329865,0.03268433,0.9719238,1.0,-0.184021,0.01220703,0.9828339,-29.15596,0.9009247,-25.85497,3.137939,0.4417437,0.5246471,1.0,-0.286087,0.05508423,0.956604,27.02499,3.926651,-23.76723,3.285614,0.7362371,0.3999858,-0.01978862,1.175559,-0.2799156,0.02691256,0.9145451,0.02287182,0.2780656,47.44017,31.45
4,-0.2113342,0.04156494,0.9765167,1.0,-0.1685638,0.01750183,0.9855194,-29.11339,0.9335632,-25.84517,3.233688,0.4377229,0.5225403,1.0,-0.2603607,0.06939697,0.9629974,27.07402,3.882614,-23.76031,3.308746,0.7300639,0.398784,-0.02056038,1.175012,-0.2796304,0.02708971,0.9160817,0.02179972,0.2780656,4.262115,31.45
4,-0.2050171,0.04309082,0.9777985,1.0,-0.1619415,0.01759338,0.9866333,-29.09483,0.9472809,-25.84677,3.215622,0.4360137,0.5220163,1.0,-0.2546082,0.07272339,0.9642944,27.10596,3.868988,-23.75748,3.275055,0.7279819,0.3985909,-0.021595,1.174391,-0.2795299,0.0273413,0.9173226,0.02100922,0.2780656,4.262115,31.45
4,-0.2050171,0.04309082,0.9777985,1.0,-0.1619415,0.01759338,0.9866333,-29.09483,0.9472809,-25.84677,3.215622,0.4360137,0.5220163,1.0,-0.2546082,0.07272339,0.9642944,27.10596,3.868988,-23.75748,3.275055,0.7279819,0.3985909,-0.021595,1.174391,-0.2795299,0.0273413,0.9173226,0.02100922,0.2780656,4.262115,31.45
4,-0.2063293,0.05081177,0.9771576,1.0,-0.1510773,0.02285767,0.9882507,-29.05696,1.078156,-26.07249,3.288055,0.4328751,0.5188476,1.0,-0.2481079,0.07211304,0.9660339,27.14131,3.883331,-23.74786,3.354156,0.7256073,0.3981579,-0.02279401,1.17353,-0.2788459,0.02718498,0.9191754,0.02008381,0.2780656,4.262115,31.45
4,-0.2169037,0.06802368,0.9738159,1.0,-0.1450806,0.02000427,0.989212,-29.01012,1.116821,-26.00977,3.244308,0.4303674,0.5174051,1.0,-0.2346802,0.08000183,0.9687653,27.16235,3.905807,-23.74144,3.393875,0.7225718,0.3959526,-0.02304506,1.17333,-0.2782207,0.02724876,0.9196758,0.01960891,0.2780656,4.262115,31.45
4,-0.2169037,0.06802368,0.9738159,1.0,-0.1450806,0.02000427,0.989212,-29.01012,1.116821,-26.00977,3.244308,0.4303674,0.5174051,1.0,-0.2346802,0.08000183,0.9687653,27.16235,3.905807,-23.74144,3.393875,0.7225718,0.3959526,-0.02304506,1.17333,-0.2782207,0.02724876,0.9196758,0.01960891,0.2780656,4.262115,31.45
4,-0.2204285,0.06770325,0.9730377,1.0,-0.1240387,0.01565552,0.9921417,-29.01901,1.293015,-26.48706,3.288406,0.4269649,0.5165503,1.0,-0.2238922,0.06958008,0.9721222,27.19588,3.938919,-23.69518,3.357086,0.7194365,0.3961489,-0.02353191,1.172821,-0.2768712,0.02719156,0.9200642,0.01933302,0.2780656,4.262115,31.45
4,-0.2150269,0.08682251,0.9727325,1.0,-0.1053009,0.01965332,0.9942322,-29.0667,1.644089,-27.44545,3.324112,0.4250966,0.5129049,1.0,-0.2150269,0.08682251,0.9727325,27.2325,3.960419,-23.745,3.319183,0.7168372,0.3928773,-0.02368867,1.172727,-0.2762222,0.02699355,0.9199439,0.01940304,0.2780656,4.262115,31.45
5,-0.2147217,0.08139038,0.9732666,1.0,-0.09860229,0.01887512,0.9949341,-29.03535,1.583847,-27.02016,3.276855,0.4231068,0.5111282,1.0,-0.2147217,0.08139038,0.9732666,27.24542,4.018875,-23.73529,3.290558,0.7163479,0.3917379,-0.02383304,1.172444,-0.2749038,0.02688458,0.9188116,0.020474,0.2780656,4.262115,31.45
5,-0.2147217,0.08139038,0.9732666,1.0,-0.09860229,0.01887512,0.9949341,-29.03535,1.583847,-27.02016,3.276855,0.4231068,0.5111282,1.0,-0.2147217,0.08139038,0.9732666,27.24542,4.018875,-23.73529,3.290558,0.7163479,0.3917379,-0.02383304,1.172444,-0.2749038,0.02688458,0.9188116,0.020474,0.2780656,4.262115,31.45
5,-0.2102509,0.07252502,0.9749451,1.0,-0.1001129,0.0194397,0.9947815,-29.04204,1.642151,-26.9489,3.273743,0.4236202,0.5084459,1.0,-0.2102661,0.07252502,0.9749451,27.20813,4.156021,-23.60855,3.352005,0.7165786,0.3876865,-0.02382946,1.172377,-0.2741555,0.02713286,0.9178383,0.02071926,0.2780656,4.262115,31.45
5,-0.2150879,0.06596375,0.97435,1.0,-0.107132,0.02655029,0.9938812,-29.07393,1.550354,-26.69704,3.297073,0.4259478,0.5080726,1.0,-0.2154846,0.06610107,0.9742584,27.17038,4.157181,-23.6106,3.317902,0.7187439,0.3887393,-0.0236212,1.1723,-0.2733544,0.02776664,0.9165505,0.02080359,0.2780656,4.262115,31.45
5,-0.2150879,0.06596375,0.97435,1.0,-0.107132,0.02655029,0.9938812,-29.07393,1.550354,-26.69704,3.297073,0.4259478,0.5080726,1.0,-0.2154846,0.06610107,0.9742584,27.17038,4.157181,-23.6106,3.317902,0.7187439,0.3887393,-0.0236212,1.1723,-0.2733544,0.02776664,0.9165505,0.02080359,0.2780656,4.262115,31.45
5,-0.2156982,0.06758118,0.9741058,1.0,-0.1103973,0.01867676,0.9936981,-29.10571,1.522949,-26.64316,3.304611,0.4275456,0.5098493,1.0,-0.2173157,0.06834412,0.9736938,27.13322,4.156708,-23.61909,3.393158,0.7203358,0.3884933,-0.02336633,1.172159,-0.272456,0.02798873,0.915177,0.02102482,0.2780656,4.262115,31.45
5,-0.2132721,0.06495667,0.974823,1.0,-0.1118774,0.02052307,0.9934998,-29.18269,1.549438,-26.85512,3.265411,0.4302968,0.5105708,1.0,-0.216507,0.06637573,0.9740143,27.05783,4.155212,-23.62326,3.459076,0.7227391,0.3889196,-0.0223527,1.172268,-0.2705351,0.02821752,0.9117611,0.0210535,0.2780656,4.262115,31.45
5,-0.2035675,0.07478333,0.9761963,1.0,-0.1133881,0.02012634,0.9933319,-29.23161,1.577835,-27.00731,3.256561,0.4321296,0.5110843,1.0,-0.2144928,0.08145142,0.9733124,27.02753,4.103699,-23.71185,3.434372,0.7236356,0.3887678,-0.0217911,1.172337,-0.2695206,0.02823495,0.9097533,0.02105492,0.2780656,4.262115,31.45
5,-0.1962891,0.07756042,0.9774628,1.0,-0.1206207,0.015625,0.992569,-29.27237,1.426361,-26.6369,3.429733,0.4347152,0.5136883,1.0,-0.2145538,0.09263611,0.9723053,26.95781,4.091019,-23.72641,3.383606,0.7261267,0.3873532,-0.02122784,1.172435,-0.2683945,0.02863687,0.9073895,0.02098048,0.2780656,-37.04004,31.45
5,-0.1962891,0.07756042,0.9774628,1.0,-0.1206207,0.015625,0.992569,-29.27237,1.426361,-26.6369,3.429733,0.4347152,0.5136883,1.0,-0.2145538,0.09263611,0.9723053,26.95781,4.091019,-23.72641,3.383606,0.7261267,0.3873532,-0.02122784,1.172435,-0.2683945,0.02863687,0.9073895,0.02098048,0.2780656,-37.04004,31.45
5,-0.2316437,0.09100342,0.9685211,1.0,-0.1522827,0.02641296,0.9879761,-29.23553,1.134018,-25.78824,3.408722,0.439027,0.5140167,1.0,-0.231781,0.09111023,0.9684753,26.92378,4.034241,-23.74272,3.265427,0.7303143,0.3896432,-0.01925325,1.172771,-0.2656133,0.02947866,0.9012703,0.02211091,0.2780656,-37.04004,31.45
5,-0.2459259,0.0814209,0.9658508,1.0,-0.1632385,0.03181458,0.9860687,-29.20349,1.081375,-25.64296,3.419724,0.4398389,0.5136068,1.0,-0.2459259,0.0814209,0.9658508,26.93846,4.062134,-23.68135,3.368835,0.7321312,0.3900213,-0.01925325,1.172771,-0.2656133,0.02947866,0.9012703,0.02211091,0.2780656,-37.04004,31.45
5,-0.2553101,0.05838013,0.9650879,1.0,-0.1773376,0.02947998,0.9837036,-29.15396,1.060822,-25.53932,3.492218,0.4405376,0.5138953,1.0,-0.2553101,0.05838013,0.9650879,26.97038,4.194458,-23.67322,3.30687,0.7326079,0.3895075,-0.01702058,1.173106,-0.2620924,0.03080359,0.8920837,0.02360254,0.2780656,-37.04004,31.45
5,-0.2553101,0.05838013,0.9650879,1.0,-0.1773376,0.02947998,0.9837036,-29.15396,1.060822,-25.53932,3.492218,0.4405376,0.5138953,1.0,-0.2553101,0.05838013,0.9650879,26.97038,4.194458,-23.67322,3.30687,0.7326079,0.3895075,-0.01702058,1.173106,-0.2620924,0.03080359,0.8920837,0.02360254,0.2780656,-37.04004,31.45
5,-0.2887878,0.07493591,0.9544525,1.0,-0.1911011,0.04069519,0.9807129,-29.06993,1.156326,-25.59364,3.482468,0.440113,0.5094689,1.0,-0.2887878,0.07493591,0.9544525,27.16797,4.142838,-23.66025,3.350067,0.7318146,0.388705,-0.01434839,1.17379,-0.2578362,0.03352603,0.8788173,0.02376706,0.2780656,-37.04004,31.45
5,-0.2662201,0.09138489,0.9595642,1.0,-0.1577606,0.02522278,0.9871521,-28.85498,1.96228,-27.77399,3.475189,0.4267751,0.5048155,1.0,-0.2662201,0.09138489,0.9595642,27.65778,4.144714,-23.64781,3.354767,0.7113342,0.3857373,-0.01116979,1.174666,-0.252219,0.03729203,0.8609688,0.02311678,0.2780656,-37.04004,31.45
5,-0.2662201,0.09138489,0.9595642,1.0,-0.1577606,0.02522278,0.9871521,-28.85498,1.96228,-27.77399,3.475189,0.4267751,0.5048155,1.0,-0.2662201,0.09138489,0.9595642,27.65778,4.144714,-23.64781,3.354767,0.7113342,0.3857373,-0.01116979,1.174666,-0.252219,0.03729203,0.8609688,0.02311678,0.2780656,-37.04004,31.45
5,-1.0,-1.0,-1.0,0.5006837,0.0,0.0,0.0,-27.48106,2.218887,-27.60881,-1.0,0.3706464,0.4910997,0.4999872,0.0,0.0,0.0,29.34007,5.72171,-28.41238,-1.0,0.6370165,0.3812928,-0.007931709,1.175412,-0.245559,0.03979474,0.8377473,0.02171926,0.2780656,-37.04004,31.45
5,-1.0,-1.0,-1.0,0.5006837,0.0,0.0,0.0,-27.48106,2.218887,-27.60881,-1.0,0.3706464,0.4910997,0.4999872,0.0,0.0,0.0,29.34007,5.72171,-28.41238,-1.0,0.6370165,0.3812928,-0.007931709,1.175412,-0.245559,0.03979474,0.8377473,0.02171926,0.2780656,-37.04004,31.45
5,-1.0,-1.0,-1.0,0.1901622,0.0,0.0,0.0,-26.78328,2.042664,-26.43153,-1.0,0.3094694,0.5227542,0.2686212,0.0,0.0,0.0,28.05334,3.143646,-23.67073,-1.0,0.6677005,0.4502484,-0.004726768,1.176308,-0.2381113,0.03799143,0.8098093,0.02021379,0.2831912,-37.04004,31.45
5,-1.0,-1.0,-1.0,0.1901622,0.0,0.0,0.0,-26.78328,2.042664,-26.43153,-1.0,0.3094694,0.5227542,0.2686212,0.0,0.0,0.0,28.05334,3.143646,-23.67073,-1.0,0.6677005,0.4502484,-0.004726768,1.176308,-0.2381113,0.03799143,0.8098093,0.02021379,0.2831912,-37.04004,31.45
5,-1.0,-1.0,-1.0,0.0,0.0,0.0,0.0,-26.78328,2.042664,-26.43153,-1.0,0.5135065,0.6137083,0.0,0.0,0.0,0.0,30.3447,2.572159,-24.07292,-1.0,0.521604,0.4922653,-0.001803041,1.177325,-0.2298834,0.0364136,0.777211,0.0190136,0.2831912,-37.04004,31.45
5,-1.0,-1.0,-1.0,0.0,0.0,0.0,0.0,-26.78328,2.042664,-26.43153,-1.0,0.5135065,0.6137083,0.0,0.0,0.0,0.0,30.3447,2.572159,-24.07292,-1.0,0.521604,0.4922653,-0.001803041,1.177325,-0.2298834,0.0364136,0.777211,0.0190136,0.2831912,-37.04004,31.45
5,-1.0,-1.0,-1.0,0.0,0.0,0.0,0.0,-26.78328,2.042664,-26.43153,-1.0,-1.0,-1.0,0.0,0.0,0.0,0.0,30.23625,2.419189,-24.07925,-1.0,-1.0,-1.0,0.0004439354,1.178969,-0.2214404,0.03575421,0.7391161,0.02149287,0.2831912,3.815948,31.45
5,-1.0,-1.0,-1.0,0.0,0.0,0.0,0.0,-26.78328,2.042664,-26.43153,-1.0,-1.0,-1.0,0.0,0.0,0.0,0.0,30.23625,2.419189,-24.07925,-1.0,-1.0,-1.0,0.0004439354,1.178969,-0.2214404,0.03575421,0.7391161,0.02149287,0.2831912,3.815948,31.45
5,-1.0,-1.0,-1.0,0.0,0.0,0.0,0.0,-26.78328,2.042664,-26.43153,-1.0,-1.0,-1.0,0.0,0.0,0.0,0.0,30.23625,2.419189,-24.07925,-1.0,-1.0,-1.0,0.002045274,1.181138,-0.2126387,0.03514289,0.6960583,0.02625931,0.2831912,3.815948,31.45
5,-1.0,-1.0,-1.0,0.0,0.0,0.0,0.0,-26.78328,2.042664,-26.43153,-1.0,-1.0,-1.0,0.0,0.0,0.0,0.0,30.23625,2.419189,-24.07925,-1.0,-1.0,-1.0,0.002045274,1.181138,-0.2126387,0.03514289,0.6960583,0.02625931,0.2831912,3.815948,31.45
5,-1.0,-1.0,-1.0,0.0,0.0,0.0,0.0,-26.78328,2.042664,-26.43153,-1.0,-1.0,-1.0,0.0,0.0,0.0,0.0,30.48882,4.345642,-24.01877,-1.0,0.4841728,0.4219106,0.002637506,1.183031,-0.2044675,0.03234472,0.6502532,0.03120658,0.2831912,3.815948,31.45
5,-1.0,-1.0,-1.0,0.0,0.0,0.0,0.0,-26.78328,2.042664,-26.43153,-1.0,-1.0,-1.0,0.0,0.0,0.0,0.0,30.48882,4.345642,-24.01877,-1.0,0.4841728,0.4219106,0.002637506,1.183031,-0.2044675,0.03234472,0.6502532,0.03120658,0.2831912,3.815948,31.45
5,-1.0,-1.0,-1.0,0.0,0.0,0.0,0.0,-26.78328,2.042664,-26.43153,-1.0,-1.0,-1.0,0.05660518,0.0,0.0,0.0,30.64841,4.010193,-23.94699,-1.0,0.4971999,0.4396286,0.002001405,1.184076,-0.19713,0.02897236,0.6040063,0.0330423,0.2831912,3.815948,31.45
5,-1.0,-1.0,-1.0,0.0,0.0,0.0,0.0,-26.78328,2.042664,-26.43153,-1.0,-1.0,-1.0,0.05660518,0.0,0.0,0.0,30.64841,4.010193,-23.94699,-1.0,0.4971999,0.4396286,0.002001405,1.184076,-0.19713,0.02897236,0.6040063,0.0330423,0.2831912,3.815948,31.45
5,-1.0,-1.0,-1.0,0.0,0.0,0.0,0.0,-26.78328,2.042664,-26.43153,-1.0,-1.0,-1.0,0.05660518,0.0,0.0,0.0,30.64841,4.010193,-23.94699,-1.0,0.4971999,0.4396286,0.0002554655,1.184418,-0.1914713,0.02802398,0.5583689,0.03311876,0.2831912,3.815948,31.45
5,-1.0,-1.0,-1.0,0.0,0.0,0.0,0.0,-26.78328,2.042664,-26.43153,-1.0,-1.0,-1.0,0.05660518,0.0,0.0,0.0,30.64841,4.010193,-23.94699,-1.0,0.4971999,0.4396286,0.0002554655,1.184418,-0.1914713,0.02802398,0.5583689,0.03311876,0.2831912,3.815948,31.45
5,-1.0,-1.0,-1.0,0.0,0.0,0.0,0.0,-26.78328,2.042664,-26.43153,-1.0,-1.0,-1.0,0.05660518,0.0,0.0,0.0,30.64841,4.010193,-23.94699,-1.0,0.4971999,0.4396286,-0.001863122,1.184771,-0.1877794,0.03013876,0.5159513,0.0325184,0.2831912,3.815948,31.45
5,-1.0,-1.0,-1.0,0.0,0.0,0.0,0.0,-26.78328,2.042664,-26.43153,-1.0,-1.0,-1.0,0.05660518,0.0,0.0,0.0,30.64841,4.010193,-23.94699,-1.0,0.4971999,0.4396286,-0.001863122,1.184771,-0.1877794,0.03013876,0.5159513,0.0325184,0.2831912,3.815948,31.45
5,-1.0,-1.0,-1.0,0.0,0.0,0.0,0.0,-26.78328,2.042664,-26.43153,-1.0,-1.0,-1.0,0.05660518,0.0,0.0,0.0,30.64841,4.010193,-23.94699,-1.0,-1.0,-1.0,-0.003672004,1.185148,-0.185738,0.03155441,0.4779133,0.03152417,0.2831912,3.815948,31.45
5,-1.0,-1.0,-1.0,0.0,0.0,0.0,0.0,-26.78328,2.042664,-26.43153,-1.0,-1.0,-1.0,0.05660518,0.0,0.0,0.0,30.64841,4.010193,-23.94699,-1.0,-1.0,-1.0,-0.003672004,1.185148,-0.185738,0.03155441,0.4779133,0.03152417,0.2831912,3.815948,31.45
5,-1.0,-1.0,-1.0,0.0,0.0,0.0,0.0,-26.78328,2.042664,-26.43153,-1.0,-1.0,-1.0,0.05660518,0.0,0.0,0.0,30.64841,4.010193,-23.94699,-1.0,-1.0,-1.0,-0.004732609,1.186201,-0.184896,0.02992839,0.4431104,0.03204898,0.2831912,42.32323,31.45
5,-1.0,-1.0,-1.0,0.0,0.0,0.0,0.0,-26.78328,2.042664,-26.43153,-1.0,-1.0,-1.0,0.05660518,0.0,0.0,0.0,30.64841,4.010193,-23.94699,-1.0,-1.0,-1.0,-0.004732609,1.186201,-0.184896,0.02992839,0.4431104,0.03204898,0.2831912,42.32323,31.45
5,-1.0,-1.0,-1.0,0.0,0.0,0.0,0.0,-26.78328,2.042664,-26.43153,-1.0,-1.0,-1.0,0.05660518,0.0,0.0,0.0,30.64841,4.010193,-23.94699,-1.0,-1.0,-1.0,-0.004843354,1.187479,-0.1850444,0.02598206,0.4120623,0.03578368,0.2831912,42.32323,31.45
5,-1.0,-1.0,-1.0,0.0,0.0,0.0,0.0,-26.78328,2.042664,-26.43153,-1.0,-1.0,-1.0,0.05660518,0.0,0.0,0.0,30.64841,4.010193,-23.94699,-1.0,-1.0,-1.0,-0.004843354,1.187479,-0.1850444,0.02598206,0.4120623,0.03578368,0.2831912,42.32323,31.45
5,-1.0,-1.0,-1.0,0.6344193,0.0,0.0,0.0,-25.98294,1.160843,-27.01292,-1.0,0.2360146,0.5044855,0.6369517,0.0,0.0,0.0,29.98294,4.420258,-23.90509,-1.0,0.532032,0.370084,-0.004040718,1.188713,-0.185944,0.02250071,0.384064,0.03998171,0.2831912,42.32323,31.45
5,-1.0,-1.0,-1.0,0.6344193,0.0,0.0,0.0,-25.98294,1.160843,-27.01292,-1.0,0.2360146,0.5044855,0.6369517,0.0,0.0,0.0,29.98294,4.420258,-23.90509,-1.0,0.532032,0.370084,-0.004040718,1.188713,-0.185944,0.02250071,0.384064,0.03998171,0.2831912,42.32323,31.45
5,0.2075653,0.1521606,0.9663086,0.7504947,0.2763672,0.1673431,0.9463501,-26.59225,1.085373,-26.82251,3.969528,0.2771259,0.50164,0.8062436,0.2075348,0.1521454,0.9663086,29.57137,4.494339,-23.8446,3.81012,0.568,0.3657001,-0.002400517,1.189878,-0.1874981,0.01849234,0.3593987,0.04335215,0.2831912,42.32323,31.45
5,0.2075653,0.1521606,0.9663086,0.7504947,0.2763672,0.1673431,0.9463501,-26.59225,1.085373,-26.82251,3.969528,0.2771259,0.50164,0.8062436,0.2075348,0.1521454,0.9663086,29.57137,4.494339,-23.8446,3.81012,0.568,0.3657001,-0.002400517,1.189878,-0.1874981,0.01849234,0.3593987,0.04335215,0.2831912,42.32323,31.45
5,0.1620789,0.1358185,0.9773712,0.7906883,0.1620789,0.1358185,0.9773712,-27.00067,0.8647614,-25.9494,4.00267,0.3121468,0.5058136,0.8198265,0.1353607,0.1622925,0.9774017,29.03491,4.15033,-22.67191,3.847366,0.5969701,0.3653465,-0.0002990961,1.190502,-0.189352,0.01534837,0.3364638,0.04303442,0.2831912,42.32323,31.45
5,0.1620789,0.1358185,0.9773712,0.7906883,0.1620789,0.1358185,0.9773712,-27.00067,0.8647614,-25.9494,4.00267,0.3121468,0.5058136,0.8198265,0.1353607,0.1622925,0.9774017,29.03491,4.15033,-22.67191,3.847366,0.5969701,0.3653465,-0.0002990961,1.190502,-0.189352,0.01534837,0.3364638,0.04303442,0.2831912,42.32323,31.45
5,0.1167145,0.1352234,0.983902,0.8485648,0.1167145,0.1352234,0.983902,-27.31364,0.704483,-25.80539,4.001678,0.3305235,0.5098661,0.9113382,0.0619812,0.1214142,0.9906616,28.95311,4.916351,-25.40129,3.757401,0.6147895,0.3680514,0.002473354,1.190558,-0.1923496,0.01287769,0.3176907,0.04047602,0.2831912,42.32323,31.45
5,0.1167145,0.1352234,0.983902,0.8485648,0.1167145,0.1352234,0.983902,-27.31364,0.704483,-25.80539,4.001678,0.3305235,0.5098661,0.9113382,0.0619812,0.1214142,0.9906616,28.95311,4.916351,-25.40129,3.757401,0.6147895,0.3680514,0.002473354,1.190558,-0.1923496,0.01287769,0.3176907,0.04047602,0.2831912,42.32323,31.45
5,0.04830933,0.1056671,0.9932251,0.8672963,0.04830933,0.1056671,0.9932251,-27.80522,0.913208,-26.75119,4.008499,0.357472,0.5164068,0.9135738,0.007492065,0.1182404,0.9929504,28.28455,4.267258,-23.38664,3.928452,0.6434175,0.3747952,0.005778432,1.190862,-0.1952908,0.01179732,0.3000438,0.03841474,0.2831912,42.32323,31.45
5,0.04830933,0.1056671,0.9932251,0.8672963,0.04830933,0.1056671,0.9932251,-27.80522,0.913208,-26.75119,4.008499,0.357472,0.5164068,0.9135738,0.007492065,0.1182404,0.9929504,28.28455,4.267258,-23.38664,3.928452,0.6434175,0.3747952,0.005778432,1.190862,-0.1952908,0.01179732,0.3000438,0.03841474,0.2831912,42.32323,31.45
5,0.01779175,0.09080505,0.995697,0.8849594,0.01779175,0.09080505,0.995697,-28.28781,0.6107941,-25.93968,3.997299,0.37923,0.5215887,0.9494507,-0.02563477,0.1130219,0.9932556,27.8093,4.168716,-23.6946,3.863327,0.6652293,0.3811161,0.009359956,1.191026,-0.1985368,0.01157353,0.283135,0.0361322,0.2831912,42.32323,31.45
5,0.01779175,0.09080505,0.995697,0.8849594,0.01779175,0.09080505,0.995697,-28.28781,0.6107941,-25.93968,3.997299,0.37923,0.5215887,0.9494507,-0.02563477,0.1130219,0.9932556,27.8093,4.168716,-23.6946,3.863327,0.6652293,0.3811161,0.009359956,1.191026,-0.1985368,0.01157353,0.283135,0.0361322,0.2831912,42.32323,31.45
5,-0.02593994,0.08274841,0.9962311,1.0,-0.02548218,0.08247375,0.9962616,-28.60956,0.5917969,-25.69508,3.876297,0.3972166,0.5213994,1.0,-0.08981323,0.1199188,0.9887085,27.59735,4.11409,-24.05559,3.902466,0.6836466,0.3848118,0.01334047,1.191261,-0.2019391,0.0113256,0.2671603,0.03537934,0.2831912,-11.73003,31.45
5,-0.02593994,0.08274841,0.9962311,1.0,-0.02548218,0.08247375,0.9962616,-28.60956,0.5917969,-25.69508,3.876297,0.3972166,0.5213994,1.0,-0.08981323,0.1199188,0.9887085,27.59735,4.11409,-24.05559,3.902466,0.6836466,0.3848118,0.01334047,1.191261,-0.2019391,0.0113256,0.2671603,0.03537934,0.2831912,-11.73003,31.45
5,-0.09020996,0.1177368,0.9889221,0.914705,-0.04867554,0.08033752,0.995575,-28.80347,0.7357025,-25.78636,3.888077,0.4074387,0.5179377,0.9978614,-0.09210205,0.1194305,0.9885559,27.28052,3.902863,-23.10553,3.968674,0.6931757,0.3841573,0.01745701,1.191877,-0.2052513,0.01097276,0.2517939,0.0347774,0.2831912,-11.73003,31.45
5,-0.09020996,0.1177368,0.9889221,0.914705,-0.04867554,0.08033752,0.995575,-28.80347,0.7357025,-25.78636,3.888077,0.4074387,0.5179377,0.9978614,-0.09210205,0.1194305,0.9885559,27.28052,3.902863,-23.10553,3.968674,0.6931757,0.3841573,0.01745701,1.191877,-0.2052513,0.01097276,0.2517939,0.0347774,0.2831912,-11.73003,31.45
5,-0.1390533,0.1193085,0.9830627,1.0,-0.05870056,0.03923035,0.9974976,-29.22243,1.529633,-27.90947,3.967743,0.4221008,0.5180203,1.0,-0.1390839,0.119339,0.9830627,26.96854,4.123703,-23.65866,4.047424,0.7126756,0.3814143,0.01967776,1.19228,-0.2067305,0.01081615,0.2446249,0.03391424,0.2831912,-11.73003,31.45
5,-0.1390533,0.1193085,0.9830627,1.0,-0.05870056,0.03923035,0.9974976,-29.22243,1.529633,-27.90947,3.967743,0.4221008,0.5180203,1.0,-0.1390839,0.119339,0.9830627,26.96854,4.123703,-23.65866,4.047424,0.7126756,0.3814143,0.01967776,1.19228,-0.2067305,0.01081615,0.2446249,0.03391424,0.2831912,-11.73003,31.45
5,-0.1932068,0.1125793,0.9746704,1.0,-0.0990448,0.04798889,0.9939117,-29.40561,1.681107,-28.06226,3.834122,0.4350643,0.5130363,1.0,-0.1932068,0.1125793,0.9746704,26.79176,4.262222,-23.72519,4.028656,0.7282315,0.3785408,0.02413142,1.19355,-0.2095312,0.01009426,0.2308673,0.03126097,0.2831912,-11.73003,31.45
5,-0.1972046,0.1162872,0.9734344,1.0,-0.1298828,0.05722046,0.9898682,-29.49916,1.586838,-27.64014,3.818329,0.4435162,0.5109319,1.0,-0.1972046,0.1162872,0.9734344,26.62402,4.271805,-23.79277,3.850861,0.7348737,0.3779014,0.02845228,1.194752,-0.2123352,0.007516994,0.2179636,0.02883393,0.2831912,-11.73003,31.45
5,-0.1972046,0.1162872,0.9734344,1.0,-0.1298828,0.05722046,0.9898682,-29.49916,1.586838,-27.64014,3.818329,0.4435162,0.5109319,1.0,-0.1972046,0.1162872,0.9734344,26.62402,4.271805,-23.79277,3.850861,0.7348737,0.3779014,0.02845228,1.194752,-0.2123352,0.007516994,0.2179636,0.02883393,0.2831912,-11.73003,31.45
5,-0.2222595,0.1078949,0.9689941,1.0,-0.166275,0.05952454,0.9842682,-29.49088,1.378708,-26.94077,3.920441,0.4494331,0.5114316,1.0,-0.2222595,0.1078949,0.9689941,26.59598,4.253693,-23.79457,3.944199,0.740155,0.3801114,0.03062093,1.195447,-0.2136674,0.005879685,0.2119928,0.02766448,0.2831912,-11.73003,31.45
5,-0.1906738,0.1327972,0.9726257,1.0,-0.1058502,0.06237793,0.9924164,-29.44119,2.261826,-29.37659,3.850601,0.4371272,0.5031476,1.0,-0.1906738,0.1327972,0.9726257,26.85614,4.460785,-23.73126,4.03511,0.7259128,0.3685416,0.03265846,1.196198,-0.2150413,0.003833086,0.2059949,0.02625335,0.2831912,-11.73003,31.45
5,-0.08763123,0.2136688,0.9729614,1.0,-0.0630188,0.1889954,0.97995,-28.39748,1.210266,-24.79951,3.94928,0.3973068,0.4760371,1.0,-0.08763123,0.2136688,0.9729614,27.64204,4.996796,-23.82124,4.151749,0.6824589,0.3380415,0.03513253,1.197572,-0.2160217,0.001151609,0.2002883,0.02438261,0.2831912,-11.73003,31.45
5,-0.07133484,0.2597656,0.963028,1.0,-0.03767395,0.2423553,0.9694519,-28.01497,1.368866,-24.72308,3.985321,0.3807155,0.4614529,1.0,-0.07133484,0.2597656,0.963028,27.89366,5.228592,-23.7963,4.210785,0.6715744,0.3225206,0.03700483,1.198548,-0.2173254,-0.002328953,0.1948744,0.02199841,0.2831912,-11.73003,31.45
5,-0.01390076,0.3475952,0.9375305,1.0,-0.00402832,0.2927704,0.9561615,-27.38721,2.363297,-26.73192,3.977173,0.3527054,0.4373457,1.0,-0.01390076,0.3475952,0.9375305,28.3519,5.563843,-23.89519,4.138916,0.6470755,0.2974054,0.0405556,1.200638,-0.2201716,-0.009492488,0.1851009,0.01691236,0.2831912,-25.64705,31.45
5,-0.01390076,0.3475952,0.9375305,1.0,-0.00402832,0.2927704,0.9561615,-27.38721,2.363297,-26.73192,3.977173,0.3527054,0.4373457,1.0,-0.01390076,0.3475952,0.9375305,28.3519,5.563843,-23.89519,4.138916,0.6470755,0.2974054,0.0405556,1.200638,-0.2201716,-0.009492488,0.1851009,0.01691236,0.2831912,-25.64705,31.45
5,0.01693726,0.4101257,0.9118652,1.0,0.05848694,0.3277435,0.9429474,-26.9039,2.558365,-26.88556,3.879196,0.3254772,0.4259083,1.0,0.01693726,0.4101257,0.9118652,28.88367,5.774658,-24.032,4.263992,0.6245103,0.2810207,0.04233909,1.201715,-0.22142,-0.01338439,0.1809271,0.01444149,0.2831912,-57.21333,31.45
5,0.04426575,0.4387512,0.8975067,1.0,0.08721924,0.3578186,0.9297028,-26.62483,2.562531,-26.98427,4.142487,0.3107139,0.4217335,1.0,0.04426575,0.4387512,0.8975067,28.98965,5.818741,-24.10126,4.289124,0.6164454,0.2751926,0.04564214,1.204137,-0.2239845,-0.02176449,0.1735632,0.009860531,0.2831912,-57.21333,31.45
