Second,eye_comb_direction_x,eye_comb_direction_y,eye_comb_direction_z,eye_r_openness,eye_r_direction_x,eye_r_direction_y,eye_r_direction_z,eye_r_origin_x,eye_r_origin_y,eye_r_origin_z,eye_r_pupil_diameter,eye_r_pupil_position_x,eye_r_pupil_position_y,eye_l_openness,eye_l_direction_x,eye_l_direction_y,eye_l_direction_z,eye_l_origin_x,eye_l_origin_y,eye_l_origin_z,eye_l_pupil_diameter,eye_l_pupil_position_x,eye_l_pupil_position_y,head_position_x,head_position_y,head_position_z,head_rotation_roll,head_rotation_pitch,head_rotation_yaw,EDA,BVP,TMP
0,0.0,0.0,0.0,0.0,0.0,0.0,0.0,0.0,0.0,0.0,0.0,0.0,0.0,0.0,0.0,0.0,0.0,0.0,0.0,0.0,0.0,0.0,0.0,0.0,0.0,0.0,0.0,0.0,0.0,0.2923775117661271,-0.28815101717806235,30.63613916404929
0,-0.0592041,-0.05961609,0.99646,0.568239,-0.04335022,-0.06719971,0.9967957,-28.24226,1.507813,-25.53041,4.833435,0.3878695,0.5152761,0.6494014,-0.123291,-0.02867126,0.9919434,27.94873,4.725708,-23.07892,4.640793,0.6758828,0.3819233,0.05092251,1.196232,-0.2910726,-0.04471157,0.04048559,0.01370399,0.2923775117661271,-0.28815101717806235,30.63613916404929
1,-0.05015564,-0.06278992,0.9967499,0.5717721,-0.04330444,-0.06768799,0.9967651,-28.243,1.505035,-25.55229,4.827667,0.3878695,0.5156429,0.6414522,-0.1316223,-0.004226685,0.9912872,27.96556,4.578323,-22.7654,4.813492,0.6762026,0.3803954,0.04865432,1.195708,-0.2891634,-0.04224374,0.03436881,0.01692425,0.2923775117661271,-0.28815101717806235,30.63613916404929
1,-0.05015564,-0.06278992,0.9967499,0.5717721,-0.04330444,-0.06768799,0.9967651,-28.243,1.505035,-25.55229,4.827667,0.3878695,0.5156429,0.6414522,-0.1316223,-0.004226685,0.9912872,27.96556,4.578323,-22.7654,4.813492,0.6762026,0.3803954,0.04865432,1.195708,-0.2891634,-0.04224374,0.03436881,0.01692425,0.2923775117661271,-0.28815101717806235,30.63613916404929
1,-0.05015564,-0.06278992,0.9967499,0.5717721,-0.04330444,-0.06768799,0.9967651,-28.243,1.505035,-25.55229,4.827667,0.3878695,0.5156429,0.6414522,-0.1316223,-0.004226685,0.9912872,27.96556,4.578323,-22.7654,4.813492,0.6762026,0.3803954,0.04865432,1.195708,-0.2891634,-0.04224374,0.03436881,0.01692425,0.2923775117661271,-0.28815101717806235,30.63613916404929
1,-0.05015564,-0.06278992,0.9967499,0.5717721,-0.04330444,-0.06768799,0.9967651,-28.243,1.505035,-25.55229,4.827667,0.3878695,0.5156429,0.6414522,-0.1316223,-0.004226685,0.9912872,27.96556,4.578323,-22.7654,4.813492,0.6762026,0.3803954,0.04865432,1.195708,-0.2891634,-0.04224374,0.03436881,0.01692425,0.2923775117661271,-0.28815101717806235,30.63613916404929
1,-0.05015564,-0.06278992,0.9967499,0.5717721,-0.04330444,-0.06768799,0.9967651,-28.243,1.505035,-25.55229,4.827667,0.3878695,0.5156429,0.6414522,-0.1316223,-0.004226685,0.9912872,27.96556,4.578323,-22.7654,4.813492,0.6762026,0.3803954,0.04865432,1.195708,-0.2891634,-0.04224374,0.03436881,0.01692425,0.2923775117661271,-0.28815101717806235,30.63613916404929
1,-0.05015564,-0.06278992,0.9967499,0.5717721,-0.04330444,-0.06768799,0.9967651,-28.243,1.505035,-25.55229,4.827667,0.3878695,0.5156429,0.6414522,-0.1316223,-0.004226685,0.9912872,27.96556,4.578323,-22.7654,4.813492,0.6762026,0.3803954,0.04865432,1.195708,-0.2891634,-0.04224374,0.03436881,0.01692425,0.2923775117661271,-0.28815101717806235,30.63613916404929
1,-0.05015564,-0.06278992,0.9967499,0.5717721,-0.04330444,-0.06768799,0.9967651,-28.243,1.505035,-25.55229,4.827667,0.3878695,0.5156429,0.6414522,-0.1316223,-0.004226685,0.9912872,27.96556,4.578323,-22.7654,4.813492,0.6762026,0.3803954,0.04865432,1.195708,-0.2891634,-0.04224374,0.03436881,0.01692425,0.2923775117661271,-0.28815101717806235,30.63613916404929
1,-0.05015564,-0.06278992,0.9967499,0.5717721,-0.04330444,-0.06768799,0.9967651,-28.243,1.505035,-25.55229,4.827667,0.3878695,0.5156429,0.6414522,-0.1316223,-0.004226685,0.9912872,27.96556,4.578323,-22.7654,4.813492,0.6762026,0.3803954,0.04865432,1.195708,-0.2891634,-0.04224374,0.03436881,0.01692425,0.2923775117661271,-0.28815101717806235,30.63613916404929
1,-0.05015564,-0.06278992,0.9967499,0.5717721,-0.04330444,-0.06768799,0.9967651,-28.243,1.505035,-25.55229,4.827667,0.3878695,0.5156429,0.6414522,-0.1316223,-0.004226685,0.9912872,27.96556,4.578323,-22.7654,4.813492,0.6762026,0.3803954,0.04865432,1.195708,-0.2891634,-0.04224374,0.03436881,0.01692425,0.2923775117661271,-0.28815101717806235,30.63613916404929
1,0.08447266,0.1081696,0.9905243,1.0,0.08447266,0.1081696,0.9905243,-26.7563,0.7213745,-24.10252,4.850616,0.3195344,0.4992637,1.0,0.06594849,0.1375122,0.9882965,29.56941,4.610428,-23.10001,4.883835,0.5916318,0.3586132,0.02012444,1.195158,-0.2811557,-0.04329333,-0.08346191,0.01204049,0.2923775117661271,-0.28815101717806235,30.63613916404929
1,0.08447266,0.1081696,0.9905243,1.0,0.08447266,0.1081696,0.9905243,-26.7563,0.7213745,-24.10252,4.850616,0.3195344,0.4992637,1.0,0.06594849,0.1375122,0.9882965,29.56941,4.610428,-23.10001,4.883835,0.5916318,0.3586132,0.02012444,1.195158,-0.2811557,-0.04329333,-0.08346191,0.01204049,0.2923775117661271,-0.28815101717806235,30.63613916404929
1,0.08447266,0.1081696,0.9905243,1.0,0.08447266,0.1081696,0.9905243,-26.7563,0.7213745,-24.10252,4.850616,0.3195344,0.4992637,1.0,0.06594849,0.1375122,0.9882965,29.56941,4.610428,-23.10001,4.883835,0.5916318,0.3586132,0.02012444,1.195158,-0.2811557,-0.04329333,-0.08346191,0.01204049,0.3024124,-0.28815101717806235,30.63613916404929
1,0.08447266,0.1081696,0.9905243,1.0,0.08447266,0.1081696,0.9905243,-26.7563,0.7213745,-24.10252,4.850616,0.3195344,0.4992637,1.0,0.06594849,0.1375122,0.9882965,29.56941,4.610428,-23.10001,4.883835,0.5916318,0.3586132,0.02012444,1.195158,-0.2811557,-0.04329333,-0.08346191,0.01204049,0.3024124,-0.28815101717806235,30.63613916404929
1,0.0801239,0.08486938,0.9931488,1.0,0.0801239,0.08486938,0.9931488,-26.80211,0.8181305,-24.06459,4.799316,0.321834,0.4994887,1.0,0.06669617,0.09671021,0.9930725,29.53864,5.123795,-24.23845,4.736893,0.5933849,0.3574855,0.02198875,1.193662,-0.2826949,-0.03697905,-0.07129031,0.01824043,0.2934425,-0.28815101717806235,30.63613916404929
1,0.0801239,0.08486938,0.9931488,1.0,0.0801239,0.08486938,0.9931488,-26.80211,0.8181305,-24.06459,4.799316,0.321834,0.4994887,1.0,0.06669617,0.09671021,0.9930725,29.53864,5.123795,-24.23845,4.736893,0.5933849,0.3574855,0.02198875,1.193662,-0.2826949,-0.03697905,-0.07129031,0.01824043,0.2934425,-0.28815101717806235,30.63613916404929
1,-0.04997253,-0.06164551,0.9968414,1.0,-0.04997253,-0.06164551,0.9968414,-28.01672,1.012741,-25.4431,4.51088,0.3815582,0.5295622,1.0,-0.06280518,-0.002029419,0.9980164,28.0808,4.104828,-22.26822,4.697159,0.660282,0.3913271,0.0230974,1.192748,-0.2833378,-0.03171245,-0.06471523,0.02129139,0.2934425,-0.28815101717806235,30.63613916404929
1,-0.1246643,-0.105957,0.9865112,0.9607947,-0.1246033,-0.1061859,0.986496,-28.60481,0.6224823,-24.91953,4.498611,0.4131406,0.545454,0.9691711,-0.1441803,-0.02877808,0.9891205,27.32935,4.036499,-22.86601,4.664902,0.6989908,0.403263,0.02405584,1.191684,-0.2839026,-0.02517462,-0.0589731,0.02351716,0.2934425,-0.28815101717806235,30.63613916404929
1,-0.1246643,-0.105957,0.9865112,0.9607947,-0.1246033,-0.1061859,0.986496,-28.60481,0.6224823,-24.91953,4.498611,0.4131406,0.545454,0.9691711,-0.1441803,-0.02877808,0.9891205,27.32935,4.036499,-22.86601,4.664902,0.6989908,0.403263,0.02405584,1.191684,-0.2839026,-0.02517462,-0.0589731,0.02351716,0.2934425,-0.28815101717806235,30.63613916404929
1,-0.1524506,-0.1110382,0.9820404,0.9607947,-0.1520996,-0.1113434,0.9820557,-28.85072,0.5030975,-24.88216,4.507828,0.4256574,0.5501156,0.9691711,-0.1963196,-0.07167053,0.9779053,27.10007,4.055847,-22.90723,4.65007,0.7157422,0.4099927,0.02448404,1.191039,-0.2840638,-0.02175422,-0.05642911,0.02476824,0.2934425,-0.28815101717806235,30.63613916404929
1,-0.1524506,-0.1110382,0.9820404,0.9607947,-0.1520996,-0.1113434,0.9820557,-28.85072,0.5030975,-24.88216,4.507828,0.4256574,0.5501156,0.9691711,-0.1963196,-0.07167053,0.9779053,27.10007,4.055847,-22.90723,4.65007,0.7157422,0.4099927,0.02448404,1.191039,-0.2840638,-0.02175422,-0.05642911,0.02476824,0.2934425,-0.28815101717806235,30.63613916404929
1,-0.1551208,-0.1021881,0.9825897,1.0,-0.1543884,-0.1027069,0.9826508,-28.98148,0.4984589,-24.90723,4.421082,0.4303729,0.549045,1.0,-0.2047729,-0.0657959,0.9765778,27.06256,4.00882,-22.90656,4.632568,0.718426,0.4105968,0.02570665,1.189391,-0.2839706,-0.01137745,-0.04950535,0.02897338,0.2934425,-0.28815101717806235,30.63613916404929
1,-0.1551208,-0.1021881,0.9825897,1.0,-0.1543884,-0.1027069,0.9826508,-28.98148,0.4984589,-24.90723,4.421082,0.4303729,0.549045,1.0,-0.2047729,-0.0657959,0.9765778,27.06256,4.00882,-22.90656,4.632568,0.718426,0.4105968,0.02570665,1.189391,-0.2839706,-0.01137745,-0.04950535,0.02897338,0.2934425,-0.28815101717806235,30.63613916404929
1,-0.1436615,-0.09353638,0.9851837,1.0,-0.1435852,-0.09359741,0.985199,-28.97665,0.550293,-24.9101,4.366058,0.4285159,0.5457447,1.0,-0.185379,-0.05348206,0.9812012,27.13832,3.994247,-22.88258,4.601135,0.7126138,0.4087142,0.02609789,1.188897,-0.2837387,-0.008330349,-0.0474392,0.03024709,0.2934425,-0.28815101717806235,30.63613916404929
1,-0.1437836,-0.09048462,0.9854584,1.0,-0.1437683,-0.0905304,0.9854584,-28.96445,0.5997772,-24.93068,4.342468,0.4281637,0.5437764,1.0,-0.1726532,-0.04066467,0.9841309,27.1631,3.985596,-22.85704,4.49649,0.7096359,0.4065594,0.02696633,1.187872,-0.2829198,-0.002540119,-0.04316821,0.03300755,0.2934425,17.15451,30.63613916404929
1,-0.1437836,-0.09048462,0.9854584,1.0,-0.1437683,-0.0905304,0.9854584,-28.96445,0.5997772,-24.93068,4.342468,0.4281637,0.5437764,1.0,-0.1726532,-0.04066467,0.9841309,27.1631,3.985596,-22.85704,4.49649,0.7096359,0.4065594,0.02696633,1.187872,-0.2829198,-0.002540119,-0.04316821,0.03300755,0.2934425,17.15451,30.63613916404929
1,-0.1437836,-0.09048462,0.9854584,1.0,-0.1437683,-0.0905304,0.9854584,-28.96445,0.5997772,-24.93068,4.342468,0.4281637,0.5437764,1.0,-0.1726532,-0.04066467,0.9841309,27.1631,3.985596,-22.85704,4.49649,0.7096359,0.4065594,0.02749932,1.187363,-0.2824303,0.000211432,-0.04103542,0.03431957,0.2934425,12.34337,30.63613916404929
1,-0.1437836,-0.09048462,0.9854584,1.0,-0.1437683,-0.0905304,0.9854584,-28.96445,0.5997772,-24.93068,4.342468,0.4281637,0.5437764,1.0,-0.1726532,-0.04066467,0.9841309,27.1631,3.985596,-22.85704,4.49649,0.7096359,0.4065594,0.02910924,1.185728,-0.2806133,0.008018635,-0.03481701,0.03786601,0.2934425,12.34337,30.63613916404929
1,-0.1437836,-0.09048462,0.9854584,1.0,-0.1437683,-0.0905304,0.9854584,-28.96445,0.5997772,-24.93068,4.342468,0.4281637,0.5437764,1.0,-0.1726532,-0.04066467,0.9841309,27.1631,3.985596,-22.85704,4.49649,0.7096359,0.4065594,0.02910924,1.185728,-0.2806133,0.008018635,-0.03481701,0.03786601,0.2934425,12.34337,30.63613916404929
1,-0.1437836,-0.09048462,0.9854584,1.0,-0.1437683,-0.0905304,0.9854584,-28.96445,0.5997772,-24.93068,4.342468,0.4281637,0.5437764,1.0,-0.1726532,-0.04066467,0.9841309,27.1631,3.985596,-22.85704,4.49649,0.7096359,0.4065594,0.02910924,1.185728,-0.2806133,0.008018635,-0.03481701,0.03786601,0.2934425,12.34337,30.63613916404929
1,-0.1188202,-0.04212952,0.9920197,1.0,-0.1073151,-0.05393982,0.9927521,-28.77963,1.082825,-26.17807,4.328827,0.4157738,0.5329876,1.0,-0.1672821,0.008056641,0.9858704,27.50609,3.663391,-21.36841,4.500549,0.6947076,0.397245,0.02963436,1.185187,-0.279923,0.01059624,-0.03277515,0.03865815,0.2934425,12.34337,30.63613916404929
1,-0.1022186,-0.04933167,0.9935303,1.0,-0.09925842,-0.05314636,0.9936371,-28.72826,1.195145,-26.40948,4.255173,0.4126854,0.5311792,1.0,-0.154892,0.01937866,0.9877319,27.54614,3.653824,-20.96408,4.481903,0.6905327,0.3926152,0.03061938,1.184192,-0.2783949,0.01565263,-0.02897107,0.03926112,0.2934425,12.34337,30.63613916404929
1,-0.1022186,-0.04933167,0.9935303,1.0,-0.09925842,-0.05314636,0.9936371,-28.72826,1.195145,-26.40948,4.255173,0.4126854,0.5311792,1.0,-0.154892,0.01937866,0.9877319,27.54614,3.653824,-20.96408,4.481903,0.6905327,0.3926152,0.03061938,1.184192,-0.2783949,0.01565263,-0.02897107,0.03926112,0.2934425,12.34337,30.63613916404929
1,-0.09370422,-0.0410614,0.994751,1.0,-0.09217834,-0.0426178,0.9948273,-28.67859,1.199127,-26.31325,4.331741,0.4099197,0.5284073,1.0,-0.1474762,0.01402283,0.9889526,27.5668,3.727722,-21.00226,4.472443,0.6887122,0.3913541,0.03115928,1.183713,-0.2775031,0.01795554,-0.02710676,0.03925353,0.2934425,12.34337,30.63613916404929
1,-0.09370422,-0.0410614,0.994751,1.0,-0.09217834,-0.0426178,0.9948273,-28.67859,1.199127,-26.31325,4.331741,0.4099197,0.5284073,1.0,-0.1474762,0.01402283,0.9889526,27.5668,3.727722,-21.00226,4.472443,0.6887122,0.3913541,0.03211284,1.182967,-0.2757065,0.02221981,-0.02352539,0.03902567,0.2934425,12.34337,30.63613916404929
1,-0.09370422,-0.0410614,0.994751,1.0,-0.09217834,-0.0426178,0.9948273,-28.67859,1.199127,-26.31325,4.331741,0.4099197,0.5284073,1.0,-0.1474762,0.01402283,0.9889526,27.5668,3.727722,-21.00226,4.472443,0.6887122,0.3913541,0.03211284,1.182967,-0.2757065,0.02221981,-0.02352539,0.03902567,0.2934425,12.34337,30.63613916404929
1,-0.09370422,-0.0410614,0.994751,1.0,-0.09217834,-0.0426178,0.9948273,-28.67859,1.199127,-26.31325,4.331741,0.4099197,0.5284073,1.0,-0.1474762,0.01402283,0.9889526,27.5668,3.727722,-21.00226,4.472443,0.6887122,0.3913541,0.0326339,1.182593,-0.2748091,0.02395814,-0.02184956,0.03879993,0.2934425,12.34337,30.63613916404929
1,-0.09370422,-0.0410614,0.994751,1.0,-0.09217834,-0.0426178,0.9948273,-28.67859,1.199127,-26.31325,4.331741,0.4099197,0.5284073,1.0,-0.1474762,0.01402283,0.9889526,27.5668,3.727722,-21.00226,4.472443,0.6887122,0.3913541,0.0336045,1.181904,-0.2729298,0.02714192,-0.01859881,0.03804797,0.2934425,12.34337,30.63613916404929
1,-0.09370422,-0.0410614,0.994751,1.0,-0.09217834,-0.0426178,0.9948273,-28.67859,1.199127,-26.31325,4.331741,0.4099197,0.5284073,1.0,-0.1474762,0.01402283,0.9889526,27.5668,3.727722,-21.00226,4.472443,0.6887122,0.3913541,0.0336045,1.181904,-0.2729298,0.02714192,-0.01859881,0.03804797,0.2934425,12.34337,30.63613916404929
1,-0.06874084,-0.005386353,0.9976196,1.0,-0.06842041,-0.005691528,0.9976349,-28.54219,1.384583,-26.22081,4.111023,0.4017325,0.5149962,1.0,-0.1233978,0.04640198,0.9912567,27.72647,4.166901,-21.45793,4.621902,0.68047,0.3754877,0.03417861,1.181633,-0.2720237,0.02854828,-0.01710466,0.03728005,0.2934425,-18.26997,30.63613916404929
1,-0.06359863,-0.007369995,0.9979401,1.0,-0.06356812,-0.007400513,0.9979401,-28.49208,1.507217,-26.47954,4.077362,0.3991509,0.5135197,1.0,-0.1142731,0.05804443,0.991745,27.79765,4.25679,-21.66296,4.477615,0.6771004,0.3720797,0.03457367,1.181811,-0.2720246,0.03087462,-0.01509384,0.03656551,0.2934425,-18.26997,30.63613916404929
1,-0.09777832,0.04962158,0.9939575,1.0,-0.07429504,0.02331543,0.9969635,-28.32503,1.098145,-25.10918,4.218781,0.3961697,0.5096557,1.0,-0.1069336,0.05987549,0.9924469,27.85887,4.388107,-22.09424,4.491486,0.6746367,0.37078,0.03569674,1.181317,-0.270682,0.03382295,-0.01189669,0.03476969,0.2934425,-18.26997,30.63613916404929
1,-0.09777832,0.04962158,0.9939575,1.0,-0.07429504,0.02331543,0.9969635,-28.32503,1.098145,-25.10918,4.218781,0.3961697,0.5096557,1.0,-0.1069336,0.05987549,0.9924469,27.85887,4.388107,-22.09424,4.491486,0.6746367,0.37078,0.03569674,1.181317,-0.270682,0.03382295,-0.01189669,0.03476969,0.2934425,-18.26997,30.63613916404929
1,-0.1084747,0.06532288,0.9919434,1.0,-0.065979,0.0255127,0.9974823,-28.32185,1.112503,-25.08783,4.18187,0.3947399,0.5085806,1.0,-0.10849,0.06532288,0.9919434,27.87067,4.40892,-22.15407,4.447617,0.6746367,0.3696363,0.03679633,1.180771,-0.2691615,0.03549876,-0.008030706,0.03210612,0.2934425,-18.26997,30.63613916404929
2,-0.1058197,0.0662384,0.9921722,1.0,-0.05711365,0.0335083,0.9978027,-28.33965,1.042984,-24.89253,4.186493,0.3939991,0.5077779,1.0,-0.105835,0.0662384,0.9921722,27.87094,4.417862,-22.17609,4.446259,0.6742337,0.3693526,0.03823936,1.180464,-0.2681351,0.03608556,-0.003371882,0.02998187,0.2934425,-18.26997,30.63613916404929
2,-0.1058197,0.0662384,0.9921722,1.0,-0.05711365,0.0335083,0.9978027,-28.33965,1.042984,-24.89253,4.186493,0.3939991,0.5077779,1.0,-0.105835,0.0662384,0.9921722,27.87094,4.417862,-22.17609,4.446259,0.6742337,0.3693526,0.03823936,1.180464,-0.2681351,0.03608556,-0.003371882,0.02998187,0.2934425,-18.26997,30.63613916404929
2,-0.101944,0.0932312,0.9904022,1.0,-0.07383728,0.03491211,0.9966583,-28.5009,1.207687,-24.8828,4.148438,0.402075,0.5021534,1.0,-0.101944,0.0932312,0.9904022,27.61946,4.632706,-22.33781,4.301819,0.682357,0.3589907,0.03974044,1.180489,-0.2678496,0.0356437,0.001035801,0.02902194,0.2934425,-18.26997,30.63613916404929
2,-0.101944,0.0932312,0.9904022,1.0,-0.07383728,0.03491211,0.9966583,-28.5009,1.207687,-24.8828,4.148438,0.402075,0.5021534,1.0,-0.101944,0.0932312,0.9904022,27.61946,4.632706,-22.33781,4.301819,0.682357,0.3589907,0.03974044,1.180489,-0.2678496,0.0356437,0.001035801,0.02902194,0.2934425,-18.26997,30.63613916404929
2,-0.1721649,0.1515198,0.9733276,1.0,-0.09692383,0.06520081,0.9931488,-29.08247,2.688309,-28.78374,3.804535,0.4238238,0.4828933,1.0,-0.1721649,0.1515198,0.9733276,27.07347,4.95282,-22.32756,4.36412,0.7128406,0.338848,0.04112124,1.180498,-0.2675872,0.03497117,0.005358595,0.02750919,0.2934425,-18.26997,30.63613916404929
2,-0.1721649,0.1515198,0.9733276,1.0,-0.09692383,0.06520081,0.9931488,-29.08247,2.688309,-28.78374,3.804535,0.4238238,0.4828933,1.0,-0.1721649,0.1515198,0.9733276,27.07347,4.95282,-22.32756,4.36412,0.7128406,0.338848,0.04112124,1.180498,-0.2675872,0.03497117,0.005358595,0.02750919,0.2934425,-18.26997,30.63613916404929
2,-0.2076111,0.200058,0.9575195,1.0,-0.1361389,0.1171875,0.9837189,-29.06334,2.432281,-27.16426,3.91893,0.4304376,0.4686945,1.0,-0.2076111,0.200058,0.9575195,26.8217,5.315338,-22.44141,4.386795,0.728371,0.3194938,0.04249775,1.180721,-0.2678182,0.0334125,0.01009574,0.02554276,0.2934425,-18.26997,30.63613916404929
2,-0.2076111,0.200058,0.9575195,1.0,-0.1361389,0.1171875,0.9837189,-29.06334,2.432281,-27.16426,3.91893,0.4304376,0.4686945,1.0,-0.2076111,0.200058,0.9575195,26.8217,5.315338,-22.44141,4.386795,0.728371,0.3194938,0.04249775,1.180721,-0.2678182,0.0334125,0.01009574,0.02554276,0.2934425,-18.26997,30.63613916404929
2,-0.1917877,0.1883545,0.9631805,1.0,-0.1389771,0.1425018,0.9799805,-28.83354,1.694946,-24.94507,3.935425,0.4240832,0.4694799,1.0,-0.1917877,0.1883545,0.9631805,26.96213,5.3349,-22.40788,4.265533,0.7206988,0.3205232,0.04414093,1.181124,-0.2683181,0.03144347,0.0149744,0.02449146,0.2934425,-18.26997,30.63613916404929
2,-0.1917877,0.1883545,0.9631805,1.0,-0.1389771,0.1425018,0.9799805,-28.83354,1.694946,-24.94507,3.935425,0.4240832,0.4694799,1.0,-0.1917877,0.1883545,0.9631805,26.96213,5.3349,-22.40788,4.265533,0.7206988,0.3205232,0.04414093,1.181124,-0.2683181,0.03144347,0.0149744,0.02449146,0.2934425,-18.26997,30.63613916404929
2,-0.1806335,0.1916656,0.9646912,1.0,-0.131958,0.1478729,0.9801483,-28.75446,1.635895,-24.80144,3.799591,0.4204546,0.4690883,1.0,-0.1806335,0.1916656,0.9646912,27.04541,5.284317,-22.40363,4.199219,0.7159328,0.3216173,0.04557061,1.181388,-0.2691543,0.02947259,0.01961765,0.0238968,0.2934425,-37.34023,30.63613916404929
2,-0.1806335,0.1916656,0.9646912,1.0,-0.131958,0.1478729,0.9801483,-28.75446,1.635895,-24.80144,3.799591,0.4204546,0.4690883,1.0,-0.1806335,0.1916656,0.9646912,27.04541,5.284317,-22.40363,4.199219,0.7159328,0.3216173,0.04557061,1.181388,-0.2691543,0.02947259,0.01961765,0.0238968,0.2934425,-37.34023,30.63613916404929
2,-0.1605377,0.1874542,0.9690552,1.0,-0.1211548,0.1457825,0.9818573,-28.63066,1.636063,-24.84782,3.816208,0.4145787,0.4697443,1.0,-0.1605377,0.1874542,0.9690552,27.22459,5.23381,-22.41611,4.109344,0.7063866,0.3240928,0.04682219,1.181918,-0.2703732,0.02680882,0.02396934,0.0230283,0.2934425,-37.34023,30.63613916404929
2,-0.1605377,0.1874542,0.9690552,1.0,-0.1211548,0.1457825,0.9818573,-28.63066,1.636063,-24.84782,3.816208,0.4145787,0.4697443,1.0,-0.1605377,0.1874542,0.9690552,27.22459,5.23381,-22.41611,4.109344,0.7063866,0.3240928,0.04682219,1.181918,-0.2703732,0.02680882,0.02396934,0.0230283,0.2934425,-37.34023,30.63613916404929
2,-0.1568756,0.185257,0.9700775,1.0,-0.1135559,0.1426239,0.9832306,-28.52858,1.588821,-24.63063,3.710281,0.4101123,0.4697516,1.0,-0.1598053,0.1881104,0.9690552,27.34059,5.248245,-22.43066,4.048676,0.7024001,0.3236255,0.04840279,1.183565,-0.2723297,0.02463735,0.0290109,0.02218827,0.2934425,-37.34023,30.63613916404929
2,-0.1568756,0.185257,0.9700775,1.0,-0.1135559,0.1426239,0.9832306,-28.52858,1.588821,-24.63063,3.710281,0.4101123,0.4697516,1.0,-0.1598053,0.1881104,0.9690552,27.34059,5.248245,-22.43066,4.048676,0.7024001,0.3236255,0.04840279,1.183565,-0.2723297,0.02463735,0.0290109,0.02218827,0.2934425,-37.34023,30.63613916404929
2,-0.1351471,0.1835785,0.9736633,1.0,-0.09648132,0.1363983,0.9859314,-28.42874,1.614563,-24.66284,3.674637,0.4040114,0.4700576,1.0,-0.139389,0.188736,0.9720764,27.43309,5.268143,-22.46631,3.889587,0.6958886,0.3229949,0.04948628,1.18415,-0.2733688,0.02145904,0.03348489,0.02145557,0.2934425,-37.34023,30.63613916404929
2,-0.1351471,0.1835785,0.9736633,1.0,-0.09648132,0.1363983,0.9859314,-28.42874,1.614563,-24.66284,3.674637,0.4040114,0.4700576,1.0,-0.139389,0.188736,0.9720764,27.43309,5.268143,-22.46631,3.889587,0.6958886,0.3229949,0.04948628,1.18415,-0.2733688,0.02145904,0.03348489,0.02145557,0.2934425,-37.34023,30.63613916404929
2,-0.1212158,0.1772614,0.9766541,1.0,-0.08384705,0.1588745,0.9837189,-28.29735,1.203278,-23.55228,3.705536,0.398245,0.4701861,1.0,-0.1212158,0.1772614,0.9766541,27.58044,5.335602,-22.79782,3.798141,0.6883848,0.3250671,0.05059719,1.184748,-0.2745014,0.01854625,0.03759111,0.02102694,0.2934425,-37.34023,30.63613916404929
2,-0.1212158,0.1772614,0.9766541,1.0,-0.08384705,0.1588745,0.9837189,-28.29735,1.203278,-23.55228,3.705536,0.398245,0.4701861,1.0,-0.1212158,0.1772614,0.9766541,27.58044,5.335602,-22.79782,3.798141,0.6883848,0.3250671,0.05059719,1.184748,-0.2745014,0.01854625,0.03759111,0.02102694,0.2934425,-37.34023,30.63613916404929
2,-0.1170654,0.1650543,0.9792938,1.0,-0.06712341,0.1442413,0.9872589,-28.28635,1.513199,-24.41525,3.676041,0.394647,0.4698005,1.0,-0.117157,0.1651001,0.9792786,27.6606,5.391312,-23.10583,3.902634,0.6854987,0.3276125,0.05160224,1.185825,-0.2767171,0.01674456,0.0420631,0.0207577,0.2934425,-37.34023,30.63613916404929
2,-0.1170654,0.1650543,0.9792938,1.0,-0.06712341,0.1442413,0.9872589,-28.28635,1.513199,-24.41525,3.676041,0.394647,0.4698005,1.0,-0.117157,0.1651001,0.9792786,27.6606,5.391312,-23.10583,3.902634,0.6854987,0.3276125,0.05160224,1.185825,-0.2767171,0.01674456,0.0420631,0.0207577,0.2934425,-37.34023,30.63613916404929
2,-0.06452942,0.1373749,0.9884033,1.0,-0.0632019,0.1366425,0.9885864,-28.13771,1.462524,-24.32404,3.576004,0.3892127,0.4717325,1.0,-0.1020355,0.1580811,0.982132,27.82596,5.53714,-23.75363,3.708893,0.6785602,0.3284786,0.05263817,1.18605,-0.2774997,0.01393528,0.04598245,0.02031875,0.2934425,-37.34023,30.63613916404929
2,-0.06452942,0.1373749,0.9884033,1.0,-0.0632019,0.1366425,0.9885864,-28.13771,1.462524,-24.32404,3.576004,0.3892127,0.4717325,1.0,-0.1020355,0.1580811,0.982132,27.82596,5.53714,-23.75363,3.708893,0.6785602,0.3284786,0.05263817,1.18605,-0.2774997,0.01393528,0.04598245,0.02031875,0.2934425,-37.34023,30.63613916404929
2,-0.05403137,0.1475525,0.9875641,1.0,-0.04971313,0.147049,0.9878693,-28.0247,1.168182,-23.59163,3.495285,0.383793,0.4731497,1.0,-0.08934021,0.1515503,0.9843903,27.95653,5.531158,-23.78261,3.751877,0.6720515,0.3299955,0.05374515,1.186583,-0.2788148,0.01157868,0.049973,0.02020218,0.2934425,-37.34023,30.63613916404929
2,-0.05403137,0.1475525,0.9875641,1.0,-0.04971313,0.147049,0.9878693,-28.0247,1.168182,-23.59163,3.495285,0.383793,0.4731497,1.0,-0.08934021,0.1515503,0.9843903,27.95653,5.531158,-23.78261,3.751877,0.6720515,0.3299955,0.05374515,1.186583,-0.2788148,0.01157868,0.049973,0.02020218,0.2934425,-37.34023,30.63613916404929
2,-0.1113129,0.1777344,0.9777527,1.0,-0.09260559,0.1697998,0.9811096,-28.25714,1.313293,-23.52837,3.464371,0.3985194,0.4644315,1.0,-0.1177979,0.180481,0.9764862,27.61069,5.548874,-23.05354,3.741699,0.687691,0.3188037,0.0547297,1.18701,-0.2800696,0.009356513,0.05382692,0.02009939,0.2934425,44.68704,30.63613916404929
2,-0.1113129,0.1777344,0.9777527,1.0,-0.09260559,0.1697998,0.9811096,-28.25714,1.313293,-23.52837,3.464371,0.3985194,0.4644315,1.0,-0.1177979,0.180481,0.9764862,27.61069,5.548874,-23.05354,3.741699,0.687691,0.3188037,0.0547297,1.18701,-0.2800696,0.009356513,0.05382692,0.02009939,0.2934425,44.68704,30.63613916404929
2,-0.2178955,0.2623596,0.940033,1.0,-0.1546783,0.2305145,0.9606934,-28.69757,2.206604,-24.77933,3.641083,0.4228002,0.4368966,1.0,-0.2190399,0.2629395,0.9396057,26.94228,6.21991,-23.10339,3.927429,0.729405,0.2824888,0.05560887,1.18727,-0.2813669,0.00704738,0.05736824,0.02010309,0.2934425,44.68704,30.63613916404929
2,-0.2178955,0.2623596,0.940033,1.0,-0.1546783,0.2305145,0.9606934,-28.69757,2.206604,-24.77933,3.641083,0.4228002,0.4368966,1.0,-0.2190399,0.2629395,0.9396057,26.94228,6.21991,-23.10339,3.927429,0.729405,0.2824888,0.05560887,1.18727,-0.2813669,0.00704738,0.05736824,0.02010309,0.2934425,44.68704,30.63613916404929
2,-0.2132263,0.2953491,0.9312744,1.0,-0.1516113,0.2465668,0.9571838,-28.71729,2.310379,-24.80333,3.511993,0.4230461,0.4309593,1.0,-0.2132416,0.2953644,0.9312744,26.85809,6.239609,-23.16524,3.727371,0.7319267,0.2762785,0.05625999,1.187658,-0.2826308,0.005012321,0.06053482,0.01992029,0.2934425,44.68704,30.63613916404929
2,-0.2132263,0.2953491,0.9312744,1.0,-0.1516113,0.2465668,0.9571838,-28.71729,2.310379,-24.80333,3.511993,0.4230461,0.4309593,1.0,-0.2132416,0.2953644,0.9312744,26.85809,6.239609,-23.16524,3.727371,0.7319267,0.2762785,0.05625999,1.187658,-0.2826308,0.005012321,0.06053482,0.01992029,0.2934425,44.68704,30.63613916404929
2,-0.2063751,0.2945099,0.9330902,1.0,-0.1363983,0.2392883,0.9613037,-28.65216,2.297424,-24.78275,3.478561,0.4183606,0.4322388,1.0,-0.2068939,0.2949219,0.9328461,26.97321,6.25946,-23.1548,3.787201,0.7267737,0.2758146,0.05691397,1.188175,-0.2838949,0.003085748,0.06356254,0.01981867,0.2934425,44.68704,30.63613916404929
2,-0.2063751,0.2945099,0.9330902,1.0,-0.1363983,0.2392883,0.9613037,-28.65216,2.297424,-24.78275,3.478561,0.4183606,0.4322388,1.0,-0.2068939,0.2949219,0.9328461,26.97321,6.25946,-23.1548,3.787201,0.7267737,0.2758146,0.05691397,1.188175,-0.2838949,0.003085748,0.06356254,0.01981867,0.2934425,44.68704,30.63613916404929
2,-0.2063751,0.2945099,0.9330902,1.0,-0.1363983,0.2392883,0.9613037,-28.65216,2.297424,-24.78275,3.478561,0.4183606,0.4322388,1.0,-0.2068939,0.2949219,0.9328461,26.97321,6.25946,-23.1548,3.787201,0.7267737,0.2758146,0.05752468,1.188758,-0.2850628,0.0005854287,0.06660555,0.01961841,0.2934425,44.68704,30.63613916404929
2,-0.2063751,0.2945099,0.9330902,1.0,-0.1363983,0.2392883,0.9613037,-28.65216,2.297424,-24.78275,3.478561,0.4183606,0.4322388,1.0,-0.2068939,0.2949219,0.9328461,26.97321,6.25946,-23.1548,3.787201,0.7267737,0.2758146,0.05752468,1.188758,-0.2850628,0.0005854287,0.06660555,0.01961841,0.2934425,44.68704,30.63613916404929
2,-0.2063751,0.2945099,0.9330902,1.0,-0.1363983,0.2392883,0.9613037,-28.65216,2.297424,-24.78275,3.478561,0.4183606,0.4322388,1.0,-0.2068939,0.2949219,0.9328461,26.97321,6.25946,-23.1548,3.787201,0.7267737,0.2758146,0.05790412,1.189292,-0.2861843,-0.002176826,0.06933831,0.01942568,0.2934425,44.68704,30.63613916404929
2,-0.2063751,0.2945099,0.9330902,1.0,-0.1363983,0.2392883,0.9613037,-28.65216,2.297424,-24.78275,3.478561,0.4183606,0.4322388,1.0,-0.2068939,0.2949219,0.9328461,26.97321,6.25946,-23.1548,3.787201,0.7267737,0.2758146,0.05790412,1.189292,-0.2861843,-0.002176826,0.06933831,0.01942568,0.2934425,44.68704,30.63613916404929
2,-0.2063751,0.2945099,0.9330902,1.0,-0.1363983,0.2392883,0.9613037,-28.65216,2.297424,-24.78275,3.478561,0.4183606,0.4322388,1.0,-0.2068939,0.2949219,0.9328461,26.97321,6.25946,-23.1548,3.787201,0.7267737,0.2758146,0.05823135,1.189759,-0.2873538,-0.005028646,0.07114962,0.01967984,0.2934425,44.68704,30.63613916404929
2,-0.2063751,0.2945099,0.9330902,1.0,-0.1363983,0.2392883,0.9613037,-28.65216,2.297424,-24.78275,3.478561,0.4183606,0.4322388,1.0,-0.2068939,0.2949219,0.9328461,26.97321,6.25946,-23.1548,3.787201,0.7267737,0.2758146,0.05823135,1.189759,-0.2873538,-0.005028646,0.07114962,0.01967984,0.2934425,44.68704,30.63613916404929
2,-0.1522064,0.257431,0.9542236,1.0,-0.1312256,0.2421875,0.9613037,-28.62317,2.294144,-24.78448,3.376801,0.4165946,0.4317313,1.0,-0.1981506,0.2904358,0.936142,27.0098,6.250671,-23.1396,3.753876,0.7238466,0.2767965,0.05846488,1.190159,-0.2883289,-0.007222809,0.07230778,0.01999384,0.2934425,59.38836,30.63613916404929
2,-0.1522064,0.257431,0.9542236,1.0,-0.1312256,0.2421875,0.9613037,-28.62317,2.294144,-24.78448,3.376801,0.4165946,0.4317313,1.0,-0.1981506,0.2904358,0.936142,27.0098,6.250671,-23.1396,3.753876,0.7238466,0.2767965,0.05846488,1.190159,-0.2883289,-0.007222809,0.07230778,0.01999384,0.2934425,59.38836,30.63613916404929
2,-0.1522064,0.257431,0.9542236,1.0,-0.1312256,0.2421875,0.9613037,-28.62317,2.294144,-24.78448,3.376801,0.4165946,0.4317313,1.0,-0.1981506,0.2904358,0.936142,27.0098,6.250671,-23.1396,3.753876,0.7238466,0.2767965,0.05843234,1.190346,-0.2890956,-0.008734641,0.07304662,0.01987836,0.2934425,59.38836,30.63613916404929
2,-0.1522064,0.257431,0.9542236,1.0,-0.1312256,0.2421875,0.9613037,-28.62317,2.294144,-24.78448,3.376801,0.4165946,0.4317313,1.0,-0.1981506,0.2904358,0.936142,27.0098,6.250671,-23.1396,3.753876,0.7238466,0.2767965,0.05843234,1.190346,-0.2890956,-0.008734641,0.07304662,0.01987836,0.2934425,59.38836,30.63613916404929
2,-0.1220398,0.2683716,0.9555359,1.0,-0.07991028,0.2455597,0.9660645,-28.19926,1.929611,-24.50636,3.34581,0.3942351,0.4402985,1.0,-0.1508942,0.2837372,0.9469452,27.54459,5.981094,-23.04398,3.560715,0.6965842,0.2868984,0.05828607,1.190409,-0.2898024,-0.009500333,0.07324269,0.01965408,0.2934425,59.38836,30.63613916404929
2,-0.1220398,0.2683716,0.9555359,1.0,-0.07991028,0.2455597,0.9660645,-28.19926,1.929611,-24.50636,3.34581,0.3942351,0.4402985,1.0,-0.1508942,0.2837372,0.9469452,27.54459,5.981094,-23.04398,3.560715,0.6965842,0.2868984,0.05828607,1.190409,-0.2898024,-0.009500333,0.07324269,0.01965408,0.2934425,59.38836,30.63613916404929
2,-0.1412811,0.2765198,0.9505615,1.0,-0.08056641,0.2479858,0.9653931,-28.14011,1.940018,-24.49228,3.416245,0.392406,0.4395127,1.0,-0.1457214,0.2785645,0.949295,27.62411,6.02298,-23.03336,3.55632,0.6929213,0.2863722,0.05832255,1.190292,-0.2901051,-0.009530869,0.07313102,0.01955717,0.2934425,59.38836,30.63613916404929
2,-0.1260529,0.2738495,0.9534607,1.0,-0.0715332,0.2392426,0.9683075,-28.08171,2.042282,-24.495,3.494583,0.3889615,0.4376841,1.0,-0.138855,0.2818604,0.9493408,27.66901,6.055222,-23.03012,3.640228,0.6902601,0.2847981,0.05818462,1.190303,-0.290586,-0.009433437,0.07251716,0.0193519,0.2934425,59.38836,30.63613916404929
2,-0.1260529,0.2738495,0.9534607,1.0,-0.0715332,0.2392426,0.9683075,-28.08171,2.042282,-24.495,3.494583,0.3889615,0.4376841,1.0,-0.138855,0.2818604,0.9493408,27.66901,6.055222,-23.03012,3.640228,0.6902601,0.2847981,0.05818462,1.190303,-0.290586,-0.009433437,0.07251716,0.0193519,0.2934425,59.38836,30.63613916404929
2,-0.1077423,0.2678223,0.9574127,1.0,-0.07218933,0.2393188,0.9682465,-28.07257,2.052582,-24.47852,3.467697,0.3887936,0.4371701,1.0,-0.12677,0.2829285,0.9507141,27.69167,6.11087,-23.03154,3.587646,0.6874422,0.2826969,0.05798531,1.19018,-0.2908158,-0.008976111,0.07217783,0.01876987,0.2934425,59.38836,30.63613916404929
2,-0.1077423,0.2678223,0.9574127,1.0,-0.07218933,0.2393188,0.9682465,-28.07257,2.052582,-24.47852,3.467697,0.3887936,0.4371701,1.0,-0.12677,0.2829285,0.9507141,27.69167,6.11087,-23.03154,3.587646,0.6874422,0.2826969,0.05798531,1.19018,-0.2908158,-0.008976111,0.07217783,0.01876987,0.2934425,59.38836,30.63613916404929
2,-0.09089661,0.2514954,0.9635773,1.0,-0.04821777,0.2310181,0.9717407,-28.11632,2.181351,-24.53189,3.527679,0.3861686,0.4347836,1.0,-0.128006,0.2688904,0.9546204,27.69722,6.190186,-23.02347,3.63559,0.687421,0.2823561,0.05770528,1.189988,-0.2912941,-0.008411344,0.07113715,0.01809113,0.2934425,59.38836,30.63613916404929
2,-0.09158325,0.2578583,0.9618225,1.0,-0.05091858,0.2311707,0.9715729,-28.11365,2.276031,-24.54106,3.418137,0.3865713,0.4316407,1.0,-0.1233063,0.2783356,0.9525299,27.68112,6.258194,-23.03722,3.559235,0.6873085,0.2784569,0.05750155,1.190099,-0.2914869,-0.008551895,0.07079025,0.01791067,0.2934425,59.38836,30.63613916404929
2,-0.09127808,0.2583923,0.9617157,1.0,-0.04936218,0.2337189,0.9710388,-28.10799,2.347702,-24.5497,3.464172,0.3861204,0.4290264,1.0,-0.1244354,0.2775421,0.9526062,27.68831,6.308762,-23.0378,3.633591,0.6873198,0.2769165,0.05734158,1.19039,-0.2916367,-0.009908772,0.07027043,0.01770188,0.2934425,59.38836,30.63613916404929
2,-0.09127808,0.2583923,0.9617157,1.0,-0.04936218,0.2337189,0.9710388,-28.10799,2.347702,-24.5497,3.464172,0.3861204,0.4290264,1.0,-0.1244354,0.2775421,0.9526062,27.68831,6.308762,-23.0378,3.633591,0.6873198,0.2769165,0.05734158,1.19039,-0.2916367,-0.009908772,0.07027043,0.01770188,0.2934425,59.38836,30.63613916404929
2,-0.09127808,0.2583923,0.9617157,1.0,-0.04936218,0.2337189,0.9710388,-28.10799,2.347702,-24.5497,3.464172,0.3861204,0.4290264,1.0,-0.1244354,0.2775421,0.9526062,27.68831,6.308762,-23.0378,3.633591,0.6873198,0.2769165,0.05726743,1.190597,-0.2917203,-0.01076574,0.07017949,0.0176213,0.2934425,59.38836,30.63613916404929
2,-0.09127808,0.2583923,0.9617157,1.0,-0.04936218,0.2337189,0.9710388,-28.10799,2.347702,-24.5497,3.464172,0.3861204,0.4290264,1.0,-0.1244354,0.2775421,0.9526062,27.68831,6.308762,-23.0378,3.633591,0.6873198,0.2769165,0.05726743,1.190597,-0.2917203,-0.01076574,0.07017949,0.0176213,0.2934425,59.38836,30.63613916404929
2,-0.09127808,0.2583923,0.9617157,1.0,-0.04936218,0.2337189,0.9710388,-28.10799,2.347702,-24.5497,3.464172,0.3861204,0.4290264,1.0,-0.1244354,0.2775421,0.9526062,27.68831,6.308762,-23.0378,3.633591,0.6873198,0.2769165,0.05718529,1.191011,-0.2918501,-0.0131604,0.06976198,0.01744581,0.2934425,59.38836,30.63613916404929
2,-0.09127808,0.2583923,0.9617157,1.0,-0.04936218,0.2337189,0.9710388,-28.10799,2.347702,-24.5497,3.464172,0.3861204,0.4290264,1.0,-0.1244354,0.2775421,0.9526062,27.68831,6.308762,-23.0378,3.633591,0.6873198,0.2769165,0.05709422,1.191292,-0.2919781,-0.0145934,0.06966163,0.01736576,0.2934425,-21.67094,30.63613916404929
2,-0.09127808,0.2583923,0.9617157,1.0,-0.04936218,0.2337189,0.9710388,-28.10799,2.347702,-24.5497,3.464172,0.3861204,0.4290264,1.0,-0.1244354,0.2775421,0.9526062,27.68831,6.308762,-23.0378,3.633591,0.6873198,0.2769165,0.05688763,1.19174,-0.2921698,-0.0176686,0.06951366,0.01711598,0.2934425,-21.67094,30.63613916404929
2,-0.09127808,0.2583923,0.9617157,1.0,-0.04936218,0.2337189,0.9710388,-28.10799,2.347702,-24.5497,3.464172,0.3861204,0.4290264,1.0,-0.1244354,0.2775421,0.9526062,27.68831,6.308762,-23.0378,3.633591,0.6873198,0.2769165,0.05688763,1.19174,-0.2921698,-0.0176686,0.06951366,0.01711598,0.2934425,-21.67094,30.63613916404929
2,-0.08401489,0.2588196,0.9622498,1.0,-0.04748535,0.2355042,0.9707031,-28.10207,2.381409,-24.54861,3.483154,0.3856162,0.4276542,1.0,-0.1165009,0.2792358,0.953125,27.7039,6.343307,-23.04196,3.667053,0.685475,0.2755156,0.05675042,1.192518,-0.2924603,-0.02135672,0.06961508,0.01653456,0.2934425,-21.67094,30.63613916404929
2,-0.08401489,0.2588196,0.9622498,1.0,-0.04748535,0.2355042,0.9707031,-28.10207,2.381409,-24.54861,3.483154,0.3856162,0.4276542,1.0,-0.1165009,0.2792358,0.953125,27.7039,6.343307,-23.04196,3.667053,0.685475,0.2755156,0.05675042,1.192518,-0.2924603,-0.02135672,0.06961508,0.01653456,0.2934425,-21.67094,30.63613916404929
2,-0.08401489,0.2588196,0.9622498,1.0,-0.04748535,0.2355042,0.9707031,-28.10207,2.381409,-24.54861,3.483154,0.3856162,0.4276542,1.0,-0.1165009,0.2792358,0.953125,27.7039,6.343307,-23.04196,3.667053,0.685475,0.2755156,0.05668843,1.192947,-0.2926487,-0.02380152,0.06984321,0.01616038,0.2934425,-21.67094,30.63613916404929
2,-0.08401489,0.2588196,0.9622498,1.0,-0.04748535,0.2355042,0.9707031,-28.10207,2.381409,-24.54861,3.483154,0.3856162,0.4276542,1.0,-0.1165009,0.2792358,0.953125,27.7039,6.343307,-23.04196,3.667053,0.685475,0.2755156,0.05657542,1.19402,-0.2930493,-0.02946424,0.07070601,0.01529439,0.2934425,-21.67094,30.63613916404929
2,-0.08401489,0.2588196,0.9622498,1.0,-0.04748535,0.2355042,0.9707031,-28.10207,2.381409,-24.54861,3.483154,0.3856162,0.4276542,1.0,-0.1165009,0.2792358,0.953125,27.7039,6.343307,-23.04196,3.667053,0.685475,0.2755156,0.05657542,1.19402,-0.2930493,-0.02946424,0.07070601,0.01529439,0.2934425,-21.67094,30.63613916404929
2,-0.07922363,0.2554474,0.963562,1.0,-0.04658508,0.2353516,0.9707794,-28.09805,2.400635,-24.54858,3.536926,0.3853235,0.4271073,1.0,-0.1109314,0.2746735,0.9551086,27.76668,6.350449,-23.02966,3.803101,0.6823439,0.2761174,0.05655169,1.194606,-0.293274,-0.03267816,0.07129711,0.01503349,0.2934425,-21.67094,30.63613916404929
2,-0.06306458,0.2456207,0.9673004,1.0,-0.03245544,0.2248688,0.9738464,-27.85693,2.333435,-24.43562,3.673874,0.3751067,0.4301011,1.0,-0.08930969,0.2631836,0.9605865,27.94902,6.247192,-22.98793,3.742874,0.6721823,0.2814034,0.05654871,1.195283,-0.2936033,-0.03645511,0.07195773,0.0148103,0.2934425,-21.67094,30.63613916404929
2,-0.07258606,0.246933,0.9662933,1.0,-0.02825928,0.2214966,0.9747467,-27.82484,2.287476,-24.37843,3.767456,0.3733734,0.4317527,1.0,-0.09588623,0.2600861,0.9608002,28.02098,6.178482,-22.99008,3.736465,0.6708111,0.2843293,0.05657113,1.195968,-0.2939123,-0.04067708,0.07278422,0.01479017,0.2934425,-21.67094,30.63613916404929
2,-0.07258606,0.246933,0.9662933,1.0,-0.02825928,0.2214966,0.9747467,-27.82484,2.287476,-24.37843,3.767456,0.3733734,0.4317527,1.0,-0.09588623,0.2600861,0.9608002,28.02098,6.178482,-22.99008,3.736465,0.6708111,0.2843293,0.05657113,1.195968,-0.2939123,-0.04067708,0.07278422,0.01479017,0.2934425,-21.67094,30.63613916404929
2,-0.07322693,0.2383575,0.968399,1.0,-0.02511597,0.216156,0.9760284,-27.77737,2.206848,-24.25452,3.667084,0.3714041,0.4340675,1.0,-0.08576965,0.2440338,0.9659576,28.06923,6.130707,-22.97421,3.842728,0.6672975,0.2886451,0.05660033,1.197578,-0.2945572,-0.05023768,0.07483488,0.01509384,0.2934425,-21.67094,30.63613916404929
2,-0.07322693,0.2383575,0.968399,1.0,-0.02511597,0.216156,0.9760284,-27.77737,2.206848,-24.25452,3.667084,0.3714041,0.4340675,1.0,-0.08576965,0.2440338,0.9659576,28.06923,6.130707,-22.97421,3.842728,0.6672975,0.2886451,0.05660033,1.197578,-0.2945572,-0.05023768,0.07483488,0.01509384,0.2934425,-21.67094,30.63613916404929
2,-0.0802002,0.2428284,0.9667358,1.0,-0.02700806,0.2112732,0.9770508,-27.69061,2.0,-23.74483,3.823715,0.3692293,0.4374977,1.0,-0.08068848,0.2431183,0.966629,28.14894,6.041824,-22.98518,3.864609,0.6636937,0.2919499,0.05660689,1.199416,-0.2951921,-0.06049603,0.07722344,0.01542488,0.2934425,-44.99345,31.53
2,-0.07917786,0.2262421,0.9708405,1.0,-0.02920532,0.1733551,0.9844208,-27.63106,2.393967,-25.14516,3.725296,0.3665684,0.4423723,1.0,-0.07919312,0.2262573,0.9708252,28.21779,5.971344,-23.03517,3.786819,0.6610356,0.2974941,0.05663562,1.20129,-0.2959112,-0.07012353,0.07917133,0.01635606,0.2934425,-44.99345,31.53
2,-0.07917786,0.2262421,0.9708405,1.0,-0.02920532,0.1733551,0.9844208,-27.63106,2.393967,-25.14516,3.725296,0.3665684,0.4423723,1.0,-0.07919312,0.2262573,0.9708252,28.21779,5.971344,-23.03517,3.786819,0.6610356,0.2974941,0.05663562,1.20129,-0.2959112,-0.07012353,0.07917133,0.01635606,0.2934425,-44.99345,31.53
2,-0.06991577,0.2112122,0.9749298,1.0,-0.01559448,0.1636353,0.9863892,-27.5705,2.247604,-24.94972,3.809967,0.362386,0.4471197,1.0,-0.06993103,0.2112122,0.9749298,28.28584,5.888382,-23.1396,3.787598,0.6572167,0.3035369,0.05662513,1.202183,-0.2963471,-0.0750111,0.08012882,0.01705712,0.2934425,-44.99345,31.53
2,-0.07778931,0.2533722,0.9642334,1.0,-0.03501892,0.2164154,0.9756622,-27.58478,2.056015,-23.79984,3.842392,0.3670485,0.435305,1.0,-0.07778931,0.2533722,0.9642334,28.1956,6.063599,-23.0536,4.039139,0.6619105,0.2900358,0.05656612,1.20387,-0.297401,-0.08451057,0.08222377,0.01864362,0.2934425,-44.99345,31.53
2,-0.07778931,0.2533722,0.9642334,1.0,-0.03501892,0.2164154,0.9756622,-27.58478,2.056015,-23.79984,3.842392,0.3670485,0.435305,1.0,-0.07778931,0.2533722,0.9642334,28.1956,6.063599,-23.0536,4.039139,0.6619105,0.2900358,0.05656612,1.20387,-0.297401,-0.08451057,0.08222377,0.01864362,0.2934425,-44.99345,31.53
2,-0.09017944,0.3007965,0.9494019,1.0,-0.03630066,0.2472382,0.9682617,-27.61504,2.522507,-24.44189,3.92308,0.3678065,0.420616,1.0,-0.09017944,0.3007965,0.9494019,28.04453,6.339279,-23.10339,4.048981,0.6697103,0.2730131,0.05653107,1.204706,-0.2979493,-0.08913691,0.08347914,0.01959904,0.2934425,-44.99345,31.53
2,-0.1004486,0.3753357,0.9214172,1.0,-0.04794312,0.3143616,0.9480743,-27.73271,2.795975,-24.57582,3.996429,0.3735552,0.4021406,1.0,-0.1004639,0.3753357,0.9214172,27.79343,6.639771,-23.25336,4.085281,0.6812909,0.2506406,0.0564394,1.206284,-0.2991897,-0.09806783,0.08586343,0.02135498,0.2934425,-44.99345,31.53
2,-0.1004486,0.3753357,0.9214172,1.0,-0.04794312,0.3143616,0.9480743,-27.73271,2.795975,-24.57582,3.996429,0.3735552,0.4021406,1.0,-0.1004639,0.3753357,0.9214172,27.79343,6.639771,-23.25336,4.085281,0.6812909,0.2506406,0.0564394,1.206284,-0.2991897,-0.09806783,0.08586343,0.02135498,0.2934425,-44.99345,31.53
2,-0.1163177,0.4133148,0.9031219,1.0,-0.08091736,0.3308411,0.9402008,-27.77081,2.896835,-24.61339,4.087006,0.3803149,0.3967451,1.0,-0.1169586,0.4147949,0.902359,27.67059,6.680557,-23.34058,4.176987,0.6891649,0.2426913,0.05647337,1.20694,-0.2998185,-0.1020473,0.08691432,0.02218089,0.2934425,-44.99345,31.53
2,-0.1239166,0.3802032,0.9165497,1.0,-0.0760498,0.3154449,0.9458771,-27.74699,2.70961,-24.57823,3.963058,0.37875,0.4048662,1.0,-0.1283417,0.3861084,0.9134674,27.78801,6.493866,-23.28326,4.182983,0.686494,0.2539655,0.05642366,1.207511,-0.3005121,-0.1054472,0.08802488,0.02299949,0.2934425,-44.99345,31.53
2,-0.1239166,0.3802032,0.9165497,1.0,-0.0760498,0.3154449,0.9458771,-27.74699,2.70961,-24.57823,3.963058,0.37875,0.4048662,1.0,-0.1283417,0.3861084,0.9134674,27.78801,6.493866,-23.28326,4.182983,0.686494,0.2539655,0.05642366,1.207511,-0.3005121,-0.1054472,0.08802488,0.02299949,0.2934425,-44.99345,31.53
2,-0.07200623,0.334671,0.9395752,1.0,-0.04827881,0.3046722,0.9512177,-27.78183,2.491272,-24.55182,4.126022,0.3751647,0.4136247,1.0,-0.1123199,0.3847198,0.9161682,27.87697,6.282822,-23.25546,4.093887,0.6802649,0.2614487,0.05645502,1.208405,-0.3019996,-0.1095683,0.09015155,0.02504852,0.2934425,-44.99345,31.53
2,-0.07780457,0.3267365,0.9418945,1.0,-0.04394531,0.3025818,0.9521027,-27.70392,2.265106,-24.53636,4.130463,0.3718689,0.4211574,1.0,-0.1249695,0.3595581,0.9246979,28.02612,6.001175,-23.2155,4.070389,0.676779,0.275351,0.05635142,1.208738,-0.3035352,-0.1112567,0.09175587,0.02739302,0.2934425,-44.99345,31.53
2,-0.07780457,0.3267365,0.9418945,1.0,-0.04394531,0.3025818,0.9521027,-27.70392,2.265106,-24.53636,4.130463,0.3718689,0.4211574,1.0,-0.1249695,0.3595581,0.9246979,28.02612,6.001175,-23.2155,4.070389,0.676779,0.275351,0.05635142,1.208738,-0.3035352,-0.1112567,0.09175587,0.02739302,0.2934425,-44.99345,31.53
2,-0.06942749,0.3193512,0.9450836,1.0,-0.04734802,0.3006439,0.9525452,-27.60841,2.019302,-24.42943,4.044632,0.3693868,0.428442,1.0,-0.1081848,0.3516083,0.9298706,28.10353,5.782227,-23.19283,4.065201,0.6709125,0.2840856,0.05635142,1.208738,-0.3035352,-0.1112567,0.09175587,0.02739302,0.2934425,-26.72462,31.53
3,-0.08799744,0.3308411,0.9395599,1.0,-0.05058289,0.2949677,0.9541626,-27.55203,1.773651,-24.23187,4.115234,0.3681834,0.4357916,1.0,-0.09944153,0.3416748,0.9345245,28.21239,5.614517,-23.17776,4.165436,0.6654878,0.2915355,0.0563308,1.208589,-0.3050305,-0.1109165,0.09323352,0.02917327,0.2934425,-26.72462,31.53
3,-0.08799744,0.3308411,0.9395599,1.0,-0.05058289,0.2949677,0.9541626,-27.55203,1.773651,-24.23187,4.115234,0.3681834,0.4357916,1.0,-0.09944153,0.3416748,0.9345245,28.21239,5.614517,-23.17776,4.165436,0.6654878,0.2915355,0.0563308,1.208589,-0.3050305,-0.1109165,0.09323352,0.02917327,0.2934425,-26.72462,31.53
3,-0.1031036,0.3406067,0.9345245,1.0,-0.03599548,0.2918243,0.95578,-27.49423,1.576782,-24.11343,4.160034,0.3639211,0.4416968,1.0,-0.1062317,0.3428345,0.9333649,28.29106,5.464325,-23.19319,4.246094,0.6639412,0.2966637,0.05624235,1.208032,-0.3065859,-0.1088724,0.09474992,0.03029386,0.2934425,-26.72462,31.53
3,-0.1031036,0.3406067,0.9345245,1.0,-0.03599548,0.2918243,0.95578,-27.49423,1.576782,-24.11343,4.160034,0.3639211,0.4416968,1.0,-0.1062317,0.3428345,0.9333649,28.29106,5.464325,-23.19319,4.246094,0.6639412,0.2966637,0.05624235,1.208032,-0.3065859,-0.1088724,0.09474992,0.03029386,0.2934425,-26.72462,31.53
3,-0.1056061,0.3500824,0.9307404,1.0,-0.02978516,0.2917175,0.9560394,-27.41704,1.436005,-23.90144,4.13736,0.3605431,0.4444386,1.0,-0.1060181,0.3504028,0.9305725,28.4278,5.387054,-23.20021,4.229004,0.6593165,0.2981187,0.05622303,1.207422,-0.3079575,-0.1067442,0.09567681,0.0307593,0.2934425,-26.72462,31.53
3,-0.09611511,0.34935,0.9320374,1.0,-0.02693176,0.293869,0.9554596,-27.38618,1.482178,-24.02295,4.141968,0.3589566,0.4436,1.0,-0.09744263,0.3503876,0.9315186,28.49399,5.450592,-23.18977,4.22319,0.6556445,0.2959134,0.05600512,1.20701,-0.3092383,-0.1054062,0.09635246,0.03042491,0.2934425,-26.72462,31.53
3,-0.09611511,0.34935,0.9320374,1.0,-0.02693176,0.293869,0.9554596,-27.38618,1.482178,-24.02295,4.141968,0.3589566,0.4436,1.0,-0.09744263,0.3503876,0.9315186,28.49399,5.450592,-23.18977,4.22319,0.6556445,0.2959134,0.05600512,1.20701,-0.3092383,-0.1054062,0.09635246,0.03042491,0.2934425,-26.72462,31.53
3,-0.09521484,0.3361816,0.9369659,1.0,-0.03248596,0.28862,0.9568787,-27.3199,1.615738,-24.23642,4.130478,0.3575414,0.4418661,1.0,-0.09745789,0.3378448,0.9361267,28.52095,5.491943,-23.17001,4.21402,0.6546571,0.2964657,0.0560025,1.206859,-0.3102787,-0.1052858,0.09653771,0.03022048,0.2934425,-26.72462,31.53
3,-0.09521484,0.3361816,0.9369659,1.0,-0.03248596,0.28862,0.9568787,-27.3199,1.615738,-24.23642,4.130478,0.3575414,0.4418661,1.0,-0.09745789,0.3378448,0.9361267,28.52095,5.491943,-23.17001,4.21402,0.6546571,0.2964657,0.0560025,1.206859,-0.3102787,-0.1052858,0.09653771,0.03022048,0.2934425,-26.72462,31.53
3,-0.09321594,0.3424683,0.9348907,1.0,-0.02581787,0.2919617,0.9560699,-27.30775,1.799591,-24.32161,4.196213,0.355951,0.4361292,1.0,-0.09507751,0.3438416,0.9341888,28.52249,5.669052,-23.16283,4.202423,0.6543555,0.2894222,0.0559293,1.206934,-0.3113157,-0.1062625,0.09687062,0.03004021,0.2934425,-26.72462,31.53
3,-0.09321594,0.3424683,0.9348907,1.0,-0.02581787,0.2919617,0.9560699,-27.30775,1.799591,-24.32161,4.196213,0.355951,0.4361292,1.0,-0.09507751,0.3438416,0.9341888,28.52249,5.669052,-23.16283,4.202423,0.6543555,0.2894222,0.0559293,1.206934,-0.3113157,-0.1062625,0.09687062,0.03004021,0.2934425,-26.72462,31.53
3,-0.08241272,0.3438873,0.935379,1.0,-0.0199585,0.2875519,0.95755,-27.3434,2.030411,-24.33098,4.271866,0.3561401,0.4295038,1.0,-0.08465576,0.345871,0.9344482,28.46732,5.876709,-23.16988,4.124878,0.6545796,0.2819831,0.05587947,1.20724,-0.3121591,-0.108761,0.09722232,0.02946804,0.2934425,-26.72462,31.53
3,-0.08241272,0.3438873,0.935379,1.0,-0.0199585,0.2875519,0.95755,-27.3434,2.030411,-24.33098,4.271866,0.3561401,0.4295038,1.0,-0.08465576,0.345871,0.9344482,28.46732,5.876709,-23.16988,4.124878,0.6545796,0.2819831,0.05587947,1.20724,-0.3121591,-0.108761,0.09722232,0.02946804,0.2934425,-26.72462,31.53
3,-0.05439758,0.3149261,0.9475403,1.0,-0.0145874,0.283905,0.958725,-27.35851,2.198654,-24.33556,4.197128,0.355774,0.4245521,1.0,-0.07028198,0.3271027,0.9423523,28.42807,6.056122,-23.1445,4.248001,0.6534269,0.2789241,0.0558461,1.20776,-0.3128644,-0.1121954,0.09739888,0.02902836,0.2934425,-26.72462,31.53
3,-0.05439758,0.3149261,0.9475403,1.0,-0.0145874,0.283905,0.958725,-27.35851,2.198654,-24.33556,4.197128,0.355774,0.4245521,1.0,-0.07028198,0.3271027,0.9423523,28.42807,6.056122,-23.1445,4.248001,0.6534269,0.2789241,0.0558461,1.20776,-0.3128644,-0.1121954,0.09739888,0.02902836,0.2934425,-26.72462,31.53
3,-0.04852295,0.3101349,0.9494476,1.0,-0.01916504,0.2818909,0.9592438,-27.36726,2.290283,-24.33174,4.200745,0.3568361,0.4218914,1.0,-0.0728302,0.3331604,0.9400482,28.4158,6.129196,-23.15764,4.24321,0.6543964,0.2754977,0.05580401,1.208391,-0.3134072,-0.1157189,0.09764877,0.02903786,0.2934425,-10.24339,31.53
3,-0.04852295,0.3101349,0.9494476,1.0,-0.01916504,0.2818909,0.9592438,-27.36726,2.290283,-24.33174,4.200745,0.3568361,0.4218914,1.0,-0.0728302,0.3331604,0.9400482,28.4158,6.129196,-23.15764,4.24321,0.6543964,0.2754977,0.05580401,1.208391,-0.3134072,-0.1157189,0.09764877,0.02903786,0.2934425,-10.24339,31.53
3,-0.04852295,0.3101349,0.9494476,1.0,-0.01916504,0.2818909,0.9592438,-27.36726,2.290283,-24.33174,4.200745,0.3568361,0.4218914,1.0,-0.0728302,0.3331604,0.9400482,28.4158,6.129196,-23.15764,4.24321,0.6543964,0.2754977,0.05572259,1.208979,-0.3138731,-0.1191558,0.09759596,0.02949255,0.2921611,-10.24339,31.53
3,-0.04852295,0.3101349,0.9494476,1.0,-0.01916504,0.2818909,0.9592438,-27.36726,2.290283,-24.33174,4.200745,0.3568361,0.4218914,1.0,-0.0728302,0.3331604,0.9400482,28.4158,6.129196,-23.15764,4.24321,0.6543964,0.2754977,0.05572259,1.208979,-0.3138731,-0.1191558,0.09759596,0.02949255,0.2921611,-10.24339,31.53
3,-0.03462219,0.3105316,0.9499207,1.0,-0.01373291,0.286438,0.9579926,-27.38118,2.429657,-24.33272,4.232803,0.3563917,0.4166595,1.0,-0.054245,0.3328705,0.941391,28.3512,6.233688,-23.15311,4.224258,0.6534508,0.271887,0.05559587,1.209547,-0.3143119,-0.1223632,0.09759977,0.02977615,0.2921611,-10.24339,31.53
3,-0.03462219,0.3105316,0.9499207,1.0,-0.01373291,0.286438,0.9579926,-27.38118,2.429657,-24.33272,4.232803,0.3563917,0.4166595,1.0,-0.054245,0.3328705,0.941391,28.3512,6.233688,-23.15311,4.224258,0.6534508,0.271887,0.05559587,1.209547,-0.3143119,-0.1223632,0.09759977,0.02977615,0.2921611,-10.24339,31.53
3,-0.0291748,0.3062744,0.9514771,1.0,-0.009048462,0.2744904,0.9615326,-27.36948,2.597488,-24.31931,4.296371,0.3552351,0.4130704,1.0,-0.04803467,0.3357086,0.9407349,28.38071,6.362854,-23.16458,4.259232,0.6515486,0.2671087,0.0555023,1.210147,-0.3146536,-0.1256808,0.09745838,0.0297739,0.2921611,-10.24339,31.53
3,-0.0291748,0.3062744,0.9514771,1.0,-0.009048462,0.2744904,0.9615326,-27.36948,2.597488,-24.31931,4.296371,0.3552351,0.4130704,1.0,-0.04803467,0.3357086,0.9407349,28.38071,6.362854,-23.16458,4.259232,0.6515486,0.2671087,0.0555023,1.210147,-0.3146536,-0.1256808,0.09745838,0.0297739,0.2921611,-10.24339,31.53
3,-0.0291748,0.3062744,0.9514771,1.0,-0.009048462,0.2744904,0.9615326,-27.36948,2.597488,-24.31931,4.296371,0.3552351,0.4130704,1.0,-0.04803467,0.3357086,0.9407349,28.38071,6.362854,-23.16458,4.259232,0.6515486,0.2671087,0.05533326,1.210905,-0.3149304,-0.1298484,0.09731723,0.02978516,0.2921611,-10.24339,31.53
3,-0.0291748,0.3062744,0.9514771,1.0,-0.009048462,0.2744904,0.9615326,-27.36948,2.597488,-24.31931,4.296371,0.3552351,0.4130704,1.0,-0.04803467,0.3357086,0.9407349,28.38071,6.362854,-23.16458,4.259232,0.6515486,0.2671087,0.05533326,1.210905,-0.3149304,-0.1298484,0.09731723,0.02978516,0.2921611,-10.24339,31.53
3,-0.0291748,0.3062744,0.9514771,1.0,-0.009048462,0.2744904,0.9615326,-27.36948,2.597488,-24.31931,4.296371,0.3552351,0.4130704,1.0,-0.04803467,0.3357086,0.9407349,28.38071,6.362854,-23.16458,4.259232,0.6515486,0.2671087,0.05523205,1.211818,-0.3152823,-0.135149,0.09746281,0.02997541,0.2921611,-10.24339,31.53
3,-0.0291748,0.3062744,0.9514771,1.0,-0.009048462,0.2744904,0.9615326,-27.36948,2.597488,-24.31931,4.296371,0.3552351,0.4130704,1.0,-0.04803467,0.3357086,0.9407349,28.38071,6.362854,-23.16458,4.259232,0.6515486,0.2671087,0.05523205,1.211818,-0.3152823,-0.135149,0.09746281,0.02997541,0.2921611,-10.24339,31.53
3,-0.02877808,0.3091431,0.9505615,1.0,-0.01016235,0.2782898,0.960434,-27.36685,2.617188,-24.32623,4.23645,0.3553464,0.4118022,1.0,-0.04853821,0.3414917,0.9386139,28.39093,6.379196,-23.17441,4.171616,0.651337,0.2655629,0.05515659,1.212632,-0.3159226,-0.1398305,0.09792999,0.03095175,0.2921611,-10.24339,31.53
3,-0.02877808,0.3091431,0.9505615,1.0,-0.01016235,0.2782898,0.960434,-27.36685,2.617188,-24.32623,4.23645,0.3553464,0.4118022,1.0,-0.04853821,0.3414917,0.9386139,28.39093,6.379196,-23.17441,4.171616,0.651337,0.2655629,0.05515659,1.212632,-0.3159226,-0.1398305,0.09792999,0.03095175,0.2921611,-10.24339,31.53
3,-0.02877808,0.3091431,0.9505615,1.0,-0.01016235,0.2782898,0.960434,-27.36685,2.617188,-24.32623,4.23645,0.3553464,0.4118022,1.0,-0.04853821,0.3414917,0.9386139,28.39093,6.379196,-23.17441,4.171616,0.651337,0.2655629,0.0550735,1.213318,-0.3168883,-0.143608,0.0979217,0.03281626,0.2921611,-10.24339,31.53
3,-0.02877808,0.3091431,0.9505615,1.0,-0.01016235,0.2782898,0.960434,-27.36685,2.617188,-24.32623,4.23645,0.3553464,0.4118022,1.0,-0.04853821,0.3414917,0.9386139,28.39093,6.379196,-23.17441,4.171616,0.651337,0.2655629,0.0550735,1.213318,-0.3168883,-0.143608,0.0979217,0.03281626,0.2921611,-10.24339,31.53
3,-0.02877808,0.3091431,0.9505615,1.0,-0.01016235,0.2782898,0.960434,-27.36685,2.617188,-24.32623,4.23645,0.3553464,0.4118022,1.0,-0.04853821,0.3414917,0.9386139,28.39093,6.379196,-23.17441,4.171616,0.651337,0.2655629,0.05507076,1.213961,-0.3179244,-0.147128,0.09807246,0.03456875,0.2921611,-13.85995,31.53
3,-0.02877808,0.3091431,0.9505615,1.0,-0.01016235,0.2782898,0.960434,-27.36685,2.617188,-24.32623,4.23645,0.3553464,0.4118022,1.0,-0.04853821,0.3414917,0.9386139,28.39093,6.379196,-23.17441,4.171616,0.651337,0.2655629,0.05507076,1.213961,-0.3179244,-0.147128,0.09807246,0.03456875,0.2921611,-13.85995,31.53
3,-0.0284729,0.3067627,0.951355,1.0,-0.007003784,0.276886,0.9608612,-27.36496,2.61882,-24.32475,4.2258,0.3547617,0.4119454,1.0,-0.04876709,0.33461,0.9410858,28.39546,6.380692,-23.16745,4.198578,0.6511809,0.2666426,0.05491161,1.214333,-0.3191065,-0.1492647,0.09805742,0.03614003,0.2921611,-13.85995,31.53
3,-0.0284729,0.3067627,0.951355,1.0,-0.007003784,0.276886,0.9608612,-27.36496,2.61882,-24.32475,4.2258,0.3547617,0.4119454,1.0,-0.04876709,0.33461,0.9410858,28.39546,6.380692,-23.16745,4.198578,0.6511809,0.2666426,0.05491161,1.214333,-0.3191065,-0.1492647,0.09805742,0.03614003,0.2921611,-13.85995,31.53
3,-0.0284729,0.3067627,0.951355,1.0,-0.007003784,0.276886,0.9608612,-27.36496,2.61882,-24.32475,4.2258,0.3547617,0.4119454,1.0,-0.04876709,0.33461,0.9410858,28.39546,6.380692,-23.16745,4.198578,0.6511809,0.2666426,0.05463779,1.214314,-0.3203297,-0.1502557,0.09752173,0.03619668,0.2921611,-13.85995,31.53
3,-0.0284729,0.3067627,0.951355,1.0,-0.007003784,0.276886,0.9608612,-27.36496,2.61882,-24.32475,4.2258,0.3547617,0.4119454,1.0,-0.04876709,0.33461,0.9410858,28.39546,6.380692,-23.16745,4.198578,0.6511809,0.2666426,0.05463779,1.214314,-0.3203297,-0.1502557,0.09752173,0.03619668,0.2921611,-13.85995,31.53
3,-0.03201294,0.2709198,0.9620514,1.0,0.0003662109,0.2233124,0.9747314,-27.31064,2.025024,-24.78932,4.144608,0.3512698,0.4436211,1.0,-0.04208374,0.285553,0.957428,28.57854,5.534943,-23.04144,4.194687,0.6428072,0.3027984,0.05426776,1.214028,-0.3213898,-0.149762,0.09622502,0.03597038,0.2921611,-13.85995,31.53
3,-0.03201294,0.2709198,0.9620514,1.0,0.0003662109,0.2233124,0.9747314,-27.31064,2.025024,-24.78932,4.144608,0.3512698,0.4436211,1.0,-0.04208374,0.285553,0.957428,28.57854,5.534943,-23.04144,4.194687,0.6428072,0.3027984,0.05426776,1.214028,-0.3213898,-0.149762,0.09622502,0.03597038,0.2921611,-13.85995,31.53
3,-0.04627991,0.2819672,0.9582977,1.0,0.008499146,0.2082977,0.9780273,-27.30238,2.144867,-25.76399,4.00563,0.3486779,0.4501562,1.0,-0.04627991,0.2819672,0.9582977,28.6077,5.419281,-23.04532,4.153778,0.6424489,0.3072746,0.05388653,1.213471,-0.3222504,-0.1473035,0.09447635,0.03680921,0.2921611,-13.85995,31.53
3,-0.04627991,0.2819672,0.9582977,1.0,0.008499146,0.2082977,0.9780273,-27.30238,2.144867,-25.76399,4.00563,0.3486779,0.4501562,1.0,-0.04627991,0.2819672,0.9582977,28.6077,5.419281,-23.04532,4.153778,0.6424489,0.3072746,0.05388653,1.213471,-0.3222504,-0.1473035,0.09447635,0.03680921,0.2921611,-13.85995,31.53
3,-0.04374695,0.2812805,0.9586182,1.0,0.004074097,0.2002869,0.9797211,-27.32349,2.106369,-25.67564,4.052536,0.3501872,0.4520403,1.0,-0.04374695,0.2812805,0.9586182,28.58456,5.407669,-23.04224,4.194916,0.6427878,0.3077838,0.05345964,1.212559,-0.322809,-0.1426005,0.09175263,0.03707985,0.2921611,-13.85995,31.53
3,-0.04374695,0.2812805,0.9586182,1.0,0.004074097,0.2002869,0.9797211,-27.32349,2.106369,-25.67564,4.052536,0.3501872,0.4520403,1.0,-0.04374695,0.2812805,0.9586182,28.58456,5.407669,-23.04224,4.194916,0.6427878,0.3077838,0.05345964,1.212559,-0.322809,-0.1426005,0.09175263,0.03707985,0.2921611,-13.85995,31.53
3,-0.0382843,0.2728729,0.9612732,1.0,0.002639771,0.202774,0.9792175,-27.33014,2.102692,-25.65749,4.054916,0.350667,0.4515981,1.0,-0.03887939,0.2738953,0.960968,28.54736,5.487091,-23.02283,4.153061,0.6431873,0.3061411,0.05315542,1.211983,-0.3229655,-0.139399,0.08994661,0.03676587,0.2921611,-13.85995,31.53
3,-0.0440979,0.2506714,0.9670563,1.0,0.02615356,0.2090454,0.9775391,-27.52809,2.19455,-25.26936,4.060806,0.3536726,0.4443541,1.0,-0.04978943,0.2539673,0.9659271,28.53256,5.705597,-23.02562,4.20018,0.6455724,0.3021837,0.0525521,1.210792,-0.3229042,-0.1320639,0.08600814,0.0363915,0.2921611,-13.85995,31.53
3,-0.0440979,0.2506714,0.9670563,1.0,0.02615356,0.2090454,0.9775391,-27.52809,2.19455,-25.26936,4.060806,0.3536726,0.4443541,1.0,-0.04978943,0.2539673,0.9659271,28.53256,5.705597,-23.02562,4.20018,0.6455724,0.3021837,0.0525521,1.210792,-0.3229042,-0.1320639,0.08600814,0.0363915,0.2921611,-13.85995,31.53
3,-0.03335571,0.2740326,0.9611359,1.0,-0.009048462,0.2236023,0.9746246,-27.41496,2.091599,-24.98187,4.173233,0.3560552,0.4430771,1.0,-0.03352356,0.274353,0.9610291,28.45657,5.695129,-23.03287,4.188614,0.6454501,0.2991689,0.05228436,1.210162,-0.3227452,-0.1279304,0.08384445,0.03601426,0.2921611,-13.85995,31.53
3,-0.03327942,0.2799072,0.9594421,1.0,-0.004928589,0.2287292,0.973465,-27.4342,2.134613,-24.91534,4.088715,0.3561022,0.4401952,1.0,-0.03330994,0.279953,0.9594269,28.42101,5.753586,-23.03317,4.12825,0.6466534,0.2962093,0.05198538,1.209535,-0.3225595,-0.1238296,0.08167198,0.03576702,0.2921611,30.27995,31.53
3,-0.03327942,0.2799072,0.9594421,1.0,-0.004928589,0.2287292,0.973465,-27.4342,2.134613,-24.91534,4.088715,0.3561022,0.4401952,1.0,-0.03330994,0.279953,0.9594269,28.42101,5.753586,-23.03317,4.12825,0.6466534,0.2962093,0.05198538,1.209535,-0.3225595,-0.1238296,0.08167198,0.03576702,0.2921611,30.27995,31.53
3,-0.03327942,0.2799072,0.9594421,1.0,-0.004928589,0.2287292,0.973465,-27.4342,2.134613,-24.91534,4.088715,0.3561022,0.4401952,1.0,-0.03330994,0.279953,0.9594269,28.42101,5.753586,-23.03317,4.12825,0.6466534,0.2962093,0.05141556,1.208178,-0.3219391,-0.1158458,0.07704455,0.03509113,0.2921611,30.27995,31.53
3,-0.03327942,0.2799072,0.9594421,1.0,-0.004928589,0.2287292,0.973465,-27.4342,2.134613,-24.91534,4.088715,0.3561022,0.4401952,1.0,-0.03330994,0.279953,0.9594269,28.42101,5.753586,-23.03317,4.12825,0.6466534,0.2962093,0.05115497,1.207521,-0.3214818,-0.1118064,0.074637,0.03468043,0.2921611,30.27995,31.53
3,-0.03327942,0.2799072,0.9594421,1.0,-0.004928589,0.2287292,0.973465,-27.4342,2.134613,-24.91534,4.088715,0.3561022,0.4401952,1.0,-0.03330994,0.279953,0.9594269,28.42101,5.753586,-23.03317,4.12825,0.6466534,0.2962093,0.05056942,1.206267,-0.3202251,-0.1027988,0.07004209,0.03395991,0.2921611,30.27995,31.53
3,-0.03327942,0.2799072,0.9594421,1.0,-0.004928589,0.2287292,0.973465,-27.4342,2.134613,-24.91534,4.088715,0.3561022,0.4401952,1.0,-0.03330994,0.279953,0.9594269,28.42101,5.753586,-23.03317,4.12825,0.6466534,0.2962093,0.05056942,1.206267,-0.3202251,-0.1027988,0.07004209,0.03395991,0.2921611,30.27995,31.53
3,-0.03691101,0.2929688,0.9553986,1.0,-0.009384155,0.2426453,0.9700623,-27.44267,2.145111,-24.73236,4.107239,0.3573056,0.4361229,1.0,-0.03691101,0.292984,0.9553986,28.36246,5.90831,-23.06631,4.137009,0.6494434,0.2890366,0.05022097,1.205419,-0.3195715,-0.09746213,0.06758927,0.0332547,0.2921611,30.27995,31.53
3,-0.07261658,0.2935333,0.9531708,1.0,-0.02946472,0.2883606,0.9570618,-27.67204,2.65596,-24.9375,4.157928,0.3680881,0.4139585,1.0,-0.07276917,0.2935638,0.9531555,28.29164,6.375092,-23.13316,3.862854,0.6583996,0.2731938,0.04965246,1.203445,-0.3178616,-0.08381886,0.06225203,0.03234657,0.2921611,30.27995,31.53
3,-0.07261658,0.2935333,0.9531708,1.0,-0.02946472,0.2883606,0.9570618,-27.67204,2.65596,-24.9375,4.157928,0.3680881,0.4139585,1.0,-0.07276917,0.2935638,0.9531555,28.29164,6.375092,-23.13316,3.862854,0.6583996,0.2731938,0.04965246,1.203445,-0.3178616,-0.08381886,0.06225203,0.03234657,0.2921611,30.27995,31.53
3,-1.0,-1.0,-1.0,1.0,0.0,0.0,0.0,-27.73198,2.84407,-24.89809,-1.0,0.3675223,0.422502,1.0,0.0,0.0,0.0,28.59712,6.634918,-23.13109,-1.0,0.6492876,0.3149496,0.04942501,1.202119,-0.3168119,-0.07571794,0.05934714,0.03168965,0.2921611,30.27995,31.53
3,-1.0,-1.0,-1.0,0.6209627,0.0,0.0,0.0,-27.75641,3.601974,-28.60376,-1.0,0.365966,0.4591291,0.6163917,0.0,0.0,0.0,27.73288,3.321411,-23.27829,-1.0,-1.0,-1.0,0.04892266,1.199008,-0.31451,-0.05653174,0.05283135,0.0299162,0.2921611,30.27995,31.53
3,-1.0,-1.0,-1.0,0.6209627,0.0,0.0,0.0,-27.75641,3.601974,-28.60376,-1.0,0.365966,0.4591291,0.6163917,0.0,0.0,0.0,27.73288,3.321411,-23.27829,-1.0,-1.0,-1.0,0.04892266,1.199008,-0.31451,-0.05653174,0.05283135,0.0299162,0.2921611,30.27995,31.53
3,-1.0,-1.0,-1.0,0.3258509,0.0,0.0,0.0,-28.39377,0.5530243,-26.1174,-1.0,0.3636642,0.5256061,0.3405671,0.0,0.0,0.0,27.73288,3.321411,-23.27829,-1.0,-1.0,-1.0,0.04860091,1.197214,-0.3132733,-0.0462925,0.04945912,0.02891959,0.2921611,30.27995,31.53
3,-1.0,-1.0,-1.0,0.09244603,0.0,0.0,0.0,-27.44821,2.04425,-27.1555,-1.0,0.3422152,0.5427238,0.1619923,0.0,0.0,0.0,27.73288,3.321411,-23.27829,-1.0,-1.0,-1.0,0.04789793,1.193437,-0.3105896,-0.02536802,0.04240375,0.02664239,0.2921611,16.54892,31.53
3,-1.0,-1.0,-1.0,0.09244603,0.0,0.0,0.0,-27.44821,2.04425,-27.1555,-1.0,0.3422152,0.5427238,0.1619923,0.0,0.0,0.0,27.73288,3.321411,-23.27829,-1.0,-1.0,-1.0,0.04789793,1.193437,-0.3105896,-0.02536802,0.04240375,0.02664239,0.2921611,16.54892,31.53
3,-1.0,-1.0,-1.0,0.215247,0.0,0.0,0.0,-27.13148,0.708252,-25.44627,-1.0,0.3425086,0.541854,0.2548779,0.0,0.0,0.0,28.9361,4.580566,-25.71483,-1.0,0.625035,0.4396192,0.04723275,1.189928,-0.3077438,-0.006437401,0.03574701,0.02422688,0.2921611,16.54892,31.53
3,-1.0,-1.0,-1.0,0.215247,0.0,0.0,0.0,-27.13148,0.708252,-25.44627,-1.0,0.3425086,0.541854,0.2548779,0.0,0.0,0.0,28.9361,4.580566,-25.71483,-1.0,0.625035,0.4396192,0.04723275,1.189928,-0.3077438,-0.006437401,0.03574701,0.02422688,0.2921611,16.54892,31.53
3,-1.0,-1.0,-1.0,0.267969,0.0,0.0,0.0,-26.95647,0.1571045,-24.90636,-1.0,0.3323559,0.5597453,0.3419462,0.0,0.0,0.0,28.89554,3.725266,-23.81125,-1.0,0.6214941,0.4426517,0.04685199,1.188283,-0.3063412,0.002569283,0.03243466,0.02277814,0.2921611,16.54892,31.53
3,-1.0,-1.0,-1.0,0.267969,0.0,0.0,0.0,-26.88364,-0.01338196,-24.87048,-1.0,0.3292593,0.5692736,0.3419462,0.0,0.0,0.0,28.92157,3.407303,-23.11751,-1.0,0.6203906,0.4497108,0.04643309,1.186623,-0.3047442,0.01130848,0.02915565,0.02074262,0.2921611,16.54892,31.53
3,0.01089478,-0.2141113,0.9767456,0.2911507,0.06137085,-0.2037659,0.9770813,-26.756,-0.1481934,-24.92619,3.837021,0.3215955,0.5864068,0.3940839,0.01089478,-0.2141113,0.9767456,28.99724,3.142151,-23.03607,3.560547,0.6186271,0.4639542,0.04561293,1.183473,-0.3016477,0.02750594,0.02256452,0.01664951,0.2921611,16.54892,31.53
3,0.01089478,-0.2141113,0.9767456,0.2911507,0.06137085,-0.2037659,0.9770813,-26.756,-0.1481934,-24.92619,3.837021,0.3215955,0.5864068,0.3940839,0.01089478,-0.2141113,0.9767456,28.99724,3.142151,-23.03607,3.560547,0.6186271,0.4639542,0.04561293,1.183473,-0.3016477,0.02750594,0.02256452,0.01664951,0.2921611,16.54892,31.53
3,0.06134033,-0.2514191,0.9659271,0.3175076,0.06134033,-0.2514191,0.9659271,-26.72443,-0.276062,-24.95132,3.784042,0.3202948,0.5992074,0.4363915,0.001403809,-0.2068634,0.978363,29.02776,2.850433,-23.17712,3.727203,0.6193114,0.4734606,0.04523468,1.182058,-0.3001471,0.0346297,0.01946629,0.01505875,0.2921611,16.54892,31.53
3,0.05293274,-0.2795563,0.9586639,0.3540195,0.05293274,-0.2795563,0.9586639,-26.82373,-0.3089752,-24.94221,3.726501,0.3248888,0.6051919,0.4784114,0.01246643,-0.2753143,0.9612579,28.83965,2.90657,-23.09995,3.608856,0.6236914,0.4828967,0.0446564,1.179718,-0.297027,0.04664076,0.01405241,0.01317229,0.2921611,16.54892,31.53
3,0.05293274,-0.2795563,0.9586639,0.3540195,0.05293274,-0.2795563,0.9586639,-26.82373,-0.3089752,-24.94221,3.726501,0.3248888,0.6051919,0.4784114,0.01246643,-0.2753143,0.9612579,28.83965,2.90657,-23.09995,3.608856,0.6236914,0.4828967,0.0446564,1.179718,-0.297027,0.04664076,0.01405241,0.01317229,0.2921611,16.54892,31.53
3,0.0423584,-0.296936,0.953949,0.3860234,0.04708862,-0.2968597,0.9537506,-26.95564,-0.2769318,-24.92595,3.745743,0.3302012,0.607087,0.5097715,-0.01222229,-0.2973633,0.9546814,28.7534,2.914627,-23.08594,3.496826,0.6305767,0.4864516,0.04439998,1.178826,-0.2955582,0.05133372,0.01181625,0.0124715,0.2921611,16.54892,31.53
3,0.01577759,-0.3098755,0.9506378,0.4114,0.05183411,-0.3049622,0.950943,-27.09828,-0.2109375,-24.89708,3.816788,0.3341908,0.6061059,0.5632798,-0.01809692,-0.3141174,0.9492035,28.63002,3.000931,-23.07269,3.552887,0.6356317,0.4865068,0.04408801,1.177852,-0.2923415,0.0563908,0.008750833,0.01132231,0.2921611,16.54892,31.53
3,0.01577759,-0.3098755,0.9506378,0.4114,0.05183411,-0.3049622,0.950943,-27.09828,-0.2109375,-24.89708,3.816788,0.3341908,0.6061059,0.5632798,-0.01809692,-0.3141174,0.9492035,28.63002,3.000931,-23.07269,3.552887,0.6356317,0.4865068,0.04408801,1.177852,-0.2923415,0.0563908,0.008750833,0.01132231,0.2921611,16.54892,31.53
3,-0.002227783,-0.2914581,0.9565735,0.432821,0.01972961,-0.2935333,0.9557343,-27.25056,-0.06695557,-24.84055,3.623505,0.3446622,0.5987651,0.615096,-0.03216553,-0.2883911,0.956955,28.55576,3.195984,-23.00937,3.554199,0.6402858,0.4750645,0.0439136,1.177596,-0.2906687,0.05779833,0.007756029,0.01060467,0.2921611,16.54892,31.53
3,-0.00227356,-0.2832031,0.9590454,0.4286541,0.01985168,-0.284317,0.9585114,-27.30975,0.03346252,-24.80229,3.594727,0.3467098,0.5934525,0.6322061,-0.02740479,-0.2817841,0.9590759,28.51984,3.282791,-23.00415,3.625229,0.6406897,0.4710107,0.04368961,1.177538,-0.2891563,0.05785051,0.007096895,0.009751883,0.2921611,16.54892,31.53
3,-0.001159668,-0.2719727,0.9622955,0.4527431,0.02941895,-0.2727814,0.9616089,-27.40608,0.1835327,-24.76202,3.731018,0.3484498,0.5861159,0.6464682,-0.02957153,-0.2709961,0.9621124,28.48804,3.452332,-22.96107,3.601669,0.6420408,0.4632249,0.04350722,1.177634,-0.2877574,0.05730444,0.006582749,0.009029903,0.2921611,16.54892,31.53
3,-0.003707886,-0.2531891,0.967392,0.4819313,0.02485657,-0.257431,0.9659729,-27.46921,0.1632538,-24.78635,3.687439,0.3512989,0.5842947,0.6568955,-0.03056335,-0.2490234,0.9680023,28.48553,3.462692,-22.96175,3.575714,0.6422617,0.4590613,0.04321504,1.177913,-0.2854397,0.05540822,0.00594396,0.008401595,0.2921611,-4.948166,31.53
3,-0.003707886,-0.2531891,0.967392,0.4819313,0.02485657,-0.257431,0.9659729,-27.46921,0.1632538,-24.78635,3.687439,0.3512989,0.5842947,0.6568955,-0.03056335,-0.2490234,0.9680023,28.48553,3.462692,-22.96175,3.575714,0.6422617,0.4590613,0.04321504,1.177913,-0.2854397,0.05540822,0.00594396,0.008401595,0.2921611,-4.948166,31.53
3,-0.003707886,-0.2531891,0.967392,0.4819313,0.02485657,-0.257431,0.9659729,-27.46921,0.1632538,-24.78635,3.687439,0.3512989,0.5842947,0.6568955,-0.03056335,-0.2490234,0.9680023,28.48553,3.462692,-22.96175,3.575714,0.6422617,0.4590613,0.04321504,1.177913,-0.2854397,0.05540822,0.00594396,0.008401595,0.2921611,-4.948166,31.53
3,-0.003707886,-0.2531891,0.967392,0.4819313,0.02485657,-0.257431,0.9659729,-27.46921,0.1632538,-24.78635,3.687439,0.3512989,0.5842947,0.6568955,-0.03056335,-0.2490234,0.9680023,28.48553,3.462692,-22.96175,3.575714,0.6422617,0.4590613,0.04301286,1.1784,-0.2838088,0.05294813,0.006054491,0.008495954,0.2921611,-4.948166,31.53
3,-0.003707886,-0.2531891,0.967392,0.4819313,0.02485657,-0.257431,0.9659729,-27.46921,0.1632538,-24.78635,3.687439,0.3512989,0.5842947,0.6568955,-0.03056335,-0.2490234,0.9680023,28.48553,3.462692,-22.96175,3.575714,0.6422617,0.4590613,0.04301584,1.178929,-0.2828665,0.0499563,0.00711053,0.008374949,0.2921611,-4.948166,31.53
3,-0.003707886,-0.2531891,0.967392,0.4819313,0.02485657,-0.257431,0.9659729,-27.46921,0.1632538,-24.78635,3.687439,0.3512989,0.5842947,0.6568955,-0.03056335,-0.2490234,0.9680023,28.48553,3.462692,-22.96175,3.575714,0.6422617,0.4590613,0.04301584,1.178929,-0.2828665,0.0499563,0.00711053,0.008374949,0.2921611,-4.948166,31.53
3,-0.005004883,-0.2362671,0.9716644,0.5000365,0.01502991,-0.2429504,0.9699097,-27.49165,0.09321594,-24.80457,3.77951,0.3536367,0.5842359,0.6875445,-0.02597046,-0.2291718,0.9730225,28.50081,3.379852,-22.97319,3.617828,0.6409944,0.458398,0.04354763,1.179803,-0.2821174,0.04661392,0.009285371,0.00831513,0.2921611,-4.948166,31.53
3,-0.005004883,-0.2362671,0.9716644,0.5000365,0.01502991,-0.2429504,0.9699097,-27.49165,0.09321594,-24.80457,3.77951,0.3536367,0.5842359,0.6875445,-0.02597046,-0.2291718,0.9730225,28.50081,3.379852,-22.97319,3.617828,0.6409944,0.458398,0.04354763,1.179803,-0.2821174,0.04661392,0.009285371,0.00831513,0.2921611,-4.948166,31.53
3,-0.02320862,-0.2321625,0.9723969,0.5673746,0.005233765,-0.2328033,0.9725037,-27.50769,-0.2714386,-24.89798,3.671051,0.3555952,0.5953206,0.7351959,-0.05024719,-0.2313843,0.9715576,28.66942,2.995819,-23.07487,3.640793,0.6394903,0.4722244,0.04417932,1.180989,-0.2826186,0.0443122,0.01265828,0.009435806,0.2921611,-4.948166,31.53
3,-0.02320862,-0.2321625,0.9723969,0.5673746,0.005233765,-0.2328033,0.9725037,-27.50769,-0.2714386,-24.89798,3.671051,0.3555952,0.5953206,0.7351959,-0.05024719,-0.2313843,0.9715576,28.66942,2.995819,-23.07487,3.640793,0.6394903,0.4722244,0.04417932,1.180989,-0.2826186,0.0443122,0.01265828,0.009435806,0.2921611,-4.948166,31.53
3,-0.03146362,-0.2283783,0.973053,0.5518965,-0.00352478,-0.2340546,0.9722137,-27.50601,-0.3133392,-24.90987,3.59346,0.3569576,0.5970246,0.7476405,-0.05899048,-0.2226105,0.973114,28.70062,2.922974,-23.09358,3.603058,0.6399052,0.4732687,0.04463327,1.181872,-0.2828515,0.04286563,0.01626332,0.01083198,0.2921611,-4.948166,31.53
3,-0.03146362,-0.2283783,0.973053,0.5518965,-0.00352478,-0.2340546,0.9722137,-27.50601,-0.3133392,-24.90987,3.59346,0.3569576,0.5970246,0.7476405,-0.05899048,-0.2226105,0.973114,28.70062,2.922974,-23.09358,3.603058,0.6399052,0.4732687,0.04463327,1.181872,-0.2828515,0.04286563,0.01626332,0.01083198,0.2921611,-4.948166,31.53
3,-0.03146362,-0.2283783,0.973053,0.5518965,-0.00352478,-0.2340546,0.9722137,-27.50601,-0.3133392,-24.90987,3.59346,0.3569576,0.5970246,0.7476405,-0.05899048,-0.2226105,0.973114,28.70062,2.922974,-23.09358,3.603058,0.6399052,0.4732687,0.04517782,1.181828,-0.2824272,0.04159769,0.0196017,0.01209359,0.2921611,-4.948166,31.53
3,-0.03146362,-0.2283783,0.973053,0.5518965,-0.00352478,-0.2340546,0.9722137,-27.50601,-0.3133392,-24.90987,3.59346,0.3569576,0.5970246,0.7476405,-0.05899048,-0.2226105,0.973114,28.70062,2.922974,-23.09358,3.603058,0.6399052,0.4732687,0.04517782,1.181828,-0.2824272,0.04159769,0.0196017,0.01209359,0.2921611,-4.948166,31.53
4,-0.02304077,-0.2302399,0.9728546,0.5518965,0.0001983643,-0.2316284,0.9727936,-27.50658,-0.3167572,-24.91023,3.59169,0.3563696,0.5967085,0.7476405,-0.04808044,-0.2286072,0.9723206,28.71709,2.91098,-23.09615,3.559067,0.6375765,0.4746743,0.04577243,1.181917,-0.2823267,0.03967905,0.02373883,0.01270704,0.2921611,-9.819489,31.53
4,-0.02304077,-0.2302399,0.9728546,0.5518965,0.0001983643,-0.2316284,0.9727936,-27.50658,-0.3167572,-24.91023,3.59169,0.3563696,0.5967085,0.7476405,-0.04808044,-0.2286072,0.9723206,28.71709,2.91098,-23.09615,3.559067,0.6375765,0.4746743,0.04577243,1.181917,-0.2823267,0.03967905,0.02373883,0.01270704,0.2921611,-22.93889,31.53
4,-0.0112915,-0.2288971,0.9733734,0.5688474,0.004165649,-0.2293549,0.9733276,-27.45966,-0.2909088,-24.90092,3.725464,0.3541715,0.5953812,0.7543906,-0.0297699,-0.2282867,0.9731293,28.8501,2.949081,-23.08551,3.629227,0.6301869,0.4732162,0.04671276,1.182302,-0.2824219,0.03687049,0.02845941,0.01253348,0.2921611,-47.73941,31.53
4,-0.002380371,-0.2402344,0.9707031,0.5544954,0.01301575,-0.2419128,0.9701996,-27.45581,-0.09487915,-24.84203,3.741409,0.352688,0.5905843,0.7451506,-0.02156067,-0.2380676,0.9710083,28.85706,3.156479,-23.02359,3.625595,0.628573,0.467598,0.04776871,1.183035,-0.2828269,0.03094308,0.03394894,0.0123966,0.2921611,-47.73941,31.53
4,-0.002380371,-0.2402344,0.9707031,0.5544954,0.01301575,-0.2419128,0.9701996,-27.45581,-0.09487915,-24.84203,3.741409,0.352688,0.5905843,0.7451506,-0.02156067,-0.2380676,0.9710083,28.85706,3.156479,-23.02359,3.625595,0.628573,0.467598,0.04776871,1.183035,-0.2828269,0.03094308,0.03394894,0.0123966,0.2921611,-47.73941,31.53
4,-0.02919006,-0.1539154,0.9876404,0.5232333,-0.026474,-0.1552734,0.9875031,-27.7137,0.6893921,-24.8821,3.757034,0.3680595,0.5503111,0.7165089,-0.04724121,-0.1448822,0.9883118,28.50363,4.073502,-23.6799,3.703705,0.6453459,0.427238,0.04915178,1.184627,-0.2832797,0.02127108,0.0406364,0.01246074,0.2921611,-47.73941,31.53
4,-0.02919006,-0.1539154,0.9876404,0.5232333,-0.026474,-0.1552734,0.9875031,-27.7137,0.6893921,-24.8821,3.757034,0.3680595,0.5503111,0.7165089,-0.04724121,-0.1448822,0.9883118,28.50363,4.073502,-23.6799,3.703705,0.6453459,0.427238,0.04915178,1.184627,-0.2832797,0.02127108,0.0406364,0.01246074,0.2921611,-47.73941,31.53
4,-0.02919006,-0.1539154,0.9876404,0.5232333,-0.026474,-0.1552734,0.9875031,-27.7137,0.6893921,-24.8821,3.757034,0.3680595,0.5503111,0.7165089,-0.04724121,-0.1448822,0.9883118,28.50363,4.073502,-23.6799,3.703705,0.6453459,0.427238,0.04915178,1.184627,-0.2832797,0.02127108,0.0406364,0.01246074,0.2921611,-47.73941,31.53
4,-0.04492188,-0.009689331,0.9989319,0.5570683,-0.04490662,-0.009689331,0.9989319,-28.28076,2.771301,-26.64316,3.653183,0.38932,0.4732257,0.73018,-0.08595276,0.02407837,0.9960022,27.96313,6.198151,-25.47545,3.520477,0.6738861,0.3415961,0.05080771,1.187107,-0.2839744,0.007306905,0.05005553,0.01312412,0.2921611,-47.73941,31.53
4,-0.04492188,-0.009689331,0.9989319,0.5570683,-0.04490662,-0.009689331,0.9989319,-28.28076,2.771301,-26.64316,3.653183,0.38932,0.4732257,0.73018,-0.08595276,0.02407837,0.9960022,27.96313,6.198151,-25.47545,3.520477,0.6738861,0.3415961,0.05080771,1.187107,-0.2839744,0.007306905,0.05005553,0.01312412,0.2921611,-47.73941,31.53
4,-0.1108246,0.1793671,0.9775085,0.7741642,-0.1091614,0.1714478,0.979126,-28.33885,3.478149,-25.06252,3.784698,0.4032768,0.4072079,0.8929875,-0.120285,0.2246704,0.96698,27.39168,7.255905,-23.43501,4.083908,0.6981869,0.2558526,0.05236506,1.189851,-0.2852211,-0.006696088,0.06026182,0.01651923,0.2921611,-47.73941,31.53
4,-0.09037781,0.2672882,0.9593658,0.8684796,-0.08540344,0.2678223,0.959671,-28.51463,3.830246,-25.19746,3.893997,0.4051652,0.3811609,0.9616066,-0.1261902,0.2631989,0.9564362,27.37212,7.735962,-23.53992,3.885422,0.7012533,0.2324889,0.05378985,1.192628,-0.2870747,-0.01994459,0.06973293,0.02122796,0.2921611,-47.73941,31.53
4,-0.09037781,0.2672882,0.9593658,0.8684796,-0.08540344,0.2678223,0.959671,-28.51463,3.830246,-25.19746,3.893997,0.4051652,0.3811609,0.9616066,-0.1261902,0.2631989,0.9564362,27.37212,7.735962,-23.53992,3.885422,0.7012533,0.2324889,0.05378985,1.192628,-0.2870747,-0.01994459,0.06973293,0.02122796,0.2921611,-47.73941,31.53
4,-0.09037781,0.2672882,0.9593658,0.8684796,-0.08540344,0.2678223,0.959671,-28.51463,3.830246,-25.19746,3.893997,0.4051652,0.3811609,0.9616066,-0.1261902,0.2631989,0.9564362,27.37212,7.735962,-23.53992,3.885422,0.7012533,0.2324889,0.05378985,1.192628,-0.2870747,-0.01994459,0.06973293,0.02122796,0.2921611,-47.73941,31.53
4,-0.08876038,0.2859802,0.9541016,0.8684796,-0.08294678,0.2845459,0.9550629,-28.43214,3.874176,-25.22203,3.891617,0.4020529,0.377135,0.9616066,-0.1283875,0.2955627,0.94664,27.33798,7.710495,-23.60353,4.010513,0.7033942,0.2279546,0.05503738,1.195262,-0.2891941,-0.03212421,0.0778018,0.02574382,0.2921611,-47.73941,31.53
4,-0.08876038,0.2859802,0.9541016,0.8684796,-0.08294678,0.2845459,0.9550629,-28.43214,3.874176,-25.22203,3.891617,0.4020529,0.377135,0.9616066,-0.1283875,0.2955627,0.94664,27.33798,7.710495,-23.60353,4.010513,0.7033942,0.2279546,0.05621028,1.197387,-0.291284,-0.04178836,0.08399537,0.02890361,0.2921611,14.39671,31.53
4,-0.08876038,0.2859802,0.9541016,0.8684796,-0.08294678,0.2845459,0.9550629,-28.43214,3.874176,-25.22203,3.891617,0.4020529,0.377135,0.9616066,-0.1283875,0.2955627,0.94664,27.33798,7.710495,-23.60353,4.010513,0.7033942,0.2279546,0.05621028,1.197387,-0.291284,-0.04178836,0.08399537,0.02890361,0.2921611,14.39671,31.53
4,-0.08876038,0.2859802,0.9541016,0.8684796,-0.08294678,0.2845459,0.9550629,-28.43214,3.874176,-25.22203,3.891617,0.4020529,0.377135,0.9616066,-0.1283875,0.2955627,0.94664,27.33798,7.710495,-23.60353,4.010513,0.7033942,0.2279546,0.05621028,1.197387,-0.291284,-0.04178836,0.08399537,0.02890361,0.2921611,14.39671,31.53
4,-0.09310913,0.2839813,0.9542847,1.0,-0.08827209,0.2819061,0.955368,-28.1012,3.886871,-25.22234,4.072937,0.3919756,0.3772369,1.0,-0.1231079,0.2967072,0.946991,27.59311,7.528061,-23.55345,4.014603,0.69323,0.2343384,0.05681622,1.198432,-0.293733,-0.04697693,0.08787163,0.03076656,0.2921611,14.39671,31.53
4,-0.09310913,0.2839813,0.9542847,1.0,-0.08827209,0.2819061,0.955368,-28.1012,3.886871,-25.22234,4.072937,0.3919756,0.3772369,1.0,-0.1231079,0.2967072,0.946991,27.59311,7.528061,-23.55345,4.014603,0.69323,0.2343384,0.05681622,1.198432,-0.293733,-0.04697693,0.08787163,0.03076656,0.2921611,14.39671,31.53
4,-0.08039856,0.2762299,0.9577179,1.0,-0.03424072,0.262146,0.9644012,-27.26924,1.438446,-23.99413,4.089279,0.3563611,0.4497692,1.0,-0.08041382,0.2762299,0.9577026,28.68007,5.591949,-24.70863,4.044662,0.6482512,0.3143431,0.05699432,1.198739,-0.2958862,-0.04990915,0.08985263,0.03208035,0.2921611,14.39671,31.53
4,-0.08039856,0.2762299,0.9577179,1.0,-0.03424072,0.262146,0.9644012,-27.26924,1.438446,-23.99413,4.089279,0.3563611,0.4497692,1.0,-0.08041382,0.2762299,0.9577026,28.68007,5.591949,-24.70863,4.044662,0.6482512,0.3143431,0.05699432,1.198739,-0.2958862,-0.04990915,0.08985263,0.03208035,0.2921611,14.39671,31.53
4,-0.03388977,0.2628784,0.9642181,1.0,-0.02389526,0.2637329,0.9642944,-27.08646,0.9442596,-23.77017,4.158554,0.3487811,0.4636221,1.0,-0.06268311,0.2602539,0.963501,28.88464,5.161057,-24.5836,4.042252,0.6377405,0.3308311,0.05713594,1.198977,-0.2976816,-0.05231407,0.09044009,0.03279332,0.2921611,14.39671,31.53
4,-0.06089783,0.2472839,0.9670105,1.0,-0.02607727,0.2126312,0.9767761,-27.09818,1.4879,-25.49226,4.130829,0.3478489,0.4688162,1.0,-0.06097412,0.2473755,0.9669952,28.95053,5.027664,-24.36374,3.940445,0.6348523,0.335658,0.0569942,1.198968,-0.2992005,-0.053941,0.08954788,0.03325022,0.2921611,14.39671,31.53
4,-0.06089783,0.2472839,0.9670105,1.0,-0.02607727,0.2126312,0.9767761,-27.09818,1.4879,-25.49226,4.130829,0.3478489,0.4688162,1.0,-0.06097412,0.2473755,0.9669952,28.95053,5.027664,-24.36374,3.940445,0.6348523,0.335658,0.0569942,1.198968,-0.2992005,-0.053941,0.08954788,0.03325022,0.2921611,14.39671,31.53
4,-0.06089783,0.2472839,0.9670105,1.0,-0.02607727,0.2126312,0.9767761,-27.09818,1.4879,-25.49226,4.130829,0.3478489,0.4688162,1.0,-0.06097412,0.2473755,0.9669952,28.95053,5.027664,-24.36374,3.940445,0.6348523,0.335658,0.0569942,1.198968,-0.2992005,-0.053941,0.08954788,0.03325022,0.2921611,14.39671,31.53
4,-0.05381775,0.2306366,0.9715424,1.0,-0.01928711,0.204834,0.9785919,-27.08865,1.507858,-25.48218,4.120071,0.3464039,0.469306,1.0,-0.05381775,0.2306366,0.9715424,28.97247,5.081497,-24.29962,3.965393,0.6327643,0.3361968,0.0566901,1.19874,-0.3003733,-0.05436023,0.08711348,0.03299084,0.2921611,14.39671,31.53
4,-0.05381775,0.2306366,0.9715424,1.0,-0.01928711,0.204834,0.9785919,-27.08865,1.507858,-25.48218,4.120071,0.3464039,0.469306,1.0,-0.05381775,0.2306366,0.9715424,28.97247,5.081497,-24.29962,3.965393,0.6327643,0.3361968,0.0566901,1.19874,-0.3003733,-0.05436023,0.08711348,0.03299084,0.2921611,14.39671,31.53
4,-0.04602051,0.2152863,0.9754639,1.0,-0.004440308,0.1978455,0.9802094,-27.17421,1.448212,-24.80304,4.151581,0.3474252,0.4666062,1.0,-0.04602051,0.2152863,0.9754639,28.88783,5.228287,-24.17665,3.915359,0.6341082,0.3328628,0.05635583,1.198398,-0.3011191,-0.05379688,0.08368186,0.03202619,0.2921611,14.39671,31.53
4,-0.04211426,0.2094574,0.9768982,1.0,-0.005554199,0.1814575,0.9833679,-27.25723,1.77034,-25.19359,3.967163,0.3500587,0.4619102,1.0,-0.04666138,0.2129211,0.9759521,28.80638,5.318298,-23.75435,4.024994,0.6365044,0.3270736,0.05607092,1.198166,-0.3015512,-0.05253081,0.0802393,0.0309491,0.2921611,14.39671,31.53
4,-0.04211426,0.2094574,0.9768982,1.0,-0.005554199,0.1814575,0.9833679,-27.25723,1.77034,-25.19359,3.967163,0.3500587,0.4619102,1.0,-0.04666138,0.2129211,0.9759521,28.80638,5.318298,-23.75435,4.024994,0.6365044,0.3270736,0.05607092,1.198166,-0.3015512,-0.05253081,0.0802393,0.0309491,0.2921611,14.39671,31.53
4,-0.04211426,0.2094574,0.9768982,1.0,-0.005554199,0.1814575,0.9833679,-27.25723,1.77034,-25.19359,3.967163,0.3500587,0.4619102,1.0,-0.04666138,0.2129211,0.9759521,28.80638,5.318298,-23.75435,4.024994,0.6365044,0.3270736,0.05607092,1.198166,-0.3015512,-0.05253081,0.0802393,0.0309491,0.2921611,14.39671,31.53
4,-0.01501465,0.1746826,0.9844971,1.0,-0.01332092,0.1729584,0.9848328,-27.44397,2.095993,-25.03964,3.933517,0.3577117,0.4513863,1.0,-0.04309082,0.2029419,0.9782257,28.62952,5.63858,-23.65956,3.91362,0.6417158,0.3173196,0.05599833,1.197954,-0.3016884,-0.05187155,0.07701166,0.03033957,0.2921611,10.05881,31.53
4,-0.01501465,0.1746826,0.9844971,1.0,-0.01332092,0.1729584,0.9848328,-27.44397,2.095993,-25.03964,3.933517,0.3577117,0.4513863,1.0,-0.04309082,0.2029419,0.9782257,28.62952,5.63858,-23.65956,3.91362,0.6417158,0.3173196,0.05599833,1.197954,-0.3016884,-0.05187155,0.07701166,0.03033957,0.2921611,10.05881,31.53
4,-0.008285522,0.171814,0.9850922,1.0,-0.006958008,0.1705627,0.985321,-27.49522,2.164246,-24.95547,4.068451,0.3583955,0.4489806,1.0,-0.0423584,0.2037201,0.9781036,28.55467,5.749603,-23.68524,4.004272,0.6442422,0.3136451,0.05608034,1.197949,-0.3015199,-0.05188233,0.07532026,0.02987507,0.2921611,10.05881,31.53
4,-0.008285522,0.171814,0.9850922,1.0,-0.006958008,0.1705627,0.985321,-27.49522,2.164246,-24.95547,4.068451,0.3583955,0.4489806,1.0,-0.0423584,0.2037201,0.9781036,28.55467,5.749603,-23.68524,4.004272,0.6442422,0.3136451,0.05620158,1.19806,-0.3012662,-0.05186265,0.07245991,0.02861683,0.2921611,10.05881,31.53
4,-0.008285522,0.171814,0.9850922,1.0,-0.006958008,0.1705627,0.985321,-27.49522,2.164246,-24.95547,4.068451,0.3583955,0.4489806,1.0,-0.0423584,0.2037201,0.9781036,28.55467,5.749603,-23.68524,4.004272,0.6442422,0.3136451,0.05620158,1.19806,-0.3012662,-0.05186265,0.07245991,0.02861683,0.2921611,10.05881,31.53
4,-0.008285522,0.171814,0.9850922,1.0,-0.006958008,0.1705627,0.985321,-27.49522,2.164246,-24.95547,4.068451,0.3583955,0.4489806,1.0,-0.0423584,0.2037201,0.9781036,28.55467,5.749603,-23.68524,4.004272,0.6442422,0.3136451,0.0563072,1.198156,-0.3010617,-0.05203447,0.07144493,0.02785317,0.2921611,10.05881,31.53
4,-0.008224487,0.1754608,0.984436,1.0,-0.00692749,0.1745758,0.9846039,-27.54958,2.18898,-24.78186,4.024902,0.3603507,0.446041,1.0,-0.04577637,0.2008514,0.9785461,28.50182,5.834488,-23.7113,3.967056,0.6466612,0.3113986,0.056584,1.198602,-0.3005998,-0.05295348,0.07015359,0.02594504,0.2921611,10.05881,31.53
4,-0.008224487,0.1754608,0.984436,1.0,-0.00692749,0.1745758,0.9846039,-27.54958,2.18898,-24.78186,4.024902,0.3603507,0.446041,1.0,-0.04577637,0.2008514,0.9785461,28.50182,5.834488,-23.7113,3.967056,0.6466612,0.3113986,0.056584,1.198602,-0.3005998,-0.05295348,0.07015359,0.02594504,0.2921611,10.05881,31.53
4,-0.008224487,0.1754608,0.984436,1.0,-0.00692749,0.1745758,0.9846039,-27.54958,2.18898,-24.78186,4.024902,0.3603507,0.446041,1.0,-0.04577637,0.2008514,0.9785461,28.50182,5.834488,-23.7113,3.967056,0.6466612,0.3113986,0.05672038,1.198761,-0.3003953,-0.05371149,0.06996493,0.02502888,0.2921611,10.05881,31.53
4,-0.008224487,0.1754608,0.984436,1.0,-0.00692749,0.1745758,0.9846039,-27.54958,2.18898,-24.78186,4.024902,0.3603507,0.446041,1.0,-0.04577637,0.2008514,0.9785461,28.50182,5.834488,-23.7113,3.967056,0.6466612,0.3113986,0.05703962,1.199095,-0.2999585,-0.05541871,0.0700372,0.02313192,0.2921611,10.05881,31.53
4,-0.008224487,0.1754608,0.984436,1.0,-0.00692749,0.1745758,0.9846039,-27.54958,2.18898,-24.78186,4.024902,0.3603507,0.446041,1.0,-0.04577637,0.2008514,0.9785461,28.50182,5.834488,-23.7113,3.967056,0.6466612,0.3113986,0.05703962,1.199095,-0.2999585,-0.05541871,0.0700372,0.02313192,0.2921611,10.05881,31.53
4,-0.008224487,0.1754608,0.984436,1.0,-0.00692749,0.1745758,0.9846039,-27.54958,2.18898,-24.78186,4.024902,0.3603507,0.446041,1.0,-0.04577637,0.2008514,0.9785461,28.50182,5.834488,-23.7113,3.967056,0.6466612,0.3113986,0.05720603,1.199275,-0.2998127,-0.05634454,0.07040558,0.02261466,0.2921611,10.05881,31.53
4,-0.05947876,0.1892853,0.9801025,1.0,-0.0249176,0.1931458,0.9808502,-27.91528,1.952698,-24.08733,3.836502,0.375899,0.4448538,1.0,-0.06079102,0.1891327,0.9800568,28.06328,5.933624,-23.7906,3.78772,0.6640276,0.3102797,0.05757666,1.199586,-0.2995601,-0.05835689,0.07122058,0.02239483,0.2921611,10.05881,31.53
4,-0.05947876,0.1892853,0.9801025,1.0,-0.0249176,0.1931458,0.9808502,-27.91528,1.952698,-24.08733,3.836502,0.375899,0.4448538,1.0,-0.06079102,0.1891327,0.9800568,28.06328,5.933624,-23.7906,3.78772,0.6640276,0.3102797,0.05757666,1.199586,-0.2995601,-0.05835689,0.07122058,0.02239483,0.2921611,10.05881,31.53
4,-0.06626892,0.1944733,0.978653,1.0,-0.02671814,0.1959229,0.9802399,-27.92094,1.876862,-23.89594,3.790314,0.3765369,0.4452167,1.0,-0.06626892,0.1944733,0.978653,28.05655,5.899918,-23.81175,3.764984,0.6652414,0.3106277,0.05774677,1.199693,-0.2995596,-0.05954767,0.07176873,0.02257311,0.2921611,-4.187759,31.53
4,-0.06640625,0.1969604,0.9781494,1.0,-0.02740479,0.1965332,0.9801025,-27.91467,1.830933,-23.76627,3.794342,0.3765369,0.4455318,1.0,-0.06640625,0.1969604,0.9781494,28.0575,5.887238,-23.81233,3.766159,0.6652414,0.3106417,0.05792725,1.199915,-0.2995331,-0.06183147,0.07286708,0.02317215,0.2921611,-4.187759,31.53
4,-0.06640625,0.1969604,0.9781494,1.0,-0.02740479,0.1965332,0.9801025,-27.91467,1.830933,-23.76627,3.794342,0.3765369,0.4455318,1.0,-0.06640625,0.1969604,0.9781494,28.0575,5.887238,-23.81233,3.766159,0.6652414,0.3106417,0.05792725,1.199915,-0.2995331,-0.06183147,0.07286708,0.02317215,0.2921611,-4.187759,31.53
4,-0.06552124,0.1950531,0.9785919,1.0,-0.02688599,0.1956787,0.9802856,-27.90677,1.795303,-23.66228,3.796921,0.3762673,0.4459475,1.0,-0.06556702,0.1950531,0.9785919,28.05922,5.880081,-23.81525,3.766083,0.6650288,0.3112313,0.05798483,1.200079,-0.2995398,-0.06255314,0.07363239,0.02329465,0.2921611,-4.187759,31.53
4,-0.06552124,0.1950531,0.9785919,1.0,-0.02688599,0.1956787,0.9802856,-27.90677,1.795303,-23.66228,3.796921,0.3762673,0.4459475,1.0,-0.06556702,0.1950531,0.9785919,28.05922,5.880081,-23.81525,3.766083,0.6650288,0.3112313,0.05798483,1.200079,-0.2995398,-0.06255314,0.07363239,0.02329465,0.2921611,-4.187759,31.53
4,-0.0657196,0.1929016,0.9790039,1.0,-0.02952576,0.1945801,0.9804382,-27.88963,1.769897,-23.60045,3.792389,0.3761893,0.44643,1.0,-0.06816101,0.1927643,0.9788666,28.0685,5.871826,-23.81303,3.761459,0.665135,0.3118758,0.05817711,1.200333,-0.2996681,-0.06388874,0.07507206,0.02339264,0.2921611,-4.187759,31.53
4,-0.0657196,0.1929016,0.9790039,1.0,-0.02952576,0.1945801,0.9804382,-27.88963,1.769897,-23.60045,3.792389,0.3761893,0.44643,1.0,-0.06816101,0.1927643,0.9788666,28.0685,5.871826,-23.81303,3.761459,0.665135,0.3118758,0.0582732,1.200421,-0.2996976,-0.06457623,0.07593029,0.02343496,0.2921611,-4.187759,31.53
4,-0.0657196,0.1929016,0.9790039,1.0,-0.02952576,0.1945801,0.9804382,-27.88963,1.769897,-23.60045,3.792389,0.3761893,0.44643,1.0,-0.06816101,0.1927643,0.9788666,28.0685,5.871826,-23.81303,3.761459,0.665135,0.3118758,0.0586307,1.200688,-0.2999457,-0.06576838,0.07839176,0.02428739,0.2921611,-4.187759,31.53
4,-0.0657196,0.1929016,0.9790039,1.0,-0.02952576,0.1945801,0.9804382,-27.88963,1.769897,-23.60045,3.792389,0.3761893,0.44643,1.0,-0.06816101,0.1927643,0.9788666,28.0685,5.871826,-23.81303,3.761459,0.665135,0.3118758,0.0586307,1.200688,-0.2999457,-0.06576838,0.07839176,0.02428739,0.2921611,-4.187759,31.53
4,-0.0657196,0.1929016,0.9790039,1.0,-0.02952576,0.1945801,0.9804382,-27.88963,1.769897,-23.60045,3.792389,0.3761893,0.44643,1.0,-0.06816101,0.1927643,0.9788666,28.0685,5.871826,-23.81303,3.761459,0.665135,0.3118758,0.0586307,1.200688,-0.2999457,-0.06576838,0.07839176,0.02428739,0.2921611,-4.187759,31.53
4,-0.06582642,0.1898041,0.979599,1.0,-0.03106689,0.1933594,0.9806213,-27.88353,1.757065,-23.56859,3.792969,0.3762673,0.4467749,1.0,-0.06948853,0.1894226,0.9794312,28.07234,5.869324,-23.81233,3.761398,0.6652135,0.3125203,0.05869472,1.200716,-0.3000841,-0.0660353,0.07906925,0.02479771,0.2921611,-4.187759,31.53
4,-0.06761169,0.1818542,0.9809875,1.0,-0.03941345,0.1951904,0.9799652,-27.80191,1.561401,-23.41374,3.65654,0.3751113,0.4513306,1.0,-0.07609558,0.1777954,0.9811096,28.13985,5.737427,-23.91083,3.749481,0.6640682,0.3196797,0.05879903,1.200825,-0.300317,-0.06679355,0.0801949,0.02643492,0.2921611,-4.187759,31.53
4,-0.06761169,0.1818542,0.9809875,1.0,-0.03941345,0.1951904,0.9799652,-27.80191,1.561401,-23.41374,3.65654,0.3751113,0.4513306,1.0,-0.07609558,0.1777954,0.9811096,28.13985,5.737427,-23.91083,3.749481,0.6640682,0.3196797,0.05879903,1.200825,-0.300317,-0.06679355,0.0801949,0.02643492,0.2921611,-4.187759,31.53
4,-0.01239014,0.2318726,0.9726563,1.0,0.02207947,0.178299,0.9837189,-27.02861,2.448303,-25.58273,3.613388,0.3376234,0.4430131,1.0,-0.01239014,0.2318726,0.9726563,28.85873,5.470322,-22.48972,3.748398,0.6275485,0.3093429,0.05886197,1.2009,-0.3004112,-0.06726374,0.08063962,0.02719293,0.2921611,-4.187759,31.53
4,0.004211426,0.2286377,0.9734955,1.0,0.0388031,0.1786957,0.9831238,-26.86215,2.38269,-25.28912,3.685822,0.3295827,0.4426159,1.0,0.004211426,0.2286377,0.9734955,28.97037,5.524124,-22.5531,3.723801,0.6210316,0.308831,0.05888748,1.201045,-0.3007994,-0.06805133,0.08141441,0.02909015,0.2921611,-4.187759,31.53
4,0.004211426,0.2286377,0.9734955,1.0,0.0388031,0.1786957,0.9831238,-26.86215,2.38269,-25.28912,3.685822,0.3295827,0.4426159,1.0,0.004211426,0.2286377,0.9734955,28.97037,5.524124,-22.5531,3.723801,0.6210316,0.308831,0.05888748,1.201045,-0.3007994,-0.06805133,0.08141441,0.02909015,0.2921611,-4.187759,31.53
4,0.006561279,0.2324066,0.9725952,1.0,0.04515076,0.1746979,0.9835815,-26.87656,2.42482,-25.41196,3.612762,0.3288598,0.4428363,1.0,0.006546021,0.2324219,0.97258,28.9801,5.546539,-22.61472,3.721512,0.6204267,0.3078771,0.05888677,1.201121,-0.3009641,-0.06860634,0.08168045,0.02997715,0.2921611,-4.187759,31.53
4,0.006240845,0.2196655,0.9755402,1.0,0.04275513,0.1748505,0.9836578,-26.88657,2.491409,-25.5006,3.487595,0.3295153,0.4412423,1.0,0.003936768,0.2224579,0.9749298,28.99078,5.560532,-22.56242,3.693985,0.6204305,0.3086392,0.05887806,1.201342,-0.3013195,-0.06992349,0.08156791,0.03252733,0.2883169,-15.2657,31.53
4,0.006240845,0.2196655,0.9755402,1.0,0.04275513,0.1748505,0.9836578,-26.88657,2.491409,-25.5006,3.487595,0.3295153,0.4412423,1.0,0.003936768,0.2224579,0.9749298,28.99078,5.560532,-22.56242,3.693985,0.6204305,0.3086392,0.05887806,1.201342,-0.3013195,-0.06992349,0.08156791,0.03252733,0.2883169,-21.2269,31.53
4,0.03594971,0.1840057,0.982254,1.0,0.04548645,0.172348,0.9839783,-26.89008,2.500824,-25.44078,3.625839,0.3292166,0.4409887,1.0,0.002716064,0.2241821,0.9745331,28.99228,5.56282,-22.55777,3.698502,0.6205829,0.3082581,0.05882347,1.201454,-0.3015199,-0.07067523,0.08133291,0.03382868,0.2883169,-57.86386,31.53
4,0.01454163,0.2043152,0.9787903,1.0,0.04161072,0.1646729,0.9854584,-26.92363,2.54541,-25.39928,3.477509,0.3310715,0.4403014,1.0,0.002212524,0.2221985,0.9749908,28.98866,5.574387,-22.51491,3.682266,0.6207355,0.3078771,0.05874252,1.201818,-0.3018837,-0.07246649,0.08002386,0.03651005,0.2883169,-57.86386,31.53
4,0.01454163,0.2043152,0.9787903,1.0,0.04161072,0.1646729,0.9854584,-26.92363,2.54541,-25.39928,3.477509,0.3310715,0.4403014,1.0,0.002212524,0.2221985,0.9749908,28.98866,5.574387,-22.51491,3.682266,0.6207355,0.3078771,0.05874252,1.201818,-0.3018837,-0.07246649,0.08002386,0.03651005,0.2883169,-57.86386,31.53
4,0.01707458,0.1943359,0.9807739,1.0,0.03605652,0.162384,0.9860535,-26.94919,2.59436,-25.45424,3.62764,0.3327762,0.4397008,1.0,0.0007171631,0.2216339,0.9751282,28.98718,5.577316,-22.51468,3.682068,0.6210316,0.3078771,0.05868924,1.202045,-0.3020728,-0.07358876,0.07914384,0.03773276,0.2883169,-57.86386,31.53
4,0.0163269,0.1823883,0.983078,1.0,0.0401001,0.1611938,0.9860992,-26.97791,2.610031,-25.45087,3.491592,0.3330746,0.4392253,1.0,-0.006332397,0.2024078,0.9792633,28.94209,5.694077,-22.55389,3.677353,0.6237398,0.3074554,0.05843723,1.202552,-0.3025275,-0.07635174,0.0772491,0.03977039,0.2883169,-57.86386,31.53
4,0.0163269,0.1823883,0.983078,1.0,0.0401001,0.1611938,0.9860992,-26.97791,2.610031,-25.45087,3.491592,0.3330746,0.4392253,1.0,-0.006332397,0.2024078,0.9792633,28.94209,5.694077,-22.55389,3.677353,0.6237398,0.3074554,0.05843723,1.202552,-0.3025275,-0.07635174,0.0772491,0.03977039,0.2883169,-57.86386,31.53
4,-0.003265381,0.193222,0.9811401,1.0,0.02557373,0.1538239,0.9877625,-27.0569,2.556244,-25.1496,3.409851,0.3384785,0.4396462,1.0,-0.01434326,0.2082214,0.9779663,28.84604,5.742523,-22.60745,3.583771,0.6283205,0.305216,0.05832553,1.202895,-0.302691,-0.07819059,0.07620923,0.04046994,0.2883169,-57.86386,31.53
4,-0.00994873,0.1967163,0.9804077,1.0,0.02359009,0.1523132,0.9880371,-27.08537,2.540894,-25.0614,3.412201,0.339848,0.4396727,1.0,-0.01551819,0.2040253,0.9788361,28.81648,5.717407,-22.44075,3.593338,0.6293137,0.3054464,0.05832553,1.202895,-0.302691,-0.07819059,0.07620923,0.04046994,0.2883169,-57.86386,31.53
4,-0.0223999,0.1643219,0.986145,1.0,0.02572632,0.1467896,0.9888306,-27.16573,2.521088,-24.94048,3.592712,0.3422407,0.440425,1.0,-0.02453613,0.1651001,0.9859619,28.77284,5.9086,-22.58653,3.633606,0.6323479,0.3067686,0.05810761,1.203843,-0.3030832,-0.08337849,0.074472,0.04110182,0.2883169,-57.86386,31.53
4,-0.0223999,0.1643219,0.986145,1.0,0.02572632,0.1467896,0.9888306,-27.16573,2.521088,-24.94048,3.592712,0.3422407,0.440425,1.0,-0.02453613,0.1651001,0.9859619,28.77284,5.9086,-22.58653,3.633606,0.6323479,0.3067686,0.05810761,1.203843,-0.3030832,-0.08337849,0.074472,0.04110182,0.2883169,-57.86386,31.53
4,-0.02519226,0.1642914,0.986084,1.0,0.02114868,0.150116,0.9884338,-27.20792,2.413239,-24.68353,3.473572,0.3446633,0.4411633,1.0,-0.02584839,0.1644897,0.9860382,28.70886,5.908295,-22.53572,3.544144,0.6346492,0.3063214,0.05785406,1.204839,-0.3035698,-0.08977564,0.07307323,0.03983665,0.2883169,-57.86386,31.51
4,-0.02519226,0.1642914,0.986084,1.0,0.02114868,0.150116,0.9884338,-27.20792,2.413239,-24.68353,3.473572,0.3446633,0.4411633,1.0,-0.02584839,0.1644897,0.9860382,28.70886,5.908295,-22.53572,3.544144,0.6346492,0.3063214,0.05785406,1.204839,-0.3035698,-0.08977564,0.07307323,0.03983665,0.2883169,-57.86386,31.51
4,-0.02931213,0.1545258,0.9875488,1.0,0.01620483,0.145752,0.9891815,-27.25937,2.327347,-24.4778,3.519821,0.3473698,0.4430228,1.0,-0.02972412,0.1546021,0.9875183,28.69179,5.890732,-22.52916,3.568115,0.63581,0.3085253,0.05760849,1.205906,-0.3040998,-0.09642434,0.07213612,0.03827347,0.2883169,-57.86386,31.51
4,-0.03405762,0.1540375,0.9874725,1.0,0.02726746,0.1343384,0.9905548,-27.32137,2.279068,-24.37679,3.615921,0.3476485,0.4457169,1.0,-0.03442383,0.1541595,0.987442,28.63995,5.736038,-22.30997,3.573975,0.6379743,0.312085,0.05734456,1.206851,-0.3048385,-0.1028584,0.07057671,0.03748692,0.2883169,25.61284,31.51
4,-0.03405762,0.1540375,0.9874725,1.0,0.02726746,0.1343384,0.9905548,-27.32137,2.279068,-24.37679,3.615921,0.3476485,0.4457169,1.0,-0.03442383,0.1541595,0.987442,28.63995,5.736038,-22.30997,3.573975,0.6379743,0.312085,0.05734456,1.206851,-0.3048385,-0.1028584,0.07057671,0.03748692,0.2883169,25.61284,31.51
4,-0.03405762,0.1540375,0.9874725,1.0,0.02726746,0.1343384,0.9905548,-27.32137,2.279068,-24.37679,3.615921,0.3476485,0.4457169,1.0,-0.03442383,0.1541595,0.987442,28.63995,5.736038,-22.30997,3.573975,0.6379743,0.312085,0.05709064,1.207841,-0.3057077,-0.1084417,0.06855811,0.03733636,0.2883169,25.61284,31.51
4,-0.03405762,0.1540375,0.9874725,1.0,0.02726746,0.1343384,0.9905548,-27.32137,2.279068,-24.37679,3.615921,0.3476485,0.4457169,1.0,-0.03442383,0.1541595,0.987442,28.63995,5.736038,-22.30997,3.573975,0.6379743,0.312085,0.05709064,1.207841,-0.3057077,-0.1084417,0.06855811,0.03733636,0.2883169,25.61284,31.51
4,-0.03405762,0.1540375,0.9874725,1.0,0.02726746,0.1343384,0.9905548,-27.32137,2.279068,-24.37679,3.615921,0.3476485,0.4457169,1.0,-0.03442383,0.1541595,0.987442,28.63995,5.736038,-22.30997,3.573975,0.6379743,0.312085,0.05671012,1.208615,-0.3067118,-0.1129598,0.06686657,0.03718379,0.2883169,25.61284,31.51
4,-0.03955078,0.1352692,0.9900055,1.0,0.01753235,0.1242981,0.9920807,-27.3327,2.243729,-24.40158,3.497971,0.3496181,0.4486059,1.0,-0.04112244,0.1355591,0.9899139,28.63367,5.727478,-22.56514,3.51355,0.6395012,0.3173424,0.0564307,1.2092,-0.3076952,-0.116104,0.0655579,0.03740992,0.2883169,25.61284,31.51
4,-0.03955078,0.1352692,0.9900055,1.0,0.01753235,0.1242981,0.9920807,-27.3327,2.243729,-24.40158,3.497971,0.3496181,0.4486059,1.0,-0.04112244,0.1355591,0.9899139,28.63367,5.727478,-22.56514,3.51355,0.6395012,0.3173424,0.0564307,1.2092,-0.3076952,-0.116104,0.0655579,0.03740992,0.2883169,25.61284,31.51
4,0.007125854,0.09188843,0.9957428,1.0,0.007598877,0.09176636,0.9957428,-27.45927,1.745377,-24.22577,3.54335,0.3554489,0.4686815,1.0,-0.0458374,0.1046143,0.993454,28.5574,5.370773,-23.07356,3.617447,0.6432704,0.3379973,0.05604553,1.209477,-0.3086792,-0.1172266,0.06449946,0.03730222,0.2883169,25.61284,31.51
4,0.007125854,0.09188843,0.9957428,1.0,0.007598877,0.09176636,0.9957428,-27.45927,1.745377,-24.22577,3.54335,0.3554489,0.4686815,1.0,-0.0458374,0.1046143,0.993454,28.5574,5.370773,-23.07356,3.617447,0.6432704,0.3379973,0.05604553,1.209477,-0.3086792,-0.1172266,0.06449946,0.03730222,0.2883169,25.61284,31.51
4,0.003967285,0.08345032,0.9964905,1.0,0.004669189,0.08323669,0.9965057,-27.49211,1.522125,-24.56137,3.504303,0.3566424,0.4801743,1.0,-0.05252075,0.1007843,0.993515,28.53085,5.033844,-22.98305,3.321213,0.6449861,0.3488247,0.0558033,1.209457,-0.309685,-0.1168548,0.06364173,0.0363538,0.2883169,25.61284,31.51
4,0.003967285,0.08345032,0.9964905,1.0,0.004669189,0.08323669,0.9965057,-27.49211,1.522125,-24.56137,3.504303,0.3566424,0.4801743,1.0,-0.05252075,0.1007843,0.993515,28.53085,5.033844,-22.98305,3.321213,0.6449861,0.3488247,0.0558033,1.209457,-0.309685,-0.1168548,0.06364173,0.0363538,0.2883169,25.61284,31.51
5,0.0009002686,0.08273315,0.9965668,1.0,0.003463745,0.08157349,0.9966583,-27.50006,1.41983,-24.50992,3.409821,0.3571397,0.483249,1.0,-0.06674194,0.1130524,0.991333,28.60973,5.077682,-23.64775,3.361694,0.6456239,0.3505718,0.05562389,1.209236,-0.3107091,-0.1160798,0.06331296,0.03569383,0.2883169,25.61284,31.51
5,0.0009002686,0.08273315,0.9965668,1.0,0.003463745,0.08157349,0.9966583,-27.50006,1.41983,-24.50992,3.409821,0.3571397,0.483249,1.0,-0.06674194,0.1130524,0.991333,28.60973,5.077682,-23.64775,3.361694,0.6456239,0.3505718,0.05562389,1.209236,-0.3107091,-0.1160798,0.06331296,0.03569383,0.2883169,25.61284,31.51
5,0.0009002686,0.08273315,0.9965668,1.0,0.003463745,0.08157349,0.9966583,-27.50006,1.41983,-24.50992,3.409821,0.3571397,0.483249,1.0,-0.06674194,0.1130524,0.991333,28.60973,5.077682,-23.64775,3.361694,0.6456239,0.3505718,0.05539751,1.208773,-0.3116355,-0.1144639,0.06307257,0.03489824,0.2883169,39.92265,31.51
5,0.0009002686,0.08273315,0.9965668,1.0,0.003463745,0.08157349,0.9966583,-27.50006,1.41983,-24.50992,3.409821,0.3571397,0.483249,1.0,-0.06674194,0.1130524,0.991333,28.60973,5.077682,-23.64775,3.361694,0.6456239,0.3505718,0.05539751,1.208773,-0.3116355,-0.1144639,0.06307257,0.03489824,0.2883169,26.77914,31.51
5,0.0009002686,0.08273315,0.9965668,1.0,0.003463745,0.08157349,0.9966583,-27.50006,1.41983,-24.50992,3.409821,0.3571397,0.483249,1.0,-0.06674194,0.1130524,0.991333,28.60973,5.077682,-23.64775,3.361694,0.6456239,0.3505718,0.05508089,1.208096,-0.3123599,-0.1115029,0.06300733,0.03425698,0.2883169,26.77914,31.51
5,0.0009002686,0.08273315,0.9965668,1.0,0.003463745,0.08157349,0.9966583,-27.50006,1.41983,-24.50992,3.409821,0.3571397,0.483249,1.0,-0.06674194,0.1130524,0.991333,28.60973,5.077682,-23.64775,3.361694,0.6456239,0.3505718,0.05508089,1.208096,-0.3123599,-0.1115029,0.06300733,0.03425698,0.2883169,26.77914,31.51
5,-0.00843811,0.07617188,0.9970551,1.0,-0.00819397,0.07611084,0.9970551,-27.65715,1.173538,-24.4278,3.447632,0.3642181,0.4915179,1.0,-0.05900574,0.08886719,0.994278,28.35512,4.697647,-23.1059,3.444046,0.6519246,0.3628629,0.05486548,1.207264,-0.3129585,-0.1076756,0.06277097,0.03455474,0.2883169,26.77914,31.51
5,-0.00843811,0.07617188,0.9970551,1.0,-0.00819397,0.07611084,0.9970551,-27.65715,1.173538,-24.4278,3.447632,0.3642181,0.4915179,1.0,-0.05900574,0.08886719,0.994278,28.35512,4.697647,-23.1059,3.444046,0.6519246,0.3628629,0.05486548,1.207264,-0.3129585,-0.1076756,0.06277097,0.03455474,0.2883169,26.77914,31.51
5,-0.009490967,0.07627869,0.9970398,1.0,-0.009078979,0.07615662,0.9970398,-27.81723,1.493073,-24.7708,3.527496,0.3693733,0.4842231,1.0,-0.06259155,0.09289551,0.9936981,28.21512,4.804642,-22.88373,3.50209,0.6568961,0.3570191,0.05467713,1.206321,-0.3133953,-0.1031361,0.06230479,0.03439503,0.2883169,26.77914,31.51
5,-0.009490967,0.07627869,0.9970398,1.0,-0.009078979,0.07615662,0.9970398,-27.81723,1.493073,-24.7708,3.527496,0.3693733,0.4842231,1.0,-0.06259155,0.09289551,0.9936981,28.21512,4.804642,-22.88373,3.50209,0.6568961,0.3570191,0.05467713,1.206321,-0.3133953,-0.1031361,0.06230479,0.03439503,0.2883169,26.77914,31.51
5,-0.009490967,0.07627869,0.9970398,1.0,-0.009078979,0.07615662,0.9970398,-27.81723,1.493073,-24.7708,3.527496,0.3693733,0.4842231,1.0,-0.06259155,0.09289551,0.9936981,28.21512,4.804642,-22.88373,3.50209,0.6568961,0.3570191,0.05467713,1.206321,-0.3133953,-0.1031361,0.06230479,0.03439503,0.2883169,26.77914,31.51
5,-0.005905151,0.06419373,0.9979095,1.0,0.0446167,0.07777405,0.9959564,-27.20767,1.053574,-23.6954,3.586441,0.3414909,0.488749,1.0,-0.008804321,0.06340027,0.9979401,28.77307,4.855286,-23.10265,3.48288,0.6296921,0.3619206,0.05432653,1.205274,-0.3136482,-0.09749644,0.06161262,0.03365313,0.2883169,26.77914,31.51
5,0.007247925,0.04803467,0.9988098,1.0,0.065979,0.05395508,0.9963531,-27.05814,1.084717,-23.83708,3.570084,0.332936,0.4928387,1.0,0.007232666,0.04803467,0.9988098,28.90698,4.848373,-23.14288,3.405518,0.6226301,0.364941,0.05428171,1.204468,-0.3137081,-0.09266021,0.06107091,0.03336586,0.2883169,26.77914,31.51
5,0.007247925,0.04803467,0.9988098,1.0,0.065979,0.05395508,0.9963531,-27.05814,1.084717,-23.83708,3.570084,0.332936,0.4928387,1.0,0.007232666,0.04803467,0.9988098,28.90698,4.848373,-23.14288,3.405518,0.6226301,0.364941,0.05428171,1.204468,-0.3137081,-0.09266021,0.06107091,0.03336586,0.2883169,26.77914,31.51
5,0.006393433,0.05621338,0.9983978,1.0,0.06700134,0.06005859,0.9959412,-27.08092,1.204193,-23.9622,3.535126,0.3334058,0.4890303,1.0,0.006332397,0.05619812,0.9983978,28.90697,4.92363,-23.15578,3.430099,0.6228303,0.3612196,0.05418181,1.203962,-0.3136196,-0.0892869,0.06037139,0.03260169,0.2883169,26.77914,31.51
5,0.006393433,0.05621338,0.9983978,1.0,0.06700134,0.06005859,0.9959412,-27.08092,1.204193,-23.9622,3.535126,0.3334058,0.4890303,1.0,0.006332397,0.05619812,0.9983978,28.90697,4.92363,-23.15578,3.430099,0.6228303,0.3612196,0.05418181,1.203962,-0.3136196,-0.0892869,0.06037139,0.03260169,0.2883169,26.77914,31.51
5,0.03755188,0.06936646,0.9968719,1.0,0.05906677,0.06529236,0.996109,-27.07591,1.220428,-23.94989,3.545105,0.3345764,0.4875354,1.0,-0.005554199,0.07740784,0.9969788,28.93178,4.926163,-22.90546,3.495026,0.623753,0.3557633,0.05403602,1.203675,-0.313369,-0.08738393,0.05949222,0.03143068,0.2883169,26.77914,31.51
5,0.03755188,0.06936646,0.9968719,1.0,0.05906677,0.06529236,0.996109,-27.07591,1.220428,-23.94989,3.545105,0.3345764,0.4875354,1.0,-0.005554199,0.07740784,0.9969788,28.93178,4.926163,-22.90546,3.495026,0.623753,0.3557633,0.05403602,1.203675,-0.313369,-0.08738393,0.05949222,0.03143068,0.2883169,26.77914,31.51
5,0.04801941,0.07092285,0.9963226,1.0,0.05758667,0.06983948,0.9958801,-27.06927,1.230316,-23.97766,3.539032,0.3345764,0.4867097,1.0,-0.003601074,0.0765686,0.9970551,28.93747,4.968781,-22.95764,3.527893,0.6233136,0.3549276,0.05386591,1.203647,-0.313015,-0.08707482,0.05861855,0.03045135,0.2883169,26.77914,31.51
5,0.04801941,0.07092285,0.9963226,1.0,0.05758667,0.06983948,0.9958801,-27.06927,1.230316,-23.97766,3.539032,0.3345764,0.4867097,1.0,-0.003601074,0.0765686,0.9970551,28.93747,4.968781,-22.95764,3.527893,0.6233136,0.3549276,0.05386591,1.203647,-0.313015,-0.08707482,0.05861855,0.03045135,0.2883169,26.77914,31.51
5,0.04780579,0.074646,0.996048,1.0,0.05729675,0.0737915,0.9956207,-27.06856,1.234955,-23.98447,3.54364,0.334597,0.485968,1.0,-0.004837036,0.07929993,0.9968262,28.93446,4.97258,-22.94505,3.552429,0.6236187,0.354273,0.05355132,1.203739,-0.3126705,-0.08764692,0.05755185,0.02991022,0.2883169,-7.47641,31.51
5,0.04780579,0.074646,0.996048,1.0,0.05729675,0.0737915,0.9956207,-27.06856,1.234955,-23.98447,3.54364,0.334597,0.485968,1.0,-0.004837036,0.07929993,0.9968262,28.93446,4.97258,-22.94505,3.552429,0.6236187,0.354273,0.05355132,1.203739,-0.3126705,-0.08764692,0.05755185,0.02991022,0.2883169,-7.47641,31.51
5,0.04780579,0.074646,0.996048,1.0,0.05729675,0.0737915,0.9956207,-27.06856,1.234955,-23.98447,3.54364,0.334597,0.485968,1.0,-0.004837036,0.07929993,0.9968262,28.93446,4.97258,-22.94505,3.552429,0.6236187,0.354273,0.05325997,1.203774,-0.312228,-0.08874083,0.05616004,0.02973458,0.2883169,-7.47641,31.51
5,0.04780579,0.074646,0.996048,1.0,0.05729675,0.0737915,0.9956207,-27.06856,1.234955,-23.98447,3.54364,0.334597,0.485968,1.0,-0.004837036,0.07929993,0.9968262,28.93446,4.97258,-22.94505,3.552429,0.6236187,0.354273,0.05325997,1.203774,-0.312228,-0.08874083,0.05616004,0.02973458,0.2883169,-7.47641,31.51
5,0.04780579,0.074646,0.996048,1.0,0.05729675,0.0737915,0.9956207,-27.06856,1.234955,-23.98447,3.54364,0.334597,0.485968,1.0,-0.004837036,0.07929993,0.9968262,28.93446,4.97258,-22.94505,3.552429,0.6236187,0.354273,0.05325997,1.203774,-0.312228,-0.08874083,0.05616004,0.02973458,0.2883169,-7.47641,31.51
5,0.04138184,0.07824707,0.9960632,1.0,0.05592346,0.07672119,0.9954681,-27.0721,1.250412,-24.0099,3.544159,0.3349148,0.4852114,1.0,-0.007263184,0.08320618,0.9964905,28.92668,4.983521,-22.9485,3.579712,0.6242952,0.3533137,0.0526588,1.203884,-0.3119843,-0.08969162,0.05443912,0.02964098,0.2883169,-7.47641,31.51
5,0.008499146,0.09266663,0.9956512,1.0,0.03265381,0.08990479,0.9954071,-27.1884,1.332809,-24.04282,3.66037,0.3425395,0.4808092,1.0,-0.01509094,0.0953064,0.9953308,28.84276,5.077103,-23.02632,3.661163,0.6285266,0.3488833,0.05251956,1.204025,-0.3118212,-0.09000515,0.05356536,0.02954505,0.2883169,-7.47641,31.51
5,0.008499146,0.09266663,0.9956512,1.0,0.03265381,0.08990479,0.9954071,-27.1884,1.332809,-24.04282,3.66037,0.3425395,0.4808092,1.0,-0.01509094,0.0953064,0.9953308,28.84276,5.077103,-23.02632,3.661163,0.6285266,0.3488833,0.05251956,1.204025,-0.3118212,-0.09000515,0.05356536,0.02954505,0.2883169,-7.47641,31.51
5,0.01092529,0.08900452,0.9959564,1.0,0.0344696,0.08898926,0.9954224,-27.21136,1.351685,-24.07289,3.835571,0.3429486,0.4807695,1.0,-0.01400757,0.08895874,0.9959259,28.83148,5.102295,-23.05194,3.671707,0.6287479,0.3493061,0.0520246,1.20401,-0.3115876,-0.09034317,0.05171159,0.02946753,0.2883169,-7.47641,31.51
5,0.01092529,0.08900452,0.9959564,1.0,0.0344696,0.08898926,0.9954224,-27.21136,1.351685,-24.07289,3.835571,0.3429486,0.4807695,1.0,-0.01400757,0.08895874,0.9959259,28.83148,5.102295,-23.05194,3.671707,0.6287479,0.3493061,0.0520246,1.20401,-0.3115876,-0.09034317,0.05171159,0.02946753,0.2883169,-7.47641,31.51
5,0.008865356,0.08726501,0.9961395,1.0,0.03178406,0.08630371,0.9957581,-27.22696,1.36824,-24.11145,3.814087,0.3438641,0.4809898,1.0,-0.0128479,0.08811951,0.9960175,28.81908,5.096283,-23.03766,3.671631,0.6289459,0.3495256,0.05178189,1.203911,-0.3115009,-0.09033287,0.05071107,0.02972055,0.2883169,-7.47641,31.51
5,0.004730225,0.08760071,0.9961395,1.0,0.02792358,0.08534241,0.9959564,-27.23962,1.357986,-24.07289,3.799469,0.3449507,0.4811381,1.0,-0.01728821,0.08969116,0.9958191,28.80757,5.079758,-23.02632,3.685471,0.6300495,0.349734,0.05137682,1.203835,-0.3111991,-0.08989938,0.0485246,0.02960073,0.2883169,-7.47641,31.51
5,0.004730225,0.08760071,0.9961395,1.0,0.02792358,0.08534241,0.9959564,-27.23962,1.357986,-24.07289,3.799469,0.3449507,0.4811381,1.0,-0.01728821,0.08969116,0.9958191,28.80757,5.079758,-23.02632,3.685471,0.6300495,0.349734,0.05137682,1.203835,-0.3111991,-0.08989938,0.0485246,0.02960073,0.2883169,-7.47641,31.51
5,0.003845215,0.08728027,0.99617,1.0,0.0246582,0.08525085,0.996048,-27.25412,1.349274,-24.05031,3.800476,0.3459849,0.4812423,1.0,-0.01478577,0.08905029,0.9959106,28.79469,5.077103,-23.0229,3.677429,0.6300517,0.3498968,0.05115783,1.20376,-0.3110858,-0.08929308,0.04747704,0.02926634,0.2883169,-7.47641,31.51
5,-0.0008087158,0.08683777,0.9962158,1.0,0.02259827,0.0841217,0.9961853,-27.26289,1.342972,-24.05031,3.807404,0.3466063,0.4816397,1.0,-0.02163696,0.08920288,0.9957733,28.78482,5.065948,-23.01834,3.677063,0.6315077,0.3502126,0.05076659,1.203564,-0.3107934,-0.08793546,0.04578841,0.02917072,0.2883169,-36.93344,31.51
5,-0.0008087158,0.08683777,0.9962158,1.0,0.02259827,0.0841217,0.9961853,-27.26289,1.342972,-24.05031,3.807404,0.3466063,0.4816397,1.0,-0.02163696,0.08920288,0.9957733,28.78482,5.065948,-23.01834,3.677063,0.6315077,0.3502126,0.05076659,1.203564,-0.3107934,-0.08793546,0.04578841,0.02917072,0.2883169,-36.93344,31.51
5,-0.007034302,0.08366394,0.99646,1.0,0.01419067,0.07662964,0.9969482,-27.34024,1.295029,-24.09946,3.819504,0.3504502,0.4848807,1.0,-0.02522278,0.08964539,0.9956512,28.77437,5.061432,-23.01834,3.676468,0.6324468,0.3502828,0.05062425,1.2035,-0.3106006,-0.08717692,0.04485432,0.0293784,0.2883169,-36.93344,31.51
5,-0.01055908,0.08499146,0.9963226,1.0,0.008834839,0.07972717,0.9967651,-27.35516,1.277176,-24.15375,3.854263,0.3517577,0.4854561,1.0,-0.02554321,0.08905029,0.995697,28.67563,4.917191,-23.01964,3.667465,0.635713,0.3551224,0.05011284,1.203032,-0.3103721,-0.0853639,0.04313973,0.02995676,0.2883169,-36.93344,31.51
5,-0.01055908,0.08499146,0.9963226,1.0,0.008834839,0.07972717,0.9967651,-27.35516,1.277176,-24.15375,3.854263,0.3517577,0.4854561,1.0,-0.02554321,0.08905029,0.995697,28.67563,4.917191,-23.01964,3.667465,0.635713,0.3551224,0.05011284,1.203032,-0.3103721,-0.0853639,0.04313973,0.02995676,0.2883169,-36.93344,31.51
5,0.007781982,0.06503296,0.9978485,1.0,0.0345459,0.06689453,0.9971466,-27.15224,1.100342,-24.22263,3.872192,0.3407787,0.4938407,1.0,-0.02275085,0.06285095,0.997757,28.87357,4.772446,-23.2695,3.698181,0.6289158,0.3661527,0.04998267,1.202817,-0.3102499,-0.08390813,0.04215351,0.03031304,0.2883169,-36.93344,31.51
5,0.09947205,0.0005340576,0.9950256,1.0,0.1004791,0.0005950928,0.9949341,-26.43652,0.5712128,-23.93407,3.990768,0.3066887,0.519345,1.0,0.04000854,-0.003204346,0.9991913,29.50427,4.635956,-24.61012,3.643204,0.5988378,0.3922348,0.04981244,1.202554,-0.3100879,-0.0824993,0.04134563,0.03070984,0.2883169,-36.93344,31.51
5,0.1782684,-0.06604004,0.9817505,1.0,0.1782684,-0.06604004,0.9817505,-26.04068,0.3063965,-24.22206,3.946335,0.280007,0.5418293,1.0,0.139801,-0.05085754,0.9888611,29.61661,3.704483,-22.60706,3.600555,0.5768227,0.4146267,0.04954982,1.201984,-0.3097458,-0.07909299,0.03964617,0.03074258,0.2883169,-36.93344,31.51
5,0.1782684,-0.06604004,0.9817505,1.0,0.1782684,-0.06604004,0.9817505,-26.04068,0.3063965,-24.22206,3.946335,0.280007,0.5418293,1.0,0.139801,-0.05085754,0.9888611,29.61661,3.704483,-22.60706,3.600555,0.5768227,0.4146267,0.04954982,1.201984,-0.3097458,-0.07909299,0.03964617,0.03074258,0.2883169,-36.93344,31.51
5,0.1761322,-0.08215332,0.9809265,1.0,0.1761322,-0.08215332,0.9809265,-26.03529,0.1513519,-24.26149,3.913528,0.2799922,0.5499209,1.0,0.132309,-0.08564758,0.9874878,29.68665,3.698151,-23.21201,3.646027,0.5762334,0.4255834,0.0494169,1.201689,-0.3095969,-0.07730926,0.03901307,0.03064013,0.2883169,-36.93344,31.51
5,0.1792297,-0.08699036,0.97995,1.0,0.179245,-0.08699036,0.9799347,-26.08835,0.1335754,-24.25415,3.95047,0.2812409,0.5513066,1.0,0.1317139,-0.07984924,0.9880524,29.7195,3.685638,-23.20007,3.628967,0.5752285,0.424904,0.04890895,1.200851,-0.309424,-0.07412834,0.03756355,0.03020346,0.2883169,-36.93344,31.51
5,0.1792297,-0.08699036,0.97995,1.0,0.179245,-0.08699036,0.9799347,-26.08835,0.1335754,-24.25415,3.95047,0.2812409,0.5513066,1.0,0.1317139,-0.07984924,0.9880524,29.7195,3.685638,-23.20007,3.628967,0.5752285,0.424904,0.04890895,1.200851,-0.309424,-0.07412834,0.03756355,0.03020346,0.2883169,-36.93344,31.51
5,0.1732941,-0.08537292,0.9811554,1.0,0.1733093,-0.08537292,0.9811554,-26.11353,0.1457062,-24.23,3.838715,0.2831088,0.550321,1.0,0.1316528,-0.07785034,0.9882202,29.71982,3.685638,-23.17366,3.676544,0.5752285,0.4243649,0.04879749,1.200637,-0.3092651,-0.07276906,0.03670157,0.02983414,0.2883169,-36.93344,31.51
5,0.1739655,-0.08508301,0.9810638,0.9937382,0.1739807,-0.08508301,0.9810638,-26.12608,0.1533813,-24.21973,3.899124,0.2834414,0.5499641,0.9897058,0.125351,-0.07275391,0.9894257,29.71509,3.69783,-23.04585,3.640182,0.5763052,0.4220285,0.04857409,1.200298,-0.3088706,-0.07079405,0.03529162,0.02893916,0.2883169,-36.93344,31.51
5,0.1739655,-0.08508301,0.9810638,0.9937382,0.1739807,-0.08508301,0.9810638,-26.12608,0.1533813,-24.21973,3.899124,0.2834414,0.5499641,0.9897058,0.125351,-0.07275391,0.9894257,29.71509,3.69783,-23.04585,3.640182,0.5763052,0.4220285,0.04857409,1.200298,-0.3088706,-0.07079405,0.03529162,0.02893916,0.2883169,-36.93344,31.51
5,0.1591339,-0.08355713,0.9837036,0.9863421,0.1641235,-0.08586121,0.9826813,-26.1745,0.2097778,-24.19379,4.033737,0.2867708,0.548039,0.9869373,0.1232452,-0.06697083,0.9901123,29.69403,3.67337,-22.85445,3.716797,0.5772257,0.4203206,0.04851282,1.200235,-0.308604,-0.07019415,0.03460946,0.028314,0.2883169,-36.93344,31.51
5,0.1496429,-0.1013489,0.9835205,0.9958591,0.1496887,-0.1014404,0.9835052,-26.14845,0.3220978,-24.20306,4.089432,0.2883116,0.5470215,0.9873028,0.1286011,-0.0650177,0.9895477,29.61803,3.515762,-22.11067,3.756882,0.5782702,0.4190835,0.04863846,1.200266,-0.3079244,-0.06901108,0.03311054,0.02678101,0.2883169,24.70026,31.51
5,0.1621094,-0.08992004,0.9826508,0.9958591,0.1621094,-0.0899353,0.9826508,-26.23761,0.2450867,-24.1494,3.966553,0.2892674,0.5471273,0.9873028,0.1287231,-0.06257629,0.9897003,29.59502,3.484024,-21.93591,3.722137,0.5788395,0.4182741,0.04864883,1.200279,-0.3075893,-0.0685995,0.03255984,0.02602504,0.2883169,24.70026,31.51
5,0.1621094,-0.08992004,0.9826508,0.9958591,0.1621094,-0.0899353,0.9826508,-26.23761,0.2450867,-24.1494,3.966553,0.2892674,0.5471273,0.9873028,0.1287231,-0.06257629,0.9897003,29.59502,3.484024,-21.93591,3.722137,0.5788395,0.4182741,0.04864883,1.200279,-0.3075893,-0.0685995,0.03255984,0.02602504,0.2883169,24.70026,31.51
5,0.1451569,-0.06956482,0.9869537,1.0,0.1451569,-0.06956482,0.9869537,-26.26343,0.2208862,-23.9993,4.000565,0.2932007,0.5430688,1.0,0.1268158,-0.06544495,0.9897614,29.58826,3.51683,-22.00328,3.778687,0.5794533,0.4182516,0.04860723,1.200245,-0.3073176,-0.0684205,0.03198592,0.02564959,0.2883169,24.70026,31.51
5,0.1350861,-0.07003784,0.9883423,0.9923015,0.1350861,-0.07003784,0.9883423,-26.27802,0.1959076,-23.86552,3.934586,0.2955522,0.542658,0.9939768,0.1252747,-0.06517029,0.989975,29.58199,3.534286,-22.04115,3.753189,0.5799287,0.4179386,0.04875779,1.200282,-0.3066993,-0.06789952,0.03073385,0.02524555,0.2883169,24.70026,31.51
5,0.1350861,-0.07003784,0.9883423,0.9923015,0.1350861,-0.07003784,0.9883423,-26.27802,0.1959076,-23.86552,3.934586,0.2955522,0.542658,0.9939768,0.1252747,-0.06517029,0.989975,29.58199,3.534286,-22.04115,3.753189,0.5799287,0.4179386,0.04875779,1.200282,-0.3066993,-0.06789952,0.03073385,0.02524555,0.2883169,24.70026,31.51
5,0.1335907,-0.06307983,0.9890137,1.0,0.1343994,-0.06307983,0.9889069,-26.3076,0.1515503,-23.60771,3.94809,0.2970293,0.5406045,1.0,0.1227112,-0.0632019,0.9904175,29.5735,3.534286,-22.04115,3.753448,0.5806198,0.4176006,0.04869115,1.20029,-0.3063878,-0.06772901,0.03022147,0.02519828,0.2883169,24.70026,31.51
5,0.1224518,-0.06358337,0.9904327,1.0,0.1298676,-0.06645203,0.9892883,-26.32515,0.1705322,-23.61539,3.961639,0.298358,0.540617,1.0,0.1209717,-0.06300354,0.9906464,29.57025,3.537643,-22.04019,3.75827,0.5810112,0.4174575,0.04869878,1.200313,-0.3060935,-0.06754108,0.02973383,0.02513374,0.2883169,24.70026,31.51
5,0.1186218,-0.06318665,0.990921,1.0,0.1259918,-0.07369995,0.9892731,-26.37854,0.2866516,-23.84129,3.967529,0.3004469,0.540099,1.0,0.1181335,-0.06246948,0.9910278,29.5629,3.55275,-22.04115,3.777512,0.5817242,0.4168802,0.04883516,1.200307,-0.3054153,-0.06751427,0.02908503,0.02463644,0.2883169,24.70026,31.51
5,0.1186218,-0.06318665,0.990921,1.0,0.1259918,-0.07369995,0.9892731,-26.37854,0.2866516,-23.84129,3.967529,0.3004469,0.540099,1.0,0.1181335,-0.06246948,0.9910278,29.5629,3.55275,-22.04115,3.777512,0.5817242,0.4168802,0.04883516,1.200307,-0.3054153,-0.06751427,0.02908503,0.02463644,0.2883169,24.70026,31.51
5,0.116745,-0.06208801,0.9912109,1.0,0.1282654,-0.06994629,0.9892578,-26.41371,0.3232574,-23.90294,4.056885,0.301154,0.5389112,1.0,0.1152649,-0.06108093,0.9914398,29.5629,3.561752,-22.0455,3.800003,0.5822034,0.4163925,0.0488739,1.200343,-0.3051414,-0.06740139,0.02884271,0.02441772,0.2883169,24.70026,31.51
5,0.117691,-0.06208801,0.9911041,1.0,0.1284027,-0.06904602,0.9893036,-26.41971,0.3227997,-23.89201,4.072968,0.3013435,0.5386899,1.0,0.116272,-0.06117249,0.9913177,29.55556,3.565765,-22.04889,3.813629,0.5822875,0.4163225,0.04893446,1.200383,-0.3048489,-0.06740978,0.02877547,0.02422042,0.2883169,24.70026,31.51
5,0.117691,-0.06208801,0.9911041,1.0,0.1284027,-0.06904602,0.9893036,-26.41971,0.3227997,-23.89201,4.072968,0.3013435,0.5386899,1.0,0.116272,-0.06117249,0.9913177,29.55556,3.565765,-22.04889,3.813629,0.5822875,0.4163225,0.04893446,1.200383,-0.3048489,-0.06740978,0.02877547,0.02422042,0.2883169,24.70026,31.51
5,0.117691,-0.06134033,0.9911499,1.0,0.1296387,-0.06938171,0.9891205,-26.43091,0.3245087,-23.87784,4.071045,0.3015326,0.5385597,1.0,0.1160431,-0.06022644,0.9914093,29.55281,3.5681,-22.0531,3.829224,0.5824242,0.4161357,0.04904473,1.200539,-0.3041505,-0.06768851,0.02900628,0.02395099,0.2883169,24.70026,31.51
5,0.1186371,-0.06814575,0.9905853,1.0,0.1313019,-0.07008362,0.9888458,-26.44174,0.3286133,-23.87784,4.063828,0.3016146,0.5385597,1.0,0.1113281,-0.0670166,0.9915161,29.54498,3.617905,-22.10054,3.840698,0.5835004,0.4160255,0.04904473,1.200539,-0.3041505,-0.06768851,0.02900628,0.02395099,0.2883169,24.70026,31.51
5,0.122345,-0.065979,0.9902802,1.0,0.1318665,-0.07115173,0.9887085,-26.45097,0.3321838,-23.86989,4.071075,0.3018371,0.5385597,1.0,0.1103516,-0.05947876,0.9920959,29.52364,3.619659,-22.11732,3.855362,0.5843706,0.4148647,0.0491327,1.200682,-0.3035908,-0.06800149,0.02940425,0.02373475,0.2883169,24.70026,31.51
5,0.122345,-0.065979,0.9902802,1.0,0.1318665,-0.07115173,0.9887085,-26.45097,0.3321838,-23.86989,4.071075,0.3018371,0.5385597,1.0,0.1103516,-0.05947876,0.9920959,29.52364,3.619659,-22.11732,3.855362,0.5843706,0.4148647,0.0491327,1.200682,-0.3035908,-0.06800149,0.02940425,0.02373475,0.2883169,24.70026,31.51
