Second,eye_comb_direction_x,eye_comb_direction_y,eye_comb_direction_z,eye_r_openness,eye_r_direction_x,eye_r_direction_y,eye_r_direction_z,eye_r_origin_x,eye_r_origin_y,eye_r_origin_z,eye_r_pupil_diameter,eye_r_pupil_position_x,eye_r_pupil_position_y,eye_l_openness,eye_l_direction_x,eye_l_direction_y,eye_l_direction_z,eye_l_origin_x,eye_l_origin_y,eye_l_origin_z,eye_l_pupil_diameter,eye_l_pupil_position_x,eye_l_pupil_position_y,head_position_x,head_position_y,head_position_z,head_rotation_roll,head_rotation_pitch,head_rotation_yaw,EDA,BVP,TMP
0,0.1229095,-0.2431335,0.9621582,1.0,0.08702087,-0.2703247,0.9588165,-26.95543,2.411575,-28.59673,2.484451,0.339238,0.5433981999999999,1.0,0.1472778,-0.2242889,0.9633179,35.97708,1.905762,-29.45386,2.715012,0.3690672,0.5484104000000001,-0.3614895999999999,1.247866,0.1029575,-0.04873465,0.7992604,0.01610681,1.86614,-0.3377308172187108,33.73335777496839
0,0.1229095,-0.2431335,0.9621582,1.0,0.08702087,-0.2703247,0.9588165,-26.95543,2.411575,-28.59673,2.484451,0.339238,0.5433981999999999,1.0,0.1472778,-0.2242889,0.9633179,35.97708,1.905762,-29.45386,2.715012,0.3690672,0.5484104000000001,-0.3614895999999999,1.247866,0.1029575,-0.04873465,0.7992604,0.01610681,1.86614,-0.3377308172187108,33.73335777496839
0,0.1229095,-0.2431335,0.9621582,1.0,0.08702087,-0.2703247,0.9588165,-26.95543,2.411575,-28.59673,2.484451,0.339238,0.5433981999999999,1.0,0.1472778,-0.2242889,0.9633179,35.97708,1.905762,-29.45386,2.715012,0.3690672,0.5484104000000001,-0.3614895999999999,1.247866,0.1029575,-0.04873465,0.7992604,0.01610681,1.86614,-0.3377308172187108,33.73335777496839
0,0.1229095,-0.2431335,0.9621582,1.0,0.08702087,-0.2703247,0.9588165,-26.95543,2.411575,-28.59673,2.484451,0.339238,0.5433981999999999,1.0,0.1472778,-0.2242889,0.9633179,35.97708,1.905762,-29.45386,2.715012,0.3690672,0.5484104000000001,-0.3614895999999999,1.247866,0.1029575,-0.04873465,0.7992604,0.01610681,1.86614,-0.3377308172187108,33.73335777496839
0,0.1188964999999999,-0.2647705,0.9569397,1.0,0.09472656,-0.2837219,0.9542084,-27.025270000000003,2.434418,-28.57576,2.418854,0.3406071,0.54425,1.0,0.1360931,-0.2510833999999999,0.9583435,35.89275,1.926498,-29.3987,2.578842,0.3734586,0.5506786,-0.3615111,1.247927,0.1032177,-0.04843716,0.7991602,0.01646456,1.86614,-0.3377308172187108,33.73335777496839
0,0.1188964999999999,-0.2647705,0.9569397,1.0,0.09472656,-0.2837219,0.9542084,-27.025270000000003,2.434418,-28.57576,2.418854,0.3406071,0.54425,1.0,0.1360931,-0.2510833999999999,0.9583435,35.89275,1.926498,-29.3987,2.578842,0.3734586,0.5506786,-0.3615111,1.247927,0.1032177,-0.04843716,0.7991602,0.01646456,1.86614,-0.3377308172187108,33.73335777496839
0,0.1188964999999999,-0.2647705,0.9569397,1.0,0.09472656,-0.2837219,0.9542084,-27.025270000000003,2.434418,-28.57576,2.418854,0.3406071,0.54425,1.0,0.1360931,-0.2510833999999999,0.9583435,35.89275,1.926498,-29.3987,2.578842,0.3734586,0.5506786,-0.3615111,1.247927,0.1032177,-0.04843716,0.7991602,0.01646456,1.86614,-0.3377308172187108,33.73335777496839
0,-0.06585693,-0.1714935,0.9829712,1.0,-0.09883118,-0.1755676,0.9794769,-27.644070000000003,2.699066,-28.38219,2.43631,0.3864895,0.5195542000000001,1.0,-0.01673889,-0.1651001,0.9861298,34.98795,2.304153,-29.28664,2.527267,0.4236189,0.5263186,-0.3615165999999999,1.247867,0.10335,-0.04806618,0.7992366999999999,0.01656135,1.86614,-0.3377308172187108,33.73335777496839
0,-0.06585693,-0.1714935,0.9829712,1.0,-0.09883118,-0.1755676,0.9794769,-27.644070000000003,2.699066,-28.38219,2.43631,0.3864895,0.5195542000000001,1.0,-0.01673889,-0.1651001,0.9861298,34.98795,2.304153,-29.28664,2.527267,0.4236189,0.5263186,-0.3615165999999999,1.247867,0.10335,-0.04806618,0.7992366999999999,0.01656135,1.86614,-0.3377308172187108,33.73335777496839
0,-0.06585693,-0.1714935,0.9829712,1.0,-0.09883118,-0.1755676,0.9794769,-27.644070000000003,2.699066,-28.38219,2.43631,0.3864895,0.5195542000000001,1.0,-0.01673889,-0.1651001,0.9861298,34.98795,2.304153,-29.28664,2.527267,0.4236189,0.5263186,-0.3615165999999999,1.247867,0.10335,-0.04806618,0.7992366999999999,0.01656135,1.86614,-0.3377308172187108,33.73335777496839
0,-0.07165527,-0.1641846,0.9838104,1.0,-0.09632874,-0.164856,0.9815979,-27.64636,2.693741,-28.37303,2.416504,0.3862679,0.5182808,1.0,-0.02253723,-0.1625824,0.9864197,34.99086,2.303268,-29.28864,2.505646,0.4242566,0.5260653000000001,-0.361546,1.247795,0.1034498,-0.04774651,0.7993916999999999,0.01694712,1.86614,-0.3377308172187108,33.73335777496839
0,-0.07165527,-0.1641846,0.9838104,1.0,-0.09632874,-0.164856,0.9815979,-27.64636,2.693741,-28.37303,2.416504,0.3862679,0.5182808,1.0,-0.02253723,-0.1625824,0.9864197,34.99086,2.303268,-29.28864,2.505646,0.4242566,0.5260653000000001,-0.361546,1.247795,0.1034498,-0.04774651,0.7993916999999999,0.01694712,1.86614,-0.3377308172187108,33.73335777496839
0,-0.07165527,-0.1641846,0.9838104,1.0,-0.09632874,-0.164856,0.9815979,-27.64636,2.693741,-28.37303,2.416504,0.3862679,0.5182808,1.0,-0.02253723,-0.1625824,0.9864197,34.99086,2.303268,-29.28864,2.505646,0.4242566,0.5260653000000001,-0.361546,1.247795,0.1034498,-0.04774651,0.7993916999999999,0.01694712,1.86614,-0.3377308172187108,33.73335777496839
0,-0.07302856,-0.1636963,0.9837952,1.0,-0.09587097,-0.1646576,0.9816742,-27.647340000000003,2.681595,-28.3299,2.417221,0.3862679,0.5182808,1.0,-0.02412415,-0.1613464,0.9865875,34.9991,2.293442,-29.28336,2.4385220000000003,0.4242566,0.5261644,-0.3616548,1.247797,0.1035545,-0.04763527,0.7996863000000001,0.01733227,1.86614,-0.3377308172187108,33.73335777496839
0,-0.07302856,-0.1636963,0.9837952,1.0,-0.09587097,-0.1646576,0.9816742,-27.647340000000003,2.681595,-28.3299,2.417221,0.3862679,0.5182808,1.0,-0.02412415,-0.1613464,0.9865875,34.9991,2.293442,-29.28336,2.4385220000000003,0.4242566,0.5261644,-0.3616548,1.247797,0.1035545,-0.04763527,0.7996863000000001,0.01733227,1.86614,-0.3377308172187108,33.73335777496839
0,-0.07302856,-0.1636963,0.9837952,1.0,-0.09587097,-0.1646576,0.9816742,-27.647340000000003,2.681595,-28.3299,2.417221,0.3862679,0.5182808,1.0,-0.02412415,-0.1613464,0.9865875,34.9991,2.293442,-29.28336,2.4385220000000003,0.4242566,0.5261644,-0.3616548,1.247797,0.1035545,-0.04763527,0.7996863000000001,0.01733227,1.86614,-0.3377308172187108,33.73335777496839
0,-0.04927063,-0.1702271,0.9841614,1.0,-0.09461975,-0.1704102,0.9808044,-27.65132,2.681213,-28.31046,2.388596,0.386239,0.5188444000000001,1.0,-0.02268982,-0.1699523999999999,0.9851837,35.0134,2.2812650000000003,-29.20903,2.43866,0.4236388,0.5270024,-0.3616435999999999,1.247815,0.1036031999999999,-0.04767654,0.7999932,0.01736233,1.86614,-0.3377308172187108,33.73335777496839
0,-0.04927063,-0.1702271,0.9841614,1.0,-0.09461975,-0.1704102,0.9808044,-27.65132,2.681213,-28.31046,2.388596,0.386239,0.5188444000000001,1.0,-0.02268982,-0.1699523999999999,0.9851837,35.0134,2.2812650000000003,-29.20903,2.43866,0.4236388,0.5270024,-0.3616435999999999,1.247815,0.1036031999999999,-0.04767654,0.7999932,0.01736233,1.86614,-0.3377308172187108,33.73335777496839
0,-0.04927063,-0.1702271,0.9841614,1.0,-0.09461975,-0.1704102,0.9808044,-27.65132,2.681213,-28.31046,2.388596,0.386239,0.5188444000000001,1.0,-0.02268982,-0.1699523999999999,0.9851837,35.0134,2.2812650000000003,-29.20903,2.43866,0.4236388,0.5270024,-0.3616435999999999,1.247815,0.1036031999999999,-0.04767654,0.7999932,0.01736233,1.86614,-0.3377308172187108,33.73335777496839
0,-0.05305481,-0.1701965,0.9839783,1.0,-0.09356689,-0.1700439,0.9809723,-27.65143,2.678101,-28.30449,2.387375,0.3861159,0.5188444000000001,1.0,-0.02172852,-0.1701202,0.9851685,35.01736,2.278351,-29.19566,2.437485,0.4233965999999999,0.5270024,-0.3616034,1.247746,0.1035841,-0.04759396,0.8003408000000001,0.01743171,1.86614,-0.3377308172187108,33.73335777496839
0,-0.05305481,-0.1701965,0.9839783,1.0,-0.09356689,-0.1700439,0.9809723,-27.65143,2.678101,-28.30449,2.387375,0.3861159,0.5188444000000001,1.0,-0.02172852,-0.1701202,0.9851685,35.01736,2.278351,-29.19566,2.437485,0.4233965999999999,0.5270024,-0.3616034,1.247746,0.1035841,-0.04759396,0.8003408000000001,0.01743171,1.86614,-0.3377308172187108,33.73335777496839
0,-0.05305481,-0.1701965,0.9839783,1.0,-0.09356689,-0.1700439,0.9809723,-27.65143,2.678101,-28.30449,2.387375,0.3861159,0.5188444000000001,1.0,-0.02172852,-0.1701202,0.9851685,35.01736,2.278351,-29.19566,2.437485,0.4233965999999999,0.5270024,-0.3616034,1.247746,0.1035841,-0.04759396,0.8003408000000001,0.01743171,1.86614,-0.3377308172187108,33.73335777496839
0,-0.05601501,-0.1701355,0.9838257,1.0,-0.09338379,-0.1696472,0.9810638,-27.65132,2.67395,-28.295040000000004,2.371826,0.3860854,0.5188444000000001,1.0,-0.02243042,-0.1703644,0.9851227,35.02061,2.271774,-29.173920000000003,2.430573,0.4233965999999999,0.5270623000000001,-0.3616625,1.247731,0.1036059999999999,-0.04757462,0.8006464,0.01728556,1.86614,-0.3377308172187108,33.73335777496839
0,-0.05601501,-0.1701355,0.9838257,1.0,-0.09338379,-0.1696472,0.9810638,-27.65132,2.67395,-28.295040000000004,2.371826,0.3860854,0.5188444000000001,1.0,-0.02243042,-0.1703644,0.9851227,35.02061,2.271774,-29.173920000000003,2.430573,0.4233965999999999,0.5270623000000001,-0.3616625,1.247731,0.1036059999999999,-0.04757462,0.8006464,0.01728556,1.86614,-0.3377308172187108,33.73335777496839
0,-0.05601501,-0.1701355,0.9838257,1.0,-0.09338379,-0.1696472,0.9810638,-27.65132,2.67395,-28.295040000000004,2.371826,0.3860854,0.5188444000000001,1.0,-0.02243042,-0.1703644,0.9851227,35.02061,2.271774,-29.173920000000003,2.430573,0.4233965999999999,0.5270623000000001,-0.3616625,1.247731,0.1036059999999999,-0.04757462,0.8006464,0.01728556,1.86614,-0.3377308172187108,33.73335777496839
0,-0.05322266,-0.1697845,0.9840393,1.0,-0.09344482,-0.1693267999999999,0.9811096,-27.650240000000004,2.663239,-28.25882,2.364609,0.3860729,0.5188444000000001,1.0,-0.02224731,-0.1699523999999999,0.985199,35.021359999999994,2.268738,-29.16833,2.422546,0.4233606,0.5270584,-0.3616659,1.247694,0.1035413,-0.04769116,0.8008729,0.01702892,1.86614,-0.3377308172187108,33.73335777496839
0,-0.05322266,-0.1697845,0.9840393,1.0,-0.09344482,-0.1693267999999999,0.9811096,-27.650240000000004,2.663239,-28.25882,2.364609,0.3860729,0.5188444000000001,1.0,-0.02224731,-0.1699523999999999,0.985199,35.021359999999994,2.268738,-29.16833,2.422546,0.4233606,0.5270584,-0.3616659,1.247694,0.1035413,-0.04769116,0.8008729,0.01702892,1.86614,-0.3377308172187108,33.73335777496839
0,-0.05322266,-0.1697845,0.9840393,1.0,-0.09344482,-0.1693267999999999,0.9811096,-27.650240000000004,2.663239,-28.25882,2.364609,0.3860729,0.5188444000000001,1.0,-0.02224731,-0.1699523999999999,0.985199,35.021359999999994,2.268738,-29.16833,2.422546,0.4233606,0.5270584,-0.3616659,1.247694,0.1035413,-0.04769116,0.8008729,0.01702892,1.86614,-0.3377308172187108,33.73335777496839
0,-0.04949951,-0.1699371,0.9842072,1.0,-0.09307861,-0.1692352,0.9811554,-27.650240000000004,2.662384,-28.2563,2.358673,0.3860255999999999,0.5188444000000001,1.0,-0.01957703,-0.1702422999999999,0.985199,35.02403,2.2686610000000003,-29.1657,2.422165,0.4229464,0.5270623000000001,-0.3617,1.2474610000000002,0.1033642,-0.04764372,0.801743,0.01632368,1.86614,-0.3377308172187108,33.73335777496839
0,-0.04949951,-0.1699371,0.9842072,1.0,-0.09307861,-0.1692352,0.9811554,-27.650240000000004,2.662384,-28.2563,2.358673,0.3860255999999999,0.5188444000000001,1.0,-0.01957703,-0.1702422999999999,0.985199,35.02403,2.2686610000000003,-29.1657,2.422165,0.4229464,0.5270623000000001,-0.3617,1.2474610000000002,0.1033642,-0.04764372,0.801743,0.01632368,1.86614,-0.3377308172187108,33.73335777496839
0,-0.04949951,-0.1699371,0.9842072,1.0,-0.09307861,-0.1692352,0.9811554,-27.650240000000004,2.662384,-28.2563,2.358673,0.3860255999999999,0.5188444000000001,1.0,-0.01957703,-0.1702422999999999,0.985199,35.02403,2.2686610000000003,-29.1657,2.422165,0.4229464,0.5270623000000001,-0.3617,1.2474610000000002,0.1033642,-0.04764372,0.801743,0.01632368,1.86614,-0.3377308172187108,33.73335777496839
0,-0.04949951,-0.1699371,0.9842072,1.0,-0.09307861,-0.1692352,0.9811554,-27.650240000000004,2.662384,-28.2563,2.358673,0.3860255999999999,0.5188444000000001,1.0,-0.01957703,-0.1702422999999999,0.985199,35.02403,2.2686610000000003,-29.1657,2.422165,0.4229464,0.5270623000000001,-0.3616813,1.247413,0.1032416,-0.04765521,0.8020931,0.01637131,1.86614,77.59415,33.73335777496839
0,-0.04949951,-0.1699371,0.9842072,1.0,-0.09307861,-0.1692352,0.9811554,-27.650240000000004,2.662384,-28.2563,2.358673,0.3860255999999999,0.5188444000000001,1.0,-0.01957703,-0.1702422999999999,0.985199,35.02403,2.2686610000000003,-29.1657,2.422165,0.4229464,0.5270623000000001,-0.3616813,1.247413,0.1032416,-0.04765521,0.8020931,0.01637131,1.86614,77.59415,33.73335777496839
0,-0.04949951,-0.1699371,0.9842072,1.0,-0.09307861,-0.1692352,0.9811554,-27.650240000000004,2.662384,-28.2563,2.358673,0.3860255999999999,0.5188444000000001,1.0,-0.01957703,-0.1702422999999999,0.985199,35.02403,2.2686610000000003,-29.1657,2.422165,0.4229464,0.5270623000000001,-0.3616813,1.247413,0.1032416,-0.04765521,0.8020931,0.01637131,1.86614,77.59415,33.73335777496839
0,-0.04949951,-0.1699371,0.9842072,1.0,-0.09307861,-0.1692352,0.9811554,-27.650240000000004,2.662384,-28.2563,2.358673,0.3860255999999999,0.5188444000000001,1.0,-0.01957703,-0.1702422999999999,0.985199,35.02403,2.2686610000000003,-29.1657,2.422165,0.4229464,0.5270623000000001,-0.361707,1.247482,0.1030432,-0.04763621,0.8024379,0.01632003,1.86614,77.59415,33.73335777496839
0,-0.04949951,-0.1699371,0.9842072,1.0,-0.09307861,-0.1692352,0.9811554,-27.650240000000004,2.662384,-28.2563,2.358673,0.3860255999999999,0.5188444000000001,1.0,-0.01957703,-0.1702422999999999,0.985199,35.02403,2.2686610000000003,-29.1657,2.422165,0.4229464,0.5270623000000001,-0.361707,1.247482,0.1030432,-0.04763621,0.8024379,0.01632003,1.86614,77.59415,33.73335777496839
0,-0.04949951,-0.1699371,0.9842072,1.0,-0.09307861,-0.1692352,0.9811554,-27.650240000000004,2.662384,-28.2563,2.358673,0.3860255999999999,0.5188444000000001,1.0,-0.01957703,-0.1702422999999999,0.985199,35.02403,2.2686610000000003,-29.1657,2.422165,0.4229464,0.5270623000000001,-0.361707,1.247482,0.1030432,-0.04763621,0.8024379,0.01632003,1.86614,77.59415,33.73335777496839
0,-0.04704285,-0.1693878,0.9844208,1.0,-0.09254456,-0.1689453,0.9812622,-27.650240000000004,2.658783,-28.24722,2.358658,0.385965,0.5188444000000001,1.0,-0.01913452,-0.1694793999999999,0.9853363000000002,35.02585,2.265472,-29.1649,2.406128,0.4228497999999999,0.5270623000000001,-0.361732,1.247561,0.1028351999999999,-0.04741988,0.8033855999999999,0.01648718,1.86614,77.59415,33.73335777496839
0,-0.04704285,-0.1693878,0.9844208,1.0,-0.09254456,-0.1689453,0.9812622,-27.650240000000004,2.658783,-28.24722,2.358658,0.385965,0.5188444000000001,1.0,-0.01913452,-0.1694793999999999,0.9853363000000002,35.02585,2.265472,-29.1649,2.406128,0.4228497999999999,0.5270623000000001,-0.361732,1.247561,0.1028351999999999,-0.04741988,0.8033855999999999,0.01648718,1.86614,77.59415,33.73335777496839
0,-0.04704285,-0.1693878,0.9844208,1.0,-0.09254456,-0.1689453,0.9812622,-27.650240000000004,2.658783,-28.24722,2.358658,0.385965,0.5188444000000001,1.0,-0.01913452,-0.1694793999999999,0.9853363000000002,35.02585,2.265472,-29.1649,2.406128,0.4228497999999999,0.5270623000000001,-0.361732,1.247561,0.1028351999999999,-0.04741988,0.8033855999999999,0.01648718,1.86614,77.59415,33.73335777496839
0,-0.04704285,-0.1693878,0.9844208,1.0,-0.09254456,-0.1689453,0.9812622,-27.650240000000004,2.658783,-28.24722,2.358658,0.385965,0.5188444000000001,1.0,-0.01913452,-0.1694793999999999,0.9853363000000002,35.02585,2.265472,-29.1649,2.406128,0.4228497999999999,0.5270623000000001,-0.3617828,1.247678,0.1027973,-0.04719838,0.8038529999999999,0.01659999,1.86614,77.59415,33.73335777496839
0,-0.04704285,-0.1693878,0.9844208,1.0,-0.09254456,-0.1689453,0.9812622,-27.650240000000004,2.658783,-28.24722,2.358658,0.385965,0.5188444000000001,1.0,-0.01913452,-0.1694793999999999,0.9853363000000002,35.02585,2.265472,-29.1649,2.406128,0.4228497999999999,0.5270623000000001,-0.3617828,1.247678,0.1027973,-0.04719838,0.8038529999999999,0.01659999,1.86614,77.59415,33.73335777496839
0,-0.04704285,-0.1693878,0.9844208,1.0,-0.09254456,-0.1689453,0.9812622,-27.650240000000004,2.658783,-28.24722,2.358658,0.385965,0.5188444000000001,1.0,-0.01913452,-0.1694793999999999,0.9853363000000002,35.02585,2.265472,-29.1649,2.406128,0.4228497999999999,0.5270623000000001,-0.3617828,1.247678,0.1027973,-0.04719838,0.8038529999999999,0.01659999,1.86614,77.59415,33.73335777496839
0,-0.03456116,-0.1674042,0.9852753,1.0,-0.06968689,-0.1600037,0.9846497,-27.58897,2.647537,-28.20125,2.212158,0.3809973,0.5175548,1.0,-0.008911133,-0.1726532,0.9849396,35.09325,2.251541,-29.05002,2.243011,0.4195914,0.5267936,-0.3618949999999999,1.247719,0.1027361,-0.04708822,0.8044073,0.0167292,1.86614,77.59415,33.73335777496839
0,-0.03456116,-0.1674042,0.9852753,1.0,-0.06968689,-0.1600037,0.9846497,-27.58897,2.647537,-28.20125,2.212158,0.3809973,0.5175548,1.0,-0.008911133,-0.1726532,0.9849396,35.09325,2.251541,-29.05002,2.243011,0.4195914,0.5267936,-0.3618949999999999,1.247719,0.1027361,-0.04708822,0.8044073,0.0167292,1.86614,77.59415,33.73335777496839
0,-0.03456116,-0.1674042,0.9852753,1.0,-0.06968689,-0.1600037,0.9846497,-27.58897,2.647537,-28.20125,2.212158,0.3809973,0.5175548,1.0,-0.008911133,-0.1726532,0.9849396,35.09325,2.251541,-29.05002,2.243011,0.4195914,0.5267936,-0.3618949999999999,1.247719,0.1027361,-0.04708822,0.8044073,0.0167292,1.86614,77.59415,33.73335777496839
1,-0.03692627,-0.165329,0.9855347,1.0,-0.07150269,-0.1592407,0.9846344,-27.58525,2.662292,-28.24866,2.15921,0.3810390999999999,0.5173646,1.0,-0.009277344,-0.1700592,0.9853821,35.09988,2.2504880000000003,-29.02539,2.220978,0.4194634,0.5262647,-0.3620624,1.247725,0.1025218,-0.04692433,0.8051841,0.0171575,1.86614,77.59415,33.73335777496839
1,-0.03692627,-0.165329,0.9855347,1.0,-0.07150269,-0.1592407,0.9846344,-27.58525,2.662292,-28.24866,2.15921,0.3810390999999999,0.5173646,1.0,-0.009277344,-0.1700592,0.9853821,35.09988,2.2504880000000003,-29.02539,2.220978,0.4194634,0.5262647,-0.3620624,1.247725,0.1025218,-0.04692433,0.8051841,0.0171575,1.86614,77.59415,33.73335777496839
1,-0.03692627,-0.165329,0.9855347,1.0,-0.07150269,-0.1592407,0.9846344,-27.58525,2.662292,-28.24866,2.15921,0.3810390999999999,0.5173646,1.0,-0.009277344,-0.1700592,0.9853821,35.09988,2.2504880000000003,-29.02539,2.220978,0.4194634,0.5262647,-0.3620624,1.247725,0.1025218,-0.04692433,0.8051841,0.0171575,1.86614,77.59415,33.73335777496839
1,-0.01664734,-0.1672058,0.9857788,1.0,-0.06433105,-0.1751709,0.9824219,-27.51657,2.592957,-28.16853,2.238297,0.3778512,0.5210317,1.0,0.008560181,-0.1628417999999999,0.9866028,35.1617,2.166901,-29.08583,2.201447,0.4151202,0.5286064,-0.3621514,1.247701,0.1022682,-0.0466834,0.8060430000000001,0.01733012,1.86614,-12.98788,33.73335777496839
1,-0.01664734,-0.1672058,0.9857788,1.0,-0.06433105,-0.1751709,0.9824219,-27.51657,2.592957,-28.16853,2.238297,0.3778512,0.5210317,1.0,0.008560181,-0.1628417999999999,0.9866028,35.1617,2.166901,-29.08583,2.201447,0.4151202,0.5286064,-0.3621514,1.247701,0.1022682,-0.0466834,0.8060430000000001,0.01733012,1.86614,-12.98788,33.73335777496839
1,-0.01664734,-0.1672058,0.9857788,1.0,-0.06433105,-0.1751709,0.9824219,-27.51657,2.592957,-28.16853,2.238297,0.3778512,0.5210317,1.0,0.008560181,-0.1628417999999999,0.9866028,35.1617,2.166901,-29.08583,2.201447,0.4151202,0.5286064,-0.3621514,1.247701,0.1022682,-0.0466834,0.8060430000000001,0.01733012,1.86614,-12.98788,33.73335777496839
1,0.1459351,-0.3523407,0.924408,1.0,0.100235,-0.3472595,0.9323883,-26.82251,1.846481,-28.7757,2.127106,0.3318355,0.5748699,1.0,0.1481627999999999,-0.3525696,0.9239655,35.71407,1.320724,-29.35432,2.25824,0.3777792,0.5845557,-0.3622057,1.247491,0.101999,-0.0470255999999999,0.8067232,0.01671205,1.86614,-12.98788,33.73335777496839
1,0.1459351,-0.3523407,0.924408,1.0,0.100235,-0.3472595,0.9323883,-26.82251,1.846481,-28.7757,2.127106,0.3318355,0.5748699,1.0,0.1481627999999999,-0.3525696,0.9239655,35.71407,1.320724,-29.35432,2.25824,0.3777792,0.5845557,-0.3622057,1.247491,0.101999,-0.0470255999999999,0.8067232,0.01671205,1.86614,-12.98788,33.73335777496839
1,0.1459351,-0.3523407,0.924408,1.0,0.100235,-0.3472595,0.9323883,-26.82251,1.846481,-28.7757,2.127106,0.3318355,0.5748699,1.0,0.1481627999999999,-0.3525696,0.9239655,35.71407,1.320724,-29.35432,2.25824,0.3777792,0.5845557,-0.3622057,1.247491,0.101999,-0.0470255999999999,0.8067232,0.01671205,1.86614,-12.98788,33.73335777496839
1,0.1671143,-0.4052734,0.8987732,1.0,0.1170807,-0.405426,0.9065857,-26.77965,1.702164,-28.81551,2.171753,0.327853,0.5883855,1.0,0.1732177999999999,-0.4051971,0.8976593,35.891659999999995,1.124298,-29.43732,2.225693,0.3681253,0.5993606,-0.3622057,1.247491,0.101999,-0.0470255999999999,0.8067232,0.01671205,1.86614,-12.98788,33.73335777496839
1,0.1671143,-0.4052734,0.8987732,1.0,0.1170807,-0.405426,0.9065857,-26.77965,1.702164,-28.81551,2.171753,0.327853,0.5883855,1.0,0.1732177999999999,-0.4051971,0.8976593,35.891659999999995,1.124298,-29.43732,2.225693,0.3681253,0.5993606,-0.3622057,1.247491,0.101999,-0.0470255999999999,0.8067232,0.01671205,1.86614,-12.98788,33.73335777496839
1,0.1671143,-0.4052734,0.8987732,1.0,0.1170807,-0.405426,0.9065857,-26.77965,1.702164,-28.81551,2.171753,0.327853,0.5883855,1.0,0.1732177999999999,-0.4051971,0.8976593,35.891659999999995,1.124298,-29.43732,2.225693,0.3681253,0.5993606,-0.3622057,1.247491,0.101999,-0.0470255999999999,0.8067232,0.01671205,1.86614,-12.98788,33.73335777496839
1,0.1473389,-0.4068909,0.9015045,1.0,0.1164246,-0.4007416,0.9087524,-26.76332,1.698593,-28.82112,2.202026,0.3274180999999999,0.5878802,1.0,0.1756592,-0.4121551999999999,0.8940125,35.917559999999995,1.122314,-29.44234,2.141602,0.3669393,0.6004988,-0.3622799,1.247345,0.1017305,-0.04729567,0.8071851,0.01601844,1.86614,-12.98788,34.23
1,0.1473389,-0.4068909,0.9015045,1.0,0.1164246,-0.4007416,0.9087524,-26.76332,1.698593,-28.82112,2.202026,0.3274180999999999,0.5878802,1.0,0.1756592,-0.4121551999999999,0.8940125,35.917559999999995,1.122314,-29.44234,2.141602,0.3669393,0.6004988,-0.3622799,1.247345,0.1017305,-0.04729567,0.8071851,0.01601844,1.86614,-12.98788,34.23
1,0.1473389,-0.4068909,0.9015045,1.0,0.1164246,-0.4007416,0.9087524,-26.76332,1.698593,-28.82112,2.202026,0.3274180999999999,0.5878802,1.0,0.1756592,-0.4121551999999999,0.8940125,35.917559999999995,1.122314,-29.44234,2.141602,0.3669393,0.6004988,-0.3622799,1.247345,0.1017305,-0.04729567,0.8071851,0.01601844,1.86614,-12.98788,34.23
1,0.1503905999999999,-0.4006805,0.9037781,1.0,0.1201172,-0.3895264,0.9131317,-26.7588,1.697495,-28.81572,2.2020720000000003,0.3268461,0.5863105,1.0,0.1679077,-0.4069672,0.8978729,35.94531,1.1143040000000002,-29.43921,2.232361,0.3669393,0.5999481,-0.3621975,1.247154,0.1012647,-0.04762455,0.8073762,0.01520964,1.86614,-12.98788,34.23
1,0.1503905999999999,-0.4006805,0.9037781,1.0,0.1201172,-0.3895264,0.9131317,-26.7588,1.697495,-28.81572,2.2020720000000003,0.3268461,0.5863105,1.0,0.1679077,-0.4069672,0.8978729,35.94531,1.1143040000000002,-29.43921,2.232361,0.3669393,0.5999481,-0.3621975,1.247154,0.1012647,-0.04762455,0.8073762,0.01520964,1.86614,-12.98788,34.23
1,0.1503905999999999,-0.4006805,0.9037781,1.0,0.1201172,-0.3895264,0.9131317,-26.7588,1.697495,-28.81572,2.2020720000000003,0.3268461,0.5863105,1.0,0.1679077,-0.4069672,0.8978729,35.94531,1.1143040000000002,-29.43921,2.232361,0.3669393,0.5999481,-0.3621975,1.247154,0.1012647,-0.04762455,0.8073762,0.01520964,1.86614,-12.98788,34.23
1,0.1491089,-0.3959198,0.9060822,1.0,0.1210327,-0.3891754,0.9131622,-26.75787,1.6974029999999998,-28.81389,2.1987,0.3266962,0.5862576999999999,1.0,0.1674347,-0.4001465,0.9010162,35.95695,1.111923,-29.438540000000003,2.247665,0.3666175,0.5990517,-0.3620593,1.247119,0.1012367,-0.04724933,0.8073170999999999,0.01496718,1.86614,-53.63501,34.23
1,0.1491089,-0.3959198,0.9060822,1.0,0.1210327,-0.3891754,0.9131622,-26.75787,1.6974029999999998,-28.81389,2.1987,0.3266962,0.5862576999999999,1.0,0.1674347,-0.4001465,0.9010162,35.95695,1.111923,-29.438540000000003,2.247665,0.3666175,0.5990517,-0.3620593,1.247119,0.1012367,-0.04724933,0.8073170999999999,0.01496718,1.86614,-53.63501,34.23
1,0.1491089,-0.3959198,0.9060822,1.0,0.1210327,-0.3891754,0.9131622,-26.75787,1.6974029999999998,-28.81389,2.1987,0.3266962,0.5862576999999999,1.0,0.1674347,-0.4001465,0.9010162,35.95695,1.111923,-29.438540000000003,2.247665,0.3666175,0.5990517,-0.3620593,1.247119,0.1012367,-0.04724933,0.8073170999999999,0.01496718,1.86614,-53.63501,34.23
1,0.1450348,-0.3919982999999999,0.9084473,1.0,0.1220093,-0.3882751,0.9134216,-26.75606,1.6922150000000002,-28.802670000000003,2.193863,0.3265176,0.5862049,1.0,0.1598663,-0.3942870999999999,0.9049683,35.991609999999994,1.09726,-29.42949,2.273849,0.3664020999999999,0.5986151999999999,-0.3619283,1.246892,0.1012981999999999,-0.04656363,0.8071285,0.01409608,1.86614,-53.63501,34.23
1,0.1450348,-0.3919982999999999,0.9084473,1.0,0.1220093,-0.3882751,0.9134216,-26.75606,1.6922150000000002,-28.802670000000003,2.193863,0.3265176,0.5862049,1.0,0.1598663,-0.3942870999999999,0.9049683,35.991609999999994,1.09726,-29.42949,2.273849,0.3664020999999999,0.5986151999999999,-0.3619283,1.246892,0.1012981999999999,-0.04656363,0.8071285,0.01409608,1.86614,-53.63501,34.23
1,0.1450348,-0.3919982999999999,0.9084473,1.0,0.1220093,-0.3882751,0.9134216,-26.75606,1.6922150000000002,-28.802670000000003,2.193863,0.3265176,0.5862049,1.0,0.1598663,-0.3942870999999999,0.9049683,35.991609999999994,1.09726,-29.42949,2.273849,0.3664020999999999,0.5986151999999999,-0.3619283,1.246892,0.1012981999999999,-0.04656363,0.8071285,0.01409608,1.86614,-53.63501,34.23
1,0.1448669,-0.3915252999999999,0.9086761,1.0,0.1220245,-0.3885192999999999,0.9133148,-26.75653,1.689728,-28.798540000000003,2.196045,0.3265366,0.5862877,1.0,0.1596375,-0.3933563,0.9054108,36.00053,1.096527,-29.4256,2.283646,0.3661259,0.5984722,-0.3617149,1.246618,0.1014751,-0.04514333,0.8067403000000001,0.01288608,1.86614,-53.63501,34.23
1,0.1448669,-0.3915252999999999,0.9086761,1.0,0.1220245,-0.3885192999999999,0.9133148,-26.75653,1.689728,-28.798540000000003,2.196045,0.3265366,0.5862877,1.0,0.1596375,-0.3933563,0.9054108,36.00053,1.096527,-29.4256,2.283646,0.3661259,0.5984722,-0.3617149,1.246618,0.1014751,-0.04514333,0.8067403000000001,0.01288608,1.86614,-53.63501,34.23
1,0.1448669,-0.3915252999999999,0.9086761,1.0,0.1220245,-0.3885192999999999,0.9133148,-26.75653,1.689728,-28.798540000000003,2.196045,0.3265366,0.5862877,1.0,0.1596375,-0.3933563,0.9054108,36.00053,1.096527,-29.4256,2.283646,0.3661259,0.5984722,-0.3617149,1.246618,0.1014751,-0.04514333,0.8067403000000001,0.01288608,1.86614,-53.63501,34.23
1,0.1708984,-0.453064,0.8749389999999999,1.0,0.1626434,-0.4505462999999999,0.8777924000000001,-26.65015,1.367432,-28.95055,2.294586,0.3169906,0.6079268,1.0,0.1761322,-0.4546356,0.8730773999999999,36.09366,0.775177,-29.54861,2.433044,0.3600963,0.6193098000000001,-0.3614383,1.246268,0.1018898,-0.04315475,0.8060163,0.01181562,1.86614,-53.63501,34.23
1,0.1708984,-0.453064,0.8749389999999999,1.0,0.1626434,-0.4505462999999999,0.8777924000000001,-26.65015,1.367432,-28.95055,2.294586,0.3169906,0.6079268,1.0,0.1761322,-0.4546356,0.8730773999999999,36.09366,0.775177,-29.54861,2.433044,0.3600963,0.6193098000000001,-0.3614383,1.246268,0.1018898,-0.04315475,0.8060163,0.01181562,1.86614,-53.63501,34.23
1,0.1708984,-0.453064,0.8749389999999999,1.0,0.1626434,-0.4505462999999999,0.8777924000000001,-26.65015,1.367432,-28.95055,2.294586,0.3169906,0.6079268,1.0,0.1761322,-0.4546356,0.8730773999999999,36.09366,0.775177,-29.54861,2.433044,0.3600963,0.6193098000000001,-0.3614383,1.246268,0.1018898,-0.04315475,0.8060163,0.01181562,1.86614,-53.63501,34.23
1,0.1734161,-0.4676819,0.8666992,1.0,0.1269530999999999,-0.4855347,0.8649292,-26.63992,1.380417,-28.95728,2.310562,0.3210464,0.6123605,1.0,0.1978302,-0.4577637,0.8667754999999999,36.09874,0.7503052,-29.57851,2.602005,0.3569562,0.6208908000000001,-0.3610594,1.245765,0.1023106999999999,-0.04115417,0.8051272,0.01057301,1.86614,-53.63501,34.23
1,0.1734161,-0.4676819,0.8666992,1.0,0.1269530999999999,-0.4855347,0.8649292,-26.63992,1.380417,-28.95728,2.310562,0.3210464,0.6123605,1.0,0.1978302,-0.4577637,0.8667754999999999,36.09874,0.7503052,-29.57851,2.602005,0.3569562,0.6208908000000001,-0.3610594,1.245765,0.1023106999999999,-0.04115417,0.8051272,0.01057301,1.86614,-53.63501,34.23
1,0.1734161,-0.4676819,0.8666992,1.0,0.1269530999999999,-0.4855347,0.8649292,-26.63992,1.380417,-28.95728,2.310562,0.3210464,0.6123605,1.0,0.1978302,-0.4577637,0.8667754999999999,36.09874,0.7503052,-29.57851,2.602005,0.3569562,0.6208908000000001,-0.3610594,1.245765,0.1023106999999999,-0.04115417,0.8051272,0.01057301,1.86614,-53.63501,34.23
1,0.175827,-0.4606476,0.8699799000000001,1.0,0.1396332,-0.4689635999999999,0.8721008,-26.64009,1.378693,-28.95593,2.343033,0.319559,0.6100464,1.0,0.1963501,-0.4556274,0.8682404,36.10194,0.7538604999999999,-29.57571,2.581909,0.3570642,0.6204403000000001,-0.3606934,1.245221,0.1026798,-0.03908576,0.8041875,0.008980261,1.86614,-53.63501,34.23
1,0.175827,-0.4606476,0.8699799000000001,1.0,0.1396332,-0.4689635999999999,0.8721008,-26.64009,1.378693,-28.95593,2.343033,0.319559,0.6100464,1.0,0.1963501,-0.4556274,0.8682404,36.10194,0.7538604999999999,-29.57571,2.581909,0.3570642,0.6204403000000001,-0.3606934,1.245221,0.1026798,-0.03908576,0.8041875,0.008980261,1.86614,-53.63501,34.23
1,0.175827,-0.4606476,0.8699799000000001,1.0,0.1396332,-0.4689635999999999,0.8721008,-26.64009,1.378693,-28.95593,2.343033,0.319559,0.6100464,1.0,0.1963501,-0.4556274,0.8682404,36.10194,0.7538604999999999,-29.57571,2.581909,0.3570642,0.6204403000000001,-0.3606934,1.245221,0.1026798,-0.03908576,0.8041875,0.008980261,1.86614,-53.63501,34.23
1,0.175827,-0.4606476,0.8699799000000001,1.0,0.1396332,-0.4689635999999999,0.8721008,-26.64009,1.378693,-28.95593,2.343033,0.319559,0.6100464,1.0,0.1963501,-0.4556274,0.8682404,36.10194,0.7538604999999999,-29.57571,2.581909,0.3570642,0.6204403000000001,-0.3603298,1.244817,0.1030601999999999,-0.03692764,0.8031545999999999,0.007325236,1.86614,-32.0101,34.23
1,0.175827,-0.4606476,0.8699799000000001,1.0,0.1396332,-0.4689635999999999,0.8721008,-26.64009,1.378693,-28.95593,2.343033,0.319559,0.6100464,1.0,0.1963501,-0.4556274,0.8682404,36.10194,0.7538604999999999,-29.57571,2.581909,0.3570642,0.6204403000000001,-0.3603298,1.244817,0.1030601999999999,-0.03692764,0.8031545999999999,0.007325236,1.86614,-32.0101,34.23
1,0.175827,-0.4606476,0.8699799000000001,1.0,0.1396332,-0.4689635999999999,0.8721008,-26.64009,1.378693,-28.95593,2.343033,0.319559,0.6100464,1.0,0.1963501,-0.4556274,0.8682404,36.10194,0.7538604999999999,-29.57571,2.581909,0.3570642,0.6204403000000001,-0.3603298,1.244817,0.1030601999999999,-0.03692764,0.8031545999999999,0.007325236,1.86614,-32.0101,34.23
1,0.1615295,-0.4394835999999999,0.8835907,1.0,0.1507721,-0.4440002,0.8832396999999998,-26.68579,1.437393,-28.91245,2.421143,0.3200687,0.6040083,1.0,0.1686249,-0.4364624,0.8837738000000002,36.1091,0.8196716000000001,-29.54192,2.722275,0.36044,0.614954,-0.3598339,1.244298,0.1034185,-0.03515233,0.8018923000000001,0.005676598,1.86614,-32.0101,34.23
1,0.1615295,-0.4394835999999999,0.8835907,1.0,0.1507721,-0.4440002,0.8832396999999998,-26.68579,1.437393,-28.91245,2.421143,0.3200687,0.6040083,1.0,0.1686249,-0.4364624,0.8837738000000002,36.1091,0.8196716000000001,-29.54192,2.722275,0.36044,0.614954,-0.3598339,1.244298,0.1034185,-0.03515233,0.8018923000000001,0.005676598,1.86614,-32.0101,34.23
1,0.1615295,-0.4394835999999999,0.8835907,1.0,0.1507721,-0.4440002,0.8832396999999998,-26.68579,1.437393,-28.91245,2.421143,0.3200687,0.6040083,1.0,0.1686249,-0.4364624,0.8837738000000002,36.1091,0.8196716000000001,-29.54192,2.722275,0.36044,0.614954,-0.3598339,1.244298,0.1034185,-0.03515233,0.8018923000000001,0.005676598,1.86614,-32.0101,34.23
1,0.1694946,-0.4393462999999999,0.8821716000000001,0.9300277,0.1484984999999999,-0.4488068,0.8811950999999999,-26.710420000000003,1.454788,-28.90706,2.476013,0.3212826,0.6039979999999999,0.9928083,0.1818847999999999,-0.4336395,0.8825226,36.03485,0.8637543,-29.52521,2.712051,0.3613915,0.6129397,-0.3591922,1.243963,0.1037625,-0.03397515,0.8006948,0.003965877,1.86614,-32.0101,34.23
1,0.1694946,-0.4393462999999999,0.8821716000000001,0.9300277,0.1484984999999999,-0.4488068,0.8811950999999999,-26.710420000000003,1.454788,-28.90706,2.476013,0.3212826,0.6039979999999999,0.9928083,0.1818847999999999,-0.4336395,0.8825226,36.03485,0.8637543,-29.52521,2.712051,0.3613915,0.6129397,-0.3591922,1.243963,0.1037625,-0.03397515,0.8006948,0.003965877,1.86614,-32.0101,34.23
1,0.1694946,-0.4393462999999999,0.8821716000000001,0.9300277,0.1484984999999999,-0.4488068,0.8811950999999999,-26.710420000000003,1.454788,-28.90706,2.476013,0.3212826,0.6039979999999999,0.9928083,0.1818847999999999,-0.4336395,0.8825226,36.03485,0.8637543,-29.52521,2.712051,0.3613915,0.6129397,-0.3591922,1.243963,0.1037625,-0.03397515,0.8006948,0.003965877,1.86614,-32.0101,34.23
1,0.1633453,-0.4441222999999999,0.8809357,0.8942035,0.1477966,-0.444809,0.8833313,-26.736690000000003,1.4884190000000002,-28.89131,2.553757,0.3224549,0.6020473000000001,0.9876386,0.1745605,-0.4435729999999999,0.8790588,36.05186,0.9511108,-29.4617,2.743057,0.3617999,0.610685,-0.3584824,1.243601,0.1044168,-0.03287818,0.7990326999999999,0.002254173,1.86614,-32.0101,34.23
1,0.1633453,-0.4441222999999999,0.8809357,0.8942035,0.1477966,-0.444809,0.8833313,-26.736690000000003,1.4884190000000002,-28.89131,2.553757,0.3224549,0.6020473000000001,0.9876386,0.1745605,-0.4435729999999999,0.8790588,36.05186,0.9511108,-29.4617,2.743057,0.3617999,0.610685,-0.3584824,1.243601,0.1044168,-0.03287818,0.7990326999999999,0.002254173,1.86614,-32.0101,34.23
1,0.1633453,-0.4441222999999999,0.8809357,0.8942035,0.1477966,-0.444809,0.8833313,-26.736690000000003,1.4884190000000002,-28.89131,2.553757,0.3224549,0.6020473000000001,0.9876386,0.1745605,-0.4435729999999999,0.8790588,36.05186,0.9511108,-29.4617,2.743057,0.3617999,0.610685,-0.3584824,1.243601,0.1044168,-0.03287818,0.7990326999999999,0.002254173,1.86614,-32.0101,34.23
1,0.1664428999999999,-0.4379729999999999,0.8834228999999999,0.8894808000000001,0.144928,-0.4360045999999999,0.8881836,-26.788940000000004,1.534683,-28.84833,2.651016,0.3249018,0.5986934,0.9785617,0.1822662,-0.4393005,0.8796539000000001,36.03151,0.9702911,-29.45216,2.732513,0.3615772,0.6093666999999999,-0.3576039,1.243241,0.1050561999999999,-0.03146728,0.7969791,0.0006401422,1.86614,-32.0101,34.23
1,0.1664428999999999,-0.4379729999999999,0.8834228999999999,0.8894808000000001,0.144928,-0.4360045999999999,0.8881836,-26.788940000000004,1.534683,-28.84833,2.651016,0.3249018,0.5986934,0.9785617,0.1822662,-0.4393005,0.8796539000000001,36.03151,0.9702911,-29.45216,2.732513,0.3615772,0.6093666999999999,-0.3576039,1.243241,0.1050561999999999,-0.03146728,0.7969791,0.0006401422,1.86614,-32.0101,34.23
1,0.1664428999999999,-0.4379729999999999,0.8834228999999999,0.8894808000000001,0.144928,-0.4360045999999999,0.8881836,-26.788940000000004,1.534683,-28.84833,2.651016,0.3249018,0.5986934,0.9785617,0.1822662,-0.4393005,0.8796539000000001,36.03151,0.9702911,-29.45216,2.732513,0.3615772,0.6093666999999999,-0.3576039,1.243241,0.1050561999999999,-0.03146728,0.7969791,0.0006401422,1.86614,-32.0101,34.23
1,0.1549225,-0.4278717000000001,0.8904572000000001,0.8536482,0.1403351,-0.4424286,0.8857421999999998,-26.79385,1.56572,-28.83475,2.718735,0.3257402,0.5983344,0.9434168,0.165863,-0.4167633,0.8937378,36.02225,0.9994812,-29.43318,2.763519,0.3640923,0.6049659000000001,-0.3567432,1.24278,0.1057401,-0.02943464,0.7945760999999999,-0.0014391879999999,1.86614,-61.62178,34.23
1,0.1549225,-0.4278717000000001,0.8904572000000001,0.8536482,0.1403351,-0.4424286,0.8857421999999998,-26.79385,1.56572,-28.83475,2.718735,0.3257402,0.5983344,0.9434168,0.165863,-0.4167633,0.8937378,36.02225,0.9994812,-29.43318,2.763519,0.3640923,0.6049659000000001,-0.3567432,1.24278,0.1057401,-0.02943464,0.7945760999999999,-0.0014391879999999,1.86614,-61.62178,34.23
1,0.1549225,-0.4278717000000001,0.8904572000000001,0.8536482,0.1403351,-0.4424286,0.8857421999999998,-26.79385,1.56572,-28.83475,2.718735,0.3257402,0.5983344,0.9434168,0.165863,-0.4167633,0.8937378,36.02225,0.9994812,-29.43318,2.763519,0.3640923,0.6049659000000001,-0.3567432,1.24278,0.1057401,-0.02943464,0.7945760999999999,-0.0014391879999999,1.86614,-61.62178,34.23
1,0.1630707,-0.4365082,0.8847809000000001,0.8549271,0.1125641,-0.4255371,0.8979034,-26.80853,1.5878139999999998,-28.80244,2.878616,0.3300934,0.5946161999999999,0.9152753,0.192749,-0.4424132999999999,0.8758391999999999,35.87123,1.048035,-29.43703,2.816193,0.365768,0.6070247,-0.3556663,1.2420790000000002,0.1064942,-0.02671653,0.7915973000000001,-0.003878495,1.86614,-61.62178,34.23
1,0.1630707,-0.4365082,0.8847809000000001,0.8549271,0.1125641,-0.4255371,0.8979034,-26.80853,1.5878139999999998,-28.80244,2.878616,0.3300934,0.5946161999999999,0.9152753,0.192749,-0.4424132999999999,0.8758391999999999,35.87123,1.048035,-29.43703,2.816193,0.365768,0.6070247,-0.3556663,1.2420790000000002,0.1064942,-0.02671653,0.7915973000000001,-0.003878495,1.86614,-61.62178,34.23
1,0.1630707,-0.4365082,0.8847809000000001,0.8549271,0.1125641,-0.4255371,0.8979034,-26.80853,1.5878139999999998,-28.80244,2.878616,0.3300934,0.5946161999999999,0.9152753,0.192749,-0.4424132999999999,0.8758391999999999,35.87123,1.048035,-29.43703,2.816193,0.365768,0.6070247,-0.3556663,1.2420790000000002,0.1064942,-0.02671653,0.7915973000000001,-0.003878495,1.86614,-61.62178,34.23
1,0.1630707,-0.4365082,0.8847809000000001,0.8549271,0.1125641,-0.4255371,0.8979034,-26.80853,1.5878139999999998,-28.80244,2.878616,0.3300934,0.5946161999999999,0.9152753,0.192749,-0.4424132999999999,0.8758391999999999,35.87123,1.048035,-29.43703,2.816193,0.365768,0.6070247,-0.3544133,1.2414889999999998,0.1072545,-0.02394173,0.7884099,-0.006597164,1.86614,-61.62178,34.23
1,0.1630707,-0.4365082,0.8847809000000001,0.8549271,0.1125641,-0.4255371,0.8979034,-26.80853,1.5878139999999998,-28.80244,2.878616,0.3300934,0.5946161999999999,0.9152753,0.192749,-0.4424132999999999,0.8758391999999999,35.87123,1.048035,-29.43703,2.816193,0.365768,0.6070247,-0.3544133,1.2414889999999998,0.1072545,-0.02394173,0.7884099,-0.006597164,1.86614,-61.62178,34.23
1,0.1630707,-0.4365082,0.8847809000000001,0.8549271,0.1125641,-0.4255371,0.8979034,-26.80853,1.5878139999999998,-28.80244,2.878616,0.3300934,0.5946161999999999,0.9152753,0.192749,-0.4424132999999999,0.8758391999999999,35.87123,1.048035,-29.43703,2.816193,0.365768,0.6070247,-0.3544133,1.2414889999999998,0.1072545,-0.02394173,0.7884099,-0.006597164,1.86614,-61.62178,34.23
1,-1.0,-1.0,-1.0,0.6380093000000001,0.0,0.0,0.0,-26.97301,1.6389619999999998,-28.76656,-1.0,0.3469366,0.6023638000000001,0.7607138000000001,0.0,0.0,0.0,35.9512,1.242874,-29.41354,-1.0,0.3659933,0.6161227,-0.3529044,1.240699,0.1081453999999999,-0.02036682,0.7848845999999999,-0.00947029,1.86614,-61.62178,34.23
1,-1.0,-1.0,-1.0,0.6380093000000001,0.0,0.0,0.0,-26.97301,1.6389619999999998,-28.76656,-1.0,0.3469366,0.6023638000000001,0.7607138000000001,0.0,0.0,0.0,35.9512,1.242874,-29.41354,-1.0,0.3659933,0.6161227,-0.3529044,1.240699,0.1081453999999999,-0.02036682,0.7848845999999999,-0.00947029,1.86614,-61.62178,34.23
1,-1.0,-1.0,-1.0,0.6380093000000001,0.0,0.0,0.0,-26.97301,1.6389619999999998,-28.76656,-1.0,0.3469366,0.6023638000000001,0.7607138000000001,0.0,0.0,0.0,35.9512,1.242874,-29.41354,-1.0,0.3659933,0.6161227,-0.3529044,1.240699,0.1081453999999999,-0.02036682,0.7848845999999999,-0.00947029,1.86614,-61.62178,34.23
1,-1.0,-1.0,-1.0,0.5229523,0.0,0.0,0.0,-27.83133,1.084015,-28.96373,-1.0,0.373188,0.6919026,0.6353101999999999,0.0,0.0,0.0,35.79257,0.004180908,-29.86304,-1.0,0.364051,0.6354294,-0.3512557,1.239616,0.108964,-0.01566607,0.7811368000000001,-0.01250953,1.86614,-61.62178,34.23
1,-1.0,-1.0,-1.0,0.5229523,0.0,0.0,0.0,-27.83133,1.084015,-28.96373,-1.0,0.373188,0.6919026,0.6353101999999999,0.0,0.0,0.0,35.79257,0.004180908,-29.86304,-1.0,0.364051,0.6354294,-0.3512557,1.239616,0.108964,-0.01566607,0.7811368000000001,-0.01250953,1.86614,-61.62178,34.23
1,-1.0,-1.0,-1.0,0.5229523,0.0,0.0,0.0,-27.83133,1.084015,-28.96373,-1.0,0.373188,0.6919026,0.6353101999999999,0.0,0.0,0.0,35.79257,0.004180908,-29.86304,-1.0,0.364051,0.6354294,-0.3512557,1.239616,0.108964,-0.01566607,0.7811368000000001,-0.01250953,1.86614,-61.62178,34.23
1,-1.0,-1.0,-1.0,0.5229523,0.0,0.0,0.0,-27.83133,1.084015,-28.96373,-1.0,0.373188,0.6919026,0.6353101999999999,0.0,0.0,0.0,35.79257,0.004180908,-29.86304,-1.0,0.364051,0.6354294,-0.3494844,1.238415,0.1098481,-0.01029198,0.7769351999999999,-0.01637904,1.86614,-59.80718,34.23
1,-1.0,-1.0,-1.0,0.5229523,0.0,0.0,0.0,-27.83133,1.084015,-28.96373,-1.0,0.373188,0.6919026,0.6353101999999999,0.0,0.0,0.0,35.79257,0.004180908,-29.86304,-1.0,0.364051,0.6354294,-0.3494844,1.238415,0.1098481,-0.01029198,0.7769351999999999,-0.01637904,1.86614,-59.80718,34.23
1,-1.0,-1.0,-1.0,0.5229523,0.0,0.0,0.0,-27.83133,1.084015,-28.96373,-1.0,0.373188,0.6919026,0.6353101999999999,0.0,0.0,0.0,35.79257,0.004180908,-29.86304,-1.0,0.364051,0.6354294,-0.3494844,1.238415,0.1098481,-0.01029198,0.7769351999999999,-0.01637904,1.86614,-59.80718,34.23
1,-1.0,-1.0,-1.0,0.4258305,0.0,0.0,0.0,-27.92416,0.5016937,-29.37611,-1.0,0.3909856,0.6685454000000001,0.5210308,0.0,0.0,0.0,35.62491,0.2299347,-29.84673,-1.0,0.3842494999999999,0.6560927,-0.3476068,1.236773,0.1107728,-0.00472106,0.7721918000000001,-0.02185715,1.86614,-59.80718,34.23
1,-1.0,-1.0,-1.0,0.4258305,0.0,0.0,0.0,-27.92416,0.5016937,-29.37611,-1.0,0.3909856,0.6685454000000001,0.5210308,0.0,0.0,0.0,35.62491,0.2299347,-29.84673,-1.0,0.3842494999999999,0.6560927,-0.3476068,1.236773,0.1107728,-0.00472106,0.7721918000000001,-0.02185715,1.86614,-59.80718,34.23
1,-1.0,-1.0,-1.0,0.4258305,0.0,0.0,0.0,-27.92416,0.5016937,-29.37611,-1.0,0.3909856,0.6685454000000001,0.5210308,0.0,0.0,0.0,35.62491,0.2299347,-29.84673,-1.0,0.3842494999999999,0.6560927,-0.3476068,1.236773,0.1107728,-0.00472106,0.7721918000000001,-0.02185715,1.86614,-59.80718,34.23
1,-1.0,-1.0,-1.0,0.4258305,0.0,0.0,0.0,-27.9301,0.7244415,-29.24661,-1.0,0.3343935,0.6379444000000001,0.5210308,0.0,0.0,0.0,35.69086,0.3247375,-29.78847,-1.0,0.3806605999999999,0.6496559000000001,-0.3434662,1.233011,0.1124666,0.007986515,0.7610115,-0.03473314,1.86614,-59.80718,34.23
1,-1.0,-1.0,-1.0,0.4258305,0.0,0.0,0.0,-27.9301,0.7244415,-29.24661,-1.0,0.3343935,0.6379444000000001,0.5210308,0.0,0.0,0.0,35.69086,0.3247375,-29.78847,-1.0,0.3806605999999999,0.6496559000000001,-0.3434662,1.233011,0.1124666,0.007986515,0.7610115,-0.03473314,1.86614,-59.80718,34.23
1,-1.0,-1.0,-1.0,0.4258305,0.0,0.0,0.0,-27.9301,0.7244415,-29.24661,-1.0,0.3343935,0.6379444000000001,0.5210308,0.0,0.0,0.0,35.69086,0.3247375,-29.78847,-1.0,0.3806605999999999,0.6496559000000001,-0.3434662,1.233011,0.1124666,0.007986515,0.7610115,-0.03473314,1.86614,-59.80718,34.23
1,0.1955261,-0.4544067,0.8690491,0.5832061,0.01174927,-0.5544739000000001,0.8321075000000001,-27.41559,1.6947020000000002,-28.732090000000003,2.430893,0.3630585999999999,0.6090194999999999,0.72554,0.2343445,-0.4299164000000001,0.8719024999999999,34.9507,0.8211364999999999,-29.44211,2.806808,0.3921024,0.6135278000000001,-0.3412768,1.230708,0.1135208999999999,0.01580822,0.7547714,-0.04351417,1.86614,-59.80718,34.23
1,0.1955261,-0.4544067,0.8690491,0.5832061,0.01174927,-0.5544739000000001,0.8321075000000001,-27.41559,1.6947020000000002,-28.732090000000003,2.430893,0.3630585999999999,0.6090194999999999,0.72554,0.2343445,-0.4299164000000001,0.8719024999999999,34.9507,0.8211364999999999,-29.44211,2.806808,0.3921024,0.6135278000000001,-0.3412768,1.230708,0.1135208999999999,0.01580822,0.7547714,-0.04351417,1.86614,-59.80718,34.23
1,0.1955261,-0.4544067,0.8690491,0.5832061,0.01174927,-0.5544739000000001,0.8321075000000001,-27.41559,1.6947020000000002,-28.732090000000003,2.430893,0.3630585999999999,0.6090194999999999,0.72554,0.2343445,-0.4299164000000001,0.8719024999999999,34.9507,0.8211364999999999,-29.44211,2.806808,0.3921024,0.6135278000000001,-0.3412768,1.230708,0.1135208999999999,0.01580822,0.7547714,-0.04351417,1.86614,-59.80718,34.23
1,0.08197021,-0.4660339,0.8809509,0.5999279000000001,0.0004882813,-0.5022888,0.8646851000000001,-27.428040000000003,1.709167,-28.69643,2.737259,0.3654409,0.6001468000000001,0.7503739,0.09605408,-0.4593505999999999,0.8830261,35.35931,1.007904,-29.43814,2.881821,0.3953708,0.6107630000000001,-0.3389090999999999,1.228179,0.1145816,0.02393929,0.7479401999999999,-0.05298676,1.86614,29.37512,34.23
1,0.08197021,-0.4660339,0.8809509,0.5999279000000001,0.0004882813,-0.5022888,0.8646851000000001,-27.428040000000003,1.709167,-28.69643,2.737259,0.3654409,0.6001468000000001,0.7503739,0.09605408,-0.4593505999999999,0.8830261,35.35931,1.007904,-29.43814,2.881821,0.3953708,0.6107630000000001,-0.3389090999999999,1.228179,0.1145816,0.02393929,0.7479401999999999,-0.05298676,1.86614,29.37512,34.23
1,0.08197021,-0.4660339,0.8809509,0.5999279000000001,0.0004882813,-0.5022888,0.8646851000000001,-27.428040000000003,1.709167,-28.69643,2.737259,0.3654409,0.6001468000000001,0.7503739,0.09605408,-0.4593505999999999,0.8830261,35.35931,1.007904,-29.43814,2.881821,0.3953708,0.6107630000000001,-0.3389090999999999,1.228179,0.1145816,0.02393929,0.7479401999999999,-0.05298676,1.86614,29.37512,34.23
1,-0.004348755,-0.4096069,0.9122467,0.6540429,-0.0710143999999999,-0.4372253,0.8965301999999999,-27.59412,1.754059,-28.63638,2.653564,0.3803755,0.5888979,0.7905582,0.05030823,-0.3852997,0.9214171999999998,35.23758,1.215012,-29.33641,3.166382,0.4053328,0.5924444000000001,-0.3363653,1.225434,0.115489,0.03214598,0.7401223000000001,-0.06226521,1.86614,29.37512,34.23
1,-0.004348755,-0.4096069,0.9122467,0.6540429,-0.0710143999999999,-0.4372253,0.8965301999999999,-27.59412,1.754059,-28.63638,2.653564,0.3803755,0.5888979,0.7905582,0.05030823,-0.3852997,0.9214171999999998,35.23758,1.215012,-29.33641,3.166382,0.4053328,0.5924444000000001,-0.3363653,1.225434,0.115489,0.03214598,0.7401223000000001,-0.06226521,1.86614,29.37512,34.23
1,-0.004348755,-0.4096069,0.9122467,0.6540429,-0.0710143999999999,-0.4372253,0.8965301999999999,-27.59412,1.754059,-28.63638,2.653564,0.3803755,0.5888979,0.7905582,0.05030823,-0.3852997,0.9214171999999998,35.23758,1.215012,-29.33641,3.166382,0.4053328,0.5924444000000001,-0.3363653,1.225434,0.115489,0.03214598,0.7401223000000001,-0.06226521,1.86614,29.37512,34.23
2,0.01507568,-0.3830414,0.9235992,0.6675211999999999,-0.04998779,-0.3948975,0.9173584,-27.70042,1.621796,-28.72816,2.585205,0.381352,0.5884429,0.8148825,0.04872131,-0.3762512,0.9252167,35.190259999999995,1.195847,-29.32814,3.084457,0.4072529,0.5918361999999999,-0.3341433,1.222503,0.116781,0.04161644,0.7325928,-0.07296806,1.841796,29.37512,34.23
2,0.01507568,-0.3830414,0.9235992,0.6675211999999999,-0.04998779,-0.3948975,0.9173584,-27.70042,1.621796,-28.72816,2.585205,0.381352,0.5884429,0.8148825,0.04872131,-0.3762512,0.9252167,35.190259999999995,1.195847,-29.32814,3.084457,0.4072529,0.5918361999999999,-0.3341433,1.222503,0.116781,0.04161644,0.7325928,-0.07296806,1.841796,29.37512,34.23
2,0.01507568,-0.3830414,0.9235992,0.6675211999999999,-0.04998779,-0.3948975,0.9173584,-27.70042,1.621796,-28.72816,2.585205,0.381352,0.5884429,0.8148825,0.04872131,-0.3762512,0.9252167,35.190259999999995,1.195847,-29.32814,3.084457,0.4072529,0.5918361999999999,-0.3341433,1.222503,0.116781,0.04161644,0.7325928,-0.07296806,1.841796,29.37512,34.23
2,0.06419373,-0.5239716,0.8492889000000001,0.6508206999999999,0.0987854,-0.5260773,0.8446655000000001,-27.73364,0.7418823,-29.08505,2.852966,0.3627821,0.6412795,0.7342314999999999,0.03465271,-0.5216827,0.852417,35.26889,0.3811188,-29.73514,3.048996,0.4051323,0.6443145,-0.3291982,1.21624,0.1191771,0.06043366,0.7163911999999999,-0.09409153,1.841796,39.84315,34.23
2,0.06419373,-0.5239716,0.8492889000000001,0.6508206999999999,0.0987854,-0.5260773,0.8446655000000001,-27.73364,0.7418823,-29.08505,2.852966,0.3627821,0.6412795,0.7342314999999999,0.03465271,-0.5216827,0.852417,35.26889,0.3811188,-29.73514,3.048996,0.4051323,0.6443145,-0.3291982,1.21624,0.1191771,0.06043366,0.7163911999999999,-0.09409153,1.841796,39.84315,34.23
2,0.06419373,-0.5239716,0.8492889000000001,0.6508206999999999,0.0987854,-0.5260773,0.8446655000000001,-27.73364,0.7418823,-29.08505,2.852966,0.3627821,0.6412795,0.7342314999999999,0.03465271,-0.5216827,0.852417,35.26889,0.3811188,-29.73514,3.048996,0.4051323,0.6443145,-0.3291982,1.21624,0.1191771,0.06043366,0.7163911999999999,-0.09409153,1.841796,39.84315,34.23
2,-0.08622742,-0.4923247999999999,0.8661194,0.6597396,0.0302124,-0.5484619000000001,0.8356171,-27.5457,0.8695526,-29.11584,2.92276,0.3649118,0.640083,0.7491521,-0.131073,-0.4681549,0.8738556000000001,35.81633,0.2718811,-29.70528,3.26355,0.4064204,0.6409838999999999,-0.3270411,1.21304,0.120393,0.06916615,0.7084385999999999,-0.1048613,1.841796,39.84315,34.23
2,-0.08622742,-0.4923247999999999,0.8661194,0.6597396,0.0302124,-0.5484619000000001,0.8356171,-27.5457,0.8695526,-29.11584,2.92276,0.3649118,0.640083,0.7491521,-0.131073,-0.4681549,0.8738556000000001,35.81633,0.2718811,-29.70528,3.26355,0.4064204,0.6409838999999999,-0.3270411,1.21304,0.120393,0.06916615,0.7084385999999999,-0.1048613,1.841796,39.84315,34.23
2,-0.08622742,-0.4923247999999999,0.8661194,0.6597396,0.0302124,-0.5484619000000001,0.8356171,-27.5457,0.8695526,-29.11584,2.92276,0.3649118,0.640083,0.7491521,-0.131073,-0.4681549,0.8738556000000001,35.81633,0.2718811,-29.70528,3.26355,0.4064204,0.6409838999999999,-0.3270411,1.21304,0.120393,0.06916615,0.7084385999999999,-0.1048613,1.841796,39.84315,34.23
2,-0.08622742,-0.4923247999999999,0.8661194,0.6597396,0.0302124,-0.5484619000000001,0.8356171,-27.5457,0.8695526,-29.11584,2.92276,0.3649118,0.640083,0.7491521,-0.131073,-0.4681549,0.8738556000000001,35.81633,0.2718811,-29.70528,3.26355,0.4064204,0.6409838999999999,-0.3247552,1.210936,0.1215403999999999,0.07531098,0.7009264000000001,-0.1117385,1.841796,39.84315,34.23
2,-0.08622742,-0.4923247999999999,0.8661194,0.6597396,0.0302124,-0.5484619000000001,0.8356171,-27.5457,0.8695526,-29.11584,2.92276,0.3649118,0.640083,0.7491521,-0.131073,-0.4681549,0.8738556000000001,35.81633,0.2718811,-29.70528,3.26355,0.4064204,0.6409838999999999,-0.3247552,1.210936,0.1215403999999999,0.07531098,0.7009264000000001,-0.1117385,1.841796,39.84315,34.23
2,-0.08622742,-0.4923247999999999,0.8661194,0.6597396,0.0302124,-0.5484619000000001,0.8356171,-27.5457,0.8695526,-29.11584,2.92276,0.3649118,0.640083,0.7491521,-0.131073,-0.4681549,0.8738556000000001,35.81633,0.2718811,-29.70528,3.26355,0.4064204,0.6409838999999999,-0.3247552,1.210936,0.1215403999999999,0.07531098,0.7009264000000001,-0.1117385,1.841796,39.84315,34.23
2,0.06567383,-0.5650482,0.8224181999999999,0.6613055999999999,0.08175659,-0.4902039000000001,0.8677521,-27.83076,0.6645966,-29.10258,3.014145,0.3686193,0.6386658000000001,0.7504624,0.06031799,-0.5885161999999999,0.8062286,35.1636,0.5866547,-29.68539,3.054855,0.4054877,0.646663,-0.3225492,1.208859,0.122609,0.08077433,0.6939371,-0.1181845,1.841796,39.84315,34.23
2,0.06567383,-0.5650482,0.8224181999999999,0.6613055999999999,0.08175659,-0.4902039000000001,0.8677521,-27.83076,0.6645966,-29.10258,3.014145,0.3686193,0.6386658000000001,0.7504624,0.06031799,-0.5885161999999999,0.8062286,35.1636,0.5866547,-29.68539,3.054855,0.4054877,0.646663,-0.3225492,1.208859,0.122609,0.08077433,0.6939371,-0.1181845,1.841796,39.84315,34.23
2,0.06567383,-0.5650482,0.8224181999999999,0.6613055999999999,0.08175659,-0.4902039000000001,0.8677521,-27.83076,0.6645966,-29.10258,3.014145,0.3686193,0.6386658000000001,0.7504624,0.06031799,-0.5885161999999999,0.8062286,35.1636,0.5866547,-29.68539,3.054855,0.4054877,0.646663,-0.3225492,1.208859,0.122609,0.08077433,0.6939371,-0.1181845,1.841796,39.84315,34.23
2,0.06567383,-0.5650482,0.8224181999999999,0.6613055999999999,0.08175659,-0.4902039000000001,0.8677521,-27.83076,0.6645966,-29.10258,3.014145,0.3686193,0.6386658000000001,0.7504624,0.06031799,-0.5885161999999999,0.8062286,35.1636,0.5866547,-29.68539,3.054855,0.4054877,0.646663,-0.3205755,1.206702,0.1235696999999999,0.08781846,0.6871915,-0.1248905,1.841796,39.84315,34.23
2,0.06567383,-0.5650482,0.8224181999999999,0.6613055999999999,0.08175659,-0.4902039000000001,0.8677521,-27.83076,0.6645966,-29.10258,3.014145,0.3686193,0.6386658000000001,0.7504624,0.06031799,-0.5885161999999999,0.8062286,35.1636,0.5866547,-29.68539,3.054855,0.4054877,0.646663,-0.3205755,1.206702,0.1235696999999999,0.08781846,0.6871915,-0.1248905,1.841796,39.84315,34.23
2,0.06567383,-0.5650482,0.8224181999999999,0.6613055999999999,0.08175659,-0.4902039000000001,0.8677521,-27.83076,0.6645966,-29.10258,3.014145,0.3686193,0.6386658000000001,0.7504624,0.06031799,-0.5885161999999999,0.8062286,35.1636,0.5866547,-29.68539,3.054855,0.4054877,0.646663,-0.3205755,1.206702,0.1235696999999999,0.08781846,0.6871915,-0.1248905,1.841796,39.84315,34.23
2,-0.06838989,-0.4611815999999999,0.8846588,0.7559254,-0.08103943,-0.4654845999999999,0.8813171000000001,-27.89282,1.4867709999999998,-28.76535,3.13768,0.3919440999999999,0.6030837,0.8971036,-0.0562439,-0.4569702,0.8876953000000002,34.96591,1.056351,-29.377840000000003,3.200317,0.42731,0.6087419,-0.3184636,1.204331,0.1244035,0.09527759,0.6806449,-0.1315859,1.841796,39.84315,34.23
2,-0.06838989,-0.4611815999999999,0.8846588,0.7559254,-0.08103943,-0.4654845999999999,0.8813171000000001,-27.89282,1.4867709999999998,-28.76535,3.13768,0.3919440999999999,0.6030837,0.8971036,-0.0562439,-0.4569702,0.8876953000000002,34.96591,1.056351,-29.377840000000003,3.200317,0.42731,0.6087419,-0.3184636,1.204331,0.1244035,0.09527759,0.6806449,-0.1315859,1.841796,39.84315,34.23
2,-0.06838989,-0.4611815999999999,0.8846588,0.7559254,-0.08103943,-0.4654845999999999,0.8813171000000001,-27.89282,1.4867709999999998,-28.76535,3.13768,0.3919440999999999,0.6030837,0.8971036,-0.0562439,-0.4569702,0.8876953000000002,34.96591,1.056351,-29.377840000000003,3.200317,0.42731,0.6087419,-0.3184636,1.204331,0.1244035,0.09527759,0.6806449,-0.1315859,1.841796,39.84315,34.23
2,-0.06838989,-0.4611815999999999,0.8846588,0.7559254,-0.08103943,-0.4654845999999999,0.8813171000000001,-27.89282,1.4867709999999998,-28.76535,3.13768,0.3919440999999999,0.6030837,0.8971036,-0.0562439,-0.4569702,0.8876953000000002,34.96591,1.056351,-29.377840000000003,3.200317,0.42731,0.6087419,-0.3167026,1.201395,0.1251646,0.1031233999999999,0.6744058,-0.1397647,1.841796,21.00983,34.23
2,-0.06838989,-0.4611815999999999,0.8846588,0.7559254,-0.08103943,-0.4654845999999999,0.8813171000000001,-27.89282,1.4867709999999998,-28.76535,3.13768,0.3919440999999999,0.6030837,0.8971036,-0.0562439,-0.4569702,0.8876953000000002,34.96591,1.056351,-29.377840000000003,3.200317,0.42731,0.6087419,-0.3167026,1.201395,0.1251646,0.1031233999999999,0.6744058,-0.1397647,1.841796,21.00983,34.23
2,-0.06838989,-0.4611815999999999,0.8846588,0.7559254,-0.08103943,-0.4654845999999999,0.8813171000000001,-27.89282,1.4867709999999998,-28.76535,3.13768,0.3919440999999999,0.6030837,0.8971036,-0.0562439,-0.4569702,0.8876953000000002,34.96591,1.056351,-29.377840000000003,3.200317,0.42731,0.6087419,-0.3167026,1.201395,0.1251646,0.1031233999999999,0.6744058,-0.1397647,1.841796,21.00983,34.23
2,-0.06838989,-0.4611815999999999,0.8846588,0.7559254,-0.08103943,-0.4654845999999999,0.8813171000000001,-27.89282,1.4867709999999998,-28.76535,3.13768,0.3919440999999999,0.6030837,0.8971036,-0.0562439,-0.4569702,0.8876953000000002,34.96591,1.056351,-29.377840000000003,3.200317,0.42731,0.6087419,-0.3148598,1.198988,0.1261007,0.1108077,0.6685472,-0.1458645,1.841796,21.00983,34.23
2,-0.06838989,-0.4611815999999999,0.8846588,0.7559254,-0.08103943,-0.4654845999999999,0.8813171000000001,-27.89282,1.4867709999999998,-28.76535,3.13768,0.3919440999999999,0.6030837,0.8971036,-0.0562439,-0.4569702,0.8876953000000002,34.96591,1.056351,-29.377840000000003,3.200317,0.42731,0.6087419,-0.3148598,1.198988,0.1261007,0.1108077,0.6685472,-0.1458645,1.841796,21.00983,34.23
2,-0.06838989,-0.4611815999999999,0.8846588,0.7559254,-0.08103943,-0.4654845999999999,0.8813171000000001,-27.89282,1.4867709999999998,-28.76535,3.13768,0.3919440999999999,0.6030837,0.8971036,-0.0562439,-0.4569702,0.8876953000000002,34.96591,1.056351,-29.377840000000003,3.200317,0.42731,0.6087419,-0.3148598,1.198988,0.1261007,0.1108077,0.6685472,-0.1458645,1.841796,21.00983,34.23
2,-0.1012421,-0.4024353,0.9098206,0.7400618,-0.1250153,-0.4350433,0.8916779,-28.04774,1.763092,-28.67308,3.05397,0.4029487,0.5886859,0.8963061999999999,-0.08898926,-0.3854218,0.9184265,34.854,1.227432,-29.29587,3.16597,0.435417,0.5924954000000001,-0.3128357,1.196566,0.1270491,0.1174201,0.6626985,-0.1518378,1.841796,21.00983,34.23
2,-0.1012421,-0.4024353,0.9098206,0.7400618,-0.1250153,-0.4350433,0.8916779,-28.04774,1.763092,-28.67308,3.05397,0.4029487,0.5886859,0.8963061999999999,-0.08898926,-0.3854218,0.9184265,34.854,1.227432,-29.29587,3.16597,0.435417,0.5924954000000001,-0.3128357,1.196566,0.1270491,0.1174201,0.6626985,-0.1518378,1.841796,21.00983,34.23
2,-0.1012421,-0.4024353,0.9098206,0.7400618,-0.1250153,-0.4350433,0.8916779,-28.04774,1.763092,-28.67308,3.05397,0.4029487,0.5886859,0.8963061999999999,-0.08898926,-0.3854218,0.9184265,34.854,1.227432,-29.29587,3.16597,0.435417,0.5924954000000001,-0.3128357,1.196566,0.1270491,0.1174201,0.6626985,-0.1518378,1.841796,21.00983,34.23
2,-0.04450989,-0.5452728,0.8370666999999999,0.700743,-0.06645203,-0.4940643,0.8668671,-27.86598,1.284409,-28.89453,3.017868,0.3888851,0.6154393,0.7825338000000001,-0.02893066,-0.5800476,0.8140564,34.917559999999995,1.030426,-29.44968,2.987259,0.4255645999999999,0.6282715,-0.3112776,1.193464,0.1278962,0.1245845,0.6572835,-0.1571926,1.841796,21.00983,34.23
2,-0.04450989,-0.5452728,0.8370666999999999,0.700743,-0.06645203,-0.4940643,0.8668671,-27.86598,1.284409,-28.89453,3.017868,0.3888851,0.6154393,0.7825338000000001,-0.02893066,-0.5800476,0.8140564,34.917559999999995,1.030426,-29.44968,2.987259,0.4255645999999999,0.6282715,-0.3112776,1.193464,0.1278962,0.1245845,0.6572835,-0.1571926,1.841796,21.00983,34.23
2,-0.04450989,-0.5452728,0.8370666999999999,0.700743,-0.06645203,-0.4940643,0.8668671,-27.86598,1.284409,-28.89453,3.017868,0.3888851,0.6154393,0.7825338000000001,-0.02893066,-0.5800476,0.8140564,34.917559999999995,1.030426,-29.44968,2.987259,0.4255645999999999,0.6282715,-0.3112776,1.193464,0.1278962,0.1245845,0.6572835,-0.1571926,1.841796,21.00983,34.23
2,-0.04450989,-0.5452728,0.8370666999999999,0.700743,-0.06645203,-0.4940643,0.8668671,-27.86598,1.284409,-28.89453,3.017868,0.3888851,0.6154393,0.7825338000000001,-0.02893066,-0.5800476,0.8140564,34.917559999999995,1.030426,-29.44968,2.987259,0.4255645999999999,0.6282715,-0.309566,1.191185,0.1287844,0.1328144,0.6507619,-0.1639477999999999,1.841796,21.00983,34.23
2,-0.04450989,-0.5452728,0.8370666999999999,0.700743,-0.06645203,-0.4940643,0.8668671,-27.86598,1.284409,-28.89453,3.017868,0.3888851,0.6154393,0.7825338000000001,-0.02893066,-0.5800476,0.8140564,34.917559999999995,1.030426,-29.44968,2.987259,0.4255645999999999,0.6282715,-0.309566,1.191185,0.1287844,0.1328144,0.6507619,-0.1639477999999999,1.841796,21.00983,34.23
2,-0.04450989,-0.5452728,0.8370666999999999,0.700743,-0.06645203,-0.4940643,0.8668671,-27.86598,1.284409,-28.89453,3.017868,0.3888851,0.6154393,0.7825338000000001,-0.02893066,-0.5800476,0.8140564,34.917559999999995,1.030426,-29.44968,2.987259,0.4255645999999999,0.6282715,-0.309566,1.191185,0.1287844,0.1328144,0.6507619,-0.1639477999999999,1.841796,21.00983,34.23
2,-0.04450989,-0.5452728,0.8370666999999999,0.700743,-0.06645203,-0.4940643,0.8668671,-27.86598,1.284409,-28.89453,3.017868,0.3888851,0.6154393,0.7825338000000001,-0.02893066,-0.5800476,0.8140564,34.917559999999995,1.030426,-29.44968,2.987259,0.4255645999999999,0.6282715,-0.3082667999999999,1.188669,0.1298127,0.1398855,0.6444828,-0.1698209,1.841796,-19.6884,34.23
2,-0.04450989,-0.5452728,0.8370666999999999,0.700743,-0.06645203,-0.4940643,0.8668671,-27.86598,1.284409,-28.89453,3.017868,0.3888851,0.6154393,0.7825338000000001,-0.02893066,-0.5800476,0.8140564,34.917559999999995,1.030426,-29.44968,2.987259,0.4255645999999999,0.6282715,-0.3082667999999999,1.188669,0.1298127,0.1398855,0.6444828,-0.1698209,1.841796,-19.6884,34.23
2,-0.04450989,-0.5452728,0.8370666999999999,0.700743,-0.06645203,-0.4940643,0.8668671,-27.86598,1.284409,-28.89453,3.017868,0.3888851,0.6154393,0.7825338000000001,-0.02893066,-0.5800476,0.8140564,34.917559999999995,1.030426,-29.44968,2.987259,0.4255645999999999,0.6282715,-0.3082667999999999,1.188669,0.1298127,0.1398855,0.6444828,-0.1698209,1.841796,-19.6884,34.23
2,-0.04252625,-0.5798798000000001,0.8135834,0.7193799,-0.03530884,-0.579071,0.8144989,-27.89301,1.175064,-28.99686,2.9914400000000003,0.3855103,0.6327807,0.7729433000000001,-0.05012512,-0.5807036999999999,0.812561,35.020109999999995,0.9091644,-29.49478,3.194763,0.4242957,0.6329204,-0.3068752999999999,1.187032,0.1309614,0.1452335,0.6385723000000001,-0.1726868,1.841796,-19.6884,34.23
2,-0.04252625,-0.5798798000000001,0.8135834,0.7193799,-0.03530884,-0.579071,0.8144989,-27.89301,1.175064,-28.99686,2.9914400000000003,0.3855103,0.6327807,0.7729433000000001,-0.05012512,-0.5807036999999999,0.812561,35.020109999999995,0.9091644,-29.49478,3.194763,0.4242957,0.6329204,-0.3068752999999999,1.187032,0.1309614,0.1452335,0.6385723000000001,-0.1726868,1.841796,-19.6884,34.23
2,-0.04252625,-0.5798798000000001,0.8135834,0.7193799,-0.03530884,-0.579071,0.8144989,-27.89301,1.175064,-28.99686,2.9914400000000003,0.3855103,0.6327807,0.7729433000000001,-0.05012512,-0.5807036999999999,0.812561,35.020109999999995,0.9091644,-29.49478,3.194763,0.4242957,0.6329204,-0.3068752999999999,1.187032,0.1309614,0.1452335,0.6385723000000001,-0.1726868,1.841796,-19.6884,34.23
2,-0.06417847,-0.5301971,0.8454285,0.7098471,-0.05038452,-0.5398712,0.8402252,-27.91161,1.307678,-28.92171,3.074203,0.388356,0.6215053,0.8126784,-0.07571411,-0.5219574,0.8495940999999999,35.01781,0.9803009,-29.431990000000003,3.2955019999999995,0.4275710999999999,0.6212488,-0.3054706,1.185767,0.1318396,0.148773,0.6324846,-0.1738764,1.841796,-19.6884,34.23
2,-0.06417847,-0.5301971,0.8454285,0.7098471,-0.05038452,-0.5398712,0.8402252,-27.91161,1.307678,-28.92171,3.074203,0.388356,0.6215053,0.8126784,-0.07571411,-0.5219574,0.8495940999999999,35.01781,0.9803009,-29.431990000000003,3.2955019999999995,0.4275710999999999,0.6212488,-0.3054706,1.185767,0.1318396,0.148773,0.6324846,-0.1738764,1.841796,-19.6884,34.23
2,-0.06417847,-0.5301971,0.8454285,0.7098471,-0.05038452,-0.5398712,0.8402252,-27.91161,1.307678,-28.92171,3.074203,0.388356,0.6215053,0.8126784,-0.07571411,-0.5219574,0.8495940999999999,35.01781,0.9803009,-29.431990000000003,3.2955019999999995,0.4275710999999999,0.6212488,-0.3054706,1.185767,0.1318396,0.148773,0.6324846,-0.1738764,1.841796,-19.6884,34.23
2,-0.06417847,-0.5301971,0.8454285,0.7218443,-0.05038452,-0.5398712,0.8402252,-27.91161,1.307678,-28.92171,3.074203,0.388356,0.6215053,0.8339139000000001,-0.07571411,-0.5219574,0.8495940999999999,35.01781,0.9803009,-29.431990000000003,3.2955019999999995,0.4275710999999999,0.6212488,-0.3042859,1.184476,0.1328335,0.1529457,0.6264614000000001,-0.1760374,1.841796,-19.6884,34.23
2,-0.06417847,-0.5301971,0.8454285,0.7218443,-0.05038452,-0.5398712,0.8402252,-27.91161,1.307678,-28.92171,3.074203,0.388356,0.6215053,0.8339139000000001,-0.07571411,-0.5219574,0.8495940999999999,35.01781,0.9803009,-29.431990000000003,3.2955019999999995,0.4275710999999999,0.6212488,-0.3042859,1.184476,0.1328335,0.1529457,0.6264614000000001,-0.1760374,1.841796,-19.6884,34.23
2,-0.06417847,-0.5301971,0.8454285,0.7218443,-0.05038452,-0.5398712,0.8402252,-27.91161,1.307678,-28.92171,3.074203,0.388356,0.6215053,0.8339139000000001,-0.07571411,-0.5219574,0.8495940999999999,35.01781,0.9803009,-29.431990000000003,3.2955019999999995,0.4275710999999999,0.6212488,-0.3042859,1.184476,0.1328335,0.1529457,0.6264614000000001,-0.1760374,1.841796,-19.6884,34.23
2,-0.06417847,-0.5301971,0.8454285,0.7218443,-0.05038452,-0.5398712,0.8402252,-27.91161,1.307678,-28.92171,3.074203,0.388356,0.6215053,0.8339139000000001,-0.07571411,-0.5219574,0.8495940999999999,35.01781,0.9803009,-29.431990000000003,3.2955019999999995,0.4275710999999999,0.6212488,-0.3031950999999999,1.183142,0.1339736,0.1575955,0.6196904999999999,-0.1773305,1.841796,-19.6884,34.23
2,-0.06417847,-0.5301971,0.8454285,0.7218443,-0.05038452,-0.5398712,0.8402252,-27.91161,1.307678,-28.92171,3.074203,0.388356,0.6215053,0.8339139000000001,-0.07571411,-0.5219574,0.8495940999999999,35.01781,0.9803009,-29.431990000000003,3.2955019999999995,0.4275710999999999,0.6212488,-0.3031950999999999,1.183142,0.1339736,0.1575955,0.6196904999999999,-0.1773305,1.841796,-19.6884,34.23
2,-0.06417847,-0.5301971,0.8454285,0.7218443,-0.05038452,-0.5398712,0.8402252,-27.91161,1.307678,-28.92171,3.074203,0.388356,0.6215053,0.8339139000000001,-0.07571411,-0.5219574,0.8495940999999999,35.01781,0.9803009,-29.431990000000003,3.2955019999999995,0.4275710999999999,0.6212488,-0.3031950999999999,1.183142,0.1339736,0.1575955,0.6196904999999999,-0.1773305,1.841796,-19.6884,34.23
2,-0.06562805,-0.4759827,0.8769836,0.7515483000000001,-0.08006287,-0.4633179,0.8825530999999999,-28.03661,1.365891,-28.8566,3.09819,0.3966676,0.6078887,0.8926476999999999,-0.05744934,-0.4830779999999999,0.8736725000000001,34.739909999999995,0.8802184999999999,-29.49586,3.074203,0.4351688,0.6197746000000001,-0.3020804,1.182311,0.1355762,0.1621821,0.6129576999999999,-0.1786078,1.841796,-20.56104,34.23
2,-0.06562805,-0.4759827,0.8769836,0.7515483000000001,-0.08006287,-0.4633179,0.8825530999999999,-28.03661,1.365891,-28.8566,3.09819,0.3966676,0.6078887,0.8926476999999999,-0.05744934,-0.4830779999999999,0.8736725000000001,34.739909999999995,0.8802184999999999,-29.49586,3.074203,0.4351688,0.6197746000000001,-0.3020804,1.182311,0.1355762,0.1621821,0.6129576999999999,-0.1786078,1.841796,-20.56104,34.23
2,-0.06562805,-0.4759827,0.8769836,0.7515483000000001,-0.08006287,-0.4633179,0.8825530999999999,-28.03661,1.365891,-28.8566,3.09819,0.3966676,0.6078887,0.8926476999999999,-0.05744934,-0.4830779999999999,0.8736725000000001,34.739909999999995,0.8802184999999999,-29.49586,3.074203,0.4351688,0.6197746000000001,-0.3020804,1.182311,0.1355762,0.1621821,0.6129576999999999,-0.1786078,1.841796,-20.56104,34.23
2,-0.07635498,-0.4660645,0.8814392,0.7967385,-0.1031798999999999,-0.4812317,0.8704834000000001,-28.03468,1.363907,-28.87469,3.080414,0.3994281,0.6107627,0.8935558000000001,-0.06173706,-0.4575805999999999,0.8870087,34.731,0.8872528000000001,-29.46919,3.1444240000000003,0.4359761,0.6156414000000001,-0.3011944,1.180921,0.1368928999999999,0.1677793,0.6060399000000001,-0.1812773999999999,1.841796,-20.56104,34.23
2,-0.07635498,-0.4660645,0.8814392,0.7967385,-0.1031798999999999,-0.4812317,0.8704834000000001,-28.03468,1.363907,-28.87469,3.080414,0.3994281,0.6107627,0.8935558000000001,-0.06173706,-0.4575805999999999,0.8870087,34.731,0.8872528000000001,-29.46919,3.1444240000000003,0.4359761,0.6156414000000001,-0.3011944,1.180921,0.1368928999999999,0.1677793,0.6060399000000001,-0.1812773999999999,1.841796,-20.56104,34.23
2,-0.07635498,-0.4660645,0.8814392,0.7967385,-0.1031798999999999,-0.4812317,0.8704834000000001,-28.03468,1.363907,-28.87469,3.080414,0.3994281,0.6107627,0.8935558000000001,-0.06173706,-0.4575805999999999,0.8870087,34.731,0.8872528000000001,-29.46919,3.1444240000000003,0.4359761,0.6156414000000001,-0.3011944,1.180921,0.1368928999999999,0.1677793,0.6060399000000001,-0.1812773999999999,1.841796,-20.56104,34.23
2,-0.08834839,-0.4726867999999999,0.8767853000000001,0.8016652,-0.1160889,-0.5146637,0.8494873,-28.14487,1.391846,-28.88876,2.9816130000000003,0.4047602,0.6148905,0.9052913,-0.07063293,-0.4453278,0.8925629,34.70929,0.8926849,-29.46516,3.216263,0.4377374,0.6137235,-0.3003702,1.179733,0.1378492999999999,0.1725216,0.5995533000000001,-0.1824348999999999,1.841796,-20.56104,34.23
2,-0.08834839,-0.4726867999999999,0.8767853000000001,0.8016652,-0.1160889,-0.5146637,0.8494873,-28.14487,1.391846,-28.88876,2.9816130000000003,0.4047602,0.6148905,0.9052913,-0.07063293,-0.4453278,0.8925629,34.70929,0.8926849,-29.46516,3.216263,0.4377374,0.6137235,-0.3003702,1.179733,0.1378492999999999,0.1725216,0.5995533000000001,-0.1824348999999999,1.841796,-20.56104,34.23
2,-0.08834839,-0.4726867999999999,0.8767853000000001,0.8016652,-0.1160889,-0.5146637,0.8494873,-28.14487,1.391846,-28.88876,2.9816130000000003,0.4047602,0.6148905,0.9052913,-0.07063293,-0.4453278,0.8925629,34.70929,0.8926849,-29.46516,3.216263,0.4377374,0.6137235,-0.3003702,1.179733,0.1378492999999999,0.1725216,0.5995533000000001,-0.1824348999999999,1.841796,-20.56104,34.23
2,-0.09837341,-0.4320831,0.8964386000000001,0.8272488000000001,-0.1112823,-0.4398193,0.8911438,-28.19438,1.422302,-28.85019,3.284164,0.4061661,0.6026296999999999,0.906762,-0.08728027,-0.425354,0.9008026,34.575759999999995,1.084534,-29.399140000000003,3.29039,0.4443787,0.6038595,-0.2996177,1.178968,0.1386878,0.1757183,0.5939059,-0.1828018,1.841796,-20.56104,34.23
2,-0.09837341,-0.4320831,0.8964386000000001,0.8272488000000001,-0.1112823,-0.4398193,0.8911438,-28.19438,1.422302,-28.85019,3.284164,0.4061661,0.6026296999999999,0.906762,-0.08728027,-0.425354,0.9008026,34.575759999999995,1.084534,-29.399140000000003,3.29039,0.4443787,0.6038595,-0.2996177,1.178968,0.1386878,0.1757183,0.5939059,-0.1828018,1.841796,-20.56104,34.23
2,-0.09837341,-0.4320831,0.8964386000000001,0.8272488000000001,-0.1112823,-0.4398193,0.8911438,-28.19438,1.422302,-28.85019,3.284164,0.4061661,0.6026296999999999,0.906762,-0.08728027,-0.425354,0.9008026,34.575759999999995,1.084534,-29.399140000000003,3.29039,0.4443787,0.6038595,-0.2996177,1.178968,0.1386878,0.1757183,0.5939059,-0.1828018,1.841796,-20.56104,34.23
2,-0.1035003999999999,-0.4256287,0.898941,0.8375799999999999,-0.1318512,-0.4524384,0.8819885000000001,-28.196,1.455597,-28.82225,3.128906,0.4087197999999999,0.6031393,0.9162483,-0.09228516,-0.4148712,0.9051819,34.51967,1.104782,-29.38829,3.197861,0.4470615,0.6017123000000001,-0.2989579,1.178197,0.1394076,0.1789823999999999,0.5888351,-0.1838262,1.841796,-20.56104,34.23
2,-0.1035003999999999,-0.4256287,0.898941,0.8375799999999999,-0.1318512,-0.4524384,0.8819885000000001,-28.196,1.455597,-28.82225,3.128906,0.4087197999999999,0.6031393,0.9162483,-0.09228516,-0.4148712,0.9051819,34.51967,1.104782,-29.38829,3.197861,0.4470615,0.6017123000000001,-0.2989579,1.178197,0.1394076,0.1789823999999999,0.5888351,-0.1838262,1.841796,-20.56104,34.23
2,-0.1035003999999999,-0.4256287,0.898941,0.8375799999999999,-0.1318512,-0.4524384,0.8819885000000001,-28.196,1.455597,-28.82225,3.128906,0.4087197999999999,0.6031393,0.9162483,-0.09228516,-0.4148712,0.9051819,34.51967,1.104782,-29.38829,3.197861,0.4470615,0.6017123000000001,-0.2989579,1.178197,0.1394076,0.1789823999999999,0.5888351,-0.1838262,1.841796,-20.56104,34.23
2,-0.1169891,-0.4141541,0.9026489,0.8654951,-0.1540527,-0.4099731,0.8989868000000001,-28.31625,1.511566,-28.82141,3.123688,0.4157109,0.5954670999999999,0.9300644,-0.1006011999999999,-0.415802,0.9038544,34.46074,1.171555,-29.37372,3.229889,0.4500699999999999,0.599484,-0.2982225,1.177734,0.1395357,0.180669,0.5852169,-0.1836948,1.841796,18.83049,34.23
2,-0.1169891,-0.4141541,0.9026489,0.8654951,-0.1540527,-0.4099731,0.8989868000000001,-28.31625,1.511566,-28.82141,3.123688,0.4157109,0.5954670999999999,0.9300644,-0.1006011999999999,-0.415802,0.9038544,34.46074,1.171555,-29.37372,3.229889,0.4500699999999999,0.599484,-0.2982225,1.177734,0.1395357,0.180669,0.5852169,-0.1836948,1.841796,18.83049,34.23
2,-0.1169891,-0.4141541,0.9026489,0.8654951,-0.1540527,-0.4099731,0.8989868000000001,-28.31625,1.511566,-28.82141,3.123688,0.4157109,0.5954670999999999,0.9300644,-0.1006011999999999,-0.415802,0.9038544,34.46074,1.171555,-29.37372,3.229889,0.4500699999999999,0.599484,-0.2982225,1.177734,0.1395357,0.180669,0.5852169,-0.1836948,1.841796,18.83049,34.23
2,-0.1169891,-0.4141541,0.9026489,0.8815185999999999,-0.1540527,-0.4099731,0.8989868000000001,-28.31625,1.511566,-28.82141,3.123688,0.4157109,0.5954670999999999,0.9498345,-0.1006011999999999,-0.415802,0.9038544,34.46074,1.171555,-29.37372,3.229889,0.4500699999999999,0.599484,-0.2975650999999999,1.177677,0.1396546,0.1816079,0.5827219,-0.1840403,1.841796,18.83049,34.23
2,-0.1169891,-0.4141541,0.9026489,0.8815185999999999,-0.1540527,-0.4099731,0.8989868000000001,-28.31625,1.511566,-28.82141,3.123688,0.4157109,0.5954670999999999,0.9498345,-0.1006011999999999,-0.415802,0.9038544,34.46074,1.171555,-29.37372,3.229889,0.4500699999999999,0.599484,-0.2975650999999999,1.177677,0.1396546,0.1816079,0.5827219,-0.1840403,1.841796,18.83049,34.23
2,-0.1169891,-0.4141541,0.9026489,0.8815185999999999,-0.1540527,-0.4099731,0.8989868000000001,-28.31625,1.511566,-28.82141,3.123688,0.4157109,0.5954670999999999,0.9498345,-0.1006011999999999,-0.415802,0.9038544,34.46074,1.171555,-29.37372,3.229889,0.4500699999999999,0.599484,-0.2975650999999999,1.177677,0.1396546,0.1816079,0.5827219,-0.1840403,1.841796,18.83049,34.23
2,-0.1353149,-0.3813019,0.9144745,0.8985812,-0.1675415,-0.3903351,0.9052886999999998,-28.42685,1.540848,-28.8289,3.130142,0.4212332,0.5919493,0.9503056,-0.1100158999999999,-0.3739319,0.9208984,34.334270000000004,1.217422,-29.36191,3.317825,0.4554912,0.5921751000000001,-0.2968453,1.178033,0.1386687,0.1811882,0.5819154000000001,-0.1852006,1.841796,18.83049,34.23
2,-0.1353149,-0.3813019,0.9144745,0.8985812,-0.1675415,-0.3903351,0.9052886999999998,-28.42685,1.540848,-28.8289,3.130142,0.4212332,0.5919493,0.9503056,-0.1100158999999999,-0.3739319,0.9208984,34.334270000000004,1.217422,-29.36191,3.317825,0.4554912,0.5921751000000001,-0.2968453,1.178033,0.1386687,0.1811882,0.5819154000000001,-0.1852006,1.841796,18.83049,34.23
2,-0.1353149,-0.3813019,0.9144745,0.8985812,-0.1675415,-0.3903351,0.9052886999999998,-28.42685,1.540848,-28.8289,3.130142,0.4212332,0.5919493,0.9503056,-0.1100158999999999,-0.3739319,0.9208984,34.334270000000004,1.217422,-29.36191,3.317825,0.4554912,0.5921751000000001,-0.2968453,1.178033,0.1386687,0.1811882,0.5819154000000001,-0.1852006,1.841796,18.83049,34.23
2,-0.1384735,-0.3911133,0.9098511,0.9027719,-0.1688232,-0.3957825,0.9026794,-28.42497,1.5824129999999998,-28.80733,3.181442,0.4213613,0.5910397,0.959992,-0.1141051999999999,-0.387085,0.9149475,34.2863,1.269608,-29.3564,3.30101,0.4576502,0.5921751000000001,-0.2966087999999999,1.178407,0.137766,0.1802312999999999,0.5832541,-0.1851266,1.841796,18.83049,34.23
2,-0.1384735,-0.3911133,0.9098511,0.9027719,-0.1688232,-0.3957825,0.9026794,-28.42497,1.5824129999999998,-28.80733,3.181442,0.4213613,0.5910397,0.959992,-0.1141051999999999,-0.387085,0.9149475,34.2863,1.269608,-29.3564,3.30101,0.4576502,0.5921751000000001,-0.2966087999999999,1.178407,0.137766,0.1802312999999999,0.5832541,-0.1851266,1.841796,18.83049,34.23
2,-0.1384735,-0.3911133,0.9098511,0.9027719,-0.1688232,-0.3957825,0.9026794,-28.42497,1.5824129999999998,-28.80733,3.181442,0.4213613,0.5910397,0.959992,-0.1141051999999999,-0.387085,0.9149475,34.2863,1.269608,-29.3564,3.30101,0.4576502,0.5921751000000001,-0.2966087999999999,1.178407,0.137766,0.1802312999999999,0.5832541,-0.1851266,1.841796,18.83049,34.23
2,-0.1377869,-0.3864899,0.9119263,0.9107951,-0.1682587,-0.3923186999999999,0.9042969,-28.4272,1.5715940000000002,-28.81741,3.172043,0.4213613,0.5910397,0.9591843,-0.1135253999999999,-0.3816071,0.9173126,34.287490000000005,1.269379,-29.35576,3.289963,0.4575623,0.5914178000000001,-0.2966569,1.178634,0.1368272,0.1793236,0.5852377,-0.1854588999999999,1.841796,26.6292,34.23
2,-0.1377869,-0.3864899,0.9119263,0.9107951,-0.1682587,-0.3923186999999999,0.9042969,-28.4272,1.5715940000000002,-28.81741,3.172043,0.4213613,0.5910397,0.9591843,-0.1135253999999999,-0.3816071,0.9173126,34.287490000000005,1.269379,-29.35576,3.289963,0.4575623,0.5914178000000001,-0.2966569,1.178634,0.1368272,0.1793236,0.5852377,-0.1854588999999999,1.841796,26.6292,34.23
2,-0.1377869,-0.3864899,0.9119263,0.9107951,-0.1682587,-0.3923186999999999,0.9042969,-28.4272,1.5715940000000002,-28.81741,3.172043,0.4213613,0.5910397,0.9591843,-0.1135253999999999,-0.3816071,0.9173126,34.287490000000005,1.269379,-29.35576,3.289963,0.4575623,0.5914178000000001,-0.2966569,1.178634,0.1368272,0.1793236,0.5852377,-0.1854588999999999,1.841796,26.6292,34.23
2,-0.1298981,-0.3864594,0.9131011999999998,0.9261084,-0.1657104,-0.3926392,0.9046326,-28.42468,1.572372,-28.81741,3.16011,0.4209545,0.5910397,0.9721861,-0.1091614,-0.3826447,0.9174194,34.28836,1.267059,-29.35416,3.288559,0.4570060999999999,0.5915993,-0.2967971,1.1787219999999998,0.1358599999999999,0.1785421,0.5872304,-0.1853583999999999,1.841796,26.6292,34.23
2,-0.1298981,-0.3864594,0.9131011999999998,0.9261084,-0.1657104,-0.3926392,0.9046326,-28.42468,1.572372,-28.81741,3.16011,0.4209545,0.5910397,0.9721861,-0.1091614,-0.3826447,0.9174194,34.28836,1.267059,-29.35416,3.288559,0.4570060999999999,0.5915993,-0.2967971,1.1787219999999998,0.1358599999999999,0.1785421,0.5872304,-0.1853583999999999,1.841796,26.6292,34.23
2,-0.1298981,-0.3864594,0.9131011999999998,0.9261084,-0.1657104,-0.3926392,0.9046326,-28.42468,1.572372,-28.81741,3.16011,0.4209545,0.5910397,0.9721861,-0.1091614,-0.3826447,0.9174194,34.28836,1.267059,-29.35416,3.288559,0.4570060999999999,0.5915993,-0.2967971,1.1787219999999998,0.1358599999999999,0.1785421,0.5872304,-0.1853583999999999,1.841796,26.6292,34.23
2,-0.1349487,-0.386673,0.9122772,0.9254789,-0.1684723,-0.3923798,0.9042358,-28.409740000000003,1.571991,-28.81796,3.166321,0.4207835,0.5910408,0.9717119,-0.1105803999999999,-0.3822632,0.9174042,34.29533,1.265015,-29.3512,3.28891,0.4569406,0.5915978,-0.297027,1.178702,0.1348846,0.1777991,0.5896594000000001,-0.1857117,1.841796,26.6292,34.23
2,-0.1349487,-0.386673,0.9122772,0.9254789,-0.1684723,-0.3923798,0.9042358,-28.409740000000003,1.571991,-28.81796,3.166321,0.4207835,0.5910408,0.9717119,-0.1105803999999999,-0.3822632,0.9174042,34.29533,1.265015,-29.3512,3.28891,0.4569406,0.5915978,-0.297027,1.178702,0.1348846,0.1777991,0.5896594000000001,-0.1857117,1.841796,26.6292,34.23
2,-0.1349487,-0.386673,0.9122772,0.9254789,-0.1684723,-0.3923798,0.9042358,-28.409740000000003,1.571991,-28.81796,3.166321,0.4207835,0.5910408,0.9717119,-0.1105803999999999,-0.3822632,0.9174042,34.29533,1.265015,-29.3512,3.28891,0.4569406,0.5915978,-0.297027,1.178702,0.1348846,0.1777991,0.5896594000000001,-0.1857117,1.841796,26.6292,34.23
3,-0.133316,-0.3856964,0.9129333,0.9369747,-0.1620026,-0.392807,0.9052277,-28.38321,1.562698,-28.82915,3.126785,0.4190443,0.5914897,0.9751406,-0.1126556,-0.3803710999999999,0.9179382,34.31873,1.2562870000000002,-29.34589,3.289429,0.4563927,0.5915993,-0.2971794,1.178854,0.1340884,0.1764003999999999,0.5923855,-0.1858803999999999,1.841796,26.6292,34.23
3,-0.133316,-0.3856964,0.9129333,0.9369747,-0.1620026,-0.392807,0.9052277,-28.38321,1.562698,-28.82915,3.126785,0.4190443,0.5914897,0.9751406,-0.1126556,-0.3803710999999999,0.9179382,34.31873,1.2562870000000002,-29.34589,3.289429,0.4563927,0.5915993,-0.2971794,1.178854,0.1340884,0.1764003999999999,0.5923855,-0.1858803999999999,1.841796,26.6292,34.23
3,-0.133316,-0.3856964,0.9129333,0.9369747,-0.1620026,-0.392807,0.9052277,-28.38321,1.562698,-28.82915,3.126785,0.4190443,0.5914897,0.9751406,-0.1126556,-0.3803710999999999,0.9179382,34.31873,1.2562870000000002,-29.34589,3.289429,0.4563927,0.5915993,-0.2971794,1.178854,0.1340884,0.1764003999999999,0.5923855,-0.1858803999999999,1.841796,26.6292,34.23
3,-0.1275787,-0.3869019,0.9132385,0.9308088,-0.1615448,-0.3925171,0.9054413,-28.37404,1.562622,-28.83827,3.120514,0.4186670999999999,0.5915381,0.9650162,-0.1038055,-0.3827057,0.9180145,34.33205,1.2562870000000002,-29.343840000000004,3.278214,0.4548832,0.5918149,-0.2975100999999999,1.179348,0.1332799,0.1742203,0.5957255,-0.1857633,1.841796,26.6292,34.23
3,-0.1275787,-0.3869019,0.9132385,0.9308088,-0.1615448,-0.3925171,0.9054413,-28.37404,1.562622,-28.83827,3.120514,0.4186670999999999,0.5915381,0.9650162,-0.1038055,-0.3827057,0.9180145,34.33205,1.2562870000000002,-29.343840000000004,3.278214,0.4548832,0.5918149,-0.2975100999999999,1.179348,0.1332799,0.1742203,0.5957255,-0.1857633,1.841796,26.6292,34.23
3,-0.1275787,-0.3869019,0.9132385,0.9308088,-0.1615448,-0.3925171,0.9054413,-28.37404,1.562622,-28.83827,3.120514,0.4186670999999999,0.5915381,0.9650162,-0.1038055,-0.3827057,0.9180145,34.33205,1.2562870000000002,-29.343840000000004,3.278214,0.4548832,0.5918149,-0.2975100999999999,1.179348,0.1332799,0.1742203,0.5957255,-0.1857633,1.841796,26.6292,34.23
3,-0.1275787,-0.3869019,0.9132385,0.9308088,-0.1615448,-0.3925171,0.9054413,-28.37404,1.562622,-28.83827,3.120514,0.4186670999999999,0.5915381,0.9650162,-0.1038055,-0.3827057,0.9180145,34.33205,1.2562870000000002,-29.343840000000004,3.278214,0.4548832,0.5918149,-0.2978341,1.180227,0.1323388999999999,0.1709063999999999,0.5997444000000001,-0.1845079,1.841796,1.747406,34.23
3,-0.1275787,-0.3869019,0.9132385,0.9308088,-0.1615448,-0.3925171,0.9054413,-28.37404,1.562622,-28.83827,3.120514,0.4186670999999999,0.5915381,0.9650162,-0.1038055,-0.3827057,0.9180145,34.33205,1.2562870000000002,-29.343840000000004,3.278214,0.4548832,0.5918149,-0.2978341,1.180227,0.1323388999999999,0.1709063999999999,0.5997444000000001,-0.1845079,1.841796,1.747406,34.23
3,-0.1275787,-0.3869019,0.9132385,0.9308088,-0.1615448,-0.3925171,0.9054413,-28.37404,1.562622,-28.83827,3.120514,0.4186670999999999,0.5915381,0.9650162,-0.1038055,-0.3827057,0.9180145,34.33205,1.2562870000000002,-29.343840000000004,3.278214,0.4548832,0.5918149,-0.2978341,1.180227,0.1323388999999999,0.1709063999999999,0.5997444000000001,-0.1845079,1.841796,1.747406,34.23
3,-0.2210083,-0.1629486,0.9615479,0.9563444,-0.2648621,-0.1923981,0.9448853000000002,-28.76288,2.706818,-28.6114,3.182587,0.4453268,0.5248823,0.9319078000000002,-0.2038727,-0.1514282,0.9672089,33.74348,2.312927,-29.20261,3.4077910000000005,0.4872894,0.5255831,-0.2980749,1.181083,0.1310478,0.1673558,0.6044096,-0.1821882999999999,1.841796,1.747406,34.25
3,-0.2210083,-0.1629486,0.9615479,0.9563444,-0.2648621,-0.1923981,0.9448853000000002,-28.76288,2.706818,-28.6114,3.182587,0.4453268,0.5248823,0.9319078000000002,-0.2038727,-0.1514282,0.9672089,33.74348,2.312927,-29.20261,3.4077910000000005,0.4872894,0.5255831,-0.2980749,1.181083,0.1310478,0.1673558,0.6044096,-0.1821882999999999,1.841796,1.747406,34.25
3,-0.2210083,-0.1629486,0.9615479,0.9563444,-0.2648621,-0.1923981,0.9448853000000002,-28.76288,2.706818,-28.6114,3.182587,0.4453268,0.5248823,0.9319078000000002,-0.2038727,-0.1514282,0.9672089,33.74348,2.312927,-29.20261,3.4077910000000005,0.4872894,0.5255831,-0.2980749,1.181083,0.1310478,0.1673558,0.6044096,-0.1821882999999999,1.841796,1.747406,34.25
3,-0.2084198,-0.1822967999999999,0.9608917,1.0,-0.2501526,-0.2026367,0.9467468,-28.72943,2.647934,-28.61728,3.109833,0.4423452999999999,0.5280895,1.0,-0.1832427999999999,-0.1699219,0.9682617,33.93427,2.228333,-29.18401,3.08316,0.4788254,0.5302343,-0.2990061,1.183961,0.1289674999999999,0.1590593,0.6154156,-0.1772882999999999,1.841796,1.747406,34.25
3,-0.2084198,-0.1822967999999999,0.9608917,1.0,-0.2501526,-0.2026367,0.9467468,-28.72943,2.647934,-28.61728,3.109833,0.4423452999999999,0.5280895,1.0,-0.1832427999999999,-0.1699219,0.9682617,33.93427,2.228333,-29.18401,3.08316,0.4788254,0.5302343,-0.2990061,1.183961,0.1289674999999999,0.1590593,0.6154156,-0.1772882999999999,1.841796,1.747406,34.25
3,-0.2084198,-0.1822967999999999,0.9608917,1.0,-0.2501526,-0.2026367,0.9467468,-28.72943,2.647934,-28.61728,3.109833,0.4423452999999999,0.5280895,1.0,-0.1832427999999999,-0.1699219,0.9682617,33.93427,2.228333,-29.18401,3.08316,0.4788254,0.5302343,-0.2990061,1.183961,0.1289674999999999,0.1590593,0.6154156,-0.1772882999999999,1.841796,1.747406,34.25
3,-0.2024688999999999,-0.1733704,0.9638062,1.0,-0.2306061,-0.1959686,0.9530945,-28.65596,2.620636,-28.60902,3.135269,0.4374139,0.527949,1.0,-0.1841887999999999,-0.1586761,0.969986,33.98441,2.180771,-29.20381,3.228943,0.4769927,0.5306522,-0.2995525,1.185582,0.1276495,0.1539198,0.6216765000000001,-0.1740047,1.841796,1.747406,34.25
3,-0.2024688999999999,-0.1733704,0.9638062,1.0,-0.2306061,-0.1959686,0.9530945,-28.65596,2.620636,-28.60902,3.135269,0.4374139,0.527949,1.0,-0.1841887999999999,-0.1586761,0.969986,33.98441,2.180771,-29.20381,3.228943,0.4769927,0.5306522,-0.2995525,1.185582,0.1276495,0.1539198,0.6216765000000001,-0.1740047,1.841796,1.747406,34.25
3,-0.2024688999999999,-0.1733704,0.9638062,1.0,-0.2306061,-0.1959686,0.9530945,-28.65596,2.620636,-28.60902,3.135269,0.4374139,0.527949,1.0,-0.1841887999999999,-0.1586761,0.969986,33.98441,2.180771,-29.20381,3.228943,0.4769927,0.5306522,-0.2995525,1.185582,0.1276495,0.1539198,0.6216765000000001,-0.1740047,1.841796,1.747406,34.25
3,-0.1910858,-0.1722717,0.9663239,1.0,-0.2284851,-0.2183075,0.9487457,-28.619740000000004,2.60112,-28.607940000000003,3.042725,0.4358944999999999,0.5313916,1.0,-0.1684112999999999,-0.1444702,0.9750671,34.02405,2.143173,-29.19722,3.269073,0.4736992999999999,0.5299453000000001,-0.3001078,1.187318,0.1263256,0.1484987,0.6282939999999999,-0.1701797999999999,1.841796,1.747406,34.25
3,-0.1910858,-0.1722717,0.9663239,1.0,-0.2284851,-0.2183075,0.9487457,-28.619740000000004,2.60112,-28.607940000000003,3.042725,0.4358944999999999,0.5313916,1.0,-0.1684112999999999,-0.1444702,0.9750671,34.02405,2.143173,-29.19722,3.269073,0.4736992999999999,0.5299453000000001,-0.3001078,1.187318,0.1263256,0.1484987,0.6282939999999999,-0.1701797999999999,1.841796,1.747406,34.25
3,-0.1910858,-0.1722717,0.9663239,1.0,-0.2284851,-0.2183075,0.9487457,-28.619740000000004,2.60112,-28.607940000000003,3.042725,0.4358944999999999,0.5313916,1.0,-0.1684112999999999,-0.1444702,0.9750671,34.02405,2.143173,-29.19722,3.269073,0.4736992999999999,0.5299453000000001,-0.3001078,1.187318,0.1263256,0.1484987,0.6282939999999999,-0.1701797999999999,1.841796,1.747406,34.25
3,-0.1910858,-0.1722717,0.9663239,1.0,-0.2284851,-0.2183075,0.9487457,-28.619740000000004,2.60112,-28.607940000000003,3.042725,0.4358944999999999,0.5313916,1.0,-0.1684112999999999,-0.1444702,0.9750671,34.02405,2.143173,-29.19722,3.269073,0.4736992999999999,0.5299453000000001,-0.3006076,1.189382,0.1248122,0.1417191,0.6352143,-0.1648417,1.841796,-37.65039,34.25
3,-0.1910858,-0.1722717,0.9663239,1.0,-0.2284851,-0.2183075,0.9487457,-28.619740000000004,2.60112,-28.607940000000003,3.042725,0.4358944999999999,0.5313916,1.0,-0.1684112999999999,-0.1444702,0.9750671,34.02405,2.143173,-29.19722,3.269073,0.4736992999999999,0.5299453000000001,-0.3006076,1.189382,0.1248122,0.1417191,0.6352143,-0.1648417,1.841796,-37.65039,34.25
3,-0.1910858,-0.1722717,0.9663239,1.0,-0.2284851,-0.2183075,0.9487457,-28.619740000000004,2.60112,-28.607940000000003,3.042725,0.4358944999999999,0.5313916,1.0,-0.1684112999999999,-0.1444702,0.9750671,34.02405,2.143173,-29.19722,3.269073,0.4736992999999999,0.5299453000000001,-0.3006076,1.189382,0.1248122,0.1417191,0.6352143,-0.1648417,1.841796,-37.65039,34.25
3,-0.186615,-0.1756439,0.9665985,1.0,-0.2194824,-0.2136382999999999,0.9519348,-28.6086,2.586884,-28.60988,3.049286,0.4343989,0.5312307,1.0,-0.1672821,-0.1533507999999999,0.9739075,34.03865,2.124756,-29.19713,3.16127,0.4732214,0.5316320999999999,-0.3011479,1.191824,0.1233854,0.1346819,0.6422770999999999,-0.1587907999999999,1.841796,-37.65039,34.25
3,-0.186615,-0.1756439,0.9665985,1.0,-0.2194824,-0.2136382999999999,0.9519348,-28.6086,2.586884,-28.60988,3.049286,0.4343989,0.5312307,1.0,-0.1672821,-0.1533507999999999,0.9739075,34.03865,2.124756,-29.19713,3.16127,0.4732214,0.5316320999999999,-0.3011479,1.191824,0.1233854,0.1346819,0.6422770999999999,-0.1587907999999999,1.841796,-37.65039,34.25
3,-0.186615,-0.1756439,0.9665985,1.0,-0.2194824,-0.2136382999999999,0.9519348,-28.6086,2.586884,-28.60988,3.049286,0.4343989,0.5312307,1.0,-0.1672821,-0.1533507999999999,0.9739075,34.03865,2.124756,-29.19713,3.16127,0.4732214,0.5316320999999999,-0.3011479,1.191824,0.1233854,0.1346819,0.6422770999999999,-0.1587907999999999,1.841796,-37.65039,34.25
3,-0.1421509,-0.2295684999999999,0.9628448,1.0,-0.1787567,-0.2414703,0.9537964,-28.33253,2.38092,-28.65646,3.18338,0.4198669,0.5419428000000001,1.0,-0.1218872,-0.2228546,0.9671936,34.32631,1.893784,-29.19536,3.213028,0.4577969,0.5478221,-0.3018372,1.194323,0.1223766,0.1281762,0.6492319000000001,-0.1514517,1.841796,-37.65039,34.25
3,-0.1421509,-0.2295684999999999,0.9628448,1.0,-0.1787567,-0.2414703,0.9537964,-28.33253,2.38092,-28.65646,3.18338,0.4198669,0.5419428000000001,1.0,-0.1218872,-0.2228546,0.9671936,34.32631,1.893784,-29.19536,3.213028,0.4577969,0.5478221,-0.3018372,1.194323,0.1223766,0.1281762,0.6492319000000001,-0.1514517,1.841796,-37.65039,34.25
3,-0.1421509,-0.2295684999999999,0.9628448,1.0,-0.1787567,-0.2414703,0.9537964,-28.33253,2.38092,-28.65646,3.18338,0.4198669,0.5419428000000001,1.0,-0.1218872,-0.2228546,0.9671936,34.32631,1.893784,-29.19536,3.213028,0.4577969,0.5478221,-0.3018372,1.194323,0.1223766,0.1281762,0.6492319000000001,-0.1514517,1.841796,-37.65039,34.25
3,-0.1306305,-0.2203827,0.9666138,1.0,-0.1743164,-0.2433777,0.9541321,-28.29671,2.334305,-28.63536,3.217026,0.4180923,0.5435597,1.0,-0.1057280999999999,-0.2070922999999999,0.97258,34.39139,1.827423,-29.200940000000003,3.150391,0.4537249,0.5479576,-0.3028019,1.196799,0.1210883,0.1218756,0.6560708000000001,-0.1432744,1.841796,-37.65039,34.25
3,-0.1306305,-0.2203827,0.9666138,1.0,-0.1743164,-0.2433777,0.9541321,-28.29671,2.334305,-28.63536,3.217026,0.4180923,0.5435597,1.0,-0.1057280999999999,-0.2070922999999999,0.97258,34.39139,1.827423,-29.200940000000003,3.150391,0.4537249,0.5479576,-0.3028019,1.196799,0.1210883,0.1218756,0.6560708000000001,-0.1432744,1.841796,-37.65039,34.25
3,-0.1306305,-0.2203827,0.9666138,1.0,-0.1743164,-0.2433777,0.9541321,-28.29671,2.334305,-28.63536,3.217026,0.4180923,0.5435597,1.0,-0.1057280999999999,-0.2070922999999999,0.97258,34.39139,1.827423,-29.200940000000003,3.150391,0.4537249,0.5479576,-0.3028019,1.196799,0.1210883,0.1218756,0.6560708000000001,-0.1432744,1.841796,-37.65039,34.25
3,-0.1291656,-0.2586823,0.9572754,1.0,-0.1706238,-0.2977448,0.9392548,-28.17361,2.239426,-28.61676,3.00824,0.4132991,0.5536201999999999,1.0,-0.1070708999999999,-0.2376404,0.9654236,34.50858,1.702652,-29.20741,3.088928,0.4499109,0.5561421999999999,-0.3039297999999999,1.199564,0.120298,0.1151895999999999,0.6626531,-0.1353421,1.841796,-37.65039,34.25
3,-0.1291656,-0.2586823,0.9572754,1.0,-0.1706238,-0.2977448,0.9392548,-28.17361,2.239426,-28.61676,3.00824,0.4132991,0.5536201999999999,1.0,-0.1070708999999999,-0.2376404,0.9654236,34.50858,1.702652,-29.20741,3.088928,0.4499109,0.5561421999999999,-0.3039297999999999,1.199564,0.120298,0.1151895999999999,0.6626531,-0.1353421,1.841796,-37.65039,34.25
3,-0.1291656,-0.2586823,0.9572754,1.0,-0.1706238,-0.2977448,0.9392548,-28.17361,2.239426,-28.61676,3.00824,0.4132991,0.5536201999999999,1.0,-0.1070708999999999,-0.2376404,0.9654236,34.50858,1.702652,-29.20741,3.088928,0.4499109,0.5561421999999999,-0.3039297999999999,1.199564,0.120298,0.1151895999999999,0.6626531,-0.1353421,1.841796,-37.65039,34.25
3,-0.1442413,-0.2326965,0.9617767,1.0,-0.1767882999999999,-0.2551575,0.950592,-28.36002,2.435486,-28.6225,3.187592,0.4205894,0.5415281,1.0,-0.1239319,-0.2185668999999999,0.9679108,34.35396,1.944397,-29.18275,3.267914,0.4570464,0.5454642,-0.305433,1.201957,0.1194057,0.108845,0.6684008,-0.1277444,1.841796,6.333008,34.25
3,-0.1442413,-0.2326965,0.9617767,1.0,-0.1767882999999999,-0.2551575,0.950592,-28.36002,2.435486,-28.6225,3.187592,0.4205894,0.5415281,1.0,-0.1239319,-0.2185668999999999,0.9679108,34.35396,1.944397,-29.18275,3.267914,0.4570464,0.5454642,-0.305433,1.201957,0.1194057,0.108845,0.6684008,-0.1277444,1.841796,6.333008,34.25
3,-0.1442413,-0.2326965,0.9617767,1.0,-0.1767882999999999,-0.2551575,0.950592,-28.36002,2.435486,-28.6225,3.187592,0.4205894,0.5415281,1.0,-0.1239319,-0.2185668999999999,0.9679108,34.35396,1.944397,-29.18275,3.267914,0.4570464,0.5454642,-0.305433,1.201957,0.1194057,0.108845,0.6684008,-0.1277444,1.841796,6.333008,34.25
3,-0.1832275,-0.1217346,0.9754944,1.0,-0.2188263,-0.1517181,0.9638824,-28.51071,3.129456,-28.71312,2.977921,0.4311127,0.5058146,1.0,-0.1638489,-0.1054535,0.9808197,34.05153,2.6212310000000003,-29.16643,3.0979,0.4726529,0.5085133,-0.3069925,1.204383,0.1187916999999999,0.1022938,0.6736845,-0.1203541,1.841796,6.333008,34.25
3,-0.1832275,-0.1217346,0.9754944,1.0,-0.2188263,-0.1517181,0.9638824,-28.51071,3.129456,-28.71312,2.977921,0.4311127,0.5058146,1.0,-0.1638489,-0.1054535,0.9808197,34.05153,2.6212310000000003,-29.16643,3.0979,0.4726529,0.5085133,-0.3069925,1.204383,0.1187916999999999,0.1022938,0.6736845,-0.1203541,1.841796,6.333008,34.25
3,-0.1832275,-0.1217346,0.9754944,1.0,-0.2188263,-0.1517181,0.9638824,-28.51071,3.129456,-28.71312,2.977921,0.4311127,0.5058146,1.0,-0.1638489,-0.1054535,0.9808197,34.05153,2.6212310000000003,-29.16643,3.0979,0.4726529,0.5085133,-0.3069925,1.204383,0.1187916999999999,0.1022938,0.6736845,-0.1203541,1.841796,6.333008,34.25
3,-0.1628417999999999,-0.09475708,0.9820862,1.0,-0.2165679999999999,-0.1438751,0.9655914,-28.43283,3.114029,-28.93755,3.000641,0.4281075,0.5073297,1.0,-0.1606598,-0.09277344,0.9826355,34.1301,2.589233,-29.16722,2.984619,0.4697833999999999,0.5079136,-0.3088227,1.206546,0.1183841,0.0964398,0.6781010999999999,-0.1143695,1.82514,6.333008,34.25
3,-0.1628417999999999,-0.09475708,0.9820862,1.0,-0.2165679999999999,-0.1438751,0.9655914,-28.43283,3.114029,-28.93755,3.000641,0.4281075,0.5073297,1.0,-0.1606598,-0.09277344,0.9826355,34.1301,2.589233,-29.16722,2.984619,0.4697833999999999,0.5079136,-0.3088227,1.206546,0.1183841,0.0964398,0.6781010999999999,-0.1143695,1.82514,6.333008,34.25
3,-0.1628417999999999,-0.09475708,0.9820862,1.0,-0.2165679999999999,-0.1438751,0.9655914,-28.43283,3.114029,-28.93755,3.000641,0.4281075,0.5073297,1.0,-0.1606598,-0.09277344,0.9826355,34.1301,2.589233,-29.16722,2.984619,0.4697833999999999,0.5079136,-0.3088227,1.206546,0.1183841,0.0964398,0.6781010999999999,-0.1143695,1.82514,6.333008,34.25
3,-0.1428375,-0.1044158999999999,0.9842072,1.0,-0.2051392,-0.1340179,0.9694977,-28.38138,3.0204470000000003,-29.046190000000003,2.96965,0.4248728,0.5101448000000001,1.0,-0.1348114,-0.1006011999999999,0.9857483,34.22894,2.464462,-29.1884,3.002472,0.4632443,0.5130714,-0.3107719,1.208773,0.1181868,0.08950136,0.6820093,-0.1074893,1.82514,6.333008,34.25
3,-0.1428375,-0.1044158999999999,0.9842072,1.0,-0.2051392,-0.1340179,0.9694977,-28.38138,3.0204470000000003,-29.046190000000003,2.96965,0.4248728,0.5101448000000001,1.0,-0.1348114,-0.1006011999999999,0.9857483,34.22894,2.464462,-29.1884,3.002472,0.4632443,0.5130714,-0.3107719,1.208773,0.1181868,0.08950136,0.6820093,-0.1074893,1.82514,6.333008,34.25
3,-0.1428375,-0.1044158999999999,0.9842072,1.0,-0.2051392,-0.1340179,0.9694977,-28.38138,3.0204470000000003,-29.046190000000003,2.96965,0.4248728,0.5101448000000001,1.0,-0.1348114,-0.1006011999999999,0.9857483,34.22894,2.464462,-29.1884,3.002472,0.4632443,0.5130714,-0.3107719,1.208773,0.1181868,0.08950136,0.6820093,-0.1074893,1.82514,6.333008,34.25
3,-0.1573181,-0.1201019,0.9802094,1.0,-0.199295,-0.144165,0.9692688,-28.33775,2.967239,-28.94603,2.925095,0.422658,0.5122782,1.0,-0.1421204,-0.1113586,0.983551,34.275859999999994,2.408951,-29.19751,2.998215,0.4625047,0.5164044,-0.3127688,1.211069,0.1180425,0.08262473,0.6852756999999999,-0.1003883,1.82514,6.333008,34.25
3,-0.1573181,-0.1201019,0.9802094,1.0,-0.199295,-0.144165,0.9692688,-28.33775,2.967239,-28.94603,2.925095,0.422658,0.5122782,1.0,-0.1421204,-0.1113586,0.983551,34.275859999999994,2.408951,-29.19751,2.998215,0.4625047,0.5164044,-0.3127688,1.211069,0.1180425,0.08262473,0.6852756999999999,-0.1003883,1.82514,6.333008,34.25
3,-0.1573181,-0.1201019,0.9802094,1.0,-0.199295,-0.144165,0.9692688,-28.33775,2.967239,-28.94603,2.925095,0.422658,0.5122782,1.0,-0.1421204,-0.1113586,0.983551,34.275859999999994,2.408951,-29.19751,2.998215,0.4625047,0.5164044,-0.3127688,1.211069,0.1180425,0.08262473,0.6852756999999999,-0.1003883,1.82514,6.333008,34.25
3,-0.1493835,-0.147644,0.9776917,1.0,-0.186203,-0.1645355,0.9686279,-28.3243,2.858734,-28.80521,2.89386,0.4205782,0.5171939,1.0,-0.1458892999999999,-0.1460418999999999,0.9784546,34.34377,2.309784,-29.19884,3.1288150000000003,0.4603895999999999,0.5241821,-0.3152525,1.213537,0.1180415,0.07598022,0.6880689999999999,-0.09364114,1.82514,12.54,34.25
3,-0.1493835,-0.147644,0.9776917,1.0,-0.186203,-0.1645355,0.9686279,-28.3243,2.858734,-28.80521,2.89386,0.4205782,0.5171939,1.0,-0.1458892999999999,-0.1460418999999999,0.9784546,34.34377,2.309784,-29.19884,3.1288150000000003,0.4603895999999999,0.5241821,-0.3152525,1.213537,0.1180415,0.07598022,0.6880689999999999,-0.09364114,1.82514,12.54,34.25
3,-0.1493835,-0.147644,0.9776917,1.0,-0.186203,-0.1645355,0.9686279,-28.3243,2.858734,-28.80521,2.89386,0.4205782,0.5171939,1.0,-0.1458892999999999,-0.1460418999999999,0.9784546,34.34377,2.309784,-29.19884,3.1288150000000003,0.4603895999999999,0.5241821,-0.3152525,1.213537,0.1180415,0.07598022,0.6880689999999999,-0.09364114,1.82514,12.54,34.25
3,-0.1337585,-0.1658478,0.9770203000000002,1.0,-0.1685181,-0.1917724999999999,0.9668579,-28.31381,2.824707,-28.8736,2.952652,0.4179959,0.5223331,1.0,-0.1174622,-0.153656,0.9811096,34.38606,2.23526,-29.20232,3.076614,0.4555901,0.5274386,-0.3175978,1.216217,0.1181182,0.06806152,0.6909331999999999,-0.08597312,1.82514,12.54,34.25
3,-0.1337585,-0.1658478,0.9770203000000002,1.0,-0.1685181,-0.1917724999999999,0.9668579,-28.31381,2.824707,-28.8736,2.952652,0.4179959,0.5223331,1.0,-0.1174622,-0.153656,0.9811096,34.38606,2.23526,-29.20232,3.076614,0.4555901,0.5274386,-0.3175978,1.216217,0.1181182,0.06806152,0.6909331999999999,-0.08597312,1.82514,12.54,34.25
3,-0.1337585,-0.1658478,0.9770203000000002,1.0,-0.1685181,-0.1917724999999999,0.9668579,-28.31381,2.824707,-28.8736,2.952652,0.4179959,0.5223331,1.0,-0.1174622,-0.153656,0.9811096,34.38606,2.23526,-29.20232,3.076614,0.4555901,0.5274386,-0.3175978,1.216217,0.1181182,0.06806152,0.6909331999999999,-0.08597312,1.82514,12.54,34.25
3,-0.1316528,-0.1679687999999999,0.9769592,1.0,-0.1681519,-0.1973877,0.9657898,-28.312790000000003,2.81897,-28.87413,2.952332,0.4179104999999999,0.5232372999999999,1.0,-0.1152496,-0.1546936,0.9812012,34.38808,2.229904,-29.20488,3.069595,0.455262,0.5277571,-0.3200504,1.21876,0.1179825,0.06036205,0.6933773,-0.07855163,1.82514,12.54,34.25
3,-0.1316528,-0.1679687999999999,0.9769592,1.0,-0.1681519,-0.1973877,0.9657898,-28.312790000000003,2.81897,-28.87413,2.952332,0.4179104999999999,0.5232372999999999,1.0,-0.1152496,-0.1546936,0.9812012,34.38808,2.229904,-29.20488,3.069595,0.455262,0.5277571,-0.3200504,1.21876,0.1179825,0.06036205,0.6933773,-0.07855163,1.82514,12.54,34.25
3,-0.1316528,-0.1679687999999999,0.9769592,1.0,-0.1681519,-0.1973877,0.9657898,-28.312790000000003,2.81897,-28.87413,2.952332,0.4179104999999999,0.5232372999999999,1.0,-0.1152496,-0.1546936,0.9812012,34.38808,2.229904,-29.20488,3.069595,0.455262,0.5277571,-0.3200504,1.21876,0.1179825,0.06036205,0.6933773,-0.07855163,1.82514,12.54,34.25
3,-0.1287384,-0.2208405,0.9667664,1.0,-0.1527405,-0.2318877999999999,0.9606628,-28.28151,2.626831,-28.85966,2.9208220000000003,0.4148458,0.5339832,1.0,-0.1132355,-0.2136536,0.9703216999999998,34.43951,2.065277,-29.21738,3.076309,0.4531478,0.5408974,-0.3226103,1.2214969999999998,0.1180956,0.05183659,0.6958539,-0.07051168,1.82514,12.54,34.25
3,-0.1287384,-0.2208405,0.9667664,1.0,-0.1527405,-0.2318877999999999,0.9606628,-28.28151,2.626831,-28.85966,2.9208220000000003,0.4148458,0.5339832,1.0,-0.1132355,-0.2136536,0.9703216999999998,34.43951,2.065277,-29.21738,3.076309,0.4531478,0.5408974,-0.3226103,1.2214969999999998,0.1180956,0.05183659,0.6958539,-0.07051168,1.82514,12.54,34.25
3,-0.1287384,-0.2208405,0.9667664,1.0,-0.1527405,-0.2318877999999999,0.9606628,-28.28151,2.626831,-28.85966,2.9208220000000003,0.4148458,0.5339832,1.0,-0.1132355,-0.2136536,0.9703216999999998,34.43951,2.065277,-29.21738,3.076309,0.4531478,0.5408974,-0.3226103,1.2214969999999998,0.1180956,0.05183659,0.6958539,-0.07051168,1.82514,12.54,34.25
3,-0.1287384,-0.2208405,0.9667664,1.0,-0.1527405,-0.2318877999999999,0.9606628,-28.28151,2.626831,-28.85966,2.9208220000000003,0.4148458,0.5339832,1.0,-0.1132355,-0.2136536,0.9703216999999998,34.43951,2.065277,-29.21738,3.076309,0.4531478,0.5408974,-0.3253292,1.224476,0.1183306,0.04342046,0.697916,-0.06194647,1.82514,12.54,34.25
3,-0.1287384,-0.2208405,0.9667664,1.0,-0.1527405,-0.2318877999999999,0.9606628,-28.28151,2.626831,-28.85966,2.9208220000000003,0.4148458,0.5339832,1.0,-0.1132355,-0.2136536,0.9703216999999998,34.43951,2.065277,-29.21738,3.076309,0.4531478,0.5408974,-0.3253292,1.224476,0.1183306,0.04342046,0.697916,-0.06194647,1.82514,12.54,34.25
3,-0.1287384,-0.2208405,0.9667664,1.0,-0.1527405,-0.2318877999999999,0.9606628,-28.28151,2.626831,-28.85966,2.9208220000000003,0.4148458,0.5339832,1.0,-0.1132355,-0.2136536,0.9703216999999998,34.43951,2.065277,-29.21738,3.076309,0.4531478,0.5408974,-0.3253292,1.224476,0.1183306,0.04342046,0.697916,-0.06194647,1.82514,12.54,34.25
3,-0.1287384,-0.2208405,0.9667664,1.0,-0.1527405,-0.2318877999999999,0.9606628,-28.28151,2.626831,-28.85966,2.9208220000000003,0.4148458,0.5339832,1.0,-0.1132355,-0.2136536,0.9703216999999998,34.43951,2.065277,-29.21738,3.076309,0.4531478,0.5408974,-0.3281905,1.227191,0.118492,0.03561161,0.699828,-0.05391936,1.82514,-8.356621,34.25
3,-0.1287384,-0.2208405,0.9667664,1.0,-0.1527405,-0.2318877999999999,0.9606628,-28.28151,2.626831,-28.85966,2.9208220000000003,0.4148458,0.5339832,1.0,-0.1132355,-0.2136536,0.9703216999999998,34.43951,2.065277,-29.21738,3.076309,0.4531478,0.5408974,-0.3281905,1.227191,0.118492,0.03561161,0.699828,-0.05391936,1.82514,-8.356621,34.25
3,-0.1287384,-0.2208405,0.9667664,1.0,-0.1527405,-0.2318877999999999,0.9606628,-28.28151,2.626831,-28.85966,2.9208220000000003,0.4148458,0.5339832,1.0,-0.1132355,-0.2136536,0.9703216999999998,34.43951,2.065277,-29.21738,3.076309,0.4531478,0.5408974,-0.3281905,1.227191,0.118492,0.03561161,0.699828,-0.05391936,1.82514,-8.356621,34.25
3,-0.1303101,-0.2306212999999999,0.9642639,1.0,-0.1547394,-0.2498932,0.9558258,-28.24387,2.606735,-28.89014,2.949936,0.4137779,0.5372638000000001,1.0,-0.1128235,-0.2167663999999999,0.9696655,34.4429,2.06012,-29.21951,3.061829,0.4529970999999999,0.5414864,-0.3309297,1.229842,0.1185484,0.02688501,0.7018901999999999,-0.04623315,1.82514,-8.356621,34.25
3,-0.1303101,-0.2306212999999999,0.9642639,1.0,-0.1547394,-0.2498932,0.9558258,-28.24387,2.606735,-28.89014,2.949936,0.4137779,0.5372638000000001,1.0,-0.1128235,-0.2167663999999999,0.9696655,34.4429,2.06012,-29.21951,3.061829,0.4529970999999999,0.5414864,-0.3309297,1.229842,0.1185484,0.02688501,0.7018901999999999,-0.04623315,1.82514,-8.356621,34.25
3,-0.1303101,-0.2306212999999999,0.9642639,1.0,-0.1547394,-0.2498932,0.9558258,-28.24387,2.606735,-28.89014,2.949936,0.4137779,0.5372638000000001,1.0,-0.1128235,-0.2167663999999999,0.9696655,34.4429,2.06012,-29.21951,3.061829,0.4529970999999999,0.5414864,-0.3309297,1.229842,0.1185484,0.02688501,0.7018901999999999,-0.04623315,1.82514,-8.356621,34.25
3,-0.1303101,-0.2306212999999999,0.9642639,1.0,-0.1547394,-0.2498932,0.9558258,-28.24387,2.606735,-28.89014,2.949936,0.4137779,0.5372638000000001,1.0,-0.1128235,-0.2167663999999999,0.9696655,34.4429,2.06012,-29.21951,3.061829,0.4529970999999999,0.5414864,-0.3337186,1.232327,0.1187606,0.01937982,0.7037296999999999,-0.03895543,1.82514,-8.356621,34.25
3,-0.1303101,-0.2306212999999999,0.9642639,1.0,-0.1547394,-0.2498932,0.9558258,-28.24387,2.606735,-28.89014,2.949936,0.4137779,0.5372638000000001,1.0,-0.1128235,-0.2167663999999999,0.9696655,34.4429,2.06012,-29.21951,3.061829,0.4529970999999999,0.5414864,-0.3337186,1.232327,0.1187606,0.01937982,0.7037296999999999,-0.03895543,1.82514,-8.356621,34.25
3,-0.1303101,-0.2306212999999999,0.9642639,1.0,-0.1547394,-0.2498932,0.9558258,-28.24387,2.606735,-28.89014,2.949936,0.4137779,0.5372638000000001,1.0,-0.1128235,-0.2167663999999999,0.9696655,34.4429,2.06012,-29.21951,3.061829,0.4529970999999999,0.5414864,-0.3337186,1.232327,0.1187606,0.01937982,0.7037296999999999,-0.03895543,1.82514,-8.356621,34.25
3,-0.1230469,-0.257309,0.9584503,1.0,-0.1602936,-0.2820435,0.9459076,-28.2088,2.394028,-28.9104,2.975204,0.4131616,0.5489248999999999,1.0,-0.1013947,-0.2427368,0.9647675,34.50612,1.837753,-29.2514,2.994537,0.4494520999999999,0.5525486,-0.3365301,1.234525,0.1190917,0.012931,0.7052897,-0.03291751,1.82514,-8.356621,34.25
3,-0.1230469,-0.257309,0.9584503,1.0,-0.1602936,-0.2820435,0.9459076,-28.2088,2.394028,-28.9104,2.975204,0.4131616,0.5489248999999999,1.0,-0.1013947,-0.2427368,0.9647675,34.50612,1.837753,-29.2514,2.994537,0.4494520999999999,0.5525486,-0.3365301,1.234525,0.1190917,0.012931,0.7052897,-0.03291751,1.82514,-8.356621,34.25
3,-0.1230469,-0.257309,0.9584503,1.0,-0.1602936,-0.2820435,0.9459076,-28.2088,2.394028,-28.9104,2.975204,0.4131616,0.5489248999999999,1.0,-0.1013947,-0.2427368,0.9647675,34.50612,1.837753,-29.2514,2.994537,0.4494520999999999,0.5525486,-0.3365301,1.234525,0.1190917,0.012931,0.7052897,-0.03291751,1.82514,-8.356621,34.25
3,-0.1230469,-0.257309,0.9584503,1.0,-0.1602936,-0.2820435,0.9459076,-28.2088,2.394028,-28.9104,2.975204,0.4131616,0.5489248999999999,1.0,-0.1013947,-0.2427368,0.9647675,34.50612,1.837753,-29.2514,2.994537,0.4494520999999999,0.5525486,-0.3391399,1.236449,0.1192267,0.0065213519999999,0.7069278,-0.02701921,1.82514,-8.356621,34.25
3,-0.1230469,-0.257309,0.9584503,1.0,-0.1602936,-0.2820435,0.9459076,-28.2088,2.394028,-28.9104,2.975204,0.4131616,0.5489248999999999,1.0,-0.1013947,-0.2427368,0.9647675,34.50612,1.837753,-29.2514,2.994537,0.4494520999999999,0.5525486,-0.3391399,1.236449,0.1192267,0.0065213519999999,0.7069278,-0.02701921,1.82514,-8.356621,34.25
3,-0.1230469,-0.257309,0.9584503,1.0,-0.1602936,-0.2820435,0.9459076,-28.2088,2.394028,-28.9104,2.975204,0.4131616,0.5489248999999999,1.0,-0.1013947,-0.2427368,0.9647675,34.50612,1.837753,-29.2514,2.994537,0.4494520999999999,0.5525486,-0.3391399,1.236449,0.1192267,0.0065213519999999,0.7069278,-0.02701921,1.82514,-8.356621,34.25
3,-0.09559631,-0.2442932,0.9649658,0.9982263,-0.1243134,-0.2516174,0.9598083,-28.12459,2.690872,-28.841140000000003,3.0070650000000003,0.4059986,0.5340293,0.9985264,-0.07266235,-0.2382965,0.9684601,34.63007,2.16716,-29.14017,3.181366,0.4417008,0.5396065,-0.341492,1.238334,0.1193521,0.000370006,0.7087148,-0.02105804,1.82514,-8.356621,34.25
3,-0.09559631,-0.2442932,0.9649658,0.9982263,-0.1243134,-0.2516174,0.9598083,-28.12459,2.690872,-28.841140000000003,3.0070650000000003,0.4059986,0.5340293,0.9985264,-0.07266235,-0.2382965,0.9684601,34.63007,2.16716,-29.14017,3.181366,0.4417008,0.5396065,-0.341492,1.238334,0.1193521,0.000370006,0.7087148,-0.02105804,1.82514,-8.356621,34.25
3,-0.09559631,-0.2442932,0.9649658,0.9982263,-0.1243134,-0.2516174,0.9598083,-28.12459,2.690872,-28.841140000000003,3.0070650000000003,0.4059986,0.5340293,0.9985264,-0.07266235,-0.2382965,0.9684601,34.63007,2.16716,-29.14017,3.181366,0.4417008,0.5396065,-0.341492,1.238334,0.1193521,0.000370006,0.7087148,-0.02105804,1.82514,-8.356621,34.25
3,-1.0,-1.0,-1.0,0.955276,0.0,0.0,0.0,-28.0296,3.844635,-29.93083,-1.0,0.3982660999999999,0.4778976,0.9895033,0.0,0.0,0.0,34.57164,3.580048,-31.11488,-1.0,0.4400414000000001,0.4799428,-0.34394,1.2397790000000002,0.1192772,-0.004432672,0.710484,-0.0163453,1.82514,-11.6937,34.25
3,-1.0,-1.0,-1.0,0.955276,0.0,0.0,0.0,-28.0296,3.844635,-29.93083,-1.0,0.3982660999999999,0.4778976,0.9895033,0.0,0.0,0.0,34.57164,3.580048,-31.11488,-1.0,0.4400414000000001,0.4799428,-0.34394,1.2397790000000002,0.1192772,-0.004432672,0.710484,-0.0163453,1.82514,-11.6937,34.25
3,-1.0,-1.0,-1.0,0.955276,0.0,0.0,0.0,-28.0296,3.844635,-29.93083,-1.0,0.3982660999999999,0.4778976,0.9895033,0.0,0.0,0.0,34.57164,3.580048,-31.11488,-1.0,0.4400414000000001,0.4799428,-0.34394,1.2397790000000002,0.1192772,-0.004432672,0.710484,-0.0163453,1.82514,-11.6937,34.25
4,-0.09657288,-0.08226013,0.9919128,1.0,-0.09657288,-0.08226013,0.9919128,-28.01317,3.772263,-30.219620000000003,2.933945,0.3985397,0.4877223,1.0,-0.05389404,-0.0131072999999999,0.9984589,34.67116,3.213516,-30.439740000000004,3.34697,0.4375463,0.4874074,-0.3462563,1.241161,0.1190551999999999,-0.008574639,0.7121464,-0.01279694,1.82514,-11.6937,34.25
4,-0.09657288,-0.08226013,0.9919128,1.0,-0.09657288,-0.08226013,0.9919128,-28.01317,3.772263,-30.219620000000003,2.933945,0.3985397,0.4877223,1.0,-0.05389404,-0.0131072999999999,0.9984589,34.67116,3.213516,-30.439740000000004,3.34697,0.4375463,0.4874074,-0.3462563,1.241161,0.1190551999999999,-0.008574639,0.7121464,-0.01279694,1.82514,-11.6937,34.25
4,-0.09657288,-0.08226013,0.9919128,1.0,-0.09657288,-0.08226013,0.9919128,-28.01317,3.772263,-30.219620000000003,2.933945,0.3985397,0.4877223,1.0,-0.05389404,-0.0131072999999999,0.9984589,34.67116,3.213516,-30.439740000000004,3.34697,0.4375463,0.4874074,-0.3462563,1.241161,0.1190551999999999,-0.008574639,0.7121464,-0.01279694,1.82514,-11.6937,34.25
4,-0.1054382,-0.0534668,0.992981,1.0,-0.1054382,-0.0534668,0.992981,-28.009,3.674973000000001,-30.0822,3.048355,0.3996128,0.4864087,1.0,-0.04743958,-0.05509949,0.997345,34.71437,3.050842,-29.82912,3.235184,0.4357559,0.4926695,-0.3480877999999999,1.242563,0.1191267,-0.01365884,0.7141712,-0.008098983,1.82514,-11.6937,34.25
4,-0.1054382,-0.0534668,0.992981,1.0,-0.1054382,-0.0534668,0.992981,-28.009,3.674973000000001,-30.0822,3.048355,0.3996128,0.4864087,1.0,-0.04743958,-0.05509949,0.997345,34.71437,3.050842,-29.82912,3.235184,0.4357559,0.4926695,-0.3480877999999999,1.242563,0.1191267,-0.01365884,0.7141712,-0.008098983,1.82514,-11.6937,34.25
4,-0.1054382,-0.0534668,0.992981,1.0,-0.1054382,-0.0534668,0.992981,-28.009,3.674973000000001,-30.0822,3.048355,0.3996128,0.4864087,1.0,-0.04743958,-0.05509949,0.997345,34.71437,3.050842,-29.82912,3.235184,0.4357559,0.4926695,-0.3480877999999999,1.242563,0.1191267,-0.01365884,0.7141712,-0.008098983,1.82514,-11.6937,34.25
4,-0.0766449,-0.06806946,0.9947205,1.0,-0.1024933,-0.08171082,0.9913635,-27.96886,3.420135,-29.667690000000004,2.991333,0.3979529,0.4949475,1.0,-0.05259705,-0.0553894,0.9970703000000002,34.76212,2.931152,-30.05193,3.128143,0.4346899,0.498617,-0.3500670999999999,1.243948,0.1189472999999999,-0.01948455,0.7160433,-0.003678919,1.82514,-11.6937,34.25
4,-0.0766449,-0.06806946,0.9947205,1.0,-0.1024933,-0.08171082,0.9913635,-27.96886,3.420135,-29.667690000000004,2.991333,0.3979529,0.4949475,1.0,-0.05259705,-0.0553894,0.9970703000000002,34.76212,2.931152,-30.05193,3.128143,0.4346899,0.498617,-0.3500670999999999,1.243948,0.1189472999999999,-0.01948455,0.7160433,-0.003678919,1.82514,-11.6937,34.25
4,-0.0766449,-0.06806946,0.9947205,1.0,-0.1024933,-0.08171082,0.9913635,-27.96886,3.420135,-29.667690000000004,2.991333,0.3979529,0.4949475,1.0,-0.05259705,-0.0553894,0.9970703000000002,34.76212,2.931152,-30.05193,3.128143,0.4346899,0.498617,-0.3500670999999999,1.243948,0.1189472999999999,-0.01948455,0.7160433,-0.003678919,1.82514,-11.6937,34.25
4,-0.0766449,-0.06806946,0.9947205,1.0,-0.1024933,-0.08171082,0.9913635,-27.96886,3.420135,-29.667690000000004,2.991333,0.3979529,0.4949475,1.0,-0.05259705,-0.0553894,0.9970703000000002,34.76212,2.931152,-30.05193,3.128143,0.4346899,0.498617,-0.3517717999999999,1.245476,0.1189923,-0.02497884,0.7176037,0.0007714371,1.82514,-11.6937,34.25
4,-0.0766449,-0.06806946,0.9947205,1.0,-0.1024933,-0.08171082,0.9913635,-27.96886,3.420135,-29.667690000000004,2.991333,0.3979529,0.4949475,1.0,-0.05259705,-0.0553894,0.9970703000000002,34.76212,2.931152,-30.05193,3.128143,0.4346899,0.498617,-0.3517717999999999,1.245476,0.1189923,-0.02497884,0.7176037,0.0007714371,1.82514,-11.6937,34.25
4,-0.0766449,-0.06806946,0.9947205,1.0,-0.1024933,-0.08171082,0.9913635,-27.96886,3.420135,-29.667690000000004,2.991333,0.3979529,0.4949475,1.0,-0.05259705,-0.0553894,0.9970703000000002,34.76212,2.931152,-30.05193,3.128143,0.4346899,0.498617,-0.3517717999999999,1.245476,0.1189923,-0.02497884,0.7176037,0.0007714371,1.82514,-11.6937,34.25
4,-0.0766449,-0.06806946,0.9947205,1.0,-0.1024933,-0.08171082,0.9913635,-27.96886,3.420135,-29.667690000000004,2.991333,0.3979529,0.4949475,1.0,-0.05259705,-0.0553894,0.9970703000000002,34.76212,2.931152,-30.05193,3.128143,0.4346899,0.498617,-0.3531799,1.246724,0.1188811999999999,-0.02935299,0.7194189000000001,0.004069036,1.82514,-31.6233,34.25
4,-0.0766449,-0.06806946,0.9947205,1.0,-0.1024933,-0.08171082,0.9913635,-27.96886,3.420135,-29.667690000000004,2.991333,0.3979529,0.4949475,1.0,-0.05259705,-0.0553894,0.9970703000000002,34.76212,2.931152,-30.05193,3.128143,0.4346899,0.498617,-0.3531799,1.246724,0.1188811999999999,-0.02935299,0.7194189000000001,0.004069036,1.82514,-31.6233,34.25
4,-0.0766449,-0.06806946,0.9947205,1.0,-0.1024933,-0.08171082,0.9913635,-27.96886,3.420135,-29.667690000000004,2.991333,0.3979529,0.4949475,1.0,-0.05259705,-0.0553894,0.9970703000000002,34.76212,2.931152,-30.05193,3.128143,0.4346899,0.498617,-0.3531799,1.246724,0.1188811999999999,-0.02935299,0.7194189000000001,0.004069036,1.82514,-31.6233,34.25
4,-0.05290222,-0.1243134,0.9908295,1.0,-0.1042023,-0.1314545,0.9858246,-27.92816,3.132172,-29.37282,2.853592,0.3967104,0.5083034000000001,1.0,-0.03915405,-0.1223601999999999,0.9916992,34.86737,2.519836,-29.37225,3.088593,0.4298106,0.5148102,-0.3545655,1.2477129999999998,0.1188145999999999,-0.03385945,0.7214164000000001,0.007503291,1.82514,-31.6233,34.25
4,-0.05290222,-0.1243134,0.9908295,1.0,-0.1042023,-0.1314545,0.9858246,-27.92816,3.132172,-29.37282,2.853592,0.3967104,0.5083034000000001,1.0,-0.03915405,-0.1223601999999999,0.9916992,34.86737,2.519836,-29.37225,3.088593,0.4298106,0.5148102,-0.3545655,1.2477129999999998,0.1188145999999999,-0.03385945,0.7214164000000001,0.007503291,1.82514,-31.6233,34.25
4,-0.05290222,-0.1243134,0.9908295,1.0,-0.1042023,-0.1314545,0.9858246,-27.92816,3.132172,-29.37282,2.853592,0.3967104,0.5083034000000001,1.0,-0.03915405,-0.1223601999999999,0.9916992,34.86737,2.519836,-29.37225,3.088593,0.4298106,0.5148102,-0.3545655,1.2477129999999998,0.1188145999999999,-0.03385945,0.7214164000000001,0.007503291,1.82514,-31.6233,34.25
4,-0.03573608,0.001693726,0.9993591,1.0,-0.03616333,0.001327515,0.9993439,-27.5569,3.715759,-29.40088,3.073044,0.3759879,0.4721149999999999,1.0,0.03147888,0.05674744,0.997879,35.10324,3.254883,-30.00397,3.252213,0.4130202,0.4733100999999999,-0.3556601,1.248833,0.1186998,-0.03832909,0.7232668000000001,0.01092585,1.82514,-31.6233,34.25
4,-0.03573608,0.001693726,0.9993591,1.0,-0.03616333,0.001327515,0.9993439,-27.5569,3.715759,-29.40088,3.073044,0.3759879,0.4721149999999999,1.0,0.03147888,0.05674744,0.997879,35.10324,3.254883,-30.00397,3.252213,0.4130202,0.4733100999999999,-0.3556601,1.248833,0.1186998,-0.03832909,0.7232668000000001,0.01092585,1.82514,-31.6233,34.25
4,-0.03573608,0.001693726,0.9993591,1.0,-0.03616333,0.001327515,0.9993439,-27.5569,3.715759,-29.40088,3.073044,0.3759879,0.4721149999999999,1.0,0.03147888,0.05674744,0.997879,35.10324,3.254883,-30.00397,3.252213,0.4130202,0.4733100999999999,-0.3556601,1.248833,0.1186998,-0.03832909,0.7232668000000001,0.01092585,1.82514,-31.6233,34.25
4,-0.03161621,-0.008331299,0.9994507,1.0,-0.03514099,-0.008773804,0.9993286,-27.55106,3.664963,-29.5462,3.024323,0.375505,0.4762904999999999,1.0,0.02537537,-0.001052856,0.9996643,35.15016,3.109589,-29.8625,3.148941,0.4122752,0.4839136999999999,-0.3564366,1.249743,0.118806,-0.042301,0.7249151999999999,0.01406149,1.82514,-31.6233,34.25
4,-0.03161621,-0.008331299,0.9994507,1.0,-0.03514099,-0.008773804,0.9993286,-27.55106,3.664963,-29.5462,3.024323,0.375505,0.4762904999999999,1.0,0.02537537,-0.001052856,0.9996643,35.15016,3.109589,-29.8625,3.148941,0.4122752,0.4839136999999999,-0.3564366,1.249743,0.118806,-0.042301,0.7249151999999999,0.01406149,1.82514,-31.6233,34.25
4,-0.03161621,-0.008331299,0.9994507,1.0,-0.03514099,-0.008773804,0.9993286,-27.55106,3.664963,-29.5462,3.024323,0.375505,0.4762904999999999,1.0,0.02537537,-0.001052856,0.9996643,35.15016,3.109589,-29.8625,3.148941,0.4122752,0.4839136999999999,-0.3564366,1.249743,0.118806,-0.042301,0.7249151999999999,0.01406149,1.82514,-31.6233,34.25
4,0.01812744,-0.002655029,0.9998169,1.0,-0.03485107,-0.01805115,0.9992218,-27.5183,3.419189,-29.08629,2.988419,0.3745684999999999,0.4818047,1.0,0.02583313,-0.0004119873,0.9996643,35.16852,3.063461,-30.07948,3.195908,0.4113318,0.4872897,-0.3570652,1.250234,0.1187042,-0.04548471,0.7265881999999999,0.01657517,1.82514,-31.6233,34.25
4,0.01812744,-0.002655029,0.9998169,1.0,-0.03485107,-0.01805115,0.9992218,-27.5183,3.419189,-29.08629,2.988419,0.3745684999999999,0.4818047,1.0,0.02583313,-0.0004119873,0.9996643,35.16852,3.063461,-30.07948,3.195908,0.4113318,0.4872897,-0.3570652,1.250234,0.1187042,-0.04548471,0.7265881999999999,0.01657517,1.82514,-31.6233,34.25
4,0.01812744,-0.002655029,0.9998169,1.0,-0.03485107,-0.01805115,0.9992218,-27.5183,3.419189,-29.08629,2.988419,0.3745684999999999,0.4818047,1.0,0.02583313,-0.0004119873,0.9996643,35.16852,3.063461,-30.07948,3.195908,0.4113318,0.4872897,-0.3570652,1.250234,0.1187042,-0.04548471,0.7265881999999999,0.01657517,1.82514,-31.6233,34.25
4,0.01812744,-0.002655029,0.9998169,1.0,-0.03485107,-0.01805115,0.9992218,-27.5183,3.419189,-29.08629,2.988419,0.3745684999999999,0.4818047,1.0,0.02583313,-0.0004119873,0.9996643,35.16852,3.063461,-30.07948,3.195908,0.4113318,0.4872897,-0.3576185999999999,1.250806,0.1188968,-0.04879764,0.7279396,0.01967937,1.82514,34.72596,34.25
4,0.01812744,-0.002655029,0.9998169,1.0,-0.03485107,-0.01805115,0.9992218,-27.5183,3.419189,-29.08629,2.988419,0.3745684999999999,0.4818047,1.0,0.02583313,-0.0004119873,0.9996643,35.16852,3.063461,-30.07948,3.195908,0.4113318,0.4872897,-0.3576185999999999,1.250806,0.1188968,-0.04879764,0.7279396,0.01967937,1.82514,34.72596,34.25
4,0.01812744,-0.002655029,0.9998169,1.0,-0.03485107,-0.01805115,0.9992218,-27.5183,3.419189,-29.08629,2.988419,0.3745684999999999,0.4818047,1.0,0.02583313,-0.0004119873,0.9996643,35.16852,3.063461,-30.07948,3.195908,0.4113318,0.4872897,-0.3576185999999999,1.250806,0.1188968,-0.04879764,0.7279396,0.01967937,1.82514,34.72596,34.25
4,0.01812744,-0.002655029,0.9998169,1.0,-0.03485107,-0.01805115,0.9992218,-27.5183,3.419189,-29.08629,2.988419,0.3745684999999999,0.4818047,1.0,0.02583313,-0.0004119873,0.9996643,35.16852,3.063461,-30.07948,3.195908,0.4113318,0.4872897,-0.357913,1.2512530000000002,0.1190608,-0.05145088,0.7291704000000001,0.02243766,1.82514,34.72596,34.25
4,0.01812744,-0.002655029,0.9998169,1.0,-0.03485107,-0.01805115,0.9992218,-27.5183,3.419189,-29.08629,2.988419,0.3745684999999999,0.4818047,1.0,0.02583313,-0.0004119873,0.9996643,35.16852,3.063461,-30.07948,3.195908,0.4113318,0.4872897,-0.357913,1.2512530000000002,0.1190608,-0.05145088,0.7291704000000001,0.02243766,1.82514,34.72596,34.25
4,0.01812744,-0.002655029,0.9998169,1.0,-0.03485107,-0.01805115,0.9992218,-27.5183,3.419189,-29.08629,2.988419,0.3745684999999999,0.4818047,1.0,0.02583313,-0.0004119873,0.9996643,35.16852,3.063461,-30.07948,3.195908,0.4113318,0.4872897,-0.357913,1.2512530000000002,0.1190608,-0.05145088,0.7291704000000001,0.02243766,1.82514,34.72596,34.25
4,0.02490234,-0.05723572,0.9980469,1.0,-0.01559448,-0.06587219,0.9976959,-27.49522,3.26915,-29.01936,2.906509,0.3713114999999999,0.4921162999999999,1.0,0.03327942,-0.05543518,0.9978943,35.25851,2.781311,-29.61873,2.948471,0.4078767,0.4993539000000001,-0.3582086,1.251599,0.119375,-0.05324762,0.7302721999999999,0.02508764,1.82514,34.72596,34.25
