Second,eye_comb_direction_x,eye_comb_direction_y,eye_comb_direction_z,eye_r_openness,eye_r_direction_x,eye_r_direction_y,eye_r_direction_z,eye_r_origin_x,eye_r_origin_y,eye_r_origin_z,eye_r_pupil_diameter,eye_r_pupil_position_x,eye_r_pupil_position_y,eye_l_openness,eye_l_direction_x,eye_l_direction_y,eye_l_direction_z,eye_l_origin_x,eye_l_origin_y,eye_l_origin_z,eye_l_pupil_diameter,eye_l_pupil_position_x,eye_l_pupil_position_y,head_position_x,head_position_y,head_position_z,head_rotation_roll,head_rotation_pitch,head_rotation_yaw,EDA,BVP,TMP
0,-0.04905701,-0.1681061,0.9845428,1.0,-0.1122741999999999,-0.2022705,0.9728699,-28.27501,2.841354,-31.82436,3.553024,0.4086155999999999,0.5501489,1.0,-0.0478363,-0.16745,0.9847107,34.51582,3.251007,-31.35608,3.555649,0.4410949999999999,0.5133607,-0.2780017,1.283215,0.04681587,-0.06879088,0.5695279999999999,0.04694782,1.568892682045874,-2.000859590403375,33.32678882151331
0,-0.04905701,-0.1681061,0.9845428,1.0,-0.1122741999999999,-0.2022705,0.9728699,-28.27501,2.841354,-31.82436,3.553024,0.4086155999999999,0.5501489,1.0,-0.0478363,-0.16745,0.9847107,34.51582,3.251007,-31.35608,3.555649,0.4410949999999999,0.5133607,-0.2780017,1.283215,0.04681587,-0.06879088,0.5695279999999999,0.04694782,1.568892682045874,-2.000859590403375,33.32678882151331
0,-0.04905701,-0.1681061,0.9845428,1.0,-0.1122741999999999,-0.2022705,0.9728699,-28.27501,2.841354,-31.82436,3.553024,0.4086155999999999,0.5501489,1.0,-0.0478363,-0.16745,0.9847107,34.51582,3.251007,-31.35608,3.555649,0.4410949999999999,0.5133607,-0.2780017,1.283215,0.04681587,-0.06879088,0.5695279999999999,0.04694782,1.568892682045874,-2.000859590403375,33.32678882151331
0,-0.04905701,-0.1681061,0.9845428,1.0,-0.1122741999999999,-0.2022705,0.9728699,-28.27501,2.841354,-31.82436,3.553024,0.4086155999999999,0.5501489,1.0,-0.0478363,-0.16745,0.9847107,34.51582,3.251007,-31.35608,3.555649,0.4410949999999999,0.5133607,-0.2780017,1.283215,0.04681587,-0.06879088,0.5695279999999999,0.04694782,1.568892682045874,-2.000859590403375,33.32678882151331
0,-0.04968262,-0.1786652,0.9826508,1.0,-0.1123047,-0.1948395,0.9743805,-28.217270000000003,2.744263,-31.580540000000003,3.481461,0.4066519,0.5502587,1.0,-0.0466156,-0.1778564,0.9829407,34.525209999999994,3.2381900000000003,-31.36813,3.462448,0.4407162,0.515174,-0.2774208,1.282841,0.04703009,-0.06925939,0.5731468000000001,0.04808424,1.568892682045874,-2.000859590403375,33.32678882151331
0,-0.04968262,-0.1786652,0.9826508,1.0,-0.1123047,-0.1948395,0.9743805,-28.217270000000003,2.744263,-31.580540000000003,3.481461,0.4066519,0.5502587,1.0,-0.0466156,-0.1778564,0.9829407,34.525209999999994,3.2381900000000003,-31.36813,3.462448,0.4407162,0.515174,-0.2774208,1.282841,0.04703009,-0.06925939,0.5731468000000001,0.04808424,1.568892682045874,-2.000859590403375,33.32678882151331
0,-0.04968262,-0.1786652,0.9826508,1.0,-0.1123047,-0.1948395,0.9743805,-28.217270000000003,2.744263,-31.580540000000003,3.481461,0.4066519,0.5502587,1.0,-0.0466156,-0.1778564,0.9829407,34.525209999999994,3.2381900000000003,-31.36813,3.462448,0.4407162,0.515174,-0.2774208,1.282841,0.04703009,-0.06925939,0.5731468000000001,0.04808424,1.568892682045874,-2.000859590403375,33.32678882151331
0,-0.06089783,-0.1944885,0.9790039,1.0,-0.1089783,-0.1931915,0.9750824,-28.19753,2.773956,-31.671190000000003,3.40181,0.4054804999999999,0.5498244000000001,1.0,-0.04693604,-0.1947784,0.9797058,34.56496,3.237534,-31.3661,3.398315,0.4394409000000001,0.5173064,-0.2764694,1.282786,0.04763258,-0.07043521,0.5775044,0.04939023,1.568892682045874,-2.000859590403375,33.32678882151331
0,-0.06089783,-0.1944885,0.9790039,1.0,-0.1089783,-0.1931915,0.9750824,-28.19753,2.773956,-31.671190000000003,3.40181,0.4054804999999999,0.5498244000000001,1.0,-0.04693604,-0.1947784,0.9797058,34.56496,3.237534,-31.3661,3.398315,0.4394409000000001,0.5173064,-0.2764694,1.282786,0.04763258,-0.07043521,0.5775044,0.04939023,1.568892682045874,-2.000859590403375,33.32678882151331
0,-0.06089783,-0.1944885,0.9790039,1.0,-0.1089783,-0.1931915,0.9750824,-28.19753,2.773956,-31.671190000000003,3.40181,0.4054804999999999,0.5498244000000001,1.0,-0.04693604,-0.1947784,0.9797058,34.56496,3.237534,-31.3661,3.398315,0.4394409000000001,0.5173064,-0.2764694,1.282786,0.04763258,-0.07043521,0.5775044,0.04939023,1.568892682045874,-2.000859590403375,33.32678882151331
1,-0.03405762,-0.2216034,0.9745331,1.0,-0.0965271,-0.2080078,0.9733429,-28.12547,2.850418,-31.888690000000004,3.1734310000000003,0.4011870999999999,0.5509636,1.0,-0.03128052,-0.2221832,0.9744873,34.69989,3.245285,-31.326490000000003,3.109299,0.4332252,0.5200007999999999,-0.2753703,1.282728,0.04839218,-0.07031414,0.5816060000000001,0.05147207,1.568892682045874,-2.000859590403375,33.32678882151331
1,-0.03405762,-0.2216034,0.9745331,1.0,-0.0965271,-0.2080078,0.9733429,-28.12547,2.850418,-31.888690000000004,3.1734310000000003,0.4011870999999999,0.5509636,1.0,-0.03128052,-0.2221832,0.9744873,34.69989,3.245285,-31.326490000000003,3.109299,0.4332252,0.5200007999999999,-0.2753703,1.282728,0.04839218,-0.07031414,0.5816060000000001,0.05147207,1.568892682045874,-2.000859590403375,33.32678882151331
1,-0.03405762,-0.2216034,0.9745331,1.0,-0.0965271,-0.2080078,0.9733429,-28.12547,2.850418,-31.888690000000004,3.1734310000000003,0.4011870999999999,0.5509636,1.0,-0.03128052,-0.2221832,0.9744873,34.69989,3.245285,-31.326490000000003,3.109299,0.4332252,0.5200007999999999,-0.2753703,1.282728,0.04839218,-0.07031414,0.5816060000000001,0.05147207,1.568892682045874,-2.000859590403375,33.32678882151331
1,-0.0329895,-0.2181853999999999,0.9753418,1.0,-0.06730652,-0.2127228,0.9747772,-28.00208,2.87291,-32.07983,3.060043,0.3930040999999999,0.5524541999999999,1.0,-0.02148438,-0.2199554,0.9752655,34.83855,3.186432,-31.31969,2.959045,0.4274020999999999,0.5215494,-0.2742884,1.282117,0.04996037,-0.06504177,0.5858576,0.05275337,1.568892682045874,-2.000859590403375,33.32678882151331
1,-0.0329895,-0.2181853999999999,0.9753418,1.0,-0.06730652,-0.2127228,0.9747772,-28.00208,2.87291,-32.07983,3.060043,0.3930040999999999,0.5524541999999999,1.0,-0.02148438,-0.2199554,0.9752655,34.83855,3.186432,-31.31969,2.959045,0.4274020999999999,0.5215494,-0.2742884,1.282117,0.04996037,-0.06504177,0.5858576,0.05275337,1.568892682045874,-2.000859590403375,33.32678882151331
1,-0.0329895,-0.2181853999999999,0.9753418,1.0,-0.06730652,-0.2127228,0.9747772,-28.00208,2.87291,-32.07983,3.060043,0.3930040999999999,0.5524541999999999,1.0,-0.02148438,-0.2199554,0.9752655,34.83855,3.186432,-31.31969,2.959045,0.4274020999999999,0.5215494,-0.2742884,1.282117,0.04996037,-0.06504177,0.5858576,0.05275337,1.568892682045874,-2.000859590403375,33.32678882151331
1,-0.01924133,-0.2332001,0.972229,1.0,-0.06225586,-0.2189331,0.9737396,-27.9749,2.832703,-31.971390000000003,2.953094,0.3913897,0.5536101,1.0,-0.008865356,-0.2365722999999999,0.9715729,34.88239,3.163437,-31.32474,2.974823,0.4242782999999999,0.5244848000000001,-0.2736835999999999,1.281137,0.05126858,-0.05781547,0.5874519,0.05261868,1.568892682045874,-2.000859590403375,33.32678882151331
1,-0.01924133,-0.2332001,0.972229,1.0,-0.06225586,-0.2189331,0.9737396,-27.9749,2.832703,-31.971390000000003,2.953094,0.3913897,0.5536101,1.0,-0.008865356,-0.2365722999999999,0.9715729,34.88239,3.163437,-31.32474,2.974823,0.4242782999999999,0.5244848000000001,-0.2736835999999999,1.281137,0.05126858,-0.05781547,0.5874519,0.05261868,1.568892682045874,-2.000859590403375,33.32678882151331
1,-0.01924133,-0.2332001,0.972229,1.0,-0.06225586,-0.2189331,0.9737396,-27.9749,2.832703,-31.971390000000003,2.953094,0.3913897,0.5536101,1.0,-0.008865356,-0.2365722999999999,0.9715729,34.88239,3.163437,-31.32474,2.974823,0.4242782999999999,0.5244848000000001,-0.2736835999999999,1.281137,0.05126858,-0.05781547,0.5874519,0.05261868,1.568892682045874,-2.000859590403375,33.32678882151331
1,-0.01174927,-0.2349547999999999,0.9719238,1.0,-0.05075073,-0.2227936,0.9735413,-27.95161,2.804337,-31.81758,2.928909,0.3891873,0.5536302,1.0,-0.004669189,-0.2371216,0.9714661,34.90126,3.163589,-31.32463,2.857407,0.4232475,0.5245103,-0.2730967,1.280081,0.0526246999999999,-0.05082737,0.5879893,0.05165399,1.568892682045874,-212.9106,33.32678882151331
1,-0.01174927,-0.2349547999999999,0.9719238,1.0,-0.05075073,-0.2227936,0.9735413,-27.95161,2.804337,-31.81758,2.928909,0.3891873,0.5536302,1.0,-0.004669189,-0.2371216,0.9714661,34.90126,3.163589,-31.32463,2.857407,0.4232475,0.5245103,-0.2730967,1.280081,0.0526246999999999,-0.05082737,0.5879893,0.05165399,1.568892682045874,-212.9106,33.32678882151331
1,-0.01174927,-0.2349547999999999,0.9719238,1.0,-0.05075073,-0.2227936,0.9735413,-27.95161,2.804337,-31.81758,2.928909,0.3891873,0.5536302,1.0,-0.004669189,-0.2371216,0.9714661,34.90126,3.163589,-31.32463,2.857407,0.4232475,0.5245103,-0.2730967,1.280081,0.0526246999999999,-0.05082737,0.5879893,0.05165399,1.568892682045874,-212.9106,33.32678882151331
1,0.008087158,-0.1900482,0.9817352,1.0,-0.05236816,-0.1699066,0.9840546,-27.90576,3.137268,-32.66711,2.732697,0.3873294,0.5429432,1.0,0.0112915,-0.1910858,0.9815063,34.9427,3.3020940000000003,-31.14262,2.896057,0.4200702999999999,0.5120934,-0.2720262,1.278563,0.05477798,-0.04046258,0.5870451,0.04961854,1.568892682045874,-212.9106,33.32678882151331
1,0.008087158,-0.1900482,0.9817352,1.0,-0.05236816,-0.1699066,0.9840546,-27.90576,3.137268,-32.66711,2.732697,0.3873294,0.5429432,1.0,0.0112915,-0.1910858,0.9815063,34.9427,3.3020940000000003,-31.14262,2.896057,0.4200702999999999,0.5120934,-0.2720262,1.278563,0.05477798,-0.04046258,0.5870451,0.04961854,1.568892682045874,-212.9106,33.32678882151331
1,0.008087158,-0.1900482,0.9817352,1.0,-0.05236816,-0.1699066,0.9840546,-27.90576,3.137268,-32.66711,2.732697,0.3873294,0.5429432,1.0,0.0112915,-0.1910858,0.9815063,34.9427,3.3020940000000003,-31.14262,2.896057,0.4200702999999999,0.5120934,-0.2720262,1.278563,0.05477798,-0.04046258,0.5870451,0.04961854,1.568892682045874,-212.9106,33.32678882151331
1,0.009597778,-0.1898803999999999,0.9817505,1.0,-0.05128479,-0.1597748,0.9858093,-27.89975,3.185883,-32.744,2.77179,0.3869889,0.5406513000000001,1.0,0.009597778,-0.1898803999999999,0.9817505,34.934459999999994,3.3275910000000004,-31.19305,2.850754,0.4205823,0.5115026,-0.2715853,1.277761,0.0555594,-0.03641575,0.5860404,0.04820657,1.568892682045874,-212.9106,33.32678882151331
1,0.009597778,-0.1898803999999999,0.9817505,1.0,-0.05128479,-0.1597748,0.9858093,-27.89975,3.185883,-32.744,2.77179,0.3869889,0.5406513000000001,1.0,0.009597778,-0.1898803999999999,0.9817505,34.934459999999994,3.3275910000000004,-31.19305,2.850754,0.4205823,0.5115026,-0.2715853,1.277761,0.0555594,-0.03641575,0.5860404,0.04820657,1.568892682045874,-212.9106,33.32678882151331
1,0.009597778,-0.1898803999999999,0.9817505,1.0,-0.05128479,-0.1597748,0.9858093,-27.89975,3.185883,-32.744,2.77179,0.3869889,0.5406513000000001,1.0,0.009597778,-0.1898803999999999,0.9817505,34.934459999999994,3.3275910000000004,-31.19305,2.850754,0.4205823,0.5115026,-0.2715853,1.277761,0.0555594,-0.03641575,0.5860404,0.04820657,1.568892682045874,-212.9106,33.32678882151331
1,-0.02520752,-0.1588287,0.986969,1.0,-0.0683136,-0.1477966,0.9866486,-27.98709,3.317078,-33.01337,2.653671,0.3920868,0.5369925,1.0,0.01187134,-0.1680603,0.9857025,34.838440000000006,3.376038,-30.730970000000003,2.794052,0.4241081,0.5029916,-0.2708464,1.276422,0.05680537,-0.02968932,0.583922,0.04554294,1.568892682045874,-212.9106,33.32678882151331
1,-0.02520752,-0.1588287,0.986969,1.0,-0.0683136,-0.1477966,0.9866486,-27.98709,3.317078,-33.01337,2.653671,0.3920868,0.5369925,1.0,0.01187134,-0.1680603,0.9857025,34.838440000000006,3.376038,-30.730970000000003,2.794052,0.4241081,0.5029916,-0.2708464,1.276422,0.05680537,-0.02968932,0.583922,0.04554294,1.568892682045874,-212.9106,33.32678882151331
1,-0.02520752,-0.1588287,0.986969,1.0,-0.0683136,-0.1477966,0.9866486,-27.98709,3.317078,-33.01337,2.653671,0.3920868,0.5369925,1.0,0.01187134,-0.1680603,0.9857025,34.838440000000006,3.376038,-30.730970000000003,2.794052,0.4241081,0.5029916,-0.2708464,1.276422,0.05680537,-0.02968932,0.583922,0.04554294,1.568892682045874,-212.9106,33.32678882151331
1,-0.2636108,-0.1540985,0.95224,1.0,-0.3014525999999999,-0.1268311,0.9449921,-29.47395,3.423447,-32.32018,2.739746,0.4746369000000001,0.5257977,1.0,-0.2635192999999999,-0.1541595,0.9522552,33.20335,3.729218,-31.53242,2.567917,0.5144277,0.4985853,-0.2699749,1.275465,0.05751729,-0.02486612,0.5840529999999999,0.04197249,1.568892682045874,-218.535,33.32678882151331
1,-0.2636108,-0.1540985,0.95224,1.0,-0.3014525999999999,-0.1268311,0.9449921,-29.47395,3.423447,-32.32018,2.739746,0.4746369000000001,0.5257977,1.0,-0.2635192999999999,-0.1541595,0.9522552,33.20335,3.729218,-31.53242,2.567917,0.5144277,0.4985853,-0.2699749,1.275465,0.05751729,-0.02486612,0.5840529999999999,0.04197249,1.568892682045874,-218.535,33.32678882151331
1,-0.2636108,-0.1540985,0.95224,1.0,-0.3014525999999999,-0.1268311,0.9449921,-29.47395,3.423447,-32.32018,2.739746,0.4746369000000001,0.5257977,1.0,-0.2635192999999999,-0.1541595,0.9522552,33.20335,3.729218,-31.53242,2.567917,0.5144277,0.4985853,-0.2699749,1.275465,0.05751729,-0.02486612,0.5840529999999999,0.04197249,1.568892682045874,-218.535,33.32678882151331
1,-0.3548430999999999,-0.09371948,0.9302063,1.0,-0.4284668,-0.1682739,0.8877411000000001,-29.51256,3.738449,-32.28828,2.708893,0.4927063,0.5213954000000001,1.0,-0.3546295,-0.09350586,0.9303131,32.90143,3.850006,-31.69971,2.890457,0.5356224,0.4894622,-0.269542,1.274907,0.05756831,-0.02234654,0.5849486,0.03977807,1.568892682045874,-218.535,33.32678882151331
1,-0.3548430999999999,-0.09371948,0.9302063,1.0,-0.4284668,-0.1682739,0.8877411000000001,-29.51256,3.738449,-32.28828,2.708893,0.4927063,0.5213954000000001,1.0,-0.3546295,-0.09350586,0.9303131,32.90143,3.850006,-31.69971,2.890457,0.5356224,0.4894622,-0.269542,1.274907,0.05756831,-0.02234654,0.5849486,0.03977807,1.568892682045874,-218.535,33.32678882151331
1,-0.3548430999999999,-0.09371948,0.9302063,1.0,-0.4284668,-0.1682739,0.8877411000000001,-29.51256,3.738449,-32.28828,2.708893,0.4927063,0.5213954000000001,1.0,-0.3546295,-0.09350586,0.9303131,32.90143,3.850006,-31.69971,2.890457,0.5356224,0.4894622,-0.269542,1.274907,0.05756831,-0.02234654,0.5849486,0.03977807,1.568892682045874,-218.535,33.32678882151331
1,-0.3548430999999999,-0.09371948,0.9302063,1.0,-0.4284668,-0.1682739,0.8877411000000001,-29.51256,3.738449,-32.28828,2.708893,0.4927063,0.5213954000000001,1.0,-0.3546295,-0.09350586,0.9303131,32.90143,3.850006,-31.69971,2.890457,0.5356224,0.4894622,-0.2691152,1.274298,0.05753434,-0.01957031,0.5860043,0.03740485,1.568892682045874,-218.535,33.32678882151331
1,-0.3548430999999999,-0.09371948,0.9302063,1.0,-0.4284668,-0.1682739,0.8877411000000001,-29.51256,3.738449,-32.28828,2.708893,0.4927063,0.5213954000000001,1.0,-0.3546295,-0.09350586,0.9303131,32.90143,3.850006,-31.69971,2.890457,0.5356224,0.4894622,-0.2691152,1.274298,0.05753434,-0.01957031,0.5860043,0.03740485,1.568892682045874,-218.535,33.32678882151331
1,-0.3548430999999999,-0.09371948,0.9302063,1.0,-0.4284668,-0.1682739,0.8877411000000001,-29.51256,3.738449,-32.28828,2.708893,0.4927063,0.5213954000000001,1.0,-0.3546295,-0.09350586,0.9303131,32.90143,3.850006,-31.69971,2.890457,0.5356224,0.4894622,-0.2691152,1.274298,0.05753434,-0.01957031,0.5860043,0.03740485,1.568892682045874,-218.535,33.32678882151331
1,-0.33461,-0.1114807,0.93573,1.0,-0.4242401,-0.1830444,0.8868408000000001,-29.49422,3.801895,-32.26164,2.465271,0.4916437,0.5207419,1.0,-0.3287506,-0.1068726,0.9383392,32.976820000000004,3.864899,-31.64803,2.5506290000000003,0.5304646,0.4896893,-0.2675781,1.272994,0.0563302,-0.0129115,0.5917423,0.03408856,1.568892682045874,-218.535,33.32678882151331
1,-0.33461,-0.1114807,0.93573,1.0,-0.4242401,-0.1830444,0.8868408000000001,-29.49422,3.801895,-32.26164,2.465271,0.4916437,0.5207419,1.0,-0.3287506,-0.1068726,0.9383392,32.976820000000004,3.864899,-31.64803,2.5506290000000003,0.5304646,0.4896893,-0.2675781,1.272994,0.0563302,-0.0129115,0.5917423,0.03408856,1.568892682045874,-218.535,33.32678882151331
1,-0.33461,-0.1114807,0.93573,1.0,-0.4242401,-0.1830444,0.8868408000000001,-29.49422,3.801895,-32.26164,2.465271,0.4916437,0.5207419,1.0,-0.3287506,-0.1068726,0.9383392,32.976820000000004,3.864899,-31.64803,2.5506290000000003,0.5304646,0.4896893,-0.2675781,1.272994,0.0563302,-0.0129115,0.5917423,0.03408856,1.568892682045874,-218.535,33.32678882151331
1,-0.3410645,-0.1178588999999999,0.9326171999999998,1.0,-0.3926239,-0.1558227999999999,0.9063873,-29.54552,3.822357,-32.27214,2.364624,0.4892695999999999,0.5160496,1.0,-0.3122864,-0.09695435,0.9450226,33.00983,3.91835,-31.61705,2.476227,0.5274313,0.4860292,-0.266733,1.272401,0.05517793,-0.009329798,0.5973864999999999,0.03240237,1.568892682045874,-218.535,33.32678882151331
1,-0.3410645,-0.1178588999999999,0.9326171999999998,1.0,-0.3926239,-0.1558227999999999,0.9063873,-29.54552,3.822357,-32.27214,2.364624,0.4892695999999999,0.5160496,1.0,-0.3122864,-0.09695435,0.9450226,33.00983,3.91835,-31.61705,2.476227,0.5274313,0.4860292,-0.266733,1.272401,0.05517793,-0.009329798,0.5973864999999999,0.03240237,1.568892682045874,-218.535,33.32678882151331
1,-0.3410645,-0.1178588999999999,0.9326171999999998,1.0,-0.3926239,-0.1558227999999999,0.9063873,-29.54552,3.822357,-32.27214,2.364624,0.4892695999999999,0.5160496,1.0,-0.3122864,-0.09695435,0.9450226,33.00983,3.91835,-31.61705,2.476227,0.5274313,0.4860292,-0.266733,1.272401,0.05517793,-0.009329798,0.5973864999999999,0.03240237,1.568892682045874,-218.535,33.32678882151331
1,-0.3039246,-0.08059692,0.9492645,1.0,-0.3247680999999999,-0.1038513,0.9400635,-29.67375,3.628906,-32.34718,2.284714,0.4848013,0.5158879,1.0,-0.295517,-0.07130432,0.9526671999999998,33.08788,3.919861,-31.589890000000004,2.488953,0.5226376,0.4822079999999999,-0.2658055,1.271408,0.05366242,-0.0046491,0.6037140000000001,0.03061788,1.229158,-10.50442,33.32678882151331
1,-0.3039246,-0.08059692,0.9492645,1.0,-0.3247680999999999,-0.1038513,0.9400635,-29.67375,3.628906,-32.34718,2.284714,0.4848013,0.5158879,1.0,-0.295517,-0.07130432,0.9526671999999998,33.08788,3.919861,-31.589890000000004,2.488953,0.5226376,0.4822079999999999,-0.2658055,1.271408,0.05366242,-0.0046491,0.6037140000000001,0.03061788,1.229158,-10.50442,33.32678882151331
1,-0.3039246,-0.08059692,0.9492645,1.0,-0.3247680999999999,-0.1038513,0.9400635,-29.67375,3.628906,-32.34718,2.284714,0.4848013,0.5158879,1.0,-0.295517,-0.07130432,0.9526671999999998,33.08788,3.919861,-31.589890000000004,2.488953,0.5226376,0.4822079999999999,-0.2658055,1.271408,0.05366242,-0.0046491,0.6037140000000001,0.03061788,1.229158,-10.50442,33.32678882151331
1,-0.3075409,-0.08950806,0.9473114,1.0,-0.3219757,-0.1012573,0.9412994,-29.642090000000003,3.64978,-32.33827,2.327271,0.4833205,0.5147311999999999,1.0,-0.3014525999999999,-0.08457947,0.949707,33.158809999999995,3.939072,-31.57211,2.428635,0.5210369,0.4831263,-0.264725,1.270895,0.05185843,-0.001577496,0.6112345,0.02992516,1.229158,-10.50442,33.32678882151331
1,-0.3075409,-0.08950806,0.9473114,1.0,-0.3219757,-0.1012573,0.9412994,-29.642090000000003,3.64978,-32.33827,2.327271,0.4833205,0.5147311999999999,1.0,-0.3014525999999999,-0.08457947,0.949707,33.158809999999995,3.939072,-31.57211,2.428635,0.5210369,0.4831263,-0.264725,1.270895,0.05185843,-0.001577496,0.6112345,0.02992516,1.229158,-10.50442,33.32678882151331
1,-0.3075409,-0.08950806,0.9473114,1.0,-0.3219757,-0.1012573,0.9412994,-29.642090000000003,3.64978,-32.33827,2.327271,0.4833205,0.5147311999999999,1.0,-0.3014525999999999,-0.08457947,0.949707,33.158809999999995,3.939072,-31.57211,2.428635,0.5210369,0.4831263,-0.264725,1.270895,0.05185843,-0.001577496,0.6112345,0.02992516,1.229158,-10.50442,33.32678882151331
1,-0.3075409,-0.08950806,0.9473114,1.0,-0.3219757,-0.1012573,0.9412994,-29.642090000000003,3.64978,-32.33827,2.327271,0.4833205,0.5147311999999999,1.0,-0.3014525999999999,-0.08457947,0.949707,33.158809999999995,3.939072,-31.57211,2.428635,0.5210369,0.4831263,-0.2636812,1.2700870000000002,0.04957199,0.002196418,0.6196626999999999,0.02761495,1.229158,-10.50442,33.32678882151331
1,-0.3075409,-0.08950806,0.9473114,1.0,-0.3219757,-0.1012573,0.9412994,-29.642090000000003,3.64978,-32.33827,2.327271,0.4833205,0.5147311999999999,1.0,-0.3014525999999999,-0.08457947,0.949707,33.158809999999995,3.939072,-31.57211,2.428635,0.5210369,0.4831263,-0.2636812,1.2700870000000002,0.04957199,0.002196418,0.6196626999999999,0.02761495,1.229158,-10.50442,33.32678882151331
1,-0.3075409,-0.08950806,0.9473114,1.0,-0.3219757,-0.1012573,0.9412994,-29.642090000000003,3.64978,-32.33827,2.327271,0.4833205,0.5147311999999999,1.0,-0.3014525999999999,-0.08457947,0.949707,33.158809999999995,3.939072,-31.57211,2.428635,0.5210369,0.4831263,-0.2636812,1.2700870000000002,0.04957199,0.002196418,0.6196626999999999,0.02761495,1.229158,-10.50442,33.32678882151331
1,-0.2562408,-0.08091736,0.9632111,1.0,-0.2702637,-0.09397888,0.9581757,-29.44655,3.699875,-32.27203,2.147476,0.469738,0.5108252999999999,1.0,-0.245163,-0.07064819,0.9668884,33.34926,4.033905,-31.47737,2.284576,0.5077640999999999,0.4764702999999999,-0.2625775999999999,1.269326,0.04696918,0.006459354,0.6299666,0.02540705,1.229158,-10.50442,33.32678882151331
1,-0.2562408,-0.08091736,0.9632111,1.0,-0.2702637,-0.09397888,0.9581757,-29.44655,3.699875,-32.27203,2.147476,0.469738,0.5108252999999999,1.0,-0.245163,-0.07064819,0.9668884,33.34926,4.033905,-31.47737,2.284576,0.5077640999999999,0.4764702999999999,-0.2625775999999999,1.269326,0.04696918,0.006459354,0.6299666,0.02540705,1.229158,-10.50442,33.32678882151331
1,-0.2562408,-0.08091736,0.9632111,1.0,-0.2702637,-0.09397888,0.9581757,-29.44655,3.699875,-32.27203,2.147476,0.469738,0.5108252999999999,1.0,-0.245163,-0.07064819,0.9668884,33.34926,4.033905,-31.47737,2.284576,0.5077640999999999,0.4764702999999999,-0.2625775999999999,1.269326,0.04696918,0.006459354,0.6299666,0.02540705,1.229158,-10.50442,33.32678882151331
1,-0.3373413,-0.09140015,0.9369202,1.0,-0.359726,-0.1010895,0.9275513,-29.72362,3.696259,-32.36554,2.222839,0.4911854999999999,0.5136814000000001,1.0,-0.3059082,-0.07788086,0.9488678,32.87613,3.91951,-31.65797,2.324081,0.5315821,0.4837510999999999,-0.2614554,1.26834,0.04359269,0.01136664,0.642279,0.02201788,1.229158,-10.50442,33.32678882151331
1,-0.3373413,-0.09140015,0.9369202,1.0,-0.359726,-0.1010895,0.9275513,-29.72362,3.696259,-32.36554,2.222839,0.4911854999999999,0.5136814000000001,1.0,-0.3059082,-0.07788086,0.9488678,32.87613,3.91951,-31.65797,2.324081,0.5315821,0.4837510999999999,-0.2614554,1.26834,0.04359269,0.01136664,0.642279,0.02201788,1.229158,-10.50442,33.32678882151331
1,-0.3373413,-0.09140015,0.9369202,1.0,-0.359726,-0.1010895,0.9275513,-29.72362,3.696259,-32.36554,2.222839,0.4911854999999999,0.5136814000000001,1.0,-0.3059082,-0.07788086,0.9488678,32.87613,3.91951,-31.65797,2.324081,0.5315821,0.4837510999999999,-0.2614554,1.26834,0.04359269,0.01136664,0.642279,0.02201788,1.229158,-10.50442,33.32678882151331
1,-0.3542022999999999,-0.08708191,0.9310913,1.0,-0.3622742,-0.1039581,0.926239,-29.79893,3.708557,-32.39012,2.144348,0.4941996,0.5138528,1.0,-0.3349304,-0.04774475,0.9410248,32.87314,3.98912,-31.68399,2.461136,0.5350794,0.4781752,-0.2604844,1.266883,0.0396235,0.01566393,0.6560394,0.01604296,1.229158,-10.50442,33.32678882151331
1,-0.3542022999999999,-0.08708191,0.9310913,1.0,-0.3622742,-0.1039581,0.926239,-29.79893,3.708557,-32.39012,2.144348,0.4941996,0.5138528,1.0,-0.3349304,-0.04774475,0.9410248,32.87314,3.98912,-31.68399,2.461136,0.5350794,0.4781752,-0.2604844,1.266883,0.0396235,0.01566393,0.6560394,0.01604296,1.229158,-10.50442,33.32678882151331
1,-0.3542022999999999,-0.08708191,0.9310913,1.0,-0.3622742,-0.1039581,0.926239,-29.79893,3.708557,-32.39012,2.144348,0.4941996,0.5138528,1.0,-0.3349304,-0.04774475,0.9410248,32.87314,3.98912,-31.68399,2.461136,0.5350794,0.4781752,-0.2604844,1.266883,0.0396235,0.01566393,0.6560394,0.01604296,1.229158,-10.50442,33.32678882151331
1,-0.3542022999999999,-0.08708191,0.9310913,1.0,-0.3622742,-0.1039581,0.926239,-29.79893,3.708557,-32.39012,2.144348,0.4941996,0.5138528,1.0,-0.3349304,-0.04774475,0.9410248,32.87314,3.98912,-31.68399,2.461136,0.5350794,0.4781752,-0.2596826,1.265342,0.03612518,0.01954198,0.6692144,0.01012954,1.229158,-10.50442,33.32678882151331
1,-0.3542022999999999,-0.08708191,0.9310913,1.0,-0.3622742,-0.1039581,0.926239,-29.79893,3.708557,-32.39012,2.144348,0.4941996,0.5138528,1.0,-0.3349304,-0.04774475,0.9410248,32.87314,3.98912,-31.68399,2.461136,0.5350794,0.4781752,-0.2596826,1.265342,0.03612518,0.01954198,0.6692144,0.01012954,1.229158,-10.50442,33.32678882151331
1,-0.3542022999999999,-0.08708191,0.9310913,1.0,-0.3622742,-0.1039581,0.926239,-29.79893,3.708557,-32.39012,2.144348,0.4941996,0.5138528,1.0,-0.3349304,-0.04774475,0.9410248,32.87314,3.98912,-31.68399,2.461136,0.5350794,0.4781752,-0.2596826,1.265342,0.03612518,0.01954198,0.6692144,0.01012954,1.229158,-10.50442,33.32678882151331
1,-0.3542022999999999,-0.08708191,0.9310913,1.0,-0.3622742,-0.1039581,0.926239,-29.79893,3.708557,-32.39012,2.144348,0.4941996,0.5138528,1.0,-0.3349304,-0.04774475,0.9410248,32.87314,3.98912,-31.68399,2.461136,0.5350794,0.4781752,-0.2592683999999999,1.263991,0.032776,0.02384409,0.6812782,0.006354549,1.229158,40.75723,33.32678882151331
1,-0.3542022999999999,-0.08708191,0.9310913,1.0,-0.3622742,-0.1039581,0.926239,-29.79893,3.708557,-32.39012,2.144348,0.4941996,0.5138528,1.0,-0.3349304,-0.04774475,0.9410248,32.87314,3.98912,-31.68399,2.461136,0.5350794,0.4781752,-0.2592683999999999,1.263991,0.032776,0.02384409,0.6812782,0.006354549,1.229158,40.75723,33.32678882151331
1,-0.3542022999999999,-0.08708191,0.9310913,1.0,-0.3622742,-0.1039581,0.926239,-29.79893,3.708557,-32.39012,2.144348,0.4941996,0.5138528,1.0,-0.3349304,-0.04774475,0.9410248,32.87314,3.98912,-31.68399,2.461136,0.5350794,0.4781752,-0.2592683999999999,1.263991,0.032776,0.02384409,0.6812782,0.006354549,1.229158,40.75723,33.32678882151331
1,-0.2413482999999999,-0.05297852,0.9689789,1.0,-0.2488556,-0.04600525,0.9674377,-29.28395,3.85994,-32.22647,2.176086,0.4613225,0.4984728,1.0,-0.2321777,-0.06143188,0.9707184,33.49216,4.091888,-31.439940000000004,2.048157,0.5016837000000001,0.4726590999999999,-0.2593219,1.262529,0.0297327,0.02993868,0.692546,0.00210969,1.229158,40.75723,33.32678882151331
1,-0.2413482999999999,-0.05297852,0.9689789,1.0,-0.2488556,-0.04600525,0.9674377,-29.28395,3.85994,-32.22647,2.176086,0.4613225,0.4984728,1.0,-0.2321777,-0.06143188,0.9707184,33.49216,4.091888,-31.439940000000004,2.048157,0.5016837000000001,0.4726590999999999,-0.2593219,1.262529,0.0297327,0.02993868,0.692546,0.00210969,1.229158,40.75723,33.32678882151331
1,-0.2413482999999999,-0.05297852,0.9689789,1.0,-0.2488556,-0.04600525,0.9674377,-29.28395,3.85994,-32.22647,2.176086,0.4613225,0.4984728,1.0,-0.2321777,-0.06143188,0.9707184,33.49216,4.091888,-31.439940000000004,2.048157,0.5016837000000001,0.4726590999999999,-0.2593219,1.262529,0.0297327,0.02993868,0.692546,0.00210969,1.229158,40.75723,33.32678882151331
1,-0.2051239,-0.1019896999999999,0.9734039,1.0,-0.2363280999999999,-0.09336853,0.9671631,-29.06094,3.582596,-32.411359999999995,2.195923,0.4517706,0.5157978,1.0,-0.2045898,-0.1021423,0.9734955,33.56071,3.778381,-31.44032,2.261444,0.4953904,0.4884734,-0.2596572,1.261115,0.02721643,0.03539443,0.7021416,-0.005610319,1.229158,40.75723,33.32678882151331
1,-0.2051239,-0.1019896999999999,0.9734039,1.0,-0.2363280999999999,-0.09336853,0.9671631,-29.06094,3.582596,-32.411359999999995,2.195923,0.4517706,0.5157978,1.0,-0.2045898,-0.1021423,0.9734955,33.56071,3.778381,-31.44032,2.261444,0.4953904,0.4884734,-0.2596572,1.261115,0.02721643,0.03539443,0.7021416,-0.005610319,1.229158,40.75723,33.32678882151331
1,-0.2051239,-0.1019896999999999,0.9734039,1.0,-0.2363280999999999,-0.09336853,0.9671631,-29.06094,3.582596,-32.411359999999995,2.195923,0.4517706,0.5157978,1.0,-0.2045898,-0.1021423,0.9734955,33.56071,3.778381,-31.44032,2.261444,0.4953904,0.4884734,-0.2596572,1.261115,0.02721643,0.03539443,0.7021416,-0.005610319,1.229158,40.75723,33.32678882151331
1,-0.2608185,-0.293808,0.9195862,1.0,-0.2741699,-0.3013763,0.9132233,-29.25926,2.766434,-32.442440000000005,2.195236,0.4634465,0.5729323000000001,1.0,-0.2577667,-0.2920685,0.92099,33.31261,2.97258,-31.66283,2.218842,0.5103899000000001,0.5441939,-0.2600853999999999,1.256804,0.02306175,0.04846001,0.7176264,-0.02814968,1.229158,40.75723,33.32678882151331
1,-0.2608185,-0.293808,0.9195862,1.0,-0.2741699,-0.3013763,0.9132233,-29.25926,2.766434,-32.442440000000005,2.195236,0.4634465,0.5729323000000001,1.0,-0.2577667,-0.2920685,0.92099,33.31261,2.97258,-31.66283,2.218842,0.5103899000000001,0.5441939,-0.2600853999999999,1.256804,0.02306175,0.04846001,0.7176264,-0.02814968,1.229158,40.75723,33.32678882151331
1,-0.2608185,-0.293808,0.9195862,1.0,-0.2741699,-0.3013763,0.9132233,-29.25926,2.766434,-32.442440000000005,2.195236,0.4634465,0.5729323000000001,1.0,-0.2577667,-0.2920685,0.92099,33.31261,2.97258,-31.66283,2.218842,0.5103899000000001,0.5441939,-0.2600853999999999,1.256804,0.02306175,0.04846001,0.7176264,-0.02814968,1.229158,40.75723,33.32678882151331
1,-0.2634277,-0.302475,0.9160156,1.0,-0.2741089,-0.2944794,0.9154816,-29.25131,2.721359,-32.45265,2.208435,0.4631425999999999,0.5736515999999999,1.0,-0.2538757,-0.3095398,0.9163513,33.434940000000005,2.963348,-31.63513,2.22554,0.5056427,0.5466008000000001,-0.2604094,1.255047,0.02190673,0.05402253,0.7230706,-0.03631612,1.229158,18.94355,33.32678882151331
1,-0.2634277,-0.302475,0.9160156,1.0,-0.2741089,-0.2944794,0.9154816,-29.25131,2.721359,-32.45265,2.208435,0.4631425999999999,0.5736515999999999,1.0,-0.2538757,-0.3095398,0.9163513,33.434940000000005,2.963348,-31.63513,2.22554,0.5056427,0.5466008000000001,-0.2604094,1.255047,0.02190673,0.05402253,0.7230706,-0.03631612,1.229158,18.94355,33.32678882151331
1,-0.2634277,-0.302475,0.9160156,1.0,-0.2741089,-0.2944794,0.9154816,-29.25131,2.721359,-32.45265,2.208435,0.4631425999999999,0.5736515999999999,1.0,-0.2538757,-0.3095398,0.9163513,33.434940000000005,2.963348,-31.63513,2.22554,0.5056427,0.5466008000000001,-0.2604094,1.255047,0.02190673,0.05402253,0.7230706,-0.03631612,1.229158,18.94355,33.32678882151331
1,-0.2332916,-0.2384643999999999,0.9427032,1.0,-0.2469788,-0.2562714,0.9345093,-29.0999,3.00119,-32.35803,2.239777,0.454326,0.5573800999999999,1.0,-0.2219391,-0.2237244,0.9490356,33.60876,3.214417,-31.52701,2.473175,0.4952804,0.5248090999999999,-0.260367,1.253897,0.02056944,0.05838116,0.7268680000000001,-0.04128917,1.229158,18.94355,33.32678882151331
1,-0.2332916,-0.2384643999999999,0.9427032,1.0,-0.2469788,-0.2562714,0.9345093,-29.0999,3.00119,-32.35803,2.239777,0.454326,0.5573800999999999,1.0,-0.2219391,-0.2237244,0.9490356,33.60876,3.214417,-31.52701,2.473175,0.4952804,0.5248090999999999,-0.260367,1.253897,0.02056944,0.05838116,0.7268680000000001,-0.04128917,1.229158,18.94355,33.32678882151331
1,-0.2332916,-0.2384643999999999,0.9427032,1.0,-0.2469788,-0.2562714,0.9345093,-29.0999,3.00119,-32.35803,2.239777,0.454326,0.5573800999999999,1.0,-0.2219391,-0.2237244,0.9490356,33.60876,3.214417,-31.52701,2.473175,0.4952804,0.5248090999999999,-0.260367,1.253897,0.02056944,0.05838116,0.7268680000000001,-0.04128917,1.229158,18.94355,33.32678882151331
1,-0.1983032,-0.3245239,0.9248505,1.0,-0.2132262999999999,-0.3313293,0.9190979,-28.89868,2.546661,-32.4279,2.507401,0.4426988,0.5840666,1.0,-0.1834106,-0.3176727,0.9302826,33.64912,2.725937,-31.622770000000003,2.590637,0.4887066,0.5548137,-0.2605275999999999,1.249012,0.01914883,0.06976736,0.7291979999999999,-0.06322026,1.229158,18.94355,33.32678882151331
1,-0.1983032,-0.3245239,0.9248505,1.0,-0.2132262999999999,-0.3313293,0.9190979,-28.89868,2.546661,-32.4279,2.507401,0.4426988,0.5840666,1.0,-0.1834106,-0.3176727,0.9302826,33.64912,2.725937,-31.622770000000003,2.590637,0.4887066,0.5548137,-0.2605275999999999,1.249012,0.01914883,0.06976736,0.7291979999999999,-0.06322026,1.229158,18.94355,33.32678882151331
1,-0.1983032,-0.3245239,0.9248505,1.0,-0.2132262999999999,-0.3313293,0.9190979,-28.89868,2.546661,-32.4279,2.507401,0.4426988,0.5840666,1.0,-0.1834106,-0.3176727,0.9302826,33.64912,2.725937,-31.622770000000003,2.590637,0.4887066,0.5548137,-0.2605275999999999,1.249012,0.01914883,0.06976736,0.7291979999999999,-0.06322026,1.229158,18.94355,33.32678882151331
1,-0.1868744,-0.4589081,0.8685913000000001,0.9932854,-0.2064209,-0.4539337,0.8667908000000001,-28.73599,1.841263,-32.688320000000004,2.402298,0.4356444,0.6292615,0.9213454,-0.1590576,-0.4656524999999999,0.8705444,33.7047,2.127075,-31.85117,2.3934330000000004,0.4837568,0.5986663000000001,-0.2607973,1.244984,0.01896822,0.0800232,0.7284446,-0.07892035,1.229158,1.65724,33.32678882151331
1,-0.1868744,-0.4589081,0.8685913000000001,0.9932854,-0.2064209,-0.4539337,0.8667908000000001,-28.73599,1.841263,-32.688320000000004,2.402298,0.4356444,0.6292615,0.9213454,-0.1590576,-0.4656524999999999,0.8705444,33.7047,2.127075,-31.85117,2.3934330000000004,0.4837568,0.5986663000000001,-0.2607973,1.244984,0.01896822,0.0800232,0.7284446,-0.07892035,1.229158,1.65724,33.32678882151331
1,-0.1868744,-0.4589081,0.8685913000000001,0.9932854,-0.2064209,-0.4539337,0.8667908000000001,-28.73599,1.841263,-32.688320000000004,2.402298,0.4356444,0.6292615,0.9213454,-0.1590576,-0.4656524999999999,0.8705444,33.7047,2.127075,-31.85117,2.3934330000000004,0.4837568,0.5986663000000001,-0.2607973,1.244984,0.01896822,0.0800232,0.7284446,-0.07892035,1.229158,1.65724,33.32678882151331
1,-0.1574097,-0.468689,0.8692169,0.909083,-0.1892853,-0.4733123999999999,0.8603058000000001,-28.68573,1.890152,-32.63156,2.396988,0.4316133,0.6296936,0.9238006,-0.122406,-0.463028,0.8778381,33.834109999999995,2.086594,-31.82326,2.425766,0.4745758,0.5989431,-0.2607973,1.244984,0.01896822,0.0800232,0.7284446,-0.07892035,1.229158,1.65724,33.32678882151331
2,-0.1574097,-0.468689,0.8692169,0.909083,-0.1892853,-0.4733123999999999,0.8603058000000001,-28.68573,1.890152,-32.63156,2.396988,0.4316133,0.6296936,0.9238006,-0.122406,-0.463028,0.8778381,33.834109999999995,2.086594,-31.82326,2.425766,0.4745758,0.5989431,-0.2607973,1.244984,0.01896822,0.0800232,0.7284446,-0.07892035,1.229158,1.65724,33.32678882151331
2,-0.1574097,-0.468689,0.8692169,0.909083,-0.1892853,-0.4733123999999999,0.8603058000000001,-28.68573,1.890152,-32.63156,2.396988,0.4316133,0.6296936,0.9238006,-0.122406,-0.463028,0.8778381,33.834109999999995,2.086594,-31.82326,2.425766,0.4745758,0.5989431,-0.2607973,1.244984,0.01896822,0.0800232,0.7284446,-0.07892035,1.229158,1.65724,33.32678882151331
2,-0.1641846,-0.4286804,0.8883972,0.8892127000000001,-0.1930542,-0.4485168,0.8726654,-28.70181,2.0954740000000003,-32.548770000000005,2.373825,0.4327992999999999,0.6178943,0.919955,-0.1305388999999999,-0.4049835,0.9049377,33.9158,2.265289,-31.71571,2.525253,0.4727399,0.5832816,-0.2612932,1.240527,0.01888323,0.09094825,0.7262145000000001,-0.09503528,1.229158,1.65724,33.32678882151331
2,-0.1641846,-0.4286804,0.8883972,0.8892127000000001,-0.1930542,-0.4485168,0.8726654,-28.70181,2.0954740000000003,-32.548770000000005,2.373825,0.4327992999999999,0.6178943,0.919955,-0.1305388999999999,-0.4049835,0.9049377,33.9158,2.265289,-31.71571,2.525253,0.4727399,0.5832816,-0.2612932,1.240527,0.01888323,0.09094825,0.7262145000000001,-0.09503528,1.229158,1.65724,33.32678882151331
2,-0.1641846,-0.4286804,0.8883972,0.8892127000000001,-0.1930542,-0.4485168,0.8726654,-28.70181,2.0954740000000003,-32.548770000000005,2.373825,0.4327992999999999,0.6178943,0.919955,-0.1305388999999999,-0.4049835,0.9049377,33.9158,2.265289,-31.71571,2.525253,0.4727399,0.5832816,-0.2612932,1.240527,0.01888323,0.09094825,0.7262145000000001,-0.09503528,1.229158,1.65724,33.32678882151331
2,-0.1676025,-0.4184113,0.8926392,0.908663,-0.1913147,-0.4229126,0.8857269,-28.74271,2.277374,-32.4874,2.51503,0.4341603,0.6069958000000001,0.9128566,-0.1444397,-0.4137878,0.8988341999999999,33.89894,2.474243,-31.65765,2.5059970000000003,0.475166,0.5768763000000001,-0.2603187,1.234069,0.01895094,0.1057912,0.7206538,-0.1203246,1.229158,1.65724,33.32678882151331
2,-0.1676025,-0.4184113,0.8926392,0.908663,-0.1913147,-0.4229126,0.8857269,-28.74271,2.277374,-32.4874,2.51503,0.4341603,0.6069958000000001,0.9128566,-0.1444397,-0.4137878,0.8988341999999999,33.89894,2.474243,-31.65765,2.5059970000000003,0.475166,0.5768763000000001,-0.2603187,1.234069,0.01895094,0.1057912,0.7206538,-0.1203246,1.229158,1.65724,33.32678882151331
2,-0.1676025,-0.4184113,0.8926392,0.908663,-0.1913147,-0.4229126,0.8857269,-28.74271,2.277374,-32.4874,2.51503,0.4341603,0.6069958000000001,0.9128566,-0.1444397,-0.4137878,0.8988341999999999,33.89894,2.474243,-31.65765,2.5059970000000003,0.475166,0.5768763000000001,-0.2603187,1.234069,0.01895094,0.1057912,0.7206538,-0.1203246,1.229158,1.65724,33.32678882151331
2,-0.1543579,-0.3843842,0.9101715,0.8726101999999999,-0.1806946,-0.387146,0.904129,-28.77199,2.341232,-32.45636,2.555771,0.4338817,0.5992057,0.9211841,-0.1291809,-0.381485,0.9152985,33.84755,2.511719,-31.65584,2.6035,0.4749367999999999,0.5707988,-0.2606519,1.229581,0.01896846,0.1169077999999999,0.7172614,-0.1376412999999999,1.229158,1.65724,34.21
2,-0.1543579,-0.3843842,0.9101715,0.8726101999999999,-0.1806946,-0.387146,0.904129,-28.77199,2.341232,-32.45636,2.555771,0.4338817,0.5992057,0.9211841,-0.1291809,-0.381485,0.9152985,33.84755,2.511719,-31.65584,2.6035,0.4749367999999999,0.5707988,-0.2606519,1.229581,0.01896846,0.1169077999999999,0.7172614,-0.1376412999999999,1.229158,1.65724,34.21
2,-0.1543579,-0.3843842,0.9101715,0.8726101999999999,-0.1806946,-0.387146,0.904129,-28.77199,2.341232,-32.45636,2.555771,0.4338817,0.5992057,0.9211841,-0.1291809,-0.381485,0.9152985,33.84755,2.511719,-31.65584,2.6035,0.4749367999999999,0.5707988,-0.2606519,1.229581,0.01896846,0.1169077999999999,0.7172614,-0.1376412999999999,1.229158,1.65724,34.21
2,-0.09893799,-0.4439697,0.8905487,0.8305167999999999,-0.1264801,-0.4572295999999999,0.8802948,-28.31088,1.951797,-32.53363,2.498444,0.4101323,0.6235746,0.9157113,-0.0778656,-0.4335479999999999,0.8977509,34.14467,2.06131,-31.75243,2.720078,0.4577876,0.5941741,-0.2609675999999999,1.225066,0.01848638,0.1295694,0.714921,-0.1547147999999999,1.229158,-1.091858,34.21
2,-0.09893799,-0.4439697,0.8905487,0.8305167999999999,-0.1264801,-0.4572295999999999,0.8802948,-28.31088,1.951797,-32.53363,2.498444,0.4101323,0.6235746,0.9157113,-0.0778656,-0.4335479999999999,0.8977509,34.14467,2.06131,-31.75243,2.720078,0.4577876,0.5941741,-0.2609675999999999,1.225066,0.01848638,0.1295694,0.714921,-0.1547147999999999,1.229158,-1.091858,34.21
2,-0.09893799,-0.4439697,0.8905487,0.8305167999999999,-0.1264801,-0.4572295999999999,0.8802948,-28.31088,1.951797,-32.53363,2.498444,0.4101323,0.6235746,0.9157113,-0.0778656,-0.4335479999999999,0.8977509,34.14467,2.06131,-31.75243,2.720078,0.4577876,0.5941741,-0.2609675999999999,1.225066,0.01848638,0.1295694,0.714921,-0.1547147999999999,1.229158,-1.091858,34.21
2,-0.03152466,-0.5224915,0.8520508,0.7755398,-0.08146667,-0.5115662,0.8553619,-28.1494,1.600403,-32.71797,2.744904,0.3981943,0.6457856,0.8777629000000001,-0.007766724,-0.5272064000000001,0.8496857,34.27924,1.857712,-31.84642,2.736557,0.4439885,0.6153951999999999,-0.2619308,1.220316,0.01775002,0.1428477,0.7116563,-0.1707507,1.229158,-1.091858,34.21
2,-0.03152466,-0.5224915,0.8520508,0.7755398,-0.08146667,-0.5115662,0.8553619,-28.1494,1.600403,-32.71797,2.744904,0.3981943,0.6457856,0.8777629000000001,-0.007766724,-0.5272064000000001,0.8496857,34.27924,1.857712,-31.84642,2.736557,0.4439885,0.6153951999999999,-0.2619308,1.220316,0.01775002,0.1428477,0.7116563,-0.1707507,1.229158,-1.091858,34.21
2,-0.03152466,-0.5224915,0.8520508,0.7755398,-0.08146667,-0.5115662,0.8553619,-28.1494,1.600403,-32.71797,2.744904,0.3981943,0.6457856,0.8777629000000001,-0.007766724,-0.5272064000000001,0.8496857,34.27924,1.857712,-31.84642,2.736557,0.4439885,0.6153951999999999,-0.2619308,1.220316,0.01775002,0.1428477,0.7116563,-0.1707507,1.229158,-1.091858,34.21
2,-0.05757141,-0.4660034,0.8828888,0.7504793000000001,-0.08422852,-0.4955292,0.8644867,-28.160740000000004,1.784607,-32.62511,2.731659,0.3991547,0.6358397,0.8852699,-0.04190063,-0.448288,0.8928985999999999,34.402159999999995,1.921646,-31.77579,2.584229,0.4443955,0.6011248,-0.2619308,1.220316,0.01775002,0.1428477,0.7116563,-0.1707507,1.229158,-1.091858,34.21
2,-0.05757141,-0.4660034,0.8828888,0.7504793000000001,-0.08422852,-0.4955292,0.8644867,-28.160740000000004,1.784607,-32.62511,2.731659,0.3991547,0.6358397,0.8852699,-0.04190063,-0.448288,0.8928985999999999,34.402159999999995,1.921646,-31.77579,2.584229,0.4443955,0.6011248,-0.2619308,1.220316,0.01775002,0.1428477,0.7116563,-0.1707507,1.229158,-1.091858,34.21
2,-0.05757141,-0.4660034,0.8828888,0.7504793000000001,-0.08422852,-0.4955292,0.8644867,-28.160740000000004,1.784607,-32.62511,2.731659,0.3991547,0.6358397,0.8852699,-0.04190063,-0.448288,0.8928985999999999,34.402159999999995,1.921646,-31.77579,2.584229,0.4443955,0.6011248,-0.2619308,1.220316,0.01775002,0.1428477,0.7116563,-0.1707507,1.229158,-1.091858,34.21
2,-0.05072021,-0.4441680999999999,0.8944854999999999,0.7214351,-0.07725525,-0.4542542,0.8875122,-28.21837,2.177643,-32.46112,2.748703,0.4007182,0.6140281,0.8959036,-0.02713013,-0.434906,0.9000549000000001,34.424609999999994,2.35643,-31.59047,2.710266,0.4419019,0.5821078000000001,-0.2622752,1.217442,0.01688421,0.1495118,0.7099268,-0.1818542,1.229158,-1.091858,34.21
2,-0.05072021,-0.4441680999999999,0.8944854999999999,0.7214351,-0.07725525,-0.4542542,0.8875122,-28.21837,2.177643,-32.46112,2.748703,0.4007182,0.6140281,0.8959036,-0.02713013,-0.434906,0.9000549000000001,34.424609999999994,2.35643,-31.59047,2.710266,0.4419019,0.5821078000000001,-0.2622752,1.217442,0.01688421,0.1495118,0.7099268,-0.1818542,1.229158,-1.091858,34.21
2,-0.05072021,-0.4441680999999999,0.8944854999999999,0.7214351,-0.07725525,-0.4542542,0.8875122,-28.21837,2.177643,-32.46112,2.748703,0.4007182,0.6140281,0.8959036,-0.02713013,-0.434906,0.9000549000000001,34.424609999999994,2.35643,-31.59047,2.710266,0.4419019,0.5821078000000001,-0.2622752,1.217442,0.01688421,0.1495118,0.7099268,-0.1818542,1.229158,-1.091858,34.21
2,-0.06846619,-0.4277801999999999,0.9012756,0.7271423,-0.09011841,-0.4529572,0.8869476000000001,-28.21707,2.291443,-32.42792,2.428009,0.4022372,0.6097005999999999,0.8736488000000001,-0.04298401,-0.3975982999999999,0.9165344,34.45261,2.491272,-31.53195,2.936798,0.4427720999999999,0.5716097,-0.2617551,1.216534,0.01646173,0.1486786,0.7098158,-0.1870727,1.229158,-1.091858,34.21
2,-0.06846619,-0.4277801999999999,0.9012756,0.7271423,-0.09011841,-0.4529572,0.8869476000000001,-28.21707,2.291443,-32.42792,2.428009,0.4022372,0.6097005999999999,0.8736488000000001,-0.04298401,-0.3975982999999999,0.9165344,34.45261,2.491272,-31.53195,2.936798,0.4427720999999999,0.5716097,-0.2617551,1.216534,0.01646173,0.1486786,0.7098158,-0.1870727,1.229158,-1.091858,34.21
2,-0.06846619,-0.4277801999999999,0.9012756,0.7271423,-0.09011841,-0.4529572,0.8869476000000001,-28.21707,2.291443,-32.42792,2.428009,0.4022372,0.6097005999999999,0.8736488000000001,-0.04298401,-0.3975982999999999,0.9165344,34.45261,2.491272,-31.53195,2.936798,0.4427720999999999,0.5716097,-0.2617551,1.216534,0.01646173,0.1486786,0.7098158,-0.1870727,1.229158,-1.091858,34.21
2,-0.07292175,-0.385437,0.9198303,0.722575,-0.1056213,-0.3960419,0.9121246,-28.131840000000004,2.264175,-32.3844,2.814575,0.4015513,0.6018793,0.8726545,-0.04598999,-0.3763732999999999,0.9253082,34.45261,2.488831,-31.53195,2.936462,0.4431813,0.5687665,-0.2617514,1.215027,0.01603353,0.149473,0.7104682,-0.1945318,1.229158,63.94033,34.21
2,-0.07292175,-0.385437,0.9198303,0.722575,-0.1056213,-0.3960419,0.9121246,-28.131840000000004,2.264175,-32.3844,2.814575,0.4015513,0.6018793,0.8726545,-0.04598999,-0.3763732999999999,0.9253082,34.45261,2.488831,-31.53195,2.936462,0.4431813,0.5687665,-0.2617514,1.215027,0.01603353,0.149473,0.7104682,-0.1945318,1.229158,63.94033,34.21
2,-0.07292175,-0.385437,0.9198303,0.722575,-0.1056213,-0.3960419,0.9121246,-28.131840000000004,2.264175,-32.3844,2.814575,0.4015513,0.6018793,0.8726545,-0.04598999,-0.3763732999999999,0.9253082,34.45261,2.488831,-31.53195,2.936462,0.4431813,0.5687665,-0.2617514,1.215027,0.01603353,0.149473,0.7104682,-0.1945318,1.229158,63.94033,34.21
2,-0.06201172,-0.3459625,0.9361877,0.7551257,-0.09819031,-0.3671417,0.9249573,-28.17809,2.308655,-32.36697,2.882843,0.4023625999999999,0.5960264000000001,0.8928881999999999,-0.03605652,-0.3304138,0.9431305,34.44643,2.44136,-31.52727,2.989334,0.4421715,0.5640168999999999,-0.2626455,1.213337,0.01551282,0.156316,0.7101980999999999,-0.203506,1.229158,63.94033,34.21
2,-0.06201172,-0.3459625,0.9361877,0.7551257,-0.09819031,-0.3671417,0.9249573,-28.17809,2.308655,-32.36697,2.882843,0.4023625999999999,0.5960264000000001,0.8928881999999999,-0.03605652,-0.3304138,0.9431305,34.44643,2.44136,-31.52727,2.989334,0.4421715,0.5640168999999999,-0.2626455,1.213337,0.01551282,0.156316,0.7101980999999999,-0.203506,1.229158,63.94033,34.21
2,-0.06201172,-0.3459625,0.9361877,0.7551257,-0.09819031,-0.3671417,0.9249573,-28.17809,2.308655,-32.36697,2.882843,0.4023625999999999,0.5960264000000001,0.8928881999999999,-0.03605652,-0.3304138,0.9431305,34.44643,2.44136,-31.52727,2.989334,0.4421715,0.5640168999999999,-0.2626455,1.213337,0.01551282,0.156316,0.7101980999999999,-0.203506,1.229158,63.94033,34.21
2,-0.06015015,-0.3393555,0.9387207,0.7811016,-0.09861755,-0.3627014,0.9266663,-28.16028,2.368927,-32.35696,2.836288,0.4018062,0.5931824,0.8783662,-0.03141785,-0.3214874,0.9463806,34.49454,2.522141,-31.49603,3.065842,0.4398979,0.5596711999999999,-0.263316,1.211753,0.01516902,0.1614492,0.7114439,-0.2105308,1.229158,63.94033,34.21
2,-0.06015015,-0.3393555,0.9387207,0.7811016,-0.09861755,-0.3627014,0.9266663,-28.16028,2.368927,-32.35696,2.836288,0.4018062,0.5931824,0.8783662,-0.03141785,-0.3214874,0.9463806,34.49454,2.522141,-31.49603,3.065842,0.4398979,0.5596711999999999,-0.263316,1.211753,0.01516902,0.1614492,0.7114439,-0.2105308,1.229158,63.94033,34.21
2,-0.06015015,-0.3393555,0.9387207,0.7811016,-0.09861755,-0.3627014,0.9266663,-28.16028,2.368927,-32.35696,2.836288,0.4018062,0.5931824,0.8783662,-0.03141785,-0.3214874,0.9463806,34.49454,2.522141,-31.49603,3.065842,0.4398979,0.5596711999999999,-0.263316,1.211753,0.01516902,0.1614492,0.7114439,-0.2105308,1.229158,63.94033,34.21
2,-0.06126404,-0.3339995999999999,0.940567,0.7634911,-0.08444214,-0.3553009,0.9309235,-28.14023,2.390717,-32.34415,2.863235,0.399326,0.5912053,0.8666981,-0.0459136999999999,-0.3197479,0.9463806,34.52689,2.539307,-31.49077,3.086426,0.4405457,0.5588689,-0.2651476,1.207592,0.014552,0.1711312,0.7142374,-0.2236297,1.229158,63.94033,34.21
2,-0.06126404,-0.3339995999999999,0.940567,0.7634911,-0.08444214,-0.3553009,0.9309235,-28.14023,2.390717,-32.34415,2.863235,0.399326,0.5912053,0.8666981,-0.0459136999999999,-0.3197479,0.9463806,34.52689,2.539307,-31.49077,3.086426,0.4405457,0.5588689,-0.2651476,1.207592,0.014552,0.1711312,0.7142374,-0.2236297,1.229158,63.94033,34.21
2,-0.06126404,-0.3339995999999999,0.940567,0.7634911,-0.08444214,-0.3553009,0.9309235,-28.14023,2.390717,-32.34415,2.863235,0.399326,0.5912053,0.8666981,-0.0459136999999999,-0.3197479,0.9463806,34.52689,2.539307,-31.49077,3.086426,0.4405457,0.5588689,-0.2651476,1.207592,0.014552,0.1711312,0.7142374,-0.2236297,1.229158,63.94033,34.21
2,-0.07211304,-0.3159485,0.9460144,0.766821,-0.1033478,-0.3148499,0.9434814,-28.01625,2.478455,-32.29616,2.935059,0.3975324,0.582086,0.8781953000000001,-0.05348206,-0.316452,0.9470825,34.61948,2.619095,-31.46332,2.967087,0.4384704,0.5554303,-0.2651476,1.207592,0.014552,0.1711312,0.7142374,-0.2236297,1.229158,63.94033,34.21
2,-0.07211304,-0.3159485,0.9460144,0.766821,-0.1033478,-0.3148499,0.9434814,-28.01625,2.478455,-32.29616,2.935059,0.3975324,0.582086,0.8781953000000001,-0.05348206,-0.316452,0.9470825,34.61948,2.619095,-31.46332,2.967087,0.4384704,0.5554303,-0.2651476,1.207592,0.014552,0.1711312,0.7142374,-0.2236297,1.229158,63.94033,34.21
2,-0.07211304,-0.3159485,0.9460144,0.766821,-0.1033478,-0.3148499,0.9434814,-28.01625,2.478455,-32.29616,2.935059,0.3975324,0.582086,0.8781953000000001,-0.05348206,-0.316452,0.9470825,34.61948,2.619095,-31.46332,2.967087,0.4384704,0.5554303,-0.2651476,1.207592,0.014552,0.1711312,0.7142374,-0.2236297,1.229158,63.94033,34.21
2,-0.05487061,-0.260437,0.963913,0.787415,-0.07096863,-0.2652587999999999,0.9615479,-28.082140000000003,2.564041,-32.30338,2.996674,0.3959032,0.5723828000000001,0.8671243000000001,-0.04217529,-0.2566071,0.9655914,34.64117,2.742859,-31.4137,3.196793,0.4362055999999999,0.5426779,-0.26642,1.207011,0.01385498,0.169183,0.7219123000000001,-0.2234117,1.229158,158.1066,34.21
2,-0.05487061,-0.260437,0.963913,0.787415,-0.07096863,-0.2652587999999999,0.9615479,-28.082140000000003,2.564041,-32.30338,2.996674,0.3959032,0.5723828000000001,0.8671243000000001,-0.04217529,-0.2566071,0.9655914,34.64117,2.742859,-31.4137,3.196793,0.4362055999999999,0.5426779,-0.26642,1.207011,0.01385498,0.169183,0.7219123000000001,-0.2234117,1.229158,158.1066,34.21
2,-0.05487061,-0.260437,0.963913,0.787415,-0.07096863,-0.2652587999999999,0.9615479,-28.082140000000003,2.564041,-32.30338,2.996674,0.3959032,0.5723828000000001,0.8671243000000001,-0.04217529,-0.2566071,0.9655914,34.64117,2.742859,-31.4137,3.196793,0.4362055999999999,0.5426779,-0.26642,1.207011,0.01385498,0.169183,0.7219123000000001,-0.2234117,1.229158,158.1066,34.21
2,-0.05487061,-0.260437,0.963913,0.787415,-0.07096863,-0.2652587999999999,0.9615479,-28.082140000000003,2.564041,-32.30338,2.996674,0.3959032,0.5723828000000001,0.8671243000000001,-0.04217529,-0.2566071,0.9655914,34.64117,2.742859,-31.4137,3.196793,0.4362055999999999,0.5426779,-0.26642,1.207011,0.01385498,0.169183,0.7219123000000001,-0.2234117,1.229158,158.1066,34.21
2,-0.05487061,-0.260437,0.963913,0.787415,-0.07096863,-0.2652587999999999,0.9615479,-28.082140000000003,2.564041,-32.30338,2.996674,0.3959032,0.5723828000000001,0.8671243000000001,-0.04217529,-0.2566071,0.9655914,34.64117,2.742859,-31.4137,3.196793,0.4362055999999999,0.5426779,-0.26642,1.207011,0.01385498,0.169183,0.7219123000000001,-0.2234117,1.229158,158.1066,34.21
2,-0.05487061,-0.260437,0.963913,0.787415,-0.07096863,-0.2652587999999999,0.9615479,-28.082140000000003,2.564041,-32.30338,2.996674,0.3959032,0.5723828000000001,0.8671243000000001,-0.04217529,-0.2566071,0.9655914,34.64117,2.742859,-31.4137,3.196793,0.4362055999999999,0.5426779,-0.26642,1.207011,0.01385498,0.169183,0.7219123000000001,-0.2234117,1.229158,158.1066,34.21
2,-0.05487061,-0.260437,0.963913,0.787415,-0.07096863,-0.2652587999999999,0.9615479,-28.082140000000003,2.564041,-32.30338,2.996674,0.3959032,0.5723828000000001,0.8671243000000001,-0.04217529,-0.2566071,0.9655914,34.64117,2.742859,-31.4137,3.196793,0.4362055999999999,0.5426779,-0.2666979,1.207723,0.01387489,0.1649614,0.7273873000000001,-0.2215891,1.229158,158.1066,34.21
2,-0.05487061,-0.260437,0.963913,0.787415,-0.07096863,-0.2652587999999999,0.9615479,-28.082140000000003,2.564041,-32.30338,2.996674,0.3959032,0.5723828000000001,0.8671243000000001,-0.04217529,-0.2566071,0.9655914,34.64117,2.742859,-31.4137,3.196793,0.4362055999999999,0.5426779,-0.2666979,1.207723,0.01387489,0.1649614,0.7273873000000001,-0.2215891,1.229158,158.1066,34.21
2,-0.05487061,-0.260437,0.963913,0.787415,-0.07096863,-0.2652587999999999,0.9615479,-28.082140000000003,2.564041,-32.30338,2.996674,0.3959032,0.5723828000000001,0.8671243000000001,-0.04217529,-0.2566071,0.9655914,34.64117,2.742859,-31.4137,3.196793,0.4362055999999999,0.5426779,-0.2666979,1.207723,0.01387489,0.1649614,0.7273873000000001,-0.2215891,1.229158,158.1066,34.21
2,-0.02366638,-0.2606659,0.9651337,0.7683585,-0.02455139,-0.2577972,0.9658813,-27.97421,2.597168,-32.3308,3.217041,0.3863720999999999,0.5704541,0.8929413,-0.02310181,-0.2625275,0.9646454,34.828720000000004,2.724716,-31.406270000000003,3.07254,0.427511,0.5438444,-0.266781,1.208203,0.01402843,0.1612027999999999,0.7326944000000001,-0.2207815,1.229158,158.1066,34.21
2,-0.02366638,-0.2606659,0.9651337,0.7683585,-0.02455139,-0.2577972,0.9658813,-27.97421,2.597168,-32.3308,3.217041,0.3863720999999999,0.5704541,0.8929413,-0.02310181,-0.2625275,0.9646454,34.828720000000004,2.724716,-31.406270000000003,3.07254,0.427511,0.5438444,-0.266781,1.208203,0.01402843,0.1612027999999999,0.7326944000000001,-0.2207815,1.229158,158.1066,34.21
2,-0.02366638,-0.2606659,0.9651337,0.7683585,-0.02455139,-0.2577972,0.9658813,-27.97421,2.597168,-32.3308,3.217041,0.3863720999999999,0.5704541,0.8929413,-0.02310181,-0.2625275,0.9646454,34.828720000000004,2.724716,-31.406270000000003,3.07254,0.427511,0.5438444,-0.266781,1.208203,0.01402843,0.1612027999999999,0.7326944000000001,-0.2207815,1.229158,158.1066,34.21
2,-0.06460571,-0.377533,0.9237366,0.7248656,-0.08621216,-0.4124603,0.9068756,-27.98528,2.164627,-32.397459999999995,2.950638,0.3938183,0.6077164,0.8716486999999999,-0.05053711,-0.3544922,0.9336853,34.59285,2.371201,-31.5269,3.174103,0.4385680999999999,0.5697299,-0.2665041999999999,1.207606,0.01496971,0.1605802999999999,0.7409896,-0.2262263,1.229158,158.1066,34.21
2,-0.06460571,-0.377533,0.9237366,0.7248656,-0.08621216,-0.4124603,0.9068756,-27.98528,2.164627,-32.397459999999995,2.950638,0.3938183,0.6077164,0.8716486999999999,-0.05053711,-0.3544922,0.9336853,34.59285,2.371201,-31.5269,3.174103,0.4385680999999999,0.5697299,-0.2665041999999999,1.207606,0.01496971,0.1605802999999999,0.7409896,-0.2262263,1.229158,158.1066,34.21
2,-0.06460571,-0.377533,0.9237366,0.7248656,-0.08621216,-0.4124603,0.9068756,-27.98528,2.164627,-32.397459999999995,2.950638,0.3938183,0.6077164,0.8716486999999999,-0.05053711,-0.3544922,0.9336853,34.59285,2.371201,-31.5269,3.174103,0.4385680999999999,0.5697299,-0.2665041999999999,1.207606,0.01496971,0.1605802999999999,0.7409896,-0.2262263,1.229158,158.1066,34.21
2,-0.1574402,-0.5745544,0.8031616,0.6097526999999999,-0.1574402,-0.5745544,0.8031616,-28.241740000000004,1.467102,-32.80107,2.6428990000000003,0.4112282999999999,0.6617451,0.8376393,0.0,0.0,0.0,34.57182,2.133041,-31.76234,-1.0,0.4510656,0.6237897,-0.2660176,1.206008,0.01609838,0.1644537,0.7431047,-0.2323402999999999,1.229158,-170.8877,34.21
2,-0.1574402,-0.5745544,0.8031616,0.6097526999999999,-0.1574402,-0.5745544,0.8031616,-28.241740000000004,1.467102,-32.80107,2.6428990000000003,0.4112282999999999,0.6617451,0.8376393,0.0,0.0,0.0,34.57182,2.133041,-31.76234,-1.0,0.4510656,0.6237897,-0.2660176,1.206008,0.01609838,0.1644537,0.7431047,-0.2323402999999999,1.229158,-170.8877,34.21
2,-0.1574402,-0.5745544,0.8031616,0.6097526999999999,-0.1574402,-0.5745544,0.8031616,-28.241740000000004,1.467102,-32.80107,2.6428990000000003,0.4112282999999999,0.6617451,0.8376393,0.0,0.0,0.0,34.57182,2.133041,-31.76234,-1.0,0.4510656,0.6237897,-0.2660176,1.206008,0.01609838,0.1644537,0.7431047,-0.2323402999999999,1.229158,-170.8877,34.21
2,-0.06932068,-0.5511169,0.8315277,0.5456211999999999,-0.1131591999999999,-0.5395813,0.8342743,-28.22581,1.391815,-32.798140000000004,2.961655,0.4049596,0.6583723000000001,0.7857853,-0.05169678,-0.5554352,0.8299408000000001,34.2502,1.594666,-31.97711,3.02562,0.4499492,0.6302552,-0.2650014,1.202585,0.01751554,0.1690838999999999,0.7445158000000001,-0.2383179,1.229158,-170.8877,34.21
2,-0.06932068,-0.5511169,0.8315277,0.5456211999999999,-0.1131591999999999,-0.5395813,0.8342743,-28.22581,1.391815,-32.798140000000004,2.961655,0.4049596,0.6583723000000001,0.7857853,-0.05169678,-0.5554352,0.8299408000000001,34.2502,1.594666,-31.97711,3.02562,0.4499492,0.6302552,-0.2650014,1.202585,0.01751554,0.1690838999999999,0.7445158000000001,-0.2383179,1.229158,-170.8877,34.21
2,-0.06932068,-0.5511169,0.8315277,0.5456211999999999,-0.1131591999999999,-0.5395813,0.8342743,-28.22581,1.391815,-32.798140000000004,2.961655,0.4049596,0.6583723000000001,0.7857853,-0.05169678,-0.5554352,0.8299408000000001,34.2502,1.594666,-31.97711,3.02562,0.4499492,0.6302552,-0.2650014,1.202585,0.01751554,0.1690838999999999,0.7445158000000001,-0.2383179,1.229158,-170.8877,34.21
2,-0.08920288,-0.5352783,0.8399353,0.5621712,-0.1271057,-0.5487976,0.8262176999999999,-28.19102,1.3677979999999998,-32.82607,2.858948,0.4054473,0.6611218000000001,0.7693028000000001,-0.04508972,-0.5184021,0.8539429000000001,34.34753,1.466187,-31.98685,3.198318,0.4454925,0.6290627,-0.2641844,1.19713,0.0189414,0.1795923999999999,0.7431281999999999,-0.2503562,1.229158,-170.8877,34.21
2,-0.08920288,-0.5352783,0.8399353,0.5621712,-0.1271057,-0.5487976,0.8262176999999999,-28.19102,1.3677979999999998,-32.82607,2.858948,0.4054473,0.6611218000000001,0.7693028000000001,-0.04508972,-0.5184021,0.8539429000000001,34.34753,1.466187,-31.98685,3.198318,0.4454925,0.6290627,-0.2641844,1.19713,0.0189414,0.1795923999999999,0.7431281999999999,-0.2503562,1.229158,-170.8877,34.21
2,-0.08920288,-0.5352783,0.8399353,0.5621712,-0.1271057,-0.5487976,0.8262176999999999,-28.19102,1.3677979999999998,-32.82607,2.858948,0.4054473,0.6611218000000001,0.7693028000000001,-0.04508972,-0.5184021,0.8539429000000001,34.34753,1.466187,-31.98685,3.198318,0.4454925,0.6290627,-0.2641844,1.19713,0.0189414,0.1795923999999999,0.7431281999999999,-0.2503562,1.229158,-170.8877,34.21
2,-0.08920288,-0.5352783,0.8399353,0.5621712,-0.1271057,-0.5487976,0.8262176999999999,-28.19102,1.3677979999999998,-32.82607,2.858948,0.4054473,0.6611218000000001,0.7693028000000001,-0.04508972,-0.5184021,0.8539429000000001,34.34753,1.466187,-31.98685,3.198318,0.4454925,0.6290627,-0.2631755,1.1898799999999998,0.02047157,0.1943661,0.7393783,-0.2676308,1.229158,-170.8877,34.21
2,-0.08920288,-0.5352783,0.8399353,0.5621712,-0.1271057,-0.5487976,0.8262176999999999,-28.19102,1.3677979999999998,-32.82607,2.858948,0.4054473,0.6611218000000001,0.7693028000000001,-0.04508972,-0.5184021,0.8539429000000001,34.34753,1.466187,-31.98685,3.198318,0.4454925,0.6290627,-0.2631755,1.1898799999999998,0.02047157,0.1943661,0.7393783,-0.2676308,1.229158,-170.8877,34.21
2,-0.08920288,-0.5352783,0.8399353,0.5621712,-0.1271057,-0.5487976,0.8262176999999999,-28.19102,1.3677979999999998,-32.82607,2.858948,0.4054473,0.6611218000000001,0.7693028000000001,-0.04508972,-0.5184021,0.8539429000000001,34.34753,1.466187,-31.98685,3.198318,0.4454925,0.6290627,-0.2631755,1.1898799999999998,0.02047157,0.1943661,0.7393783,-0.2676308,1.229158,-170.8877,34.21
2,-0.08920288,-0.5352783,0.8399353,0.5621712,-0.1271057,-0.5487976,0.8262176999999999,-28.19102,1.3677979999999998,-32.82607,2.858948,0.4054473,0.6611218000000001,0.7693028000000001,-0.04508972,-0.5184021,0.8539429000000001,34.34753,1.466187,-31.98685,3.198318,0.4454925,0.6290627,-0.2630498,1.182817,0.02186739,0.2091993,0.7351776,-0.2886521999999999,1.229158,-170.8877,34.21
2,-0.08920288,-0.5352783,0.8399353,0.5621712,-0.1271057,-0.5487976,0.8262176999999999,-28.19102,1.3677979999999998,-32.82607,2.858948,0.4054473,0.6611218000000001,0.7693028000000001,-0.04508972,-0.5184021,0.8539429000000001,34.34753,1.466187,-31.98685,3.198318,0.4454925,0.6290627,-0.2630498,1.182817,0.02186739,0.2091993,0.7351776,-0.2886521999999999,1.229158,-170.8877,34.21
2,-0.08920288,-0.5352783,0.8399353,0.5621712,-0.1271057,-0.5487976,0.8262176999999999,-28.19102,1.3677979999999998,-32.82607,2.858948,0.4054473,0.6611218000000001,0.7693028000000001,-0.04508972,-0.5184021,0.8539429000000001,34.34753,1.466187,-31.98685,3.198318,0.4454925,0.6290627,-0.2630498,1.182817,0.02186739,0.2091993,0.7351776,-0.2886521999999999,1.229158,-170.8877,34.21
2,-0.06684875,-0.4645233,0.8830261,0.5916064,-0.08520508,-0.5151062,0.8528594999999999,-28.1981,1.438599,-32.75557,2.795151,0.4003342,0.6525124,0.7889788000000001,-0.05426025,-0.4292755,0.901535,34.49135,1.549911,-31.88397,3.1260220000000003,0.4419505999999999,0.6122308000000001,-0.2604999,1.1776719999999998,0.02270055,0.2154585,0.7346156999999999,-0.3009626999999999,1.229158,-170.8877,34.21
2,-0.06684875,-0.4645233,0.8830261,0.5916064,-0.08520508,-0.5151062,0.8528594999999999,-28.1981,1.438599,-32.75557,2.795151,0.4003342,0.6525124,0.7889788000000001,-0.05426025,-0.4292755,0.901535,34.49135,1.549911,-31.88397,3.1260220000000003,0.4419505999999999,0.6122308000000001,-0.2604999,1.1776719999999998,0.02270055,0.2154585,0.7346156999999999,-0.3009626999999999,1.229158,-170.8877,34.21
2,-0.06684875,-0.4645233,0.8830261,0.5916064,-0.08520508,-0.5151062,0.8528594999999999,-28.1981,1.438599,-32.75557,2.795151,0.4003342,0.6525124,0.7889788000000001,-0.05426025,-0.4292755,0.901535,34.49135,1.549911,-31.88397,3.1260220000000003,0.4419505999999999,0.6122308000000001,-0.2604999,1.1776719999999998,0.02270055,0.2154585,0.7346156999999999,-0.3009626999999999,1.229158,-170.8877,34.21
2,-0.03486633,-0.5388489000000001,0.8416748,0.5504836,-0.08839417,-0.5245209,0.8467865,-28.02661,1.435349,-32.753370000000004,3.035461,0.3946941,0.6538458,0.7559541,0.0115509,-0.5498962,0.835144,34.43843,1.637833,-31.89923,3.095749,0.435396,0.6265919,-0.2577445,1.173588,0.02313375,0.2208598,0.7347252,-0.309057,1.229158,-122.6376,34.21
2,-0.03486633,-0.5388489000000001,0.8416748,0.5504836,-0.08839417,-0.5245209,0.8467865,-28.02661,1.435349,-32.753370000000004,3.035461,0.3946941,0.6538458,0.7559541,0.0115509,-0.5498962,0.835144,34.43843,1.637833,-31.89923,3.095749,0.435396,0.6265919,-0.2577445,1.173588,0.02313375,0.2208598,0.7347252,-0.309057,1.229158,-122.6376,34.21
2,-0.03486633,-0.5388489000000001,0.8416748,0.5504836,-0.08839417,-0.5245209,0.8467865,-28.02661,1.435349,-32.753370000000004,3.035461,0.3946941,0.6538458,0.7559541,0.0115509,-0.5498962,0.835144,34.43843,1.637833,-31.89923,3.095749,0.435396,0.6265919,-0.2577445,1.173588,0.02313375,0.2208598,0.7347252,-0.309057,1.229158,-122.6376,34.21
2,-0.05834961,-0.5176086,0.8536072,0.5790692,-0.09375,-0.5935210999999999,0.7993164,-28.04686,1.516586,-32.76704,2.67157,0.3957775,0.6622458999999999,0.7787288,-0.03703308,-0.4700622999999999,0.8818359,34.61076,1.540237,-31.89777,3.489319,0.4350786,0.6181989,-0.2547655,1.17203,0.02338278,0.2242655,0.7355672,-0.3106912,1.229158,-122.6376,34.21
2,-0.05834961,-0.5176086,0.8536072,0.5790692,-0.09375,-0.5935210999999999,0.7993164,-28.04686,1.516586,-32.76704,2.67157,0.3957775,0.6622458999999999,0.7787288,-0.03703308,-0.4700622999999999,0.8818359,34.61076,1.540237,-31.89777,3.489319,0.4350786,0.6181989,-0.2547655,1.17203,0.02338278,0.2242655,0.7355672,-0.3106912,1.229158,-122.6376,34.21
2,-0.05834961,-0.5176086,0.8536072,0.5790692,-0.09375,-0.5935210999999999,0.7993164,-28.04686,1.516586,-32.76704,2.67157,0.3957775,0.6622458999999999,0.7787288,-0.03703308,-0.4700622999999999,0.8818359,34.61076,1.540237,-31.89777,3.489319,0.4350786,0.6181989,-0.2547655,1.17203,0.02338278,0.2242655,0.7355672,-0.3106912,1.229158,-122.6376,34.21
2,-0.05834961,-0.5176086,0.8536072,0.5790692,-0.09375,-0.5935210999999999,0.7993164,-28.04686,1.516586,-32.76704,2.67157,0.3957775,0.6622458999999999,0.7787288,-0.03703308,-0.4700622999999999,0.8818359,34.61076,1.540237,-31.89777,3.489319,0.4350786,0.6181989,-0.2505212999999999,1.172045,0.02347481,0.2230971,0.7378245,-0.3084237,1.229158,-122.6376,34.21
2,-0.05834961,-0.5176086,0.8536072,0.5790692,-0.09375,-0.5935210999999999,0.7993164,-28.04686,1.516586,-32.76704,2.67157,0.3957775,0.6622458999999999,0.7787288,-0.03703308,-0.4700622999999999,0.8818359,34.61076,1.540237,-31.89777,3.489319,0.4350786,0.6181989,-0.2505212999999999,1.172045,0.02347481,0.2230971,0.7378245,-0.3084237,1.229158,-122.6376,34.21
2,-0.05834961,-0.5176086,0.8536072,0.5790692,-0.09375,-0.5935210999999999,0.7993164,-28.04686,1.516586,-32.76704,2.67157,0.3957775,0.6622458999999999,0.7787288,-0.03703308,-0.4700622999999999,0.8818359,34.61076,1.540237,-31.89777,3.489319,0.4350786,0.6181989,-0.2505212999999999,1.172045,0.02347481,0.2230971,0.7378245,-0.3084237,1.229158,-122.6376,34.21
2,-0.05834961,-0.5176086,0.8536072,0.5790692,-0.09375,-0.5935210999999999,0.7993164,-28.04686,1.516586,-32.76704,2.67157,0.3957775,0.6622458999999999,0.7787288,-0.03703308,-0.4700622999999999,0.8818359,34.61076,1.540237,-31.89777,3.489319,0.4350786,0.6181989,-0.2470951,1.1715950000000002,0.02410197,0.2217925,0.7391213000000001,-0.3111345,1.316283,-122.6376,34.21
2,-0.05834961,-0.5176086,0.8536072,0.5790692,-0.09375,-0.5935210999999999,0.7993164,-28.04686,1.516586,-32.76704,2.67157,0.3957775,0.6622458999999999,0.7787288,-0.03703308,-0.4700622999999999,0.8818359,34.61076,1.540237,-31.89777,3.489319,0.4350786,0.6181989,-0.2470951,1.1715950000000002,0.02410197,0.2217925,0.7391213000000001,-0.3111345,1.316283,-122.6376,34.21
2,-0.05834961,-0.5176086,0.8536072,0.5790692,-0.09375,-0.5935210999999999,0.7993164,-28.04686,1.516586,-32.76704,2.67157,0.3957775,0.6622458999999999,0.7787288,-0.03703308,-0.4700622999999999,0.8818359,34.61076,1.540237,-31.89777,3.489319,0.4350786,0.6181989,-0.2470951,1.1715950000000002,0.02410197,0.2217925,0.7391213000000001,-0.3111345,1.316283,-122.6376,34.21
2,-0.02467346,-0.4778442,0.8780823,0.6512125,-0.04328918,-0.5270385999999999,0.8487244,-27.96901,1.511566,-32.72803,2.899277,0.3867219,0.6512344,0.8432831000000001,-0.01348877,-0.4475707999999999,0.8941344999999999,34.74875,1.580017,-31.85187,3.414368,0.4275266,0.6130127,-0.2435241,1.172177,0.02396238,0.2208275,0.7409217,-0.3107285999999999,1.316283,-141.185,34.21
2,-0.02467346,-0.4778442,0.8780823,0.6512125,-0.04328918,-0.5270385999999999,0.8487244,-27.96901,1.511566,-32.72803,2.899277,0.3867219,0.6512344,0.8432831000000001,-0.01348877,-0.4475707999999999,0.8941344999999999,34.74875,1.580017,-31.85187,3.414368,0.4275266,0.6130127,-0.2435241,1.172177,0.02396238,0.2208275,0.7409217,-0.3107285999999999,1.316283,-176.1776,34.21
2,-0.02467346,-0.4778442,0.8780823,0.6512125,-0.04328918,-0.5270385999999999,0.8487244,-27.96901,1.511566,-32.72803,2.899277,0.3867219,0.6512344,0.8432831000000001,-0.01348877,-0.4475707999999999,0.8941344999999999,34.74875,1.580017,-31.85187,3.414368,0.4275266,0.6130127,-0.2435241,1.172177,0.02396238,0.2208275,0.7409217,-0.3107285999999999,1.316283,-176.1776,34.21
2,-0.01937866,-0.4541168,0.8907166,0.6941779,-0.06349182,-0.4823608,0.8736572,-27.99625,1.57579,-32.67732,3.165497,0.390705,0.6415204000000001,0.8725055,0.01138306,-0.4336242999999999,0.9010162,34.73735,1.663269,-31.817870000000003,3.361389,0.4249999,0.6076939,-0.2389976,1.174752,0.02333808,0.2175077,0.7441521,-0.3055624,1.316283,-176.1776,34.21
2,-0.01937866,-0.4541168,0.8907166,0.6941779,-0.06349182,-0.4823608,0.8736572,-27.99625,1.57579,-32.67732,3.165497,0.390705,0.6415204000000001,0.8725055,0.01138306,-0.4336242999999999,0.9010162,34.73735,1.663269,-31.817870000000003,3.361389,0.4249999,0.6076939,-0.2389976,1.174752,0.02333808,0.2175077,0.7441521,-0.3055624,1.316283,-176.1776,34.21
2,-0.01937866,-0.4541168,0.8907166,0.6941779,-0.06349182,-0.4823608,0.8736572,-27.99625,1.57579,-32.67732,3.165497,0.390705,0.6415204000000001,0.8725055,0.01138306,-0.4336242999999999,0.9010162,34.73735,1.663269,-31.817870000000003,3.361389,0.4249999,0.6076939,-0.2389976,1.174752,0.02333808,0.2175077,0.7441521,-0.3055624,1.316283,-176.1776,34.21
3,-0.01863098,-0.4404755,0.8975677,0.7128544,-0.05194092,-0.4778442,0.8768921000000001,-28.00316,1.644073,-32.636109999999995,3.14624,0.3895389,0.6379706,0.864333,-0.0006713867,-0.4197997999999999,0.907608,34.75241,1.704941,-31.80338,3.390411,0.4259958,0.6041995,-0.2342052999999999,1.177622,0.02242076,0.2130803,0.7478849,-0.3000059,1.316283,-176.1776,34.21
3,-0.01863098,-0.4404755,0.8975677,0.7128544,-0.05194092,-0.4778442,0.8768921000000001,-28.00316,1.644073,-32.636109999999995,3.14624,0.3895389,0.6379706,0.864333,-0.0006713867,-0.4197997999999999,0.907608,34.75241,1.704941,-31.80338,3.390411,0.4259958,0.6041995,-0.2342052999999999,1.177622,0.02242076,0.2130803,0.7478849,-0.3000059,1.316283,-176.1776,34.21
3,-0.01863098,-0.4404755,0.8975677,0.7128544,-0.05194092,-0.4778442,0.8768921000000001,-28.00316,1.644073,-32.636109999999995,3.14624,0.3895389,0.6379706,0.864333,-0.0006713867,-0.4197997999999999,0.907608,34.75241,1.704941,-31.80338,3.390411,0.4259958,0.6041995,-0.2342052999999999,1.177622,0.02242076,0.2130803,0.7478849,-0.3000059,1.316283,-176.1776,34.21
3,-0.02215576,-0.4597168,0.8877716,0.7150307,-0.06594849,-0.4940491,0.8669128,-28.00018,1.5601200000000002,-32.68457,3.177261,0.3911231,0.6438931999999999,0.8736451999999999,0.00692749,-0.4360504,0.8998870999999999,34.75882,1.649307,-31.82446,3.4475860000000003,0.4246867,0.6085638000000001,-0.2288001,1.180929,0.02079248,0.2064984,0.7526794,-0.2914494,1.316283,-176.1776,34.21
3,-0.02215576,-0.4597168,0.8877716,0.7150307,-0.06594849,-0.4940491,0.8669128,-28.00018,1.5601200000000002,-32.68457,3.177261,0.3911231,0.6438931999999999,0.8736451999999999,0.00692749,-0.4360504,0.8998870999999999,34.75882,1.649307,-31.82446,3.4475860000000003,0.4246867,0.6085638000000001,-0.2288001,1.180929,0.02079248,0.2064984,0.7526794,-0.2914494,1.316283,-176.1776,34.21
3,-0.02215576,-0.4597168,0.8877716,0.7150307,-0.06594849,-0.4940491,0.8669128,-28.00018,1.5601200000000002,-32.68457,3.177261,0.3911231,0.6438931999999999,0.8736451999999999,0.00692749,-0.4360504,0.8998870999999999,34.75882,1.649307,-31.82446,3.4475860000000003,0.4246867,0.6085638000000001,-0.2288001,1.180929,0.02079248,0.2064984,0.7526794,-0.2914494,1.316283,-176.1776,34.21
3,-0.01890564,-0.4695587,0.8826904000000001,0.7150307,-0.05659485,-0.4938202,0.8677063,-28.0,1.536224,-32.69298,3.144394,0.3898695,0.6448012,0.8736451999999999,0.00604248,-0.4529114000000001,0.8915253000000001,34.7646,1.625977,-31.83815,3.465851,0.4245109,0.6118952,-0.2226317,1.185098,0.01882708,0.196074,0.7591631999999999,-0.278864,1.316283,-176.1776,34.21
3,-0.01890564,-0.4695587,0.8826904000000001,0.7150307,-0.05659485,-0.4938202,0.8677063,-28.0,1.536224,-32.69298,3.144394,0.3898695,0.6448012,0.8736451999999999,0.00604248,-0.4529114000000001,0.8915253000000001,34.7646,1.625977,-31.83815,3.465851,0.4245109,0.6118952,-0.2226317,1.185098,0.01882708,0.196074,0.7591631999999999,-0.278864,1.316283,-176.1776,34.21
3,-0.01890564,-0.4695587,0.8826904000000001,0.7150307,-0.05659485,-0.4938202,0.8677063,-28.0,1.536224,-32.69298,3.144394,0.3898695,0.6448012,0.8736451999999999,0.00604248,-0.4529114000000001,0.8915253000000001,34.7646,1.625977,-31.83815,3.465851,0.4245109,0.6118952,-0.2226317,1.185098,0.01882708,0.196074,0.7591631999999999,-0.278864,1.316283,-176.1776,34.21
3,-0.01890564,-0.4695587,0.8826904000000001,0.7150307,-0.05659485,-0.4938202,0.8677063,-28.0,1.536224,-32.69298,3.144394,0.3898695,0.6448012,0.8736451999999999,0.00604248,-0.4529114000000001,0.8915253000000001,34.7646,1.625977,-31.83815,3.465851,0.4245109,0.6118952,-0.2167543999999999,1.189718,0.01660538,0.1818638,0.7676191,-0.262331,1.316283,-176.1776,34.21
3,-0.01890564,-0.4695587,0.8826904000000001,0.7150307,-0.05659485,-0.4938202,0.8677063,-28.0,1.536224,-32.69298,3.144394,0.3898695,0.6448012,0.8736451999999999,0.00604248,-0.4529114000000001,0.8915253000000001,34.7646,1.625977,-31.83815,3.465851,0.4245109,0.6118952,-0.2167543999999999,1.189718,0.01660538,0.1818638,0.7676191,-0.262331,1.316283,-176.1776,34.21
3,-0.01890564,-0.4695587,0.8826904000000001,0.7150307,-0.05659485,-0.4938202,0.8677063,-28.0,1.536224,-32.69298,3.144394,0.3898695,0.6448012,0.8736451999999999,0.00604248,-0.4529114000000001,0.8915253000000001,34.7646,1.625977,-31.83815,3.465851,0.4245109,0.6118952,-0.2167543999999999,1.189718,0.01660538,0.1818638,0.7676191,-0.262331,1.316283,-176.1776,34.21
3,-0.0249939,-0.4909058,0.8708495999999999,0.7541251999999999,-0.05384827,-0.5236359,0.8502197,-27.92815,1.415161,-32.7626,3.1383970000000003,0.3867031,0.6543640000000001,0.8840960999999999,-0.0022277829999999,-0.464325,0.8856506,34.78494,1.4402469999999998,-31.91806,3.3241120000000004,0.4248135,0.6209298000000001,-0.2111172999999999,1.1958799999999998,0.01394403,0.1641248,0.7769948,-0.2398185,1.316283,45.75536,34.21
3,-0.0249939,-0.4909058,0.8708495999999999,0.7541251999999999,-0.05384827,-0.5236359,0.8502197,-27.92815,1.415161,-32.7626,3.1383970000000003,0.3867031,0.6543640000000001,0.8840960999999999,-0.0022277829999999,-0.464325,0.8856506,34.78494,1.4402469999999998,-31.91806,3.3241120000000004,0.4248135,0.6209298000000001,-0.2111172999999999,1.1958799999999998,0.01394403,0.1641248,0.7769948,-0.2398185,1.316283,45.75536,34.21
3,-0.0249939,-0.4909058,0.8708495999999999,0.7541251999999999,-0.05384827,-0.5236359,0.8502197,-27.92815,1.415161,-32.7626,3.1383970000000003,0.3867031,0.6543640000000001,0.8840960999999999,-0.0022277829999999,-0.464325,0.8856506,34.78494,1.4402469999999998,-31.91806,3.3241120000000004,0.4248135,0.6209298000000001,-0.2111172999999999,1.1958799999999998,0.01394403,0.1641248,0.7769948,-0.2398185,1.316283,45.75536,34.21
3,-1.0,-1.0,-1.0,0.6644015,0.0,0.0,0.0,-28.16081,5.288544,-37.27194,-1.0,0.3893842999999999,0.5137005,0.7830118,0.0,0.0,0.0,34.84912,4.403716999999999,-32.480059999999995,-1.0,0.4131666,0.5068787,-0.2055431,1.203984,0.01117146,0.1402227,0.7883595,-0.2099956,1.316283,45.75536,34.21
3,-1.0,-1.0,-1.0,0.6644015,0.0,0.0,0.0,-28.16081,5.288544,-37.27194,-1.0,0.3893842999999999,0.5137005,0.7830118,0.0,0.0,0.0,34.84912,4.403716999999999,-32.480059999999995,-1.0,0.4131666,0.5068787,-0.2055431,1.203984,0.01117146,0.1402227,0.7883595,-0.2099956,1.316283,45.75536,34.21
3,-1.0,-1.0,-1.0,0.6644015,0.0,0.0,0.0,-28.16081,5.288544,-37.27194,-1.0,0.3893842999999999,0.5137005,0.7830118,0.0,0.0,0.0,34.84912,4.403716999999999,-32.480059999999995,-1.0,0.4131666,0.5068787,-0.2055431,1.203984,0.01117146,0.1402227,0.7883595,-0.2099956,1.316283,45.75536,34.21
3,-1.0,-1.0,-1.0,0.6198670000000001,0.0,0.0,0.0,-28.16081,5.288544,-37.27194,-1.0,-1.0,-1.0,0.7170006999999999,0.0,0.0,0.0,35.0139,6.84668,-41.79993,-1.0,0.4342339,0.5070338,-0.2012212,1.213669,0.008286715,0.113041,0.8002583000000001,-0.172787,1.316283,45.75536,34.21
3,-1.0,-1.0,-1.0,0.6198670000000001,0.0,0.0,0.0,-28.16081,5.288544,-37.27194,-1.0,-1.0,-1.0,0.7170006999999999,0.0,0.0,0.0,35.0139,6.84668,-41.79993,-1.0,0.4342339,0.5070338,-0.2012212,1.213669,0.008286715,0.113041,0.8002583000000001,-0.172787,1.316283,45.75536,34.21
3,-1.0,-1.0,-1.0,0.6198670000000001,0.0,0.0,0.0,-28.16081,5.288544,-37.27194,-1.0,-1.0,-1.0,0.7170006999999999,0.0,0.0,0.0,35.0139,6.84668,-41.79993,-1.0,0.4342339,0.5070338,-0.2012212,1.213669,0.008286715,0.113041,0.8002583000000001,-0.172787,1.316283,45.75536,34.21
3,-1.0,-1.0,-1.0,0.544517,0.0,0.0,0.0,-28.16081,5.288544,-37.27194,-1.0,-1.0,-1.0,0.6978652,0.0,0.0,0.0,30.39198,2.007095,-35.12784,-1.0,0.6848733,0.6486847,-0.2008627,1.222718,0.0065098999999999,0.09143837,0.8083186,-0.1417769,1.316283,45.75536,34.21
3,-1.0,-1.0,-1.0,0.544517,0.0,0.0,0.0,-28.16081,5.288544,-37.27194,-1.0,-1.0,-1.0,0.6978652,0.0,0.0,0.0,30.39198,2.007095,-35.12784,-1.0,0.6848733,0.6486847,-0.2008627,1.222718,0.0065098999999999,0.09143837,0.8083186,-0.1417769,1.316283,45.75536,34.21
3,-1.0,-1.0,-1.0,0.544517,0.0,0.0,0.0,-28.16081,5.288544,-37.27194,-1.0,-1.0,-1.0,0.6978652,0.0,0.0,0.0,30.39198,2.007095,-35.12784,-1.0,0.6848733,0.6486847,-0.2008627,1.222718,0.0065098999999999,0.09143837,0.8083186,-0.1417769,1.316283,45.75536,34.21
3,-1.0,-1.0,-1.0,0.3863105,0.0,0.0,0.0,-32.22211,3.130264,-34.3441,-1.0,-1.0,-1.0,0.6956418000000001,0.0,0.0,0.0,30.11046,2.0975650000000003,-36.34721,-1.0,0.7048413,0.6667169,-0.2026785,1.231792,0.005877256,0.07090935,0.8144943,-0.1096458999999999,1.316283,45.75536,34.21
3,-1.0,-1.0,-1.0,0.3863105,0.0,0.0,0.0,-32.22211,3.130264,-34.3441,-1.0,-1.0,-1.0,0.6956418000000001,0.0,0.0,0.0,30.11046,2.0975650000000003,-36.34721,-1.0,0.7048413,0.6667169,-0.2026785,1.231792,0.005877256,0.07090935,0.8144943,-0.1096458999999999,1.316283,45.75536,34.21
3,-1.0,-1.0,-1.0,0.3863105,0.0,0.0,0.0,-32.22211,3.130264,-34.3441,-1.0,-1.0,-1.0,0.6956418000000001,0.0,0.0,0.0,30.11046,2.0975650000000003,-36.34721,-1.0,0.7048413,0.6667169,-0.2026785,1.231792,0.005877256,0.07090935,0.8144943,-0.1096458999999999,1.316283,45.75536,34.21
3,-1.0,-1.0,-1.0,0.3863105,0.0,0.0,0.0,-32.22211,3.130264,-34.3441,-1.0,-1.0,-1.0,0.6956418000000001,0.0,0.0,0.0,30.11046,2.0975650000000003,-36.34721,-1.0,0.7048413,0.6667169,-0.2067478999999999,1.240992,0.00589788,0.05255612,0.8194670000000001,-0.07943631,1.316283,38.69225,34.21
3,-1.0,-1.0,-1.0,0.3863105,0.0,0.0,0.0,-32.22211,3.130264,-34.3441,-1.0,-1.0,-1.0,0.6956418000000001,0.0,0.0,0.0,30.11046,2.0975650000000003,-36.34721,-1.0,0.7048413,0.6667169,-0.2067478999999999,1.240992,0.00589788,0.05255612,0.8194670000000001,-0.07943631,1.316283,38.69225,34.21
3,-1.0,-1.0,-1.0,0.3863105,0.0,0.0,0.0,-32.22211,3.130264,-34.3441,-1.0,-1.0,-1.0,0.6956418000000001,0.0,0.0,0.0,30.11046,2.0975650000000003,-36.34721,-1.0,0.7048413,0.6667169,-0.2067478999999999,1.240992,0.00589788,0.05255612,0.8194670000000001,-0.07943631,1.316283,38.69225,34.21
3,-1.0,-1.0,-1.0,0.3863105,0.0,0.0,0.0,-32.22211,3.130264,-34.3441,-1.0,-1.0,-1.0,0.6956418000000001,0.0,0.0,0.0,30.13126,2.080261,-36.22073,-1.0,0.7035363,0.6625038000000001,-0.2126461,1.249016,0.006554484,0.03497192,0.8235966999999998,-0.0518081,1.316283,38.69225,34.21
3,-1.0,-1.0,-1.0,0.3863105,0.0,0.0,0.0,-32.22211,3.130264,-34.3441,-1.0,-1.0,-1.0,0.6956418000000001,0.0,0.0,0.0,30.13126,2.080261,-36.22073,-1.0,0.7035363,0.6625038000000001,-0.2126461,1.249016,0.006554484,0.03497192,0.8235966999999998,-0.0518081,1.316283,38.69225,34.21
3,-1.0,-1.0,-1.0,0.3863105,0.0,0.0,0.0,-32.22211,3.130264,-34.3441,-1.0,-1.0,-1.0,0.6956418000000001,0.0,0.0,0.0,30.13126,2.080261,-36.22073,-1.0,0.7035363,0.6625038000000001,-0.2126461,1.249016,0.006554484,0.03497192,0.8235966999999998,-0.0518081,1.316283,38.69225,34.21
3,-1.0,-1.0,-1.0,0.4145553,0.0,0.0,0.0,-32.22211,3.130264,-34.3441,-1.0,-1.0,-1.0,0.6620036,0.0,0.0,0.0,30.13126,2.080261,-36.22073,-1.0,0.7035363,0.6625038000000001,-0.2195094,1.256199,0.007770538,0.01727909,0.8265985,-0.02559332,1.316283,23.09751,34.21
3,-1.0,-1.0,-1.0,0.4145553,0.0,0.0,0.0,-32.22211,3.130264,-34.3441,-1.0,-1.0,-1.0,0.6620036,0.0,0.0,0.0,30.13126,2.080261,-36.22073,-1.0,0.7035363,0.6625038000000001,-0.2195094,1.256199,0.007770538,0.01727909,0.8265985,-0.02559332,1.316283,23.09751,34.21
3,-1.0,-1.0,-1.0,0.4145553,0.0,0.0,0.0,-32.22211,3.130264,-34.3441,-1.0,-1.0,-1.0,0.6620036,0.0,0.0,0.0,30.13126,2.080261,-36.22073,-1.0,0.7035363,0.6625038000000001,-0.2195094,1.256199,0.007770538,0.01727909,0.8265985,-0.02559332,1.316283,23.09751,34.21
3,-0.06697083,0.2290344,0.9710999,1.0,-0.07185364,0.2239837999999999,0.9719238,-27.697370000000003,3.964783,-33.47847,3.26178,0.382885,0.47242,1.0,0.0009765625,0.2979736,0.9545593,35.18079,4.395187,-33.85646,3.722961,0.4105698,0.4381174,-0.2490618,1.269456,0.0189153,-0.02376095,0.8266472,0.03696363,1.316283,23.09751,34.21
3,-0.06697083,0.2290344,0.9710999,1.0,-0.07185364,0.2239837999999999,0.9719238,-27.697370000000003,3.964783,-33.47847,3.26178,0.382885,0.47242,1.0,0.0009765625,0.2979736,0.9545593,35.18079,4.395187,-33.85646,3.722961,0.4105698,0.4381174,-0.2490618,1.269456,0.0189153,-0.02376095,0.8266472,0.03696363,1.316283,23.09751,34.21
3,-0.06697083,0.2290344,0.9710999,1.0,-0.07185364,0.2239837999999999,0.9719238,-27.697370000000003,3.964783,-33.47847,3.26178,0.382885,0.47242,1.0,0.0009765625,0.2979736,0.9545593,35.18079,4.395187,-33.85646,3.722961,0.4105698,0.4381174,-0.2490618,1.269456,0.0189153,-0.02376095,0.8266472,0.03696363,1.316283,23.09751,34.21
3,-0.03005981,0.1746979,0.9841461,1.0,-0.06855774,0.1615142999999999,0.9844818,-27.7048,3.867416,-33.328509999999994,3.196716,0.3827273,0.4820372,1.0,-3.051758e-05,0.1847839,0.9827728,35.17383,4.254242,-33.57085,3.460434,0.4113901,0.4539886999999999,-0.2617377,1.2697,0.02548933,-0.0356554,0.8255484000000001,0.05361069,1.316283,23.09751,34.21
3,-0.03005981,0.1746979,0.9841461,1.0,-0.06855774,0.1615142999999999,0.9844818,-27.7048,3.867416,-33.328509999999994,3.196716,0.3827273,0.4820372,1.0,-3.051758e-05,0.1847839,0.9827728,35.17383,4.254242,-33.57085,3.460434,0.4113901,0.4539886999999999,-0.2617377,1.2697,0.02548933,-0.0356554,0.8255484000000001,0.05361069,1.316283,23.09751,34.21
3,-0.03005981,0.1746979,0.9841461,1.0,-0.06855774,0.1615142999999999,0.9844818,-27.7048,3.867416,-33.328509999999994,3.196716,0.3827273,0.4820372,1.0,-3.051758e-05,0.1847839,0.9827728,35.17383,4.254242,-33.57085,3.460434,0.4113901,0.4539886999999999,-0.2617377,1.2697,0.02548933,-0.0356554,0.8255484000000001,0.05361069,1.316283,23.09751,34.21
3,0.0113677999999999,0.1695862,0.9854431,1.0,-0.08700562,0.1552124,0.9840393,-27.728040000000004,5.298325,-39.43916,3.150528,0.3821295999999999,0.4871214,1.0,0.0113677999999999,0.1695862,0.9854431,35.1604,4.131989,-33.4874,3.4877010000000004,0.4104409,0.4594135,-0.2674185999999999,1.269858,0.02885997,-0.04088873,0.8247989,0.06532387,1.316283,23.09751,34.21
3,0.0113677999999999,0.1695862,0.9854431,1.0,-0.08700562,0.1552124,0.9840393,-27.728040000000004,5.298325,-39.43916,3.150528,0.3821295999999999,0.4871214,1.0,0.0113677999999999,0.1695862,0.9854431,35.1604,4.131989,-33.4874,3.4877010000000004,0.4104409,0.4594135,-0.2674185999999999,1.269858,0.02885997,-0.04088873,0.8247989,0.06532387,1.316283,23.09751,34.21
3,0.0113677999999999,0.1695862,0.9854431,1.0,-0.08700562,0.1552124,0.9840393,-27.728040000000004,5.298325,-39.43916,3.150528,0.3821295999999999,0.4871214,1.0,0.0113677999999999,0.1695862,0.9854431,35.1604,4.131989,-33.4874,3.4877010000000004,0.4104409,0.4594135,-0.2674185999999999,1.269858,0.02885997,-0.04088873,0.8247989,0.06532387,1.316283,23.09751,34.21
3,0.01416016,0.119339,0.9927368,1.0,-0.05091858,0.1190033,0.9915771,-27.81458,4.492065,-36.77719,3.266434,0.3822584,0.4964926999999999,1.0,0.01416016,0.119339,0.9927368,35.1339,3.845337,-32.97862,3.4646,0.41139,0.4711263,-0.2674185999999999,1.269858,0.02885997,-0.04088873,0.8247989,0.06532387,1.316283,23.09751,34.21
3,0.01416016,0.119339,0.9927368,1.0,-0.05091858,0.1190033,0.9915771,-27.81458,4.492065,-36.77719,3.266434,0.3822584,0.4964926999999999,1.0,0.01416016,0.119339,0.9927368,35.1339,3.845337,-32.97862,3.4646,0.41139,0.4711263,-0.2674185999999999,1.269858,0.02885997,-0.04088873,0.8247989,0.06532387,1.316283,23.09751,34.21
3,0.01416016,0.119339,0.9927368,1.0,-0.05091858,0.1190033,0.9915771,-27.81458,4.492065,-36.77719,3.266434,0.3822584,0.4964926999999999,1.0,0.01416016,0.119339,0.9927368,35.1339,3.845337,-32.97862,3.4646,0.41139,0.4711263,-0.2674185999999999,1.269858,0.02885997,-0.04088873,0.8247989,0.06532387,1.316283,23.09751,34.21
3,0.01416016,0.119339,0.9927368,1.0,-0.05091858,0.1190033,0.9915771,-27.81458,4.492065,-36.77719,3.266434,0.3822584,0.4964926999999999,1.0,0.01416016,0.119339,0.9927368,35.1339,3.845337,-32.97862,3.4646,0.41139,0.4711263,-0.2726108,1.26931,0.03234398,-0.04338642,0.8247114999999999,0.07368109,1.316283,-15.60397,34.21
3,0.01416016,0.119339,0.9927368,1.0,-0.05091858,0.1190033,0.9915771,-27.81458,4.492065,-36.77719,3.266434,0.3822584,0.4964926999999999,1.0,0.01416016,0.119339,0.9927368,35.1339,3.845337,-32.97862,3.4646,0.41139,0.4711263,-0.2726108,1.26931,0.03234398,-0.04338642,0.8247114999999999,0.07368109,1.316283,-15.60397,34.21
3,0.01416016,0.119339,0.9927368,1.0,-0.05091858,0.1190033,0.9915771,-27.81458,4.492065,-36.77719,3.266434,0.3822584,0.4964926999999999,1.0,0.01416016,0.119339,0.9927368,35.1339,3.845337,-32.97862,3.4646,0.41139,0.4711263,-0.2726108,1.26931,0.03234398,-0.04338642,0.8247114999999999,0.07368109,1.316283,-15.60397,34.21
3,-0.001739502,0.1183624,0.9929657,1.0,-0.04368591,0.08300781,0.9955902,-27.79817,3.662308,-33.11758,3.300934,0.3829870999999999,0.4971161,1.0,-0.001739502,0.1183624,0.9929657,35.14241,3.782074,-32.73058,3.501831,0.4132149999999999,0.4713975999999999,-0.2820958,1.266371,0.03977597,-0.04201436,0.8264333,0.08697122,1.316283,-15.60397,34.21
3,-0.001739502,0.1183624,0.9929657,1.0,-0.04368591,0.08300781,0.9955902,-27.79817,3.662308,-33.11758,3.300934,0.3829870999999999,0.4971161,1.0,-0.001739502,0.1183624,0.9929657,35.14241,3.782074,-32.73058,3.501831,0.4132149999999999,0.4713975999999999,-0.2820958,1.266371,0.03977597,-0.04201436,0.8264333,0.08697122,1.316283,-15.60397,34.21
3,-0.001739502,0.1183624,0.9929657,1.0,-0.04368591,0.08300781,0.9955902,-27.79817,3.662308,-33.11758,3.300934,0.3829870999999999,0.4971161,1.0,-0.001739502,0.1183624,0.9929657,35.14241,3.782074,-32.73058,3.501831,0.4132149999999999,0.4713975999999999,-0.2820958,1.266371,0.03977597,-0.04201436,0.8264333,0.08697122,1.316283,-15.60397,34.21
3,-0.001739502,0.1183624,0.9929657,1.0,-0.04368591,0.08300781,0.9955902,-27.79817,3.662308,-33.11758,3.300934,0.3829870999999999,0.4971161,1.0,-0.001739502,0.1183624,0.9929657,35.14241,3.782074,-32.73058,3.501831,0.4132149999999999,0.4713975999999999,-0.2820958,1.266371,0.03977597,-0.04201436,0.8264333,0.08697122,1.316283,-15.60397,34.21
3,-0.001739502,0.1183624,0.9929657,1.0,-0.04368591,0.08300781,0.9955902,-27.79817,3.662308,-33.11758,3.300934,0.3829870999999999,0.4971161,1.0,-0.001739502,0.1183624,0.9929657,35.14241,3.782074,-32.73058,3.501831,0.4132149999999999,0.4713975999999999,-0.2820958,1.266371,0.03977597,-0.04201436,0.8264333,0.08697122,1.316283,-15.60397,34.21
3,-0.001739502,0.1183624,0.9929657,1.0,-0.04368591,0.08300781,0.9955902,-27.79817,3.662308,-33.11758,3.300934,0.3829870999999999,0.4971161,1.0,-0.001739502,0.1183624,0.9929657,35.14241,3.782074,-32.73058,3.501831,0.4132149999999999,0.4713975999999999,-0.2820958,1.266371,0.03977597,-0.04201436,0.8264333,0.08697122,1.316283,-15.60397,34.21
3,-0.09687805,0.1041412,0.9898224,1.0,-0.1497192,0.08026123,0.9854584,-28.488390000000003,4.053528,-34.409,3.286835,0.4204129,0.4958547,1.0,-0.09687805,0.1041412,0.9898224,34.34494,3.745453,-32.533970000000004,3.427261,0.4529149999999999,0.4732754,-0.2859516,1.26471,0.04368591,-0.03897189,0.82781,0.09090941,1.316283,-15.60397,34.21
3,-0.09687805,0.1041412,0.9898224,1.0,-0.1497192,0.08026123,0.9854584,-28.488390000000003,4.053528,-34.409,3.286835,0.4204129,0.4958547,1.0,-0.09687805,0.1041412,0.9898224,34.34494,3.745453,-32.533970000000004,3.427261,0.4529149999999999,0.4732754,-0.2859516,1.26471,0.04368591,-0.03897189,0.82781,0.09090941,1.316283,-15.60397,34.21
3,-0.09687805,0.1041412,0.9898224,1.0,-0.1497192,0.08026123,0.9854584,-28.488390000000003,4.053528,-34.409,3.286835,0.4204129,0.4958547,1.0,-0.09687805,0.1041412,0.9898224,34.34494,3.745453,-32.533970000000004,3.427261,0.4529149999999999,0.4732754,-0.2859516,1.26471,0.04368591,-0.03897189,0.82781,0.09090941,1.316283,-15.60397,34.21
3,-0.09687805,0.1041412,0.9898224,1.0,-0.1497192,0.08026123,0.9854584,-28.488390000000003,4.053528,-34.409,3.286835,0.4204129,0.4958547,1.0,-0.09687805,0.1041412,0.9898224,34.34494,3.745453,-32.533970000000004,3.427261,0.4529149999999999,0.4732754,-0.2921204,1.2611139999999998,0.05028546,-0.03276229,0.8309655,0.09358403,1.316283,-15.60397,34.21
3,-0.09687805,0.1041412,0.9898224,1.0,-0.1497192,0.08026123,0.9854584,-28.488390000000003,4.053528,-34.409,3.286835,0.4204129,0.4958547,1.0,-0.09687805,0.1041412,0.9898224,34.34494,3.745453,-32.533970000000004,3.427261,0.4529149999999999,0.4732754,-0.2921204,1.2611139999999998,0.05028546,-0.03276229,0.8309655,0.09358403,1.316283,-15.60397,34.21
3,-0.09687805,0.1041412,0.9898224,1.0,-0.1497192,0.08026123,0.9854584,-28.488390000000003,4.053528,-34.409,3.286835,0.4204129,0.4958547,1.0,-0.09687805,0.1041412,0.9898224,34.34494,3.745453,-32.533970000000004,3.427261,0.4529149999999999,0.4732754,-0.2921204,1.2611139999999998,0.05028546,-0.03276229,0.8309655,0.09358403,1.316283,-15.60397,34.21
3,-0.1240692,0.1220856,0.984726,1.0,-0.1581879,0.0609436,0.9855194,-28.64017,4.419403,-35.58908,3.268036,0.4266116,0.4960609,1.0,-0.1240692,0.1220856,0.984726,34.2341,3.763763,-32.5408,3.424698,0.460143,0.4707348,-0.2921204,1.2611139999999998,0.05028546,-0.03276229,0.8309655,0.09358403,1.316283,-2.81637,34.21
3,-0.1240692,0.1220856,0.984726,1.0,-0.1581879,0.0609436,0.9855194,-28.64017,4.419403,-35.58908,3.268036,0.4266116,0.4960609,1.0,-0.1240692,0.1220856,0.984726,34.2341,3.763763,-32.5408,3.424698,0.460143,0.4707348,-0.2921204,1.2611139999999998,0.05028546,-0.03276229,0.8309655,0.09358403,1.316283,-2.81637,34.21
3,-0.1240692,0.1220856,0.984726,1.0,-0.1581879,0.0609436,0.9855194,-28.64017,4.419403,-35.58908,3.268036,0.4266116,0.4960609,1.0,-0.1240692,0.1220856,0.984726,34.2341,3.763763,-32.5408,3.424698,0.460143,0.4707348,-0.2921204,1.2611139999999998,0.05028546,-0.03276229,0.8309655,0.09358403,1.316283,-2.81637,34.21
3,-0.1240692,0.1220856,0.984726,1.0,-0.1581879,0.0609436,0.9855194,-28.64017,4.419403,-35.58908,3.268036,0.4266116,0.4960609,1.0,-0.1240692,0.1220856,0.984726,34.2341,3.763763,-32.5408,3.424698,0.460143,0.4707348,-0.2940767,1.261318,0.05397773,-0.03372743,0.8317089,0.09828389,1.316283,-2.81637,34.21
3,-0.1240692,0.1220856,0.984726,1.0,-0.1581879,0.0609436,0.9855194,-28.64017,4.419403,-35.58908,3.268036,0.4266116,0.4960609,1.0,-0.1240692,0.1220856,0.984726,34.2341,3.763763,-32.5408,3.424698,0.460143,0.4707348,-0.2940767,1.261318,0.05397773,-0.03372743,0.8317089,0.09828389,1.316283,-2.81637,34.21
3,-0.1240692,0.1220856,0.984726,1.0,-0.1581879,0.0609436,0.9855194,-28.64017,4.419403,-35.58908,3.268036,0.4266116,0.4960609,1.0,-0.1240692,0.1220856,0.984726,34.2341,3.763763,-32.5408,3.424698,0.460143,0.4707348,-0.2940767,1.261318,0.05397773,-0.03372743,0.8317089,0.09828389,1.316283,-2.81637,34.21
3,-0.0975646999999999,0.02519226,0.9949036,1.0,-0.1467743,0.004547119,0.989151,-28.49335,3.60321,-33.13361,2.804428,0.4203247,0.5090508,1.0,-0.0975646999999999,0.02519226,0.9949036,34.34711,3.762558,-32.559490000000004,2.897354,0.4535642,0.4820605999999999,-0.2957609,1.260765,0.05784678,-0.03158344,0.8319684000000002,0.1007981999999999,1.316283,-2.81637,34.21
3,-0.0975646999999999,0.02519226,0.9949036,1.0,-0.1467743,0.004547119,0.989151,-28.49335,3.60321,-33.13361,2.804428,0.4203247,0.5090508,1.0,-0.0975646999999999,0.02519226,0.9949036,34.34711,3.762558,-32.559490000000004,2.897354,0.4535642,0.4820605999999999,-0.2957609,1.260765,0.05784678,-0.03158344,0.8319684000000002,0.1007981999999999,1.316283,-2.81637,34.21
3,-0.0975646999999999,0.02519226,0.9949036,1.0,-0.1467743,0.004547119,0.989151,-28.49335,3.60321,-33.13361,2.804428,0.4203247,0.5090508,1.0,-0.0975646999999999,0.02519226,0.9949036,34.34711,3.762558,-32.559490000000004,2.897354,0.4535642,0.4820605999999999,-0.2957609,1.260765,0.05784678,-0.03158344,0.8319684000000002,0.1007981999999999,1.316283,-2.81637,34.21
3,-0.09391785,0.02249146,0.9953156,1.0,-0.1357422,0.00390625,0.9907226999999998,-28.552540000000004,3.884171,-34.3324,2.731247,0.420628,0.5101005999999999,1.0,-0.09391785,0.02249146,0.9953156,34.34355,3.735168,-32.567809999999994,2.902679,0.4532135999999999,0.4833962,-0.2991909,1.257917,0.06520617,-0.01624751,0.8311566999999999,0.101255,1.316283,-2.81637,34.21
3,-0.09391785,0.02249146,0.9953156,1.0,-0.1357422,0.00390625,0.9907226999999998,-28.552540000000004,3.884171,-34.3324,2.731247,0.420628,0.5101005999999999,1.0,-0.09391785,0.02249146,0.9953156,34.34355,3.735168,-32.567809999999994,2.902679,0.4532135999999999,0.4833962,-0.2991909,1.257917,0.06520617,-0.01624751,0.8311566999999999,0.101255,1.316283,-2.81637,34.21
3,-0.09391785,0.02249146,0.9953156,1.0,-0.1357422,0.00390625,0.9907226999999998,-28.552540000000004,3.884171,-34.3324,2.731247,0.420628,0.5101005999999999,1.0,-0.09391785,0.02249146,0.9953156,34.34355,3.735168,-32.567809999999994,2.902679,0.4532135999999999,0.4833962,-0.2991909,1.257917,0.06520617,-0.01624751,0.8311566999999999,0.101255,1.316283,-2.81637,34.21
3,-0.09391785,0.02249146,0.9953156,1.0,-0.1357422,0.00390625,0.9907226999999998,-28.552540000000004,3.884171,-34.3324,2.731247,0.420628,0.5101005999999999,1.0,-0.09391785,0.02249146,0.9953156,34.34355,3.735168,-32.567809999999994,2.902679,0.4532135999999999,0.4833962,-0.2991909,1.257917,0.06520617,-0.01624751,0.8311566999999999,0.101255,1.316283,-2.81637,34.21
3,-0.09391785,0.02249146,0.9953156,1.0,-0.1357422,0.00390625,0.9907226999999998,-28.552540000000004,3.884171,-34.3324,2.731247,0.420628,0.5101005999999999,1.0,-0.09391785,0.02249146,0.9953156,34.34355,3.735168,-32.567809999999994,2.902679,0.4532135999999999,0.4833962,-0.2991909,1.257917,0.06520617,-0.01624751,0.8311566999999999,0.101255,1.316283,-2.81637,34.21
3,-0.09391785,0.02249146,0.9953156,1.0,-0.1357422,0.00390625,0.9907226999999998,-28.552540000000004,3.884171,-34.3324,2.731247,0.420628,0.5101005999999999,1.0,-0.09391785,0.02249146,0.9953156,34.34355,3.735168,-32.567809999999994,2.902679,0.4532135999999999,0.4833962,-0.2991909,1.257917,0.06520617,-0.01624751,0.8311566999999999,0.101255,1.316283,-2.81637,34.21
4,-0.134201,-0.005386353,0.9909363,1.0,-0.134201,-0.005386353,0.9909363,-28.63931,3.714569000000001,-32.89857,2.742767,0.4239742,0.5041901,1.0,0.0,0.0,0.0,34.22673,4.000717,-32.52238,-1.0,0.4566419,0.4699117,-0.3005268,1.256828,0.06853259,-0.009775538,0.8308603000000001,0.09840798,1.316283,-21.27275,34.21
4,-0.134201,-0.005386353,0.9909363,1.0,-0.134201,-0.005386353,0.9909363,-28.63931,3.714569000000001,-32.89857,2.742767,0.4239742,0.5041901,1.0,0.0,0.0,0.0,34.22673,4.000717,-32.52238,-1.0,0.4566419,0.4699117,-0.3005268,1.256828,0.06853259,-0.009775538,0.8308603000000001,0.09840798,1.316283,-21.27275,34.21
4,-0.134201,-0.005386353,0.9909363,1.0,-0.134201,-0.005386353,0.9909363,-28.63931,3.714569000000001,-32.89857,2.742767,0.4239742,0.5041901,1.0,0.0,0.0,0.0,34.22673,4.000717,-32.52238,-1.0,0.4566419,0.4699117,-0.3005268,1.256828,0.06853259,-0.009775538,0.8308603000000001,0.09840798,1.316283,-21.27275,34.21
4,-1.0,-1.0,-1.0,0.2458529,0.0,0.0,0.0,-29.0406,2.685654,-33.82068,-1.0,0.4529013,0.5724521,0.4483045,0.0,0.0,0.0,34.6546,2.336411,-32.51959,-1.0,0.4359444,0.5597626,-0.3022455999999999,1.257848,0.07383394,-0.01598609,0.8297261999999999,0.1010881,1.316283,-21.27275,34.21
4,-1.0,-1.0,-1.0,0.2458529,0.0,0.0,0.0,-29.0406,2.685654,-33.82068,-1.0,0.4529013,0.5724521,0.4483045,0.0,0.0,0.0,34.6546,2.336411,-32.51959,-1.0,0.4359444,0.5597626,-0.3022455999999999,1.257848,0.07383394,-0.01598609,0.8297261999999999,0.1010881,1.316283,-21.27275,34.21
4,-1.0,-1.0,-1.0,0.2458529,0.0,0.0,0.0,-29.0406,2.685654,-33.82068,-1.0,0.4529013,0.5724521,0.4483045,0.0,0.0,0.0,34.6546,2.336411,-32.51959,-1.0,0.4359444,0.5597626,-0.3022455999999999,1.257848,0.07383394,-0.01598609,0.8297261999999999,0.1010881,1.316283,-21.27275,34.21
4,-1.0,-1.0,-1.0,0.4163520999999999,0.0,0.0,0.0,-27.49181,3.276291,-30.61481,-1.0,0.365136,0.5157763,0.4978916,0.0,0.0,0.0,34.79796,2.787964,-32.4355,-1.0,0.4280834,0.5325512,-0.3022455999999999,1.257848,0.07383394,-0.01598609,0.8297261999999999,0.1010881,1.316283,-21.27275,34.21
4,-1.0,-1.0,-1.0,0.4163520999999999,0.0,0.0,0.0,-27.49181,3.276291,-30.61481,-1.0,0.365136,0.5157763,0.4978916,0.0,0.0,0.0,34.79796,2.787964,-32.4355,-1.0,0.4280834,0.5325512,-0.3022455999999999,1.257848,0.07383394,-0.01598609,0.8297261999999999,0.1010881,1.316283,-21.27275,34.21
4,-1.0,-1.0,-1.0,0.4163520999999999,0.0,0.0,0.0,-27.49181,3.276291,-30.61481,-1.0,0.365136,0.5157763,0.4978916,0.0,0.0,0.0,34.79796,2.787964,-32.4355,-1.0,0.4280834,0.5325512,-0.3022455999999999,1.257848,0.07383394,-0.01598609,0.8297261999999999,0.1010881,1.316283,-21.27275,34.21
4,-1.0,-1.0,-1.0,0.9939939,0.0,0.0,0.0,-27.44106,3.4733120000000004,-32.31261,-1.0,0.3507778,0.512271,0.9450849,0.0,0.0,0.0,35.38774,3.938538,-32.15208,-1.0,0.3859106,0.4779662,-0.303413,1.25731,0.07579339,-0.01767851,0.8291513,0.1021623,1.316283,-21.27275,34.21
4,-1.0,-1.0,-1.0,0.9939939,0.0,0.0,0.0,-27.44106,3.4733120000000004,-32.31261,-1.0,0.3507778,0.512271,0.9450849,0.0,0.0,0.0,35.38774,3.938538,-32.15208,-1.0,0.3859106,0.4779662,-0.303413,1.25731,0.07579339,-0.01767851,0.8291513,0.1021623,1.316283,-21.27275,34.21
4,-1.0,-1.0,-1.0,0.9939939,0.0,0.0,0.0,-27.44106,3.4733120000000004,-32.31261,-1.0,0.3507778,0.512271,0.9450849,0.0,0.0,0.0,35.38774,3.938538,-32.15208,-1.0,0.3859106,0.4779662,-0.303413,1.25731,0.07579339,-0.01767851,0.8291513,0.1021623,1.316283,-21.27275,34.21
4,0.100296,-0.03947449,0.9941711,1.0,0.100296,-0.03947449,0.9941711,-27.445970000000003,3.475449,-32.649640000000005,2.709442,0.3519407,0.5140226,1.0,0.1339569,-0.02761841,0.9906006,35.415890000000005,3.760269,-31.8884,2.8206330000000004,0.3882100999999999,0.4817524,-0.304685,1.256572,0.07738435,-0.01917262,0.8288515999999999,0.1025374,1.316283,-21.27275,34.21
4,0.100296,-0.03947449,0.9941711,1.0,0.100296,-0.03947449,0.9941711,-27.445970000000003,3.475449,-32.649640000000005,2.709442,0.3519407,0.5140226,1.0,0.1339569,-0.02761841,0.9906006,35.415890000000005,3.760269,-31.8884,2.8206330000000004,0.3882100999999999,0.4817524,-0.304685,1.256572,0.07738435,-0.01917262,0.8288515999999999,0.1025374,1.316283,-21.27275,34.21
4,0.100296,-0.03947449,0.9941711,1.0,0.100296,-0.03947449,0.9941711,-27.445970000000003,3.475449,-32.649640000000005,2.709442,0.3519407,0.5140226,1.0,0.1339569,-0.02761841,0.9906006,35.415890000000005,3.760269,-31.8884,2.8206330000000004,0.3882100999999999,0.4817524,-0.304685,1.256572,0.07738435,-0.01917262,0.8288515999999999,0.1025374,1.316283,-21.27275,34.21
4,0.100296,-0.03947449,0.9941711,1.0,0.100296,-0.03947449,0.9941711,-27.445970000000003,3.475449,-32.649640000000005,2.709442,0.3519407,0.5140226,1.0,0.1339569,-0.02761841,0.9906006,35.415890000000005,3.760269,-31.8884,2.8206330000000004,0.3882100999999999,0.4817524,-0.3056407,1.255622,0.07906997,-0.02146373,0.8291881999999999,0.1002098,1.316283,-1.087029,34.21
4,0.100296,-0.03947449,0.9941711,1.0,0.100296,-0.03947449,0.9941711,-27.445970000000003,3.475449,-32.649640000000005,2.709442,0.3519407,0.5140226,1.0,0.1339569,-0.02761841,0.9906006,35.415890000000005,3.760269,-31.8884,2.8206330000000004,0.3882100999999999,0.4817524,-0.3056407,1.255622,0.07906997,-0.02146373,0.8291881999999999,0.1002098,1.316283,-1.087029,34.21
4,0.100296,-0.03947449,0.9941711,1.0,0.100296,-0.03947449,0.9941711,-27.445970000000003,3.475449,-32.649640000000005,2.709442,0.3519407,0.5140226,1.0,0.1339569,-0.02761841,0.9906006,35.415890000000005,3.760269,-31.8884,2.8206330000000004,0.3882100999999999,0.4817524,-0.3056407,1.255622,0.07906997,-0.02146373,0.8291881999999999,0.1002098,1.316283,-1.087029,34.21
4,0.100296,-0.03947449,0.9941711,1.0,0.100296,-0.03947449,0.9941711,-27.445970000000003,3.475449,-32.649640000000005,2.709442,0.3519407,0.5140226,1.0,0.1339569,-0.02761841,0.9906006,35.415890000000005,3.760269,-31.8884,2.8206330000000004,0.3882100999999999,0.4817524,-0.306168,1.254175,0.08050072,-0.02316781,0.8293944999999999,0.09717683,1.316283,-1.087029,34.21
4,0.100296,-0.03947449,0.9941711,1.0,0.100296,-0.03947449,0.9941711,-27.445970000000003,3.475449,-32.649640000000005,2.709442,0.3519407,0.5140226,1.0,0.1339569,-0.02761841,0.9906006,35.415890000000005,3.760269,-31.8884,2.8206330000000004,0.3882100999999999,0.4817524,-0.306168,1.254175,0.08050072,-0.02316781,0.8293944999999999,0.09717683,1.316283,-1.087029,34.21
4,0.100296,-0.03947449,0.9941711,1.0,0.100296,-0.03947449,0.9941711,-27.445970000000003,3.475449,-32.649640000000005,2.709442,0.3519407,0.5140226,1.0,0.1339569,-0.02761841,0.9906006,35.415890000000005,3.760269,-31.8884,2.8206330000000004,0.3882100999999999,0.4817524,-0.306168,1.254175,0.08050072,-0.02316781,0.8293944999999999,0.09717683,1.316283,-1.087029,34.21
4,0.09373474,-0.03825378,0.9948578,1.0,0.09120178,-0.04118347,0.9949646,-27.42442,3.386307,-32.43558,2.656647,0.3524323,0.5153380999999999,1.0,0.1088867,-0.02064514,0.9938354,35.4538,3.824051,-32.73672,2.729156,0.3892117,0.4859511999999999,-0.3063794,1.252823,0.08173978,-0.0237269,0.8291870000000001,0.09420475,1.316283,-1.087029,34.21
4,0.09373474,-0.03825378,0.9948578,1.0,0.09120178,-0.04118347,0.9949646,-27.42442,3.386307,-32.43558,2.656647,0.3524323,0.5153380999999999,1.0,0.1088867,-0.02064514,0.9938354,35.4538,3.824051,-32.73672,2.729156,0.3892117,0.4859511999999999,-0.3063794,1.252823,0.08173978,-0.0237269,0.8291870000000001,0.09420475,1.316283,-1.087029,34.21
4,0.09373474,-0.03825378,0.9948578,1.0,0.09120178,-0.04118347,0.9949646,-27.42442,3.386307,-32.43558,2.656647,0.3524323,0.5153380999999999,1.0,0.1088867,-0.02064514,0.9938354,35.4538,3.824051,-32.73672,2.729156,0.3892117,0.4859511999999999,-0.3063794,1.252823,0.08173978,-0.0237269,0.8291870000000001,0.09420475,1.316283,-1.087029,34.21
4,0.08906555,-0.05245972,0.9946289,1.0,0.08906555,-0.05245972,0.9946289,-27.45296,3.663788,-32.81642,2.680862,0.3534768,0.5105208,1.0,0.1248168999999999,-0.0500945999999999,0.9909058,35.42755,3.740616,-31.58188,2.879471,0.3892039,0.4826367999999999,-0.3061695,1.252391,0.08302927,-0.02622538,0.8285681,0.09298333,1.316283,-1.087029,34.21
4,0.08906555,-0.05245972,0.9946289,1.0,0.08906555,-0.05245972,0.9946289,-27.45296,3.663788,-32.81642,2.680862,0.3534768,0.5105208,1.0,0.1248168999999999,-0.0500945999999999,0.9909058,35.42755,3.740616,-31.58188,2.879471,0.3892039,0.4826367999999999,-0.3061695,1.252391,0.08302927,-0.02622538,0.8285681,0.09298333,1.316283,-1.087029,34.21
4,0.08906555,-0.05245972,0.9946289,1.0,0.08906555,-0.05245972,0.9946289,-27.45296,3.663788,-32.81642,2.680862,0.3534768,0.5105208,1.0,0.1248168999999999,-0.0500945999999999,0.9909058,35.42755,3.740616,-31.58188,2.879471,0.3892039,0.4826367999999999,-0.3061695,1.252391,0.08302927,-0.02622538,0.8285681,0.09298333,1.316283,-1.087029,34.21
4,0.08108521,-0.03520203,0.9960785,1.0,0.08093262,-0.03515625,0.9960938,-27.45741,3.640945,-32.71693,2.713623,0.3548168,0.5082324,1.0,0.1265563999999999,-0.04881287,0.9907532,35.4061,3.858978,-31.821990000000003,2.861282,0.3895230999999999,0.4804588999999999,-0.3056167999999999,1.252289,0.0843538,-0.03018989,0.8278208,0.09304665,1.316283,-1.087029,34.21
4,0.08108521,-0.03520203,0.9960785,1.0,0.08093262,-0.03515625,0.9960938,-27.45741,3.640945,-32.71693,2.713623,0.3548168,0.5082324,1.0,0.1265563999999999,-0.04881287,0.9907532,35.4061,3.858978,-31.821990000000003,2.861282,0.3895230999999999,0.4804588999999999,-0.3056167999999999,1.252289,0.0843538,-0.03018989,0.8278208,0.09304665,1.316283,-1.087029,34.21
4,0.08108521,-0.03520203,0.9960785,1.0,0.08093262,-0.03515625,0.9960938,-27.45741,3.640945,-32.71693,2.713623,0.3548168,0.5082324,1.0,0.1265563999999999,-0.04881287,0.9907532,35.4061,3.858978,-31.821990000000003,2.861282,0.3895230999999999,0.4804588999999999,-0.3056167999999999,1.252289,0.0843538,-0.03018989,0.8278208,0.09304665,1.316283,-1.087029,34.21
4,0.07987976,-0.04603577,0.9957275,1.0,0.07795715,-0.04632568,0.9958649,-27.4735,3.685379,-32.85878,2.734589,0.355661,0.5093959,1.0,0.1216887999999999,-0.03993225,0.9917603000000002,35.42006,3.696915,-31.47896,2.940674,0.3899143,0.4820442,-0.3049086,1.251577,0.08590984,-0.03357877,0.8275781999999999,0.09335805,1.316283,-1.087029,34.21
4,0.07987976,-0.04603577,0.9957275,1.0,0.07795715,-0.04632568,0.9958649,-27.4735,3.685379,-32.85878,2.734589,0.355661,0.5093959,1.0,0.1216887999999999,-0.03993225,0.9917603000000002,35.42006,3.696915,-31.47896,2.940674,0.3899143,0.4820442,-0.3049086,1.251577,0.08590984,-0.03357877,0.8275781999999999,0.09335805,1.316283,-1.087029,34.21
4,0.07987976,-0.04603577,0.9957275,1.0,0.07795715,-0.04632568,0.9958649,-27.4735,3.685379,-32.85878,2.734589,0.355661,0.5093959,1.0,0.1216887999999999,-0.03993225,0.9917603000000002,35.42006,3.696915,-31.47896,2.940674,0.3899143,0.4820442,-0.3049086,1.251577,0.08590984,-0.03357877,0.8275781999999999,0.09335805,1.316283,-1.087029,34.21
4,0.07926941,-0.043396,0.9958954,1.0,0.07566833,-0.0435791,0.99617,-27.47585,3.67923,-32.83856,2.766525,0.3560873,0.5091003,1.0,0.1187134,-0.04135132,0.9920654,35.4193,3.685165,-31.4447,2.939682,0.3903438,0.4823235999999999,-0.3044527999999999,1.250748,0.08762097,-0.03419582,0.827484,0.094694,1.316283,-48.19391,34.21
4,0.07926941,-0.043396,0.9958954,1.0,0.07566833,-0.0435791,0.99617,-27.47585,3.67923,-32.83856,2.766525,0.3560873,0.5091003,1.0,0.1187134,-0.04135132,0.9920654,35.4193,3.685165,-31.4447,2.939682,0.3903438,0.4823235999999999,-0.3044527999999999,1.250748,0.08762097,-0.03419582,0.827484,0.094694,1.316283,-48.19391,34.21
4,0.07926941,-0.043396,0.9958954,1.0,0.07566833,-0.0435791,0.99617,-27.47585,3.67923,-32.83856,2.766525,0.3560873,0.5091003,1.0,0.1187134,-0.04135132,0.9920654,35.4193,3.685165,-31.4447,2.939682,0.3903438,0.4823235999999999,-0.3044527999999999,1.250748,0.08762097,-0.03419582,0.827484,0.094694,1.316283,-48.19391,34.21
4,0.1012268,-0.04508972,0.9938354,1.0,0.07354736,-0.04348755,0.9963379,-27.47392,3.67923,-32.840070000000004,2.768585,0.3562919,0.5091003,1.0,0.1195831,-0.04614258,0.991745,35.41243,3.685165,-31.46283,2.938232,0.3904488,0.4830822,-0.3039853,1.250017,0.08943117,-0.03263059,0.8275286000000001,0.09692856,1.233001,-48.19391,34.21
4,0.1012268,-0.04508972,0.9938354,1.0,0.07354736,-0.04348755,0.9963379,-27.47392,3.67923,-32.840070000000004,2.768585,0.3562919,0.5091003,1.0,0.1195831,-0.04614258,0.991745,35.41243,3.685165,-31.46283,2.938232,0.3904488,0.4830822,-0.3039853,1.250017,0.08943117,-0.03263059,0.8275286000000001,0.09692856,1.233001,-48.19391,34.21
4,0.1012268,-0.04508972,0.9938354,1.0,0.07354736,-0.04348755,0.9963379,-27.47392,3.67923,-32.840070000000004,2.768585,0.3562919,0.5091003,1.0,0.1195831,-0.04614258,0.991745,35.41243,3.685165,-31.46283,2.938232,0.3904488,0.4830822,-0.3039853,1.250017,0.08943117,-0.03263059,0.8275286000000001,0.09692856,1.233001,-48.19391,34.21
4,0.09954834,-0.04585266,0.9939728,1.0,0.07369995,-0.04489136,0.9962616,-27.476470000000003,3.690887000000001,-32.864290000000004,2.787415,0.3563604,0.5091003,1.0,0.1185608,-0.04655457,0.9918518,35.411159999999995,3.694839,-31.49565,2.937073,0.3905877,0.4830822,-0.3036545,1.249416,0.09125531,-0.02919089,0.8279861,0.09898405,1.233001,-48.19391,34.21
4,0.09954834,-0.04585266,0.9939728,1.0,0.07369995,-0.04489136,0.9962616,-27.476470000000003,3.690887000000001,-32.864290000000004,2.787415,0.3563604,0.5091003,1.0,0.1185608,-0.04655457,0.9918518,35.411159999999995,3.694839,-31.49565,2.937073,0.3905877,0.4830822,-0.3036545,1.249416,0.09125531,-0.02919089,0.8279861,0.09898405,1.233001,-48.19391,34.21
4,0.09954834,-0.04585266,0.9939728,1.0,0.07369995,-0.04489136,0.9962616,-27.476470000000003,3.690887000000001,-32.864290000000004,2.787415,0.3563604,0.5091003,1.0,0.1185608,-0.04655457,0.9918518,35.411159999999995,3.694839,-31.49565,2.937073,0.3905877,0.4830822,-0.3036545,1.249416,0.09125531,-0.02919089,0.8279861,0.09898405,1.233001,-48.19391,34.21
4,0.07723999,-0.04481506,0.9960022,1.0,0.06645203,-0.04833984,0.9966125,-27.47923,3.69928,-32.884890000000006,2.81427,0.3573881,0.5094454,1.0,0.1165161,-0.03192139,0.9926605,35.37262,3.759323,-31.75407,2.99411,0.3918890999999999,0.4813359,-0.3036086,1.248883,0.09306014,-0.02344417,0.8289204,0.1001312,1.233001,-48.19391,34.21
4,0.07723999,-0.04481506,0.9960022,1.0,0.06645203,-0.04833984,0.9966125,-27.47923,3.69928,-32.884890000000006,2.81427,0.3573881,0.5094454,1.0,0.1165161,-0.03192139,0.9926605,35.37262,3.759323,-31.75407,2.99411,0.3918890999999999,0.4813359,-0.3036086,1.248883,0.09306014,-0.02344417,0.8289204,0.1001312,1.233001,-48.19391,34.21
4,0.07723999,-0.04481506,0.9960022,1.0,0.06645203,-0.04833984,0.9966125,-27.47923,3.69928,-32.884890000000006,2.81427,0.3573881,0.5094454,1.0,0.1165161,-0.03192139,0.9926605,35.37262,3.759323,-31.75407,2.99411,0.3918890999999999,0.4813359,-0.3036086,1.248883,0.09306014,-0.02344417,0.8289204,0.1001312,1.233001,-48.19391,34.21
4,0.07095337,-0.04052734,0.9966431,1.0,0.07095337,-0.04052734,0.9966431,-27.55836,3.619598,-32.49719,2.8707580000000004,0.3600138,0.5078116,1.0,0.1026763999999999,-0.04037476,0.9938812,35.36226,4.028854,-32.76352,2.940292,0.3930166,0.4817825,-0.3034453,1.248428,0.09470606,-0.01932493,0.8303828999999999,0.1013216,1.233001,-48.19391,34.21
4,0.07095337,-0.04052734,0.9966431,1.0,0.07095337,-0.04052734,0.9966431,-27.55836,3.619598,-32.49719,2.8707580000000004,0.3600138,0.5078116,1.0,0.1026763999999999,-0.04037476,0.9938812,35.36226,4.028854,-32.76352,2.940292,0.3930166,0.4817825,-0.3034453,1.248428,0.09470606,-0.01932493,0.8303828999999999,0.1013216,1.233001,-48.19391,34.21
4,0.07095337,-0.04052734,0.9966431,1.0,0.07095337,-0.04052734,0.9966431,-27.55836,3.619598,-32.49719,2.8707580000000004,0.3600138,0.5078116,1.0,0.1026763999999999,-0.04037476,0.9938812,35.36226,4.028854,-32.76352,2.940292,0.3930166,0.4817825,-0.3034453,1.248428,0.09470606,-0.01932493,0.8303828999999999,0.1013216,1.233001,-48.19391,34.21
4,0.07095337,-0.04052734,0.9966431,1.0,0.07095337,-0.04052734,0.9966431,-27.55836,3.619598,-32.49719,2.8707580000000004,0.3600138,0.5078116,1.0,0.1026763999999999,-0.04037476,0.9938812,35.36226,4.028854,-32.76352,2.940292,0.3930166,0.4817825,-0.3031273,1.248556,0.09633791,-0.01740369,0.8309169,0.1054127999999999,1.233001,-17.98845,34.21
4,0.07095337,-0.04052734,0.9966431,1.0,0.07095337,-0.04052734,0.9966431,-27.55836,3.619598,-32.49719,2.8707580000000004,0.3600138,0.5078116,1.0,0.1026763999999999,-0.04037476,0.9938812,35.36226,4.028854,-32.76352,2.940292,0.3930166,0.4817825,-0.3031273,1.248556,0.09633791,-0.01740369,0.8309169,0.1054127999999999,1.233001,-17.98845,34.21
4,0.07095337,-0.04052734,0.9966431,1.0,0.07095337,-0.04052734,0.9966431,-27.55836,3.619598,-32.49719,2.8707580000000004,0.3600138,0.5078116,1.0,0.1026763999999999,-0.04037476,0.9938812,35.36226,4.028854,-32.76352,2.940292,0.3930166,0.4817825,-0.3031273,1.248556,0.09633791,-0.01740369,0.8309169,0.1054127999999999,1.233001,-17.98845,34.21
4,0.07095337,-0.04052734,0.9966431,1.0,0.07095337,-0.04052734,0.9966431,-27.55836,3.619598,-32.49719,2.8707580000000004,0.3600138,0.5078116,1.0,0.1026763999999999,-0.04037476,0.9938812,35.36226,4.028854,-32.76352,2.940292,0.3930166,0.4817825,-0.3021508,1.248358,0.09978855,-0.01578181,0.8302988000000001,0.1100059999999999,1.233001,-17.98845,34.21
4,0.07095337,-0.04052734,0.9966431,1.0,0.07095337,-0.04052734,0.9966431,-27.55836,3.619598,-32.49719,2.8707580000000004,0.3600138,0.5078116,1.0,0.1026763999999999,-0.04037476,0.9938812,35.36226,4.028854,-32.76352,2.940292,0.3930166,0.4817825,-0.3021508,1.248358,0.09978855,-0.01578181,0.8302988000000001,0.1100059999999999,1.233001,-17.98845,34.21
4,0.07095337,-0.04052734,0.9966431,1.0,0.07095337,-0.04052734,0.9966431,-27.55836,3.619598,-32.49719,2.8707580000000004,0.3600138,0.5078116,1.0,0.1026763999999999,-0.04037476,0.9938812,35.36226,4.028854,-32.76352,2.940292,0.3930166,0.4817825,-0.3021508,1.248358,0.09978855,-0.01578181,0.8302988000000001,0.1100059999999999,1.233001,-17.98845,34.21
4,0.0604248,-0.05645752,0.9965668,1.0,0.0604248,-0.05645752,0.9965668,-27.5547,3.638062,-32.44643,2.814407,0.3611952,0.5086646,1.0,0.1017303,-0.04100037,0.9939575,35.36606,4.161346,-33.110690000000005,2.934387,0.3926752999999999,0.4802622,-0.3016414,1.247673,0.1014413,-0.01598376,0.8295653000000001,0.1097237,1.233001,-17.98845,34.21
4,0.0604248,-0.05645752,0.9965668,1.0,0.0604248,-0.05645752,0.9965668,-27.5547,3.638062,-32.44643,2.814407,0.3611952,0.5086646,1.0,0.1017303,-0.04100037,0.9939575,35.36606,4.161346,-33.110690000000005,2.934387,0.3926752999999999,0.4802622,-0.3016414,1.247673,0.1014413,-0.01598376,0.8295653000000001,0.1097237,1.233001,-17.98845,34.21
4,0.0604248,-0.05645752,0.9965668,1.0,0.0604248,-0.05645752,0.9965668,-27.5547,3.638062,-32.44643,2.814407,0.3611952,0.5086646,1.0,0.1017303,-0.04100037,0.9939575,35.36606,4.161346,-33.110690000000005,2.934387,0.3926752999999999,0.4802622,-0.3016414,1.247673,0.1014413,-0.01598376,0.8295653000000001,0.1097237,1.233001,-17.98845,34.21
4,0.09759521,-0.04490662,0.9942017,1.0,0.07165527,-0.05606079,0.9958496,-27.540740000000003,3.549545,-32.3602,2.866837,0.3593697999999999,0.5109705,1.0,0.1040955,-0.042099,0.9936676,35.37959,4.0684510000000005,-32.87048,2.956528,0.39211,0.481555,-0.3011245999999999,1.2471290000000002,0.1030663,-0.01544804,0.8283867,0.1108462,1.233001,-17.98845,34.21
4,0.09759521,-0.04490662,0.9942017,1.0,0.07165527,-0.05606079,0.9958496,-27.540740000000003,3.549545,-32.3602,2.866837,0.3593697999999999,0.5109705,1.0,0.1040955,-0.042099,0.9936676,35.37959,4.0684510000000005,-32.87048,2.956528,0.39211,0.481555,-0.3011245999999999,1.2471290000000002,0.1030663,-0.01544804,0.8283867,0.1108462,1.233001,-17.98845,34.21
4,0.09759521,-0.04490662,0.9942017,1.0,0.07165527,-0.05606079,0.9958496,-27.540740000000003,3.549545,-32.3602,2.866837,0.3593697999999999,0.5109705,1.0,0.1040955,-0.042099,0.9936676,35.37959,4.0684510000000005,-32.87048,2.956528,0.39211,0.481555,-0.3011245999999999,1.2471290000000002,0.1030663,-0.01544804,0.8283867,0.1108462,1.233001,-17.98845,34.21
4,0.06512451,-0.05758667,0.9962006,1.0,0.06510925,-0.05760193,0.9962006,-27.59857,3.490234,-32.23683,2.900482,0.3623667,0.5121726,1.0,0.09654236,-0.04310608,0.9943848,35.3381,3.842773,-32.1008,2.993286,0.3952213,0.4828789,-0.3007305999999999,1.246446,0.104598,-0.01367188,0.8272948,0.1114068999999999,1.233001,-17.98845,34.21
4,0.06512451,-0.05758667,0.9962006,1.0,0.06510925,-0.05760193,0.9962006,-27.59857,3.490234,-32.23683,2.900482,0.3623667,0.5121726,1.0,0.09654236,-0.04310608,0.9943848,35.3381,3.842773,-32.1008,2.993286,0.3952213,0.4828789,-0.3007305999999999,1.246446,0.104598,-0.01367188,0.8272948,0.1114068999999999,1.233001,-17.98845,34.21
4,0.06512451,-0.05758667,0.9962006,1.0,0.06510925,-0.05760193,0.9962006,-27.59857,3.490234,-32.23683,2.900482,0.3623667,0.5121726,1.0,0.09654236,-0.04310608,0.9943848,35.3381,3.842773,-32.1008,2.993286,0.3952213,0.4828789,-0.3007305999999999,1.246446,0.104598,-0.01367188,0.8272948,0.1114068999999999,1.233001,-17.98845,34.21
4,0.06300354,-0.05511475,0.9964752,1.0,0.06297302,-0.05513,0.9964752,-27.6096,3.497421,-32.28197,2.908737,0.3630036,0.5120226,1.0,0.09307861,-0.04238892,0.994751,35.33401,3.781967,-31.91096,3.037384,0.3959342,0.483288,-0.3005883,1.245787,0.1057029,-0.01126723,0.8267894,0.1122888999999999,1.233001,31.01984,34.21
4,0.06300354,-0.05511475,0.9964752,1.0,0.06297302,-0.05513,0.9964752,-27.6096,3.497421,-32.28197,2.908737,0.3630036,0.5120226,1.0,0.09307861,-0.04238892,0.994751,35.33401,3.781967,-31.91096,3.037384,0.3959342,0.483288,-0.3005883,1.245787,0.1057029,-0.01126723,0.8267894,0.1122888999999999,1.233001,31.01984,34.21
4,0.06300354,-0.05511475,0.9964752,1.0,0.06297302,-0.05513,0.9964752,-27.6096,3.497421,-32.28197,2.908737,0.3630036,0.5120226,1.0,0.09307861,-0.04238892,0.994751,35.33401,3.781967,-31.91096,3.037384,0.3959342,0.483288,-0.3005883,1.245787,0.1057029,-0.01126723,0.8267894,0.1122888999999999,1.233001,31.01984,34.21
4,0.03866577,-0.05966187,0.997467,1.0,0.03781128,-0.05978394,0.9974823,-27.73151,3.487106,-32.185590000000005,3.023911,0.3706634,0.5121937,1.0,0.0838623,-0.05302429,0.9950562,35.18176,3.688522,-31.3591,3.144516,0.4027699999999999,0.4832185,-0.3004545999999999,1.24561,0.1067019999999999,-0.0090109059999999,0.8267257,0.113782,1.233001,31.01984,34.21
4,0.03866577,-0.05966187,0.997467,1.0,0.03781128,-0.05978394,0.9974823,-27.73151,3.487106,-32.185590000000005,3.023911,0.3706634,0.5121937,1.0,0.0838623,-0.05302429,0.9950562,35.18176,3.688522,-31.3591,3.144516,0.4027699999999999,0.4832185,-0.3004545999999999,1.24561,0.1067019999999999,-0.0090109059999999,0.8267257,0.113782,1.233001,31.01984,34.21
4,0.03866577,-0.05966187,0.997467,1.0,0.03781128,-0.05978394,0.9974823,-27.73151,3.487106,-32.185590000000005,3.023911,0.3706634,0.5121937,1.0,0.0838623,-0.05302429,0.9950562,35.18176,3.688522,-31.3591,3.144516,0.4027699999999999,0.4832185,-0.3004545999999999,1.24561,0.1067019999999999,-0.0090109059999999,0.8267257,0.113782,1.233001,31.01984,34.21
4,0.04125977,-0.0627594,0.9971619,1.0,0.03790283,-0.06384277,0.9972382,-27.74878,3.480438,-32.185590000000005,3.023102,0.3712527,0.5129532,1.0,0.0771636999999999,-0.05091858,0.9957123,35.16988,3.666473,-31.25458,3.150284,0.4040986,0.4828275999999999,-0.3004623,1.245468,0.1074178,-0.006229773,0.8270771,0.1143984,1.233001,31.01984,34.21
4,0.04125977,-0.0627594,0.9971619,1.0,0.03790283,-0.06384277,0.9972382,-27.74878,3.480438,-32.185590000000005,3.023102,0.3712527,0.5129532,1.0,0.0771636999999999,-0.05091858,0.9957123,35.16988,3.666473,-31.25458,3.150284,0.4040986,0.4828275999999999,-0.3004623,1.245468,0.1074178,-0.006229773,0.8270771,0.1143984,1.233001,31.01984,34.21
4,0.04125977,-0.0627594,0.9971619,1.0,0.03790283,-0.06384277,0.9972382,-27.74878,3.480438,-32.185590000000005,3.023102,0.3712527,0.5129532,1.0,0.0771636999999999,-0.05091858,0.9957123,35.16988,3.666473,-31.25458,3.150284,0.4040986,0.4828275999999999,-0.3004623,1.245468,0.1074178,-0.006229773,0.8270771,0.1143984,1.233001,31.01984,34.21
4,0.04943848,-0.06048584,0.996933,1.0,0.03337097,-0.06239319,0.9974823,-27.76047,3.484482,-32.21172,3.038757,0.3722319,0.5128825,1.0,0.07675171,-0.0572052,0.9953918,35.163709999999995,3.680573,-31.24687,3.167847,0.4043477,0.4830666,-0.3007752,1.244988,0.1082898,0.0002729575,0.8279813,0.1124614,1.233001,31.01984,34.21
4,0.04943848,-0.06048584,0.996933,1.0,0.03337097,-0.06239319,0.9974823,-27.76047,3.484482,-32.21172,3.038757,0.3722319,0.5128825,1.0,0.07675171,-0.0572052,0.9953918,35.163709999999995,3.680573,-31.24687,3.167847,0.4043477,0.4830666,-0.3007752,1.244988,0.1082898,0.0002729575,0.8279813,0.1124614,1.233001,31.01984,34.21
4,0.04943848,-0.06048584,0.996933,1.0,0.03337097,-0.06239319,0.9974823,-27.76047,3.484482,-32.21172,3.038757,0.3722319,0.5128825,1.0,0.07675171,-0.0572052,0.9953918,35.163709999999995,3.680573,-31.24687,3.167847,0.4043477,0.4830666,-0.3007752,1.244988,0.1082898,0.0002729575,0.8279813,0.1124614,1.233001,31.01984,34.21
4,0.05342102,-0.05609131,0.996994,1.0,0.03111267,-0.06309509,0.9975128,-27.767640000000004,3.4811400000000003,-32.21671,3.027908,0.3727552,0.5131198,1.0,0.07351685,-0.04975891,0.996048,35.16353,3.650513,-31.23126,3.181931,0.4047525,0.4830666,-0.3012198,1.244913,0.1086135,0.002354407,0.8281966999999999,0.1112293999999999,1.233001,37.80716,34.21
4,0.05342102,-0.05609131,0.996994,1.0,0.03111267,-0.06309509,0.9975128,-27.767640000000004,3.4811400000000003,-32.21671,3.027908,0.3727552,0.5131198,1.0,0.07351685,-0.04975891,0.996048,35.16353,3.650513,-31.23126,3.181931,0.4047525,0.4830666,-0.3012198,1.244913,0.1086135,0.002354407,0.8281966999999999,0.1112293999999999,1.233001,37.80716,34.21
4,0.05342102,-0.05609131,0.996994,1.0,0.03111267,-0.06309509,0.9975128,-27.767640000000004,3.4811400000000003,-32.21671,3.027908,0.3727552,0.5131198,1.0,0.07351685,-0.04975891,0.996048,35.16353,3.650513,-31.23126,3.181931,0.4047525,0.4830666,-0.3012198,1.244913,0.1086135,0.002354407,0.8281966999999999,0.1112293999999999,1.233001,37.80716,34.21
4,0.05342102,-0.05609131,0.996994,1.0,0.03111267,-0.06309509,0.9975128,-27.767640000000004,3.4811400000000003,-32.21671,3.027908,0.3727552,0.5131198,1.0,0.07351685,-0.04975891,0.996048,35.16353,3.650513,-31.23126,3.181931,0.4047525,0.4830666,-0.3012198,1.244913,0.1086135,0.002354407,0.8281966999999999,0.1112293999999999,1.233001,37.80716,34.21
4,0.05342102,-0.05609131,0.996994,1.0,0.03111267,-0.06309509,0.9975128,-27.767640000000004,3.4811400000000003,-32.21671,3.027908,0.3727552,0.5131198,1.0,0.07351685,-0.04975891,0.996048,35.16353,3.650513,-31.23126,3.181931,0.4047525,0.4830666,-0.3012198,1.244913,0.1086135,0.002354407,0.8281966999999999,0.1112293999999999,1.233001,37.80716,34.21
4,0.05342102,-0.05609131,0.996994,1.0,0.03111267,-0.06309509,0.9975128,-27.767640000000004,3.4811400000000003,-32.21671,3.027908,0.3727552,0.5131198,1.0,0.07351685,-0.04975891,0.996048,35.16353,3.650513,-31.23126,3.181931,0.4047525,0.4830666,-0.3012198,1.244913,0.1086135,0.002354407,0.8281966999999999,0.1112293999999999,1.233001,37.80716,34.21
4,-0.0934906,-0.08889771,0.9916382,1.0,-0.1039581,-0.09024048,0.9904633,-28.54774,3.49234,-32.47337,3.17308,0.4171072,0.5190217,1.0,-0.04321289,-0.08232117,0.9956665,34.29599,3.752899,-31.57062,3.243118,0.4486430999999999,0.4872114,-0.3017293,1.24503,0.1087394,0.003335224,0.8278658999999999,0.1110507,1.233001,37.80716,34.21
