Second,eye_comb_direction_x,eye_comb_direction_y,eye_comb_direction_z,eye_r_openness,eye_r_direction_x,eye_r_direction_y,eye_r_direction_z,eye_r_origin_x,eye_r_origin_y,eye_r_origin_z,eye_r_pupil_diameter,eye_r_pupil_position_x,eye_r_pupil_position_y,eye_l_openness,eye_l_direction_x,eye_l_direction_y,eye_l_direction_z,eye_l_origin_x,eye_l_origin_y,eye_l_origin_z,eye_l_pupil_diameter,eye_l_pupil_position_x,eye_l_pupil_position_y,head_position_x,head_position_y,head_position_z,head_rotation_roll,head_rotation_pitch,head_rotation_yaw,EDA,BVP,TMP
0,0.1774902,-0.2341461,0.9558563,1.0,0.1155853,-0.2342224,0.965271,-35.38924,3.554764,-29.52763,5.327469000000001,0.6025193,0.5136712,1.0,0.2423248,-0.233078,0.9417725,31.47308,5.313278,-28.100590000000004,5.463333,0.5018100000000001,0.4394041,-0.3986591,1.197439,-0.06049497,0.02467029,0.7985376999999999,0.03444287,0.6665078,1.9474819366044143,32.238641765704585
0,0.1774902,-0.2341461,0.9558563,1.0,0.1155853,-0.2342224,0.965271,-35.38924,3.554764,-29.52763,5.327469000000001,0.6025193,0.5136712,1.0,0.2423248,-0.233078,0.9417725,31.47308,5.313278,-28.100590000000004,5.463333,0.5018100000000001,0.4394041,-0.3986591,1.197439,-0.06049497,0.02467029,0.7985376999999999,0.03444287,0.6665078,1.9474819366044143,32.238641765704585
0,0.1774902,-0.2341461,0.9558563,1.0,0.1155853,-0.2342224,0.965271,-35.38924,3.554764,-29.52763,5.327469000000001,0.6025193,0.5136712,1.0,0.2423248,-0.233078,0.9417725,31.47308,5.313278,-28.100590000000004,5.463333,0.5018100000000001,0.4394041,-0.3986591,1.197439,-0.06049497,0.02467029,0.7985376999999999,0.03444287,0.6665078,1.9474819366044143,32.238641765704585
0,0.1774902,-0.2341461,0.9558563,1.0,0.1155853,-0.2342224,0.965271,-35.38924,3.554764,-29.52763,5.327469000000001,0.6025193,0.5136712,1.0,0.2423248,-0.233078,0.9417725,31.47308,5.313278,-28.100590000000004,5.463333,0.5018100000000001,0.4394041,-0.3986591,1.197439,-0.06049497,0.02467029,0.7985376999999999,0.03444287,0.6665078,1.9474819366044143,32.238641765704585
0,0.1879882999999999,-0.2317199999999999,0.9544373,1.0,0.1202849999999999,-0.2291717999999999,0.9659119,-35.37546,3.5628660000000005,-29.52866,5.219223,0.6011946,0.5125337999999999,1.0,0.2514496,-0.2331085,0.9393616,31.493990000000004,5.313568,-28.10236,5.395096,0.4995213,0.4395075,-0.3985105,1.197066,-0.05996428,0.02520109,0.8000416,0.03358232,0.6665078,1.9474819366044143,32.238641765704585
0,0.1879882999999999,-0.2317199999999999,0.9544373,1.0,0.1202849999999999,-0.2291717999999999,0.9659119,-35.37546,3.5628660000000005,-29.52866,5.219223,0.6011946,0.5125337999999999,1.0,0.2514496,-0.2331085,0.9393616,31.493990000000004,5.313568,-28.10236,5.395096,0.4995213,0.4395075,-0.3985105,1.197066,-0.05996428,0.02520109,0.8000416,0.03358232,0.6665078,1.9474819366044143,32.238641765704585
0,0.1879882999999999,-0.2317199999999999,0.9544373,1.0,0.1202849999999999,-0.2291717999999999,0.9659119,-35.37546,3.5628660000000005,-29.52866,5.219223,0.6011946,0.5125337999999999,1.0,0.2514496,-0.2331085,0.9393616,31.493990000000004,5.313568,-28.10236,5.395096,0.4995213,0.4395075,-0.3985105,1.197066,-0.05996428,0.02520109,0.8000416,0.03358232,0.6665078,1.9474819366044143,32.238641765704585
0,0.1916809,-0.2324066,0.953537,1.0,0.1235503999999999,-0.2316589,0.9649048,-35.367540000000005,3.570267,-29.52898,5.179337,0.6003593,0.512731,1.0,0.2565002,-0.2320862,0.9382477,31.51744,5.313278,-28.10361,5.2726440000000006,0.4977859999999999,0.4394041,-0.3983994999999999,1.196972,-0.05963212,0.02546885,0.8005908,0.03314855,0.6665078,1.9474819366044143,32.238641765704585
0,0.1916809,-0.2324066,0.953537,1.0,0.1235503999999999,-0.2316589,0.9649048,-35.367540000000005,3.570267,-29.52898,5.179337,0.6003593,0.512731,1.0,0.2565002,-0.2320862,0.9382477,31.51744,5.313278,-28.10361,5.2726440000000006,0.4977859999999999,0.4394041,-0.3983994999999999,1.196972,-0.05963212,0.02546885,0.8005908,0.03314855,0.6665078,1.9474819366044143,32.238641765704585
0,0.1916809,-0.2324066,0.953537,1.0,0.1235503999999999,-0.2316589,0.9649048,-35.367540000000005,3.570267,-29.52898,5.179337,0.6003593,0.512731,1.0,0.2565002,-0.2320862,0.9382477,31.51744,5.313278,-28.10361,5.2726440000000006,0.4977859999999999,0.4394041,-0.3983994999999999,1.196972,-0.05963212,0.02546885,0.8005908,0.03314855,0.6665078,1.9474819366044143,32.238641765704585
0,0.2330017,-0.227478,0.9454803,1.0,0.1717682,-0.2310791,0.9576416,-35.1261,3.594543,-29.58351,5.032822,0.5840350000000001,0.512605,1.0,0.3079529,-0.2217712,0.9251862,31.77573,5.336121,-28.21338,5.074493,0.4801001,0.4383027,-0.3981972,1.196798,-0.05904588,0.02631698,0.8012719,0.03259106,0.6665078,1.9474819366044143,32.238641765704585
0,0.2330017,-0.227478,0.9454803,1.0,0.1717682,-0.2310791,0.9576416,-35.1261,3.594543,-29.58351,5.032822,0.5840350000000001,0.512605,1.0,0.3079529,-0.2217712,0.9251862,31.77573,5.336121,-28.21338,5.074493,0.4801001,0.4383027,-0.3981972,1.196798,-0.05904588,0.02631698,0.8012719,0.03259106,0.6665078,1.9474819366044143,32.238641765704585
0,0.2330017,-0.227478,0.9454803,1.0,0.1717682,-0.2310791,0.9576416,-35.1261,3.594543,-29.58351,5.032822,0.5840350000000001,0.512605,1.0,0.3079529,-0.2217712,0.9251862,31.77573,5.336121,-28.21338,5.074493,0.4801001,0.4383027,-0.3981972,1.196798,-0.05904588,0.02631698,0.8012719,0.03259106,0.6665078,1.9474819366044143,32.238641765704585
0,0.2785339,-0.2192078,0.9350586,1.0,0.2325745,-0.2179718,0.9478302,-34.8242,3.650879,-29.65891,4.949463,0.5635539,0.5095793,1.0,0.3513794,-0.2201538,0.9099731,32.016459999999995,5.366882,-28.28708,4.976364,0.4643403,0.4381680999999999,-0.3981438,1.196621,-0.05895454,0.02676613,0.8015177,0.03228881,0.6665078,1.9474819366044143,32.238641765704585
0,0.2785339,-0.2192078,0.9350586,1.0,0.2325745,-0.2179718,0.9478302,-34.8242,3.650879,-29.65891,4.949463,0.5635539,0.5095793,1.0,0.3513794,-0.2201538,0.9099731,32.016459999999995,5.366882,-28.28708,4.976364,0.4643403,0.4381680999999999,-0.3981438,1.196621,-0.05895454,0.02676613,0.8015177,0.03228881,0.6665078,1.9474819366044143,32.238641765704585
0,0.2785339,-0.2192078,0.9350586,1.0,0.2325745,-0.2179718,0.9478302,-34.8242,3.650879,-29.65891,4.949463,0.5635539,0.5095793,1.0,0.3513794,-0.2201538,0.9099731,32.016459999999995,5.366882,-28.28708,4.976364,0.4643403,0.4381680999999999,-0.3981438,1.196621,-0.05895454,0.02676613,0.8015177,0.03228881,0.6665078,1.9474819366044143,32.238641765704585
0,0.2969208,-0.2152099999999999,0.9303284,1.0,0.2291107,-0.2167206,0.9489594,-34.836009999999995,3.655212,-29.65732,4.872864,0.564472,0.5091531,1.0,0.3460388,-0.2133942,0.91362,32.01973,5.378036,-28.27895,4.96759,0.4651332999999999,0.436422,-0.3978428,1.196519,-0.05826213,0.02750553,0.8018164000000001,0.03219939,0.6665078,1.9474819366044143,32.238641765704585
0,0.2969208,-0.2152099999999999,0.9303284,1.0,0.2291107,-0.2167206,0.9489594,-34.836009999999995,3.655212,-29.65732,4.872864,0.564472,0.5091531,1.0,0.3460388,-0.2133942,0.91362,32.01973,5.378036,-28.27895,4.96759,0.4651332999999999,0.436422,-0.3978428,1.196519,-0.05826213,0.02750553,0.8018164000000001,0.03219939,0.6665078,1.9474819366044143,32.238641765704585
0,0.2969208,-0.2152099999999999,0.9303284,1.0,0.2291107,-0.2167206,0.9489594,-34.836009999999995,3.655212,-29.65732,4.872864,0.564472,0.5091531,1.0,0.3460388,-0.2133942,0.91362,32.01973,5.378036,-28.27895,4.96759,0.4651332999999999,0.436422,-0.3978428,1.196519,-0.05826213,0.02750553,0.8018164000000001,0.03219939,0.6665078,1.9474819366044143,32.238641765704585
0,0.2882843,-0.2151337,0.9330597,1.0,0.2281647,-0.2168273999999999,0.9491577,-34.83447,3.663574,-29.65752,4.855713,0.5645645,0.508871,1.0,0.348999,-0.2125092,0.9127045,32.02313,5.387436,-28.27852,4.932251,0.4644795999999999,0.4359818,-0.3978837999999999,1.196476,-0.05764834,0.02802212,0.8017335999999999,0.03248023,0.6665078,1.9474819366044143,32.238641765704585
0,0.2882843,-0.2151337,0.9330597,1.0,0.2281647,-0.2168273999999999,0.9491577,-34.83447,3.663574,-29.65752,4.855713,0.5645645,0.508871,1.0,0.348999,-0.2125092,0.9127045,32.02313,5.387436,-28.27852,4.932251,0.4644795999999999,0.4359818,-0.3978837999999999,1.196476,-0.05764834,0.02802212,0.8017335999999999,0.03248023,0.6665078,1.9474819366044143,32.238641765704585
0,0.2882843,-0.2151337,0.9330597,1.0,0.2281647,-0.2168273999999999,0.9491577,-34.83447,3.663574,-29.65752,4.855713,0.5645645,0.508871,1.0,0.348999,-0.2125092,0.9127045,32.02313,5.387436,-28.27852,4.932251,0.4644795999999999,0.4359818,-0.3978837999999999,1.196476,-0.05764834,0.02802212,0.8017335999999999,0.03248023,0.6665078,1.9474819366044143,32.238641765704585
0,0.2889862,-0.2149657999999999,0.9328766,1.0,0.2281952,-0.2159882,0.9493408,-34.837270000000004,3.669571,-29.65765,4.853485,0.5646526,0.5085251000000001,1.0,0.3500214,-0.213028,0.9121857,32.02348,5.393585,-28.27876,4.919312000000001,0.464281,0.435892,-0.397796,1.196565,-0.05714978,0.02853079,0.8013063,0.03277014,0.6665078,1.9474819366044143,32.238641765704585
0,0.2889862,-0.2149657999999999,0.9328766,1.0,0.2281952,-0.2159882,0.9493408,-34.837270000000004,3.669571,-29.65765,4.853485,0.5646526,0.5085251000000001,1.0,0.3500214,-0.213028,0.9121857,32.02348,5.393585,-28.27876,4.919312000000001,0.464281,0.435892,-0.397796,1.196565,-0.05714978,0.02853079,0.8013063,0.03277014,0.6665078,1.9474819366044143,32.238641765704585
0,0.2889862,-0.2149657999999999,0.9328766,1.0,0.2281952,-0.2159882,0.9493408,-34.837270000000004,3.669571,-29.65765,4.853485,0.5646526,0.5085251000000001,1.0,0.3500214,-0.213028,0.9121857,32.02348,5.393585,-28.27876,4.919312000000001,0.464281,0.435892,-0.397796,1.196565,-0.05714978,0.02853079,0.8013063,0.03277014,0.6665078,1.9474819366044143,32.238641765704585
1,0.2904357999999999,-0.2153777999999999,0.9323273,1.0,0.231369,-0.2156525,0.9486542,-34.87682,3.694183,-29.66286,4.660492,0.5653229000000001,0.5076897,1.0,0.3495178,-0.2142792,0.9120789,32.02492,5.399597,-28.27849,4.879074,0.464286,0.435892,-0.3978691,1.19659,-0.05651196,0.02858544,0.8009095,0.03297288,0.6665078,1.9474819366044143,32.238641765704585
1,0.2904357999999999,-0.2153777999999999,0.9323273,1.0,0.231369,-0.2156525,0.9486542,-34.87682,3.694183,-29.66286,4.660492,0.5653229000000001,0.5076897,1.0,0.3495178,-0.2142792,0.9120789,32.02492,5.399597,-28.27849,4.879074,0.464286,0.435892,-0.3978691,1.19659,-0.05651196,0.02858544,0.8009095,0.03297288,0.6665078,1.9474819366044143,32.238641765704585
1,0.2904357999999999,-0.2153777999999999,0.9323273,1.0,0.231369,-0.2156525,0.9486542,-34.87682,3.694183,-29.66286,4.660492,0.5653229000000001,0.5076897,1.0,0.3495178,-0.2142792,0.9120789,32.02492,5.399597,-28.27849,4.879074,0.464286,0.435892,-0.3978691,1.19659,-0.05651196,0.02858544,0.8009095,0.03297288,0.6665078,1.9474819366044143,32.238641765704585
1,0.2868042,-0.2159424,0.9333190999999998,0.8894263000000001,0.2252655,-0.2154998999999999,0.9501495,-34.8927,3.70726,-29.65401,4.699387000000001,0.5669121,0.5070878,0.9869056,0.3519135,-0.2154387999999999,0.9108887,31.956090000000003,5.477126999999999,-28.2494,4.753326,0.4661510999999999,0.4332629,-0.3979845999999999,1.196535,-0.05576488,0.02854175,0.8003674,0.03285189,0.6665078,1.9474819366044143,32.238641765704585
1,0.2868042,-0.2159424,0.9333190999999998,0.8894263000000001,0.2252655,-0.2154998999999999,0.9501495,-34.8927,3.70726,-29.65401,4.699387000000001,0.5669121,0.5070878,0.9869056,0.3519135,-0.2154387999999999,0.9108887,31.956090000000003,5.477126999999999,-28.2494,4.753326,0.4661510999999999,0.4332629,-0.3979845999999999,1.196535,-0.05576488,0.02854175,0.8003674,0.03285189,0.6665078,1.9474819366044143,32.238641765704585
1,0.2868042,-0.2159424,0.9333190999999998,0.8894263000000001,0.2252655,-0.2154998999999999,0.9501495,-34.8927,3.70726,-29.65401,4.699387000000001,0.5669121,0.5070878,0.9869056,0.3519135,-0.2154387999999999,0.9108887,31.956090000000003,5.477126999999999,-28.2494,4.753326,0.4661510999999999,0.4332629,-0.3979845999999999,1.196535,-0.05576488,0.02854175,0.8003674,0.03285189,0.6665078,1.9474819366044143,32.238641765704585
1,0.2718353,-0.2082367,0.9395294,0.8568234,0.219162,-0.2060547,0.9536743,-34.9339,3.708466000000001,-29.655990000000003,4.6423190000000005,0.5692801,0.5053201,0.9719105,0.3302765,-0.2099457,0.9202271,31.9864,5.461914,-28.24757,4.733855999999999,0.4687993,0.4324601999999999,-0.3979845999999999,1.196535,-0.05576488,0.02854175,0.8003674,0.03285189,0.6665078,1.9474819366044143,32.238641765704585
1,0.2718353,-0.2082367,0.9395294,0.8568234,0.219162,-0.2060547,0.9536743,-34.9339,3.708466000000001,-29.655990000000003,4.6423190000000005,0.5692801,0.5053201,0.9719105,0.3302765,-0.2099457,0.9202271,31.9864,5.461914,-28.24757,4.733855999999999,0.4687993,0.4324601999999999,-0.3979845999999999,1.196535,-0.05576488,0.02854175,0.8003674,0.03285189,0.6665078,1.9474819366044143,32.238641765704585
1,0.2718353,-0.2082367,0.9395294,0.8568234,0.219162,-0.2060547,0.9536743,-34.9339,3.708466000000001,-29.655990000000003,4.6423190000000005,0.5692801,0.5053201,0.9719105,0.3302765,-0.2099457,0.9202271,31.9864,5.461914,-28.24757,4.733855999999999,0.4687993,0.4324601999999999,-0.3979845999999999,1.196535,-0.05576488,0.02854175,0.8003674,0.03285189,0.6665078,1.9474819366044143,32.238641765704585
1,0.2723389,-0.2093047999999999,0.9391479,0.8624108,0.2173157,-0.2091064,0.9534302,-34.951229999999995,3.704971,-29.66298,4.619385,0.5701765999999999,0.5060266,0.989278,0.3285369999999999,-0.2088013,0.9211121,31.97575,5.460358,-28.24953,4.721725,0.4694510999999999,0.4322984,-0.398086,1.196535,-0.05529388,0.02829188,0.800017,0.03264828,0.6665078,1.9474819366044143,32.238641765704585
1,0.2723389,-0.2093047999999999,0.9391479,0.8624108,0.2173157,-0.2091064,0.9534302,-34.951229999999995,3.704971,-29.66298,4.619385,0.5701765999999999,0.5060266,0.989278,0.3285369999999999,-0.2088013,0.9211121,31.97575,5.460358,-28.24953,4.721725,0.4694510999999999,0.4322984,-0.398086,1.196535,-0.05529388,0.02829188,0.800017,0.03264828,0.6665078,1.9474819366044143,32.238641765704585
1,0.2723389,-0.2093047999999999,0.9391479,0.8624108,0.2173157,-0.2091064,0.9534302,-34.951229999999995,3.704971,-29.66298,4.619385,0.5701765999999999,0.5060266,0.989278,0.3285369999999999,-0.2088013,0.9211121,31.97575,5.460358,-28.24953,4.721725,0.4694510999999999,0.4322984,-0.398086,1.196535,-0.05529388,0.02829188,0.800017,0.03264828,0.6665078,1.9474819366044143,32.238641765704585
1,0.08578491,-0.1225433,0.988739,0.8081100999999999,0.03874207,-0.1187897,0.992157,-35.70807,4.239273000000001,-30.03722,4.59935,0.6264156,0.4744608,0.9553981,0.1625824,-0.1280975,0.9783325,31.09024,5.822723000000001,-27.948490000000003,4.4561,0.5276906,0.4016967,-0.3982992,1.196591,-0.05521343,0.02798554,0.7991303000000001,0.03373186,0.6665078,1.9474819366044143,32.238641765704585
1,0.08578491,-0.1225433,0.988739,0.8081100999999999,0.03874207,-0.1187897,0.992157,-35.70807,4.239273000000001,-30.03722,4.59935,0.6264156,0.4744608,0.9553981,0.1625824,-0.1280975,0.9783325,31.09024,5.822723000000001,-27.948490000000003,4.4561,0.5276906,0.4016967,-0.3982992,1.196591,-0.05521343,0.02798554,0.7991303000000001,0.03373186,0.6665078,1.9474819366044143,32.238641765704585
1,0.08578491,-0.1225433,0.988739,0.8081100999999999,0.03874207,-0.1187897,0.992157,-35.70807,4.239273000000001,-30.03722,4.59935,0.6264156,0.4744608,0.9553981,0.1625824,-0.1280975,0.9783325,31.09024,5.822723000000001,-27.948490000000003,4.4561,0.5276906,0.4016967,-0.3982992,1.196591,-0.05521343,0.02798554,0.7991303000000001,0.03373186,0.6665078,1.9474819366044143,32.238641765704585
1,0.08201599,-0.09916687,0.991684,0.7285936,-0.004821777,-0.08865356,0.996048,-36.09178,4.050629,-29.1347,4.612137000000001,0.6458210999999999,0.4674884,0.9761986,0.09004211,-0.1000977,0.9908905,30.83125,5.986832,-28.39217,4.545380000000001,0.5490716,0.394667,-0.398546,1.196964,-0.05447961,0.02715029,0.7985814,0.03461926,0.6665078,-2.030823,32.238641765704585
1,0.08201599,-0.09916687,0.991684,0.7285936,-0.004821777,-0.08865356,0.996048,-36.09178,4.050629,-29.1347,4.612137000000001,0.6458210999999999,0.4674884,0.9761986,0.09004211,-0.1000977,0.9908905,30.83125,5.986832,-28.39217,4.545380000000001,0.5490716,0.394667,-0.398546,1.196964,-0.05447961,0.02715029,0.7985814,0.03461926,0.6665078,-2.030823,32.238641765704585
1,0.08201599,-0.09916687,0.991684,0.7285936,-0.004821777,-0.08865356,0.996048,-36.09178,4.050629,-29.1347,4.612137000000001,0.6458210999999999,0.4674884,0.9761986,0.09004211,-0.1000977,0.9908905,30.83125,5.986832,-28.39217,4.545380000000001,0.5490716,0.394667,-0.398546,1.196964,-0.05447961,0.02715029,0.7985814,0.03461926,0.6665078,-2.030823,32.238641765704585
1,0.08068848,-0.1061706999999999,0.9910583,1.0,-0.01419067,-0.08662415,0.9961243,-36.13657,4.092529,-29.33533,4.532684,0.6492041000000001,0.4674613,1.0,0.08480835,-0.1070098999999999,0.9906311,30.81845,6.004257,-28.48238,4.463837,0.5504178000000001,0.3959958,-0.3990728,1.197094,-0.05385999,0.02639529,0.798212,0.03483872,0.6665078,-2.030823,32.238641765704585
1,0.08068848,-0.1061706999999999,0.9910583,1.0,-0.01419067,-0.08662415,0.9961243,-36.13657,4.092529,-29.33533,4.532684,0.6492041000000001,0.4674613,1.0,0.08480835,-0.1070098999999999,0.9906311,30.81845,6.004257,-28.48238,4.463837,0.5504178000000001,0.3959958,-0.3990728,1.197094,-0.05385999,0.02639529,0.798212,0.03483872,0.6665078,-2.030823,32.238641765704585
1,0.08068848,-0.1061706999999999,0.9910583,1.0,-0.01419067,-0.08662415,0.9961243,-36.13657,4.092529,-29.33533,4.532684,0.6492041000000001,0.4674613,1.0,0.08480835,-0.1070098999999999,0.9906311,30.81845,6.004257,-28.48238,4.463837,0.5504178000000001,0.3959958,-0.3990728,1.197094,-0.05385999,0.02639529,0.798212,0.03483872,0.6665078,-2.030823,32.238641765704585
1,0.07910156,-0.1055145,0.9912567,1.0,-0.009475708,-0.08175659,0.9965973,-36.16577,4.154968,-29.55725,4.455582,0.6496987,0.4664489,1.0,0.08345032,-0.1066589,0.9907837,30.81564,6.022141,-28.56433,4.448303,0.5507886,0.3959958,-0.3995737,1.197119,-0.05366211,0.02626186,0.7978324,0.03495903,0.6665078,-2.030823,32.238641765704585
1,0.07910156,-0.1055145,0.9912567,1.0,-0.009475708,-0.08175659,0.9965973,-36.16577,4.154968,-29.55725,4.455582,0.6496987,0.4664489,1.0,0.08345032,-0.1066589,0.9907837,30.81564,6.022141,-28.56433,4.448303,0.5507886,0.3959958,-0.3995737,1.197119,-0.05366211,0.02626186,0.7978324,0.03495903,0.6665078,-2.030823,32.238641765704585
1,0.07910156,-0.1055145,0.9912567,1.0,-0.009475708,-0.08175659,0.9965973,-36.16577,4.154968,-29.55725,4.455582,0.6496987,0.4664489,1.0,0.08345032,-0.1066589,0.9907837,30.81564,6.022141,-28.56433,4.448303,0.5507886,0.3959958,-0.3995737,1.197119,-0.05366211,0.02626186,0.7978324,0.03495903,0.6665078,-2.030823,32.238641765704585
1,0.07460022,-0.1023559999999999,0.9919434,1.0,-0.01094055,-0.09104919,0.9957733,-36.20619,4.153671,-29.56721,4.384659,0.6513478,0.4681457,1.0,0.08044434,-0.1030884,0.9914093,30.82271,6.03952,-28.696240000000003,4.427292,0.5511292,0.3958813,-0.4000232999999999,1.197393,-0.05340471,0.02594619,0.7975526999999999,0.03485487,0.6665078,-2.030823,32.238641765704585
1,0.07460022,-0.1023559999999999,0.9919434,1.0,-0.01094055,-0.09104919,0.9957733,-36.20619,4.153671,-29.56721,4.384659,0.6513478,0.4681457,1.0,0.08044434,-0.1030884,0.9914093,30.82271,6.03952,-28.696240000000003,4.427292,0.5511292,0.3958813,-0.4000232999999999,1.197393,-0.05340471,0.02594619,0.7975526999999999,0.03485487,0.6665078,-2.030823,32.238641765704585
1,0.07460022,-0.1023559999999999,0.9919434,1.0,-0.01094055,-0.09104919,0.9957733,-36.20619,4.153671,-29.56721,4.384659,0.6513478,0.4681457,1.0,0.08044434,-0.1030884,0.9914093,30.82271,6.03952,-28.696240000000003,4.427292,0.5511292,0.3958813,-0.4000232999999999,1.197393,-0.05340471,0.02594619,0.7975526999999999,0.03485487,0.6665078,-2.030823,32.238641765704585
1,-0.004730225,-0.09817505,0.9951477,1.0,-0.02003479,-0.09733582,0.9950409,-36.23053,4.101395,-29.35281,4.373718,0.6534111,0.4690978,1.0,0.07713318,-0.1022338999999999,0.9917603000000002,30.83939,6.116196,-29.03201,4.400986,0.5513186,0.3958983,-0.400341,1.197443,-0.05319751,0.02576407,0.7972615,0.03530176,0.6665078,-2.030823,32.238641765704585
1,-0.004730225,-0.09817505,0.9951477,1.0,-0.02003479,-0.09733582,0.9950409,-36.23053,4.101395,-29.35281,4.373718,0.6534111,0.4690978,1.0,0.07713318,-0.1022338999999999,0.9917603000000002,30.83939,6.116196,-29.03201,4.400986,0.5513186,0.3958983,-0.400341,1.197443,-0.05319751,0.02576407,0.7972615,0.03530176,0.6665078,-2.030823,32.238641765704585
1,-0.004730225,-0.09817505,0.9951477,1.0,-0.02003479,-0.09733582,0.9950409,-36.23053,4.101395,-29.35281,4.373718,0.6534111,0.4690978,1.0,0.07713318,-0.1022338999999999,0.9917603000000002,30.83939,6.116196,-29.03201,4.400986,0.5513186,0.3958983,-0.400341,1.197443,-0.05319751,0.02576407,0.7972615,0.03530176,0.6665078,-2.030823,32.238641765704585
1,-0.01531982,-0.1013488999999999,0.9947205,1.0,-0.0226593,-0.1013794,0.9945831,-36.23212,4.096588,-29.34941,4.321045,0.6538789,0.4699204,1.0,0.0745697,-0.100647,0.9921112,30.85112,6.151123,-29.2115,4.38121,0.5514539,0.3959154,-0.4006922,1.197742,-0.05323227,0.0252630999999999,0.7968149999999999,0.0363789,0.6665078,0.1562195,32.238641765704585
1,-0.01531982,-0.1013488999999999,0.9947205,1.0,-0.0226593,-0.1013794,0.9945831,-36.23212,4.096588,-29.34941,4.321045,0.6538789,0.4699204,1.0,0.0745697,-0.100647,0.9921112,30.85112,6.151123,-29.2115,4.38121,0.5514539,0.3959154,-0.4006922,1.197742,-0.05323227,0.0252630999999999,0.7968149999999999,0.0363789,0.6665078,0.1562195,32.238641765704585
1,-0.01531982,-0.1013488999999999,0.9947205,1.0,-0.0226593,-0.1013794,0.9945831,-36.23212,4.096588,-29.34941,4.321045,0.6538789,0.4699204,1.0,0.0745697,-0.100647,0.9921112,30.85112,6.151123,-29.2115,4.38121,0.5514539,0.3959154,-0.4006922,1.197742,-0.05323227,0.0252630999999999,0.7968149999999999,0.0363789,0.6665078,0.1562195,32.238641765704585
1,-0.01739502,-0.1170349,0.9929657,1.0,-0.02928162,-0.1190948,0.9924469,-36.26038,4.053329,-29.22456,4.219009,0.6557470999999999,0.4733274,1.0,0.0708313,-0.1012726,0.9923248,30.86861,6.196442,-29.46338,4.334671,0.5516263000000001,0.3965759,-0.4012688,1.198025,-0.05280498,0.0246652999999999,0.7963347,0.03756207,0.6665078,0.1562195,32.238641765704585
1,-0.01739502,-0.1170349,0.9929657,1.0,-0.02928162,-0.1190948,0.9924469,-36.26038,4.053329,-29.22456,4.219009,0.6557470999999999,0.4733274,1.0,0.0708313,-0.1012726,0.9923248,30.86861,6.196442,-29.46338,4.334671,0.5516263000000001,0.3965759,-0.4012688,1.198025,-0.05280498,0.0246652999999999,0.7963347,0.03756207,0.6665078,0.1562195,32.238641765704585
1,-0.01739502,-0.1170349,0.9929657,1.0,-0.02928162,-0.1190948,0.9924469,-36.26038,4.053329,-29.22456,4.219009,0.6557470999999999,0.4733274,1.0,0.0708313,-0.1012726,0.9923248,30.86861,6.196442,-29.46338,4.334671,0.5516263000000001,0.3965759,-0.4012688,1.198025,-0.05280498,0.0246652999999999,0.7963347,0.03756207,0.6665078,0.1562195,32.238641765704585
1,-0.0027618409999999,-0.1156769,0.9932709,1.0,-0.02755737,-0.1195068,0.9924469,-36.26907,4.04245,-29.21913,4.2191160000000005,0.6557470999999999,0.4737217000000001,1.0,0.07043457,-0.1039124,0.9920807,30.86861,6.196442,-29.46338,4.289566000000001,0.5516794,0.3970309,-0.4017476,1.198508,-0.05241798,0.0236344,0.7958712,0.03939185,0.6665078,0.1562195,32.238641765704585
1,-0.0027618409999999,-0.1156769,0.9932709,1.0,-0.02755737,-0.1195068,0.9924469,-36.26907,4.04245,-29.21913,4.2191160000000005,0.6557470999999999,0.4737217000000001,1.0,0.07043457,-0.1039124,0.9920807,30.86861,6.196442,-29.46338,4.289566000000001,0.5516794,0.3970309,-0.4017476,1.198508,-0.05241798,0.0236344,0.7958712,0.03939185,0.6665078,0.1562195,32.238641765704585
1,-0.0027618409999999,-0.1156769,0.9932709,1.0,-0.02755737,-0.1195068,0.9924469,-36.26907,4.04245,-29.21913,4.2191160000000005,0.6557470999999999,0.4737217000000001,1.0,0.07043457,-0.1039124,0.9920807,30.86861,6.196442,-29.46338,4.289566000000001,0.5516794,0.3970309,-0.4017476,1.198508,-0.05241798,0.0236344,0.7958712,0.03939185,0.6665078,0.1562195,32.238641765704585
1,0.0255127,-0.1272583,0.9915314,1.0,-0.03689575,-0.1405792,0.9893799,-36.3786,3.961426,-29.12646,4.021439,0.6609085,0.4792656,1.0,0.06718445,-0.1180573,0.9907226999999998,30.85587,6.155792,-29.405620000000003,4.158997,0.5525796,0.4004339,-0.4021797,1.199041,-0.05233856,0.02246939,0.7955223000000001,0.04078437,0.6665078,0.1562195,32.238641765704585
1,0.0255127,-0.1272583,0.9915314,1.0,-0.03689575,-0.1405792,0.9893799,-36.3786,3.961426,-29.12646,4.021439,0.6609085,0.4792656,1.0,0.06718445,-0.1180573,0.9907226999999998,30.85587,6.155792,-29.405620000000003,4.158997,0.5525796,0.4004339,-0.4021797,1.199041,-0.05233856,0.02246939,0.7955223000000001,0.04078437,0.6665078,0.1562195,32.238641765704585
1,0.0255127,-0.1272583,0.9915314,1.0,-0.03689575,-0.1405792,0.9893799,-36.3786,3.961426,-29.12646,4.021439,0.6609085,0.4792656,1.0,0.06718445,-0.1180573,0.9907226999999998,30.85587,6.155792,-29.405620000000003,4.158997,0.5525796,0.4004339,-0.4021797,1.199041,-0.05233856,0.02246939,0.7955223000000001,0.04078437,0.6665078,0.1562195,32.238641765704585
1,0.01914978,-0.1396942,0.9900055,1.0,-0.03231812,-0.1399536,0.989624,-36.40665,3.964767,-29.22693,4.021912,0.6612406,0.4799426999999999,1.0,0.05702209,-0.139267,0.9886017,30.79596,6.107742,-29.378490000000003,4.066483,0.5563201,0.4055935999999999,-0.4028659,1.1994360000000002,-0.0518678999999999,0.02169832,0.7951855,0.04195136,0.6665078,0.1562195,32.238641765704585
1,0.01914978,-0.1396942,0.9900055,1.0,-0.03231812,-0.1399536,0.989624,-36.40665,3.964767,-29.22693,4.021912,0.6612406,0.4799426999999999,1.0,0.05702209,-0.139267,0.9886017,30.79596,6.107742,-29.378490000000003,4.066483,0.5563201,0.4055935999999999,-0.4028659,1.1994360000000002,-0.0518678999999999,0.02169832,0.7951855,0.04195136,0.6665078,0.1562195,32.238641765704585
1,0.01914978,-0.1396942,0.9900055,1.0,-0.03231812,-0.1399536,0.989624,-36.40665,3.964767,-29.22693,4.021912,0.6612406,0.4799426999999999,1.0,0.05702209,-0.139267,0.9886017,30.79596,6.107742,-29.378490000000003,4.066483,0.5563201,0.4055935999999999,-0.4028659,1.1994360000000002,-0.0518678999999999,0.02169832,0.7951855,0.04195136,0.6665078,0.1562195,32.238641765704585
1,0.04212952,-0.1222533999999999,0.9915924,1.0,-0.02095032,-0.125,0.9919281,-36.24611,4.0179290000000005,-29.171940000000003,4.109207,0.65372,0.4750625,1.0,0.0801239,-0.1203613,0.9894867,30.88715,6.126373,-29.34703,4.009079,0.5491949,0.4013702,-0.403455,1.199631,-0.05175801,0.02068218,0.7949562,0.04275877,0.6665078,15.25793,32.238641765704585
1,0.04212952,-0.1222533999999999,0.9915924,1.0,-0.02095032,-0.125,0.9919281,-36.24611,4.0179290000000005,-29.171940000000003,4.109207,0.65372,0.4750625,1.0,0.0801239,-0.1203613,0.9894867,30.88715,6.126373,-29.34703,4.009079,0.5491949,0.4013702,-0.403455,1.199631,-0.05175801,0.02068218,0.7949562,0.04275877,0.6665078,15.25793,32.238641765704585
1,0.04212952,-0.1222533999999999,0.9915924,1.0,-0.02095032,-0.125,0.9919281,-36.24611,4.0179290000000005,-29.171940000000003,4.109207,0.65372,0.4750625,1.0,0.0801239,-0.1203613,0.9894867,30.88715,6.126373,-29.34703,4.009079,0.5491949,0.4013702,-0.403455,1.199631,-0.05175801,0.02068218,0.7949562,0.04275877,0.6665078,15.25793,32.238641765704585
1,0.1303711,-0.08618164,0.9877014,1.0,0.02738953,-0.0841217,0.9960632,-35.78995,4.569199,-30.27914,3.998459,0.6312234,0.4591050999999999,1.0,0.1304016,-0.08618164,0.9877014,31.11804,6.195496,-28.9389,4.012802,0.5324581,0.3896408,-0.4039972,1.200005,-0.05173016,0.01985417,0.7947814000000001,0.04353455,0.6665078,15.25793,32.238641765704585
1,0.1303711,-0.08618164,0.9877014,1.0,0.02738953,-0.0841217,0.9960632,-35.78995,4.569199,-30.27914,3.998459,0.6312234,0.4591050999999999,1.0,0.1304016,-0.08618164,0.9877014,31.11804,6.195496,-28.9389,4.012802,0.5324581,0.3896408,-0.4039972,1.200005,-0.05173016,0.01985417,0.7947814000000001,0.04353455,0.6665078,15.25793,32.238641765704585
1,0.1303711,-0.08618164,0.9877014,1.0,0.02738953,-0.0841217,0.9960632,-35.78995,4.569199,-30.27914,3.998459,0.6312234,0.4591050999999999,1.0,0.1304016,-0.08618164,0.9877014,31.11804,6.195496,-28.9389,4.012802,0.5324581,0.3896408,-0.4039972,1.200005,-0.05173016,0.01985417,0.7947814000000001,0.04353455,0.6665078,15.25793,32.238641765704585
1,0.1247101,-0.08976746,0.9881134,1.0,0.03309631,-0.08569336,0.9957581,-35.90672,4.35318,-29.67236,4.104385,0.6335274999999999,0.4613802999999999,1.0,0.125351,-0.08979797,0.9880371,31.06943,6.148743,-28.8349,3.947495,0.53491,0.3910015999999999,-0.404444,1.200193,-0.05166693,0.01896927,0.7947258,0.04426896,0.6665078,15.25793,32.238641765704585
1,0.1247101,-0.08976746,0.9881134,1.0,0.03309631,-0.08569336,0.9957581,-35.90672,4.35318,-29.67236,4.104385,0.6335274999999999,0.4613802999999999,1.0,0.125351,-0.08979797,0.9880371,31.06943,6.148743,-28.8349,3.947495,0.53491,0.3910015999999999,-0.404444,1.200193,-0.05166693,0.01896927,0.7947258,0.04426896,0.6665078,15.25793,32.238641765704585
1,0.1247101,-0.08976746,0.9881134,1.0,0.03309631,-0.08569336,0.9957581,-35.90672,4.35318,-29.67236,4.104385,0.6335274999999999,0.4613802999999999,1.0,0.125351,-0.08979797,0.9880371,31.06943,6.148743,-28.8349,3.947495,0.53491,0.3910015999999999,-0.404444,1.200193,-0.05166693,0.01896927,0.7947258,0.04426896,0.6665078,15.25793,32.238641765704585
1,0.1154785,-0.09361267,0.9888763,1.0,0.01832581,-0.08874512,0.9958801,-35.97826,4.329224,-29.63907,4.040543,0.6384475000000001,0.4623715,1.0,0.1203308,-0.09382629,0.9882813,31.06348,6.163742,-28.9359,3.962234,0.5360272,0.3920272999999999,-0.40478,1.200536,-0.05183351,0.01815814,0.7946270999999999,0.04514242,0.6665078,15.25793,32.238641765704585
1,0.1154785,-0.09361267,0.9888763,1.0,0.01832581,-0.08874512,0.9958801,-35.97826,4.329224,-29.63907,4.040543,0.6384475000000001,0.4623715,1.0,0.1203308,-0.09382629,0.9882813,31.06348,6.163742,-28.9359,3.962234,0.5360272,0.3920272999999999,-0.40478,1.200536,-0.05183351,0.01815814,0.7946270999999999,0.04514242,0.6665078,15.25793,32.238641765704585
1,0.1154785,-0.09361267,0.9888763,1.0,0.01832581,-0.08874512,0.9958801,-35.97826,4.329224,-29.63907,4.040543,0.6384475000000001,0.4623715,1.0,0.1203308,-0.09382629,0.9882813,31.06348,6.163742,-28.9359,3.962234,0.5360272,0.3920272999999999,-0.40478,1.200536,-0.05183351,0.01815814,0.7946270999999999,0.04514242,0.6665078,15.25793,32.238641765704585
1,0.07147217,-0.1017151,0.9922333,1.0,0.01135254,-0.09394836,0.9954987,-36.05373,4.217224,-29.32542,3.961334,0.6417537,0.4642651,1.0,0.1129913,-0.1068726,0.9878235,31.02571,6.194122,-29.19263,3.796234,0.5386383000000001,0.3954017,-0.4050554,1.20069,-0.05220133,0.01766796,0.7948166999999999,0.04558137,0.6665078,15.25793,32.238641765704585
1,0.07147217,-0.1017151,0.9922333,1.0,0.01135254,-0.09394836,0.9954987,-36.05373,4.217224,-29.32542,3.961334,0.6417537,0.4642651,1.0,0.1129913,-0.1068726,0.9878235,31.02571,6.194122,-29.19263,3.796234,0.5386383000000001,0.3954017,-0.4050554,1.20069,-0.05220133,0.01766796,0.7948166999999999,0.04558137,0.6665078,15.25793,32.238641765704585
1,0.07147217,-0.1017151,0.9922333,1.0,0.01135254,-0.09394836,0.9954987,-36.05373,4.217224,-29.32542,3.961334,0.6417537,0.4642651,1.0,0.1129913,-0.1068726,0.9878235,31.02571,6.194122,-29.19263,3.796234,0.5386383000000001,0.3954017,-0.4050554,1.20069,-0.05220133,0.01766796,0.7948166999999999,0.04558137,0.6665078,15.25793,32.238641765704585
1,0.1015625,-0.1039428999999999,0.9893799,1.0,0.0027618409999999,-0.09011841,0.9959259,-36.12303,4.120163,-29.11717,3.780685,0.6452214,0.4649597,1.0,0.1046143,-0.1043549,0.9890137,30.987170000000003,6.176163,-29.19398,3.812759,0.5414093000000001,0.3955578,-0.4053409,1.200869,-0.05195855,0.01708461,0.7950545,0.04542065,0.6665078,4.011505,32.238641765704585
1,0.1015625,-0.1039428999999999,0.9893799,1.0,0.0027618409999999,-0.09011841,0.9959259,-36.12303,4.120163,-29.11717,3.780685,0.6452214,0.4649597,1.0,0.1046143,-0.1043549,0.9890137,30.987170000000003,6.176163,-29.19398,3.812759,0.5414093000000001,0.3955578,-0.4053409,1.200869,-0.05195855,0.01708461,0.7950545,0.04542065,0.6665078,4.011505,32.238641765704585
1,0.1015625,-0.1039428999999999,0.9893799,1.0,0.0027618409999999,-0.09011841,0.9959259,-36.12303,4.120163,-29.11717,3.780685,0.6452214,0.4649597,1.0,0.1046143,-0.1043549,0.9890137,30.987170000000003,6.176163,-29.19398,3.812759,0.5414093000000001,0.3955578,-0.4053409,1.200869,-0.05195855,0.01708461,0.7950545,0.04542065,0.6665078,4.011505,32.238641765704585
1,0.07154846,-0.1103058,0.9913177,1.0,-0.0003051758,-0.1044006,0.9945221,-36.17952,4.197617,-29.35602,3.818512,0.6480526999999999,0.4669507,1.0,0.09565735,-0.1121520999999999,0.9890594,30.94667,6.182739,-29.24435,3.797195,0.5443621,0.3971109,-0.4054337999999999,1.200992,-0.05192214,0.01688237,0.7952656,0.04556298,0.6665078,4.011505,32.238641765704585
1,0.07154846,-0.1103058,0.9913177,1.0,-0.0003051758,-0.1044006,0.9945221,-36.17952,4.197617,-29.35602,3.818512,0.6480526999999999,0.4669507,1.0,0.09565735,-0.1121520999999999,0.9890594,30.94667,6.182739,-29.24435,3.797195,0.5443621,0.3971109,-0.4054337999999999,1.200992,-0.05192214,0.01688237,0.7952656,0.04556298,0.6665078,4.011505,32.238641765704585
1,0.07154846,-0.1103058,0.9913177,1.0,-0.0003051758,-0.1044006,0.9945221,-36.17952,4.197617,-29.35602,3.818512,0.6480526999999999,0.4669507,1.0,0.09565735,-0.1121520999999999,0.9890594,30.94667,6.182739,-29.24435,3.797195,0.5443621,0.3971109,-0.4054337999999999,1.200992,-0.05192214,0.01688237,0.7952656,0.04556298,0.6665078,4.011505,32.238641765704585
1,0.07641602,-0.1069183,0.9913177,1.0,-0.0008850097999999,-0.1049652,0.9944611,-36.18568,4.204803,-29.3799,3.832626,0.6484087,0.467025,1.0,0.09585571,-0.1073151,0.9895782,30.93336,6.180344,-29.25648,3.785599,0.5447886,0.3964437,-0.4053613,1.20096,-0.05205956,0.0168373,0.7954175,0.04528908,0.6665078,4.011505,32.238641765704585
1,0.07641602,-0.1069183,0.9913177,1.0,-0.0008850097999999,-0.1049652,0.9944611,-36.18568,4.204803,-29.3799,3.832626,0.6484087,0.467025,1.0,0.09585571,-0.1073151,0.9895782,30.93336,6.180344,-29.25648,3.785599,0.5447886,0.3964437,-0.4053613,1.20096,-0.05205956,0.0168373,0.7954175,0.04528908,0.6665078,4.011505,32.238641765704585
1,0.07641602,-0.1069183,0.9913177,1.0,-0.0008850097999999,-0.1049652,0.9944611,-36.18568,4.204803,-29.3799,3.832626,0.6484087,0.467025,1.0,0.09585571,-0.1073151,0.9895782,30.93336,6.180344,-29.25648,3.785599,0.5447886,0.3964437,-0.4053613,1.20096,-0.05205956,0.0168373,0.7954175,0.04528908,0.6665078,4.011505,32.238641765704585
1,0.04850769,-0.1087188999999999,0.9928741,1.0,-0.01615906,-0.110672,0.9937134,-36.25116,4.132645,-29.14297,3.894455,0.6529647,0.4683582999999999,1.0,0.09190369,-0.1071625,0.989975,30.9288,6.194962,-29.323940000000004,3.778702,0.5456614000000001,0.3964605,-0.4055884,1.2007139999999998,-0.05223384,0.01682357,0.7955237,0.04426593,0.6665078,4.011505,32.238641765704585
1,0.04850769,-0.1087188999999999,0.9928741,1.0,-0.01615906,-0.110672,0.9937134,-36.25116,4.132645,-29.14297,3.894455,0.6529647,0.4683582999999999,1.0,0.09190369,-0.1071625,0.989975,30.9288,6.194962,-29.323940000000004,3.778702,0.5456614000000001,0.3964605,-0.4055884,1.2007139999999998,-0.05223384,0.01682357,0.7955237,0.04426593,0.6665078,4.011505,32.238641765704585
1,0.04850769,-0.1087188999999999,0.9928741,1.0,-0.01615906,-0.110672,0.9937134,-36.25116,4.132645,-29.14297,3.894455,0.6529647,0.4683582999999999,1.0,0.09190369,-0.1071625,0.989975,30.9288,6.194962,-29.323940000000004,3.778702,0.5456614000000001,0.3964605,-0.4055884,1.2007139999999998,-0.05223384,0.01682357,0.7955237,0.04426593,0.6665078,4.011505,32.238641765704585
1,-0.005996704,-0.1157684,0.9932556,1.0,-0.03126526,-0.1149444999999999,0.9928741,-36.31963,4.195435,-29.39885,3.909073,0.6582955,0.4692459,1.0,0.06799316,-0.1177367999999999,0.9907074,30.83209,6.156799,-29.27597,3.790237,0.5530695999999999,0.3991932,-0.4056537,1.200561,-0.05232335,0.01679898,0.7957104,0.04385528,0.6665078,4.011505,33.05
1,-0.005996704,-0.1157684,0.9932556,1.0,-0.03126526,-0.1149444999999999,0.9928741,-36.31963,4.195435,-29.39885,3.909073,0.6582955,0.4692459,1.0,0.06799316,-0.1177367999999999,0.9907074,30.83209,6.156799,-29.27597,3.790237,0.5530695999999999,0.3991932,-0.4056537,1.200561,-0.05232335,0.01679898,0.7957104,0.04385528,0.6665078,4.011505,33.05
1,-0.005996704,-0.1157684,0.9932556,1.0,-0.03126526,-0.1149444999999999,0.9928741,-36.31963,4.195435,-29.39885,3.909073,0.6582955,0.4692459,1.0,0.06799316,-0.1177367999999999,0.9907074,30.83209,6.156799,-29.27597,3.790237,0.5530695999999999,0.3991932,-0.4056537,1.200561,-0.05232335,0.01679898,0.7957104,0.04385528,0.6665078,4.011505,33.05
1,-0.003723145,-0.11409,0.993454,1.0,-0.03161621,-0.1119843,0.9931946,-36.38033,4.209412,-29.48817,3.771423,0.6605432,0.4689937,1.0,0.06231689,-0.1187286,0.9909668,30.78453,6.139648,-29.20901,3.761337,0.5556293999999999,0.3993862999999999,-0.4055356,1.200755,-0.05240769,0.01664884,0.7961463000000001,0.04290811,0.6665078,15.0051,33.05
1,-0.003723145,-0.11409,0.993454,1.0,-0.03161621,-0.1119843,0.9931946,-36.38033,4.209412,-29.48817,3.771423,0.6605432,0.4689937,1.0,0.06231689,-0.1187286,0.9909668,30.78453,6.139648,-29.20901,3.761337,0.5556293999999999,0.3993862999999999,-0.4055356,1.200755,-0.05240769,0.01664884,0.7961463000000001,0.04290811,0.6665078,15.0051,33.05
1,-0.003723145,-0.11409,0.993454,1.0,-0.03161621,-0.1119843,0.9931946,-36.38033,4.209412,-29.48817,3.771423,0.6605432,0.4689937,1.0,0.06231689,-0.1187286,0.9909668,30.78453,6.139648,-29.20901,3.761337,0.5556293999999999,0.3993862999999999,-0.4055356,1.200755,-0.05240769,0.01664884,0.7961463000000001,0.04290811,0.6665078,15.0051,33.05
1,-0.01293945,-0.115921,0.9931641,1.0,-0.04649353,-0.1135559,0.9924316,-36.45036,4.08667,-29.07983,3.881409,0.6649093,0.4698430999999999,1.0,0.05517578,-0.1203003,0.9911957,30.70488,6.024597,-28.7981,3.888077,0.5593488,0.4001573,-0.4053775,1.200573,-0.05267987,0.01690993,0.7963558000000001,0.04231783,0.6665078,15.0051,33.05
1,-0.01293945,-0.115921,0.9931641,1.0,-0.04649353,-0.1135559,0.9924316,-36.45036,4.08667,-29.07983,3.881409,0.6649093,0.4698430999999999,1.0,0.05517578,-0.1203003,0.9911957,30.70488,6.024597,-28.7981,3.888077,0.5593488,0.4001573,-0.4053775,1.200573,-0.05267987,0.01690993,0.7963558000000001,0.04231783,0.6665078,15.0051,33.05
1,-0.01293945,-0.115921,0.9931641,1.0,-0.04649353,-0.1135559,0.9924316,-36.45036,4.08667,-29.07983,3.881409,0.6649093,0.4698430999999999,1.0,0.05517578,-0.1203003,0.9911957,30.70488,6.024597,-28.7981,3.888077,0.5593488,0.4001573,-0.4053775,1.200573,-0.05267987,0.01690993,0.7963558000000001,0.04231783,0.6665078,15.0051,33.05
1,-0.03611755,-0.1158142,0.9925995,1.0,-0.05587769,-0.1147461,0.9918213,-36.50563,4.138397,-29.32216,3.798782,0.6687993,0.4704269,1.0,0.04237366,-0.1196442,0.9918976,30.69133,6.047668,-28.92299,3.80043,0.5620649999999999,0.4002713,-0.4049942,1.200286,-0.05293228,0.01724284,0.7969539000000001,0.04126509,0.6665078,15.0051,33.05
1,-0.03611755,-0.1158142,0.9925995,1.0,-0.05587769,-0.1147461,0.9918213,-36.50563,4.138397,-29.32216,3.798782,0.6687993,0.4704269,1.0,0.04237366,-0.1196442,0.9918976,30.69133,6.047668,-28.92299,3.80043,0.5620649999999999,0.4002713,-0.4049942,1.200286,-0.05293228,0.01724284,0.7969539000000001,0.04126509,0.6665078,15.0051,33.05
1,-0.03611755,-0.1158142,0.9925995,1.0,-0.05587769,-0.1147461,0.9918213,-36.50563,4.138397,-29.32216,3.798782,0.6687993,0.4704269,1.0,0.04237366,-0.1196442,0.9918976,30.69133,6.047668,-28.92299,3.80043,0.5620649999999999,0.4002713,-0.4049942,1.200286,-0.05293228,0.01724284,0.7969539000000001,0.04126509,0.6665078,15.0051,33.05
1,0.2306212999999999,-0.1358032,0.9635162,1.0,0.1452178999999999,-0.1296692,0.9808502,-35.29636,4.19725,-29.587740000000004,3.753296,0.5933094,0.4739632,1.0,0.2306671,-0.1358032,0.963501,31.60391,6.065735,-29.29784,3.620422,0.4983501,0.4064886,-0.4047936,1.200205,-0.05295116,0.01746502,0.7972302,0.04076454,0.6665078,15.0051,33.05
1,0.2306212999999999,-0.1358032,0.9635162,1.0,0.1452178999999999,-0.1296692,0.9808502,-35.29636,4.19725,-29.587740000000004,3.753296,0.5933094,0.4739632,1.0,0.2306671,-0.1358032,0.963501,31.60391,6.065735,-29.29784,3.620422,0.4983501,0.4064886,-0.4047936,1.200205,-0.05295116,0.01746502,0.7972302,0.04076454,0.6665078,15.0051,33.05
1,0.2306212999999999,-0.1358032,0.9635162,1.0,0.1452178999999999,-0.1296692,0.9808502,-35.29636,4.19725,-29.587740000000004,3.753296,0.5933094,0.4739632,1.0,0.2306671,-0.1358032,0.963501,31.60391,6.065735,-29.29784,3.620422,0.4983501,0.4064886,-0.4047936,1.200205,-0.05295116,0.01746502,0.7972302,0.04076454,0.6665078,15.0051,33.05
1,0.2558288999999999,-0.1327208999999999,0.95755,1.0,0.1573944,-0.1369629,0.9779816,-35.17145,4.203827,-29.54002,3.713837,0.5869366,0.4746604,1.0,0.2559509,-0.1327208999999999,0.9575195,31.70792,6.069702,-29.32265,3.76297,0.4904747999999999,0.4062358,-0.4043758,1.199905,-0.05325334,0.01811788,0.7976115,0.03958185,0.6665078,15.0051,33.05
1,0.2558288999999999,-0.1327208999999999,0.95755,1.0,0.1573944,-0.1369629,0.9779816,-35.17145,4.203827,-29.54002,3.713837,0.5869366,0.4746604,1.0,0.2559509,-0.1327208999999999,0.9575195,31.70792,6.069702,-29.32265,3.76297,0.4904747999999999,0.4062358,-0.4043758,1.199905,-0.05325334,0.01811788,0.7976115,0.03958185,0.6665078,15.0051,33.05
1,0.2558288999999999,-0.1327208999999999,0.95755,1.0,0.1573944,-0.1369629,0.9779816,-35.17145,4.203827,-29.54002,3.713837,0.5869366,0.4746604,1.0,0.2559509,-0.1327208999999999,0.9575195,31.70792,6.069702,-29.32265,3.76297,0.4904747999999999,0.4062358,-0.4043758,1.199905,-0.05325334,0.01811788,0.7976115,0.03958185,0.6665078,15.0051,33.05
1,0.2439117,-0.1443176,0.9589844,1.0,0.1460114,-0.1232299999999999,0.9815674,-35.29701,4.210983000000001,-29.62166,3.639847,0.593151,0.4726358,1.0,0.243927,-0.1443176,0.9589844,31.66048,6.085433999999999,-29.30553,3.80777,0.4942404999999999,0.4075314,-0.4041324,1.199744,-0.05332467,0.0183654,0.7977628999999999,0.03903979,0.6665078,-20.90778,33.05
1,0.2439117,-0.1443176,0.9589844,1.0,0.1460114,-0.1232299999999999,0.9815674,-35.29701,4.210983000000001,-29.62166,3.639847,0.593151,0.4726358,1.0,0.243927,-0.1443176,0.9589844,31.66048,6.085433999999999,-29.30553,3.80777,0.4942404999999999,0.4075314,-0.4041324,1.199744,-0.05332467,0.0183654,0.7977628999999999,0.03903979,0.6665078,-20.90778,33.05
1,0.2439117,-0.1443176,0.9589844,1.0,0.1460114,-0.1232299999999999,0.9815674,-35.29701,4.210983000000001,-29.62166,3.639847,0.593151,0.4726358,1.0,0.243927,-0.1443176,0.9589844,31.66048,6.085433999999999,-29.30553,3.80777,0.4942404999999999,0.4075314,-0.4041324,1.199744,-0.05332467,0.0183654,0.7977628999999999,0.03903979,0.6665078,-20.90778,33.05
2,0.1969299,-0.1344452,0.9711456,1.0,0.1373444,-0.1276093,0.982254,-35.32663,4.217224,-29.63788,3.733917,0.5957145,0.473321,1.0,0.2377929999999999,-0.1388855,0.961319,31.64467,6.085433999999999,-29.30316,3.764359,0.4958135,0.4064745,-0.4039552999999999,1.199234,-0.05356469,0.01851228,0.7981039000000001,0.0376799,0.6665078,-20.90778,33.05
2,0.1969299,-0.1344452,0.9711456,1.0,0.1373444,-0.1276093,0.982254,-35.32663,4.217224,-29.63788,3.733917,0.5957145,0.473321,1.0,0.2377929999999999,-0.1388855,0.961319,31.64467,6.085433999999999,-29.30316,3.764359,0.4958135,0.4064745,-0.4039552999999999,1.199234,-0.05356469,0.01851228,0.7981039000000001,0.0376799,0.6665078,-20.90778,33.05
2,0.1969299,-0.1344452,0.9711456,1.0,0.1373444,-0.1276093,0.982254,-35.32663,4.217224,-29.63788,3.733917,0.5957145,0.473321,1.0,0.2377929999999999,-0.1388855,0.961319,31.64467,6.085433999999999,-29.30316,3.764359,0.4958135,0.4064745,-0.4039552999999999,1.199234,-0.05356469,0.01851228,0.7981039000000001,0.0376799,0.6665078,-20.90778,33.05
2,0.18573,-0.1343688999999999,0.9733582,1.0,0.1301422,-0.1284027,0.983139,-35.35872,4.223404,-29.66553,3.833786,0.5981228,0.4734895,1.0,0.2322083,-0.1390686,0.9626617,31.632140000000003,6.084763,-29.30222,3.783752,0.4972242,0.4064801,-0.4038005,1.199023,-0.05364626,0.01898811,0.7982271,0.03708487,0.6665078,-20.90778,33.05
2,0.18573,-0.1343688999999999,0.9733582,1.0,0.1301422,-0.1284027,0.983139,-35.35872,4.223404,-29.66553,3.833786,0.5981228,0.4734895,1.0,0.2322083,-0.1390686,0.9626617,31.632140000000003,6.084763,-29.30222,3.783752,0.4972242,0.4064801,-0.4038005,1.199023,-0.05364626,0.01898811,0.7982271,0.03708487,0.6665078,-20.90778,33.05
2,0.18573,-0.1343688999999999,0.9733582,1.0,0.1301422,-0.1284027,0.983139,-35.35872,4.223404,-29.66553,3.833786,0.5981228,0.4734895,1.0,0.2322083,-0.1390686,0.9626617,31.632140000000003,6.084763,-29.30222,3.783752,0.4972242,0.4064801,-0.4038005,1.199023,-0.05364626,0.01898811,0.7982271,0.03708487,0.6665078,-20.90778,33.05
2,0.1892242,-0.1328125,0.9729004,1.0,0.1297454999999999,-0.124176,0.9837341,-35.42607,4.2360690000000005,-29.73601,3.861069,0.6005698,0.4729492,1.0,0.225647,-0.1378937,0.964386,31.61896,6.084335,-29.29848,3.783066,0.4988099,0.4061998,-0.4034450999999999,1.198744,-0.05389399,0.01963037,0.7982875,0.03605303,0.6665078,-20.90778,33.05
2,0.1892242,-0.1328125,0.9729004,1.0,0.1297454999999999,-0.124176,0.9837341,-35.42607,4.2360690000000005,-29.73601,3.861069,0.6005698,0.4729492,1.0,0.225647,-0.1378937,0.964386,31.61896,6.084335,-29.29848,3.783066,0.4988099,0.4061998,-0.4034450999999999,1.198744,-0.05389399,0.01963037,0.7982875,0.03605303,0.6665078,-20.90778,33.05
2,0.1892242,-0.1328125,0.9729004,1.0,0.1297454999999999,-0.124176,0.9837341,-35.42607,4.2360690000000005,-29.73601,3.861069,0.6005698,0.4729492,1.0,0.225647,-0.1378937,0.964386,31.61896,6.084335,-29.29848,3.783066,0.4988099,0.4061998,-0.4034450999999999,1.198744,-0.05389399,0.01963037,0.7982875,0.03605303,0.6665078,-20.90778,33.05
2,0.1841277999999999,-0.131073,0.9741211,1.0,0.1252136,-0.1261444,0.9840698,-35.44905,4.236649,-29.76288,3.914337,0.6021887,0.4735168999999999,1.0,0.2235869999999999,-0.1341248,0.9653931,31.592440000000003,6.077896,-29.29512,3.833694,0.5001073,0.4057133,-0.4033569,1.198509,-0.05376051,0.01997463,0.7982241999999999,0.0355802,0.6665078,-20.90778,33.05
2,0.1841277999999999,-0.131073,0.9741211,1.0,0.1252136,-0.1261444,0.9840698,-35.44905,4.236649,-29.76288,3.914337,0.6021887,0.4735168999999999,1.0,0.2235869999999999,-0.1341248,0.9653931,31.592440000000003,6.077896,-29.29512,3.833694,0.5001073,0.4057133,-0.4033569,1.198509,-0.05376051,0.01997463,0.7982241999999999,0.0355802,0.6665078,-20.90778,33.05
2,0.1841277999999999,-0.131073,0.9741211,1.0,0.1252136,-0.1261444,0.9840698,-35.44905,4.236649,-29.76288,3.914337,0.6021887,0.4735168999999999,1.0,0.2235869999999999,-0.1341248,0.9653931,31.592440000000003,6.077896,-29.29512,3.833694,0.5001073,0.4057133,-0.4033569,1.198509,-0.05376051,0.01997463,0.7982241999999999,0.0355802,0.6665078,-20.90778,33.05
2,0.1766052,-0.1300811999999999,0.975647,1.0,0.125351,-0.1259766,0.9840698,-35.46046,4.234726,-29.75856,3.919296,0.6025554,0.4735168999999999,1.0,0.2193603999999999,-0.1332549999999999,0.9664917,31.58168,6.076614,-29.29488,3.851669,0.5012187,0.4055627999999999,-0.4032786,1.198642,-0.0536437,0.01993749,0.7980134,0.03504375,0.6498535,12.55972,33.05
2,0.1766052,-0.1300811999999999,0.975647,1.0,0.125351,-0.1259766,0.9840698,-35.46046,4.234726,-29.75856,3.919296,0.6025554,0.4735168999999999,1.0,0.2193603999999999,-0.1332549999999999,0.9664917,31.58168,6.076614,-29.29488,3.851669,0.5012187,0.4055627999999999,-0.4032786,1.198642,-0.0536437,0.01993749,0.7980134,0.03504375,0.6498535,12.55972,33.05
2,0.1766052,-0.1300811999999999,0.975647,1.0,0.125351,-0.1259766,0.9840698,-35.46046,4.234726,-29.75856,3.919296,0.6025554,0.4735168999999999,1.0,0.2193603999999999,-0.1332549999999999,0.9664917,31.58168,6.076614,-29.29488,3.851669,0.5012187,0.4055627999999999,-0.4032786,1.198642,-0.0536437,0.01993749,0.7980134,0.03504375,0.6498535,12.55972,33.05
2,0.1766052,-0.1300811999999999,0.975647,1.0,0.125351,-0.1259766,0.9840698,-35.46046,4.234726,-29.75856,3.919296,0.6025554,0.4735168999999999,1.0,0.2193603999999999,-0.1332549999999999,0.9664917,31.58168,6.076614,-29.29488,3.851669,0.5012187,0.4055627999999999,-0.4032565,1.198558,-0.05360238,0.01967246,0.7979812,0.03470116,0.6498535,12.55972,33.05
2,0.1766052,-0.1300811999999999,0.975647,1.0,0.125351,-0.1259766,0.9840698,-35.46046,4.234726,-29.75856,3.919296,0.6025554,0.4735168999999999,1.0,0.2193603999999999,-0.1332549999999999,0.9664917,31.58168,6.076614,-29.29488,3.851669,0.5012187,0.4055627999999999,-0.4032565,1.198558,-0.05360238,0.01967246,0.7979812,0.03470116,0.6498535,12.55972,33.05
2,0.1766052,-0.1300811999999999,0.975647,1.0,0.125351,-0.1259766,0.9840698,-35.46046,4.234726,-29.75856,3.919296,0.6025554,0.4735168999999999,1.0,0.2193603999999999,-0.1332549999999999,0.9664917,31.58168,6.076614,-29.29488,3.851669,0.5012187,0.4055627999999999,-0.4032565,1.198558,-0.05360238,0.01967246,0.7979812,0.03470116,0.6498535,12.55972,33.05
2,0.1751251,-0.1300049,0.9759216,1.0,0.1253204,-0.1260986,0.9840546,-35.46561,4.236587999999999,-29.75504,3.923706,0.602735,0.4734464,1.0,0.2188721,-0.133194,0.9666138,31.579190000000004,6.075974,-29.29398,3.851669,0.5013877999999999,0.4055627999999999,-0.4032295999999999,1.198616,-0.05351561,0.01935344,0.7979227,0.03448308,0.6498535,12.55972,33.05
2,0.1751251,-0.1300049,0.9759216,1.0,0.1253204,-0.1260986,0.9840546,-35.46561,4.236587999999999,-29.75504,3.923706,0.602735,0.4734464,1.0,0.2188721,-0.133194,0.9666138,31.579190000000004,6.075974,-29.29398,3.851669,0.5013877999999999,0.4055627999999999,-0.4032295999999999,1.198616,-0.05351561,0.01935344,0.7979227,0.03448308,0.6498535,12.55972,33.05
2,0.1751251,-0.1300049,0.9759216,1.0,0.1253204,-0.1260986,0.9840546,-35.46561,4.236587999999999,-29.75504,3.923706,0.602735,0.4734464,1.0,0.2188721,-0.133194,0.9666138,31.579190000000004,6.075974,-29.29398,3.851669,0.5013877999999999,0.4055627999999999,-0.4032295999999999,1.198616,-0.05351561,0.01935344,0.7979227,0.03448308,0.6498535,12.55972,33.05
2,0.1732025,-0.1295319,0.9763184,1.0,0.1236267,-0.1259918,0.9842834,-35.46948,4.236649,-29.755840000000003,3.926498000000001,0.6031585999999999,0.4734128999999999,1.0,0.2185822,-0.1324921,0.9667664,31.578000000000003,6.075974,-29.2924,3.851837,0.5014782999999999,0.4054219,-0.4033169,1.198611,-0.05359887,0.01912398,0.7978728,0.03429817,0.6498535,12.55972,33.05
2,0.1732025,-0.1295319,0.9763184,1.0,0.1236267,-0.1259918,0.9842834,-35.46948,4.236649,-29.755840000000003,3.926498000000001,0.6031585999999999,0.4734128999999999,1.0,0.2185822,-0.1324921,0.9667664,31.578000000000003,6.075974,-29.2924,3.851837,0.5014782999999999,0.4054219,-0.4033169,1.198611,-0.05359887,0.01912398,0.7978728,0.03429817,0.6498535,12.55972,33.05
2,0.1732025,-0.1295319,0.9763184,1.0,0.1236267,-0.1259918,0.9842834,-35.46948,4.236649,-29.755840000000003,3.926498000000001,0.6031585999999999,0.4734128999999999,1.0,0.2185822,-0.1324921,0.9667664,31.578000000000003,6.075974,-29.2924,3.851837,0.5014782999999999,0.4054219,-0.4033169,1.198611,-0.05359887,0.01912398,0.7978728,0.03429817,0.6498535,12.55972,33.05
2,0.1795197,-0.1300049,0.9751129,1.0,0.08424377,-0.1186676,0.9893494,-35.65376,4.314636,-30.04962,4.118454,0.6165986999999999,0.4719940999999999,1.0,0.1809845,-0.1301726999999999,0.974823,31.41063,6.077286,-29.25052,4.068085,0.5138367,0.4043843,-0.4033808,1.198701,-0.05374007,0.01855549,0.7979685999999999,0.0342745999999999,0.6498535,12.55972,33.05
2,0.1795197,-0.1300049,0.9751129,1.0,0.08424377,-0.1186676,0.9893494,-35.65376,4.314636,-30.04962,4.118454,0.6165986999999999,0.4719940999999999,1.0,0.1809845,-0.1301726999999999,0.974823,31.41063,6.077286,-29.25052,4.068085,0.5138367,0.4043843,-0.4033808,1.198701,-0.05374007,0.01855549,0.7979685999999999,0.0342745999999999,0.6498535,12.55972,33.05
2,0.1795197,-0.1300049,0.9751129,1.0,0.08424377,-0.1186676,0.9893494,-35.65376,4.314636,-30.04962,4.118454,0.6165986999999999,0.4719940999999999,1.0,0.1809845,-0.1301726999999999,0.974823,31.41063,6.077286,-29.25052,4.068085,0.5138367,0.4043843,-0.4033808,1.198701,-0.05374007,0.01855549,0.7979685999999999,0.0342745999999999,0.6498535,12.55972,33.05
2,0.1704253999999999,-0.1298828,0.9767609,1.0,0.07116699,-0.1220398,0.9899597,-35.67944,4.33429,-30.13333,4.218079,0.6198643,0.4726443,1.0,0.1790313999999999,-0.1305084,0.9751434,31.38585,6.077759,-29.24976,4.056549,0.51502,0.4044160999999999,-0.4035647,1.19892,-0.0537221,0.01807507,0.7981623999999999,0.03421041,0.6498535,12.55972,33.05
2,0.1704253999999999,-0.1298828,0.9767609,1.0,0.07116699,-0.1220398,0.9899597,-35.67944,4.33429,-30.13333,4.218079,0.6198643,0.4726443,1.0,0.1790313999999999,-0.1305084,0.9751434,31.38585,6.077759,-29.24976,4.056549,0.51502,0.4044160999999999,-0.4035647,1.19892,-0.0537221,0.01807507,0.7981623999999999,0.03421041,0.6498535,12.55972,33.05
2,0.1704253999999999,-0.1298828,0.9767609,1.0,0.07116699,-0.1220398,0.9899597,-35.67944,4.33429,-30.13333,4.218079,0.6198643,0.4726443,1.0,0.1790313999999999,-0.1305084,0.9751434,31.38585,6.077759,-29.24976,4.056549,0.51502,0.4044160999999999,-0.4035647,1.19892,-0.0537221,0.01807507,0.7981623999999999,0.03421041,0.6498535,12.55972,33.05
2,0.174942,-0.1302185,0.9759216,1.0,0.06663513,-0.125473,0.9898529,-35.663509999999995,4.447769,-30.521,4.262633999999999,0.6205890000000001,0.4728573,1.0,0.1752472,-0.1302337999999999,0.9758606,31.37096,6.080154,-29.24657,4.058762000000001,0.5161821,0.404229,-0.40387,1.199037,-0.05389917,0.01719026,0.7983895999999999,0.0345653,0.6498535,22.02692,33.05
2,0.174942,-0.1302185,0.9759216,1.0,0.06663513,-0.125473,0.9898529,-35.663509999999995,4.447769,-30.521,4.262633999999999,0.6205890000000001,0.4728573,1.0,0.1752472,-0.1302337999999999,0.9758606,31.37096,6.080154,-29.24657,4.058762000000001,0.5161821,0.404229,-0.40387,1.199037,-0.05389917,0.01719026,0.7983895999999999,0.0345653,0.6498535,22.02692,33.05
2,0.174942,-0.1302185,0.9759216,1.0,0.06663513,-0.125473,0.9898529,-35.663509999999995,4.447769,-30.521,4.262633999999999,0.6205890000000001,0.4728573,1.0,0.1752472,-0.1302337999999999,0.9758606,31.37096,6.080154,-29.24657,4.058762000000001,0.5161821,0.404229,-0.40387,1.199037,-0.05389917,0.01719026,0.7983895999999999,0.0345653,0.6498535,22.02692,33.05
2,0.1737517999999999,-0.1307068,0.976059,1.0,0.06314087,-0.1233826,0.9903412,-35.6759,4.340073,-30.1544,4.2901,0.6211727,0.4728594,1.0,0.1738586,-0.1307068,0.9760437,31.35168,6.080872,-29.244090000000003,4.079086,0.5170954000000001,0.4042696,-0.4041789,1.19921,-0.05382825,0.01690244,0.7984886999999999,0.03456325,0.6498535,22.02692,33.05
2,0.1737517999999999,-0.1307068,0.976059,1.0,0.06314087,-0.1233826,0.9903412,-35.6759,4.340073,-30.1544,4.2901,0.6211727,0.4728594,1.0,0.1738586,-0.1307068,0.9760437,31.35168,6.080872,-29.244090000000003,4.079086,0.5170954000000001,0.4042696,-0.4041789,1.19921,-0.05382825,0.01690244,0.7984886999999999,0.03456325,0.6498535,22.02692,33.05
2,0.1737517999999999,-0.1307068,0.976059,1.0,0.06314087,-0.1233826,0.9903412,-35.6759,4.340073,-30.1544,4.2901,0.6211727,0.4728594,1.0,0.1738586,-0.1307068,0.9760437,31.35168,6.080872,-29.244090000000003,4.079086,0.5170954000000001,0.4042696,-0.4041789,1.19921,-0.05382825,0.01690244,0.7984886999999999,0.03456325,0.6498535,22.02692,33.05
2,0.1618652,-0.1311646,0.9780426,1.0,0.06311035,-0.124588,0.9901886,-35.68594,4.33429,-30.13333,4.310257,0.6215109999999999,0.4730861,1.0,0.1619568,-0.1311646,0.9780273000000002,31.34105,6.080872,-29.24258,4.151794000000001,0.5195366,0.4042696,-0.4045402,1.1994209999999998,-0.05387108,0.01582848,0.7987546,0.03483744,0.6498535,22.02692,33.05
2,0.1618652,-0.1311646,0.9780426,1.0,0.06311035,-0.124588,0.9901886,-35.68594,4.33429,-30.13333,4.310257,0.6215109999999999,0.4730861,1.0,0.1619568,-0.1311646,0.9780273000000002,31.34105,6.080872,-29.24258,4.151794000000001,0.5195366,0.4042696,-0.4045402,1.1994209999999998,-0.05387108,0.01582848,0.7987546,0.03483744,0.6498535,22.02692,33.05
2,0.1618652,-0.1311646,0.9780426,1.0,0.06311035,-0.124588,0.9901886,-35.68594,4.33429,-30.13333,4.310257,0.6215109999999999,0.4730861,1.0,0.1619568,-0.1311646,0.9780273000000002,31.34105,6.080872,-29.24258,4.151794000000001,0.5195366,0.4042696,-0.4045402,1.1994209999999998,-0.05387108,0.01582848,0.7987546,0.03483744,0.6498535,22.02692,33.05
2,0.137207,-0.1280212,0.9822235,1.0,0.06512451,-0.1236572,0.9901733,-35.76028,4.319046,-30.11847,4.342056,0.6237343000000001,0.4733144,1.0,0.1595763999999999,-0.1292419,0.9786835,31.32356,6.077087000000001,-29.24094,4.192444,0.5205661,0.4040419,-0.4048075999999999,1.199524,-0.05390375,0.01564644,0.7988303000000001,0.03534162,0.6498535,22.02692,33.05
2,0.137207,-0.1280212,0.9822235,1.0,0.06512451,-0.1236572,0.9901733,-35.76028,4.319046,-30.11847,4.342056,0.6237343000000001,0.4733144,1.0,0.1595763999999999,-0.1292419,0.9786835,31.32356,6.077087000000001,-29.24094,4.192444,0.5205661,0.4040419,-0.4048075999999999,1.199524,-0.05390375,0.01564644,0.7988303000000001,0.03534162,0.6498535,22.02692,33.05
2,0.137207,-0.1280212,0.9822235,1.0,0.06512451,-0.1236572,0.9901733,-35.76028,4.319046,-30.11847,4.342056,0.6237343000000001,0.4733144,1.0,0.1595763999999999,-0.1292419,0.9786835,31.32356,6.077087000000001,-29.24094,4.192444,0.5205661,0.4040419,-0.4048075999999999,1.199524,-0.05390375,0.01564644,0.7988303000000001,0.03534162,0.6498535,22.02692,33.05
2,0.110733,-0.125946,0.9858246,1.0,0.06382751,-0.1234741,0.9902802,-35.773790000000005,4.318115,-30.11847,4.370865,0.6244371,0.4733144,1.0,0.1540375,-0.1279755,0.9797363,31.30675,6.071945,-29.23508,4.338638,0.5221601,0.4039301,-0.4051925,1.199707,-0.05358483,0.01498584,0.7988366,0.03589345,0.6498535,22.02692,33.05
2,0.110733,-0.125946,0.9858246,1.0,0.06382751,-0.1234741,0.9902802,-35.773790000000005,4.318115,-30.11847,4.370865,0.6244371,0.4733144,1.0,0.1540375,-0.1279755,0.9797363,31.30675,6.071945,-29.23508,4.338638,0.5221601,0.4039301,-0.4051925,1.199707,-0.05358483,0.01498584,0.7988366,0.03589345,0.6498535,22.02692,33.05
2,0.110733,-0.125946,0.9858246,1.0,0.06382751,-0.1234741,0.9902802,-35.773790000000005,4.318115,-30.11847,4.370865,0.6244371,0.4733144,1.0,0.1540375,-0.1279755,0.9797363,31.30675,6.071945,-29.23508,4.338638,0.5221601,0.4039301,-0.4051925,1.199707,-0.05358483,0.01498584,0.7988366,0.03589345,0.6498535,22.12653,33.05
2,0.1360931,-0.1278381,0.9824066,1.0,0.04269409,-0.1201476999999999,0.9918213,-35.933690000000006,4.050369,-29.3595,4.484084999999999,0.6325972,0.474987,1.0,0.1362305,-0.1278381,0.9823914,31.22394,6.027679,-29.22586,4.486298000000001,0.5281091,0.4052981,-0.4057368,1.199809,-0.05356435,0.0142569,0.798901,0.03593048,0.6498535,14.44324,33.05
2,0.1360931,-0.1278381,0.9824066,1.0,0.04269409,-0.1201476999999999,0.9918213,-35.933690000000006,4.050369,-29.3595,4.484084999999999,0.6325972,0.474987,1.0,0.1362305,-0.1278381,0.9823914,31.22394,6.027679,-29.22586,4.486298000000001,0.5281091,0.4052981,-0.4057368,1.199809,-0.05356435,0.0142569,0.798901,0.03593048,0.6498535,14.44324,33.05
2,0.1360931,-0.1278381,0.9824066,1.0,0.04269409,-0.1201476999999999,0.9918213,-35.933690000000006,4.050369,-29.3595,4.484084999999999,0.6325972,0.474987,1.0,0.1362305,-0.1278381,0.9823914,31.22394,6.027679,-29.22586,4.486298000000001,0.5281091,0.4052981,-0.4057368,1.199809,-0.05356435,0.0142569,0.798901,0.03593048,0.6498535,14.44324,33.05
2,0.1343536,-0.1382446,0.9812317,1.0,0.0377655,-0.1254883,0.9913635,-35.94724,4.117691000000001,-29.61194,4.460495,0.6342253000000001,0.4758805,1.0,0.1343842,-0.1382446,0.9812317,31.199890000000003,5.994263,-29.221190000000004,4.543152,0.52927,0.4082398,-0.4060338,1.199885,-0.05343922,0.01350464,0.7988816999999999,0.03605168,0.6498535,14.44324,33.05
2,0.1343536,-0.1382446,0.9812317,1.0,0.0377655,-0.1254883,0.9913635,-35.94724,4.117691000000001,-29.61194,4.460495,0.6342253000000001,0.4758805,1.0,0.1343842,-0.1382446,0.9812317,31.199890000000003,5.994263,-29.221190000000004,4.543152,0.52927,0.4082398,-0.4060338,1.199885,-0.05343922,0.01350464,0.7988816999999999,0.03605168,0.6498535,14.44324,33.05
2,0.1343536,-0.1382446,0.9812317,1.0,0.0377655,-0.1254883,0.9913635,-35.94724,4.117691000000001,-29.61194,4.460495,0.6342253000000001,0.4758805,1.0,0.1343842,-0.1382446,0.9812317,31.199890000000003,5.994263,-29.221190000000004,4.543152,0.52927,0.4082398,-0.4060338,1.199885,-0.05343922,0.01350464,0.7988816999999999,0.03605168,0.6498535,14.44324,33.05
2,0.1291962,-0.1487427,0.9803925,0.776365,0.03459167,-0.1317443999999999,0.9906769,-35.982209999999995,4.07547,-29.46732,4.546722,0.6358265000000001,0.477109,0.9965886,0.1333312999999999,-0.1494598,0.9797211,31.1608,6.006744,-29.20689,4.471634,0.5307626,0.4096693,-0.4061505,1.2001700000000002,-0.05332168,0.01278595,0.7989954,0.0362261,0.6498535,14.44324,33.05
2,0.1291962,-0.1487427,0.9803925,0.776365,0.03459167,-0.1317443999999999,0.9906769,-35.982209999999995,4.07547,-29.46732,4.546722,0.6358265000000001,0.477109,0.9965886,0.1333312999999999,-0.1494598,0.9797211,31.1608,6.006744,-29.20689,4.471634,0.5307626,0.4096693,-0.4061505,1.2001700000000002,-0.05332168,0.01278595,0.7989954,0.0362261,0.6498535,14.44324,33.05
2,0.1291962,-0.1487427,0.9803925,0.776365,0.03459167,-0.1317443999999999,0.9906769,-35.982209999999995,4.07547,-29.46732,4.546722,0.6358265000000001,0.477109,0.9965886,0.1333312999999999,-0.1494598,0.9797211,31.1608,6.006744,-29.20689,4.471634,0.5307626,0.4096693,-0.4061505,1.2001700000000002,-0.05332168,0.01278595,0.7989954,0.0362261,0.6498535,14.44324,33.05
2,0.1233520999999999,-0.1407166,0.9823303,0.6813554,0.03410339,-0.1300049,0.990921,-36.0925,4.029053,-29.10701,4.530975,0.6391979,0.4751482,0.9178059,0.1239166,-0.1407776,0.982254,31.10301,6.045273,-29.22142,4.581909,0.5344211,0.4069042999999999,-0.4063060999999999,1.200409,-0.05337712,0.0117657,0.7990262,0.03633023,0.6498535,14.44324,33.05
2,0.1233520999999999,-0.1407166,0.9823303,0.6813554,0.03410339,-0.1300049,0.990921,-36.0925,4.029053,-29.10701,4.530975,0.6391979,0.4751482,0.9178059,0.1239166,-0.1407776,0.982254,31.10301,6.045273,-29.22142,4.581909,0.5344211,0.4069042999999999,-0.4063060999999999,1.200409,-0.05337712,0.0117657,0.7990262,0.03633023,0.6498535,14.44324,33.05
2,0.1233520999999999,-0.1407166,0.9823303,0.6813554,0.03410339,-0.1300049,0.990921,-36.0925,4.029053,-29.10701,4.530975,0.6391979,0.4751482,0.9178059,0.1239166,-0.1407776,0.982254,31.10301,6.045273,-29.22142,4.581909,0.5344211,0.4069042999999999,-0.4063060999999999,1.200409,-0.05337712,0.0117657,0.7990262,0.03633023,0.6498535,14.44324,33.05
2,0.03656006,-0.1461487,0.9885712,0.5346189,0.03656006,-0.1461487,0.9885712,-36.08336,4.425903,-30.34795,4.69136,0.6403165,0.4756225999999999,0.7839515,0.0,0.0,0.0,31.06349,6.09433,-29.18501,-1.0,0.5357592,0.4122465999999999,-0.4065006,1.200626,-0.05327138,0.01101883,0.799042,0.03642485,0.6498535,-9.975769,33.05
2,0.03656006,-0.1461487,0.9885712,0.5346189,0.03656006,-0.1461487,0.9885712,-36.08336,4.425903,-30.34795,4.69136,0.6403165,0.4756225999999999,0.7839515,0.0,0.0,0.0,31.06349,6.09433,-29.18501,-1.0,0.5357592,0.4122465999999999,-0.4065006,1.200626,-0.05327138,0.01101883,0.799042,0.03642485,0.6498535,-15.77338,33.05
2,0.03656006,-0.1461487,0.9885712,0.5346189,0.03656006,-0.1461487,0.9885712,-36.08336,4.425903,-30.34795,4.69136,0.6403165,0.4756225999999999,0.7839515,0.0,0.0,0.0,31.06349,6.09433,-29.18501,-1.0,0.5357592,0.4122465999999999,-0.4065006,1.200626,-0.05327138,0.01101883,0.799042,0.03642485,0.6498535,-15.77338,33.05
2,-1.0,-1.0,-1.0,0.0,0.0,0.0,0.0,-35.890840000000004,3.477417,-29.91794,-1.0,-1.0,-1.0,0.1975512999999999,0.0,0.0,0.0,31.14145,6.126144,-29.18895,-1.0,-1.0,-1.0,-0.406682,1.201023,-0.05343553,0.009854106,0.7990228,0.03739488,0.6498535,-15.77338,33.05
2,-1.0,-1.0,-1.0,0.0,0.0,0.0,0.0,-35.890840000000004,3.477417,-29.91794,-1.0,-1.0,-1.0,0.1975512999999999,0.0,0.0,0.0,31.14145,6.126144,-29.18895,-1.0,-1.0,-1.0,-0.406682,1.201023,-0.05343553,0.009854106,0.7990228,0.03739488,0.6498535,-15.77338,33.05
2,-1.0,-1.0,-1.0,0.0,0.0,0.0,0.0,-35.890840000000004,3.477417,-29.91794,-1.0,-1.0,-1.0,0.1975512999999999,0.0,0.0,0.0,31.14145,6.126144,-29.18895,-1.0,-1.0,-1.0,-0.406682,1.201023,-0.05343553,0.009854106,0.7990228,0.03739488,0.6498535,-15.77338,33.05
2,-1.0,-1.0,-1.0,0.0,0.0,0.0,0.0,-35.890840000000004,3.477417,-29.91794,-1.0,-1.0,-1.0,0.05511482,0.0,0.0,0.0,31.14145,6.126144,-29.18895,-1.0,-1.0,-1.0,-0.4070220999999999,1.20125,-0.05334281,0.008549281,0.7991433000000001,0.03767862,0.6498535,-15.77338,33.05
2,-1.0,-1.0,-1.0,0.0,0.0,0.0,0.0,-35.890840000000004,3.477417,-29.91794,-1.0,-1.0,-1.0,0.05511482,0.0,0.0,0.0,31.14145,6.126144,-29.18895,-1.0,-1.0,-1.0,-0.4070220999999999,1.20125,-0.05334281,0.008549281,0.7991433000000001,0.03767862,0.6498535,-15.77338,33.05
2,-1.0,-1.0,-1.0,0.0,0.0,0.0,0.0,-35.890840000000004,3.477417,-29.91794,-1.0,-1.0,-1.0,0.05511482,0.0,0.0,0.0,31.14145,6.126144,-29.18895,-1.0,-1.0,-1.0,-0.4070220999999999,1.20125,-0.05334281,0.008549281,0.7991433000000001,0.03767862,0.6498535,-15.77338,33.05
2,-1.0,-1.0,-1.0,0.0,0.0,0.0,0.0,-35.56677,3.780411,-30.368440000000003,-1.0,0.6042045,0.4776402,0.1447875,0.0,0.0,0.0,31.11812,5.981049,-29.394640000000003,-1.0,0.5014010999999999,0.4576661,-0.40731,1.201509,-0.05338813,0.007039447,0.799146,0.0381439,0.6498535,-15.77338,33.05
2,-1.0,-1.0,-1.0,0.0,0.0,0.0,0.0,-35.56677,3.780411,-30.368440000000003,-1.0,0.6042045,0.4776402,0.1447875,0.0,0.0,0.0,31.11812,5.981049,-29.394640000000003,-1.0,0.5014010999999999,0.4576661,-0.40731,1.201509,-0.05338813,0.007039447,0.799146,0.0381439,0.6498535,-15.77338,33.05
2,-1.0,-1.0,-1.0,0.0,0.0,0.0,0.0,-35.56677,3.780411,-30.368440000000003,-1.0,0.6042045,0.4776402,0.1447875,0.0,0.0,0.0,31.11812,5.981049,-29.394640000000003,-1.0,0.5014010999999999,0.4576661,-0.40731,1.201509,-0.05338813,0.007039447,0.799146,0.0381439,0.6498535,-15.77338,33.05
2,-1.0,-1.0,-1.0,0.2671063,0.0,0.0,0.0,-35.35484,4.806412,-29.61035,-1.0,0.5956643,0.4624043,0.5781313,0.0,0.0,0.0,31.68777,6.611603,-29.20775,-1.0,0.4909728,0.3983870999999999,-0.4075099,1.202063,-0.05353259,0.005087566,0.7992109000000001,0.03924043,0.6498535,-15.77338,33.05
2,-1.0,-1.0,-1.0,0.2671063,0.0,0.0,0.0,-35.35484,4.806412,-29.61035,-1.0,0.5956643,0.4624043,0.5781313,0.0,0.0,0.0,31.68777,6.611603,-29.20775,-1.0,0.4909728,0.3983870999999999,-0.4075099,1.202063,-0.05353259,0.005087566,0.7992109000000001,0.03924043,0.6498535,-15.77338,33.05
2,-1.0,-1.0,-1.0,0.2671063,0.0,0.0,0.0,-35.35484,4.806412,-29.61035,-1.0,0.5956643,0.4624043,0.5781313,0.0,0.0,0.0,31.68777,6.611603,-29.20775,-1.0,0.4909728,0.3983870999999999,-0.4075099,1.202063,-0.05353259,0.005087566,0.7992109000000001,0.03924043,0.6498535,-15.77338,33.05
2,-1.0,-1.0,-1.0,0.4781992,0.0,0.0,0.0,-35.3781,4.831497,-30.09497,-1.0,0.5943581,0.4507062,0.7660255,0.0,0.0,0.0,31.64125,6.554398,-29.22198,-1.0,0.4880218,0.3937676,-0.4078870999999999,1.20253,-0.05354211,0.003082124,0.7994766999999999,0.03983506,0.6498535,-15.77338,33.05
2,-1.0,-1.0,-1.0,0.4781992,0.0,0.0,0.0,-35.3781,4.831497,-30.09497,-1.0,0.5943581,0.4507062,0.7660255,0.0,0.0,0.0,31.64125,6.554398,-29.22198,-1.0,0.4880218,0.3937676,-0.4078870999999999,1.20253,-0.05354211,0.003082124,0.7994766999999999,0.03983506,0.6498535,-15.77338,33.05
2,-1.0,-1.0,-1.0,0.4781992,0.0,0.0,0.0,-35.3781,4.831497,-30.09497,-1.0,0.5943581,0.4507062,0.7660255,0.0,0.0,0.0,31.64125,6.554398,-29.22198,-1.0,0.4880218,0.3937676,-0.4078870999999999,1.20253,-0.05354211,0.003082124,0.7994766999999999,0.03983506,0.6498535,-15.77338,33.05
2,0.2297821,-0.1403656,0.9630585,0.5275944,0.1418152,-0.09638977,0.9851837,-35.4268,4.688324,-29.753390000000003,4.165848,0.5987816999999999,0.4530779,0.8134308000000001,0.2300262,-0.1405029,0.9629822,31.64203,6.49263,-29.18944,3.899658,0.4974042999999999,0.3917111,-0.4082009,1.203145,-0.05340843,0.000786383,0.7997159,0.04097355,0.6498535,26.17871,33.05
2,0.2297821,-0.1403656,0.9630585,0.5275944,0.1418152,-0.09638977,0.9851837,-35.4268,4.688324,-29.753390000000003,4.165848,0.5987816999999999,0.4530779,0.8134308000000001,0.2300262,-0.1405029,0.9629822,31.64203,6.49263,-29.18944,3.899658,0.4974042999999999,0.3917111,-0.4082009,1.203145,-0.05340843,0.000786383,0.7997159,0.04097355,0.6498535,26.17871,33.05
2,0.2297821,-0.1403656,0.9630585,0.5275944,0.1418152,-0.09638977,0.9851837,-35.4268,4.688324,-29.753390000000003,4.165848,0.5987816999999999,0.4530779,0.8134308000000001,0.2300262,-0.1405029,0.9629822,31.64203,6.49263,-29.18944,3.899658,0.4974042999999999,0.3917111,-0.4082009,1.203145,-0.05340843,0.000786383,0.7997159,0.04097355,0.6498535,26.17871,33.05
2,0.2498779,-0.1002808,0.9630585,0.6215008000000001,0.1354523,-0.05778503,0.98909,-35.49342,4.616699,-29.58832,4.484619,0.6021415,0.4474443,0.9115606,0.2501373,-0.1003723,0.9629822,31.61058,6.453979,-29.21605,4.406204,0.4953167999999999,0.3863252,-0.4083587999999999,1.203813,-0.05345895,-0.0019890339999999,0.7999014,0.04250791,0.6498535,26.17871,33.05
2,0.2498779,-0.1002808,0.9630585,0.6215008000000001,0.1354523,-0.05778503,0.98909,-35.49342,4.616699,-29.58832,4.484619,0.6021415,0.4474443,0.9115606,0.2501373,-0.1003723,0.9629822,31.61058,6.453979,-29.21605,4.406204,0.4953167999999999,0.3863252,-0.4083587999999999,1.203813,-0.05345895,-0.0019890339999999,0.7999014,0.04250791,0.6498535,26.17871,33.05
2,0.2498779,-0.1002808,0.9630585,0.6215008000000001,0.1354523,-0.05778503,0.98909,-35.49342,4.616699,-29.58832,4.484619,0.6021415,0.4474443,0.9115606,0.2501373,-0.1003723,0.9629822,31.61058,6.453979,-29.21605,4.406204,0.4953167999999999,0.3863252,-0.4083587999999999,1.203813,-0.05345895,-0.0019890339999999,0.7999014,0.04250791,0.6498535,26.17871,33.05
2,0.2381287,-0.1302948,0.9624481,0.6457506,0.1097716999999999,-0.07774353,0.9909058,-35.50305,4.665131,-29.95103,4.397263,0.6071538000000001,0.4522617999999999,0.9250674,0.2389221,-0.1306152,0.962204,31.5742,6.390717,-29.19949,4.2012480000000005,0.49838,0.3936457,-0.4082328,1.204446,-0.05349424,-0.004261985,0.8000909,0.04458141,0.6498535,26.17871,33.05
2,0.2381287,-0.1302948,0.9624481,0.6457506,0.1097716999999999,-0.07774353,0.9909058,-35.50305,4.665131,-29.95103,4.397263,0.6071538000000001,0.4522617999999999,0.9250674,0.2389221,-0.1306152,0.962204,31.5742,6.390717,-29.19949,4.2012480000000005,0.49838,0.3936457,-0.4082328,1.204446,-0.05349424,-0.004261985,0.8000909,0.04458141,0.6498535,26.17871,33.05
2,0.2381287,-0.1302948,0.9624481,0.6457506,0.1097716999999999,-0.07774353,0.9909058,-35.50305,4.665131,-29.95103,4.397263,0.6071538000000001,0.4522617999999999,0.9250674,0.2389221,-0.1306152,0.962204,31.5742,6.390717,-29.19949,4.2012480000000005,0.49838,0.3936457,-0.4082328,1.204446,-0.05349424,-0.004261985,0.8000909,0.04458141,0.6498535,26.17871,33.05
2,0.197052,-0.1082764,0.9743805,0.6577255,0.1242218,-0.07794189,0.9891815,-35.59026,4.588699,-29.90776,4.436005000000001,0.6076698,0.4545939,0.951954,0.2095795,-0.1134796,0.9711761,31.54985,6.349151999999999,-29.19315,4.149948,0.5042093,0.3917279,-0.4078842,1.205164,-0.05338041,-0.007384498,0.8002338999999999,0.0463431,0.6498535,26.17871,33.05
2,0.197052,-0.1082764,0.9743805,0.6577255,0.1242218,-0.07794189,0.9891815,-35.59026,4.588699,-29.90776,4.436005000000001,0.6076698,0.4545939,0.951954,0.2095795,-0.1134796,0.9711761,31.54985,6.349151999999999,-29.19315,4.149948,0.5042093,0.3917279,-0.4078842,1.205164,-0.05338041,-0.007384498,0.8002338999999999,0.0463431,0.6498535,26.17871,33.05
2,0.197052,-0.1082764,0.9743805,0.6577255,0.1242218,-0.07794189,0.9891815,-35.59026,4.588699,-29.90776,4.436005000000001,0.6076698,0.4545939,0.951954,0.2095795,-0.1134796,0.9711761,31.54985,6.349151999999999,-29.19315,4.149948,0.5042093,0.3917279,-0.4078842,1.205164,-0.05338041,-0.007384498,0.8002338999999999,0.0463431,0.6498535,26.17871,33.05
2,0.2095337,-0.1194305,0.9704742,0.6791291,0.1046599999999999,-0.08630371,0.9907532,-35.559459999999994,4.740753,-30.8446,4.252274,0.610838,0.4590217,0.9409196,0.2101288,-0.1196136,0.9703216999999998,31.49376,6.293533,-29.19182,4.275375,0.5061178,0.3947659,-0.4074219,1.2057950000000002,-0.05344946,-0.009325405,0.8004764,0.04855944,0.6498535,26.17871,33.05
2,0.2095337,-0.1194305,0.9704742,0.6791291,0.1046599999999999,-0.08630371,0.9907532,-35.559459999999994,4.740753,-30.8446,4.252274,0.610838,0.4590217,0.9409196,0.2101288,-0.1196136,0.9703216999999998,31.49376,6.293533,-29.19182,4.275375,0.5061178,0.3947659,-0.4074219,1.2057950000000002,-0.05344946,-0.009325405,0.8004764,0.04855944,0.6498535,26.17871,33.05
2,0.2095337,-0.1194305,0.9704742,0.6791291,0.1046599999999999,-0.08630371,0.9907532,-35.559459999999994,4.740753,-30.8446,4.252274,0.610838,0.4590217,0.9409196,0.2101288,-0.1196136,0.9703216999999998,31.49376,6.293533,-29.19182,4.275375,0.5061178,0.3947659,-0.4074219,1.2057950000000002,-0.05344946,-0.009325405,0.8004764,0.04855944,0.6498535,26.17871,33.05
3,0.1921844,-0.1284637,0.9729004,0.6844557,0.095047,-0.09544373,0.9908752,-35.59856,4.628143,-30.60448,4.349426,0.6136377,0.4623117999999999,0.9576267,0.1921844,-0.1284637,0.9729004,31.514570000000003,6.224548,-29.21695,4.154205,0.5084024,0.3987814,-0.4066895,1.205744,-0.05352851,-0.009825333,0.8008358,0.04930152,0.6498535,27.28058,33.05
3,0.1921844,-0.1284637,0.9729004,0.6844557,0.095047,-0.09544373,0.9908752,-35.59856,4.628143,-30.60448,4.349426,0.6136377,0.4623117999999999,0.9576267,0.1921844,-0.1284637,0.9729004,31.514570000000003,6.224548,-29.21695,4.154205,0.5084024,0.3987814,-0.4066895,1.205744,-0.05352851,-0.009825333,0.8008358,0.04930152,0.6498535,27.28058,33.05
3,0.1921844,-0.1284637,0.9729004,0.6844557,0.095047,-0.09544373,0.9908752,-35.59856,4.628143,-30.60448,4.349426,0.6136377,0.4623117999999999,0.9576267,0.1921844,-0.1284637,0.9729004,31.514570000000003,6.224548,-29.21695,4.154205,0.5084024,0.3987814,-0.4066895,1.205744,-0.05352851,-0.009825333,0.8008358,0.04930152,0.6498535,27.28058,33.05
3,0.2085114,-0.1286163,0.9695129,0.6907904,0.07727051,-0.1056213,0.991394,-35.64377,4.565704,-30.58221,4.3570400000000005,0.6182133000000001,0.4659610999999999,0.9491609,0.2085266,-0.1286163,0.9695129,31.47852,6.138626,-29.233690000000003,4.404433999999999,0.5069783,0.4020616,-0.4060432,1.205666,-0.05363888,-0.01115992,0.801346,0.0501948,0.6498535,27.28058,33.05
3,0.2085114,-0.1286163,0.9695129,0.6907904,0.07727051,-0.1056213,0.991394,-35.64377,4.565704,-30.58221,4.3570400000000005,0.6182133000000001,0.4659610999999999,0.9491609,0.2085266,-0.1286163,0.9695129,31.47852,6.138626,-29.233690000000003,4.404433999999999,0.5069783,0.4020616,-0.4060432,1.205666,-0.05363888,-0.01115992,0.801346,0.0501948,0.6498535,27.28058,33.05
3,0.2085114,-0.1286163,0.9695129,0.6907904,0.07727051,-0.1056213,0.991394,-35.64377,4.565704,-30.58221,4.3570400000000005,0.6182133000000001,0.4659610999999999,0.9491609,0.2085266,-0.1286163,0.9695129,31.47852,6.138626,-29.233690000000003,4.404433999999999,0.5069783,0.4020616,-0.4060432,1.205666,-0.05363888,-0.01115992,0.801346,0.0501948,0.6498535,27.28058,33.05
3,0.1889037999999999,-0.1180725,0.9748688,0.7030935,0.07096863,-0.1334839,0.9884949,-35.69212,4.515121,-30.38631,4.328217,0.6207308000000001,0.4707734,0.9457944,0.1979065,-0.1168213,0.9732208,31.44792,6.150116000000001,-29.23163,4.489944,0.5098962,0.3994942999999999,-0.4054100999999999,1.20586,-0.05401653,-0.01149861,0.8016843000000001,0.05254911,0.6498535,27.28058,33.05
3,0.1889037999999999,-0.1180725,0.9748688,0.7030935,0.07096863,-0.1334839,0.9884949,-35.69212,4.515121,-30.38631,4.328217,0.6207308000000001,0.4707734,0.9457944,0.1979065,-0.1168213,0.9732208,31.44792,6.150116000000001,-29.23163,4.489944,0.5098962,0.3994942999999999,-0.4054100999999999,1.20586,-0.05401653,-0.01149861,0.8016843000000001,0.05254911,0.6498535,27.28058,33.05
3,0.1889037999999999,-0.1180725,0.9748688,0.7030935,0.07096863,-0.1334839,0.9884949,-35.69212,4.515121,-30.38631,4.328217,0.6207308000000001,0.4707734,0.9457944,0.1979065,-0.1168213,0.9732208,31.44792,6.150116000000001,-29.23163,4.489944,0.5098962,0.3994942999999999,-0.4054100999999999,1.20586,-0.05401653,-0.01149861,0.8016843000000001,0.05254911,0.6498535,27.28058,33.05
3,0.1737822999999999,-0.1261139,0.9766693,0.6918038000000001,0.07028198,-0.1387787,0.9878235,-35.79027,4.396484,-30.05571,4.450851,0.6239068,0.4727919,0.9407036,0.1801605,-0.1252898999999999,0.9756165,31.340740000000004,6.107712,-29.21695,4.387405,0.5165572,0.4022248,-0.4049499,1.206161,-0.05438563,-0.01195323,0.8020889,0.05389449,0.6498535,27.28058,33.05
3,0.1737822999999999,-0.1261139,0.9766693,0.6918038000000001,0.07028198,-0.1387787,0.9878235,-35.79027,4.396484,-30.05571,4.450851,0.6239068,0.4727919,0.9407036,0.1801605,-0.1252898999999999,0.9756165,31.340740000000004,6.107712,-29.21695,4.387405,0.5165572,0.4022248,-0.4049499,1.206161,-0.05438563,-0.01195323,0.8020889,0.05389449,0.6498535,27.28058,33.05
3,0.1737822999999999,-0.1261139,0.9766693,0.6918038000000001,0.07028198,-0.1387787,0.9878235,-35.79027,4.396484,-30.05571,4.450851,0.6239068,0.4727919,0.9407036,0.1801605,-0.1252898999999999,0.9756165,31.340740000000004,6.107712,-29.21695,4.387405,0.5165572,0.4022248,-0.4049499,1.206161,-0.05438563,-0.01195323,0.8020889,0.05389449,0.6498535,27.28058,33.05
3,0.1784363,-0.1327819999999999,0.9749451,0.6918038000000001,0.07157898,-0.1338654,0.9884033,-35.8008,4.402557,-30.09262,4.525436,0.6241336,0.4720781,0.9407036,0.1842957,-0.1326752,0.9738617,31.32341,6.108521,-29.21735,4.517761,0.5165272,0.4035417,-0.4046595999999999,1.206408,-0.0547186,-0.01329446,0.8023278,0.05465521,0.6498535,27.28058,33.05
3,0.1784363,-0.1327819999999999,0.9749451,0.6918038000000001,0.07157898,-0.1338654,0.9884033,-35.8008,4.402557,-30.09262,4.525436,0.6241336,0.4720781,0.9407036,0.1842957,-0.1326752,0.9738617,31.32341,6.108521,-29.21735,4.517761,0.5165272,0.4035417,-0.4046595999999999,1.206408,-0.0547186,-0.01329446,0.8023278,0.05465521,0.6498535,27.28058,33.05
3,0.1784363,-0.1327819999999999,0.9749451,0.6918038000000001,0.07157898,-0.1338654,0.9884033,-35.8008,4.402557,-30.09262,4.525436,0.6241336,0.4720781,0.9407036,0.1842957,-0.1326752,0.9738617,31.32341,6.108521,-29.21735,4.517761,0.5165272,0.4035417,-0.4046595999999999,1.206408,-0.0547186,-0.01329446,0.8023278,0.05465521,0.6498535,27.28058,33.05
3,0.1784363,-0.1327819999999999,0.9749451,0.6918038000000001,0.07157898,-0.1338654,0.9884033,-35.8008,4.402557,-30.09262,4.525436,0.6241336,0.4720781,0.9407036,0.1842957,-0.1326752,0.9738617,31.32341,6.108521,-29.21735,4.517761,0.5165272,0.4035417,-0.4048207,1.206343,-0.05507079,-0.01432338,0.802991,0.05434419,0.6498535,9.395752,33.05
3,0.1784363,-0.1327819999999999,0.9749451,0.6918038000000001,0.07157898,-0.1338654,0.9884033,-35.8008,4.402557,-30.09262,4.525436,0.6241336,0.4720781,0.9407036,0.1842957,-0.1326752,0.9738617,31.32341,6.108521,-29.21735,4.517761,0.5165272,0.4035417,-0.4048207,1.206343,-0.05507079,-0.01432338,0.802991,0.05434419,0.6498535,9.395752,33.05
3,0.1784363,-0.1327819999999999,0.9749451,0.6918038000000001,0.07157898,-0.1338654,0.9884033,-35.8008,4.402557,-30.09262,4.525436,0.6241336,0.4720781,0.9407036,0.1842957,-0.1326752,0.9738617,31.32341,6.108521,-29.21735,4.517761,0.5165272,0.4035417,-0.4048207,1.206343,-0.05507079,-0.01432338,0.802991,0.05434419,0.6498535,9.395752,33.05
3,0.1578063999999999,-0.1514434999999999,0.975769,0.6951404,0.05328369,-0.1431274,0.988266,-35.90979,4.313797,-29.93983,4.421799,0.6307517,0.4752576,0.9441326,0.1659851,-0.1520386,0.9743347,31.25613,6.080017,-29.20004,4.517365,0.5219630999999999,0.4077078,-0.4050905999999999,1.206294,-0.05520002,-0.01509778,0.8037395,0.05374797,0.6498535,9.395752,33.05
3,0.1578063999999999,-0.1514434999999999,0.975769,0.6951404,0.05328369,-0.1431274,0.988266,-35.90979,4.313797,-29.93983,4.421799,0.6307517,0.4752576,0.9441326,0.1659851,-0.1520386,0.9743347,31.25613,6.080017,-29.20004,4.517365,0.5219630999999999,0.4077078,-0.4050905999999999,1.206294,-0.05520002,-0.01509778,0.8037395,0.05374797,0.6498535,9.395752,33.05
3,0.1578063999999999,-0.1514434999999999,0.975769,0.6951404,0.05328369,-0.1431274,0.988266,-35.90979,4.313797,-29.93983,4.421799,0.6307517,0.4752576,0.9441326,0.1659851,-0.1520386,0.9743347,31.25613,6.080017,-29.20004,4.517365,0.5219630999999999,0.4077078,-0.4050905999999999,1.206294,-0.05520002,-0.01509778,0.8037395,0.05374797,0.6498535,9.395752,33.05
3,0.1417847,-0.1512908999999999,0.9782562,0.6864029,0.05171204,-0.1390991,0.9889221,-35.98018,4.224319,-29.69128,4.527771,0.6331697,0.4753754,0.9130383,0.1433716,-0.1514893,0.9779968,31.22295,6.062057,-29.19113,4.590622,0.526976,0.4080309,-0.4058512,1.206108,-0.05540573,-0.01496893,0.8044698,0.05269975,0.6498535,9.395752,33.05
3,0.1417847,-0.1512908999999999,0.9782562,0.6864029,0.05171204,-0.1390991,0.9889221,-35.98018,4.224319,-29.69128,4.527771,0.6331697,0.4753754,0.9130383,0.1433716,-0.1514893,0.9779968,31.22295,6.062057,-29.19113,4.590622,0.526976,0.4080309,-0.4058512,1.206108,-0.05540573,-0.01496893,0.8044698,0.05269975,0.6498535,9.395752,33.05
3,0.1417847,-0.1512908999999999,0.9782562,0.6864029,0.05171204,-0.1390991,0.9889221,-35.98018,4.224319,-29.69128,4.527771,0.6331697,0.4753754,0.9130383,0.1433716,-0.1514893,0.9779968,31.22295,6.062057,-29.19113,4.590622,0.526976,0.4080309,-0.4058512,1.206108,-0.05540573,-0.01496893,0.8044698,0.05269975,0.6498535,9.395752,33.05
3,0.1070862,-0.1450806,0.9835968,0.6919512,0.04408264,-0.1435852,0.9886475,-36.012159999999994,4.227356,-29.70418,4.666794,0.6356666,0.4761727,0.8986656999999999,0.1437836,-0.1456908999999999,0.9788208,31.117890000000003,6.0411220000000005,-29.17142,4.7084660000000005,0.5305759,0.4075855,-0.4071702,1.205866,-0.05563456,-0.01406195,0.80507,0.05078624,0.6498535,9.395752,33.05
3,0.1070862,-0.1450806,0.9835968,0.6919512,0.04408264,-0.1435852,0.9886475,-36.012159999999994,4.227356,-29.70418,4.666794,0.6356666,0.4761727,0.8986656999999999,0.1437836,-0.1456908999999999,0.9788208,31.117890000000003,6.0411220000000005,-29.17142,4.7084660000000005,0.5305759,0.4075855,-0.4071702,1.205866,-0.05563456,-0.01406195,0.80507,0.05078624,0.6498535,9.395752,33.05
3,0.1070862,-0.1450806,0.9835968,0.6919512,0.04408264,-0.1435852,0.9886475,-36.012159999999994,4.227356,-29.70418,4.666794,0.6356666,0.4761727,0.8986656999999999,0.1437836,-0.1456908999999999,0.9788208,31.117890000000003,6.0411220000000005,-29.17142,4.7084660000000005,0.5305759,0.4075855,-0.4071702,1.205866,-0.05563456,-0.01406195,0.80507,0.05078624,0.6498535,9.395752,33.05
3,0.1271667,-0.1407318,0.981842,0.6919512,0.04273987,-0.1306305,0.9904938,-36.09047,4.099655,-29.10963,4.732742,0.6378363,0.4729305,0.8986656999999999,0.1389465,-0.1420746,0.9800415,31.09576,6.054214,-29.16722,4.761353,0.5321855999999999,0.4064369,-0.4085368,1.20617,-0.05588441,-0.01374985,0.8057131999999999,0.04933279,0.6498535,9.395752,33.05
3,0.1271667,-0.1407318,0.981842,0.6919512,0.04273987,-0.1306305,0.9904938,-36.09047,4.099655,-29.10963,4.732742,0.6378363,0.4729305,0.8986656999999999,0.1389465,-0.1420746,0.9800415,31.09576,6.054214,-29.16722,4.761353,0.5321855999999999,0.4064369,-0.4085368,1.20617,-0.05588441,-0.01374985,0.8057131999999999,0.04933279,0.6498535,9.395752,33.05
3,0.1271667,-0.1407318,0.981842,0.6919512,0.04273987,-0.1306305,0.9904938,-36.09047,4.099655,-29.10963,4.732742,0.6378363,0.4729305,0.8986656999999999,0.1389465,-0.1420746,0.9800415,31.09576,6.054214,-29.16722,4.761353,0.5321855999999999,0.4064369,-0.4085368,1.20617,-0.05588441,-0.01374985,0.8057131999999999,0.04933279,0.6498535,9.395752,33.05
3,-1.0,-1.0,-1.0,0.5783231,0.0,0.0,0.0,-36.17052,4.412247,-29.81659,-1.0,0.6461256999999999,0.4913558,0.8062239,0.0,0.0,0.0,31.0752,6.138443,-29.147170000000003,-1.0,0.5411015,0.4380838999999999,-0.4092606,1.203117,-0.0614223,-0.009369245,0.8053045,0.04806517,0.6498535,-7.550049,33.05
3,-1.0,-1.0,-1.0,0.5783231,0.0,0.0,0.0,-36.17052,4.412247,-29.81659,-1.0,0.6461256999999999,0.4913558,0.8062239,0.0,0.0,0.0,31.0752,6.138443,-29.147170000000003,-1.0,0.5411015,0.4380838999999999,-0.4092606,1.203117,-0.0614223,-0.009369245,0.8053045,0.04806517,0.6498535,-7.550049,33.05
3,-1.0,-1.0,-1.0,0.5783231,0.0,0.0,0.0,-36.17052,4.412247,-29.81659,-1.0,0.6461256999999999,0.4913558,0.8062239,0.0,0.0,0.0,31.0752,6.138443,-29.147170000000003,-1.0,0.5411015,0.4380838999999999,-0.4092606,1.203117,-0.0614223,-0.009369245,0.8053045,0.04806517,0.6498535,-7.550049,33.05
3,-1.0,-1.0,-1.0,0.0,0.0,0.0,0.0,-36.17052,4.412247,-29.81659,-1.0,-1.0,-1.0,0.03610251,0.0,0.0,0.0,31.0752,6.138443,-29.147170000000003,-1.0,-1.0,-1.0,-0.4109079,1.2037129999999998,-0.05922339,-0.006747629,0.806076,0.04304368,0.6498535,-7.550049,33.05
3,-1.0,-1.0,-1.0,0.0,0.0,0.0,0.0,-36.17052,4.412247,-29.81659,-1.0,-1.0,-1.0,0.03610251,0.0,0.0,0.0,31.0752,6.138443,-29.147170000000003,-1.0,-1.0,-1.0,-0.4109079,1.2037129999999998,-0.05922339,-0.006747629,0.806076,0.04304368,0.6498535,-7.550049,33.05
3,-1.0,-1.0,-1.0,0.0,0.0,0.0,0.0,-36.17052,4.412247,-29.81659,-1.0,-1.0,-1.0,0.03610251,0.0,0.0,0.0,31.0752,6.138443,-29.147170000000003,-1.0,-1.0,-1.0,-0.4109079,1.2037129999999998,-0.05922339,-0.006747629,0.806076,0.04304368,0.6498535,-7.550049,33.05
3,-1.0,-1.0,-1.0,0.0,0.0,0.0,0.0,-36.17052,4.412247,-29.81659,-1.0,-1.0,-1.0,0.01375711,0.0,0.0,0.0,35.74062,6.151001,-35.15433,-1.0,0.1691027999999999,0.5108488,-0.4122295,1.199568,-0.06592617,-0.000149505,0.8047011,0.04221312,0.6498535,-7.550049,33.05
3,-1.0,-1.0,-1.0,0.0,0.0,0.0,0.0,-36.17052,4.412247,-29.81659,-1.0,-1.0,-1.0,0.01375711,0.0,0.0,0.0,35.74062,6.151001,-35.15433,-1.0,0.1691027999999999,0.5108488,-0.4122295,1.199568,-0.06592617,-0.000149505,0.8047011,0.04221312,0.6498535,-7.550049,33.05
3,-1.0,-1.0,-1.0,0.0,0.0,0.0,0.0,-36.17052,4.412247,-29.81659,-1.0,-1.0,-1.0,0.01375711,0.0,0.0,0.0,35.74062,6.151001,-35.15433,-1.0,0.1691027999999999,0.5108488,-0.4122295,1.199568,-0.06592617,-0.000149505,0.8047011,0.04221312,0.6498535,-7.550049,33.05
3,-1.0,-1.0,-1.0,0.0,0.0,0.0,0.0,-34.39993,3.979279,-30.22076,-1.0,0.5335582,0.4999619,0.1320491,0.0,0.0,0.0,35.74062,6.151001,-35.15433,-1.0,-1.0,-1.0,-0.4161180999999999,1.202535,-0.05692302,0.005538415,0.8057525,0.03286288,0.6498535,-7.550049,33.05
3,-1.0,-1.0,-1.0,0.0,0.0,0.0,0.0,-34.39993,3.979279,-30.22076,-1.0,0.5335582,0.4999619,0.1320491,0.0,0.0,0.0,35.74062,6.151001,-35.15433,-1.0,-1.0,-1.0,-0.4161180999999999,1.202535,-0.05692302,0.005538415,0.8057525,0.03286288,0.6498535,-7.550049,33.05
3,-1.0,-1.0,-1.0,0.0,0.0,0.0,0.0,-34.39993,3.979279,-30.22076,-1.0,0.5335582,0.4999619,0.1320491,0.0,0.0,0.0,35.74062,6.151001,-35.15433,-1.0,-1.0,-1.0,-0.4161180999999999,1.202535,-0.05692302,0.005538415,0.8057525,0.03286288,0.6498535,-7.550049,33.05
3,-1.0,-1.0,-1.0,0.0,0.0,0.0,0.0,-35.41946,4.391479,-30.91641,-1.0,0.6067621999999999,0.4701494,0.2770075999999999,0.0,0.0,0.0,31.11925,5.6251370000000005,-29.28073,-1.0,0.5309111,0.4369344,-0.4194478,1.203541,-0.05511811,0.00684574,0.8068243,0.02732603,0.6498535,-7.550049,33.05
3,-1.0,-1.0,-1.0,0.0,0.0,0.0,0.0,-35.41946,4.391479,-30.91641,-1.0,0.6067621999999999,0.4701494,0.2770075999999999,0.0,0.0,0.0,31.11925,5.6251370000000005,-29.28073,-1.0,0.5309111,0.4369344,-0.4194478,1.203541,-0.05511811,0.00684574,0.8068243,0.02732603,0.6498535,-7.550049,33.05
3,-1.0,-1.0,-1.0,0.0,0.0,0.0,0.0,-35.41946,4.391479,-30.91641,-1.0,0.6067621999999999,0.4701494,0.2770075999999999,0.0,0.0,0.0,31.11925,5.6251370000000005,-29.28073,-1.0,0.5309111,0.4369344,-0.4194478,1.203541,-0.05511811,0.00684574,0.8068243,0.02732603,0.6498535,-7.550049,33.05
3,-1.0,-1.0,-1.0,0.2987969,0.0,0.0,0.0,-35.49158,5.11908,-29.52269,-1.0,0.6088029,0.4386884,0.6119289000000001,0.0,0.0,0.0,31.65616,6.854385000000001,-29.12015,-1.0,0.4968092,0.3798389,-0.4221287999999999,1.2038719999999998,-0.05494287,0.009036914,0.8078045,0.02292307,0.6498535,6.712463,33.05
3,-1.0,-1.0,-1.0,0.2987969,0.0,0.0,0.0,-35.49158,5.11908,-29.52269,-1.0,0.6088029,0.4386884,0.6119289000000001,0.0,0.0,0.0,31.65616,6.854385000000001,-29.12015,-1.0,0.4968092,0.3798389,-0.4221287999999999,1.2038719999999998,-0.05494287,0.009036914,0.8078045,0.02292307,0.6498535,6.712463,33.05
3,-1.0,-1.0,-1.0,0.2987969,0.0,0.0,0.0,-35.49158,5.11908,-29.52269,-1.0,0.6088029,0.4386884,0.6119289000000001,0.0,0.0,0.0,31.65616,6.854385000000001,-29.12015,-1.0,0.4968092,0.3798389,-0.4221287999999999,1.2038719999999998,-0.05494287,0.009036914,0.8078045,0.02292307,0.6498535,6.712463,33.05
3,0.1258087,-0.03102112,0.9915619,0.4726159,0.1258087,-0.03102112,0.9915619,-35.52367,5.117828,-29.427570000000003,4.354202,0.6046668000000001,0.4242798,0.7902403,0.2528839,-0.1448974999999999,0.9565735,31.611790000000003,6.873245,-29.10619,3.733429,0.4944525999999999,0.3788675999999999,-0.4244829,1.203867,-0.05552674,0.00946104,0.8090183000000001,0.02044195,0.6498535,6.712463,33.05
3,0.1258087,-0.03102112,0.9915619,0.4726159,0.1258087,-0.03102112,0.9915619,-35.52367,5.117828,-29.427570000000003,4.354202,0.6046668000000001,0.4242798,0.7902403,0.2528839,-0.1448974999999999,0.9565735,31.611790000000003,6.873245,-29.10619,3.733429,0.4944525999999999,0.3788675999999999,-0.4244829,1.203867,-0.05552674,0.00946104,0.8090183000000001,0.02044195,0.6498535,6.712463,33.05
3,0.1258087,-0.03102112,0.9915619,0.4726159,0.1258087,-0.03102112,0.9915619,-35.52367,5.117828,-29.427570000000003,4.354202,0.6046668000000001,0.4242798,0.7902403,0.2528839,-0.1448974999999999,0.9565735,31.611790000000003,6.873245,-29.10619,3.733429,0.4944525999999999,0.3788675999999999,-0.4244829,1.203867,-0.05552674,0.00946104,0.8090183000000001,0.02044195,0.6498535,6.712463,33.05
3,0.2098083,-0.0933075,0.9732666,0.5364201999999999,0.1340637,0.01202393,0.9908905,-35.480990000000006,5.2435,-29.9256,4.558578,0.6024359,0.41702,0.8594003,0.2098693999999999,-0.09338379,0.9732513,31.57603,6.857697,-29.03551,3.657639,0.5030217,0.3692075999999999,-0.4260728,1.203863,-0.05581975,0.0068750619999999,0.8104845,0.01756625,0.6498535,6.712463,33.05
3,0.2098083,-0.0933075,0.9732666,0.5364201999999999,0.1340637,0.01202393,0.9908905,-35.480990000000006,5.2435,-29.9256,4.558578,0.6024359,0.41702,0.8594003,0.2098693999999999,-0.09338379,0.9732513,31.57603,6.857697,-29.03551,3.657639,0.5030217,0.3692075999999999,-0.4260728,1.203863,-0.05581975,0.0068750619999999,0.8104845,0.01756625,0.6498535,6.712463,33.05
3,0.2098083,-0.0933075,0.9732666,0.5364201999999999,0.1340637,0.01202393,0.9908905,-35.480990000000006,5.2435,-29.9256,4.558578,0.6024359,0.41702,0.8594003,0.2098693999999999,-0.09338379,0.9732513,31.57603,6.857697,-29.03551,3.657639,0.5030217,0.3692075999999999,-0.4260728,1.203863,-0.05581975,0.0068750619999999,0.8104845,0.01756625,0.6498535,6.712463,33.05
3,0.2501831,-0.04899597,0.9669495,0.5478085,0.1313171,0.01104736,0.991272,-35.52774,5.193939,-29.74722,4.643967,0.6043731999999999,0.4173698,0.8896497,0.2503357,-0.04907227,0.9669037,31.54947,6.878098,-29.10083,4.118926999999999,0.4971935999999999,0.3615193,-0.4260728,1.203863,-0.05581975,0.0068750619999999,0.8104845,0.01756625,0.6472913,6.712463,33.05
3,0.2501831,-0.04899597,0.9669495,0.5478085,0.1313171,0.01104736,0.991272,-35.52774,5.193939,-29.74722,4.643967,0.6043731999999999,0.4173698,0.8896497,0.2503357,-0.04907227,0.9669037,31.54947,6.878098,-29.10083,4.118926999999999,0.4971935999999999,0.3615193,-0.4260728,1.203863,-0.05581975,0.0068750619999999,0.8104845,0.01756625,0.6472913,6.712463,33.05
3,0.2501831,-0.04899597,0.9669495,0.5478085,0.1313171,0.01104736,0.991272,-35.52774,5.193939,-29.74722,4.643967,0.6043731999999999,0.4173698,0.8896497,0.2503357,-0.04907227,0.9669037,31.54947,6.878098,-29.10083,4.118926999999999,0.4971935999999999,0.3615193,-0.4260728,1.203863,-0.05581975,0.0068750619999999,0.8104845,0.01756625,0.6472913,6.712463,33.05
3,0.2400969999999999,-0.04978943,0.9694672,0.56706,0.1149138999999999,0.0191803,0.9931793,-35.53609,5.255417,-30.04166,4.539001,0.6077142,0.4162265,0.9213102,0.2406768999999999,-0.05010986,0.9692993,31.54947,6.881226,-29.09625,4.187805,0.4989154999999999,0.3614843,-0.4282371,1.202631,-0.05752067,0.006903721,0.8143024,0.01096155,0.6472913,59.1853,33.05
3,0.2400969999999999,-0.04978943,0.9694672,0.56706,0.1149138999999999,0.0191803,0.9931793,-35.53609,5.255417,-30.04166,4.539001,0.6077142,0.4162265,0.9213102,0.2406768999999999,-0.05010986,0.9692993,31.54947,6.881226,-29.09625,4.187805,0.4989154999999999,0.3614843,-0.4282371,1.202631,-0.05752067,0.006903721,0.8143024,0.01096155,0.6472913,59.1853,33.05
3,0.2400969999999999,-0.04978943,0.9694672,0.56706,0.1149138999999999,0.0191803,0.9931793,-35.53609,5.255417,-30.04166,4.539001,0.6077142,0.4162265,0.9213102,0.2406768999999999,-0.05010986,0.9692993,31.54947,6.881226,-29.09625,4.187805,0.4989154999999999,0.3614843,-0.4282371,1.202631,-0.05752067,0.006903721,0.8143024,0.01096155,0.6472913,59.1853,33.05
3,0.205368,-0.05125427,0.9773254,0.6006008,0.0949707,0.04849243,0.9942932,-35.55641,5.291733,-30.2507,4.859924,0.6122947,0.4117689,0.950243,0.2053986,-0.05126953,0.9773254,31.55331,6.843978999999999,-28.98845,4.253769,0.504885,0.3618447999999999,-0.4298075,1.202888,-0.05825299,0.00664695,0.8178701,0.01033713,0.6472913,59.1853,33.05
3,0.205368,-0.05125427,0.9773254,0.6006008,0.0949707,0.04849243,0.9942932,-35.55641,5.291733,-30.2507,4.859924,0.6122947,0.4117689,0.950243,0.2053986,-0.05126953,0.9773254,31.55331,6.843978999999999,-28.98845,4.253769,0.504885,0.3618447999999999,-0.4298075,1.202888,-0.05825299,0.00664695,0.8178701,0.01033713,0.6472913,59.1853,33.05
3,0.205368,-0.05125427,0.9773254,0.6006008,0.0949707,0.04849243,0.9942932,-35.55641,5.291733,-30.2507,4.859924,0.6122947,0.4117689,0.950243,0.2053986,-0.05126953,0.9773254,31.55331,6.843978999999999,-28.98845,4.253769,0.504885,0.3618447999999999,-0.4298075,1.202888,-0.05825299,0.00664695,0.8178701,0.01033713,0.6472913,59.1853,33.05
3,0.2008667,-0.06639099,0.977356,0.6032743,0.1051331,0.05584717,0.9928741,-35.63689,5.054504,-29.441270000000003,4.846558,0.6123859,0.4117888,0.9557164,0.200882,-0.06640625,0.977356,31.54962,6.828689999999999,-28.9778,4.158112,0.5057404000000001,0.3649249,-0.4298075,1.202888,-0.05825299,0.00664695,0.8178701,0.01033713,0.6472913,59.1853,33.05
3,0.2008667,-0.06639099,0.977356,0.6032743,0.1051331,0.05584717,0.9928741,-35.63689,5.054504,-29.441270000000003,4.846558,0.6123859,0.4117888,0.9557164,0.200882,-0.06640625,0.977356,31.54962,6.828689999999999,-28.9778,4.158112,0.5057404000000001,0.3649249,-0.4298075,1.202888,-0.05825299,0.00664695,0.8178701,0.01033713,0.6472913,59.1853,33.05
3,0.2008667,-0.06639099,0.977356,0.6032743,0.1051331,0.05584717,0.9928741,-35.63689,5.054504,-29.441270000000003,4.846558,0.6123859,0.4117888,0.9557164,0.200882,-0.06640625,0.977356,31.54962,6.828689999999999,-28.9778,4.158112,0.5057404000000001,0.3649249,-0.4298075,1.202888,-0.05825299,0.00664695,0.8178701,0.01033713,0.6472913,59.1853,33.05
3,0.1712341,-0.1032867,0.9797974,0.6217060999999999,0.06547546,-0.08242798,0.9944305,-35.6068,4.504074,-29.63417,4.651199,0.618,0.4556449999999999,0.8941894,0.1712952,-0.103302,0.9797821,31.27692,6.21875,-29.07246,4.639816000000001,0.5203793,0.3932663,-0.4307260999999999,1.2030809999999998,-0.05844698,0.006508191,0.8188831,0.01011012,0.6472913,59.1853,33.01
3,0.1712341,-0.1032867,0.9797974,0.6217060999999999,0.06547546,-0.08242798,0.9944305,-35.6068,4.504074,-29.63417,4.651199,0.618,0.4556449999999999,0.8941894,0.1712952,-0.103302,0.9797821,31.27692,6.21875,-29.07246,4.639816000000001,0.5203793,0.3932663,-0.4307260999999999,1.2030809999999998,-0.05844698,0.006508191,0.8188831,0.01011012,0.6472913,59.1853,33.01
3,0.1712341,-0.1032867,0.9797974,0.6217060999999999,0.06547546,-0.08242798,0.9944305,-35.6068,4.504074,-29.63417,4.651199,0.618,0.4556449999999999,0.8941894,0.1712952,-0.103302,0.9797821,31.27692,6.21875,-29.07246,4.639816000000001,0.5203793,0.3932663,-0.4307260999999999,1.2030809999999998,-0.05844698,0.006508191,0.8188831,0.01011012,0.6472913,59.1853,33.01
3,0.1777191,-0.09906006,0.9790649,0.6469828000000001,0.059021,-0.07679749,0.995285,-35.59885,4.655212000000001,-30.23105,4.726379,0.6195682,0.4548004,0.8854913000000001,0.1778412,-0.09909058,0.9790497,31.32108,6.2687230000000005,-29.09747,4.729004,0.5178071,0.3910532,-0.4316522,1.202809,-0.05869323,0.005650946,0.8204165999999999,0.008505595,0.6472913,59.1853,33.01
3,0.1777191,-0.09906006,0.9790649,0.6469828000000001,0.059021,-0.07679749,0.995285,-35.59885,4.655212000000001,-30.23105,4.726379,0.6195682,0.4548004,0.8854913000000001,0.1778412,-0.09909058,0.9790497,31.32108,6.2687230000000005,-29.09747,4.729004,0.5178071,0.3910532,-0.4316522,1.202809,-0.05869323,0.005650946,0.8204165999999999,0.008505595,0.6472913,64.33392,33.01
3,0.1777191,-0.09906006,0.9790649,0.6469828000000001,0.059021,-0.07679749,0.995285,-35.59885,4.655212000000001,-30.23105,4.726379,0.6195682,0.4548004,0.8854913000000001,0.1778412,-0.09909058,0.9790497,31.32108,6.2687230000000005,-29.09747,4.729004,0.5178071,0.3910532,-0.4316522,1.202809,-0.05869323,0.005650946,0.8204165999999999,0.008505595,0.6472913,72.39557,33.01
3,0.1691437,-0.07470703,0.9827423,0.6365814999999999,0.0700531,-0.07643127,0.9945984,-35.64067,4.626266,-29.90581,4.818527,0.61882,0.4529103,0.9113041,0.1740265,-0.07460022,0.9819031,31.33018,6.304596,-29.09657,4.885834,0.5182237,0.385499,-0.433138,1.203551,-0.05919137,0.0004882813,0.8214366,0.009747298,0.6472913,108.101,33.01
3,0.1691437,-0.07470703,0.9827423,0.6365814999999999,0.0700531,-0.07643127,0.9945984,-35.64067,4.626266,-29.90581,4.818527,0.61882,0.4529103,0.9113041,0.1740265,-0.07460022,0.9819031,31.33018,6.304596,-29.09657,4.885834,0.5182237,0.385499,-0.433138,1.203551,-0.05919137,0.0004882813,0.8214366,0.009747298,0.6472913,108.101,33.01
3,0.1691437,-0.07470703,0.9827423,0.6365814999999999,0.0700531,-0.07643127,0.9945984,-35.64067,4.626266,-29.90581,4.818527,0.61882,0.4529103,0.9113041,0.1740265,-0.07460022,0.9819031,31.33018,6.304596,-29.09657,4.885834,0.5182237,0.385499,-0.433138,1.203551,-0.05919137,0.0004882813,0.8214366,0.009747298,0.6472913,108.101,33.01
3,0.187973,-0.08656311,0.9783478,0.643285,0.0682373,-0.05331421,0.9962311,-35.68848,4.471329,-29.44817,5.04541,0.6203462,0.4502610999999999,0.8962402,0.1907959,-0.08734131,0.9777222,31.32376,6.280777,-29.08104,4.823958999999999,0.5155581,0.3885278,-0.433138,1.203551,-0.05919137,0.0004882813,0.8214366,0.009747298,0.6472913,108.101,33.01
3,0.187973,-0.08656311,0.9783478,0.643285,0.0682373,-0.05331421,0.9962311,-35.68848,4.471329,-29.44817,5.04541,0.6203462,0.4502610999999999,0.8962402,0.1907959,-0.08734131,0.9777222,31.32376,6.280777,-29.08104,4.823958999999999,0.5155581,0.3885278,-0.433138,1.203551,-0.05919137,0.0004882813,0.8214366,0.009747298,0.6472913,108.101,33.01
3,0.187973,-0.08656311,0.9783478,0.643285,0.0682373,-0.05331421,0.9962311,-35.68848,4.471329,-29.44817,5.04541,0.6203462,0.4502610999999999,0.8962402,0.1907959,-0.08734131,0.9777222,31.32376,6.280777,-29.08104,4.823958999999999,0.5155581,0.3885278,-0.433138,1.203551,-0.05919137,0.0004882813,0.8214366,0.009747298,0.6472913,108.101,33.01
3,0.187973,-0.08656311,0.9783478,0.643285,0.0682373,-0.05331421,0.9962311,-35.68848,4.471329,-29.44817,5.04541,0.6203462,0.4502610999999999,0.8962402,0.1907959,-0.08734131,0.9777222,31.32376,6.280777,-29.08104,4.823958999999999,0.5155581,0.3885278,-0.4337225999999999,1.203689,-0.05934188,-0.001088413,0.8216441999999999,0.009290585,0.6472913,108.101,33.01
3,0.187973,-0.08656311,0.9783478,0.643285,0.0682373,-0.05331421,0.9962311,-35.68848,4.471329,-29.44817,5.04541,0.6203462,0.4502610999999999,0.8962402,0.1907959,-0.08734131,0.9777222,31.32376,6.280777,-29.08104,4.823958999999999,0.5155581,0.3885278,-0.4337225999999999,1.203689,-0.05934188,-0.001088413,0.8216441999999999,0.009290585,0.6472913,108.101,33.01
3,0.187973,-0.08656311,0.9783478,0.643285,0.0682373,-0.05331421,0.9962311,-35.68848,4.471329,-29.44817,5.04541,0.6203462,0.4502610999999999,0.8962402,0.1907959,-0.08734131,0.9777222,31.32376,6.280777,-29.08104,4.823958999999999,0.5155581,0.3885278,-0.4337225999999999,1.203689,-0.05934188,-0.001088413,0.8216441999999999,0.009290585,0.6472913,108.101,33.01
3,0.1802979,-0.08422852,0.9799957,0.6287328000000001,0.06748962,-0.05418396,0.9962463,-35.69455,4.486771,-29.54793,4.981995,0.6207482,0.4507409,0.8925427,0.181015,-0.08442688,0.9798431,31.32623,6.269012,-29.07303,4.823975,0.5171283,0.3882860999999999,-0.4345777,1.204293,-0.05976531,-0.00268832,0.8224950000000001,0.01090396,0.6472913,108.101,33.01
3,0.1802979,-0.08422852,0.9799957,0.6287328000000001,0.06748962,-0.05418396,0.9962463,-35.69455,4.486771,-29.54793,4.981995,0.6207482,0.4507409,0.8925427,0.181015,-0.08442688,0.9798431,31.32623,6.269012,-29.07303,4.823975,0.5171283,0.3882860999999999,-0.4345777,1.204293,-0.05976531,-0.00268832,0.8224950000000001,0.01090396,0.6472913,108.101,33.01
3,0.1802979,-0.08422852,0.9799957,0.6287328000000001,0.06748962,-0.05418396,0.9962463,-35.69455,4.486771,-29.54793,4.981995,0.6207482,0.4507409,0.8925427,0.181015,-0.08442688,0.9798431,31.32623,6.269012,-29.07303,4.823975,0.5171283,0.3882860999999999,-0.4345777,1.204293,-0.05976531,-0.00268832,0.8224950000000001,0.01090396,0.6472913,108.101,33.01
3,0.1689757999999999,-0.07852173,0.9824829,0.6402403,0.05703735,-0.04931641,0.9971466,-35.675990000000006,4.534301999999999,-29.59421,5.028107,0.6219835,0.4486685,0.9002450000000001,0.1738280999999999,-0.07977295,0.9815216,31.38605,6.321518,-29.04489,4.926804,0.5163411,0.3853801,-0.4345777,1.204293,-0.05976531,-0.00268832,0.8224950000000001,0.01090396,0.6472913,108.101,33.01
3,0.1689757999999999,-0.07852173,0.9824829,0.6402403,0.05703735,-0.04931641,0.9971466,-35.675990000000006,4.534301999999999,-29.59421,5.028107,0.6219835,0.4486685,0.9002450000000001,0.1738280999999999,-0.07977295,0.9815216,31.38605,6.321518,-29.04489,4.926804,0.5163411,0.3853801,-0.4345777,1.204293,-0.05976531,-0.00268832,0.8224950000000001,0.01090396,0.6472913,108.101,33.01
3,0.1689757999999999,-0.07852173,0.9824829,0.6402403,0.05703735,-0.04931641,0.9971466,-35.675990000000006,4.534301999999999,-29.59421,5.028107,0.6219835,0.4486685,0.9002450000000001,0.1738280999999999,-0.07977295,0.9815216,31.38605,6.321518,-29.04489,4.926804,0.5163411,0.3853801,-0.4345777,1.204293,-0.05976531,-0.00268832,0.8224950000000001,0.01090396,0.6472913,108.101,33.01
4,-1.0,-1.0,-1.0,0.2515668,0.0,0.0,0.0,-35.60905,4.802612,-30.660290000000003,-1.0,0.6219376,0.4680452999999999,0.6244031999999999,0.0,0.0,0.0,31.48886,6.443069,-29.04855,-1.0,0.5127974000000001,0.3975870999999999,-0.4348044,1.204565,-0.05958804,-0.004628221,0.8225492,0.01133776,0.6472913,162.3411,33.01
4,-1.0,-1.0,-1.0,0.2515668,0.0,0.0,0.0,-35.60905,4.802612,-30.660290000000003,-1.0,0.6219376,0.4680452999999999,0.6244031999999999,0.0,0.0,0.0,31.48886,6.443069,-29.04855,-1.0,0.5127974000000001,0.3975870999999999,-0.4348044,1.204565,-0.05958804,-0.004628221,0.8225492,0.01133776,0.6472913,162.3411,33.01
4,-1.0,-1.0,-1.0,0.2515668,0.0,0.0,0.0,-35.60905,4.802612,-30.660290000000003,-1.0,0.6219376,0.4680452999999999,0.6244031999999999,0.0,0.0,0.0,31.48886,6.443069,-29.04855,-1.0,0.5127974000000001,0.3975870999999999,-0.4348044,1.204565,-0.05958804,-0.004628221,0.8225492,0.01133776,0.6472913,162.3411,33.01
4,-1.0,-1.0,-1.0,0.0,0.0,0.0,0.0,-36.16078,3.529892,-29.97391,-1.0,-1.0,-1.0,0.05534394,0.0,0.0,0.0,31.4128,5.451447,-29.29286,-1.0,0.04344948,0.5556918000000001,-0.4348044,1.204565,-0.05958804,-0.004628221,0.8225492,0.01133776,0.6472913,162.3411,33.01
4,-1.0,-1.0,-1.0,0.0,0.0,0.0,0.0,-36.16078,3.529892,-29.97391,-1.0,-1.0,-1.0,0.05534394,0.0,0.0,0.0,31.4128,5.451447,-29.29286,-1.0,0.04344948,0.5556918000000001,-0.4348044,1.204565,-0.05958804,-0.004628221,0.8225492,0.01133776,0.6472913,162.3411,33.01
4,-1.0,-1.0,-1.0,0.0,0.0,0.0,0.0,-36.16078,3.529892,-29.97391,-1.0,-1.0,-1.0,0.05534394,0.0,0.0,0.0,31.4128,5.451447,-29.29286,-1.0,0.04344948,0.5556918000000001,-0.4348044,1.204565,-0.05958804,-0.004628221,0.8225492,0.01133776,0.6472913,162.3411,33.01
4,-1.0,-1.0,-1.0,0.0,0.0,0.0,0.0,-36.16078,3.529892,-29.97391,-1.0,-1.0,-1.0,0.01493861,0.0,0.0,0.0,31.4128,5.451447,-29.29286,-1.0,-1.0,-1.0,-0.4349244,1.204418,-0.05964419,-0.004797379,0.8220671999999999,0.010855,0.6472913,162.3411,33.01
4,-1.0,-1.0,-1.0,0.0,0.0,0.0,0.0,-36.16078,3.529892,-29.97391,-1.0,-1.0,-1.0,0.01493861,0.0,0.0,0.0,31.4128,5.451447,-29.29286,-1.0,-1.0,-1.0,-0.4349244,1.204418,-0.05964419,-0.004797379,0.8220671999999999,0.010855,0.6472913,162.3411,33.01
4,-1.0,-1.0,-1.0,0.0,0.0,0.0,0.0,-36.16078,3.529892,-29.97391,-1.0,-1.0,-1.0,0.01493861,0.0,0.0,0.0,31.4128,5.451447,-29.29286,-1.0,-1.0,-1.0,-0.4349244,1.204418,-0.05964419,-0.004797379,0.8220671999999999,0.010855,0.6472913,162.3411,33.01
4,-1.0,-1.0,-1.0,0.0,0.0,0.0,0.0,-35.8596,3.940964,-29.86371,-1.0,0.631538,0.4950028,0.1998805,0.0,0.0,0.0,31.4128,5.451447,-29.29286,-1.0,-1.0,-1.0,-0.4348443,1.2045860000000002,-0.05952599,-0.0084219669999999,0.820207,0.009126746,0.6472913,162.3411,33.01
4,-1.0,-1.0,-1.0,0.0,0.0,0.0,0.0,-35.8596,3.940964,-29.86371,-1.0,0.631538,0.4950028,0.1998805,0.0,0.0,0.0,31.4128,5.451447,-29.29286,-1.0,-1.0,-1.0,-0.4348443,1.2045860000000002,-0.05952599,-0.0084219669999999,0.820207,0.009126746,0.6472913,162.3411,33.01
4,-1.0,-1.0,-1.0,0.0,0.0,0.0,0.0,-35.8596,3.940964,-29.86371,-1.0,0.631538,0.4950028,0.1998805,0.0,0.0,0.0,31.4128,5.451447,-29.29286,-1.0,-1.0,-1.0,-0.4348443,1.2045860000000002,-0.05952599,-0.0084219669999999,0.820207,0.009126746,0.6472913,162.3411,33.01
4,-1.0,-1.0,-1.0,0.0,0.0,0.0,0.0,-36.01874,4.638535,-28.4966,-1.0,0.6366138000000001,0.4639778,0.3136057,0.0,0.0,0.0,31.2271,6.672256,-28.932140000000004,-1.0,0.5355198,0.426134,-0.4348443,1.2045860000000002,-0.05952599,-0.0084219669999999,0.820207,0.009126746,0.6472913,-114.0862,33.01
4,-1.0,-1.0,-1.0,0.0,0.0,0.0,0.0,-36.01874,4.638535,-28.4966,-1.0,0.6366138000000001,0.4639778,0.3136057,0.0,0.0,0.0,31.2271,6.672256,-28.932140000000004,-1.0,0.5355198,0.426134,-0.4348443,1.2045860000000002,-0.05952599,-0.0084219669999999,0.820207,0.009126746,0.6472913,-114.0862,33.01
4,-1.0,-1.0,-1.0,0.0,0.0,0.0,0.0,-36.01874,4.638535,-28.4966,-1.0,0.6366138000000001,0.4639778,0.3136057,0.0,0.0,0.0,31.2271,6.672256,-28.932140000000004,-1.0,0.5355198,0.426134,-0.4348443,1.2045860000000002,-0.05952599,-0.0084219669999999,0.820207,0.009126746,0.6472913,-114.0862,33.01
4,0.08757019,-0.1572571,0.9836578,0.431025,0.0081176759999999,-0.07342529,0.9972534,-35.93428,4.771286,-29.53656,4.883026,0.6391264,0.4439299,0.7379823,0.08757019,-0.1572571,0.9836578,31.21031,6.556824000000001,-28.85291,4.301361,0.5367353,0.3888937,-0.4343479999999999,1.20459,-0.05954054,-0.009376398,0.8196859000000001,0.008577991,0.6472913,-114.0862,33.01
4,0.08757019,-0.1572571,0.9836578,0.431025,0.0081176759999999,-0.07342529,0.9972534,-35.93428,4.771286,-29.53656,4.883026,0.6391264,0.4439299,0.7379823,0.08757019,-0.1572571,0.9836578,31.21031,6.556824000000001,-28.85291,4.301361,0.5367353,0.3888937,-0.4343479999999999,1.20459,-0.05954054,-0.009376398,0.8196859000000001,0.008577991,0.6472913,-114.0862,33.01
4,0.08757019,-0.1572571,0.9836578,0.431025,0.0081176759999999,-0.07342529,0.9972534,-35.93428,4.771286,-29.53656,4.883026,0.6391264,0.4439299,0.7379823,0.08757019,-0.1572571,0.9836578,31.21031,6.556824000000001,-28.85291,4.301361,0.5367353,0.3888937,-0.4343479999999999,1.20459,-0.05954054,-0.009376398,0.8196859000000001,0.008577991,0.6472913,-114.0862,33.01
4,0.1124878,-0.1131287,0.9871826,0.4687098,0.008560181,-0.0506897,0.9986725,-35.98911,4.68219,-29.24986,5.004395,0.640582,0.4406224,0.7621060000000001,0.1124878,-0.1131287,0.9871826,31.198090000000004,6.557678,-28.8582,4.957626,0.5332111999999999,0.381187,-0.4341649,1.204383,-0.05963919,-0.009628865,0.8204424000000001,0.008523971,0.6472913,-114.0862,33.01
4,0.1124878,-0.1131287,0.9871826,0.4687098,0.008560181,-0.0506897,0.9986725,-35.98911,4.68219,-29.24986,5.004395,0.640582,0.4406224,0.7621060000000001,0.1124878,-0.1131287,0.9871826,31.198090000000004,6.557678,-28.8582,4.957626,0.5332111999999999,0.381187,-0.4341649,1.204383,-0.05963919,-0.009628865,0.8204424000000001,0.008523971,0.6472913,-114.0862,33.01
4,0.1124878,-0.1131287,0.9871826,0.4687098,0.008560181,-0.0506897,0.9986725,-35.98911,4.68219,-29.24986,5.004395,0.640582,0.4406224,0.7621060000000001,0.1124878,-0.1131287,0.9871826,31.198090000000004,6.557678,-28.8582,4.957626,0.5332111999999999,0.381187,-0.4341649,1.204383,-0.05963919,-0.009628865,0.8204424000000001,0.008523971,0.6472913,-114.0862,33.01
4,0.09713745,-0.1081085,0.9893799,0.5433784,0.001800537,-0.01963806,0.9998016,-35.94893,4.790436,-29.76596,5.224625,0.6411804,0.4362092999999999,0.8338718,0.09713745,-0.1081085,0.9893799,31.17848,6.488022,-28.81378,4.84259,0.5363929000000001,0.382308,-0.4340925999999999,1.204237,-0.05950252,-0.009312212,0.8208313,0.008055253,0.6472913,-114.0862,33.01
4,0.09713745,-0.1081085,0.9893799,0.5433784,0.001800537,-0.01963806,0.9998016,-35.94893,4.790436,-29.76596,5.224625,0.6411804,0.4362092999999999,0.8338718,0.09713745,-0.1081085,0.9893799,31.17848,6.488022,-28.81378,4.84259,0.5363929000000001,0.382308,-0.4340925999999999,1.204237,-0.05950252,-0.009312212,0.8208313,0.008055253,0.6472913,-114.0862,33.01
4,0.09713745,-0.1081085,0.9893799,0.5433784,0.001800537,-0.01963806,0.9998016,-35.94893,4.790436,-29.76596,5.224625,0.6411804,0.4362092999999999,0.8338718,0.09713745,-0.1081085,0.9893799,31.17848,6.488022,-28.81378,4.84259,0.5363929000000001,0.382308,-0.4340925999999999,1.204237,-0.05950252,-0.009312212,0.8208313,0.008055253,0.6472913,-114.0862,33.01
4,0.09970093,-0.09057617,0.9908752,0.584047,-0.004699707,-0.04371643,0.9990234,-35.9758,4.825027,-29.77205,5.0943760000000005,0.6431439999999999,0.4391246,0.8669043,0.1014557,-0.09135437,0.9906311,31.16837,6.465454,-28.70311,4.99231,0.5360253,0.3792487,-0.4337794,1.204465,-0.05941527,-0.01020839,0.8205785,0.008172788,0.6472913,-114.0862,33.01
4,0.09970093,-0.09057617,0.9908752,0.584047,-0.004699707,-0.04371643,0.9990234,-35.9758,4.825027,-29.77205,5.0943760000000005,0.6431439999999999,0.4391246,0.8669043,0.1014557,-0.09135437,0.9906311,31.16837,6.465454,-28.70311,4.99231,0.5360253,0.3792487,-0.4337794,1.204465,-0.05941527,-0.01020839,0.8205785,0.008172788,0.6472913,-114.0862,33.01
4,0.09970093,-0.09057617,0.9908752,0.584047,-0.004699707,-0.04371643,0.9990234,-35.9758,4.825027,-29.77205,5.0943760000000005,0.6431439999999999,0.4391246,0.8669043,0.1014557,-0.09135437,0.9906311,31.16837,6.465454,-28.70311,4.99231,0.5360253,0.3792487,-0.4337794,1.204465,-0.05941527,-0.01020839,0.8205785,0.008172788,0.6472913,-114.0862,33.01
4,0.09970093,-0.09057617,0.9908752,0.584047,-0.004699707,-0.04371643,0.9990234,-35.9758,4.825027,-29.77205,5.0943760000000005,0.6431439999999999,0.4391246,0.8669043,0.1014557,-0.09135437,0.9906311,31.16837,6.465454,-28.70311,4.99231,0.5360253,0.3792487,-0.4336519,1.204494,-0.05898109,-0.01253942,0.8203658000000001,0.008605741,0.6472913,131.8519,33.01
4,0.09970093,-0.09057617,0.9908752,0.584047,-0.004699707,-0.04371643,0.9990234,-35.9758,4.825027,-29.77205,5.0943760000000005,0.6431439999999999,0.4391246,0.8669043,0.1014557,-0.09135437,0.9906311,31.16837,6.465454,-28.70311,4.99231,0.5360253,0.3792487,-0.4336519,1.204494,-0.05898109,-0.01253942,0.8203658000000001,0.008605741,0.6472913,131.8519,33.01
4,0.09970093,-0.09057617,0.9908752,0.584047,-0.004699707,-0.04371643,0.9990234,-35.9758,4.825027,-29.77205,5.0943760000000005,0.6431439999999999,0.4391246,0.8669043,0.1014557,-0.09135437,0.9906311,31.16837,6.465454,-28.70311,4.99231,0.5360253,0.3792487,-0.4336519,1.204494,-0.05898109,-0.01253942,0.8203658000000001,0.008605741,0.6472913,131.8519,33.01
4,0.1116638,-0.09364319,0.9893188,0.5812134,-0.0018463129999999,-0.01422119,0.9998932,-35.99109,4.817444,-29.6794,5.294525,0.643224,0.4335965,0.870087,0.1129303,-0.0945281999999999,0.98909,31.16393,6.513504,-28.83051,4.91983,0.5342766999999999,0.3792515999999999,-0.4336143,1.204443,-0.05855377,-0.01156838,0.8195440999999999,0.01003133,0.6472913,131.8519,33.01
4,0.1116638,-0.09364319,0.9893188,0.5812134,-0.0018463129999999,-0.01422119,0.9998932,-35.99109,4.817444,-29.6794,5.294525,0.643224,0.4335965,0.870087,0.1129303,-0.0945281999999999,0.98909,31.16393,6.513504,-28.83051,4.91983,0.5342766999999999,0.3792515999999999,-0.4336143,1.204443,-0.05855377,-0.01156838,0.8195440999999999,0.01003133,0.6472913,131.8519,33.01
4,0.1116638,-0.09364319,0.9893188,0.5812134,-0.0018463129999999,-0.01422119,0.9998932,-35.99109,4.817444,-29.6794,5.294525,0.643224,0.4335965,0.870087,0.1129303,-0.0945281999999999,0.98909,31.16393,6.513504,-28.83051,4.91983,0.5342766999999999,0.3792515999999999,-0.4336143,1.204443,-0.05855377,-0.01156838,0.8195440999999999,0.01003133,0.6472913,131.8519,33.01
4,0.08732605,-0.102005,0.9909363,0.5724365,-0.007293701,-0.04704285,0.9988556,-36.06364,4.839111,-29.41063,5.106323000000001,0.6461058000000001,0.4360710999999999,0.8879372,0.09002686,-0.1035767,0.9905243,31.11731,6.437790000000001,-28.34843,4.914459,0.5394968000000001,0.3793710999999999,-0.4334284,1.204524,-0.05798785,-0.01222015,0.8179746,0.009897863,0.6472913,131.8519,33.01
4,0.08732605,-0.102005,0.9909363,0.5724365,-0.007293701,-0.04704285,0.9988556,-36.06364,4.839111,-29.41063,5.106323000000001,0.6461058000000001,0.4360710999999999,0.8879372,0.09002686,-0.1035767,0.9905243,31.11731,6.437790000000001,-28.34843,4.914459,0.5394968000000001,0.3793710999999999,-0.4334284,1.204524,-0.05798785,-0.01222015,0.8179746,0.009897863,0.6472913,131.8519,33.01
4,0.08732605,-0.102005,0.9909363,0.5724365,-0.007293701,-0.04704285,0.9988556,-36.06364,4.839111,-29.41063,5.106323000000001,0.6461058000000001,0.4360710999999999,0.8879372,0.09002686,-0.1035767,0.9905243,31.11731,6.437790000000001,-28.34843,4.914459,0.5394968000000001,0.3793710999999999,-0.4334284,1.204524,-0.05798785,-0.01222015,0.8179746,0.009897863,0.6472913,131.8519,33.01
4,-1.0,-1.0,-1.0,0.0,0.0,0.0,0.0,-36.19109,3.765717,-29.936,-1.0,-1.0,-1.0,0.1456045,0.0,0.0,0.0,30.93443,5.643433,-28.99643,-1.0,0.5683973000000001,0.5014628,-0.4331397,1.205098,-0.0574687,-0.0125987,0.8169484,0.01330958,0.6472913,131.8519,33.01
4,-1.0,-1.0,-1.0,0.0,0.0,0.0,0.0,-36.19109,3.765717,-29.936,-1.0,-1.0,-1.0,0.1456045,0.0,0.0,0.0,30.93443,5.643433,-28.99643,-1.0,0.5683973000000001,0.5014628,-0.4331397,1.205098,-0.0574687,-0.0125987,0.8169484,0.01330958,0.6472913,131.8519,33.01
4,-1.0,-1.0,-1.0,0.0,0.0,0.0,0.0,-36.19109,3.765717,-29.936,-1.0,-1.0,-1.0,0.1456045,0.0,0.0,0.0,30.93443,5.643433,-28.99643,-1.0,0.5683973000000001,0.5014628,-0.4331397,1.205098,-0.0574687,-0.0125987,0.8169484,0.01330958,0.6472913,131.8519,33.01
4,-1.0,-1.0,-1.0,0.0,0.0,0.0,0.0,-36.19109,3.765717,-29.936,-1.0,-1.0,-1.0,0.0246254,0.0,0.0,0.0,30.93443,5.643433,-28.99643,-1.0,-1.0,-1.0,-0.4330482,1.205269,-0.05709435,-0.01265299,0.8163234,0.01470327,0.6472913,131.8519,33.01
4,-1.0,-1.0,-1.0,0.0,0.0,0.0,0.0,-36.19109,3.765717,-29.936,-1.0,-1.0,-1.0,0.0246254,0.0,0.0,0.0,30.93443,5.643433,-28.99643,-1.0,-1.0,-1.0,-0.4330482,1.205269,-0.05709435,-0.01265299,0.8163234,0.01470327,0.6472913,131.8519,33.01
4,-1.0,-1.0,-1.0,0.0,0.0,0.0,0.0,-36.19109,3.765717,-29.936,-1.0,-1.0,-1.0,0.0246254,0.0,0.0,0.0,30.93443,5.643433,-28.99643,-1.0,-1.0,-1.0,-0.4330482,1.205269,-0.05709435,-0.01265299,0.8163234,0.01470327,0.6472913,131.8519,33.01
4,-1.0,-1.0,-1.0,0.0,0.0,0.0,0.0,-36.19109,3.765717,-29.936,-1.0,-1.0,-1.0,0.06642399,0.0,0.0,0.0,30.93443,5.643433,-28.99643,-1.0,-1.0,-1.0,-0.4329907,1.205482,-0.05642964,-0.01281099,0.8151801,0.01418329,0.6472913,131.8519,33.01
4,-1.0,-1.0,-1.0,0.0,0.0,0.0,0.0,-36.19109,3.765717,-29.936,-1.0,-1.0,-1.0,0.06642399,0.0,0.0,0.0,30.93443,5.643433,-28.99643,-1.0,-1.0,-1.0,-0.4329907,1.205482,-0.05642964,-0.01281099,0.8151801,0.01418329,0.6472913,131.8519,33.01
4,-1.0,-1.0,-1.0,0.0,0.0,0.0,0.0,-36.19109,3.765717,-29.936,-1.0,-1.0,-1.0,0.06642399,0.0,0.0,0.0,30.93443,5.643433,-28.99643,-1.0,-1.0,-1.0,-0.4329907,1.205482,-0.05642964,-0.01281099,0.8151801,0.01418329,0.6472913,131.8519,33.01
4,-1.0,-1.0,-1.0,0.0,0.0,0.0,0.0,-35.800540000000005,4.303864,-29.79913,-1.0,0.628408,0.4775968,0.3314327,0.0,0.0,0.0,30.93443,5.643433,-28.99643,-1.0,0.5199653000000001,0.4255354,-0.4326605999999999,1.20556,-0.05600545,-0.01144014,0.8145031,0.01727327,0.6472913,183.1127,33.01
4,-1.0,-1.0,-1.0,0.0,0.0,0.0,0.0,-35.800540000000005,4.303864,-29.79913,-1.0,0.628408,0.4775968,0.3314327,0.0,0.0,0.0,30.93443,5.643433,-28.99643,-1.0,0.5199653000000001,0.4255354,-0.4326605999999999,1.20556,-0.05600545,-0.01144014,0.8145031,0.01727327,0.6472913,183.1127,33.01
4,-1.0,-1.0,-1.0,0.0,0.0,0.0,0.0,-35.800540000000005,4.303864,-29.79913,-1.0,0.628408,0.4775968,0.3314327,0.0,0.0,0.0,30.93443,5.643433,-28.99643,-1.0,0.5199653000000001,0.4255354,-0.4326605999999999,1.20556,-0.05600545,-0.01144014,0.8145031,0.01727327,0.6472913,183.1127,33.01
4,-1.0,-1.0,-1.0,0.1208277,0.0,0.0,0.0,-35.90785,4.879929,-29.43271,-1.0,0.6337025,0.4691669,0.5303462,0.0,0.0,0.0,31.29443,6.717528999999999,-28.78569,-1.0,0.5190176,0.4026079999999999,-0.4319414000000001,1.205979,-0.05494213,-0.01185968,0.8132636,0.02130153,0.6472913,183.1127,33.01
4,-1.0,-1.0,-1.0,0.1208277,0.0,0.0,0.0,-35.90785,4.879929,-29.43271,-1.0,0.6337025,0.4691669,0.5303462,0.0,0.0,0.0,31.29443,6.717528999999999,-28.78569,-1.0,0.5190176,0.4026079999999999,-0.4319414000000001,1.205979,-0.05494213,-0.01185968,0.8132636,0.02130153,0.6472913,183.1127,33.01
4,-1.0,-1.0,-1.0,0.1208277,0.0,0.0,0.0,-35.90785,4.879929,-29.43271,-1.0,0.6337025,0.4691669,0.5303462,0.0,0.0,0.0,31.29443,6.717528999999999,-28.78569,-1.0,0.5190176,0.4026079999999999,-0.4319414000000001,1.205979,-0.05494213,-0.01185968,0.8132636,0.02130153,0.6472913,183.1127,33.01
4,0.1537476,-0.2180786,0.9637299,0.3316724,0.01617432,-0.2056579999999999,0.9784851,-35.97762,4.848801,-29.468020000000003,4.336166,0.6388543999999999,0.4637652,0.6670149999999999,0.1703644,-0.2193146,0.9606476,31.2236,6.650421000000001,-28.78482,5.187332,0.5227184,0.3964205,-0.4318385,1.205976,-0.05445926,-0.01033028,0.8127925,0.02258087,0.6472913,183.1127,33.01
4,0.1537476,-0.2180786,0.9637299,0.3316724,0.01617432,-0.2056579999999999,0.9784851,-35.97762,4.848801,-29.468020000000003,4.336166,0.6388543999999999,0.4637652,0.6670149999999999,0.1703644,-0.2193146,0.9606476,31.2236,6.650421000000001,-28.78482,5.187332,0.5227184,0.3964205,-0.4318385,1.205976,-0.05445926,-0.01033028,0.8127925,0.02258087,0.6472913,183.1127,33.01
4,0.1537476,-0.2180786,0.9637299,0.3316724,0.01617432,-0.2056579999999999,0.9784851,-35.97762,4.848801,-29.468020000000003,4.336166,0.6388543999999999,0.4637652,0.6670149999999999,0.1703644,-0.2193146,0.9606476,31.2236,6.650421000000001,-28.78482,5.187332,0.5227184,0.3964205,-0.4318385,1.205976,-0.05445926,-0.01033028,0.8127925,0.02258087,0.6472913,183.1127,33.01
4,0.1486359,-0.1832123,0.971756,0.369532,0.01983643,-0.1757507,0.9842224,-35.90782,5.061691000000001,-30.23662,4.792908000000001,0.6371022,0.4580404999999999,0.6905736,0.1488342,-0.1832275,0.9717255,31.23547,6.579117,-28.79688,4.997025,0.5257978,0.3924647,-0.4318385,1.205976,-0.05445926,-0.01033028,0.8127925,0.02258087,0.6472913,183.1127,33.01
4,0.1486359,-0.1832123,0.971756,0.369532,0.01983643,-0.1757507,0.9842224,-35.90782,5.061691000000001,-30.23662,4.792908000000001,0.6371022,0.4580404999999999,0.6905736,0.1488342,-0.1832275,0.9717255,31.23547,6.579117,-28.79688,4.997025,0.5257978,0.3924647,-0.4318385,1.205976,-0.05445926,-0.01033028,0.8127925,0.02258087,0.6472913,183.1127,33.01
4,0.1486359,-0.1832123,0.971756,0.369532,0.01983643,-0.1757507,0.9842224,-35.90782,5.061691000000001,-30.23662,4.792908000000001,0.6371022,0.4580404999999999,0.6905736,0.1488342,-0.1832275,0.9717255,31.23547,6.579117,-28.79688,4.997025,0.5257978,0.3924647,-0.4318385,1.205976,-0.05445926,-0.01033028,0.8127925,0.02258087,0.6472913,183.1127,33.01
4,0.1471405,-0.1720428,0.9740295,0.4915207,0.02278137,-0.1436157,0.9893646,-36.06285,4.715836,-28.92412,5.099075,0.6402909000000001,0.4526574,0.7884808000000001,0.1471405,-0.1720428,0.9740295,31.14992,6.461288,-28.804990000000004,5.219879,0.5291151999999999,0.3946060999999999,-0.4312295,1.2062540000000002,-0.05310493,-0.00715232,0.8117840999999999,0.02781838,0.6472913,-261.9156,33.01
