Second,eye_comb_direction_x,eye_comb_direction_y,eye_comb_direction_z,eye_r_openness,eye_r_direction_x,eye_r_direction_y,eye_r_direction_z,eye_r_origin_x,eye_r_origin_y,eye_r_origin_z,eye_r_pupil_diameter,eye_r_pupil_position_x,eye_r_pupil_position_y,eye_l_openness,eye_l_direction_x,eye_l_direction_y,eye_l_direction_z,eye_l_origin_x,eye_l_origin_y,eye_l_origin_z,eye_l_pupil_diameter,eye_l_pupil_position_x,eye_l_pupil_position_y,head_position_x,head_position_y,head_position_z,head_rotation_roll,head_rotation_pitch,head_rotation_yaw,EDA,BVP,TMP
0,-0.002578735,-0.04907227,0.9987793,1.0,-0.002639771,-0.04907227,0.9987793,-36.266740000000006,5.733475,-27.921940000000003,4.981934,0.6505768,0.393183,1.0,0.1261444,-0.03799438,0.991272,31.08669,7.798980999999999,-26.220540000000003,5.17514,0.5340916,0.3041893,-0.4768028,1.1910040000000002,-0.0298033,-0.0313017,0.8109122,0.05541226,0.310293,0.49126113623742473,32.51277162977867
0,-0.002578735,-0.04907227,0.9987793,1.0,-0.002639771,-0.04907227,0.9987793,-36.266740000000006,5.733475,-27.921940000000003,4.981934,0.6505768,0.393183,1.0,0.1261444,-0.03799438,0.991272,31.08669,7.798980999999999,-26.220540000000003,5.17514,0.5340916,0.3041893,-0.4768028,1.1910040000000002,-0.0298033,-0.0313017,0.8109122,0.05541226,0.310293,0.49126113623742473,32.51277162977867
0,-0.002578735,-0.04907227,0.9987793,1.0,-0.002639771,-0.04907227,0.9987793,-36.266740000000006,5.733475,-27.921940000000003,4.981934,0.6505768,0.393183,1.0,0.1261444,-0.03799438,0.991272,31.08669,7.798980999999999,-26.220540000000003,5.17514,0.5340916,0.3041893,-0.4768028,1.1910040000000002,-0.0298033,-0.0313017,0.8109122,0.05541226,0.310293,0.49126113623742473,32.51277162977867
0,-0.002578735,-0.04907227,0.9987793,1.0,-0.002639771,-0.04907227,0.9987793,-36.266740000000006,5.733475,-27.921940000000003,4.981934,0.6505768,0.393183,1.0,0.1261444,-0.03799438,0.991272,31.08669,7.798980999999999,-26.220540000000003,5.17514,0.5340916,0.3041893,-0.4768028,1.1910040000000002,-0.0298033,-0.0313017,0.8109122,0.05541226,0.310293,0.49126113623742473,32.51277162977867
0,-0.003219604,-0.04908752,0.9987793,1.0,-0.006271362,-0.04934692,0.9987488,-36.26926,5.73111,-27.90797,4.946945,0.6512358,0.393183,1.0,0.125412,-0.03787231,0.9913788,31.08322,7.806107000000001,-26.25388,5.163208,0.5343446,0.3041615,-0.4766639,1.190907,-0.03004767,-0.03098014,0.8098496999999999,0.05472986,0.310293,0.49126113623742473,32.51277162977867
0,-0.003219604,-0.04908752,0.9987793,1.0,-0.006271362,-0.04934692,0.9987488,-36.26926,5.73111,-27.90797,4.946945,0.6512358,0.393183,1.0,0.125412,-0.03787231,0.9913788,31.08322,7.806107000000001,-26.25388,5.163208,0.5343446,0.3041615,-0.4766639,1.190907,-0.03004767,-0.03098014,0.8098496999999999,0.05472986,0.310293,0.49126113623742473,32.51277162977867
0,-0.003219604,-0.04908752,0.9987793,1.0,-0.006271362,-0.04934692,0.9987488,-36.26926,5.73111,-27.90797,4.946945,0.6512358,0.393183,1.0,0.125412,-0.03787231,0.9913788,31.08322,7.806107000000001,-26.25388,5.163208,0.5343446,0.3041615,-0.4766639,1.190907,-0.03004767,-0.03098014,0.8098496999999999,0.05472986,0.310293,0.49126113623742473,32.51277162977867
0,0.04743958,-0.04063416,0.9980316,1.0,-0.006958008,-0.04919434,0.998764,-36.27837,5.728546,-27.885590000000004,4.847443,0.6515691,0.3930412,1.0,0.117569,-0.02938843,0.9926146999999998,31.07314,7.807114,-26.250840000000004,5.061234,0.5359491999999999,0.3026110999999999,-0.4765553,1.190855,-0.03016521,-0.03094284,0.8089703,0.054379,0.310293,0.49126113623742473,32.51277162977867
0,0.04743958,-0.04063416,0.9980316,1.0,-0.006958008,-0.04919434,0.998764,-36.27837,5.728546,-27.885590000000004,4.847443,0.6515691,0.3930412,1.0,0.117569,-0.02938843,0.9926146999999998,31.07314,7.807114,-26.250840000000004,5.061234,0.5359491999999999,0.3026110999999999,-0.4765553,1.190855,-0.03016521,-0.03094284,0.8089703,0.054379,0.310293,0.49126113623742473,32.51277162977867
0,0.04743958,-0.04063416,0.9980316,1.0,-0.006958008,-0.04919434,0.998764,-36.27837,5.728546,-27.885590000000004,4.847443,0.6515691,0.3930412,1.0,0.117569,-0.02938843,0.9926146999999998,31.07314,7.807114,-26.250840000000004,5.061234,0.5359491999999999,0.3026110999999999,-0.4765553,1.190855,-0.03016521,-0.03094284,0.8089703,0.054379,0.310293,0.49126113623742473,32.51277162977867
0,-0.009780884,-0.0484314,0.998764,1.0,-0.00982666,-0.0484314,0.998764,-36.28326,5.730362,-27.885590000000004,4.790771,0.6521906,0.3928498,1.0,0.1056366,-0.0276947,0.9940033,31.0625,8.034514999999999,-27.3033,4.834885,0.538766,0.3023048,-0.4764442,1.19084,-0.0301897999999999,-0.03099997,0.8080313,0.05405172,0.310293,0.49126113623742473,32.51277162977867
0,-0.009780884,-0.0484314,0.998764,1.0,-0.00982666,-0.0484314,0.998764,-36.28326,5.730362,-27.885590000000004,4.790771,0.6521906,0.3928498,1.0,0.1056366,-0.0276947,0.9940033,31.0625,8.034514999999999,-27.3033,4.834885,0.538766,0.3023048,-0.4764442,1.19084,-0.0301897999999999,-0.03099997,0.8080313,0.05405172,0.310293,0.49126113623742473,32.51277162977867
0,-0.009780884,-0.0484314,0.998764,1.0,-0.00982666,-0.0484314,0.998764,-36.28326,5.730362,-27.885590000000004,4.790771,0.6521906,0.3928498,1.0,0.1056366,-0.0276947,0.9940033,31.0625,8.034514999999999,-27.3033,4.834885,0.538766,0.3023048,-0.4764442,1.19084,-0.0301897999999999,-0.03099997,0.8080313,0.05405172,0.310293,0.49126113623742473,32.51277162977867
0,-0.008377075,-0.04850769,0.9987793,1.0,-0.008377075,-0.04850769,0.9987793,-36.29475,5.72905,-27.852190000000004,4.691177,0.6522321999999999,0.3926142,1.0,0.1057587,-0.02732849,0.9940033,31.0625,8.056519,-27.3967,4.766464,0.5387813,0.3020675,-0.4763342,1.190862,-0.03029875,-0.03121517,0.8069456,0.05390534,0.310293,0.49126113623742473,32.51277162977867
0,-0.008377075,-0.04850769,0.9987793,1.0,-0.008377075,-0.04850769,0.9987793,-36.29475,5.72905,-27.852190000000004,4.691177,0.6522321999999999,0.3926142,1.0,0.1057587,-0.02732849,0.9940033,31.0625,8.056519,-27.3967,4.766464,0.5387813,0.3020675,-0.4763342,1.190862,-0.03029875,-0.03121517,0.8069456,0.05390534,0.310293,0.49126113623742473,32.51277162977867
0,-0.008377075,-0.04850769,0.9987793,1.0,-0.008377075,-0.04850769,0.9987793,-36.29475,5.72905,-27.852190000000004,4.691177,0.6522321999999999,0.3926142,1.0,0.1057587,-0.02732849,0.9940033,31.0625,8.056519,-27.3967,4.766464,0.5387813,0.3020675,-0.4763342,1.190862,-0.03029875,-0.03121517,0.8069456,0.05390534,0.310293,0.49126113623742473,32.51277162977867
0,-0.01013184,-0.0488739,0.9987488,1.0,-0.01013184,-0.0488739,0.9987488,-36.29597,5.728546,-27.83636,4.669785,0.6525384,0.392561,1.0,0.1040039,-0.02993774,0.9941101,31.06235,8.070587,-27.4559,4.734863,0.5390986,0.3024777,-0.4762657,1.190861,-0.03034807,-0.03127824,0.8055988000000001,0.05392075,0.310293,0.49126113623742473,32.51277162977867
0,-0.01013184,-0.0488739,0.9987488,1.0,-0.01013184,-0.0488739,0.9987488,-36.29597,5.728546,-27.83636,4.669785,0.6525384,0.392561,1.0,0.1040039,-0.02993774,0.9941101,31.06235,8.070587,-27.4559,4.734863,0.5390986,0.3024777,-0.4762657,1.190861,-0.03034807,-0.03127824,0.8055988000000001,0.05392075,0.310293,0.49126113623742473,32.51277162977867
0,-0.01013184,-0.0488739,0.9987488,1.0,-0.01013184,-0.0488739,0.9987488,-36.29597,5.728546,-27.83636,4.669785,0.6525384,0.392561,1.0,0.1040039,-0.02993774,0.9941101,31.06235,8.070587,-27.4559,4.734863,0.5390986,0.3024777,-0.4762657,1.190861,-0.03034807,-0.03127824,0.8055988000000001,0.05392075,0.310293,0.49126113623742473,32.51277162977867
0,0.02096558,-0.03326416,0.9992218,1.0,-0.01609802,-0.03640747,0.9992065,-36.43013,5.734726,-27.84753,4.39061,0.6580411,0.3901918,1.0,0.09759521,-0.02662659,0.9948578,31.05672,8.074356,-27.47012,4.657287999999999,0.5403555999999999,0.3018393,-0.4761425,1.1908450000000002,-0.03033957,-0.03158993,0.803388,0.05391287,0.310293,0.49126113623742473,32.51277162977867
0,0.02096558,-0.03326416,0.9992218,1.0,-0.01609802,-0.03640747,0.9992065,-36.43013,5.734726,-27.84753,4.39061,0.6580411,0.3901918,1.0,0.09759521,-0.02662659,0.9948578,31.05672,8.074356,-27.47012,4.657287999999999,0.5403555999999999,0.3018393,-0.4761425,1.1908450000000002,-0.03033957,-0.03158993,0.803388,0.05391287,0.310293,0.49126113623742473,32.51277162977867
0,0.02096558,-0.03326416,0.9992218,1.0,-0.01609802,-0.03640747,0.9992065,-36.43013,5.734726,-27.84753,4.39061,0.6580411,0.3901918,1.0,0.09759521,-0.02662659,0.9948578,31.05672,8.074356,-27.47012,4.657287999999999,0.5403555999999999,0.3018393,-0.4761425,1.1908450000000002,-0.03033957,-0.03158993,0.803388,0.05391287,0.310293,0.49126113623742473,32.51277162977867
0,0.04582214,-0.02944946,0.9985046,1.0,-0.02044678,-0.03843689,0.9990386999999998,-36.44981,5.776016,-28.04492,4.385376,0.6597781,0.390714,1.0,0.08557129,-0.02398682,0.9960327,30.97876,8.025421000000001,-27.29465,4.566589,0.5449248000000001,0.3017216,-0.4760133,1.1908379999999998,-0.03019049,-0.03143174,0.8008635000000001,0.05405655,0.310293,0.49126113623742473,32.51277162977867
0,0.04582214,-0.02944946,0.9985046,1.0,-0.02044678,-0.03843689,0.9990386999999998,-36.44981,5.776016,-28.04492,4.385376,0.6597781,0.390714,1.0,0.08557129,-0.02398682,0.9960327,30.97876,8.025421000000001,-27.29465,4.566589,0.5449248000000001,0.3017216,-0.4760133,1.1908379999999998,-0.03019049,-0.03143174,0.8008635000000001,0.05405655,0.310293,0.49126113623742473,32.51277162977867
0,0.04582214,-0.02944946,0.9985046,1.0,-0.02044678,-0.03843689,0.9990386999999998,-36.44981,5.776016,-28.04492,4.385376,0.6597781,0.390714,1.0,0.08557129,-0.02398682,0.9960327,30.97876,8.025421000000001,-27.29465,4.566589,0.5449248000000001,0.3017216,-0.4760133,1.1908379999999998,-0.03019049,-0.03143174,0.8008635000000001,0.05405655,0.310293,0.49126113623742473,32.51277162977867
0,0.07066345,-0.02600098,0.9971466,1.0,-0.007141113,-0.03219604,0.9994507,-36.56584,6.182953,-29.66443,4.273285,0.6639704000000001,0.389136,1.0,0.07073975,-0.02600098,0.9971466,30.94221,8.091156,-27.552640000000004,4.472244,0.5487970999999999,0.3018204,-0.4758689,1.190798,-0.03000294,-0.03146385,0.7982548,0.05389788,0.310293,0.49126113623742473,32.51277162977867
0,0.07066345,-0.02600098,0.9971466,1.0,-0.007141113,-0.03219604,0.9994507,-36.56584,6.182953,-29.66443,4.273285,0.6639704000000001,0.389136,1.0,0.07073975,-0.02600098,0.9971466,30.94221,8.091156,-27.552640000000004,4.472244,0.5487970999999999,0.3018204,-0.4758689,1.190798,-0.03000294,-0.03146385,0.7982548,0.05389788,0.310293,0.49126113623742473,32.51277162977867
0,0.07066345,-0.02600098,0.9971466,1.0,-0.007141113,-0.03219604,0.9994507,-36.56584,6.182953,-29.66443,4.273285,0.6639704000000001,0.389136,1.0,0.07073975,-0.02600098,0.9971466,30.94221,8.091156,-27.552640000000004,4.472244,0.5487970999999999,0.3018204,-0.4758689,1.190798,-0.03000294,-0.03146385,0.7982548,0.05389788,0.310293,0.49126113623742473,32.51277162977867
0,0.06822205,-0.02859497,0.9972534,1.0,-0.02156067,-0.03265381,0.9992218,-36.599990000000005,6.179001,-29.76071,4.209824,0.6680925,0.3897234,1.0,0.06822205,-0.02859497,0.9972534,30.85692,8.074692,-27.47151,4.355469,0.5520622,0.3021483,-0.4757295,1.1909299999999998,-0.02982141,-0.03144004,0.7952854,0.05405862,0.310293,0.49126113623742473,32.51277162977867
0,0.06822205,-0.02859497,0.9972534,1.0,-0.02156067,-0.03265381,0.9992218,-36.599990000000005,6.179001,-29.76071,4.209824,0.6680925,0.3897234,1.0,0.06822205,-0.02859497,0.9972534,30.85692,8.074692,-27.47151,4.355469,0.5520622,0.3021483,-0.4757295,1.1909299999999998,-0.02982141,-0.03144004,0.7952854,0.05405862,0.310293,0.49126113623742473,32.51277162977867
0,0.06822205,-0.02859497,0.9972534,1.0,-0.02156067,-0.03265381,0.9992218,-36.599990000000005,6.179001,-29.76071,4.209824,0.6680925,0.3897234,1.0,0.06822205,-0.02859497,0.9972534,30.85692,8.074692,-27.47151,4.355469,0.5520622,0.3021483,-0.4757295,1.1909299999999998,-0.02982141,-0.03144004,0.7952854,0.05405862,0.310293,0.49126113623742473,32.51277162977867
0,0.06822205,-0.02859497,0.9972534,1.0,-0.02156067,-0.03265381,0.9992218,-36.599990000000005,6.179001,-29.76071,4.209824,0.6680925,0.3897234,1.0,0.06822205,-0.02859497,0.9972534,30.85692,8.074692,-27.47151,4.355469,0.5520622,0.3021483,-0.4757264,1.190915,-0.02961408,-0.03123891,0.7918835,0.05385895,0.310293,0.49126113623742473,32.51277162977867
0,0.06822205,-0.02859497,0.9972534,1.0,-0.02156067,-0.03265381,0.9992218,-36.599990000000005,6.179001,-29.76071,4.209824,0.6680925,0.3897234,1.0,0.06822205,-0.02859497,0.9972534,30.85692,8.074692,-27.47151,4.355469,0.5520622,0.3021483,-0.4757264,1.190915,-0.02961408,-0.03123891,0.7918835,0.05385895,0.310293,0.49126113623742473,32.51277162977867
0,0.06822205,-0.02859497,0.9972534,1.0,-0.02156067,-0.03265381,0.9992218,-36.599990000000005,6.179001,-29.76071,4.209824,0.6680925,0.3897234,1.0,0.06822205,-0.02859497,0.9972534,30.85692,8.074692,-27.47151,4.355469,0.5520622,0.3021483,-0.4757264,1.190915,-0.02961408,-0.03123891,0.7918835,0.05385895,0.310293,0.49126113623742473,32.51277162977867
0,0.06822205,-0.02859497,0.9972534,1.0,-0.02156067,-0.03265381,0.9992218,-36.599990000000005,6.179001,-29.76071,4.209824,0.6680925,0.3897234,1.0,0.06822205,-0.02859497,0.9972534,30.85692,8.074692,-27.47151,4.355469,0.5520622,0.3021483,-0.4757334,1.190842,-0.02945594,-0.03111422,0.7896509,0.05350639,0.310293,0.49126113623742473,32.51277162977867
0,0.06822205,-0.02859497,0.9972534,1.0,-0.02156067,-0.03265381,0.9992218,-36.599990000000005,6.179001,-29.76071,4.209824,0.6680925,0.3897234,1.0,0.06822205,-0.02859497,0.9972534,30.85692,8.074692,-27.47151,4.355469,0.5520622,0.3021483,-0.4757334,1.190842,-0.02945594,-0.03111422,0.7896509,0.05350639,0.310293,0.49126113623742473,32.51277162977867
0,0.06822205,-0.02859497,0.9972534,1.0,-0.02156067,-0.03265381,0.9992218,-36.599990000000005,6.179001,-29.76071,4.209824,0.6680925,0.3897234,1.0,0.06822205,-0.02859497,0.9972534,30.85692,8.074692,-27.47151,4.355469,0.5520622,0.3021483,-0.4757334,1.190842,-0.02945594,-0.03111422,0.7896509,0.05350639,0.310293,0.49126113623742473,32.51277162977867
0,0.06971741,-0.02845764,0.9971466,1.0,-0.05532837,-0.03379822,0.9978943,-36.57433,5.799301,-28.10356,4.188339,0.6701071999999999,0.3894074999999999,1.0,0.06971741,-0.02845764,0.9971466,30.84488,8.07193,-27.45987,4.351547,0.5522134,0.3021483,-0.4758072,1.190597,-0.02876686,-0.03031801,0.7846508000000001,0.05259074,0.310293,23.47971,32.51277162977867
0,0.06971741,-0.02845764,0.9971466,1.0,-0.05532837,-0.03379822,0.9978943,-36.57433,5.799301,-28.10356,4.188339,0.6701071999999999,0.3894074999999999,1.0,0.06971741,-0.02845764,0.9971466,30.84488,8.07193,-27.45987,4.351547,0.5522134,0.3021483,-0.4758072,1.190597,-0.02876686,-0.03031801,0.7846508000000001,0.05259074,0.310293,23.47971,32.51277162977867
0,0.06971741,-0.02845764,0.9971466,1.0,-0.05532837,-0.03379822,0.9978943,-36.57433,5.799301,-28.10356,4.188339,0.6701071999999999,0.3894074999999999,1.0,0.06971741,-0.02845764,0.9971466,30.84488,8.07193,-27.45987,4.351547,0.5522134,0.3021483,-0.4758072,1.190597,-0.02876686,-0.03031801,0.7846508000000001,0.05259074,0.310293,23.47971,32.51277162977867
0,0.06971741,-0.02845764,0.9971466,1.0,-0.05532837,-0.03379822,0.9978943,-36.57433,5.799301,-28.10356,4.188339,0.6701071999999999,0.3894074999999999,1.0,0.06971741,-0.02845764,0.9971466,30.84488,8.07193,-27.45987,4.351547,0.5522134,0.3021483,-0.4757479,1.1905059999999998,-0.0284526,-0.03001131,0.7818482,0.0522800999999999,0.310293,23.47971,32.51277162977867
0,0.06971741,-0.02845764,0.9971466,1.0,-0.05532837,-0.03379822,0.9978943,-36.57433,5.799301,-28.10356,4.188339,0.6701071999999999,0.3894074999999999,1.0,0.06971741,-0.02845764,0.9971466,30.84488,8.07193,-27.45987,4.351547,0.5522134,0.3021483,-0.4757479,1.1905059999999998,-0.0284526,-0.03001131,0.7818482,0.0522800999999999,0.310293,23.47971,32.51277162977867
0,0.06971741,-0.02845764,0.9971466,1.0,-0.05532837,-0.03379822,0.9978943,-36.57433,5.799301,-28.10356,4.188339,0.6701071999999999,0.3894074999999999,1.0,0.06971741,-0.02845764,0.9971466,30.84488,8.07193,-27.45987,4.351547,0.5522134,0.3021483,-0.4757479,1.1905059999999998,-0.0284526,-0.03001131,0.7818482,0.0522800999999999,0.310293,23.47971,32.51277162977867
0,0.06655884,-0.02772522,0.9973907,1.0,-0.05679321,-0.03491211,0.9977722,-36.58086,5.799774,-28.10492,4.174408000000001,0.6705481,0.3896137,1.0,0.06655884,-0.02772522,0.9973907,30.83833,8.067505,-27.4344,4.345062,0.5529562,0.3019720999999999,-0.4757042999999999,1.190462,-0.02806915,-0.02976345,0.7791014,0.0516931,0.310293,23.47971,32.51277162977867
0,0.06655884,-0.02772522,0.9973907,1.0,-0.05679321,-0.03491211,0.9977722,-36.58086,5.799774,-28.10492,4.174408000000001,0.6705481,0.3896137,1.0,0.06655884,-0.02772522,0.9973907,30.83833,8.067505,-27.4344,4.345062,0.5529562,0.3019720999999999,-0.4757042999999999,1.190462,-0.02806915,-0.02976345,0.7791014,0.0516931,0.310293,23.47971,32.51277162977867
0,0.06655884,-0.02772522,0.9973907,1.0,-0.05679321,-0.03491211,0.9977722,-36.58086,5.799774,-28.10492,4.174408000000001,0.6705481,0.3896137,1.0,0.06655884,-0.02772522,0.9973907,30.83833,8.067505,-27.4344,4.345062,0.5529562,0.3019720999999999,-0.4757042999999999,1.190462,-0.02806915,-0.02976345,0.7791014,0.0516931,0.310293,23.47971,32.51277162977867
0,0.2641907,-0.1726227,0.9488831,1.0,0.1520691,-0.1794281,0.9719391,-35.21582,5.247513,-28.5043,3.657379,0.5885713,0.4378562,1.0,0.2641907,-0.1726227,0.9488831,31.59161,7.419739,-27.37817,3.861969,0.4932305,0.3510319,-0.4756113,1.190163,-0.02728147,-0.02946905,0.7722272,0.05040558,0.310293,23.47971,32.51277162977867
0,0.2641907,-0.1726227,0.9488831,1.0,0.1520691,-0.1794281,0.9719391,-35.21582,5.247513,-28.5043,3.657379,0.5885713,0.4378562,1.0,0.2641907,-0.1726227,0.9488831,31.59161,7.419739,-27.37817,3.861969,0.4932305,0.3510319,-0.4756113,1.190163,-0.02728147,-0.02946905,0.7722272,0.05040558,0.310293,23.47971,32.51277162977867
0,0.2641907,-0.1726227,0.9488831,1.0,0.1520691,-0.1794281,0.9719391,-35.21582,5.247513,-28.5043,3.657379,0.5885713,0.4378562,1.0,0.2641907,-0.1726227,0.9488831,31.59161,7.419739,-27.37817,3.861969,0.4932305,0.3510319,-0.4756113,1.190163,-0.02728147,-0.02946905,0.7722272,0.05040558,0.310293,23.47971,32.51277162977867
0,0.2641907,-0.1726227,0.9488831,1.0,0.1520691,-0.1794281,0.9719391,-35.21582,5.247513,-28.5043,3.657379,0.5885713,0.4378562,1.0,0.2641907,-0.1726227,0.9488831,31.59161,7.419739,-27.37817,3.861969,0.4932305,0.3510319,-0.4756113,1.190163,-0.02728147,-0.02946905,0.7722272,0.05040558,0.310293,23.47971,32.51277162977867
0,0.2641907,-0.1726227,0.9488831,1.0,0.1520691,-0.1794281,0.9719391,-35.21582,5.247513,-28.5043,3.657379,0.5885713,0.4378562,1.0,0.2641907,-0.1726227,0.9488831,31.59161,7.419739,-27.37817,3.861969,0.4932305,0.3510319,-0.4756113,1.190163,-0.02728147,-0.02946905,0.7722272,0.05040558,0.310293,23.47971,32.51277162977867
0,0.2641907,-0.1726227,0.9488831,1.0,0.1520691,-0.1794281,0.9719391,-35.21582,5.247513,-28.5043,3.657379,0.5885713,0.4378562,1.0,0.2641907,-0.1726227,0.9488831,31.59161,7.419739,-27.37817,3.861969,0.4932305,0.3510319,-0.4756113,1.190163,-0.02728147,-0.02946905,0.7722272,0.05040558,0.310293,23.47971,32.51277162977867
0,0.2598114,-0.1703338999999999,0.9505005,1.0,0.1557007,-0.1744079999999999,0.9722748,-35.31374,5.2553410000000005,-28.5015,3.729065,0.5913094,0.4367127,1.0,0.2598114,-0.1703338999999999,0.9505005,31.57654,7.444366,-27.36761,3.871582,0.4944991,0.3496448,-0.4755245,1.1901700000000002,-0.02689505,-0.0297719,0.7688332,0.04938027,0.310293,23.47971,32.51277162977867
0,0.2598114,-0.1703338999999999,0.9505005,1.0,0.1557007,-0.1744079999999999,0.9722748,-35.31374,5.2553410000000005,-28.5015,3.729065,0.5913094,0.4367127,1.0,0.2598114,-0.1703338999999999,0.9505005,31.57654,7.444366,-27.36761,3.871582,0.4944991,0.3496448,-0.4755245,1.1901700000000002,-0.02689505,-0.0297719,0.7688332,0.04938027,0.310293,23.47971,32.51277162977867
0,0.2598114,-0.1703338999999999,0.9505005,1.0,0.1557007,-0.1744079999999999,0.9722748,-35.31374,5.2553410000000005,-28.5015,3.729065,0.5913094,0.4367127,1.0,0.2598114,-0.1703338999999999,0.9505005,31.57654,7.444366,-27.36761,3.871582,0.4944991,0.3496448,-0.4755245,1.1901700000000002,-0.02689505,-0.0297719,0.7688332,0.04938027,0.310293,23.47971,32.51277162977867
0,0.2598114,-0.1703338999999999,0.9505005,1.0,0.1557007,-0.1744079999999999,0.9722748,-35.31374,5.2553410000000005,-28.5015,3.729065,0.5913094,0.4367127,1.0,0.2598114,-0.1703338999999999,0.9505005,31.57654,7.444366,-27.36761,3.871582,0.4944991,0.3496448,-0.4753175999999999,1.190288,-0.02673473,-0.02995825,0.7641680000000001,0.04934239,0.310293,5.259689,32.51277162977867
0,0.2598114,-0.1703338999999999,0.9505005,1.0,0.1557007,-0.1744079999999999,0.9722748,-35.31374,5.2553410000000005,-28.5015,3.729065,0.5913094,0.4367127,1.0,0.2598114,-0.1703338999999999,0.9505005,31.57654,7.444366,-27.36761,3.871582,0.4944991,0.3496448,-0.4753175999999999,1.190288,-0.02673473,-0.02995825,0.7641680000000001,0.04934239,0.310293,5.259689,32.51277162977867
0,0.2598114,-0.1703338999999999,0.9505005,1.0,0.1557007,-0.1744079999999999,0.9722748,-35.31374,5.2553410000000005,-28.5015,3.729065,0.5913094,0.4367127,1.0,0.2598114,-0.1703338999999999,0.9505005,31.57654,7.444366,-27.36761,3.871582,0.4944991,0.3496448,-0.4753175999999999,1.190288,-0.02673473,-0.02995825,0.7641680000000001,0.04934239,0.310293,5.259689,32.51277162977867
0,0.2516936999999999,-0.1661377,0.9534302,1.0,0.1510162,-0.1667023,0.9743652,-35.34401,5.257308999999999,-28.50249,3.672089,0.5930725,0.4352568,1.0,0.251709,-0.1661377,0.9534302,31.56902,7.453902999999999,-27.358490000000003,3.784882,0.4960736,0.3484390999999999,-0.4751687,1.190303,-0.02677912,-0.03015958,0.7628545,0.04955299,0.310293,5.259689,32.51277162977867
0,0.2516936999999999,-0.1661377,0.9534302,1.0,0.1510162,-0.1667023,0.9743652,-35.34401,5.257308999999999,-28.50249,3.672089,0.5930725,0.4352568,1.0,0.251709,-0.1661377,0.9534302,31.56902,7.453902999999999,-27.358490000000003,3.784882,0.4960736,0.3484390999999999,-0.4751687,1.190303,-0.02677912,-0.03015958,0.7628545,0.04955299,0.310293,5.259689,32.51277162977867
0,0.2516936999999999,-0.1661377,0.9534302,1.0,0.1510162,-0.1667023,0.9743652,-35.34401,5.257308999999999,-28.50249,3.672089,0.5930725,0.4352568,1.0,0.251709,-0.1661377,0.9534302,31.56902,7.453902999999999,-27.358490000000003,3.784882,0.4960736,0.3484390999999999,-0.4751687,1.190303,-0.02677912,-0.03015958,0.7628545,0.04955299,0.310293,5.259689,32.51277162977867
0,0.2516936999999999,-0.1661377,0.9534302,1.0,0.1510162,-0.1667023,0.9743652,-35.34401,5.257308999999999,-28.50249,3.672089,0.5930725,0.4352568,1.0,0.251709,-0.1661377,0.9534302,31.56902,7.453902999999999,-27.358490000000003,3.784882,0.4960736,0.3484390999999999,-0.4750717,1.1903780000000002,-0.02701015,-0.03025614,0.7622916000000001,0.04954314,0.310293,5.259689,32.51277162977867
0,0.2516936999999999,-0.1661377,0.9534302,1.0,0.1510162,-0.1667023,0.9743652,-35.34401,5.257308999999999,-28.50249,3.672089,0.5930725,0.4352568,1.0,0.251709,-0.1661377,0.9534302,31.56902,7.453902999999999,-27.358490000000003,3.784882,0.4960736,0.3484390999999999,-0.4750717,1.1903780000000002,-0.02701015,-0.03025614,0.7622916000000001,0.04954314,0.310293,5.259689,32.51277162977867
0,0.2516936999999999,-0.1661377,0.9534302,1.0,0.1510162,-0.1667023,0.9743652,-35.34401,5.257308999999999,-28.50249,3.672089,0.5930725,0.4352568,1.0,0.251709,-0.1661377,0.9534302,31.56902,7.453902999999999,-27.358490000000003,3.784882,0.4960736,0.3484390999999999,-0.4750717,1.1903780000000002,-0.02701015,-0.03025614,0.7622916000000001,0.04954314,0.310293,5.259689,32.51277162977867
0,0.1491089,-0.1378783999999999,0.9791565,1.0,0.02832031,-0.1403351,0.9896851,-35.92354,5.698441000000001,-29.47176,3.315659,0.6345887,0.4233363,1.0,0.1491547,-0.1378783999999999,0.9791412,31.1122,7.617126,-27.252090000000003,3.632782,0.5289688,0.3362886,-0.4749401,1.190358,-0.02726389,-0.0302259,0.7619929,0.04967752,0.310293,5.259689,32.99
0,0.1491089,-0.1378783999999999,0.9791565,1.0,0.02832031,-0.1403351,0.9896851,-35.92354,5.698441000000001,-29.47176,3.315659,0.6345887,0.4233363,1.0,0.1491547,-0.1378783999999999,0.9791412,31.1122,7.617126,-27.252090000000003,3.632782,0.5289688,0.3362886,-0.4749401,1.190358,-0.02726389,-0.0302259,0.7619929,0.04967752,0.310293,5.259689,32.99
0,0.1491089,-0.1378783999999999,0.9791565,1.0,0.02832031,-0.1403351,0.9896851,-35.92354,5.698441000000001,-29.47176,3.315659,0.6345887,0.4233363,1.0,0.1491547,-0.1378783999999999,0.9791412,31.1122,7.617126,-27.252090000000003,3.632782,0.5289688,0.3362886,-0.4749401,1.190358,-0.02726389,-0.0302259,0.7619929,0.04967752,0.310293,5.259689,32.99
0,0.1417694,-0.1313934,0.9811249,1.0,0.02861023,-0.1399231,0.9897461,-36.08527,5.388458,-28.126620000000003,3.297501,0.6382647,0.4222941,1.0,0.1417847,-0.1313934,0.9811249,31.06645,7.629989999999999,-27.246340000000004,3.581467,0.5317544,0.3346194,-0.4749401,1.190358,-0.02726389,-0.0302259,0.7619929,0.04967752,0.310293,5.259689,32.99
0,0.1417694,-0.1313934,0.9811249,1.0,0.02861023,-0.1399231,0.9897461,-36.08527,5.388458,-28.126620000000003,3.297501,0.6382647,0.4222941,1.0,0.1417847,-0.1313934,0.9811249,31.06645,7.629989999999999,-27.246340000000004,3.581467,0.5317544,0.3346194,-0.4749401,1.190358,-0.02726389,-0.0302259,0.7619929,0.04967752,0.310293,5.259689,32.99
0,0.1417694,-0.1313934,0.9811249,1.0,0.02861023,-0.1399231,0.9897461,-36.08527,5.388458,-28.126620000000003,3.297501,0.6382647,0.4222941,1.0,0.1417847,-0.1313934,0.9811249,31.06645,7.629989999999999,-27.246340000000004,3.581467,0.5317544,0.3346194,-0.4749401,1.190358,-0.02726389,-0.0302259,0.7619929,0.04967752,0.310293,5.259689,32.99
0,0.1299744,-0.1266022,0.9833984,1.0,0.01954651,-0.1275024,0.9916382,-36.14139,5.441101000000001,-28.17558,3.360062,0.6418282,0.4187145,1.0,0.1318665,-0.1265716999999999,0.983139,31.01312,7.659164,-27.278340000000004,3.5156400000000003,0.5352458000000001,0.3329604,-0.4748635999999999,1.190352,-0.02763245,-0.02970488,0.7621359000000001,0.04929623,0.310293,-30.83195,32.99
0,0.1299744,-0.1266022,0.9833984,1.0,0.01954651,-0.1275024,0.9916382,-36.14139,5.441101000000001,-28.17558,3.360062,0.6418282,0.4187145,1.0,0.1318665,-0.1265716999999999,0.983139,31.01312,7.659164,-27.278340000000004,3.5156400000000003,0.5352458000000001,0.3329604,-0.4748635999999999,1.190352,-0.02763245,-0.02970488,0.7621359000000001,0.04929623,0.310293,-30.83195,32.99
0,0.1299744,-0.1266022,0.9833984,1.0,0.01954651,-0.1275024,0.9916382,-36.14139,5.441101000000001,-28.17558,3.360062,0.6418282,0.4187145,1.0,0.1318665,-0.1265716999999999,0.983139,31.01312,7.659164,-27.278340000000004,3.5156400000000003,0.5352458000000001,0.3329604,-0.4748635999999999,1.190352,-0.02763245,-0.02970488,0.7621359000000001,0.04929623,0.310293,-30.83195,32.99
0,0.1119232,-0.1210938,0.9862976,1.0,0.02069092,-0.1264648,0.991745,-36.16557,5.398438,-27.9987,3.369888,0.6422198,0.4184832,1.0,0.1319275,-0.1197662,0.9839935,31.008440000000004,7.664841,-27.284640000000003,3.5709230000000005,0.5354258000000001,0.3315929,-0.4747219,1.190184,-0.02782486,-0.02955501,0.7621299,0.04878027,0.310293,-30.83195,32.99
0,0.1119232,-0.1210938,0.9862976,1.0,0.02069092,-0.1264648,0.991745,-36.16557,5.398438,-27.9987,3.369888,0.6422198,0.4184832,1.0,0.1319275,-0.1197662,0.9839935,31.008440000000004,7.664841,-27.284640000000003,3.5709230000000005,0.5354258000000001,0.3315929,-0.4747219,1.190184,-0.02782486,-0.02955501,0.7621299,0.04878027,0.310293,-30.83195,32.99
0,0.1119232,-0.1210938,0.9862976,1.0,0.02069092,-0.1264648,0.991745,-36.16557,5.398438,-27.9987,3.369888,0.6422198,0.4184832,1.0,0.1319275,-0.1197662,0.9839935,31.008440000000004,7.664841,-27.284640000000003,3.5709230000000005,0.5354258000000001,0.3315929,-0.4747219,1.190184,-0.02782486,-0.02955501,0.7621299,0.04878027,0.310293,-30.83195,32.99
0,0.1119232,-0.1210938,0.9862976,1.0,0.02069092,-0.1264648,0.991745,-36.16557,5.398438,-27.9987,3.369888,0.6422198,0.4184832,1.0,0.1319275,-0.1197662,0.9839935,31.008440000000004,7.664841,-27.284640000000003,3.5709230000000005,0.5354258000000001,0.3315929,-0.4745754,1.190136,-0.02797845,-0.02942863,0.7621991,0.04802823,0.310293,-30.83195,32.99
0,0.1119232,-0.1210938,0.9862976,1.0,0.02069092,-0.1264648,0.991745,-36.16557,5.398438,-27.9987,3.369888,0.6422198,0.4184832,1.0,0.1319275,-0.1197662,0.9839935,31.008440000000004,7.664841,-27.284640000000003,3.5709230000000005,0.5354258000000001,0.3315929,-0.4745754,1.190136,-0.02797845,-0.02942863,0.7621991,0.04802823,0.310293,-30.83195,32.99
0,0.1119232,-0.1210938,0.9862976,1.0,0.02069092,-0.1264648,0.991745,-36.16557,5.398438,-27.9987,3.369888,0.6422198,0.4184832,1.0,0.1319275,-0.1197662,0.9839935,31.008440000000004,7.664841,-27.284640000000003,3.5709230000000005,0.5354258000000001,0.3315929,-0.4745754,1.190136,-0.02797845,-0.02942863,0.7621991,0.04802823,0.310293,-30.83195,32.99
0,0.07366943,-0.1154022,0.9905701,1.0,0.01083374,-0.1219176999999999,0.9924774,-36.23019,5.501175,-28.14716,3.247192,0.6462688,0.4154239,1.0,0.1059265,-0.1118622,0.9880524,30.987240000000003,7.736938,-27.40115,3.4505160000000004,0.5406025999999999,0.3285092,-0.4744122,1.19012,-0.02812896,-0.02947556,0.7621933000000001,0.04782248,0.310293,-30.83195,32.99
0,0.07366943,-0.1154022,0.9905701,1.0,0.01083374,-0.1219176999999999,0.9924774,-36.23019,5.501175,-28.14716,3.247192,0.6462688,0.4154239,1.0,0.1059265,-0.1118622,0.9880524,30.987240000000003,7.736938,-27.40115,3.4505160000000004,0.5406025999999999,0.3285092,-0.4744122,1.19012,-0.02812896,-0.02947556,0.7621933000000001,0.04782248,0.310293,-30.83195,32.99
0,0.07366943,-0.1154022,0.9905701,1.0,0.01083374,-0.1219176999999999,0.9924774,-36.23019,5.501175,-28.14716,3.247192,0.6462688,0.4154239,1.0,0.1059265,-0.1118622,0.9880524,30.987240000000003,7.736938,-27.40115,3.4505160000000004,0.5406025999999999,0.3285092,-0.4744122,1.19012,-0.02812896,-0.02947556,0.7621933000000001,0.04782248,0.310293,-30.83195,32.99
0,0.06971741,-0.1198578,0.9903259,1.0,0.007141113,-0.1213530999999999,0.992569,-36.2395,5.501526,-28.11105,3.276764,0.6471816999999999,0.4150054,1.0,0.1045685,-0.1188048999999999,0.987381,30.98218,7.741318,-27.35706,3.37677,0.5409525,0.329251,-0.4742496,1.190085,-0.02834293,-0.02946759,0.7620554,0.04781773,0.310293,5.805412,32.99
0,0.06971741,-0.1198578,0.9903259,1.0,0.007141113,-0.1213530999999999,0.992569,-36.2395,5.501526,-28.11105,3.276764,0.6471816999999999,0.4150054,1.0,0.1045685,-0.1188048999999999,0.987381,30.98218,7.741318,-27.35706,3.37677,0.5409525,0.329251,-0.4742496,1.190085,-0.02834293,-0.02946759,0.7620554,0.04781773,0.310293,5.805412,32.99
0,0.06971741,-0.1198578,0.9903259,1.0,0.007141113,-0.1213530999999999,0.992569,-36.2395,5.501526,-28.11105,3.276764,0.6471816999999999,0.4150054,1.0,0.1045685,-0.1188048999999999,0.987381,30.98218,7.741318,-27.35706,3.37677,0.5409525,0.329251,-0.4742496,1.190085,-0.02834293,-0.02946759,0.7620554,0.04781773,0.310293,5.805412,32.99
0,0.0592804,-0.1184234999999999,0.9911804,1.0,0.0072784419999999,-0.1181946,0.9929504,-36.24942,5.506149,-28.08505,3.276001,0.6474612,0.4140722,1.0,0.1054382,-0.1183472,0.9873505,30.97197,7.765198,-27.37592,3.399887,0.5411783,0.328497,-0.4740751,1.190099,-0.02838487,-0.02941084,0.7619378000000001,0.04830577,0.310293,5.805412,32.99
1,0.0592804,-0.1184234999999999,0.9911804,1.0,0.0072784419999999,-0.1181946,0.9929504,-36.24942,5.506149,-28.08505,3.276001,0.6474612,0.4140722,1.0,0.1054382,-0.1183472,0.9873505,30.97197,7.765198,-27.37592,3.399887,0.5411783,0.328497,-0.4740751,1.190099,-0.02838487,-0.02941084,0.7619378000000001,0.04830577,0.310293,5.805412,32.99
1,0.0592804,-0.1184234999999999,0.9911804,1.0,0.0072784419999999,-0.1181946,0.9929504,-36.24942,5.506149,-28.08505,3.276001,0.6474612,0.4140722,1.0,0.1054382,-0.1183472,0.9873505,30.97197,7.765198,-27.37592,3.399887,0.5411783,0.328497,-0.4740751,1.190099,-0.02838487,-0.02941084,0.7619378000000001,0.04830577,0.310293,5.805412,32.99
1,0.0592804,-0.1184234999999999,0.9911804,1.0,0.0072784419999999,-0.1181946,0.9929504,-36.24942,5.506149,-28.08505,3.276001,0.6474612,0.4140722,1.0,0.1054382,-0.1183472,0.9873505,30.97197,7.765198,-27.37592,3.399887,0.5411783,0.328497,-0.4740751,1.190099,-0.02838487,-0.02941084,0.7619378000000001,0.04830577,0.310293,5.805412,32.99
1,0.0592804,-0.1184234999999999,0.9911804,1.0,0.0072784419999999,-0.1181946,0.9929504,-36.24942,5.506149,-28.08505,3.276001,0.6474612,0.4140722,1.0,0.1054382,-0.1183472,0.9873505,30.97197,7.765198,-27.37592,3.399887,0.5411783,0.328497,-0.4740751,1.190099,-0.02838487,-0.02941084,0.7619378000000001,0.04830577,0.310293,5.805412,32.99
1,0.0592804,-0.1184234999999999,0.9911804,1.0,0.0072784419999999,-0.1181946,0.9929504,-36.24942,5.506149,-28.08505,3.276001,0.6474612,0.4140722,1.0,0.1054382,-0.1183472,0.9873505,30.97197,7.765198,-27.37592,3.399887,0.5411783,0.328497,-0.4740751,1.190099,-0.02838487,-0.02941084,0.7619378000000001,0.04830577,0.310293,5.805412,32.99
1,0.0592804,-0.1184234999999999,0.9911804,1.0,0.0072784419999999,-0.1181946,0.9929504,-36.24942,5.506149,-28.08505,3.276001,0.6474612,0.4140722,1.0,0.1054382,-0.1183472,0.9873505,30.97197,7.765198,-27.37592,3.399887,0.5411783,0.328497,-0.4736741,1.19076,-0.02822724,-0.03012331,0.7616566,0.0493992,0.310293,5.805412,32.99
1,0.0592804,-0.1184234999999999,0.9911804,1.0,0.0072784419999999,-0.1181946,0.9929504,-36.24942,5.506149,-28.08505,3.276001,0.6474612,0.4140722,1.0,0.1054382,-0.1183472,0.9873505,30.97197,7.765198,-27.37592,3.399887,0.5411783,0.328497,-0.4736741,1.19076,-0.02822724,-0.03012331,0.7616566,0.0493992,0.310293,5.805412,32.99
1,0.0592804,-0.1184234999999999,0.9911804,1.0,0.0072784419999999,-0.1181946,0.9929504,-36.24942,5.506149,-28.08505,3.276001,0.6474612,0.4140722,1.0,0.1054382,-0.1183472,0.9873505,30.97197,7.765198,-27.37592,3.399887,0.5411783,0.328497,-0.4736741,1.19076,-0.02822724,-0.03012331,0.7616566,0.0493992,0.310293,5.805412,32.99
1,0.05540466,-0.1187134,0.9913788,1.0,0.007003784,-0.1181488,0.9929657,-36.25052,5.509598,-28.089540000000003,3.273926,0.6475534000000001,0.4139878999999999,1.0,0.1041869999999999,-0.1190033,0.9873962,30.97128,7.773239,-27.37766,3.385025,0.5414114999999999,0.3283372,-0.4734819999999999,1.190908,-0.02812918,-0.03029552,0.7613285,0.05047195,0.310293,5.805412,32.99
1,0.05540466,-0.1187134,0.9913788,1.0,0.007003784,-0.1181488,0.9929657,-36.25052,5.509598,-28.089540000000003,3.273926,0.6475534000000001,0.4139878999999999,1.0,0.1041869999999999,-0.1190033,0.9873962,30.97128,7.773239,-27.37766,3.385025,0.5414114999999999,0.3283372,-0.4734819999999999,1.190908,-0.02812918,-0.03029552,0.7613285,0.05047195,0.310293,5.805412,32.99
1,0.05540466,-0.1187134,0.9913788,1.0,0.007003784,-0.1181488,0.9929657,-36.25052,5.509598,-28.089540000000003,3.273926,0.6475534000000001,0.4139878999999999,1.0,0.1041869999999999,-0.1190033,0.9873962,30.97128,7.773239,-27.37766,3.385025,0.5414114999999999,0.3283372,-0.4734819999999999,1.190908,-0.02812918,-0.03029552,0.7613285,0.05047195,0.310293,5.805412,32.99
1,0.05540466,-0.1187134,0.9913788,1.0,0.007003784,-0.1181488,0.9929657,-36.25052,5.509598,-28.089540000000003,3.273926,0.6475534000000001,0.4139878999999999,1.0,0.1041869999999999,-0.1190033,0.9873962,30.97128,7.773239,-27.37766,3.385025,0.5414114999999999,0.3283372,-0.4731996,1.1909999999999998,-0.02785645,-0.03036387,0.7608491,0.05120642,0.310293,5.805412,32.99
1,0.05540466,-0.1187134,0.9913788,1.0,0.007003784,-0.1181488,0.9929657,-36.25052,5.509598,-28.089540000000003,3.273926,0.6475534000000001,0.4139878999999999,1.0,0.1041869999999999,-0.1190033,0.9873962,30.97128,7.773239,-27.37766,3.385025,0.5414114999999999,0.3283372,-0.4731996,1.1909999999999998,-0.02785645,-0.03036387,0.7608491,0.05120642,0.310293,5.805412,32.99
1,0.05540466,-0.1187134,0.9913788,1.0,0.007003784,-0.1181488,0.9929657,-36.25052,5.509598,-28.089540000000003,3.273926,0.6475534000000001,0.4139878999999999,1.0,0.1041869999999999,-0.1190033,0.9873962,30.97128,7.773239,-27.37766,3.385025,0.5414114999999999,0.3283372,-0.4731996,1.1909999999999998,-0.02785645,-0.03036387,0.7608491,0.05120642,0.310293,5.805412,32.99
1,0.03755188,-0.1175079,0.9923553,1.0,0.001907349,-0.1180725,0.9929962,-36.26245,5.513626,-28.0845,3.128693,0.6487678000000001,0.413768,1.0,0.1001587,-0.1161346,0.9881592,30.96841,7.803085,-27.476640000000003,3.273468,0.5422130000000001,0.327567,-0.4728814,1.190883,-0.02766666,-0.02970343,0.760269,0.05164833,0.310293,23.47489,32.99
1,0.03755188,-0.1175079,0.9923553,1.0,0.001907349,-0.1180725,0.9929962,-36.26245,5.513626,-28.0845,3.128693,0.6487678000000001,0.413768,1.0,0.1001587,-0.1161346,0.9881592,30.96841,7.803085,-27.476640000000003,3.273468,0.5422130000000001,0.327567,-0.4728814,1.190883,-0.02766666,-0.02970343,0.760269,0.05164833,0.310293,23.47489,32.99
1,0.03755188,-0.1175079,0.9923553,1.0,0.001907349,-0.1180725,0.9929962,-36.26245,5.513626,-28.0845,3.128693,0.6487678000000001,0.413768,1.0,0.1001587,-0.1161346,0.9881592,30.96841,7.803085,-27.476640000000003,3.273468,0.5422130000000001,0.327567,-0.4728814,1.190883,-0.02766666,-0.02970343,0.760269,0.05164833,0.310293,23.47489,32.99
1,0.04640198,-0.1172637999999999,0.9920044,1.0,0.0027771,-0.1182404,0.9929657,-36.26793,5.507935,-28.07692,3.140427,0.6487982,0.4139262999999999,1.0,0.09794617,-0.1158142,0.9884186,30.965290000000003,7.799514999999999,-27.47209,3.266754,0.5426924,0.3275857,-0.4726592,1.1905940000000002,-0.0275856,-0.02858251,0.7600323,0.0514943999999999,0.310293,23.47489,32.99
1,0.04640198,-0.1172637999999999,0.9920044,1.0,0.0027771,-0.1182404,0.9929657,-36.26793,5.507935,-28.07692,3.140427,0.6487982,0.4139262999999999,1.0,0.09794617,-0.1158142,0.9884186,30.965290000000003,7.799514999999999,-27.47209,3.266754,0.5426924,0.3275857,-0.4726592,1.1905940000000002,-0.0275856,-0.02858251,0.7600323,0.0514943999999999,0.310293,23.47489,32.99
1,0.04640198,-0.1172637999999999,0.9920044,1.0,0.0027771,-0.1182404,0.9929657,-36.26793,5.507935,-28.07692,3.140427,0.6487982,0.4139262999999999,1.0,0.09794617,-0.1158142,0.9884186,30.965290000000003,7.799514999999999,-27.47209,3.266754,0.5426924,0.3275857,-0.4726592,1.1905940000000002,-0.0275856,-0.02858251,0.7600323,0.0514943999999999,0.310293,23.47489,32.99
1,0.04640198,-0.1172637999999999,0.9920044,1.0,0.0027771,-0.1182404,0.9929657,-36.26793,5.507935,-28.07692,3.140427,0.6487982,0.4139262999999999,1.0,0.09794617,-0.1158142,0.9884186,30.965290000000003,7.799514999999999,-27.47209,3.266754,0.5426924,0.3275857,-0.4724095999999999,1.19021,-0.02759084,-0.0248795999999999,0.760083,0.05070137,0.310293,23.47489,32.99
1,0.04640198,-0.1172637999999999,0.9920044,1.0,0.0027771,-0.1182404,0.9929657,-36.26793,5.507935,-28.07692,3.140427,0.6487982,0.4139262999999999,1.0,0.09794617,-0.1158142,0.9884186,30.965290000000003,7.799514999999999,-27.47209,3.266754,0.5426924,0.3275857,-0.4724095999999999,1.19021,-0.02759084,-0.0248795999999999,0.760083,0.05070137,0.310293,23.47489,32.99
1,0.04640198,-0.1172637999999999,0.9920044,1.0,0.0027771,-0.1182404,0.9929657,-36.26793,5.507935,-28.07692,3.140427,0.6487982,0.4139262999999999,1.0,0.09794617,-0.1158142,0.9884186,30.965290000000003,7.799514999999999,-27.47209,3.266754,0.5426924,0.3275857,-0.4724095999999999,1.19021,-0.02759084,-0.0248795999999999,0.760083,0.05070137,0.310293,23.47489,32.99
1,0.07748413,-0.1179504,0.9899902,1.0,0.001312256,-0.1161041,0.9932251,-36.35139,5.436691000000001,-27.75597,3.168869,0.6514295999999999,0.4132545999999999,1.0,0.08477783,-0.1180877999999999,0.9893646,30.9025,7.866455,-27.58212,3.21138,0.5471444000000001,0.3264978,-0.4724826,1.190115,-0.02763533,-0.02373522,0.7603328,0.05053939,0.310293,2.338104,32.99
1,0.07748413,-0.1179504,0.9899902,1.0,0.001312256,-0.1161041,0.9932251,-36.35139,5.436691000000001,-27.75597,3.168869,0.6514295999999999,0.4132545999999999,1.0,0.08477783,-0.1180877999999999,0.9893646,30.9025,7.866455,-27.58212,3.21138,0.5471444000000001,0.3264978,-0.4724826,1.190115,-0.02763533,-0.02373522,0.7603328,0.05053939,0.310293,2.338104,32.99
1,0.07748413,-0.1179504,0.9899902,1.0,0.001312256,-0.1161041,0.9932251,-36.35139,5.436691000000001,-27.75597,3.168869,0.6514295999999999,0.4132545999999999,1.0,0.08477783,-0.1180877999999999,0.9893646,30.9025,7.866455,-27.58212,3.21138,0.5471444000000001,0.3264978,-0.4724826,1.190115,-0.02763533,-0.02373522,0.7603328,0.05053939,0.310293,2.338104,32.99
1,0.05335999,-0.1164856,0.991745,1.0,-0.000213623,-0.1148071,0.9933777,-36.35747,5.460571,-27.79187,3.1232450000000003,0.651939,0.4125036,1.0,0.08427429,-0.1172943,0.989502,30.89018,7.88324,-27.57182,3.2165220000000003,0.5476549,0.3256902,-0.4725611,1.190107,-0.02763136,-0.0235345,0.7606170999999999,0.05048316,0.310293,2.338104,32.99
1,0.05335999,-0.1164856,0.991745,1.0,-0.000213623,-0.1148071,0.9933777,-36.35747,5.460571,-27.79187,3.1232450000000003,0.651939,0.4125036,1.0,0.08427429,-0.1172943,0.989502,30.89018,7.88324,-27.57182,3.2165220000000003,0.5476549,0.3256902,-0.4725611,1.190107,-0.02763136,-0.0235345,0.7606170999999999,0.05048316,0.310293,2.338104,32.99
1,0.05335999,-0.1164856,0.991745,1.0,-0.000213623,-0.1148071,0.9933777,-36.35747,5.460571,-27.79187,3.1232450000000003,0.651939,0.4125036,1.0,0.08427429,-0.1172943,0.989502,30.89018,7.88324,-27.57182,3.2165220000000003,0.5476549,0.3256902,-0.4725611,1.190107,-0.02763136,-0.0235345,0.7606170999999999,0.05048316,0.310293,2.338104,32.99
1,0.04121399,-0.1162261999999999,0.9923553,1.0,-0.001602173,-0.1149292,0.9933624,-36.3604,5.478714,-27.78923,3.101089,0.6522710999999999,0.4118911,1.0,0.08297729,-0.1172791,0.989624,30.88342,7.88382,-27.55588,3.211746,0.5480963000000001,0.3255393,-0.4725579000000001,1.1901700000000002,-0.02772956,-0.02426821,0.7610608,0.05072436,0.310293,2.338104,32.99
1,0.04121399,-0.1162261999999999,0.9923553,1.0,-0.001602173,-0.1149292,0.9933624,-36.3604,5.478714,-27.78923,3.101089,0.6522710999999999,0.4118911,1.0,0.08297729,-0.1172791,0.989624,30.88342,7.88382,-27.55588,3.211746,0.5480963000000001,0.3255393,-0.4725579000000001,1.1901700000000002,-0.02772956,-0.02426821,0.7610608,0.05072436,0.310293,2.338104,32.99
1,0.04121399,-0.1162261999999999,0.9923553,1.0,-0.001602173,-0.1149292,0.9933624,-36.3604,5.478714,-27.78923,3.101089,0.6522710999999999,0.4118911,1.0,0.08297729,-0.1172791,0.989624,30.88342,7.88382,-27.55588,3.211746,0.5480963000000001,0.3255393,-0.4725579000000001,1.1901700000000002,-0.02772956,-0.02426821,0.7610608,0.05072436,0.310293,2.338104,32.99
1,0.03697205,-0.1158599999999999,0.992569,1.0,-0.0033264159999999,-0.1147308,0.9933777,-36.36201,5.485443,-27.7896,3.100479,0.6526234000000001,0.4116306999999999,1.0,0.08102417,-0.1168671,0.9898224,30.88051,7.884232000000001,-27.53308,3.212158,0.5485175,0.3252680999999999,-0.4724876,1.190356,-0.0278736,-0.02532209,0.7618202,0.051349,0.310293,2.338104,32.99
1,0.03697205,-0.1158599999999999,0.992569,1.0,-0.0033264159999999,-0.1147308,0.9933777,-36.36201,5.485443,-27.7896,3.100479,0.6526234000000001,0.4116306999999999,1.0,0.08102417,-0.1168671,0.9898224,30.88051,7.884232000000001,-27.53308,3.212158,0.5485175,0.3252680999999999,-0.4724876,1.190356,-0.0278736,-0.02532209,0.7618202,0.051349,0.310293,2.338104,32.99
1,0.03697205,-0.1158599999999999,0.992569,1.0,-0.0033264159999999,-0.1147308,0.9933777,-36.36201,5.485443,-27.7896,3.100479,0.6526234000000001,0.4116306999999999,1.0,0.08102417,-0.1168671,0.9898224,30.88051,7.884232000000001,-27.53308,3.212158,0.5485175,0.3252680999999999,-0.4724876,1.190356,-0.0278736,-0.02532209,0.7618202,0.051349,0.310293,2.338104,32.99
1,0.02923584,-0.1097565,0.993515,1.0,-0.005371094,-0.1096648999999999,0.9939423,-36.38071,5.506775,-27.78816,3.095428,0.6536185999999999,0.409999,1.0,0.07687378,-0.1096648999999999,0.9909821,30.87675,7.884597999999999,-27.48402,3.211365,0.5493359999999999,0.3235632,-0.472367,1.190569,-0.02801343,-0.02615298,0.7627049,0.05197372,0.310293,2.338104,32.99
1,0.02923584,-0.1097565,0.993515,1.0,-0.005371094,-0.1096648999999999,0.9939423,-36.38071,5.506775,-27.78816,3.095428,0.6536185999999999,0.409999,1.0,0.07687378,-0.1096648999999999,0.9909821,30.87675,7.884597999999999,-27.48402,3.211365,0.5493359999999999,0.3235632,-0.472367,1.190569,-0.02801343,-0.02615298,0.7627049,0.05197372,0.310293,2.338104,32.99
1,0.02923584,-0.1097565,0.993515,1.0,-0.005371094,-0.1096648999999999,0.9939423,-36.38071,5.506775,-27.78816,3.095428,0.6536185999999999,0.409999,1.0,0.07687378,-0.1096648999999999,0.9909821,30.87675,7.884597999999999,-27.48402,3.211365,0.5493359999999999,0.3235632,-0.472367,1.190569,-0.02801343,-0.02615298,0.7627049,0.05197372,0.310293,2.338104,32.99
1,0.02888489,-0.1106109999999999,0.9934387,1.0,-0.006118774,-0.1105347,0.9938507,-36.39081,5.510361,-27.7785,3.079117,0.654071,0.4099449,1.0,0.07528687,-0.1104888999999999,0.9910126,30.8761,7.884597999999999,-27.4646,3.187943,0.5496106,0.3235632,-0.4722997,1.190881,-0.02805975,-0.02685159,0.7637333000000001,0.05253223,0.310293,2.338104,32.99
1,0.02888489,-0.1106109999999999,0.9934387,1.0,-0.006118774,-0.1105347,0.9938507,-36.39081,5.510361,-27.7785,3.079117,0.654071,0.4099449,1.0,0.07528687,-0.1104888999999999,0.9910126,30.8761,7.884597999999999,-27.4646,3.187943,0.5496106,0.3235632,-0.4722997,1.190881,-0.02805975,-0.02685159,0.7637333000000001,0.05253223,0.310293,2.338104,32.99
1,0.02888489,-0.1106109999999999,0.9934387,1.0,-0.006118774,-0.1105347,0.9938507,-36.39081,5.510361,-27.7785,3.079117,0.654071,0.4099449,1.0,0.07528687,-0.1104888999999999,0.9910126,30.8761,7.884597999999999,-27.4646,3.187943,0.5496106,0.3235632,-0.4722997,1.190881,-0.02805975,-0.02685159,0.7637333000000001,0.05253223,0.310293,2.338104,32.99
1,0.03044128,-0.1097716999999999,0.9934845,1.0,-0.005004883,-0.1098785,0.993927,-36.39888,5.510361,-27.77672,3.0792080000000004,0.6541508,0.4098117999999999,1.0,0.07525635,-0.1094512999999999,0.9911346,30.8761,7.884597999999999,-27.458440000000003,3.175446,0.5496106,0.3233272,-0.4722765999999999,1.191005,-0.02813711,-0.0268074999999999,0.7647991999999999,0.05293022,0.310293,-21.79617,32.99
1,0.03044128,-0.1097716999999999,0.9934845,1.0,-0.005004883,-0.1098785,0.993927,-36.39888,5.510361,-27.77672,3.0792080000000004,0.6541508,0.4098117999999999,1.0,0.07525635,-0.1094512999999999,0.9911346,30.8761,7.884597999999999,-27.458440000000003,3.175446,0.5496106,0.3233272,-0.4722765999999999,1.191005,-0.02813711,-0.0268074999999999,0.7647991999999999,0.05293022,0.310293,-21.79617,32.99
1,0.03044128,-0.1097716999999999,0.9934845,1.0,-0.005004883,-0.1098785,0.993927,-36.39888,5.510361,-27.77672,3.0792080000000004,0.6541508,0.4098117999999999,1.0,0.07525635,-0.1094512999999999,0.9911346,30.8761,7.884597999999999,-27.458440000000003,3.175446,0.5496106,0.3233272,-0.4722765999999999,1.191005,-0.02813711,-0.0268074999999999,0.7647991999999999,0.05293022,0.310293,-21.79617,32.99
1,0.03364563,-0.109787,0.9933777,1.0,-0.00390625,-0.109787,0.9939423,-36.40602,5.510361,-27.7785,3.079575,0.6542097,0.4098117999999999,1.0,0.07585144,-0.1096039,0.9910736,30.87675,7.884902999999999,-27.45563,3.175522,0.549484,0.3233272,-0.4720641,1.190977,-0.0280156999999999,-0.02662805,0.765662,0.05307775,0.310293,-21.79617,32.99
1,0.03364563,-0.109787,0.9933777,1.0,-0.00390625,-0.109787,0.9939423,-36.40602,5.510361,-27.7785,3.079575,0.6542097,0.4098117999999999,1.0,0.07585144,-0.1096039,0.9910736,30.87675,7.884902999999999,-27.45563,3.175522,0.549484,0.3233272,-0.4720641,1.190977,-0.0280156999999999,-0.02662805,0.765662,0.05307775,0.310293,-21.79617,32.99
1,0.03364563,-0.109787,0.9933777,1.0,-0.00390625,-0.109787,0.9939423,-36.40602,5.510361,-27.7785,3.079575,0.6542097,0.4098117999999999,1.0,0.07585144,-0.1096039,0.9910736,30.87675,7.884902999999999,-27.45563,3.175522,0.549484,0.3233272,-0.4720641,1.190977,-0.0280156999999999,-0.02662805,0.765662,0.05307775,0.310293,-21.79617,32.99
1,0.03504944,-0.113327,0.9929352,1.0,-0.00453186,-0.113266,0.9935455,-36.412,5.504791,-27.7785,3.089645,0.6545187,0.4106023,1.0,0.07537842,-0.113205,0.9906921,30.87798,7.888657000000001,-27.4646,3.235901,0.5495473000000001,0.3238998,-0.4720641,1.190977,-0.0280156999999999,-0.02662805,0.765662,0.05307775,0.310293,-21.79617,32.99
1,0.03504944,-0.113327,0.9929352,1.0,-0.00453186,-0.113266,0.9935455,-36.412,5.504791,-27.7785,3.089645,0.6545187,0.4106023,1.0,0.07537842,-0.113205,0.9906921,30.87798,7.888657000000001,-27.4646,3.235901,0.5495473000000001,0.3238998,-0.4720641,1.190977,-0.0280156999999999,-0.02662805,0.765662,0.05307775,0.310293,-21.79617,32.99
1,0.03504944,-0.113327,0.9929352,1.0,-0.00453186,-0.113266,0.9935455,-36.412,5.504791,-27.7785,3.089645,0.6545187,0.4106023,1.0,0.07537842,-0.113205,0.9906921,30.87798,7.888657000000001,-27.4646,3.235901,0.5495473000000001,0.3238998,-0.4720641,1.190977,-0.0280156999999999,-0.02662805,0.765662,0.05307775,0.310293,-21.79617,32.99
1,0.02877808,-0.1127319,0.9931946,1.0,-0.003860474,-0.113327,0.9935455,-36.41846,5.485489,-27.78648,3.138748,0.6546498000000001,0.4113361,1.0,0.07543945,-0.1116791,0.99086,30.88055,7.888382000000001,-27.528170000000003,3.234314,0.549484,0.3241315999999999,-0.4717604,1.19081,-0.02782958,-0.02553021,0.7668359,0.05290294,0.310293,-21.79617,32.99
1,0.02877808,-0.1127319,0.9931946,1.0,-0.003860474,-0.113327,0.9935455,-36.41846,5.485489,-27.78648,3.138748,0.6546498000000001,0.4113361,1.0,0.07543945,-0.1116791,0.99086,30.88055,7.888382000000001,-27.528170000000003,3.234314,0.549484,0.3241315999999999,-0.4717604,1.19081,-0.02782958,-0.02553021,0.7668359,0.05290294,0.310293,-21.79617,32.99
1,0.02877808,-0.1127319,0.9931946,1.0,-0.003860474,-0.113327,0.9935455,-36.41846,5.485489,-27.78648,3.138748,0.6546498000000001,0.4113361,1.0,0.07543945,-0.1116791,0.99086,30.88055,7.888382000000001,-27.528170000000003,3.234314,0.549484,0.3241315999999999,-0.4717604,1.19081,-0.02782958,-0.02553021,0.7668359,0.05290294,0.310293,-21.79617,32.99
1,0.03494263,-0.1108093,0.9932251,1.0,-0.001739502,-0.1095123,0.9939728,-36.42879,5.461441000000001,-27.79811,3.1927950000000003,0.6546732,0.4115912,1.0,0.07461548,-0.1120453,0.9908905,30.88055,7.885528999999999,-27.53398,3.266037,0.5496376999999999,0.3243392,-0.4714266,1.190562,-0.02757981,-0.02488049,0.7671392,0.05260126,0.3026064,-21.79617,32.99
1,0.03494263,-0.1108093,0.9932251,1.0,-0.001739502,-0.1095123,0.9939728,-36.42879,5.461441000000001,-27.79811,3.1927950000000003,0.6546732,0.4115912,1.0,0.07461548,-0.1120453,0.9908905,30.88055,7.885528999999999,-27.53398,3.266037,0.5496376999999999,0.3243392,-0.4714266,1.190562,-0.02757981,-0.02488049,0.7671392,0.05260126,0.3026064,-21.79617,32.99
1,0.03494263,-0.1108093,0.9932251,1.0,-0.001739502,-0.1095123,0.9939728,-36.42879,5.461441000000001,-27.79811,3.1927950000000003,0.6546732,0.4115912,1.0,0.07461548,-0.1120453,0.9908905,30.88055,7.885528999999999,-27.53398,3.266037,0.5496376999999999,0.3243392,-0.4714266,1.190562,-0.02757981,-0.02488049,0.7671392,0.05260126,0.3026064,-21.79617,32.99
1,0.03308105,-0.1151732999999999,0.9927826,1.0,-0.008972168,-0.1130066,0.9935455,-36.43549,5.460373000000001,-27.79852,3.283203,0.6561701999999999,0.4122371,1.0,0.07406616,-0.1170958999999999,0.9903412,30.87964,7.882782000000001,-27.526,3.300903,0.5497653,0.3252738,-0.4714266,1.190562,-0.02757981,-0.02488049,0.7671392,0.05260126,0.3026064,-21.79617,32.99
1,0.03308105,-0.1151732999999999,0.9927826,1.0,-0.008972168,-0.1130066,0.9935455,-36.43549,5.460373000000001,-27.79852,3.283203,0.6561701999999999,0.4122371,1.0,0.07406616,-0.1170958999999999,0.9903412,30.87964,7.882782000000001,-27.526,3.300903,0.5497653,0.3252738,-0.4714266,1.190562,-0.02757981,-0.02488049,0.7671392,0.05260126,0.3026064,-21.79617,32.99
1,0.03308105,-0.1151732999999999,0.9927826,1.0,-0.008972168,-0.1130066,0.9935455,-36.43549,5.460373000000001,-27.79852,3.283203,0.6561701999999999,0.4122371,1.0,0.07406616,-0.1170958999999999,0.9903412,30.87964,7.882782000000001,-27.526,3.300903,0.5497653,0.3252738,-0.4714266,1.190562,-0.02757981,-0.02488049,0.7671392,0.05260126,0.3026064,-21.79617,32.99
1,0.03308105,-0.1151732999999999,0.9927826,1.0,-0.008972168,-0.1130066,0.9935455,-36.43549,5.460373000000001,-27.79852,3.283203,0.6561701999999999,0.4122371,1.0,0.07406616,-0.1170958999999999,0.9903412,30.87964,7.882782000000001,-27.526,3.300903,0.5497653,0.3252738,-0.4710975,1.190394,-0.02743997,-0.02395768,0.7672181,0.05234974,0.3026064,-14.89072,32.99
1,0.03308105,-0.1151732999999999,0.9927826,1.0,-0.008972168,-0.1130066,0.9935455,-36.43549,5.460373000000001,-27.79852,3.283203,0.6561701999999999,0.4122371,1.0,0.07406616,-0.1170958999999999,0.9903412,30.87964,7.882782000000001,-27.526,3.300903,0.5497653,0.3252738,-0.4710975,1.190394,-0.02743997,-0.02395768,0.7672181,0.05234974,0.3026064,-14.89072,32.99
1,0.03308105,-0.1151732999999999,0.9927826,1.0,-0.008972168,-0.1130066,0.9935455,-36.43549,5.460373000000001,-27.79852,3.283203,0.6561701999999999,0.4122371,1.0,0.07406616,-0.1170958999999999,0.9903412,30.87964,7.882782000000001,-27.526,3.300903,0.5497653,0.3252738,-0.4710975,1.190394,-0.02743997,-0.02395768,0.7672181,0.05234974,0.3026064,-14.89072,32.99
1,0.03308105,-0.1151732999999999,0.9927826,1.0,-0.008972168,-0.1130066,0.9935455,-36.43549,5.460373000000001,-27.79852,3.283203,0.6561701999999999,0.4122371,1.0,0.07406616,-0.1170958999999999,0.9903412,30.87964,7.882782000000001,-27.526,3.300903,0.5497653,0.3252738,-0.4704385,1.190021,-0.02714435,-0.02239865,0.7671962,0.0502849,0.3026064,-14.89072,32.99
1,0.03308105,-0.1151732999999999,0.9927826,1.0,-0.008972168,-0.1130066,0.9935455,-36.43549,5.460373000000001,-27.79852,3.283203,0.6561701999999999,0.4122371,1.0,0.07406616,-0.1170958999999999,0.9903412,30.87964,7.882782000000001,-27.526,3.300903,0.5497653,0.3252738,-0.4704385,1.190021,-0.02714435,-0.02239865,0.7671962,0.0502849,0.3026064,-14.89072,32.99
1,0.03308105,-0.1151732999999999,0.9927826,1.0,-0.008972168,-0.1130066,0.9935455,-36.43549,5.460373000000001,-27.79852,3.283203,0.6561701999999999,0.4122371,1.0,0.07406616,-0.1170958999999999,0.9903412,30.87964,7.882782000000001,-27.526,3.300903,0.5497653,0.3252738,-0.4704385,1.190021,-0.02714435,-0.02239865,0.7671962,0.0502849,0.3026064,-14.89072,32.99
1,0.02859497,-0.1152801999999999,0.9929199,1.0,-0.01708984,-0.1128081999999999,0.9934692,-36.43771,5.460373000000001,-27.80363,3.303024,0.65765,0.4122371,1.0,0.07325745,-0.1174622,0.9903564,30.87868,7.880463000000001,-27.52098,3.297394,0.5499326999999999,0.3253787,-0.4701414,1.18981,-0.02680057,-0.02135934,0.7667295,0.04974115,0.3026064,-14.89072,32.99
1,0.02859497,-0.1152801999999999,0.9929199,1.0,-0.01708984,-0.1128081999999999,0.9934692,-36.43771,5.460373000000001,-27.80363,3.303024,0.65765,0.4122371,1.0,0.07325745,-0.1174622,0.9903564,30.87868,7.880463000000001,-27.52098,3.297394,0.5499326999999999,0.3253787,-0.4701414,1.18981,-0.02680057,-0.02135934,0.7667295,0.04974115,0.3026064,-14.89072,32.99
1,0.02859497,-0.1152801999999999,0.9929199,1.0,-0.01708984,-0.1128081999999999,0.9934692,-36.43771,5.460373000000001,-27.80363,3.303024,0.65765,0.4122371,1.0,0.07325745,-0.1174622,0.9903564,30.87868,7.880463000000001,-27.52098,3.297394,0.5499326999999999,0.3253787,-0.4701414,1.18981,-0.02680057,-0.02135934,0.7667295,0.04974115,0.3026064,-14.89072,32.99
1,0.01194763,-0.1173401,0.9930115,1.0,-0.0436554,-0.1240692,0.9913025,-36.46503,5.539948000000001,-28.08537,3.3815160000000004,0.6635784,0.4138876,1.0,0.06521606,-0.1105499,0.9917145,30.84235,7.820908,-27.25063,3.468597,0.5524445,0.3240055999999999,-0.4701414,1.18981,-0.02680057,-0.02135934,0.7667295,0.04974115,0.3026064,-14.89072,32.99
1,0.01194763,-0.1173401,0.9930115,1.0,-0.0436554,-0.1240692,0.9913025,-36.46503,5.539948000000001,-28.08537,3.3815160000000004,0.6635784,0.4138876,1.0,0.06521606,-0.1105499,0.9917145,30.84235,7.820908,-27.25063,3.468597,0.5524445,0.3240055999999999,-0.4701414,1.18981,-0.02680057,-0.02135934,0.7667295,0.04974115,0.3026064,-14.89072,32.99
1,0.01194763,-0.1173401,0.9930115,1.0,-0.0436554,-0.1240692,0.9913025,-36.46503,5.539948000000001,-28.08537,3.3815160000000004,0.6635784,0.4138876,1.0,0.06521606,-0.1105499,0.9917145,30.84235,7.820908,-27.25063,3.468597,0.5524445,0.3240055999999999,-0.4701414,1.18981,-0.02680057,-0.02135934,0.7667295,0.04974115,0.3026064,-14.89072,32.99
1,-0.01028442,-0.1100158999999999,0.993866,1.0,-0.04469299,-0.1135864,0.9925079,-36.62085,5.548584,-28.06696,3.403809,0.6691364000000001,0.4114973,1.0,0.02882385,-0.1058043999999999,0.9939575,30.72968,7.914047,-27.67781,3.57872,0.5628244000000001,0.3232077,-0.4697925,1.189685,-0.02655553,-0.02086804,0.7658205,0.04970642,0.3026064,23.37582,32.99
1,-0.01028442,-0.1100158999999999,0.993866,1.0,-0.04469299,-0.1135864,0.9925079,-36.62085,5.548584,-28.06696,3.403809,0.6691364000000001,0.4114973,1.0,0.02882385,-0.1058043999999999,0.9939575,30.72968,7.914047,-27.67781,3.57872,0.5628244000000001,0.3232077,-0.4697925,1.189685,-0.02655553,-0.02086804,0.7658205,0.04970642,0.3026064,23.37582,32.99
1,-0.01028442,-0.1100158999999999,0.993866,1.0,-0.04469299,-0.1135864,0.9925079,-36.62085,5.548584,-28.06696,3.403809,0.6691364000000001,0.4114973,1.0,0.02882385,-0.1058043999999999,0.9939575,30.72968,7.914047,-27.67781,3.57872,0.5628244000000001,0.3232077,-0.4697925,1.189685,-0.02655553,-0.02086804,0.7658205,0.04970642,0.3026064,23.37582,32.99
1,-0.043396,-0.1185608,0.9919891,1.0,-0.05229187,-0.1192168999999999,0.9914856,-36.63248,5.533188,-27.99812,3.335556,0.6707091,0.4124169,1.0,0.03450012,-0.1124878,0.993042,30.67273,7.776886,-26.97211,3.6772,0.5633358,0.323518,-0.4693567,1.189689,-0.02563861,-0.01981839,0.7628511,0.04986565,0.3026064,23.37582,32.99
1,-0.043396,-0.1185608,0.9919891,1.0,-0.05229187,-0.1192168999999999,0.9914856,-36.63248,5.533188,-27.99812,3.335556,0.6707091,0.4124169,1.0,0.03450012,-0.1124878,0.993042,30.67273,7.776886,-26.97211,3.6772,0.5633358,0.323518,-0.4693567,1.189689,-0.02563861,-0.01981839,0.7628511,0.04986565,0.3026064,23.37582,32.99
1,-0.043396,-0.1185608,0.9919891,1.0,-0.05229187,-0.1192168999999999,0.9914856,-36.63248,5.533188,-27.99812,3.335556,0.6707091,0.4124169,1.0,0.03450012,-0.1124878,0.993042,30.67273,7.776886,-26.97211,3.6772,0.5633358,0.323518,-0.4693567,1.189689,-0.02563861,-0.01981839,0.7628511,0.04986565,0.3026064,23.37582,32.99
1,-0.043396,-0.1185608,0.9919891,1.0,-0.05229187,-0.1192168999999999,0.9914856,-36.63248,5.533188,-27.99812,3.335556,0.6707091,0.4124169,1.0,0.03450012,-0.1124878,0.993042,30.67273,7.776886,-26.97211,3.6772,0.5633358,0.323518,-0.4693567,1.189689,-0.02563861,-0.01981839,0.7628511,0.04986565,0.3026064,23.37582,32.99
1,-0.043396,-0.1185608,0.9919891,1.0,-0.05229187,-0.1192168999999999,0.9914856,-36.63248,5.533188,-27.99812,3.335556,0.6707091,0.4124169,1.0,0.03450012,-0.1124878,0.993042,30.67273,7.776886,-26.97211,3.6772,0.5633358,0.323518,-0.4693567,1.189689,-0.02563861,-0.01981839,0.7628511,0.04986565,0.3026064,23.37582,32.99
1,-0.043396,-0.1185608,0.9919891,1.0,-0.05229187,-0.1192168999999999,0.9914856,-36.63248,5.533188,-27.99812,3.335556,0.6707091,0.4124169,1.0,0.03450012,-0.1124878,0.993042,30.67273,7.776886,-26.97211,3.6772,0.5633358,0.323518,-0.4693567,1.189689,-0.02563861,-0.01981839,0.7628511,0.04986565,0.3026064,23.37582,32.99
1,-0.09721375,-0.120163,0.9879761,1.0,-0.09727478,-0.120163,0.9879608,-36.8078,5.493073000000001,-27.87517,3.615723000000001,0.6843423000000001,0.4129276,1.0,0.001800537,-0.1225739,0.9924469,30.47041,7.675049,-26.50391,3.780472,0.575328,0.3253676,-0.4688054,1.18985,-0.02480215,-0.01897605,0.7582355,0.05038958,0.3026064,23.37582,32.99
1,-0.09721375,-0.120163,0.9879761,1.0,-0.09727478,-0.120163,0.9879608,-36.8078,5.493073000000001,-27.87517,3.615723000000001,0.6843423000000001,0.4129276,1.0,0.001800537,-0.1225739,0.9924469,30.47041,7.675049,-26.50391,3.780472,0.575328,0.3253676,-0.4688054,1.18985,-0.02480215,-0.01897605,0.7582355,0.05038958,0.3026064,23.37582,32.99
1,-0.09721375,-0.120163,0.9879761,1.0,-0.09727478,-0.120163,0.9879608,-36.8078,5.493073000000001,-27.87517,3.615723000000001,0.6843423000000001,0.4129276,1.0,0.001800537,-0.1225739,0.9924469,30.47041,7.675049,-26.50391,3.780472,0.575328,0.3253676,-0.4688054,1.18985,-0.02480215,-0.01897605,0.7582355,0.05038958,0.3026064,23.37582,32.99
1,-0.1121063,-0.1041869999999999,0.988205,1.0,-0.1124878,-0.1041412,0.9881744,-37.024440000000006,5.421677,-27.71912,3.677811,0.6942986,0.4110833,1.0,-0.01937866,-0.115799,0.9930725,30.32635,7.579834,-26.08478,3.765762,0.5834115,0.3242107999999999,-0.4688054,1.18985,-0.02480215,-0.01897605,0.7582355,0.05038958,0.3026064,23.37582,32.99
1,-0.1121063,-0.1041869999999999,0.988205,1.0,-0.1124878,-0.1041412,0.9881744,-37.024440000000006,5.421677,-27.71912,3.677811,0.6942986,0.4110833,1.0,-0.01937866,-0.115799,0.9930725,30.32635,7.579834,-26.08478,3.765762,0.5834115,0.3242107999999999,-0.4688054,1.18985,-0.02480215,-0.01897605,0.7582355,0.05038958,0.3026064,23.37582,32.99
1,-0.1121063,-0.1041869999999999,0.988205,1.0,-0.1124878,-0.1041412,0.9881744,-37.024440000000006,5.421677,-27.71912,3.677811,0.6942986,0.4110833,1.0,-0.01937866,-0.115799,0.9930725,30.32635,7.579834,-26.08478,3.765762,0.5834115,0.3242107999999999,-0.4688054,1.18985,-0.02480215,-0.01897605,0.7582355,0.05038958,0.3026064,23.37582,32.99
1,-0.1170196999999999,-0.1076202,0.9872742,1.0,-0.1178741,-0.1075134,0.9871826,-37.05936,5.449768,-27.82092,3.77623,0.6966274,0.4115911,1.0,-0.02062988,-0.1192932,0.99263,30.282940000000004,7.596694999999999,-26.16939,3.75209,0.585148,0.3249399,-0.4685137,1.1899620000000002,-0.02448154,-0.01871741,0.7553536999999999,0.05132371,0.3026064,23.37582,32.99
1,-0.1170196999999999,-0.1076202,0.9872742,1.0,-0.1178741,-0.1075134,0.9871826,-37.05936,5.449768,-27.82092,3.77623,0.6966274,0.4115911,1.0,-0.02062988,-0.1192932,0.99263,30.282940000000004,7.596694999999999,-26.16939,3.75209,0.585148,0.3249399,-0.4685137,1.1899620000000002,-0.02448154,-0.01871741,0.7553536999999999,0.05132371,0.3026064,23.37582,32.99
1,-0.1170196999999999,-0.1076202,0.9872742,1.0,-0.1178741,-0.1075134,0.9871826,-37.05936,5.449768,-27.82092,3.77623,0.6966274,0.4115911,1.0,-0.02062988,-0.1192932,0.99263,30.282940000000004,7.596694999999999,-26.16939,3.75209,0.585148,0.3249399,-0.4685137,1.1899620000000002,-0.02448154,-0.01871741,0.7553536999999999,0.05132371,0.3026064,23.37582,32.99
2,-0.1170196999999999,-0.1076202,0.9872742,1.0,-0.1178741,-0.1075134,0.9871826,-37.05936,5.449768,-27.82092,3.77623,0.6966274,0.4115911,1.0,-0.02062988,-0.1192932,0.99263,30.282940000000004,7.596694999999999,-26.16939,3.75209,0.585148,0.3249399,-0.4682688,1.190028,-0.02428248,-0.01889144,0.7522478,0.05188861,0.3026064,10.9279,32.99
2,-0.1170196999999999,-0.1076202,0.9872742,1.0,-0.1178741,-0.1075134,0.9871826,-37.05936,5.449768,-27.82092,3.77623,0.6966274,0.4115911,1.0,-0.02062988,-0.1192932,0.99263,30.282940000000004,7.596694999999999,-26.16939,3.75209,0.585148,0.3249399,-0.4682688,1.190028,-0.02428248,-0.01889144,0.7522478,0.05188861,0.3026064,10.9279,32.99
2,-0.1170196999999999,-0.1076202,0.9872742,1.0,-0.1178741,-0.1075134,0.9871826,-37.05936,5.449768,-27.82092,3.77623,0.6966274,0.4115911,1.0,-0.02062988,-0.1192932,0.99263,30.282940000000004,7.596694999999999,-26.16939,3.75209,0.585148,0.3249399,-0.4682688,1.190028,-0.02428248,-0.01889144,0.7522478,0.05188861,0.3026064,10.9279,32.99
2,-0.1910706,-0.1126404,0.9750824,1.0,-0.1910858,-0.1126404,0.9750824,-37.23322,5.435699,-27.95428,3.6138,0.7158033,0.4141562,1.0,-0.08403015,-0.1228943,0.9888458,30.095090000000003,7.780608999999999,-27.3438,3.673859,0.6034706,0.3282353,-0.4677007,1.19012,-0.02361067,-0.01892021,0.745043,0.05197712,0.3026064,10.9279,32.99
2,-0.1910706,-0.1126404,0.9750824,1.0,-0.1910858,-0.1126404,0.9750824,-37.23322,5.435699,-27.95428,3.6138,0.7158033,0.4141562,1.0,-0.08403015,-0.1228943,0.9888458,30.095090000000003,7.780608999999999,-27.3438,3.673859,0.6034706,0.3282353,-0.4677007,1.19012,-0.02361067,-0.01892021,0.745043,0.05197712,0.3026064,10.9279,32.99
2,-0.1910706,-0.1126404,0.9750824,1.0,-0.1910858,-0.1126404,0.9750824,-37.23322,5.435699,-27.95428,3.6138,0.7158033,0.4141562,1.0,-0.08403015,-0.1228943,0.9888458,30.095090000000003,7.780608999999999,-27.3438,3.673859,0.6034706,0.3282353,-0.4677007,1.19012,-0.02361067,-0.01892021,0.745043,0.05197712,0.3026064,10.9279,32.99
2,-0.2103728999999999,-0.1340027,0.9683838,1.0,-0.2103728999999999,-0.1340027,0.9683838,-37.38622,5.46315,-27.94398,3.641846,0.7245939,0.4168922,1.0,-0.101181,-0.1346588,0.9857025,29.8839,7.672089,-26.76871,3.683914,0.6129513000000001,0.3296402,-0.4677007,1.19012,-0.02361067,-0.01892021,0.745043,0.05197712,0.3026064,10.9279,32.99
2,-0.2103728999999999,-0.1340027,0.9683838,1.0,-0.2103728999999999,-0.1340027,0.9683838,-37.38622,5.46315,-27.94398,3.641846,0.7245939,0.4168922,1.0,-0.101181,-0.1346588,0.9857025,29.8839,7.672089,-26.76871,3.683914,0.6129513000000001,0.3296402,-0.4677007,1.19012,-0.02361067,-0.01892021,0.745043,0.05197712,0.3026064,10.9279,32.99
2,-0.2103728999999999,-0.1340027,0.9683838,1.0,-0.2103728999999999,-0.1340027,0.9683838,-37.38622,5.46315,-27.94398,3.641846,0.7245939,0.4168922,1.0,-0.101181,-0.1346588,0.9857025,29.8839,7.672089,-26.76871,3.683914,0.6129513000000001,0.3296402,-0.4677007,1.19012,-0.02361067,-0.01892021,0.745043,0.05197712,0.3026064,10.9279,32.99
2,-0.2313994999999999,-0.1223601999999999,0.9651184000000002,1.0,-0.2318114999999999,-0.1222992,0.9650269,-37.63342,5.4213260000000005,-28.01352,3.638916000000001,0.7374391,0.4166957,1.0,-0.1210175,-0.1375275,0.9830627,29.75795,7.681167999999999,-26.87582,3.667328,0.6207774,0.3306659999999999,-0.4674189,1.190309,-0.02319981,-0.0192973,0.7409399,0.05198986,0.3026064,10.9279,32.99
2,-0.2313994999999999,-0.1223601999999999,0.9651184000000002,1.0,-0.2318114999999999,-0.1222992,0.9650269,-37.63342,5.4213260000000005,-28.01352,3.638916000000001,0.7374391,0.4166957,1.0,-0.1210175,-0.1375275,0.9830627,29.75795,7.681167999999999,-26.87582,3.667328,0.6207774,0.3306659999999999,-0.4674189,1.190309,-0.02319981,-0.0192973,0.7409399,0.05198986,0.3026064,10.9279,32.99
2,-0.2313994999999999,-0.1223601999999999,0.9651184000000002,1.0,-0.2318114999999999,-0.1222992,0.9650269,-37.63342,5.4213260000000005,-28.01352,3.638916000000001,0.7374391,0.4166957,1.0,-0.1210175,-0.1375275,0.9830627,29.75795,7.681167999999999,-26.87582,3.667328,0.6207774,0.3306659999999999,-0.4674189,1.190309,-0.02319981,-0.0192973,0.7409399,0.05198986,0.3026064,10.9279,32.99
2,-0.2289275999999999,-0.1202087,0.9659882,1.0,-0.2319946,-0.1194,0.9653473,-37.6627,5.406738,-28.02147,3.57399,0.7385328,0.4167248999999999,1.0,-0.1264801,-0.1463013,0.9811096,29.72957,7.684555,-26.87483,3.696655,0.6226713,0.3321100999999999,-0.4669698,1.190516,-0.02281276,-0.01939075,0.7320554,0.05154245,0.3026064,10.9279,32.99
2,-0.2289275999999999,-0.1202087,0.9659882,1.0,-0.2319946,-0.1194,0.9653473,-37.6627,5.406738,-28.02147,3.57399,0.7385328,0.4167248999999999,1.0,-0.1264801,-0.1463013,0.9811096,29.72957,7.684555,-26.87483,3.696655,0.6226713,0.3321100999999999,-0.4669698,1.190516,-0.02281276,-0.01939075,0.7320554,0.05154245,0.3026064,10.9279,32.99
2,-0.2289275999999999,-0.1202087,0.9659882,1.0,-0.2319946,-0.1194,0.9653473,-37.6627,5.406738,-28.02147,3.57399,0.7385328,0.4167248999999999,1.0,-0.1264801,-0.1463013,0.9811096,29.72957,7.684555,-26.87483,3.696655,0.6226713,0.3321100999999999,-0.4669698,1.190516,-0.02281276,-0.01939075,0.7320554,0.05154245,0.3026064,10.9279,32.99
2,-0.2289275999999999,-0.1202087,0.9659882,1.0,-0.2319946,-0.1194,0.9653473,-37.6627,5.406738,-28.02147,3.57399,0.7385328,0.4167248999999999,1.0,-0.1264801,-0.1463013,0.9811096,29.72957,7.684555,-26.87483,3.696655,0.6226713,0.3321100999999999,-0.4669698,1.190516,-0.02281276,-0.01939075,0.7320554,0.05154245,0.3026064,-21.46645,32.99
2,-0.2289275999999999,-0.1202087,0.9659882,1.0,-0.2319946,-0.1194,0.9653473,-37.6627,5.406738,-28.02147,3.57399,0.7385328,0.4167248999999999,1.0,-0.1264801,-0.1463013,0.9811096,29.72957,7.684555,-26.87483,3.696655,0.6226713,0.3321100999999999,-0.4669698,1.190516,-0.02281276,-0.01939075,0.7320554,0.05154245,0.3026064,-21.46645,32.99
2,-0.2289275999999999,-0.1202087,0.9659882,1.0,-0.2319946,-0.1194,0.9653473,-37.6627,5.406738,-28.02147,3.57399,0.7385328,0.4167248999999999,1.0,-0.1264801,-0.1463013,0.9811096,29.72957,7.684555,-26.87483,3.696655,0.6226713,0.3321100999999999,-0.4669698,1.190516,-0.02281276,-0.01939075,0.7320554,0.05154245,0.3026064,-21.46645,32.99
2,0.2722777999999999,-0.136322,0.9524994,0.934268,0.1713104,-0.1411285,0.9750519,-35.25696,5.442734,-28.05818,3.557602,0.5862574,0.4209036,0.9938139,0.2839966,-0.1356658999999999,0.949173,31.62656,7.691238,-27.058490000000003,3.617279,0.4884412999999999,0.3327870999999999,-0.4666872999999999,1.1906219999999998,-0.02267625,-0.01959343,0.7274732,0.05144054,0.3026064,-21.46645,32.99
2,0.2722777999999999,-0.136322,0.9524994,0.934268,0.1713104,-0.1411285,0.9750519,-35.25696,5.442734,-28.05818,3.557602,0.5862574,0.4209036,0.9938139,0.2839966,-0.1356658999999999,0.949173,31.62656,7.691238,-27.058490000000003,3.617279,0.4884412999999999,0.3327870999999999,-0.4666872999999999,1.1906219999999998,-0.02267625,-0.01959343,0.7274732,0.05144054,0.3026064,-21.46645,32.99
2,0.2722777999999999,-0.136322,0.9524994,0.934268,0.1713104,-0.1411285,0.9750519,-35.25696,5.442734,-28.05818,3.557602,0.5862574,0.4209036,0.9938139,0.2839966,-0.1356658999999999,0.949173,31.62656,7.691238,-27.058490000000003,3.617279,0.4884412999999999,0.3327870999999999,-0.4666872999999999,1.1906219999999998,-0.02267625,-0.01959343,0.7274732,0.05144054,0.3026064,-21.46645,32.99
2,0.3598175,-0.1363831,0.9229889,1.0,0.2684784,-0.1424103,0.9526825,-34.75676,5.411651999999999,-28.1817,3.345032,0.5529773,0.4240707,1.0,0.3804932,-0.1348114,0.9148865,32.07162,7.689392,-27.20226,3.56987,0.4565212999999999,0.3348657,-0.4664380999999999,1.190818,-0.02229626,-0.0198209,0.7229257,0.05134549,0.3026064,-21.46645,32.99
2,0.3598175,-0.1363831,0.9229889,1.0,0.2684784,-0.1424103,0.9526825,-34.75676,5.411651999999999,-28.1817,3.345032,0.5529773,0.4240707,1.0,0.3804932,-0.1348114,0.9148865,32.07162,7.689392,-27.20226,3.56987,0.4565212999999999,0.3348657,-0.4664380999999999,1.190818,-0.02229626,-0.0198209,0.7229257,0.05134549,0.3026064,-21.46645,32.99
2,0.3598175,-0.1363831,0.9229889,1.0,0.2684784,-0.1424103,0.9526825,-34.75676,5.411651999999999,-28.1817,3.345032,0.5529773,0.4240707,1.0,0.3804932,-0.1348114,0.9148865,32.07162,7.689392,-27.20226,3.56987,0.4565212999999999,0.3348657,-0.4664380999999999,1.190818,-0.02229626,-0.0198209,0.7229257,0.05134549,0.3026064,-21.46645,32.99
2,0.305191,-0.1378020999999999,0.9422607,1.0,0.2532654,-0.1369629,0.9576416,-34.87341,5.395599,-28.17599,3.386261,0.5594880999999999,0.4234491,1.0,0.3741455,-0.1383057,0.9169921999999998,32.03072,7.668274,-27.18822,3.668793,0.4591234999999999,0.3360158,-0.4659765999999999,1.190999,-0.02217425,-0.02049198,0.7136666,0.05109041,0.3026064,-21.46645,32.99
2,0.305191,-0.1378020999999999,0.9422607,1.0,0.2532654,-0.1369629,0.9576416,-34.87341,5.395599,-28.17599,3.386261,0.5594880999999999,0.4234491,1.0,0.3741455,-0.1383057,0.9169921999999998,32.03072,7.668274,-27.18822,3.668793,0.4591234999999999,0.3360158,-0.4659765999999999,1.190999,-0.02217425,-0.02049198,0.7136666,0.05109041,0.3026064,-21.46645,32.99
2,0.305191,-0.1378020999999999,0.9422607,1.0,0.2532654,-0.1369629,0.9576416,-34.87341,5.395599,-28.17599,3.386261,0.5594880999999999,0.4234491,1.0,0.3741455,-0.1383057,0.9169921999999998,32.03072,7.668274,-27.18822,3.668793,0.4591234999999999,0.3360158,-0.4659765999999999,1.190999,-0.02217425,-0.02049198,0.7136666,0.05109041,0.3026064,-21.46645,32.99
2,0.2944640999999999,-0.1369629,0.9457855,1.0,0.2410431,-0.1396637,0.9604034,-34.9494,5.383118,-28.16025,3.423721,0.5641313,0.4240879,1.0,0.3533173,-0.1334534,0.9259186,32.0056,7.637253,-27.16283,3.681732,0.4636089,0.3357301,-0.465727,1.191144,-0.02198572,-0.02025295,0.7085955,0.05155172,0.3026064,-21.46645,32.99
2,0.2944640999999999,-0.1369629,0.9457855,1.0,0.2410431,-0.1396637,0.9604034,-34.9494,5.383118,-28.16025,3.423721,0.5641313,0.4240879,1.0,0.3533173,-0.1334534,0.9259186,32.0056,7.637253,-27.16283,3.681732,0.4636089,0.3357301,-0.465727,1.191144,-0.02198572,-0.02025295,0.7085955,0.05155172,0.3026064,-21.46645,32.99
2,0.2944640999999999,-0.1369629,0.9457855,1.0,0.2410431,-0.1396637,0.9604034,-34.9494,5.383118,-28.16025,3.423721,0.5641313,0.4240879,1.0,0.3533173,-0.1334534,0.9259186,32.0056,7.637253,-27.16283,3.681732,0.4636089,0.3357301,-0.465727,1.191144,-0.02198572,-0.02025295,0.7085955,0.05155172,0.3026064,-21.46645,32.99
2,0.2944640999999999,-0.1369629,0.9457855,1.0,0.2410431,-0.1396637,0.9604034,-34.9494,5.383118,-28.16025,3.423721,0.5641313,0.4240879,1.0,0.3533173,-0.1334534,0.9259186,32.0056,7.637253,-27.16283,3.681732,0.4636089,0.3357301,-0.465546,1.191264,-0.02179925,-0.02084247,0.7036584,0.05082897,0.3026064,-9.656761,32.99
2,0.2944640999999999,-0.1369629,0.9457855,1.0,0.2410431,-0.1396637,0.9604034,-34.9494,5.383118,-28.16025,3.423721,0.5641313,0.4240879,1.0,0.3533173,-0.1334534,0.9259186,32.0056,7.637253,-27.16283,3.681732,0.4636089,0.3357301,-0.465546,1.191264,-0.02179925,-0.02084247,0.7036584,0.05082897,0.3026064,-9.656761,32.99
2,0.2944640999999999,-0.1369629,0.9457855,1.0,0.2410431,-0.1396637,0.9604034,-34.9494,5.383118,-28.16025,3.423721,0.5641313,0.4240879,1.0,0.3533173,-0.1334534,0.9259186,32.0056,7.637253,-27.16283,3.681732,0.4636089,0.3357301,-0.465546,1.191264,-0.02179925,-0.02084247,0.7036584,0.05082897,0.3026064,-9.656761,32.99
2,0.2909698,-0.1417999,0.9461517,1.0,0.2422942999999999,-0.1429901,0.9595947,-34.99963,5.375198,-28.16357,3.518799,0.5656904,0.4249880999999999,1.0,0.3445282,-0.1400452,0.9282684,31.992390000000004,7.631469999999999,-27.15192,3.634705,0.4655627,0.3369356,-0.4654782,1.191357,-0.02169834,-0.02055432,0.698572,0.05047601,0.3026064,-9.656761,32.99
2,0.2909698,-0.1417999,0.9461517,1.0,0.2422942999999999,-0.1429901,0.9595947,-34.99963,5.375198,-28.16357,3.518799,0.5656904,0.4249880999999999,1.0,0.3445282,-0.1400452,0.9282684,31.992390000000004,7.631469999999999,-27.15192,3.634705,0.4655627,0.3369356,-0.4654782,1.191357,-0.02169834,-0.02055432,0.698572,0.05047601,0.3026064,-9.656761,32.99
2,0.2909698,-0.1417999,0.9461517,1.0,0.2422942999999999,-0.1429901,0.9595947,-34.99963,5.375198,-28.16357,3.518799,0.5656904,0.4249880999999999,1.0,0.3445282,-0.1400452,0.9282684,31.992390000000004,7.631469999999999,-27.15192,3.634705,0.4655627,0.3369356,-0.4654782,1.191357,-0.02169834,-0.02055432,0.698572,0.05047601,0.3026064,-9.656761,32.99
2,0.2264862,-0.1519165,0.9620819,1.0,0.1831818,-0.1506652999999999,0.9714508,-35.31857,5.333878,-28.09892,3.485947,0.5863122,0.426647,1.0,0.2818297999999999,-0.1531067,0.9471588,31.7925,7.607452,-27.0703,3.559448,0.483146,0.3388274,-0.4653431999999999,1.191366,-0.02155507,-0.02051144,0.6932006,0.04981964,0.3026064,-9.656761,32.99
2,0.2264862,-0.1519165,0.9620819,1.0,0.1831818,-0.1506652999999999,0.9714508,-35.31857,5.333878,-28.09892,3.485947,0.5863122,0.426647,1.0,0.2818297999999999,-0.1531067,0.9471588,31.7925,7.607452,-27.0703,3.559448,0.483146,0.3388274,-0.4653431999999999,1.191366,-0.02155507,-0.02051144,0.6932006,0.04981964,0.3026064,-9.656761,32.99
2,0.2264862,-0.1519165,0.9620819,1.0,0.1831818,-0.1506652999999999,0.9714508,-35.31857,5.333878,-28.09892,3.485947,0.5863122,0.426647,1.0,0.2818297999999999,-0.1531067,0.9471588,31.7925,7.607452,-27.0703,3.559448,0.483146,0.3388274,-0.4653431999999999,1.191366,-0.02155507,-0.02051144,0.6932006,0.04981964,0.3026064,-9.656761,32.99
2,0.2264862,-0.1519165,0.9620819,1.0,0.1831818,-0.1506652999999999,0.9714508,-35.31857,5.333878,-28.09892,3.485947,0.5863122,0.426647,1.0,0.2818297999999999,-0.1531067,0.9471588,31.7925,7.607452,-27.0703,3.559448,0.483146,0.3388274,-0.4653431999999999,1.191366,-0.02155507,-0.02051144,0.6932006,0.04981964,0.3026064,-9.656761,32.99
2,0.2264862,-0.1519165,0.9620819,1.0,0.1831818,-0.1506652999999999,0.9714508,-35.31857,5.333878,-28.09892,3.485947,0.5863122,0.426647,1.0,0.2818297999999999,-0.1531067,0.9471588,31.7925,7.607452,-27.0703,3.559448,0.483146,0.3388274,-0.4653431999999999,1.191366,-0.02155507,-0.02051144,0.6932006,0.04981964,0.3026064,-9.656761,32.99
2,0.2264862,-0.1519165,0.9620819,1.0,0.1831818,-0.1506652999999999,0.9714508,-35.31857,5.333878,-28.09892,3.485947,0.5863122,0.426647,1.0,0.2818297999999999,-0.1531067,0.9471588,31.7925,7.607452,-27.0703,3.559448,0.483146,0.3388274,-0.4653431999999999,1.191366,-0.02155507,-0.02051144,0.6932006,0.04981964,0.3026064,-9.656761,32.99
2,0.2132111,-0.1546631,0.9646759,1.0,0.1703644,-0.1609497,0.9721375,-35.39378,5.325531,-28.10422,3.522034,0.5910418000000001,0.4286819,1.0,0.269455,-0.1458435,0.951889,31.71326,7.581511999999999,-27.06781,3.549698,0.4879395,0.3382943,-0.4654049,1.191289,-0.02137571,-0.02050945,0.6880871999999999,0.04916563,0.3026064,-9.656761,32.99
2,0.2132111,-0.1546631,0.9646759,1.0,0.1703644,-0.1609497,0.9721375,-35.39378,5.325531,-28.10422,3.522034,0.5910418000000001,0.4286819,1.0,0.269455,-0.1458435,0.951889,31.71326,7.581511999999999,-27.06781,3.549698,0.4879395,0.3382943,-0.4654049,1.191289,-0.02137571,-0.02050945,0.6880871999999999,0.04916563,0.3026064,-9.656761,32.99
2,0.2132111,-0.1546631,0.9646759,1.0,0.1703644,-0.1609497,0.9721375,-35.39378,5.325531,-28.10422,3.522034,0.5910418000000001,0.4286819,1.0,0.269455,-0.1458435,0.951889,31.71326,7.581511999999999,-27.06781,3.549698,0.4879395,0.3382943,-0.4654049,1.191289,-0.02137571,-0.02050945,0.6880871999999999,0.04916563,0.3026064,-9.656761,32.99
2,0.2132111,-0.1546631,0.9646759,1.0,0.1703644,-0.1609497,0.9721375,-35.39378,5.325531,-28.10422,3.522034,0.5910418000000001,0.4286819,1.0,0.269455,-0.1458435,0.951889,31.71326,7.581511999999999,-27.06781,3.549698,0.4879395,0.3382943,-0.4653741,1.191153,-0.02138703,-0.02020835,0.6829390999999999,0.04853493,0.3026064,18.88369,32.99
2,0.2132111,-0.1546631,0.9646759,1.0,0.1703644,-0.1609497,0.9721375,-35.39378,5.325531,-28.10422,3.522034,0.5910418000000001,0.4286819,1.0,0.269455,-0.1458435,0.951889,31.71326,7.581511999999999,-27.06781,3.549698,0.4879395,0.3382943,-0.4653741,1.191153,-0.02138703,-0.02020835,0.6829390999999999,0.04853493,0.3026064,18.88369,32.99
2,0.2132111,-0.1546631,0.9646759,1.0,0.1703644,-0.1609497,0.9721375,-35.39378,5.325531,-28.10422,3.522034,0.5910418000000001,0.4286819,1.0,0.269455,-0.1458435,0.951889,31.71326,7.581511999999999,-27.06781,3.549698,0.4879395,0.3382943,-0.4653741,1.191153,-0.02138703,-0.02020835,0.6829390999999999,0.04853493,0.3026064,18.88369,32.99
2,0.3039246,-0.1405944999999999,0.9422455,1.0,0.2453156,-0.1373596,0.9596558,-34.97598,5.409927,-28.19162,3.3293760000000003,0.5642453000000001,0.4230808,1.0,0.3473053,-0.1426849,0.9268188,32.01294,7.607941,-27.158890000000003,3.588455,0.4643436999999999,0.3383104,-0.4654182,1.19108,-0.02146921,-0.02039154,0.6778644,0.04803232,0.3026064,18.88369,32.99
2,0.3039246,-0.1405944999999999,0.9422455,1.0,0.2453156,-0.1373596,0.9596558,-34.97598,5.409927,-28.19162,3.3293760000000003,0.5642453000000001,0.4230808,1.0,0.3473053,-0.1426849,0.9268188,32.01294,7.607941,-27.158890000000003,3.588455,0.4643436999999999,0.3383104,-0.4654182,1.19108,-0.02146921,-0.02039154,0.6778644,0.04803232,0.3026064,18.88369,32.99
2,0.3039246,-0.1405944999999999,0.9422455,1.0,0.2453156,-0.1373596,0.9596558,-34.97598,5.409927,-28.19162,3.3293760000000003,0.5642453000000001,0.4230808,1.0,0.3473053,-0.1426849,0.9268188,32.01294,7.607941,-27.158890000000003,3.588455,0.4643436999999999,0.3383104,-0.4654182,1.19108,-0.02146921,-0.02039154,0.6778644,0.04803232,0.3026064,18.88369,32.99
2,0.2905731,-0.1403046,0.9465027,1.0,0.2350311,-0.1414032,0.9616394,-35.01218,5.399414,-28.18825,3.387482,0.5672503000000001,0.4240218,1.0,0.3351898,-0.1390686,0.9318237,32.03516,7.611464999999999,-27.152240000000003,3.585999,0.4656824,0.337328,-0.4655404999999999,1.190987,-0.02151329,-0.02112826,0.6683835,0.04716187,0.3026064,18.88369,32.99
2,0.2905731,-0.1403046,0.9465027,1.0,0.2350311,-0.1414032,0.9616394,-35.01218,5.399414,-28.18825,3.387482,0.5672503000000001,0.4240218,1.0,0.3351898,-0.1390686,0.9318237,32.03516,7.611464999999999,-27.152240000000003,3.585999,0.4656824,0.337328,-0.4655404999999999,1.190987,-0.02151329,-0.02112826,0.6683835,0.04716187,0.3026064,18.88369,32.99
2,0.2905731,-0.1403046,0.9465027,1.0,0.2350311,-0.1414032,0.9616394,-35.01218,5.399414,-28.18825,3.387482,0.5672503000000001,0.4240218,1.0,0.3351898,-0.1390686,0.9318237,32.03516,7.611464999999999,-27.152240000000003,3.585999,0.4656824,0.337328,-0.4655404999999999,1.190987,-0.02151329,-0.02112826,0.6683835,0.04716187,0.3026064,18.88369,32.99
2,0.2743073,-0.1419525,0.9510956,1.0,0.2299957,-0.1386871,0.9632568,-35.05577,5.393143,-28.18372,3.431122,0.5695951,0.4236757,1.0,0.3230591,-0.1452332,0.9351501,31.98436,7.603119,-27.13252,3.479279,0.4694372999999999,0.3384525,-0.4656762,1.190937,-0.02159091,-0.0216347,0.6640369,0.04623662,0.3026064,18.88369,32.99
2,0.2743073,-0.1419525,0.9510956,1.0,0.2299957,-0.1386871,0.9632568,-35.05577,5.393143,-28.18372,3.431122,0.5695951,0.4236757,1.0,0.3230591,-0.1452332,0.9351501,31.98436,7.603119,-27.13252,3.479279,0.4694372999999999,0.3384525,-0.4656762,1.190937,-0.02159091,-0.0216347,0.6640369,0.04623662,0.3026064,18.88369,32.99
2,0.2743073,-0.1419525,0.9510956,1.0,0.2299957,-0.1386871,0.9632568,-35.05577,5.393143,-28.18372,3.431122,0.5695951,0.4236757,1.0,0.3230591,-0.1452332,0.9351501,31.98436,7.603119,-27.13252,3.479279,0.4694372999999999,0.3384525,-0.4656762,1.190937,-0.02159091,-0.0216347,0.6640369,0.04623662,0.3026064,18.88369,32.99
2,0.2743073,-0.1419525,0.9510956,1.0,0.2299957,-0.1386871,0.9632568,-35.05577,5.393143,-28.18372,3.431122,0.5695951,0.4236757,1.0,0.3230591,-0.1452332,0.9351501,31.98436,7.603119,-27.13252,3.479279,0.4694372999999999,0.3384525,-0.4658385999999999,1.190895,-0.02194914,-0.02216677,0.6600308000000001,0.04537684,0.3026064,18.88369,32.99
2,0.2743073,-0.1419525,0.9510956,1.0,0.2299957,-0.1386871,0.9632568,-35.05577,5.393143,-28.18372,3.431122,0.5695951,0.4236757,1.0,0.3230591,-0.1452332,0.9351501,31.98436,7.603119,-27.13252,3.479279,0.4694372999999999,0.3384525,-0.4658385999999999,1.190895,-0.02194914,-0.02216677,0.6600308000000001,0.04537684,0.3026064,18.88369,32.99
2,0.2743073,-0.1419525,0.9510956,1.0,0.2299957,-0.1386871,0.9632568,-35.05577,5.393143,-28.18372,3.431122,0.5695951,0.4236757,1.0,0.3230591,-0.1452332,0.9351501,31.98436,7.603119,-27.13252,3.479279,0.4694372999999999,0.3384525,-0.4658385999999999,1.190895,-0.02194914,-0.02216677,0.6600308000000001,0.04537684,0.3026064,18.88369,32.99
2,0.2297362999999999,-0.1577606,0.9603729,1.0,0.186264,-0.1630402,0.9688721,-35.30203,5.324722,-28.15038,3.371918,0.5852145999999999,0.429581,1.0,0.2799072,-0.1512146,0.9480286,31.79027,7.527297999999999,-27.088790000000003,3.641479,0.483597,0.3413541,-0.4661265999999999,1.190863,-0.02239318,-0.0226724,0.6564335,0.04420421,0.3026064,-7.894684,32.99
2,0.2297362999999999,-0.1577606,0.9603729,1.0,0.186264,-0.1630402,0.9688721,-35.30203,5.324722,-28.15038,3.371918,0.5852145999999999,0.429581,1.0,0.2799072,-0.1512146,0.9480286,31.79027,7.527297999999999,-27.088790000000003,3.641479,0.483597,0.3413541,-0.4661265999999999,1.190863,-0.02239318,-0.0226724,0.6564335,0.04420421,0.3026064,-7.894684,32.99
2,0.2297362999999999,-0.1577606,0.9603729,1.0,0.186264,-0.1630402,0.9688721,-35.30203,5.324722,-28.15038,3.371918,0.5852145999999999,0.429581,1.0,0.2799072,-0.1512146,0.9480286,31.79027,7.527297999999999,-27.088790000000003,3.641479,0.483597,0.3413541,-0.4661265999999999,1.190863,-0.02239318,-0.0226724,0.6564335,0.04420421,0.3026064,-7.894684,32.99
2,0.2020568999999999,-0.1627502,0.965744,1.0,0.157486,-0.1648253999999999,0.9736633,-35.40352,5.292435,-28.15201,3.50206,0.5935642,0.4307795,1.0,0.2518921,-0.1600189,0.954422,31.660020000000003,7.480194,-27.05823,3.538925,0.4927455,0.3440913,-0.4661265999999999,1.190863,-0.02239318,-0.0226724,0.6564335,0.04420421,0.3026064,-7.894684,32.99
2,0.2020568999999999,-0.1627502,0.965744,1.0,0.157486,-0.1648253999999999,0.9736633,-35.40352,5.292435,-28.15201,3.50206,0.5935642,0.4307795,1.0,0.2518921,-0.1600189,0.954422,31.660020000000003,7.480194,-27.05823,3.538925,0.4927455,0.3440913,-0.4661265999999999,1.190863,-0.02239318,-0.0226724,0.6564335,0.04420421,0.3026064,-7.894684,32.99
2,0.2020568999999999,-0.1627502,0.965744,1.0,0.157486,-0.1648253999999999,0.9736633,-35.40352,5.292435,-28.15201,3.50206,0.5935642,0.4307795,1.0,0.2518921,-0.1600189,0.954422,31.660020000000003,7.480194,-27.05823,3.538925,0.4927455,0.3440913,-0.4661265999999999,1.190863,-0.02239318,-0.0226724,0.6564335,0.04420421,0.3026064,-7.894684,32.99
2,0.2678223,-0.1036835,0.9578705,1.0,0.2073059,-0.1012573,0.9730072,-35.04855,5.624435,-28.17555,3.348267,0.5730988,0.4090833,1.0,0.3209534,-0.1054992999999999,0.9411926,31.82961,7.783691,-27.07362,3.541122,0.4750630999999999,0.3246424,-0.4664725999999999,1.190869,-0.02347024,-0.02474041,0.6512169,0.04128748,0.3026064,-7.894684,32.99
2,0.2678223,-0.1036835,0.9578705,1.0,0.2073059,-0.1012573,0.9730072,-35.04855,5.624435,-28.17555,3.348267,0.5730988,0.4090833,1.0,0.3209534,-0.1054992999999999,0.9411926,31.82961,7.783691,-27.07362,3.541122,0.4750630999999999,0.3246424,-0.4664725999999999,1.190869,-0.02347024,-0.02474041,0.6512169,0.04128748,0.3026064,-7.894684,32.99
2,0.2678223,-0.1036835,0.9578705,1.0,0.2073059,-0.1012573,0.9730072,-35.04855,5.624435,-28.17555,3.348267,0.5730988,0.4090833,1.0,0.3209534,-0.1054992999999999,0.9411926,31.82961,7.783691,-27.07362,3.541122,0.4750630999999999,0.3246424,-0.4664725999999999,1.190869,-0.02347024,-0.02474041,0.6512169,0.04128748,0.3026064,-7.894684,32.99
2,0.2631531,-0.09796143,0.9597626,1.0,0.2095183999999999,-0.09370422,0.9732971,-35.08453,5.638077,-28.186,3.414993,0.5739845,0.4074282,1.0,0.3100739,-0.1014862,0.9452667,31.87946,7.819458,-27.06227,3.616638,0.4753064999999999,0.3224478,-0.4665590999999999,1.190917,-0.02411397,-0.02571964,0.6495223000000001,0.04077395,0.3026064,-7.894684,32.99
2,0.2631531,-0.09796143,0.9597626,1.0,0.2095183999999999,-0.09370422,0.9732971,-35.08453,5.638077,-28.186,3.414993,0.5739845,0.4074282,1.0,0.3100739,-0.1014862,0.9452667,31.87946,7.819458,-27.06227,3.616638,0.4753064999999999,0.3224478,-0.4665590999999999,1.190917,-0.02411397,-0.02571964,0.6495223000000001,0.04077395,0.3026064,-7.894684,32.99
2,0.2631531,-0.09796143,0.9597626,1.0,0.2095183999999999,-0.09370422,0.9732971,-35.08453,5.638077,-28.186,3.414993,0.5739845,0.4074282,1.0,0.3100739,-0.1014862,0.9452667,31.87946,7.819458,-27.06227,3.616638,0.4753064999999999,0.3224478,-0.4665590999999999,1.190917,-0.02411397,-0.02571964,0.6495223000000001,0.04077395,0.3026064,-7.894684,32.99
2,0.2532043,-0.1077270999999999,0.96138,1.0,0.1989288,-0.1008911,0.9747925,-35.12227,5.611816,-28.19221,3.368118,0.5770221,0.4095117,1.0,0.3063811999999999,-0.114212,0.9450226,31.87018,7.797225999999999,-27.05388,3.577286,0.4762504,0.3254095999999999,-0.4665948,1.191215,-0.02573907,-0.02794051,0.6483693,0.04103306,0.3026064,-32.13435,32.99
2,0.2532043,-0.1077270999999999,0.96138,1.0,0.1989288,-0.1008911,0.9747925,-35.12227,5.611816,-28.19221,3.368118,0.5770221,0.4095117,1.0,0.3063811999999999,-0.114212,0.9450226,31.87018,7.797225999999999,-27.05388,3.577286,0.4762504,0.3254095999999999,-0.4665948,1.191215,-0.02573907,-0.02794051,0.6483693,0.04103306,0.3026064,-32.13435,32.99
2,0.2532043,-0.1077270999999999,0.96138,1.0,0.1989288,-0.1008911,0.9747925,-35.12227,5.611816,-28.19221,3.368118,0.5770221,0.4095117,1.0,0.3063811999999999,-0.114212,0.9450226,31.87018,7.797225999999999,-27.05388,3.577286,0.4762504,0.3254095999999999,-0.4665948,1.191215,-0.02573907,-0.02794051,0.6483693,0.04103306,0.3026064,-32.13435,32.99
2,0.2551422,-0.1050873,0.9611664,1.0,0.1976471,-0.1025085,0.974884,-35.14726,5.578278,-28.21826,3.393448,0.5781143,0.4111316,1.0,0.3076324,-0.1071319999999999,0.9454498,31.86687,7.753983,-27.07007,3.63681,0.4761763,0.3257615,-0.4663989999999999,1.191134,-0.02662217,-0.02854854,0.6485848000000001,0.04109022,0.3026064,-32.13435,32.99
2,0.2551422,-0.1050873,0.9611664,1.0,0.1976471,-0.1025085,0.974884,-35.14726,5.578278,-28.21826,3.393448,0.5781143,0.4111316,1.0,0.3076324,-0.1071319999999999,0.9454498,31.86687,7.753983,-27.07007,3.63681,0.4761763,0.3257615,-0.4663989999999999,1.191134,-0.02662217,-0.02854854,0.6485848000000001,0.04109022,0.3026064,-32.13435,32.99
2,0.2551422,-0.1050873,0.9611664,1.0,0.1976471,-0.1025085,0.974884,-35.14726,5.578278,-28.21826,3.393448,0.5781143,0.4111316,1.0,0.3076324,-0.1071319999999999,0.9454498,31.86687,7.753983,-27.07007,3.63681,0.4761763,0.3257615,-0.4663989999999999,1.191134,-0.02662217,-0.02854854,0.6485848000000001,0.04109022,0.3026064,-32.13435,32.99
2,0.3086395,-0.08299255,0.9475403,1.0,0.2511902,-0.08625793,0.9640808,-34.87631,5.639252,-28.26877,3.445221,0.5599927,0.407174,1.0,0.3686370999999999,-0.07917786,0.926178,32.09558,7.795897999999999,-27.15717,3.682205,0.4577489,0.3206007,-0.4663824,1.191186,-0.02741493,-0.02868211,0.6487516999999999,0.04189022,0.3026064,-32.13435,32.99
2,0.3086395,-0.08299255,0.9475403,1.0,0.2511902,-0.08625793,0.9640808,-34.87631,5.639252,-28.26877,3.445221,0.5599927,0.407174,1.0,0.3686370999999999,-0.07917786,0.926178,32.09558,7.795897999999999,-27.15717,3.682205,0.4577489,0.3206007,-0.4663824,1.191186,-0.02741493,-0.02868211,0.6487516999999999,0.04189022,0.3026064,-32.13435,32.99
2,0.3086395,-0.08299255,0.9475403,1.0,0.2511902,-0.08625793,0.9640808,-34.87631,5.639252,-28.26877,3.445221,0.5599927,0.407174,1.0,0.3686370999999999,-0.07917786,0.926178,32.09558,7.795897999999999,-27.15717,3.682205,0.4577489,0.3206007,-0.4663824,1.191186,-0.02741493,-0.02868211,0.6487516999999999,0.04189022,0.3026064,-32.13435,32.99
2,0.3482666,-0.07113647,0.9346771,1.0,0.2918243,-0.07553101,0.953476,-34.62788,5.69722,-28.32155,3.3945160000000003,0.5447068,0.4042264,1.0,0.4213715,-0.06492615,0.904541,32.25575,7.878021,-27.25066,3.696213,0.4429229999999999,0.3165643,-0.4663521,1.191216,-0.02789387,-0.0292552,0.6485651,0.04180151,0.3026064,-32.13435,32.99
2,0.3482666,-0.07113647,0.9346771,1.0,0.2918243,-0.07553101,0.953476,-34.62788,5.69722,-28.32155,3.3945160000000003,0.5447068,0.4042264,1.0,0.4213715,-0.06492615,0.904541,32.25575,7.878021,-27.25066,3.696213,0.4429229999999999,0.3165643,-0.4663521,1.191216,-0.02789387,-0.0292552,0.6485651,0.04180151,0.3026064,-32.13435,32.99
2,0.3482666,-0.07113647,0.9346771,1.0,0.2918243,-0.07553101,0.953476,-34.62788,5.69722,-28.32155,3.3945160000000003,0.5447068,0.4042264,1.0,0.4213715,-0.06492615,0.904541,32.25575,7.878021,-27.25066,3.696213,0.4429229999999999,0.3165643,-0.4663521,1.191216,-0.02789387,-0.0292552,0.6485651,0.04180151,0.3026064,-32.13435,32.99
2,0.3482666,-0.07113647,0.9346771,1.0,0.2918243,-0.07553101,0.953476,-34.62788,5.69722,-28.32155,3.3945160000000003,0.5447068,0.4042264,1.0,0.4213715,-0.06492615,0.904541,32.25575,7.878021,-27.25066,3.696213,0.4429229999999999,0.3165643,-0.4663521,1.191216,-0.02789387,-0.0292552,0.6485651,0.04180151,0.3026064,-32.13435,32.99
2,0.3482666,-0.07113647,0.9346771,1.0,0.2918243,-0.07553101,0.953476,-34.62788,5.69722,-28.32155,3.3945160000000003,0.5447068,0.4042264,1.0,0.4213715,-0.06492615,0.904541,32.25575,7.878021,-27.25066,3.696213,0.4429229999999999,0.3165643,-0.4663521,1.191216,-0.02789387,-0.0292552,0.6485651,0.04180151,0.3026064,-32.13435,32.99
2,0.3482666,-0.07113647,0.9346771,1.0,0.2918243,-0.07553101,0.953476,-34.62788,5.69722,-28.32155,3.3945160000000003,0.5447068,0.4042264,1.0,0.4213715,-0.06492615,0.904541,32.25575,7.878021,-27.25066,3.696213,0.4429229999999999,0.3165643,-0.4663521,1.191216,-0.02789387,-0.0292552,0.6485651,0.04180151,0.3026064,-32.13435,32.99
3,0.3833618,-0.06227112,0.9214783,1.0,0.3531189,-0.06019592,0.9336243,-34.44621,5.739655,-28.39685,3.326538,0.5280355,0.4015131,1.0,0.4543457,-0.0670166,0.8882904,32.44775,7.919235,-27.33955,3.51622,0.4302524,0.31661,-0.4664772,1.190963,-0.02897879,-0.02950752,0.6483724000000001,0.04039933,0.3026064,9.697067,32.99
3,0.3833618,-0.06227112,0.9214783,1.0,0.3531189,-0.06019592,0.9336243,-34.44621,5.739655,-28.39685,3.326538,0.5280355,0.4015131,1.0,0.4543457,-0.0670166,0.8882904,32.44775,7.919235,-27.33955,3.51622,0.4302524,0.31661,-0.4664772,1.190963,-0.02897879,-0.02950752,0.6483724000000001,0.04039933,0.3026064,9.697067,32.99
3,0.3833618,-0.06227112,0.9214783,1.0,0.3531189,-0.06019592,0.9336243,-34.44621,5.739655,-28.39685,3.326538,0.5280355,0.4015131,1.0,0.4543457,-0.0670166,0.8882904,32.44775,7.919235,-27.33955,3.51622,0.4302524,0.31661,-0.4664772,1.190963,-0.02897879,-0.02950752,0.6483724000000001,0.04039933,0.3026064,9.697067,32.99
3,0.3833618,-0.06227112,0.9214783,1.0,0.3531189,-0.06019592,0.9336243,-34.44621,5.739655,-28.39685,3.326538,0.5280355,0.4015131,1.0,0.4543457,-0.0670166,0.8882904,32.44775,7.919235,-27.33955,3.51622,0.4302524,0.31661,-0.4665114000000001,1.190949,-0.02931553,-0.02951143,0.6488170999999999,0.03980377,0.3026064,9.697067,32.99
3,0.3833618,-0.06227112,0.9214783,1.0,0.3531189,-0.06019592,0.9336243,-34.44621,5.739655,-28.39685,3.326538,0.5280355,0.4015131,1.0,0.4543457,-0.0670166,0.8882904,32.44775,7.919235,-27.33955,3.51622,0.4302524,0.31661,-0.4665114000000001,1.190949,-0.02931553,-0.02951143,0.6488170999999999,0.03980377,0.3026064,9.697067,32.99
3,0.3833618,-0.06227112,0.9214783,1.0,0.3531189,-0.06019592,0.9336243,-34.44621,5.739655,-28.39685,3.326538,0.5280355,0.4015131,1.0,0.4543457,-0.0670166,0.8882904,32.44775,7.919235,-27.33955,3.51622,0.4302524,0.31661,-0.4665114000000001,1.190949,-0.02931553,-0.02951143,0.6488170999999999,0.03980377,0.3026064,9.697067,32.99
3,0.4261016999999999,-0.06668091,0.9022064,1.0,0.4016724,-0.06399536,0.9135284,-34.29906,5.688782,-28.47832,3.391754,0.5147913,0.4053395999999999,1.0,0.4871063,-0.07330322,0.8702545,32.79973,7.929321000000001,-27.46121,3.659225,0.4123354,0.318629,-0.4667054,1.1908729999999998,-0.02964183,-0.02933735,0.6495008000000001,0.0399106,0.3026064,9.697067,32.99
3,0.4261016999999999,-0.06668091,0.9022064,1.0,0.4016724,-0.06399536,0.9135284,-34.29906,5.688782,-28.47832,3.391754,0.5147913,0.4053395999999999,1.0,0.4871063,-0.07330322,0.8702545,32.79973,7.929321000000001,-27.46121,3.659225,0.4123354,0.318629,-0.4667054,1.1908729999999998,-0.02964183,-0.02933735,0.6495008000000001,0.0399106,0.3026064,9.697067,32.99
3,0.4261016999999999,-0.06668091,0.9022064,1.0,0.4016724,-0.06399536,0.9135284,-34.29906,5.688782,-28.47832,3.391754,0.5147913,0.4053395999999999,1.0,0.4871063,-0.07330322,0.8702545,32.79973,7.929321000000001,-27.46121,3.659225,0.4123354,0.318629,-0.4667054,1.1908729999999998,-0.02964183,-0.02933735,0.6495008000000001,0.0399106,0.3026064,9.697067,32.99
3,0.4426117,-0.07139587,0.8938599,1.0,0.4015045,-0.06614685,0.9134521,-34.28719,5.680237,-28.481,3.385361,0.5144202999999999,0.4060104,1.0,0.4852752999999999,-0.07679749,0.8709716999999999,32.84435,7.915313999999999,-27.46703,3.526688,0.4110112,0.3197566,-0.4667054,1.1908729999999998,-0.02964183,-0.02933735,0.6495008000000001,0.0399106,0.3038875,9.697067,32.99
3,0.4426117,-0.07139587,0.8938599,1.0,0.4015045,-0.06614685,0.9134521,-34.28719,5.680237,-28.481,3.385361,0.5144202999999999,0.4060104,1.0,0.4852752999999999,-0.07679749,0.8709716999999999,32.84435,7.915313999999999,-27.46703,3.526688,0.4110112,0.3197566,-0.4667054,1.1908729999999998,-0.02964183,-0.02933735,0.6495008000000001,0.0399106,0.3038875,9.697067,32.99
3,0.4426117,-0.07139587,0.8938599,1.0,0.4015045,-0.06614685,0.9134521,-34.28719,5.680237,-28.481,3.385361,0.5144202999999999,0.4060104,1.0,0.4852752999999999,-0.07679749,0.8709716999999999,32.84435,7.915313999999999,-27.46703,3.526688,0.4110112,0.3197566,-0.4667054,1.1908729999999998,-0.02964183,-0.02933735,0.6495008000000001,0.0399106,0.3038875,9.697067,32.99
3,0.4426117,-0.07139587,0.8938599,1.0,0.4015045,-0.06614685,0.9134521,-34.28719,5.680237,-28.481,3.385361,0.5144202999999999,0.4060104,1.0,0.4852752999999999,-0.07679749,0.8709716999999999,32.84435,7.915313999999999,-27.46703,3.526688,0.4110112,0.3197566,-0.467082,1.190796,-0.03028047,-0.02951679,0.6514732,0.04147014,0.3038875,9.697067,32.99
3,0.4426117,-0.07139587,0.8938599,1.0,0.4015045,-0.06614685,0.9134521,-34.28719,5.680237,-28.481,3.385361,0.5144202999999999,0.4060104,1.0,0.4852752999999999,-0.07679749,0.8709716999999999,32.84435,7.915313999999999,-27.46703,3.526688,0.4110112,0.3197566,-0.467082,1.190796,-0.03028047,-0.02951679,0.6514732,0.04147014,0.3038875,9.697067,32.99
3,0.4426117,-0.07139587,0.8938599,1.0,0.4015045,-0.06614685,0.9134521,-34.28719,5.680237,-28.481,3.385361,0.5144202999999999,0.4060104,1.0,0.4852752999999999,-0.07679749,0.8709716999999999,32.84435,7.915313999999999,-27.46703,3.526688,0.4110112,0.3197566,-0.467082,1.190796,-0.03028047,-0.02951679,0.6514732,0.04147014,0.3038875,9.697067,32.99
3,0.4426117,-0.07139587,0.8938599,1.0,0.4015045,-0.06614685,0.9134521,-34.28719,5.680237,-28.481,3.385361,0.5144202999999999,0.4060104,1.0,0.4852752999999999,-0.07679749,0.8709716999999999,32.84435,7.915313999999999,-27.46703,3.526688,0.4110112,0.3197566,-0.467082,1.190796,-0.03028047,-0.02951679,0.6514732,0.04147014,0.3038875,9.697067,32.99
3,0.4426117,-0.07139587,0.8938599,1.0,0.4015045,-0.06614685,0.9134521,-34.28719,5.680237,-28.481,3.385361,0.5144202999999999,0.4060104,1.0,0.4852752999999999,-0.07679749,0.8709716999999999,32.84435,7.915313999999999,-27.46703,3.526688,0.4110112,0.3197566,-0.467082,1.190796,-0.03028047,-0.02951679,0.6514732,0.04147014,0.3038875,9.697067,32.99
3,0.4426117,-0.07139587,0.8938599,1.0,0.4015045,-0.06614685,0.9134521,-34.28719,5.680237,-28.481,3.385361,0.5144202999999999,0.4060104,1.0,0.4852752999999999,-0.07679749,0.8709716999999999,32.84435,7.915313999999999,-27.46703,3.526688,0.4110112,0.3197566,-0.467082,1.190796,-0.03028047,-0.02951679,0.6514732,0.04147014,0.3038875,9.697067,32.99
3,0.4431915,-0.07116699,0.8935851999999999,1.0,0.4014435,-0.06700134,0.9134216,-34.28581,5.677276999999999,-28.48155,3.384933,0.5143873,0.4062693,1.0,0.486145,-0.07540894,0.8706055,32.8476,7.914795,-27.467270000000003,3.571228,0.4107808,0.3195314,-0.4674975999999999,1.191408,-0.03052679,-0.03074125,0.6538062,0.04426333,0.3038875,37.51575,32.99
3,0.4431915,-0.07116699,0.8935851999999999,1.0,0.4014435,-0.06700134,0.9134216,-34.28581,5.677276999999999,-28.48155,3.384933,0.5143873,0.4062693,1.0,0.486145,-0.07540894,0.8706055,32.8476,7.914795,-27.467270000000003,3.571228,0.4107808,0.3195314,-0.4674975999999999,1.191408,-0.03052679,-0.03074125,0.6538062,0.04426333,0.3038875,37.51575,32.99
3,0.4431915,-0.07116699,0.8935851999999999,1.0,0.4014435,-0.06700134,0.9134216,-34.28581,5.677276999999999,-28.48155,3.384933,0.5143873,0.4062693,1.0,0.486145,-0.07540894,0.8706055,32.8476,7.914795,-27.467270000000003,3.571228,0.4107808,0.3195314,-0.4674975999999999,1.191408,-0.03052679,-0.03074125,0.6538062,0.04426333,0.3038875,37.51575,32.99
3,0.4431915,-0.07116699,0.8935851999999999,1.0,0.4014435,-0.06700134,0.9134216,-34.28581,5.677276999999999,-28.48155,3.384933,0.5143873,0.4062693,1.0,0.486145,-0.07540894,0.8706055,32.8476,7.914795,-27.467270000000003,3.571228,0.4107808,0.3195314,-0.4674975999999999,1.191408,-0.03052679,-0.03074125,0.6538062,0.04426333,0.3038875,37.51575,32.99
3,0.4431915,-0.07116699,0.8935851999999999,1.0,0.4014435,-0.06700134,0.9134216,-34.28581,5.677276999999999,-28.48155,3.384933,0.5143873,0.4062693,1.0,0.486145,-0.07540894,0.8706055,32.8476,7.914795,-27.467270000000003,3.571228,0.4107808,0.3195314,-0.4674975999999999,1.191408,-0.03052679,-0.03074125,0.6538062,0.04426333,0.3038875,37.51575,32.99
3,0.4431915,-0.07116699,0.8935851999999999,1.0,0.4014435,-0.06700134,0.9134216,-34.28581,5.677276999999999,-28.48155,3.384933,0.5143873,0.4062693,1.0,0.486145,-0.07540894,0.8706055,32.8476,7.914795,-27.467270000000003,3.571228,0.4107808,0.3195314,-0.4674975999999999,1.191408,-0.03052679,-0.03074125,0.6538062,0.04426333,0.3038875,37.51575,32.99
3,0.05052185,-0.04545593,0.9976807,1.0,0.05052185,-0.04545593,0.9976807,-36.02017,5.681717,-28.07481,3.428894,0.6324795999999999,0.3955436,1.0,0.1539917,-0.06063843,0.9862061,31.10063,7.841216999999999,-26.51836,3.754593,0.5283835,0.3092189,-0.468164,1.191566,-0.03069683,-0.03147053,0.6554539,0.04587112,0.3038875,37.51575,32.99
3,0.05052185,-0.04545593,0.9976807,1.0,0.05052185,-0.04545593,0.9976807,-36.02017,5.681717,-28.07481,3.428894,0.6324795999999999,0.3955436,1.0,0.1539917,-0.06063843,0.9862061,31.10063,7.841216999999999,-26.51836,3.754593,0.5283835,0.3092189,-0.468164,1.191566,-0.03069683,-0.03147053,0.6554539,0.04587112,0.3038875,37.51575,32.99
3,0.05052185,-0.04545593,0.9976807,1.0,0.05052185,-0.04545593,0.9976807,-36.02017,5.681717,-28.07481,3.428894,0.6324795999999999,0.3955436,1.0,0.1539917,-0.06063843,0.9862061,31.10063,7.841216999999999,-26.51836,3.754593,0.5283835,0.3092189,-0.468164,1.191566,-0.03069683,-0.03147053,0.6554539,0.04587112,0.3038875,37.51575,32.99
3,0.1529541,-0.05723572,0.9865723,1.0,0.05821228,-0.04278564,0.9973755,-36.05876,5.556213,-27.7242,3.4617160000000005,0.6319895000000001,0.3964815,1.0,0.1538086,-0.05735779,0.9864197,31.11075,7.808838000000001,-26.43655,3.746307,0.5280265000000001,0.3091311,-0.4685398,1.191548,-0.03088786,-0.03150756,0.6562406,0.04625051,0.3038875,37.51575,32.99
3,0.1529541,-0.05723572,0.9865723,1.0,0.05821228,-0.04278564,0.9973755,-36.05876,5.556213,-27.7242,3.4617160000000005,0.6319895000000001,0.3964815,1.0,0.1538086,-0.05735779,0.9864197,31.11075,7.808838000000001,-26.43655,3.746307,0.5280265000000001,0.3091311,-0.4685398,1.191548,-0.03088786,-0.03150756,0.6562406,0.04625051,0.3038875,37.51575,32.99
3,0.1529541,-0.05723572,0.9865723,1.0,0.05821228,-0.04278564,0.9973755,-36.05876,5.556213,-27.7242,3.4617160000000005,0.6319895000000001,0.3964815,1.0,0.1538086,-0.05735779,0.9864197,31.11075,7.808838000000001,-26.43655,3.746307,0.5280265000000001,0.3091311,-0.4685398,1.191548,-0.03088786,-0.03150756,0.6562406,0.04625051,0.3038875,37.51575,32.99
3,0.1515045,-0.06059265,0.9865875,1.0,0.05609131,-0.04510498,0.997406,-36.05972,5.535095,-27.68565,3.471436,0.632333,0.3972785,1.0,0.1538543999999999,-0.06097412,0.9862061,31.1082,7.795563,-26.39378,3.74762,0.5280876,0.3099029,-0.468802,1.191581,-0.031103,-0.03176169,0.6571108,0.04681651,0.3038875,10.29564,32.99
3,0.1515045,-0.06059265,0.9865875,1.0,0.05609131,-0.04510498,0.997406,-36.05972,5.535095,-27.68565,3.471436,0.632333,0.3972785,1.0,0.1538543999999999,-0.06097412,0.9862061,31.1082,7.795563,-26.39378,3.74762,0.5280876,0.3099029,-0.468802,1.191581,-0.031103,-0.03176169,0.6571108,0.04681651,0.3038875,10.29564,32.99
3,0.1515045,-0.06059265,0.9865875,1.0,0.05609131,-0.04510498,0.997406,-36.05972,5.535095,-27.68565,3.471436,0.632333,0.3972785,1.0,0.1538543999999999,-0.06097412,0.9862061,31.1082,7.795563,-26.39378,3.74762,0.5280876,0.3099029,-0.468802,1.191581,-0.031103,-0.03176169,0.6571108,0.04681651,0.3038875,10.29564,32.99
3,0.09805298,-0.05529785,0.9936371,1.0,0.05410767,-0.048172,0.9973602,-36.059540000000005,5.53923,-27.68857,3.483337,0.6326717,0.3976893,1.0,0.1532287999999999,-0.06411743,0.9860992,31.102490000000003,7.778946,-26.3436,3.762329,0.52837,0.3106542,-0.4689622,1.19166,-0.03129863,-0.03244115,0.6577525,0.04752107,0.3038875,10.29564,32.99
3,0.09805298,-0.05529785,0.9936371,1.0,0.05410767,-0.048172,0.9973602,-36.059540000000005,5.53923,-27.68857,3.483337,0.6326717,0.3976893,1.0,0.1532287999999999,-0.06411743,0.9860992,31.102490000000003,7.778946,-26.3436,3.762329,0.52837,0.3106542,-0.4689622,1.19166,-0.03129863,-0.03244115,0.6577525,0.04752107,0.3038875,10.29564,32.99
3,0.09805298,-0.05529785,0.9936371,1.0,0.05410767,-0.048172,0.9973602,-36.059540000000005,5.53923,-27.68857,3.483337,0.6326717,0.3976893,1.0,0.1532287999999999,-0.06411743,0.9860992,31.102490000000003,7.778946,-26.3436,3.762329,0.52837,0.3106542,-0.4689622,1.19166,-0.03129863,-0.03244115,0.6577525,0.04752107,0.3038875,10.29564,32.99
3,0.1277008,-0.06588745,0.9896088,1.0,0.02644348,-0.06332397,0.9976349,-36.09196,5.636429,-28.063540000000003,3.630478,0.6389984999999999,0.4001250999999999,1.0,0.1519318,-0.06640625,0.986145,31.10518,7.800552000000001,-26.41183,3.787048,0.5285403000000001,0.3108277,-0.4691992999999999,1.191705,-0.03156215,-0.03353964,0.6582158,0.04713349,0.3038875,10.29564,32.99
3,0.1277008,-0.06588745,0.9896088,1.0,0.02644348,-0.06332397,0.9976349,-36.09196,5.636429,-28.063540000000003,3.630478,0.6389984999999999,0.4001250999999999,1.0,0.1519318,-0.06640625,0.986145,31.10518,7.800552000000001,-26.41183,3.787048,0.5285403000000001,0.3108277,-0.4691992999999999,1.191705,-0.03156215,-0.03353964,0.6582158,0.04713349,0.3038875,10.29564,32.99
3,0.1277008,-0.06588745,0.9896088,1.0,0.02644348,-0.06332397,0.9976349,-36.09196,5.636429,-28.063540000000003,3.630478,0.6389984999999999,0.4001250999999999,1.0,0.1519318,-0.06640625,0.986145,31.10518,7.800552000000001,-26.41183,3.787048,0.5285403000000001,0.3108277,-0.4691992999999999,1.191705,-0.03156215,-0.03353964,0.6582158,0.04713349,0.3038875,10.29564,32.99
3,0.1274719,-0.07582092,0.9889374,1.0,0.02813721,-0.07246399,0.9969635,-36.13466,5.593979,-27.9505,3.5709690000000003,0.6400158,0.4021302,1.0,0.1360016,-0.07608032,0.9877777,31.08603,7.802719000000001,-26.61719,3.695892,0.5319255,0.3139195999999999,-0.4691992999999999,1.191705,-0.03156215,-0.03353964,0.6582158,0.04713349,0.3038875,10.29564,32.99
3,0.1274719,-0.07582092,0.9889374,1.0,0.02813721,-0.07246399,0.9969635,-36.13466,5.593979,-27.9505,3.5709690000000003,0.6400158,0.4021302,1.0,0.1360016,-0.07608032,0.9877777,31.08603,7.802719000000001,-26.61719,3.695892,0.5319255,0.3139195999999999,-0.4691992999999999,1.191705,-0.03156215,-0.03353964,0.6582158,0.04713349,0.3038875,10.29564,32.99
3,0.1274719,-0.07582092,0.9889374,1.0,0.02813721,-0.07246399,0.9969635,-36.13466,5.593979,-27.9505,3.5709690000000003,0.6400158,0.4021302,1.0,0.1360016,-0.07608032,0.9877777,31.08603,7.802719000000001,-26.61719,3.695892,0.5319255,0.3139195999999999,-0.4691992999999999,1.191705,-0.03156215,-0.03353964,0.6582158,0.04713349,0.3038875,10.29564,32.99
3,0.05145264,-0.07096863,0.9961395,1.0,0.02923584,-0.07102966,0.9970398,-36.16133,5.551529,-27.83055,3.58638,0.6405808000000001,0.4023085999999999,1.0,0.1434937,-0.0703125,0.9871368,30.97975,7.570602,-25.76596,3.779633,0.5338724,0.31445,-0.4693139,1.191733,-0.03186471,-0.03500386,0.6588696999999999,0.04654026,0.3038875,10.29564,32.99
3,0.05145264,-0.07096863,0.9961395,1.0,0.02923584,-0.07102966,0.9970398,-36.16133,5.551529,-27.83055,3.58638,0.6405808000000001,0.4023085999999999,1.0,0.1434937,-0.0703125,0.9871368,30.97975,7.570602,-25.76596,3.779633,0.5338724,0.31445,-0.4693139,1.191733,-0.03186471,-0.03500386,0.6588696999999999,0.04654026,0.3038875,10.29564,32.99
3,0.05145264,-0.07096863,0.9961395,1.0,0.02923584,-0.07102966,0.9970398,-36.16133,5.551529,-27.83055,3.58638,0.6405808000000001,0.4023085999999999,1.0,0.1434937,-0.0703125,0.9871368,30.97975,7.570602,-25.76596,3.779633,0.5338724,0.31445,-0.4693139,1.191733,-0.03186471,-0.03500386,0.6588696999999999,0.04654026,0.3038875,10.29564,32.99
3,0.05145264,-0.07096863,0.9961395,1.0,0.02923584,-0.07102966,0.9970398,-36.16133,5.551529,-27.83055,3.58638,0.6405808000000001,0.4023085999999999,1.0,0.1434937,-0.0703125,0.9871368,30.97975,7.570602,-25.76596,3.779633,0.5338724,0.31445,-0.4695940999999999,1.191512,-0.03310584,-0.03621201,0.6613979,0.04599435,0.3038875,10.29564,32.99
3,0.05145264,-0.07096863,0.9961395,1.0,0.02923584,-0.07102966,0.9970398,-36.16133,5.551529,-27.83055,3.58638,0.6405808000000001,0.4023085999999999,1.0,0.1434937,-0.0703125,0.9871368,30.97975,7.570602,-25.76596,3.779633,0.5338724,0.31445,-0.4695940999999999,1.191512,-0.03310584,-0.03621201,0.6613979,0.04599435,0.3038875,10.29564,32.99
3,0.05145264,-0.07096863,0.9961395,1.0,0.02923584,-0.07102966,0.9970398,-36.16133,5.551529,-27.83055,3.58638,0.6405808000000001,0.4023085999999999,1.0,0.1434937,-0.0703125,0.9871368,30.97975,7.570602,-25.76596,3.779633,0.5338724,0.31445,-0.4695940999999999,1.191512,-0.03310584,-0.03621201,0.6613979,0.04599435,0.3038875,10.29564,32.99
3,0.03117371,-0.07064819,0.9970093,1.0,0.03114319,-0.07064819,0.9970093,-36.1812,5.518646,-27.74808,3.5836330000000003,0.6408023,0.4026804,1.0,0.1405333999999999,-0.0737915,0.9873199,30.97975,7.570602,-25.76596,3.781525,0.5343654999999999,0.3151056,-0.4696436,1.191211,-0.03387589,-0.0358871999999999,0.6632684,0.04497014,0.3038875,-49.13054,32.99
3,0.03117371,-0.07064819,0.9970093,1.0,0.03114319,-0.07064819,0.9970093,-36.1812,5.518646,-27.74808,3.5836330000000003,0.6408023,0.4026804,1.0,0.1405333999999999,-0.0737915,0.9873199,30.97975,7.570602,-25.76596,3.781525,0.5343654999999999,0.3151056,-0.4696436,1.191211,-0.03387589,-0.0358871999999999,0.6632684,0.04497014,0.3038875,-49.13054,32.99
3,0.03117371,-0.07064819,0.9970093,1.0,0.03114319,-0.07064819,0.9970093,-36.1812,5.518646,-27.74808,3.5836330000000003,0.6408023,0.4026804,1.0,0.1405333999999999,-0.0737915,0.9873199,30.97975,7.570602,-25.76596,3.781525,0.5343654999999999,0.3151056,-0.4696436,1.191211,-0.03387589,-0.0358871999999999,0.6632684,0.04497014,0.3038875,-49.13054,32.99
3,0.02705383,-0.08862305,0.9956818,1.0,0.02705383,-0.08862305,0.995697,-36.19112,5.572632,-28.08438,3.603271,0.6422899000000001,0.4067476,1.0,0.1242218,-0.08198547,0.9888458,31.01131,7.764847,-26.89005,3.764008,0.5365890999999999,0.3183429,-0.4698199,1.1909379999999998,-0.03459463,-0.03521803,0.6652814,0.04383535,0.3038875,-49.13054,32.99
3,0.02705383,-0.08862305,0.9956818,1.0,0.02705383,-0.08862305,0.995697,-36.19112,5.572632,-28.08438,3.603271,0.6422899000000001,0.4067476,1.0,0.1242218,-0.08198547,0.9888458,31.01131,7.764847,-26.89005,3.764008,0.5365890999999999,0.3183429,-0.4698199,1.1909379999999998,-0.03459463,-0.03521803,0.6652814,0.04383535,0.3038875,-49.13054,32.99
3,0.02705383,-0.08862305,0.9956818,1.0,0.02705383,-0.08862305,0.995697,-36.19112,5.572632,-28.08438,3.603271,0.6422899000000001,0.4067476,1.0,0.1242218,-0.08198547,0.9888458,31.01131,7.764847,-26.89005,3.764008,0.5365890999999999,0.3183429,-0.4698199,1.1909379999999998,-0.03459463,-0.03521803,0.6652814,0.04383535,0.3038875,-49.13054,32.99
3,0.07870483,-0.0894928,0.9928589,1.0,0.02618408,-0.09170532,0.9954376,-36.17497,5.573196,-28.12886,3.610016,0.6419553000000001,0.4076413,1.0,0.1288147,-0.08712769,0.9878235,31.01112,7.754974000000001,-26.886570000000003,3.774689,0.5358185000000001,0.319565,-0.4699317,1.190647,-0.03529209,-0.03405948,0.6672093000000001,0.04310975,0.3038875,-49.13054,32.99
3,0.07870483,-0.0894928,0.9928589,1.0,0.02618408,-0.09170532,0.9954376,-36.17497,5.573196,-28.12886,3.610016,0.6419553000000001,0.4076413,1.0,0.1288147,-0.08712769,0.9878235,31.01112,7.754974000000001,-26.886570000000003,3.774689,0.5358185000000001,0.319565,-0.4699317,1.190647,-0.03529209,-0.03405948,0.6672093000000001,0.04310975,0.3038875,-49.13054,32.99
3,0.07870483,-0.0894928,0.9928589,1.0,0.02618408,-0.09170532,0.9954376,-36.17497,5.573196,-28.12886,3.610016,0.6419553000000001,0.4076413,1.0,0.1288147,-0.08712769,0.9878235,31.01112,7.754974000000001,-26.886570000000003,3.774689,0.5358185000000001,0.319565,-0.4699317,1.190647,-0.03529209,-0.03405948,0.6672093000000001,0.04310975,0.3038875,-49.13054,32.99
3,0.07966614,-0.09147644,0.9925995,1.0,0.02659607,-0.09382629,0.995224,-36.17105,5.570129,-28.10466,3.602142,0.6417126999999999,0.4079134,1.0,0.1304016,-0.08898926,0.987442,31.01096,7.754425,-26.88307,3.774338,0.535552,0.3198854,-0.4699069999999999,1.190397,-0.03589095,-0.03362314,0.668982,0.04264159,0.3038875,-49.13054,32.99
3,0.07966614,-0.09147644,0.9925995,1.0,0.02659607,-0.09382629,0.995224,-36.17105,5.570129,-28.10466,3.602142,0.6417126999999999,0.4079134,1.0,0.1304016,-0.08898926,0.987442,31.01096,7.754425,-26.88307,3.774338,0.535552,0.3198854,-0.4699069999999999,1.190397,-0.03589095,-0.03362314,0.668982,0.04264159,0.3038875,-49.13054,32.99
3,0.07966614,-0.09147644,0.9925995,1.0,0.02659607,-0.09382629,0.995224,-36.17105,5.570129,-28.10466,3.602142,0.6417126999999999,0.4079134,1.0,0.1304016,-0.08898926,0.987442,31.01096,7.754425,-26.88307,3.774338,0.535552,0.3198854,-0.4699069999999999,1.190397,-0.03589095,-0.03362314,0.668982,0.04264159,0.3038875,-49.13054,32.99
3,0.07966614,-0.09147644,0.9925995,1.0,0.02659607,-0.09382629,0.995224,-36.17105,5.570129,-28.10466,3.602142,0.6417126999999999,0.4079134,1.0,0.1304016,-0.08898926,0.987442,31.01096,7.754425,-26.88307,3.774338,0.535552,0.3198854,-0.4698862,1.190399,-0.03651679,-0.03329399,0.6705646,0.04300316,0.3038875,-49.13054,32.99
3,0.07966614,-0.09147644,0.9925995,1.0,0.02659607,-0.09382629,0.995224,-36.17105,5.570129,-28.10466,3.602142,0.6417126999999999,0.4079134,1.0,0.1304016,-0.08898926,0.987442,31.01096,7.754425,-26.88307,3.774338,0.535552,0.3198854,-0.4698862,1.190399,-0.03651679,-0.03329399,0.6705646,0.04300316,0.3038875,-49.13054,32.99
3,0.07966614,-0.09147644,0.9925995,1.0,0.02659607,-0.09382629,0.995224,-36.17105,5.570129,-28.10466,3.602142,0.6417126999999999,0.4079134,1.0,0.1304016,-0.08898926,0.987442,31.01096,7.754425,-26.88307,3.774338,0.535552,0.3198854,-0.4698862,1.190399,-0.03651679,-0.03329399,0.6705646,0.04300316,0.3038875,-49.13054,32.99
3,0.07966614,-0.09147644,0.9925995,1.0,0.02659607,-0.09382629,0.995224,-36.17105,5.570129,-28.10466,3.602142,0.6417126999999999,0.4079134,1.0,0.1304016,-0.08898926,0.987442,31.01096,7.754425,-26.88307,3.774338,0.535552,0.3198854,-0.4697903,1.190321,-0.03690954,-0.03387143,0.6720133,0.04224334,0.3038875,23.51528,32.99
3,0.07966614,-0.09147644,0.9925995,1.0,0.02659607,-0.09382629,0.995224,-36.17105,5.570129,-28.10466,3.602142,0.6417126999999999,0.4079134,1.0,0.1304016,-0.08898926,0.987442,31.01096,7.754425,-26.88307,3.774338,0.535552,0.3198854,-0.4697903,1.190321,-0.03690954,-0.03387143,0.6720133,0.04224334,0.3038875,23.51528,32.99
3,0.07966614,-0.09147644,0.9925995,1.0,0.02659607,-0.09382629,0.995224,-36.17105,5.570129,-28.10466,3.602142,0.6417126999999999,0.4079134,1.0,0.1304016,-0.08898926,0.987442,31.01096,7.754425,-26.88307,3.774338,0.535552,0.3198854,-0.4697903,1.190321,-0.03690954,-0.03387143,0.6720133,0.04224334,0.3038875,23.51528,32.99
3,0.08091736,-0.09091187,0.9925537,1.0,0.02644348,-0.09283447,0.9953156,-36.16646,5.559357,-28.10466,3.606796,0.6415801999999999,0.4081060999999999,1.0,0.1311035,-0.08891296,0.9873657,31.01637,7.748505000000001,-26.87917,3.78537,0.5352523,0.3200471,-0.4697363,1.190049,-0.03732473,-0.03382136,0.6733998999999999,0.04143371,0.3038875,23.51528,32.99
3,0.08091736,-0.09091187,0.9925537,1.0,0.02644348,-0.09283447,0.9953156,-36.16646,5.559357,-28.10466,3.606796,0.6415801999999999,0.4081060999999999,1.0,0.1311035,-0.08891296,0.9873657,31.01637,7.748505000000001,-26.87917,3.78537,0.5352523,0.3200471,-0.4697363,1.190049,-0.03732473,-0.03382136,0.6733998999999999,0.04143371,0.3038875,23.51528,32.99
3,0.08091736,-0.09091187,0.9925537,1.0,0.02644348,-0.09283447,0.9953156,-36.16646,5.559357,-28.10466,3.606796,0.6415801999999999,0.4081060999999999,1.0,0.1311035,-0.08891296,0.9873657,31.01637,7.748505000000001,-26.87917,3.78537,0.5352523,0.3200471,-0.4697363,1.190049,-0.03732473,-0.03382136,0.6733998999999999,0.04143371,0.3038875,23.51528,32.99
3,0.05661011,-0.09217834,0.9941254,1.0,0.02406311,-0.0905304,0.9955902,-36.07266,5.597336,-28.40878,3.503586,0.6391283,0.4089912,1.0,0.1337279999999999,-0.09571838,0.9863739,31.05382,7.606232,-26.39938,3.765472,0.5332903,0.3223882,-0.4696502999999999,1.189972,-0.03763084,-0.03405592,0.6743201,0.04085705,0.3038875,23.51528,32.99
3,0.05661011,-0.09217834,0.9941254,1.0,0.02406311,-0.0905304,0.9955902,-36.07266,5.597336,-28.40878,3.503586,0.6391283,0.4089912,1.0,0.1337279999999999,-0.09571838,0.9863739,31.05382,7.606232,-26.39938,3.765472,0.5332903,0.3223882,-0.4696502999999999,1.189972,-0.03763084,-0.03405592,0.6743201,0.04085705,0.3038875,23.51528,32.99
3,0.05661011,-0.09217834,0.9941254,1.0,0.02406311,-0.0905304,0.9955902,-36.07266,5.597336,-28.40878,3.503586,0.6391283,0.4089912,1.0,0.1337279999999999,-0.09571838,0.9863739,31.05382,7.606232,-26.39938,3.765472,0.5332903,0.3223882,-0.4696502999999999,1.189972,-0.03763084,-0.03405592,0.6743201,0.04085705,0.3038875,23.51528,32.99
3,0.1214599999999999,-0.1115112,0.9862976,1.0,0.02723694,-0.1018829,0.9944153,-36.00815,5.670776,-28.65939,3.51622,0.6367556,0.4105930999999999,1.0,0.1389771,-0.1131896999999999,0.9837952,31.070970000000003,7.623444,-26.46364,3.654831,0.5317913000000001,0.3255219,-0.4693835,1.1899110000000002,-0.03825754,-0.03463451,0.6756523,0.04053941,0.3038875,23.51528,32.99
3,0.1214599999999999,-0.1115112,0.9862976,1.0,0.02723694,-0.1018829,0.9944153,-36.00815,5.670776,-28.65939,3.51622,0.6367556,0.4105930999999999,1.0,0.1389771,-0.1131896999999999,0.9837952,31.070970000000003,7.623444,-26.46364,3.654831,0.5317913000000001,0.3255219,-0.4693835,1.1899110000000002,-0.03825754,-0.03463451,0.6756523,0.04053941,0.3038875,23.51528,32.99
3,0.1214599999999999,-0.1115112,0.9862976,1.0,0.02723694,-0.1018829,0.9944153,-36.00815,5.670776,-28.65939,3.51622,0.6367556,0.4105930999999999,1.0,0.1389771,-0.1131896999999999,0.9837952,31.070970000000003,7.623444,-26.46364,3.654831,0.5317913000000001,0.3255219,-0.4693835,1.1899110000000002,-0.03825754,-0.03463451,0.6756523,0.04053941,0.3038875,23.51528,32.99
3,0.09472656,-0.132431,0.9866486,1.0,-0.02519226,-0.1268616,0.9915924,-36.30527,5.462905999999999,-27.96317,3.559387,0.654844,0.4159909,1.0,0.09593201,-0.1324767999999999,0.9865265,30.75285,7.458313,-26.16109,3.592606,0.5495696,0.3320488,-0.4692446,1.189874,-0.03828995,-0.03503091,0.6761897,0.03999184,0.3038875,13.3186,32.99
3,0.09472656,-0.132431,0.9866486,1.0,-0.02519226,-0.1268616,0.9915924,-36.30527,5.462905999999999,-27.96317,3.559387,0.654844,0.4159909,1.0,0.09593201,-0.1324767999999999,0.9865265,30.75285,7.458313,-26.16109,3.592606,0.5495696,0.3320488,-0.4692446,1.189874,-0.03828995,-0.03503091,0.6761897,0.03999184,0.3038875,13.3186,32.99
3,0.09472656,-0.132431,0.9866486,1.0,-0.02519226,-0.1268616,0.9915924,-36.30527,5.462905999999999,-27.96317,3.559387,0.654844,0.4159909,1.0,0.09593201,-0.1324767999999999,0.9865265,30.75285,7.458313,-26.16109,3.592606,0.5495696,0.3320488,-0.4692446,1.189874,-0.03828995,-0.03503091,0.6761897,0.03999184,0.3038875,13.3186,32.99
3,-0.09762573,-0.1420287999999999,0.9850311,1.0,-0.09986877,-0.1419983,0.9848021999999998,-36.65813,5.42804,-28.22391,3.5962980000000004,0.6801793,0.4219361,1.0,0.003082275,-0.1421509,0.9898376,30.33575,7.568771000000001,-27.17613,3.735611,0.5801364999999999,0.3377079,-0.4692446,1.189874,-0.03828995,-0.03503091,0.6761897,0.03999184,0.3038875,13.3186,32.99
3,-0.09762573,-0.1420287999999999,0.9850311,1.0,-0.09986877,-0.1419983,0.9848021999999998,-36.65813,5.42804,-28.22391,3.5962980000000004,0.6801793,0.4219361,1.0,0.003082275,-0.1421509,0.9898376,30.33575,7.568771000000001,-27.17613,3.735611,0.5801364999999999,0.3377079,-0.4692446,1.189874,-0.03828995,-0.03503091,0.6761897,0.03999184,0.3038875,13.3186,32.99
3,-0.09762573,-0.1420287999999999,0.9850311,1.0,-0.09986877,-0.1419983,0.9848021999999998,-36.65813,5.42804,-28.22391,3.5962980000000004,0.6801793,0.4219361,1.0,0.003082275,-0.1421509,0.9898376,30.33575,7.568771000000001,-27.17613,3.735611,0.5801364999999999,0.3377079,-0.4692446,1.189874,-0.03828995,-0.03503091,0.6761897,0.03999184,0.3038875,13.3186,32.99
3,-0.1079559,-0.15242,0.9823914,1.0,-0.108429,-0.1524506,0.9823303,-36.654140000000005,5.434189,-28.24518,3.622559,0.681547,0.4237809,1.0,0.0029296879999999,-0.1445465,0.9894867,30.33916,7.559539999999999,-27.152390000000004,3.655426,0.5800093000000001,0.3382517,-0.4690364999999999,1.189842,-0.03829195,-0.03457201,0.6771672,0.04029723,0.3038875,13.3186,32.99
3,-0.1079559,-0.15242,0.9823914,1.0,-0.108429,-0.1524506,0.9823303,-36.654140000000005,5.434189,-28.24518,3.622559,0.681547,0.4237809,1.0,0.0029296879999999,-0.1445465,0.9894867,30.33916,7.559539999999999,-27.152390000000004,3.655426,0.5800093000000001,0.3382517,-0.4690364999999999,1.189842,-0.03829195,-0.03457201,0.6771672,0.04029723,0.3038875,13.3186,32.99
