Second,eye_comb_direction_x,eye_comb_direction_y,eye_comb_direction_z,eye_r_openness,eye_r_direction_x,eye_r_direction_y,eye_r_direction_z,eye_r_origin_x,eye_r_origin_y,eye_r_origin_z,eye_r_pupil_diameter,eye_r_pupil_position_x,eye_r_pupil_position_y,eye_l_openness,eye_l_direction_x,eye_l_direction_y,eye_l_direction_z,eye_l_origin_x,eye_l_origin_y,eye_l_origin_z,eye_l_pupil_diameter,eye_l_pupil_position_x,eye_l_pupil_position_y,head_position_x,head_position_y,head_position_z,head_rotation_roll,head_rotation_pitch,head_rotation_yaw,EDA,BVP,TMP
0,-0.2602997,-0.1509399,0.9536438,0.9536284,-0.2652893,-0.1225739,0.9563293,-28.98589,-1.542465,-18.10019,5.440887,0.4490104,0.5572971999999999,0.9806505,-0.2572479,-0.1676941,0.9516754,33.89313,0.6790619000000001,-20.72937,5.358475,0.4996073,0.5168785,-0.2368259,1.009614,-0.1209642,-0.02488963,0.5648896,0.07012241,0.3013616,-1.1436804828172584,33.51461675126904
0,-0.2602997,-0.1509399,0.9536438,0.9536284,-0.2652893,-0.1225739,0.9563293,-28.98589,-1.542465,-18.10019,5.440887,0.4490104,0.5572971999999999,0.9806505,-0.2572479,-0.1676941,0.9516754,33.89313,0.6790619000000001,-20.72937,5.358475,0.4996073,0.5168785,-0.2368259,1.009614,-0.1209642,-0.02488963,0.5648896,0.07012241,0.3013616,-1.1436804828172584,33.51461675126904
0,-0.2602997,-0.1509399,0.9536438,0.9536284,-0.2652893,-0.1225739,0.9563293,-28.98589,-1.542465,-18.10019,5.440887,0.4490104,0.5572971999999999,0.9806505,-0.2572479,-0.1676941,0.9516754,33.89313,0.6790619000000001,-20.72937,5.358475,0.4996073,0.5168785,-0.2368259,1.009614,-0.1209642,-0.02488963,0.5648896,0.07012241,0.3013616,-1.1436804828172584,33.51461675126904
0,-0.2602997,-0.1509399,0.9536438,0.9536284,-0.2652893,-0.1225739,0.9563293,-28.98589,-1.542465,-18.10019,5.440887,0.4490104,0.5572971999999999,0.9806505,-0.2572479,-0.1676941,0.9516754,33.89313,0.6790619000000001,-20.72937,5.358475,0.4996073,0.5168785,-0.2368259,1.009614,-0.1209642,-0.02488963,0.5648896,0.07012241,0.3013616,-1.1436804828172584,33.51461675126904
0,-0.2541504,-0.1266022,0.9588318,1.0,-0.2513428,-0.1091003,0.9617157,-29.08476,-1.589813,-18.1438,5.376266,0.4500217000000001,0.5568566,1.0,-0.2564545,-0.1414185,0.9561462,33.85211,0.6805266999999999,-20.7554,5.483749,0.5008104,0.5127876,-0.2366081,1.009475,-0.121083,-0.02470695,0.5647813,0.0701666,0.3013616,-1.1436804828172584,33.51461675126904
0,-0.2541504,-0.1266022,0.9588318,1.0,-0.2513428,-0.1091003,0.9617157,-29.08476,-1.589813,-18.1438,5.376266,0.4500217000000001,0.5568566,1.0,-0.2564545,-0.1414185,0.9561462,33.85211,0.6805266999999999,-20.7554,5.483749,0.5008104,0.5127876,-0.2366081,1.009475,-0.121083,-0.02470695,0.5647813,0.0701666,0.3013616,-1.1436804828172584,33.51461675126904
0,-0.2541504,-0.1266022,0.9588318,1.0,-0.2513428,-0.1091003,0.9617157,-29.08476,-1.589813,-18.1438,5.376266,0.4500217000000001,0.5568566,1.0,-0.2564545,-0.1414185,0.9561462,33.85211,0.6805266999999999,-20.7554,5.483749,0.5008104,0.5127876,-0.2366081,1.009475,-0.121083,-0.02470695,0.5647813,0.0701666,0.3013616,-1.1436804828172584,33.51461675126904
0,-0.2525177,-0.1273346,0.9591675,1.0,-0.2489623999999999,-0.1120605,0.9619904,-29.08476,-1.594696,-18.1438,5.389893,0.4496395,0.5574504,1.0,-0.2555695,-0.140564,0.9565125,33.85262,0.6760559,-20.75711,5.483429,0.5006535,0.5127876,-0.2365919,1.009411,-0.1212013999999999,-0.02477606,0.5648221,0.06998633,0.3013616,-1.1436804828172584,33.51461675126904
0,-0.2525177,-0.1273346,0.9591675,1.0,-0.2489623999999999,-0.1120605,0.9619904,-29.08476,-1.594696,-18.1438,5.389893,0.4496395,0.5574504,1.0,-0.2555695,-0.140564,0.9565125,33.85262,0.6760559,-20.75711,5.483429,0.5006535,0.5127876,-0.2365919,1.009411,-0.1212013999999999,-0.02477606,0.5648221,0.06998633,0.3013616,-1.1436804828172584,33.51461675126904
0,-0.2525177,-0.1273346,0.9591675,1.0,-0.2489623999999999,-0.1120605,0.9619904,-29.08476,-1.594696,-18.1438,5.389893,0.4496395,0.5574504,1.0,-0.2555695,-0.140564,0.9565125,33.85262,0.6760559,-20.75711,5.483429,0.5006535,0.5127876,-0.2365919,1.009411,-0.1212013999999999,-0.02477606,0.5648221,0.06998633,0.3013616,-1.1436804828172584,33.51461675126904
0,-0.2593079,-0.1234436,0.9578705,1.0,-0.2644347999999999,-0.1047058,0.9586945,-29.01733,-1.613693,-18.1346,5.371231,0.4499398,0.5569602,1.0,-0.2548218,-0.1395111,0.9568634,33.85236,0.6657715,-20.76199,5.428818,0.5005789,0.5129644,-0.2365981,1.009432,-0.1212448,-0.02479275,0.5648776,0.06994826,0.3013616,-1.1436804828172584,33.51461675126904
0,-0.2593079,-0.1234436,0.9578705,1.0,-0.2644347999999999,-0.1047058,0.9586945,-29.01733,-1.613693,-18.1346,5.371231,0.4499398,0.5569602,1.0,-0.2548218,-0.1395111,0.9568634,33.85236,0.6657715,-20.76199,5.428818,0.5005789,0.5129644,-0.2365981,1.009432,-0.1212448,-0.02479275,0.5648776,0.06994826,0.3013616,-1.1436804828172584,33.51461675126904
0,-0.2593079,-0.1234436,0.9578705,1.0,-0.2644347999999999,-0.1047058,0.9586945,-29.01733,-1.613693,-18.1346,5.371231,0.4499398,0.5569602,1.0,-0.2548218,-0.1395111,0.9568634,33.85236,0.6657715,-20.76199,5.428818,0.5005789,0.5129644,-0.2365981,1.009432,-0.1212448,-0.02479275,0.5648776,0.06994826,0.3013616,-1.1436804828172584,33.51461675126904
0,-0.2536621,-0.1241913,0.9592743,1.0,-0.2524414,-0.1054992999999999,0.9618378,-29.07986,-1.615143,-18.14165,5.365112,0.4500510999999999,0.5570582,1.0,-0.2546692,-0.1407471,0.9567261,33.8515,0.6637573,-20.76378,5.4284360000000005,0.5005789,0.5132428,-0.2366006,1.009494,-0.1211851999999999,-0.02457679,0.5650550999999999,0.06996397,0.3013616,-1.1436804828172584,33.51461675126904
0,-0.2536621,-0.1241913,0.9592743,1.0,-0.2524414,-0.1054992999999999,0.9618378,-29.07986,-1.615143,-18.14165,5.365112,0.4500510999999999,0.5570582,1.0,-0.2546692,-0.1407471,0.9567261,33.8515,0.6637573,-20.76378,5.4284360000000005,0.5005789,0.5132428,-0.2366006,1.009494,-0.1211851999999999,-0.02457679,0.5650550999999999,0.06996397,0.3013616,-1.1436804828172584,33.51461675126904
0,-0.2536621,-0.1241913,0.9592743,1.0,-0.2524414,-0.1054992999999999,0.9618378,-29.07986,-1.615143,-18.14165,5.365112,0.4500510999999999,0.5570582,1.0,-0.2546692,-0.1407471,0.9567261,33.8515,0.6637573,-20.76378,5.4284360000000005,0.5005789,0.5132428,-0.2366006,1.009494,-0.1211851999999999,-0.02457679,0.5650550999999999,0.06996397,0.3013616,-1.1436804828172584,33.51461675126904
0,-0.2614441,-0.1186676,0.9578857,1.0,-0.2698059,-0.1048737,0.9571686,-28.993270000000003,-1.613602,-18.13324,5.360855,0.4500217000000001,0.5570191999999999,1.0,-0.2532196,-0.1320953,0.9583435,33.85065,0.6048889000000001,-20.80222,5.391815,0.5004174,0.5140292999999999,-0.2365687,1.009486,-0.1212162,-0.02461556,0.5652015,0.06987638,0.3013616,-1.1436804828172584,33.51461675126904
0,-0.2614441,-0.1186676,0.9578857,1.0,-0.2698059,-0.1048737,0.9571686,-28.993270000000003,-1.613602,-18.13324,5.360855,0.4500217000000001,0.5570191999999999,1.0,-0.2532196,-0.1320953,0.9583435,33.85065,0.6048889000000001,-20.80222,5.391815,0.5004174,0.5140292999999999,-0.2365687,1.009486,-0.1212162,-0.02461556,0.5652015,0.06987638,0.3013616,-1.1436804828172584,33.51461675126904
0,-0.2614441,-0.1186676,0.9578857,1.0,-0.2698059,-0.1048737,0.9571686,-28.993270000000003,-1.613602,-18.13324,5.360855,0.4500217000000001,0.5570191999999999,1.0,-0.2532196,-0.1320953,0.9583435,33.85065,0.6048889000000001,-20.80222,5.391815,0.5004174,0.5140292999999999,-0.2365687,1.009486,-0.1212162,-0.02461556,0.5652015,0.06987638,0.3013616,-1.1436804828172584,33.51461675126904
0,-0.2613373,-0.1186829,0.9579163,1.0,-0.2688904,-0.1049194,0.957428,-28.99248,-1.613602,-18.13316,5.359177,0.449858,0.5570191999999999,1.0,-0.2524719,-0.1346436,0.9581757,33.85065,0.6048889000000001,-20.80255,5.379288,0.5002995,0.5144333999999999,-0.2365886,1.00941,-0.1214144,-0.02463961,0.5653941,0.06974943,0.3013616,-1.1436804828172584,33.51461675126904
0,-0.2613373,-0.1186829,0.9579163,1.0,-0.2688904,-0.1049194,0.957428,-28.99248,-1.613602,-18.13316,5.359177,0.449858,0.5570191999999999,1.0,-0.2524719,-0.1346436,0.9581757,33.85065,0.6048889000000001,-20.80255,5.379288,0.5002995,0.5144333999999999,-0.2365886,1.00941,-0.1214144,-0.02463961,0.5653941,0.06974943,0.3013616,-1.1436804828172584,33.51461675126904
0,-0.2613373,-0.1186829,0.9579163,1.0,-0.2688904,-0.1049194,0.957428,-28.99248,-1.613602,-18.13316,5.359177,0.449858,0.5570191999999999,1.0,-0.2524719,-0.1346436,0.9581757,33.85065,0.6048889000000001,-20.80255,5.379288,0.5002995,0.5144333999999999,-0.2365886,1.00941,-0.1214144,-0.02463961,0.5653941,0.06974943,0.3013616,-1.1436804828172584,33.51461675126904
0,-0.2613373,-0.1186829,0.9579163,1.0,-0.2688904,-0.1049194,0.957428,-28.99248,-1.613602,-18.13316,5.359177,0.449858,0.5570191999999999,1.0,-0.2524719,-0.1346436,0.9581757,33.85065,0.6048889000000001,-20.80255,5.379288,0.5002995,0.5144333999999999,-0.2366419,1.009369,-0.1214224,-0.02451836,0.5656765,0.06955496,0.3013616,-1.1436804828172584,33.51461675126904
0,-0.2613373,-0.1186829,0.9579163,1.0,-0.2688904,-0.1049194,0.957428,-28.99248,-1.613602,-18.13316,5.359177,0.449858,0.5570191999999999,1.0,-0.2524719,-0.1346436,0.9581757,33.85065,0.6048889000000001,-20.80255,5.379288,0.5002995,0.5144333999999999,-0.2366419,1.009369,-0.1214224,-0.02451836,0.5656765,0.06955496,0.3013616,-1.1436804828172584,33.51461675126904
0,-0.2613373,-0.1186829,0.9579163,1.0,-0.2688904,-0.1049194,0.957428,-28.99248,-1.613602,-18.13316,5.359177,0.449858,0.5570191999999999,1.0,-0.2524719,-0.1346436,0.9581757,33.85065,0.6048889000000001,-20.80255,5.379288,0.5002995,0.5144333999999999,-0.2366419,1.009369,-0.1214224,-0.02451836,0.5656765,0.06955496,0.3013616,-1.1436804828172584,33.51461675126904
0,-0.2741699,-0.1247101,0.9535521999999998,1.0,-0.2774047999999999,-0.1053313999999999,0.9549561,-29.00372,-1.585846,-18.13316,5.240982,0.4515999,0.5562823,1.0,-0.270813,-0.144043,0.9517822,33.94379,0.6690216,-20.76588,5.2827150000000005,0.5002484,0.513757,-0.2365426,1.00938,-0.1214321999999999,-0.02453963,0.5658568,0.06939325,0.3013616,-1.1436804828172584,33.51461675126904
0,-0.2741699,-0.1247101,0.9535521999999998,1.0,-0.2774047999999999,-0.1053313999999999,0.9549561,-29.00372,-1.585846,-18.13316,5.240982,0.4515999,0.5562823,1.0,-0.270813,-0.144043,0.9517822,33.94379,0.6690216,-20.76588,5.2827150000000005,0.5002484,0.513757,-0.2365426,1.00938,-0.1214321999999999,-0.02453963,0.5658568,0.06939325,0.3013616,-1.1436804828172584,33.51461675126904
0,-0.2741699,-0.1247101,0.9535521999999998,1.0,-0.2774047999999999,-0.1053313999999999,0.9549561,-29.00372,-1.585846,-18.13316,5.240982,0.4515999,0.5562823,1.0,-0.270813,-0.144043,0.9517822,33.94379,0.6690216,-20.76588,5.2827150000000005,0.5002484,0.513757,-0.2365426,1.00938,-0.1214321999999999,-0.02453963,0.5658568,0.06939325,0.3013616,-1.1436804828172584,33.51461675126904
0,-1.0,-1.0,-1.0,0.3561087,0.0,0.0,0.0,-27.99417,-2.34726,-18.1131,-1.0,0.3885436,0.6009223000000001,0.516759,0.0,0.0,0.0,34.48515,1.358704,-20.51546,-1.0,0.4643308,0.5104380999999999,-0.2365518,1.0094,-0.1214311,-0.02456906,0.56593,0.0691756999999999,0.3013616,-1.1436804828172584,33.51461675126904
0,-1.0,-1.0,-1.0,0.3561087,0.0,0.0,0.0,-27.99417,-2.34726,-18.1131,-1.0,0.3885436,0.6009223000000001,0.516759,0.0,0.0,0.0,34.48515,1.358704,-20.51546,-1.0,0.4643308,0.5104380999999999,-0.2365518,1.0094,-0.1214311,-0.02456906,0.56593,0.0691756999999999,0.3013616,-1.1436804828172584,33.51461675126904
0,-1.0,-1.0,-1.0,0.3561087,0.0,0.0,0.0,-27.99417,-2.34726,-18.1131,-1.0,0.3885436,0.6009223000000001,0.516759,0.0,0.0,0.0,34.48515,1.358704,-20.51546,-1.0,0.4643308,0.5104380999999999,-0.2365518,1.0094,-0.1214311,-0.02456906,0.56593,0.0691756999999999,0.3013616,-1.1436804828172584,33.51461675126904
0,-1.0,-1.0,-1.0,0.4959809,0.0,0.0,0.0,-28.00795,-1.378067,-16.77011,-1.0,0.405777,0.5439098000000001,0.5786673000000001,0.0,0.0,0.0,34.56281,1.454865,-21.09857,-1.0,0.4518237,0.4953439,-0.2365667999999999,1.009406,-0.1214596,-0.02443511,0.5659614000000001,0.06919169,0.3013616,-1.1436804828172584,33.51461675126904
0,-1.0,-1.0,-1.0,0.4959809,0.0,0.0,0.0,-28.00795,-1.378067,-16.77011,-1.0,0.405777,0.5439098000000001,0.5786673000000001,0.0,0.0,0.0,34.56281,1.454865,-21.09857,-1.0,0.4518237,0.4953439,-0.2365667999999999,1.009406,-0.1214596,-0.02443511,0.5659614000000001,0.06919169,0.3013616,-1.1436804828172584,33.51461675126904
0,-1.0,-1.0,-1.0,0.4959809,0.0,0.0,0.0,-28.00795,-1.378067,-16.77011,-1.0,0.405777,0.5439098000000001,0.5786673000000001,0.0,0.0,0.0,34.56281,1.454865,-21.09857,-1.0,0.4518237,0.4953439,-0.2365667999999999,1.009406,-0.1214596,-0.02443511,0.5659614000000001,0.06919169,0.3013616,-1.1436804828172584,33.51461675126904
0,-1.0,-1.0,-1.0,0.7825,0.0,0.0,0.0,-28.09526,-1.345505,-16.51285,-1.0,0.4069920999999999,0.5247550999999999,0.8276184000000001,0.0,0.0,0.0,34.55148,1.109512,-20.27472,-1.0,0.4500338,0.4819481,-0.2365841,1.009419,-0.1214519,-0.02441696,0.566021,0.06920821,0.3013616,-23.23687,33.51461675126904
0,-1.0,-1.0,-1.0,0.7825,0.0,0.0,0.0,-28.09526,-1.345505,-16.51285,-1.0,0.4069920999999999,0.5247550999999999,0.8276184000000001,0.0,0.0,0.0,34.55148,1.109512,-20.27472,-1.0,0.4500338,0.4819481,-0.2365841,1.009419,-0.1214519,-0.02441696,0.566021,0.06920821,0.3013616,-23.23687,33.51461675126904
0,-1.0,-1.0,-1.0,0.7825,0.0,0.0,0.0,-28.09526,-1.345505,-16.51285,-1.0,0.4069920999999999,0.5247550999999999,0.8276184000000001,0.0,0.0,0.0,34.55148,1.109512,-20.27472,-1.0,0.4500338,0.4819481,-0.2365841,1.009419,-0.1214519,-0.02441696,0.566021,0.06920821,0.3013616,-23.23687,33.51461675126904
1,-1.0,-1.0,-1.0,0.8363742000000001,0.0,0.0,0.0,-28.02258,-1.674393,-16.09966,-1.0,0.4034676,0.5300659000000001,0.8714748,0.0,0.0,0.0,34.55403,0.8883361999999999,-19.85944,-1.0,0.4490554,0.4838699000000001,-0.2366232,1.009492,-0.1213944999999999,-0.02439804,0.5661176,0.06925234,0.3013616,-23.23687,33.51461675126904
1,-1.0,-1.0,-1.0,0.8363742000000001,0.0,0.0,0.0,-28.02258,-1.674393,-16.09966,-1.0,0.4034676,0.5300659000000001,0.8714748,0.0,0.0,0.0,34.55403,0.8883361999999999,-19.85944,-1.0,0.4490554,0.4838699000000001,-0.2366232,1.009492,-0.1213944999999999,-0.02439804,0.5661176,0.06925234,0.3013616,-23.23687,33.51461675126904
1,-1.0,-1.0,-1.0,0.8363742000000001,0.0,0.0,0.0,-28.02258,-1.674393,-16.09966,-1.0,0.4034676,0.5300659000000001,0.8714748,0.0,0.0,0.0,34.55403,0.8883361999999999,-19.85944,-1.0,0.4490554,0.4838699000000001,-0.2366232,1.009492,-0.1213944999999999,-0.02439804,0.5661176,0.06925234,0.3013616,-23.23687,33.51461675126904
1,-0.1550903,-0.05064392,0.9865875,0.9306914,-0.15625,-0.05082703,0.9864044,-28.02783,-1.6790310000000002,-16.26825,5.558548,0.4035767,0.5333633000000001,0.9367809,-0.06835938,-0.03672791,0.9969788,34.575790000000005,0.8469849,-19.83455,5.415161,0.44828,0.4810916,-0.2366672999999999,1.0095120000000002,-0.1215172,-0.02457103,0.5661384,0.06922108,0.3013616,-23.23687,33.51461675126904
1,-0.1550903,-0.05064392,0.9865875,0.9306914,-0.15625,-0.05082703,0.9864044,-28.02783,-1.6790310000000002,-16.26825,5.558548,0.4035767,0.5333633000000001,0.9367809,-0.06835938,-0.03672791,0.9969788,34.575790000000005,0.8469849,-19.83455,5.415161,0.44828,0.4810916,-0.2366672999999999,1.0095120000000002,-0.1215172,-0.02457103,0.5661384,0.06922108,0.3013616,-23.23687,33.51461675126904
1,-0.1550903,-0.05064392,0.9865875,0.9306914,-0.15625,-0.05082703,0.9864044,-28.02783,-1.6790310000000002,-16.26825,5.558548,0.4035767,0.5333633000000001,0.9367809,-0.06835938,-0.03672791,0.9969788,34.575790000000005,0.8469849,-19.83455,5.415161,0.44828,0.4810916,-0.2366672999999999,1.0095120000000002,-0.1215172,-0.02457103,0.5661384,0.06922108,0.3013616,-23.23687,33.51461675126904
1,-0.0684967,-0.059021,0.9958954,0.9584164,-0.1356049,-0.05223083,0.9893799,-28.09184,-1.56604,-16.59282,5.596695,0.4022913,0.5327899,0.9783862,-0.0684967,-0.059021,0.9958954,34.59026,0.7801361,-19.6696,5.340866,0.4478305,0.4852938,-0.2367849,1.0096,-0.1214857999999999,-0.02472112,0.5662566,0.06922942,0.3013616,-23.23687,33.51461675126904
1,-0.0684967,-0.059021,0.9958954,0.9584164,-0.1356049,-0.05223083,0.9893799,-28.09184,-1.56604,-16.59282,5.596695,0.4022913,0.5327899,0.9783862,-0.0684967,-0.059021,0.9958954,34.59026,0.7801361,-19.6696,5.340866,0.4478305,0.4852938,-0.2367849,1.0096,-0.1214857999999999,-0.02472112,0.5662566,0.06922942,0.3013616,-23.23687,33.51461675126904
1,-0.0684967,-0.059021,0.9958954,0.9584164,-0.1356049,-0.05223083,0.9893799,-28.09184,-1.56604,-16.59282,5.596695,0.4022913,0.5327899,0.9783862,-0.0684967,-0.059021,0.9958954,34.59026,0.7801361,-19.6696,5.340866,0.4478305,0.4852938,-0.2367849,1.0096,-0.1214857999999999,-0.02472112,0.5662566,0.06922942,0.3013616,-23.23687,33.51461675126904
1,-0.0684967,-0.059021,0.9958954,0.9584164,-0.1356049,-0.05223083,0.9893799,-28.09184,-1.56604,-16.59282,5.596695,0.4022913,0.5327899,0.9783862,-0.0684967,-0.059021,0.9958954,34.59026,0.7801361,-19.6696,5.340866,0.4478305,0.4852938,-0.2368167999999999,1.009663,-0.1215805,-0.02484888,0.566609,0.06922759,0.3013616,-23.23687,33.51461675126904
1,-0.0684967,-0.059021,0.9958954,0.9584164,-0.1356049,-0.05223083,0.9893799,-28.09184,-1.56604,-16.59282,5.596695,0.4022913,0.5327899,0.9783862,-0.0684967,-0.059021,0.9958954,34.59026,0.7801361,-19.6696,5.340866,0.4478305,0.4852938,-0.2368167999999999,1.009663,-0.1215805,-0.02484888,0.566609,0.06922759,0.3013616,-23.23687,33.51461675126904
1,-0.0684967,-0.059021,0.9958954,0.9584164,-0.1356049,-0.05223083,0.9893799,-28.09184,-1.56604,-16.59282,5.596695,0.4022913,0.5327899,0.9783862,-0.0684967,-0.059021,0.9958954,34.59026,0.7801361,-19.6696,5.340866,0.4478305,0.4852938,-0.2368167999999999,1.009663,-0.1215805,-0.02484888,0.566609,0.06922759,0.3013616,-23.23687,33.51461675126904
1,-0.0684967,-0.059021,0.9958954,0.9584164,-0.1356049,-0.05223083,0.9893799,-28.09184,-1.56604,-16.59282,5.596695,0.4022913,0.5327899,0.9783862,-0.0684967,-0.059021,0.9958954,34.59026,0.7801361,-19.6696,5.340866,0.4478305,0.4852938,-0.2368449,1.009748,-0.1217523999999999,-0.02490025,0.5672475,0.06915722,0.3013616,-23.23687,33.51461675126904
1,-0.0684967,-0.059021,0.9958954,0.9584164,-0.1356049,-0.05223083,0.9893799,-28.09184,-1.56604,-16.59282,5.596695,0.4022913,0.5327899,0.9783862,-0.0684967,-0.059021,0.9958954,34.59026,0.7801361,-19.6696,5.340866,0.4478305,0.4852938,-0.2368449,1.009748,-0.1217523999999999,-0.02490025,0.5672475,0.06915722,0.3013616,-23.23687,33.51461675126904
1,-0.0684967,-0.059021,0.9958954,0.9584164,-0.1356049,-0.05223083,0.9893799,-28.09184,-1.56604,-16.59282,5.596695,0.4022913,0.5327899,0.9783862,-0.0684967,-0.059021,0.9958954,34.59026,0.7801361,-19.6696,5.340866,0.4478305,0.4852938,-0.2368449,1.009748,-0.1217523999999999,-0.02490025,0.5672475,0.06915722,0.3013616,-23.23687,33.51461675126904
1,-0.07170105,-0.05621338,0.9958344,0.9853909,-0.1495819,-0.04249573,0.9878235,-28.04872,-1.708862,-16.30484,5.566177,0.4032157,0.5332798000000001,0.9958591999999998,-0.07168579,-0.05622864,0.9958344,34.5907,0.7729796999999999,-19.6606,5.342606,0.4483189,0.4850185999999999,-0.2368308999999999,1.009938,-0.1220332,-0.02545159,0.5684584,0.06917844,0.3013616,16.4987,33.51461675126904
1,-0.07170105,-0.05621338,0.9958344,0.9853909,-0.1495819,-0.04249573,0.9878235,-28.04872,-1.708862,-16.30484,5.566177,0.4032157,0.5332798000000001,0.9958591999999998,-0.07168579,-0.05622864,0.9958344,34.5907,0.7729796999999999,-19.6606,5.342606,0.4483189,0.4850185999999999,-0.2368308999999999,1.009938,-0.1220332,-0.02545159,0.5684584,0.06917844,0.3013616,16.4987,33.51461675126904
1,-0.07170105,-0.05621338,0.9958344,0.9853909,-0.1495819,-0.04249573,0.9878235,-28.04872,-1.708862,-16.30484,5.566177,0.4032157,0.5332798000000001,0.9958591999999998,-0.07168579,-0.05622864,0.9958344,34.5907,0.7729796999999999,-19.6606,5.342606,0.4483189,0.4850185999999999,-0.2368308999999999,1.009938,-0.1220332,-0.02545159,0.5684584,0.06917844,0.3013616,16.4987,33.51461675126904
1,-0.0640564,-0.06611633,0.9957428,1.0,-0.108551,-0.03961182,0.9932861,-28.29793,-1.33696,-17.71973,5.4756160000000005,0.4041181,0.533276,1.0,-0.0640564,-0.06611633,0.9957428,34.58365,0.6798706,-19.48927,5.228836,0.4473770999999999,0.4879864,-0.2367973,1.010178,-0.1232906999999999,-0.02534819,0.5761489000000001,0.06769924,0.3013616,16.4987,33.51461675126904
1,-0.0640564,-0.06611633,0.9957428,1.0,-0.108551,-0.03961182,0.9932861,-28.29793,-1.33696,-17.71973,5.4756160000000005,0.4041181,0.533276,1.0,-0.0640564,-0.06611633,0.9957428,34.58365,0.6798706,-19.48927,5.228836,0.4473770999999999,0.4879864,-0.2367973,1.010178,-0.1232906999999999,-0.02534819,0.5761489000000001,0.06769924,0.3013616,16.4987,33.51461675126904
1,-0.0640564,-0.06611633,0.9957428,1.0,-0.108551,-0.03961182,0.9932861,-28.29793,-1.33696,-17.71973,5.4756160000000005,0.4041181,0.533276,1.0,-0.0640564,-0.06611633,0.9957428,34.58365,0.6798706,-19.48927,5.228836,0.4473770999999999,0.4879864,-0.2367973,1.010178,-0.1232906999999999,-0.02534819,0.5761489000000001,0.06769924,0.3013616,16.4987,33.51461675126904
1,-0.3171692,-0.02128601,0.9481201,1.0,-0.3171844,-0.02127075,0.9481201,-29.05115,-1.269882,-17.61383,5.333374,0.4595581,0.5293465,1.0,-0.2942352,-0.05172729,0.9543152,33.63196,1.029297,-20.21118,5.355011,0.5142829000000001,0.4827633,-0.2367186999999999,1.010335,-0.1243505,-0.0241861,0.5824045999999999,0.06656443,0.3013616,16.4987,33.51461675126904
1,-0.3171692,-0.02128601,0.9481201,1.0,-0.3171844,-0.02127075,0.9481201,-29.05115,-1.269882,-17.61383,5.333374,0.4595581,0.5293465,1.0,-0.2942352,-0.05172729,0.9543152,33.63196,1.029297,-20.21118,5.355011,0.5142829000000001,0.4827633,-0.2367186999999999,1.010335,-0.1243505,-0.0241861,0.5824045999999999,0.06656443,0.3013616,16.4987,33.51461675126904
1,-0.3171692,-0.02128601,0.9481201,1.0,-0.3171844,-0.02127075,0.9481201,-29.05115,-1.269882,-17.61383,5.333374,0.4595581,0.5293465,1.0,-0.2942352,-0.05172729,0.9543152,33.63196,1.029297,-20.21118,5.355011,0.5142829000000001,0.4827633,-0.2367186999999999,1.010335,-0.1243505,-0.0241861,0.5824045999999999,0.06656443,0.3013616,16.4987,33.51461675126904
1,-0.3911743,-0.01676941,0.9201508,1.0,-0.3912200999999999,-0.01672363,0.9201355,-29.41452,-1.2386780000000002,-17.77129,5.357925,0.4824424,0.5302178000000001,1.0,-0.3680573,-0.04304504,0.9287872,33.218059999999994,1.017624,-20.35127,5.377686,0.5396262,0.4840939,-0.2365119,1.0105309999999998,-0.1255046,-0.02293542,0.5899766,0.06642762,0.3013616,19.36201,33.51461675126904
1,-0.3911743,-0.01676941,0.9201508,1.0,-0.3912200999999999,-0.01672363,0.9201355,-29.41452,-1.2386780000000002,-17.77129,5.357925,0.4824424,0.5302178000000001,1.0,-0.3680573,-0.04304504,0.9287872,33.218059999999994,1.017624,-20.35127,5.377686,0.5396262,0.4840939,-0.2365119,1.0105309999999998,-0.1255046,-0.02293542,0.5899766,0.06642762,0.3013616,19.36201,33.51461675126904
1,-0.3911743,-0.01676941,0.9201508,1.0,-0.3912200999999999,-0.01672363,0.9201355,-29.41452,-1.2386780000000002,-17.77129,5.357925,0.4824424,0.5302178000000001,1.0,-0.3680573,-0.04304504,0.9287872,33.218059999999994,1.017624,-20.35127,5.377686,0.5396262,0.4840939,-0.2365119,1.0105309999999998,-0.1255046,-0.02293542,0.5899766,0.06642762,0.3013616,19.36201,33.51461675126904
1,-0.4474944999999999,-0.01542664,0.8941498,1.0,-0.4477539000000001,-0.01040649,0.8940886999999998,-29.7431,-1.259354,-17.93607,5.395462,0.5016974000000001,0.5324081,1.0,-0.4451294,-0.0526885999999999,0.8939056000000001,32.83194,0.9802399,-20.53459,5.3022,0.56493,0.4898734999999999,-0.2366271999999999,1.01141,-0.1288792,-0.02199993,0.6095896,0.06767338,0.3013616,19.36201,33.51461675126904
1,-0.4474944999999999,-0.01542664,0.8941498,1.0,-0.4477539000000001,-0.01040649,0.8940886999999998,-29.7431,-1.259354,-17.93607,5.395462,0.5016974000000001,0.5324081,1.0,-0.4451294,-0.0526885999999999,0.8939056000000001,32.83194,0.9802399,-20.53459,5.3022,0.56493,0.4898734999999999,-0.2366271999999999,1.01141,-0.1288792,-0.02199993,0.6095896,0.06767338,0.3013616,19.36201,33.51461675126904
1,-0.4474944999999999,-0.01542664,0.8941498,1.0,-0.4477539000000001,-0.01040649,0.8940886999999998,-29.7431,-1.259354,-17.93607,5.395462,0.5016974000000001,0.5324081,1.0,-0.4451294,-0.0526885999999999,0.8939056000000001,32.83194,0.9802399,-20.53459,5.3022,0.56493,0.4898734999999999,-0.2366271999999999,1.01141,-0.1288792,-0.02199993,0.6095896,0.06767338,0.3013616,19.36201,33.51461675126904
1,-0.4634094,-0.02659607,0.8857269,1.0,-0.4641113,-0.01368713,0.8856659,-29.94536,-1.290207,-18.017670000000003,5.381592,0.5106533,0.5349483,1.0,-0.46138,-0.05828857,0.8852691999999999,32.76378,0.9390869,-20.57945,5.343811,0.569805,0.4928710999999999,-0.2368116,1.011899,-0.1310081,-0.02182414,0.6223936999999999,0.06787071,0.3013616,19.36201,33.51461675126904
1,-0.4634094,-0.02659607,0.8857269,1.0,-0.4641113,-0.01368713,0.8856659,-29.94536,-1.290207,-18.017670000000003,5.381592,0.5106533,0.5349483,1.0,-0.46138,-0.05828857,0.8852691999999999,32.76378,0.9390869,-20.57945,5.343811,0.569805,0.4928710999999999,-0.2368116,1.011899,-0.1310081,-0.02182414,0.6223936999999999,0.06787071,0.3013616,19.36201,33.51461675126904
1,-0.4634094,-0.02659607,0.8857269,1.0,-0.4641113,-0.01368713,0.8856659,-29.94536,-1.290207,-18.017670000000003,5.381592,0.5106533,0.5349483,1.0,-0.46138,-0.05828857,0.8852691999999999,32.76378,0.9390869,-20.57945,5.343811,0.569805,0.4928710999999999,-0.2368116,1.011899,-0.1310081,-0.02182414,0.6223936999999999,0.06787071,0.3013616,19.36201,33.51461675126904
1,-0.4356842000000001,-0.0294341999999999,0.8996124,1.0,-0.4373169,-0.01594543,0.8991546999999999,-29.83585,-1.299896,-17.95459,5.366409,0.5029144,0.5344929,1.0,-0.4326019,-0.05310059,0.9000091999999998,32.94417,0.9059753,-20.50661,5.380356,0.5591023,0.4918512,-0.2371726,1.01233,-0.1335628999999999,-0.02193634,0.6360916,0.06837169,0.3013616,19.36201,33.51461675126904
1,-0.4356842000000001,-0.0294341999999999,0.8996124,1.0,-0.4373169,-0.01594543,0.8991546999999999,-29.83585,-1.299896,-17.95459,5.366409,0.5029144,0.5344929,1.0,-0.4326019,-0.05310059,0.9000091999999998,32.94417,0.9059753,-20.50661,5.380356,0.5591023,0.4918512,-0.2371726,1.01233,-0.1335628999999999,-0.02193634,0.6360916,0.06837169,0.3013616,19.36201,33.51461675126904
1,-0.4356842000000001,-0.0294341999999999,0.8996124,1.0,-0.4373169,-0.01594543,0.8991546999999999,-29.83585,-1.299896,-17.95459,5.366409,0.5029144,0.5344929,1.0,-0.4326019,-0.05310059,0.9000091999999998,32.94417,0.9059753,-20.50661,5.380356,0.5591023,0.4918512,-0.2371726,1.01233,-0.1335628999999999,-0.02193634,0.6360916,0.06837169,0.3013616,19.36201,33.51461675126904
1,-0.4005585,-0.0342865,0.9156189,1.0,-0.4078979,-0.02835083,0.9125824,-29.68901,-1.318588,-17.87793,5.321609,0.4936127,0.5357513,1.0,-0.3894347999999999,-0.04319763,0.9200287,33.09149,0.8649902,-20.43727,5.32402,0.5472751,0.4901108,-0.2377867,1.01276,-0.1360573,-0.02197978,0.6494974,0.06874835,0.3013616,19.36201,33.51461675126904
1,-0.4005585,-0.0342865,0.9156189,1.0,-0.4078979,-0.02835083,0.9125824,-29.68901,-1.318588,-17.87793,5.321609,0.4936127,0.5357513,1.0,-0.3894347999999999,-0.04319763,0.9200287,33.09149,0.8649902,-20.43727,5.32402,0.5472751,0.4901108,-0.2377867,1.01276,-0.1360573,-0.02197978,0.6494974,0.06874835,0.3013616,19.36201,33.51461675126904
1,-0.4005585,-0.0342865,0.9156189,1.0,-0.4078979,-0.02835083,0.9125824,-29.68901,-1.318588,-17.87793,5.321609,0.4936127,0.5357513,1.0,-0.3894347999999999,-0.04319763,0.9200287,33.09149,0.8649902,-20.43727,5.32402,0.5472751,0.4901108,-0.2377867,1.01276,-0.1360573,-0.02197978,0.6494974,0.06874835,0.3013616,19.36201,33.51461675126904
1,-0.3662415,-0.03146362,0.9299774,1.0,-0.3661499,-0.01698303,0.9303894,-29.49693,-1.300247,-17.79897,5.138336,0.4812433,0.531877,1.0,-0.3662415,-0.04763794,0.9292908,33.29942,0.8842468000000001,-20.37402,5.359116,0.5366868,0.4892521999999999,-0.2385001,1.013302,-0.1385617999999999,-0.0225409,0.6622621,0.06924868,0.3013616,2.0005,33.51461675126904
1,-0.3662415,-0.03146362,0.9299774,1.0,-0.3661499,-0.01698303,0.9303894,-29.49693,-1.300247,-17.79897,5.138336,0.4812433,0.531877,1.0,-0.3662415,-0.04763794,0.9292908,33.29942,0.8842468000000001,-20.37402,5.359116,0.5366868,0.4892521999999999,-0.2385001,1.013302,-0.1385617999999999,-0.0225409,0.6622621,0.06924868,0.3013616,2.0005,33.51461675126904
1,-0.3662415,-0.03146362,0.9299774,1.0,-0.3661499,-0.01698303,0.9303894,-29.49693,-1.300247,-17.79897,5.138336,0.4812433,0.531877,1.0,-0.3662415,-0.04763794,0.9292908,33.29942,0.8842468000000001,-20.37402,5.359116,0.5366868,0.4892521999999999,-0.2385001,1.013302,-0.1385617999999999,-0.0225409,0.6622621,0.06924868,0.3013616,2.0005,33.51461675126904
1,-0.3612061,-0.0350647,0.9318085,1.0,-0.3622742,-0.02848816,0.9316254,-29.36171,-1.269272,-17.75714,5.343765,0.4762042,0.5323965,1.0,-0.3602142,-0.04103088,0.9319611,33.46008,0.8717804,-20.34172,5.480804,0.530425,0.4882443,-0.2394336,1.013895,-0.1411539,-0.02378524,0.6743609,0.06991635,0.3013616,2.0005,33.51461675126904
1,-0.3612061,-0.0350647,0.9318085,1.0,-0.3622742,-0.02848816,0.9316254,-29.36171,-1.269272,-17.75714,5.343765,0.4762042,0.5323965,1.0,-0.3602142,-0.04103088,0.9319611,33.46008,0.8717804,-20.34172,5.480804,0.530425,0.4882443,-0.2394336,1.013895,-0.1411539,-0.02378524,0.6743609,0.06991635,0.3013616,2.0005,33.51461675126904
1,-0.3612061,-0.0350647,0.9318085,1.0,-0.3622742,-0.02848816,0.9316254,-29.36171,-1.269272,-17.75714,5.343765,0.4762042,0.5323965,1.0,-0.3602142,-0.04103088,0.9319611,33.46008,0.8717804,-20.34172,5.480804,0.530425,0.4882443,-0.2394336,1.013895,-0.1411539,-0.02378524,0.6743609,0.06991635,0.3013616,2.0005,33.51461675126904
1,-0.4574585,-0.08987427,0.8846588,1.0,-0.453949,-0.1025847999999999,0.8850860999999999,-29.82123,-1.129608,-17.91599,4.839081,0.505249,0.5427272,1.0,-0.4632720999999999,-0.06813049,0.8835754000000001,32.86307,1.131134,-20.53647,5.359268,0.5668359000000001,0.487956,-0.2404697999999999,1.014466,-0.1437112,-0.02531789,0.686524,0.06972806,0.3013616,2.0005,33.51461675126904
1,-0.4574585,-0.08987427,0.8846588,1.0,-0.453949,-0.1025847999999999,0.8850860999999999,-29.82123,-1.129608,-17.91599,4.839081,0.505249,0.5427272,1.0,-0.4632720999999999,-0.06813049,0.8835754000000001,32.86307,1.131134,-20.53647,5.359268,0.5668359000000001,0.487956,-0.2404697999999999,1.014466,-0.1437112,-0.02531789,0.686524,0.06972806,0.3013616,2.0005,33.51461675126904
1,-0.4574585,-0.08987427,0.8846588,1.0,-0.453949,-0.1025847999999999,0.8850860999999999,-29.82123,-1.129608,-17.91599,4.839081,0.505249,0.5427272,1.0,-0.4632720999999999,-0.06813049,0.8835754000000001,32.86307,1.131134,-20.53647,5.359268,0.5668359000000001,0.487956,-0.2404697999999999,1.014466,-0.1437112,-0.02531789,0.686524,0.06972806,0.3013616,2.0005,33.51461675126904
1,-1.0,-1.0,-1.0,0.5660057,0.0,0.0,0.0,-29.77307,-2.327972,-18.10481,-1.0,0.4992439999999999,0.6011124,0.6532186,0.0,0.0,0.0,32.56395,0.5408324999999999,-20.72243,-1.0,0.578786,0.5177069000000001,-0.2414699,1.015107,-0.1463782,-0.02657042,0.6988571,0.06848047,0.3013616,2.0005,33.51461675126904
1,-1.0,-1.0,-1.0,0.5660057,0.0,0.0,0.0,-29.77307,-2.327972,-18.10481,-1.0,0.4992439999999999,0.6011124,0.6532186,0.0,0.0,0.0,32.56395,0.5408324999999999,-20.72243,-1.0,0.578786,0.5177069000000001,-0.2414699,1.015107,-0.1463782,-0.02657042,0.6988571,0.06848047,0.3013616,2.0005,33.51461675126904
1,-1.0,-1.0,-1.0,0.5660057,0.0,0.0,0.0,-29.77307,-2.327972,-18.10481,-1.0,0.4992439999999999,0.6011124,0.6532186,0.0,0.0,0.0,32.56395,0.5408324999999999,-20.72243,-1.0,0.578786,0.5177069000000001,-0.2414699,1.015107,-0.1463782,-0.02657042,0.6988571,0.06848047,0.3013616,2.0005,33.51461675126904
1,-1.0,-1.0,-1.0,0.3342297,0.0,0.0,0.0,-29.76152,-2.174255,-18.05496,-1.0,0.4985845999999999,0.5912428000000001,0.5608441999999999,0.0,0.0,0.0,32.585390000000004,0.6237335,-20.69579,-1.0,0.5774549,0.5121955,-0.2426518,1.015452,-0.1491013,-0.02679506,0.7108959,0.0671486,0.3013616,2.0005,33.51461675126904
1,-1.0,-1.0,-1.0,0.3342297,0.0,0.0,0.0,-29.76152,-2.174255,-18.05496,-1.0,0.4985845999999999,0.5912428000000001,0.5608441999999999,0.0,0.0,0.0,32.585390000000004,0.6237335,-20.69579,-1.0,0.5774549,0.5121955,-0.2426518,1.015452,-0.1491013,-0.02679506,0.7108959,0.0671486,0.3013616,2.0005,33.51461675126904
1,-1.0,-1.0,-1.0,0.3342297,0.0,0.0,0.0,-29.76152,-2.174255,-18.05496,-1.0,0.4985845999999999,0.5912428000000001,0.5608441999999999,0.0,0.0,0.0,32.585390000000004,0.6237335,-20.69579,-1.0,0.5774549,0.5121955,-0.2426518,1.015452,-0.1491013,-0.02679506,0.7108959,0.0671486,0.3013616,2.0005,33.51461675126904
1,-1.0,-1.0,-1.0,0.4579348,0.0,0.0,0.0,-29.98851,-0.9396362,-17.95746,-1.0,0.5178295,0.5535616,0.6243191,0.0,0.0,0.0,32.49712,0.684845,-20.73564,-1.0,0.5829371999999999,0.5091872000000001,-0.2438976,1.015549,-0.1516993999999999,-0.02617803,0.7222807,0.06504584,0.3013616,2.0005,33.51461675126904
1,-1.0,-1.0,-1.0,0.4579348,0.0,0.0,0.0,-29.98851,-0.9396362,-17.95746,-1.0,0.5178295,0.5535616,0.6243191,0.0,0.0,0.0,32.49712,0.684845,-20.73564,-1.0,0.5829371999999999,0.5091872000000001,-0.2438976,1.015549,-0.1516993999999999,-0.02617803,0.7222807,0.06504584,0.3013616,2.0005,33.51461675126904
1,-1.0,-1.0,-1.0,0.4579348,0.0,0.0,0.0,-29.98851,-0.9396362,-17.95746,-1.0,0.5178295,0.5535616,0.6243191,0.0,0.0,0.0,32.49712,0.684845,-20.73564,-1.0,0.5829371999999999,0.5091872000000001,-0.2438976,1.015549,-0.1516993999999999,-0.02617803,0.7222807,0.06504584,0.3013616,2.0005,33.51461675126904
1,-1.0,-1.0,-1.0,0.4579348,0.0,0.0,0.0,-29.98851,-0.9396362,-17.95746,-1.0,0.5178295,0.5535616,0.6243191,0.0,0.0,0.0,32.49712,0.684845,-20.73564,-1.0,0.5829371999999999,0.5091872000000001,-0.2452705,1.015616,-0.1540997,-0.02496151,0.7328753,0.06297953,0.3013616,-17.38143,33.51461675126904
1,-1.0,-1.0,-1.0,0.4579348,0.0,0.0,0.0,-29.98851,-0.9396362,-17.95746,-1.0,0.5178295,0.5535616,0.6243191,0.0,0.0,0.0,32.49712,0.684845,-20.73564,-1.0,0.5829371999999999,0.5091872000000001,-0.2452705,1.015616,-0.1540997,-0.02496151,0.7328753,0.06297953,0.3013616,-17.38143,33.51461675126904
1,-1.0,-1.0,-1.0,0.4579348,0.0,0.0,0.0,-29.98851,-0.9396362,-17.95746,-1.0,0.5178295,0.5535616,0.6243191,0.0,0.0,0.0,32.49712,0.684845,-20.73564,-1.0,0.5829371999999999,0.5091872000000001,-0.2452705,1.015616,-0.1540997,-0.02496151,0.7328753,0.06297953,0.3013616,-17.38143,33.51461675126904
1,-1.0,-1.0,-1.0,0.5696614999999999,0.0,0.0,0.0,-29.73378,-1.352417,-17.94241,-1.0,0.5024894,0.5506039,0.6832577,0.0,0.0,0.0,33.00356,0.8276367,-20.56509,-1.0,0.5633373,0.5007935,-0.2464447,1.015543,-0.1564304,-0.0238514,0.7426772,0.06041883,0.3013616,-17.38143,33.51461675126904
1,-1.0,-1.0,-1.0,0.5696614999999999,0.0,0.0,0.0,-29.73378,-1.352417,-17.94241,-1.0,0.5024894,0.5506039,0.6832577,0.0,0.0,0.0,33.00356,0.8276367,-20.56509,-1.0,0.5633373,0.5007935,-0.2464447,1.015543,-0.1564304,-0.0238514,0.7426772,0.06041883,0.3013616,-17.38143,33.51461675126904
1,-1.0,-1.0,-1.0,0.5696614999999999,0.0,0.0,0.0,-29.73378,-1.352417,-17.94241,-1.0,0.5024894,0.5506039,0.6832577,0.0,0.0,0.0,33.00356,0.8276367,-20.56509,-1.0,0.5633373,0.5007935,-0.2464447,1.015543,-0.1564304,-0.0238514,0.7426772,0.06041883,0.3013616,-17.38143,33.51461675126904
1,-1.0,-1.0,-1.0,1.0,0.0,0.0,0.0,-29.73378,-1.352417,-17.94241,-1.0,0.5024894,0.5506039,1.0,0.0,0.0,0.0,33.00356,0.8276367,-20.56509,-1.0,0.5633373,0.5007935,-0.2475696,1.0154729999999998,-0.1585358,-0.02311952,0.7517387,0.05771428,0.3013616,-17.38143,33.51461675126904
1,-1.0,-1.0,-1.0,1.0,0.0,0.0,0.0,-29.73378,-1.352417,-17.94241,-1.0,0.5024894,0.5506039,1.0,0.0,0.0,0.0,33.00356,0.8276367,-20.56509,-1.0,0.5633373,0.5007935,-0.2475696,1.0154729999999998,-0.1585358,-0.02311952,0.7517387,0.05771428,0.3013616,-17.38143,33.51461675126904
1,-1.0,-1.0,-1.0,1.0,0.0,0.0,0.0,-29.73378,-1.352417,-17.94241,-1.0,0.5024894,0.5506039,1.0,0.0,0.0,0.0,33.00356,0.8276367,-20.56509,-1.0,0.5633373,0.5007935,-0.2475696,1.0154729999999998,-0.1585358,-0.02311952,0.7517387,0.05771428,0.3013616,-17.38143,33.51461675126904
1,-1.0,-1.0,-1.0,1.0,0.0,0.0,0.0,-29.73378,-1.352417,-17.94241,-1.0,0.5024894,0.5506039,1.0,0.0,0.0,0.0,33.00356,0.8276367,-20.56509,-1.0,0.5633373,0.5007935,-0.2486857999999999,1.015474,-0.1603416,-0.02234654,0.7599216999999999,0.05498858,0.2975178,-17.38143,33.51461675126904
1,-1.0,-1.0,-1.0,1.0,0.0,0.0,0.0,-29.73378,-1.352417,-17.94241,-1.0,0.5024894,0.5506039,1.0,0.0,0.0,0.0,33.00356,0.8276367,-20.56509,-1.0,0.5633373,0.5007935,-0.2486857999999999,1.015474,-0.1603416,-0.02234654,0.7599216999999999,0.05498858,0.2975178,-17.38143,33.51461675126904
1,-1.0,-1.0,-1.0,1.0,0.0,0.0,0.0,-29.73378,-1.352417,-17.94241,-1.0,0.5024894,0.5506039,1.0,0.0,0.0,0.0,33.00356,0.8276367,-20.56509,-1.0,0.5633373,0.5007935,-0.2486857999999999,1.015474,-0.1603416,-0.02234654,0.7599216999999999,0.05498858,0.2975178,-17.38143,33.51461675126904
1,-0.3859863,-0.06184387,0.9204101999999998,1.0,-0.3856812,-0.05749512,0.9208221,-29.37183,-1.391159,-17.79926,4.9944,0.4803683,0.5413003000000001,1.0,-0.3870087,-0.07711792,0.9188385,33.42758,0.8205261,-20.37144,5.044693,0.5360826999999999,0.4962220999999999,-0.2496469999999999,1.015444,-0.1618717999999999,-0.02109937,0.767134,0.05294451,0.2975178,-17.38143,33.51461675126904
1,-0.3859863,-0.06184387,0.9204101999999998,1.0,-0.3856812,-0.05749512,0.9208221,-29.37183,-1.391159,-17.79926,4.9944,0.4803683,0.5413003000000001,1.0,-0.3870087,-0.07711792,0.9188385,33.42758,0.8205261,-20.37144,5.044693,0.5360826999999999,0.4962220999999999,-0.2496469999999999,1.015444,-0.1618717999999999,-0.02109937,0.767134,0.05294451,0.2975178,-17.38143,33.51461675126904
1,-0.3859863,-0.06184387,0.9204101999999998,1.0,-0.3856812,-0.05749512,0.9208221,-29.37183,-1.391159,-17.79926,4.9944,0.4803683,0.5413003000000001,1.0,-0.3870087,-0.07711792,0.9188385,33.42758,0.8205261,-20.37144,5.044693,0.5360826999999999,0.4962220999999999,-0.2496469999999999,1.015444,-0.1618717999999999,-0.02109937,0.767134,0.05294451,0.2975178,-17.38143,33.51461675126904
1,-0.3448792,-0.06112671,0.9366455,1.0,-0.3379974,-0.0506134,0.9397736,-29.177640000000004,-1.38063,-17.73056,4.937149,0.4669052999999999,0.5384614000000001,1.0,-0.3593139999999999,-0.08340454,0.9294739,33.71396,0.8663025,-20.27766,5.183182,0.5221332000000001,0.4945039,-0.2504364,1.015518,-0.1633211,-0.02095685,0.7734578000000001,0.05228693,0.2975178,-8.882252,33.51461675126904
1,-0.3448792,-0.06112671,0.9366455,1.0,-0.3379974,-0.0506134,0.9397736,-29.177640000000004,-1.38063,-17.73056,4.937149,0.4669052999999999,0.5384614000000001,1.0,-0.3593139999999999,-0.08340454,0.9294739,33.71396,0.8663025,-20.27766,5.183182,0.5221332000000001,0.4945039,-0.2504364,1.015518,-0.1633211,-0.02095685,0.7734578000000001,0.05228693,0.2975178,-8.882252,33.51461675126904
1,-0.3448792,-0.06112671,0.9366455,1.0,-0.3379974,-0.0506134,0.9397736,-29.177640000000004,-1.38063,-17.73056,4.937149,0.4669052999999999,0.5384614000000001,1.0,-0.3593139999999999,-0.08340454,0.9294739,33.71396,0.8663025,-20.27766,5.183182,0.5221332000000001,0.4945039,-0.2504364,1.015518,-0.1633211,-0.02095685,0.7734578000000001,0.05228693,0.2975178,-8.882252,33.51461675126904
1,-0.3737183,-0.0622405999999999,0.9254456,1.0,-0.3624573,-0.05561829,0.9303284,-29.277390000000004,-1.448929,-17.79836,4.879471,0.4738665,0.5423281,1.0,-0.3876800999999999,-0.07049561,0.9190826,33.57764,0.6891785,-20.36009,5.145477,0.5312496,0.4992805999999999,-0.2512342,1.015715,-0.1647062,-0.02062338,0.7795671999999999,0.05214174,0.2975178,-8.882252,33.51461675126904
1,-0.3737183,-0.0622405999999999,0.9254456,1.0,-0.3624573,-0.05561829,0.9303284,-29.277390000000004,-1.448929,-17.79836,4.879471,0.4738665,0.5423281,1.0,-0.3876800999999999,-0.07049561,0.9190826,33.57764,0.6891785,-20.36009,5.145477,0.5312496,0.4992805999999999,-0.2512342,1.015715,-0.1647062,-0.02062338,0.7795671999999999,0.05214174,0.2975178,-8.882252,33.51461675126904
1,-0.3737183,-0.0622405999999999,0.9254456,1.0,-0.3624573,-0.05561829,0.9303284,-29.277390000000004,-1.448929,-17.79836,4.879471,0.4738665,0.5423281,1.0,-0.3876800999999999,-0.07049561,0.9190826,33.57764,0.6891785,-20.36009,5.145477,0.5312496,0.4992805999999999,-0.2512342,1.015715,-0.1647062,-0.02062338,0.7795671999999999,0.05214174,0.2975178,-8.882252,33.51461675126904
1,-0.5057678,-0.1250305,0.8535461,1.0,-0.5056,-0.1197968,0.8544006,-29.7979,-1.589066,-18.10295,4.927643,0.5127174,0.5627358,1.0,-0.5061798,-0.1392975,0.8510895,32.71689,0.6405487,-20.73204,5.016525,0.5789426999999999,0.5182236,-0.251852,1.016018,-0.166165,-0.02045479,0.7855667,0.05201624,0.2975178,-8.882252,34.59
1,-0.5057678,-0.1250305,0.8535461,1.0,-0.5056,-0.1197968,0.8544006,-29.7979,-1.589066,-18.10295,4.927643,0.5127174,0.5627358,1.0,-0.5061798,-0.1392975,0.8510895,32.71689,0.6405487,-20.73204,5.016525,0.5789426999999999,0.5182236,-0.251852,1.016018,-0.166165,-0.02045479,0.7855667,0.05201624,0.2975178,-8.882252,34.59
1,-0.5057678,-0.1250305,0.8535461,1.0,-0.5056,-0.1197968,0.8544006,-29.7979,-1.589066,-18.10295,4.927643,0.5127174,0.5627358,1.0,-0.5061798,-0.1392975,0.8510895,32.71689,0.6405487,-20.73204,5.016525,0.5789426999999999,0.5182236,-0.251852,1.016018,-0.166165,-0.02045479,0.7855667,0.05201624,0.2975178,-8.882252,34.59
1,-0.5120087000000001,-0.1343079,0.8484039000000001,1.0,-0.5116119,-0.1296844,0.84935,-29.89603,-1.61853,-18.14586,4.927582,0.5167344,0.5658342,1.0,-0.5132904,-0.1500854,0.8449707000000001,32.72752,0.6339722,-20.74214,5.053589,0.5797306999999999,0.5205510999999999,-0.2524728,1.016188,-0.167622,-0.0212046,0.7916734000000001,0.05139631,0.2975178,-8.882252,34.59
1,-0.5120087000000001,-0.1343079,0.8484039000000001,1.0,-0.5116119,-0.1296844,0.84935,-29.89603,-1.61853,-18.14586,4.927582,0.5167344,0.5658342,1.0,-0.5132904,-0.1500854,0.8449707000000001,32.72752,0.6339722,-20.74214,5.053589,0.5797306999999999,0.5205510999999999,-0.2524728,1.016188,-0.167622,-0.0212046,0.7916734000000001,0.05139631,0.2975178,-8.882252,34.59
1,-0.5120087000000001,-0.1343079,0.8484039000000001,1.0,-0.5116119,-0.1296844,0.84935,-29.89603,-1.61853,-18.14586,4.927582,0.5167344,0.5658342,1.0,-0.5132904,-0.1500854,0.8449707000000001,32.72752,0.6339722,-20.74214,5.053589,0.5797306999999999,0.5205510999999999,-0.2524728,1.016188,-0.167622,-0.0212046,0.7916734000000001,0.05139631,0.2975178,-8.882252,34.59
1,-0.4937134,-0.1366425,0.8588104,1.0,-0.4934082,-0.1354828,0.8591614,-29.825290000000003,-1.629974,-18.09979,4.869095,0.5115758,0.5662305000000001,1.0,-0.4942169,-0.1386261,0.8582001,32.85147,0.6062316999999999,-20.68323,5.105225,0.5724043000000001,0.5184826,-0.25318,1.016408,-0.1689246,-0.02176381,0.7977174,0.05063241,0.2975178,-8.882252,34.59
1,-0.4937134,-0.1366425,0.8588104,1.0,-0.4934082,-0.1354828,0.8591614,-29.825290000000003,-1.629974,-18.09979,4.869095,0.5115758,0.5662305000000001,1.0,-0.4942169,-0.1386261,0.8582001,32.85147,0.6062316999999999,-20.68323,5.105225,0.5724043000000001,0.5184826,-0.25318,1.016408,-0.1689246,-0.02176381,0.7977174,0.05063241,0.2975178,-8.882252,34.59
1,-0.4937134,-0.1366425,0.8588104,1.0,-0.4934082,-0.1354828,0.8591614,-29.825290000000003,-1.629974,-18.09979,4.869095,0.5115758,0.5662305000000001,1.0,-0.4942169,-0.1386261,0.8582001,32.85147,0.6062316999999999,-20.68323,5.105225,0.5724043000000001,0.5184826,-0.25318,1.016408,-0.1689246,-0.02176381,0.7977174,0.05063241,0.2975178,-8.882252,34.59
2,-0.4798126,-0.131546,0.8674469000000001,1.0,-0.4781647,-0.1248474,0.869339,-29.72951,-1.642715,-18.05981,4.987,0.5060163,0.5641716,1.0,-0.4819489,-0.1403961,0.8648681999999999,32.96297,0.6023407,-20.63513,5.016815,0.5667714,0.5181228,-0.2538739,1.016382,-0.1704696,-0.02196299,0.8035981,0.04986367,0.2975178,18.34737,34.59
2,-0.4798126,-0.131546,0.8674469000000001,1.0,-0.4781647,-0.1248474,0.869339,-29.72951,-1.642715,-18.05981,4.987,0.5060163,0.5641716,1.0,-0.4819489,-0.1403961,0.8648681999999999,32.96297,0.6023407,-20.63513,5.016815,0.5667714,0.5181228,-0.2538739,1.016382,-0.1704696,-0.02196299,0.8035981,0.04986367,0.2975178,18.34737,34.59
2,-0.4798126,-0.131546,0.8674469000000001,1.0,-0.4781647,-0.1248474,0.869339,-29.72951,-1.642715,-18.05981,4.987,0.5060163,0.5641716,1.0,-0.4819489,-0.1403961,0.8648681999999999,32.96297,0.6023407,-20.63513,5.016815,0.5667714,0.5181228,-0.2538739,1.016382,-0.1704696,-0.02196299,0.8035981,0.04986367,0.2975178,18.34737,34.59
2,-0.4700775,-0.1386719,0.8716583000000001,1.0,-0.4682617,-0.1428527999999999,0.8719482,-29.67325,-1.618042,-18.01324,4.839157,0.5027319,0.5656354,1.0,-0.4721832,-0.1337585,0.8712769,33.00758,0.5774536,-20.61571,5.055161,0.5636517,0.5174143,-0.2544962,1.01645,-0.1718464999999999,-0.02186967,0.8091441,0.0490875999999999,0.2975178,18.34737,34.59
2,-0.4700775,-0.1386719,0.8716583000000001,1.0,-0.4682617,-0.1428527999999999,0.8719482,-29.67325,-1.618042,-18.01324,4.839157,0.5027319,0.5656354,1.0,-0.4721832,-0.1337585,0.8712769,33.00758,0.5774536,-20.61571,5.055161,0.5636517,0.5174143,-0.2544962,1.01645,-0.1718464999999999,-0.02186967,0.8091441,0.0490875999999999,0.2975178,18.34737,34.59
2,-0.4700775,-0.1386719,0.8716583000000001,1.0,-0.4682617,-0.1428527999999999,0.8719482,-29.67325,-1.618042,-18.01324,4.839157,0.5027319,0.5656354,1.0,-0.4721832,-0.1337585,0.8712769,33.00758,0.5774536,-20.61571,5.055161,0.5636517,0.5174143,-0.2544962,1.01645,-0.1718464999999999,-0.02186967,0.8091441,0.0490875999999999,0.2975178,18.34737,34.59
2,-0.4700775,-0.1386719,0.8716583000000001,1.0,-0.4682617,-0.1428527999999999,0.8719482,-29.67325,-1.618042,-18.01324,4.839157,0.5027319,0.5656354,1.0,-0.4721832,-0.1337585,0.8712769,33.00758,0.5774536,-20.61571,5.055161,0.5636517,0.5174143,-0.2551675,1.016524,-0.1731358,-0.02156572,0.8145677,0.0479323,0.2975178,18.34737,34.59
2,-0.4700775,-0.1386719,0.8716583000000001,1.0,-0.4682617,-0.1428527999999999,0.8719482,-29.67325,-1.618042,-18.01324,4.839157,0.5027319,0.5656354,1.0,-0.4721832,-0.1337585,0.8712769,33.00758,0.5774536,-20.61571,5.055161,0.5636517,0.5174143,-0.2551675,1.016524,-0.1731358,-0.02156572,0.8145677,0.0479323,0.2975178,18.34737,34.59
2,-0.4700775,-0.1386719,0.8716583000000001,1.0,-0.4682617,-0.1428527999999999,0.8719482,-29.67325,-1.618042,-18.01324,4.839157,0.5027319,0.5656354,1.0,-0.4721832,-0.1337585,0.8712769,33.00758,0.5774536,-20.61571,5.055161,0.5636517,0.5174143,-0.2551675,1.016524,-0.1731358,-0.02156572,0.8145677,0.0479323,0.2975178,18.34737,34.59
2,-0.4169769,-0.1199036,0.9009705,1.0,-0.4152374,-0.1128692999999999,0.9026794,-29.52644,-1.701691,-17.9577,4.837265,0.4897654,0.5617033,1.0,-0.4211121,-0.1370239,0.8965912,33.23105,0.5782623,-20.48848,5.144958,0.5477276,0.5156387,-0.2558297,1.016439,-0.1743989,-0.02023221,0.8194627,0.04640655,0.2975178,18.34737,34.59
2,-0.4169769,-0.1199036,0.9009705,1.0,-0.4152374,-0.1128692999999999,0.9026794,-29.52644,-1.701691,-17.9577,4.837265,0.4897654,0.5617033,1.0,-0.4211121,-0.1370239,0.8965912,33.23105,0.5782623,-20.48848,5.144958,0.5477276,0.5156387,-0.2558297,1.016439,-0.1743989,-0.02023221,0.8194627,0.04640655,0.2975178,18.34737,34.59
2,-0.4169769,-0.1199036,0.9009705,1.0,-0.4152374,-0.1128692999999999,0.9026794,-29.52644,-1.701691,-17.9577,4.837265,0.4897654,0.5617033,1.0,-0.4211121,-0.1370239,0.8965912,33.23105,0.5782623,-20.48848,5.144958,0.5477276,0.5156387,-0.2558297,1.016439,-0.1743989,-0.02023221,0.8194627,0.04640655,0.2975178,18.34737,34.59
2,-0.407547,-0.1141204999999999,0.9060059,1.0,-0.4078979,-0.1101073999999999,0.9063568,-29.46501,-1.7030490000000005,-17.93184,4.976242,0.4865610999999999,0.5609593,1.0,-0.4067688,-0.1226958999999999,0.9052429,33.294940000000004,0.5289611999999999,-20.47327,5.171143,0.5433126,0.5144269,-0.2564914,1.016065,-0.1753838999999999,-0.01895434,0.8236163000000001,0.04374275,0.2975178,18.34737,34.59
2,-0.407547,-0.1141204999999999,0.9060059,1.0,-0.4078979,-0.1101073999999999,0.9063568,-29.46501,-1.7030490000000005,-17.93184,4.976242,0.4865610999999999,0.5609593,1.0,-0.4067688,-0.1226958999999999,0.9052429,33.294940000000004,0.5289611999999999,-20.47327,5.171143,0.5433126,0.5144269,-0.2564914,1.016065,-0.1753838999999999,-0.01895434,0.8236163000000001,0.04374275,0.2975178,18.34737,34.59
2,-0.407547,-0.1141204999999999,0.9060059,1.0,-0.4078979,-0.1101073999999999,0.9063568,-29.46501,-1.7030490000000005,-17.93184,4.976242,0.4865610999999999,0.5609593,1.0,-0.4067688,-0.1226958999999999,0.9052429,33.294940000000004,0.5289611999999999,-20.47327,5.171143,0.5433126,0.5144269,-0.2564914,1.016065,-0.1753838999999999,-0.01895434,0.8236163000000001,0.04374275,0.2975178,18.34737,34.59
2,-0.3725128,-0.1103058,0.9214325,1.0,-0.3568726,-0.1075592,0.9279327,-29.31488,-1.7347259999999998,-17.84171,4.997726,0.4738285,0.5598026,1.0,-0.3869629,-0.1128235,0.9151611,33.55722,0.4967804,-20.39497,5.128113,0.5316138000000001,0.5126944999999999,-0.2569767,1.015952,-0.1763058,-0.01788195,0.8271257,0.04165031,0.2975178,15.75487,34.59
2,-0.3725128,-0.1103058,0.9214325,1.0,-0.3568726,-0.1075592,0.9279327,-29.31488,-1.7347259999999998,-17.84171,4.997726,0.4738285,0.5598026,1.0,-0.3869629,-0.1128235,0.9151611,33.55722,0.4967804,-20.39497,5.128113,0.5316138000000001,0.5126944999999999,-0.2569767,1.015952,-0.1763058,-0.01788195,0.8271257,0.04165031,0.2975178,15.75487,34.59
2,-0.3725128,-0.1103058,0.9214325,1.0,-0.3568726,-0.1075592,0.9279327,-29.31488,-1.7347259999999998,-17.84171,4.997726,0.4738285,0.5598026,1.0,-0.3869629,-0.1128235,0.9151611,33.55722,0.4967804,-20.39497,5.128113,0.5316138000000001,0.5126944999999999,-0.2569767,1.015952,-0.1763058,-0.01788195,0.8271257,0.04165031,0.2975178,15.75487,34.59
2,-0.364563,-0.1117553999999999,0.9244385,1.0,-0.3537903,-0.1123047,0.9285431,-29.27304,-1.686325,-17.83351,4.997223,0.4720295999999999,0.5589269,1.0,-0.3751831,-0.1112061,0.9202423,33.57607,0.5144653,-20.37608,5.112335,0.5290971999999999,0.5114699,-0.257267,1.015869,-0.1772325,-0.01755501,0.8302584999999999,0.03998963,0.2975178,15.75487,34.59
2,-0.364563,-0.1117553999999999,0.9244385,1.0,-0.3537903,-0.1123047,0.9285431,-29.27304,-1.686325,-17.83351,4.997223,0.4720295999999999,0.5589269,1.0,-0.3751831,-0.1112061,0.9202423,33.57607,0.5144653,-20.37608,5.112335,0.5290971999999999,0.5114699,-0.257267,1.015869,-0.1772325,-0.01755501,0.8302584999999999,0.03998963,0.2975178,15.75487,34.59
2,-0.364563,-0.1117553999999999,0.9244385,1.0,-0.3537903,-0.1123047,0.9285431,-29.27304,-1.686325,-17.83351,4.997223,0.4720295999999999,0.5589269,1.0,-0.3751831,-0.1112061,0.9202423,33.57607,0.5144653,-20.37608,5.112335,0.5290971999999999,0.5114699,-0.257267,1.015869,-0.1772325,-0.01755501,0.8302584999999999,0.03998963,0.2975178,15.75487,34.59
2,-0.3537598,-0.1060943999999999,0.9292908,1.0,-0.3459778,-0.1078339,0.9320068,-29.19115,-1.666611,-17.81816,4.9534910000000005,0.4683121,0.5573148,1.0,-0.3622894,-0.1041869999999999,0.9262085,33.65935,0.5349274,-20.34003,5.103043,0.5243317,0.5090957,-0.2575853999999999,1.015823,-0.1781605,-0.01709943,0.8331857,0.0386907,0.2975178,15.75487,34.59
2,-0.3537598,-0.1060943999999999,0.9292908,1.0,-0.3459778,-0.1078339,0.9320068,-29.19115,-1.666611,-17.81816,4.9534910000000005,0.4683121,0.5573148,1.0,-0.3622894,-0.1041869999999999,0.9262085,33.65935,0.5349274,-20.34003,5.103043,0.5243317,0.5090957,-0.2575853999999999,1.015823,-0.1781605,-0.01709943,0.8331857,0.0386907,0.2975178,15.75487,34.59
2,-0.3537598,-0.1060943999999999,0.9292908,1.0,-0.3459778,-0.1078339,0.9320068,-29.19115,-1.666611,-17.81816,4.9534910000000005,0.4683121,0.5573148,1.0,-0.3622894,-0.1041869999999999,0.9262085,33.65935,0.5349274,-20.34003,5.103043,0.5243317,0.5090957,-0.2575853999999999,1.015823,-0.1781605,-0.01709943,0.8331857,0.0386907,0.2975178,15.75487,34.59
2,-0.3337402,-0.1083069,0.9364166,1.0,-0.3302765,-0.106842,0.9378052,-29.11633,-1.642502,-17.77734,4.950943,0.4635428,0.5557791,1.0,-0.3376923,-0.1099701,0.9347992,33.64204,0.6401671999999999,-20.31798,5.123779,0.5208749,0.5060885,-0.2580011,1.015711,-0.1789802,-0.01674456,0.8364052,0.03753935,0.2975178,15.75487,34.59
2,-0.3337402,-0.1083069,0.9364166,1.0,-0.3302765,-0.106842,0.9378052,-29.11633,-1.642502,-17.77734,4.950943,0.4635428,0.5557791,1.0,-0.3376923,-0.1099701,0.9347992,33.64204,0.6401671999999999,-20.31798,5.123779,0.5208749,0.5060885,-0.2580011,1.015711,-0.1789802,-0.01674456,0.8364052,0.03753935,0.2975178,15.75487,34.59
2,-0.3337402,-0.1083069,0.9364166,1.0,-0.3302765,-0.106842,0.9378052,-29.11633,-1.642502,-17.77734,4.950943,0.4635428,0.5557791,1.0,-0.3376923,-0.1099701,0.9347992,33.64204,0.6401671999999999,-20.31798,5.123779,0.5208749,0.5060885,-0.2580011,1.015711,-0.1789802,-0.01674456,0.8364052,0.03753935,0.2975178,15.75487,34.59
2,-0.3167877,-0.1104888999999999,0.9420319,1.0,-0.3226776,-0.1202849999999999,0.9388275,-29.0578,-1.599838,-17.75185,4.983429,0.4604759,0.5562646,1.0,-0.3099212999999999,-0.09915161,0.9455719,33.69226,0.6329956,-20.2836,5.124573000000001,0.5148008,0.5038342,-0.2582316,1.01578,-0.1799984,-0.016132,0.8398368,0.03692693,0.2975178,15.75487,34.59
2,-0.3167877,-0.1104888999999999,0.9420319,1.0,-0.3226776,-0.1202849999999999,0.9388275,-29.0578,-1.599838,-17.75185,4.983429,0.4604759,0.5562646,1.0,-0.3099212999999999,-0.09915161,0.9455719,33.69226,0.6329956,-20.2836,5.124573000000001,0.5148008,0.5038342,-0.2582316,1.01578,-0.1799984,-0.016132,0.8398368,0.03692693,0.2975178,15.75487,34.59
2,-0.3167877,-0.1104888999999999,0.9420319,1.0,-0.3226776,-0.1202849999999999,0.9388275,-29.0578,-1.599838,-17.75185,4.983429,0.4604759,0.5562646,1.0,-0.3099212999999999,-0.09915161,0.9455719,33.69226,0.6329956,-20.2836,5.124573000000001,0.5148008,0.5038342,-0.2582316,1.01578,-0.1799984,-0.016132,0.8398368,0.03692693,0.2975178,15.75487,34.59
2,-0.3042603,-0.1102448,0.9461823,1.0,-0.3087920999999999,-0.1125031,0.9444427,-29.01047,-1.589401,-17.73151,4.958313,0.4568975999999999,0.5543033,1.0,-0.2993622,-0.1077881,0.9480286,33.72824,0.6533661000000001,-20.26872,4.991272,0.5120096,0.5042453,-0.25859,1.015696,-0.1810812,-0.01543092,0.8438690000000001,0.03615601,0.2975178,0.1913948,34.59
2,-0.3042603,-0.1102448,0.9461823,1.0,-0.3087920999999999,-0.1125031,0.9444427,-29.01047,-1.589401,-17.73151,4.958313,0.4568975999999999,0.5543033,1.0,-0.2993622,-0.1077881,0.9480286,33.72824,0.6533661000000001,-20.26872,4.991272,0.5120096,0.5042453,-0.25859,1.015696,-0.1810812,-0.01543092,0.8438690000000001,0.03615601,0.2975178,0.1913948,34.59
2,-0.3042603,-0.1102448,0.9461823,1.0,-0.3087920999999999,-0.1125031,0.9444427,-29.01047,-1.589401,-17.73151,4.958313,0.4568975999999999,0.5543033,1.0,-0.2993622,-0.1077881,0.9480286,33.72824,0.6533661000000001,-20.26872,4.991272,0.5120096,0.5042453,-0.25859,1.015696,-0.1810812,-0.01543092,0.8438690000000001,0.03615601,0.2975178,0.1913948,34.59
2,-0.3042603,-0.1102448,0.9461823,1.0,-0.3087920999999999,-0.1125031,0.9444427,-29.01047,-1.589401,-17.73151,4.958313,0.4568975999999999,0.5543033,1.0,-0.2993622,-0.1077881,0.9480286,33.72824,0.6533661000000001,-20.26872,4.991272,0.5120096,0.5042453,-0.2590281,1.015663,-0.1820056,-0.01380906,0.8479595999999999,0.03552582,0.2975178,0.1913948,34.59
2,-0.3042603,-0.1102448,0.9461823,1.0,-0.3087920999999999,-0.1125031,0.9444427,-29.01047,-1.589401,-17.73151,4.958313,0.4568975999999999,0.5543033,1.0,-0.2993622,-0.1077881,0.9480286,33.72824,0.6533661000000001,-20.26872,4.991272,0.5120096,0.5042453,-0.2590281,1.015663,-0.1820056,-0.01380906,0.8479595999999999,0.03552582,0.2975178,0.1913948,34.59
2,-0.3042603,-0.1102448,0.9461823,1.0,-0.3087920999999999,-0.1125031,0.9444427,-29.01047,-1.589401,-17.73151,4.958313,0.4568975999999999,0.5543033,1.0,-0.2993622,-0.1077881,0.9480286,33.72824,0.6533661000000001,-20.26872,4.991272,0.5120096,0.5042453,-0.2590281,1.015663,-0.1820056,-0.01380906,0.8479595999999999,0.03552582,0.2975178,0.1913948,34.59
2,-0.3042603,-0.1102448,0.9461823,1.0,-0.3087920999999999,-0.1125031,0.9444427,-29.01047,-1.589401,-17.73151,4.958313,0.4568975999999999,0.5543033,1.0,-0.2993622,-0.1077881,0.9480286,33.72824,0.6533661000000001,-20.26872,4.991272,0.5120096,0.5042453,-0.2593344999999999,1.015766,-0.1831019,-0.01243321,0.85221,0.03629658,0.2975178,0.1913948,34.59
2,-0.3042603,-0.1102448,0.9461823,1.0,-0.3087920999999999,-0.1125031,0.9444427,-29.01047,-1.589401,-17.73151,4.958313,0.4568975999999999,0.5543033,1.0,-0.2993622,-0.1077881,0.9480286,33.72824,0.6533661000000001,-20.26872,4.991272,0.5120096,0.5042453,-0.2593344999999999,1.015766,-0.1831019,-0.01243321,0.85221,0.03629658,0.2975178,0.1913948,34.59
2,-0.3042603,-0.1102448,0.9461823,1.0,-0.3087920999999999,-0.1125031,0.9444427,-29.01047,-1.589401,-17.73151,4.958313,0.4568975999999999,0.5543033,1.0,-0.2993622,-0.1077881,0.9480286,33.72824,0.6533661000000001,-20.26872,4.991272,0.5120096,0.5042453,-0.2593344999999999,1.015766,-0.1831019,-0.01243321,0.85221,0.03629658,0.2975178,0.1913948,34.59
2,-0.4631805,-0.1062012,0.8798676,1.0,-0.4625397,-0.101181,0.8807983,-29.74048,-1.5821379999999998,-18.10109,4.860519,0.5040894,0.5584199000000001,1.0,-0.4643707,-0.1154938,0.878067,32.970490000000005,0.7409058000000001,-20.59813,5.02388,0.5636644000000001,0.5087416,-0.2603348,1.016,-0.1851813,-0.01096766,0.8603858,0.03838553,0.2975178,0.1913948,34.59
2,-0.4631805,-0.1062012,0.8798676,1.0,-0.4625397,-0.101181,0.8807983,-29.74048,-1.5821379999999998,-18.10109,4.860519,0.5040894,0.5584199000000001,1.0,-0.4643707,-0.1154938,0.878067,32.970490000000005,0.7409058000000001,-20.59813,5.02388,0.5636644000000001,0.5087416,-0.2603348,1.016,-0.1851813,-0.01096766,0.8603858,0.03838553,0.2975178,-21.67984,34.59
2,-0.4631805,-0.1062012,0.8798676,1.0,-0.4625397,-0.101181,0.8807983,-29.74048,-1.5821379999999998,-18.10109,4.860519,0.5040894,0.5584199000000001,1.0,-0.4643707,-0.1154938,0.878067,32.970490000000005,0.7409058000000001,-20.59813,5.02388,0.5636644000000001,0.5087416,-0.2603348,1.016,-0.1851813,-0.01096766,0.8603858,0.03838553,0.2975178,-21.67984,34.59
2,-0.4457854999999999,-0.1086426,0.8885193000000001,1.0,-0.4438477,-0.1015778,0.8903198,-29.67139,-1.607071,-18.06737,4.931198,0.4988402,0.5585515999999999,1.0,-0.4493103,-0.1217956999999999,0.885025,33.04874,0.7323914,-20.55923,5.027435,0.5585565,0.5093675,-0.2607199,1.016115,-0.1861001,-0.0107071,0.863719,0.04000937,0.2975178,-21.67984,34.59
2,-0.4457854999999999,-0.1086426,0.8885193000000001,1.0,-0.4438477,-0.1015778,0.8903198,-29.67139,-1.607071,-18.06737,4.931198,0.4988402,0.5585515999999999,1.0,-0.4493103,-0.1217956999999999,0.885025,33.04874,0.7323914,-20.55923,5.027435,0.5585565,0.5093675,-0.2607199,1.016115,-0.1861001,-0.0107071,0.863719,0.04000937,0.2975178,-21.67984,34.59
2,-0.4457854999999999,-0.1086426,0.8885193000000001,1.0,-0.4438477,-0.1015778,0.8903198,-29.67139,-1.607071,-18.06737,4.931198,0.4988402,0.5585515999999999,1.0,-0.4493103,-0.1217956999999999,0.885025,33.04874,0.7323914,-20.55923,5.027435,0.5585565,0.5093675,-0.2607199,1.016115,-0.1861001,-0.0107071,0.863719,0.04000937,0.2975178,-21.67984,34.59
2,-0.4308624,-0.1105956999999999,0.8955994,1.0,-0.4230957,-0.1018371999999999,0.9003296000000001,-29.55598,-1.646408,-18.02467,4.907135,0.4919303,0.5589851,1.0,-0.4395599,-0.1204529,0.8900909,33.147459999999995,0.7019653,-20.54463,5.002899,0.5537512,0.5097612,-0.2615077,1.016564,-0.187595,-0.01117327,0.8694185,0.04191405,0.2975178,-21.67984,34.59
2,-0.4308624,-0.1105956999999999,0.8955994,1.0,-0.4230957,-0.1018371999999999,0.9003296000000001,-29.55598,-1.646408,-18.02467,4.907135,0.4919303,0.5589851,1.0,-0.4395599,-0.1204529,0.8900909,33.147459999999995,0.7019653,-20.54463,5.002899,0.5537512,0.5097612,-0.2615077,1.016564,-0.187595,-0.01117327,0.8694185,0.04191405,0.2975178,-21.67984,34.59
2,-0.4308624,-0.1105956999999999,0.8955994,1.0,-0.4230957,-0.1018371999999999,0.9003296000000001,-29.55598,-1.646408,-18.02467,4.907135,0.4919303,0.5589851,1.0,-0.4395599,-0.1204529,0.8900909,33.147459999999995,0.7019653,-20.54463,5.002899,0.5537512,0.5097612,-0.2615077,1.016564,-0.187595,-0.01117327,0.8694185,0.04191405,0.2975178,-21.67984,34.59
2,-0.401947,-0.107254,0.9093475,1.0,-0.4010772999999999,-0.10289,0.9102325,-29.48543,-1.677094,-17.989060000000002,5.007202,0.4861245,0.5593914000000001,1.0,-0.4037476,-0.1162872,0.9074402,33.30234,0.6611938,-20.45799,4.799881,0.5429706999999999,0.5087802,-0.2619835,1.016742,-0.1883026,-0.01154646,0.8719478999999999,0.04272722,0.2975178,-21.67984,34.59
2,-0.401947,-0.107254,0.9093475,1.0,-0.4010772999999999,-0.10289,0.9102325,-29.48543,-1.677094,-17.989060000000002,5.007202,0.4861245,0.5593914000000001,1.0,-0.4037476,-0.1162872,0.9074402,33.30234,0.6611938,-20.45799,4.799881,0.5429706999999999,0.5087802,-0.2619835,1.016742,-0.1883026,-0.01154646,0.8719478999999999,0.04272722,0.2975178,-21.67984,34.59
2,-0.401947,-0.107254,0.9093475,1.0,-0.4010772999999999,-0.10289,0.9102325,-29.48543,-1.677094,-17.989060000000002,5.007202,0.4861245,0.5593914000000001,1.0,-0.4037476,-0.1162872,0.9074402,33.30234,0.6611938,-20.45799,4.799881,0.5429706999999999,0.5087802,-0.2619835,1.016742,-0.1883026,-0.01154646,0.8719478999999999,0.04272722,0.2975178,-21.67984,34.59
2,-0.3971863,-0.103241,0.9118958,1.0,-0.3901978,-0.1014708999999999,0.9151154,-29.43816,-1.676971,-17.9725,5.001526,0.4829388,0.5588,1.0,-0.4103850999999999,-0.1065826,0.9056549,33.37102,0.5784912,-20.46385,4.920242,0.5417574000000001,0.5100394,-0.2624974,1.0169,-0.1889819,-0.01191359,0.8744854,0.04356816,0.2975178,3.196148,34.59
2,-0.3971863,-0.103241,0.9118958,1.0,-0.3901978,-0.1014708999999999,0.9151154,-29.43816,-1.676971,-17.9725,5.001526,0.4829388,0.5588,1.0,-0.4103850999999999,-0.1065826,0.9056549,33.37102,0.5784912,-20.46385,4.920242,0.5417574000000001,0.5100394,-0.2624974,1.0169,-0.1889819,-0.01191359,0.8744854,0.04356816,0.2975178,3.196148,34.59
2,-0.3971863,-0.103241,0.9118958,1.0,-0.3901978,-0.1014708999999999,0.9151154,-29.43816,-1.676971,-17.9725,5.001526,0.4829388,0.5588,1.0,-0.4103850999999999,-0.1065826,0.9056549,33.37102,0.5784912,-20.46385,4.920242,0.5417574000000001,0.5100394,-0.2624974,1.0169,-0.1889819,-0.01191359,0.8744854,0.04356816,0.2975178,3.196148,34.59
2,-0.3763123,-0.1108856,0.9198151,1.0,-0.376236,-0.1113434,0.9197998,-29.36578,-1.695129,-17.952070000000003,4.840363,0.4785826,0.5604488000000001,1.0,-0.3763885,-0.1103668,0.9198456,33.40379,0.5842743,-20.42731,4.830017,0.5351598000000001,0.5094876,-0.2638335,1.01718,-0.1902454999999999,-0.01290775,0.879539,0.04438141,0.2975178,3.196148,34.59
2,-0.3763123,-0.1108856,0.9198151,1.0,-0.376236,-0.1113434,0.9197998,-29.36578,-1.695129,-17.952070000000003,4.840363,0.4785826,0.5604488000000001,1.0,-0.3763885,-0.1103668,0.9198456,33.40379,0.5842743,-20.42731,4.830017,0.5351598000000001,0.5094876,-0.2638335,1.01718,-0.1902454999999999,-0.01290775,0.879539,0.04438141,0.2975178,3.196148,34.59
2,-0.3763123,-0.1108856,0.9198151,1.0,-0.376236,-0.1113434,0.9197998,-29.36578,-1.695129,-17.952070000000003,4.840363,0.4785826,0.5604488000000001,1.0,-0.3763885,-0.1103668,0.9198456,33.40379,0.5842743,-20.42731,4.830017,0.5351598000000001,0.5094876,-0.2638335,1.01718,-0.1902454999999999,-0.01290775,0.879539,0.04438141,0.2975178,3.196148,34.59
2,-0.3643188,-0.1115723,0.9245605,1.0,-0.3544922,-0.1144867,0.928009,-29.35254,-1.717773,-17.940520000000003,4.82402,0.4747497,0.5611598000000001,1.0,-0.3736115,-0.1087952,0.9211731,33.43925,0.5693665,-20.42297,4.911942,0.5334839,0.5096407999999999,-0.2644379,1.017201,-0.190917,-0.01384032,0.8820796000000001,0.04442471,0.2975178,3.196148,34.59
2,-0.3643188,-0.1115723,0.9245605,1.0,-0.3544922,-0.1144867,0.928009,-29.35254,-1.717773,-17.940520000000003,4.82402,0.4747497,0.5611598000000001,1.0,-0.3736115,-0.1087952,0.9211731,33.43925,0.5693665,-20.42297,4.911942,0.5334839,0.5096407999999999,-0.2644379,1.017201,-0.190917,-0.01384032,0.8820796000000001,0.04442471,0.2975178,3.196148,34.59
2,-0.3643188,-0.1115723,0.9245605,1.0,-0.3544922,-0.1144867,0.928009,-29.35254,-1.717773,-17.940520000000003,4.82402,0.4747497,0.5611598000000001,1.0,-0.3736115,-0.1087952,0.9211731,33.43925,0.5693665,-20.42297,4.911942,0.5334839,0.5096407999999999,-0.2644379,1.017201,-0.190917,-0.01384032,0.8820796000000001,0.04442471,0.2975178,3.196148,34.59
2,-0.3697815,-0.1174622,0.9216461,1.0,-0.361557,-0.1203613,0.9245453,-29.36487,-1.722015,-17.960420000000003,4.873093,0.4761794,0.5625565,1.0,-0.3798675999999999,-0.1138916,0.917984,33.46703,0.6095428,-20.405520000000003,4.873032,0.5336266,0.5091247999999999,-0.2650197,1.017308,-0.1915699,-0.01468806,0.8845961999999999,0.04465639,0.2975178,3.196148,34.59
2,-0.3697815,-0.1174622,0.9216461,1.0,-0.361557,-0.1203613,0.9245453,-29.36487,-1.722015,-17.960420000000003,4.873093,0.4761794,0.5625565,1.0,-0.3798675999999999,-0.1138916,0.917984,33.46703,0.6095428,-20.405520000000003,4.873032,0.5336266,0.5091247999999999,-0.2650197,1.017308,-0.1915699,-0.01468806,0.8845961999999999,0.04465639,0.2975178,3.196148,34.59
2,-0.3697815,-0.1174622,0.9216461,1.0,-0.361557,-0.1203613,0.9245453,-29.36487,-1.722015,-17.960420000000003,4.873093,0.4761794,0.5625565,1.0,-0.3798675999999999,-0.1138916,0.917984,33.46703,0.6095428,-20.405520000000003,4.873032,0.5336266,0.5091247999999999,-0.2650197,1.017308,-0.1915699,-0.01468806,0.8845961999999999,0.04465639,0.2975178,3.196148,34.59
2,-0.4208069,-0.100174,0.9015961,1.0,-0.4165192,-0.0899353,0.9046631,-29.57138,-1.646408,-18.06735,4.810059,0.4915115,0.5572869,1.0,-0.4269104,-0.1149444999999999,0.8969421000000001,33.12968,0.7100677,-20.53632,4.813522,0.5524392,0.5081813000000001,-0.2661192,1.017488,-0.1931759,-0.01523436,0.8894844000000001,0.04538308,0.2975178,3.196148,34.59
2,-0.4208069,-0.100174,0.9015961,1.0,-0.4165192,-0.0899353,0.9046631,-29.57138,-1.646408,-18.06735,4.810059,0.4915115,0.5572869,1.0,-0.4269104,-0.1149444999999999,0.8969421000000001,33.12968,0.7100677,-20.53632,4.813522,0.5524392,0.5081813000000001,-0.2661192,1.017488,-0.1931759,-0.01523436,0.8894844000000001,0.04538308,0.2975178,12.51276,34.59
2,-0.4208069,-0.100174,0.9015961,1.0,-0.4165192,-0.0899353,0.9046631,-29.57138,-1.646408,-18.06735,4.810059,0.4915115,0.5572869,1.0,-0.4269104,-0.1149444999999999,0.8969421000000001,33.12968,0.7100677,-20.53632,4.813522,0.5524392,0.5081813000000001,-0.2661192,1.017488,-0.1931759,-0.01523436,0.8894844000000001,0.04538308,0.2975178,12.51276,34.59
2,-0.4120331,-0.1006165,0.9055786,1.0,-0.4045563,-0.0973053,0.909317,-29.531270000000003,-1.652267,-18.04704,4.686234,0.4884378,0.5581815,1.0,-0.420639,-0.1044311999999999,0.9011841,33.272890000000004,0.6426544,-20.49634,4.773361,0.5468088000000001,0.5080714,-0.2664594999999999,1.017758,-0.1938658999999999,-0.01572055,0.8919457000000001,0.04531802,0.2975178,12.51276,34.59
2,-0.4120331,-0.1006165,0.9055786,1.0,-0.4045563,-0.0973053,0.909317,-29.531270000000003,-1.652267,-18.04704,4.686234,0.4884378,0.5581815,1.0,-0.420639,-0.1044311999999999,0.9011841,33.272890000000004,0.6426544,-20.49634,4.773361,0.5468088000000001,0.5080714,-0.2664594999999999,1.017758,-0.1938658999999999,-0.01572055,0.8919457000000001,0.04531802,0.2975178,12.51276,34.59
2,-0.4120331,-0.1006165,0.9055786,1.0,-0.4045563,-0.0973053,0.909317,-29.531270000000003,-1.652267,-18.04704,4.686234,0.4884378,0.5581815,1.0,-0.420639,-0.1044311999999999,0.9011841,33.272890000000004,0.6426544,-20.49634,4.773361,0.5468088000000001,0.5080714,-0.2664594999999999,1.017758,-0.1938658999999999,-0.01572055,0.8919457000000001,0.04531802,0.2975178,12.51276,34.59
2,-0.3868866,-0.1009978999999999,0.9165649,1.0,-0.3858948,-0.1010284,0.9169769,-29.44159,-1.674759,-18.01469,4.493652,0.4828321,0.5587635,1.0,-0.3882140999999999,-0.1009521,0.9160156,33.28743,0.642868,-20.46135,4.732437,0.5410187,0.5065482,-0.2671423,1.017854,-0.1946707999999999,-0.01582306,0.8943631,0.04506065,0.2975178,12.51276,34.59
2,-0.3868866,-0.1009978999999999,0.9165649,1.0,-0.3858948,-0.1010284,0.9169769,-29.44159,-1.674759,-18.01469,4.493652,0.4828321,0.5587635,1.0,-0.3882140999999999,-0.1009521,0.9160156,33.28743,0.642868,-20.46135,4.732437,0.5410187,0.5065482,-0.2671423,1.017854,-0.1946707999999999,-0.01582306,0.8943631,0.04506065,0.2975178,12.51276,34.59
2,-0.3868866,-0.1009978999999999,0.9165649,1.0,-0.3858948,-0.1010284,0.9169769,-29.44159,-1.674759,-18.01469,4.493652,0.4828321,0.5587635,1.0,-0.3882140999999999,-0.1009521,0.9160156,33.28743,0.642868,-20.46135,4.732437,0.5410187,0.5065482,-0.2671423,1.017854,-0.1946707999999999,-0.01582306,0.8943631,0.04506065,0.2975178,12.51276,34.59
2,-0.3726807,-0.09985352,0.9225616,1.0,-0.3710327,-0.1004791,0.9231567,-29.39636,-1.6919099999999998,-17.9996,4.590118,0.4789779,0.5588396,1.0,-0.374588,-0.09913635,0.9218597,33.34734,0.6473389,-20.44016,4.767303,0.5368069000000001,0.50567,-0.2681637,1.01778,-0.1960808,-0.01542584,0.8991522,0.04456169,0.2975178,12.51276,34.59
2,-0.3726807,-0.09985352,0.9225616,1.0,-0.3710327,-0.1004791,0.9231567,-29.39636,-1.6919099999999998,-17.9996,4.590118,0.4789779,0.5588396,1.0,-0.374588,-0.09913635,0.9218597,33.34734,0.6473389,-20.44016,4.767303,0.5368069000000001,0.50567,-0.2681637,1.01778,-0.1960808,-0.01542584,0.8991522,0.04456169,0.2975178,12.51276,34.59
3,-0.3726807,-0.09985352,0.9225616,1.0,-0.3710327,-0.1004791,0.9231567,-29.39636,-1.6919099999999998,-17.9996,4.590118,0.4789779,0.5588396,1.0,-0.374588,-0.09913635,0.9218597,33.34734,0.6473389,-20.44016,4.767303,0.5368069000000001,0.50567,-0.2681637,1.01778,-0.1960808,-0.01542584,0.8991522,0.04456169,0.2975178,12.51276,34.59
3,-0.3532867,-0.09788513,0.9303589,1.0,-0.3403777999999999,-0.1017761,0.9347534,-29.39468,-1.72226,-17.97481,4.528793,0.4741358,0.5592417,1.0,-0.3656006,-0.09414673,0.9259949,33.50827,0.6337891,-20.39719,4.688934,0.530197,0.5046828,-0.2685192,1.017683,-0.1965884,-0.01525586,0.9016146,0.04436362,0.2975178,8.762924,34.59
3,-0.3532867,-0.09788513,0.9303589,1.0,-0.3403777999999999,-0.1017761,0.9347534,-29.39468,-1.72226,-17.97481,4.528793,0.4741358,0.5592417,1.0,-0.3656006,-0.09414673,0.9259949,33.50827,0.6337891,-20.39719,4.688934,0.530197,0.5046828,-0.2685192,1.017683,-0.1965884,-0.01525586,0.9016146,0.04436362,0.2975178,1.950927,34.59
3,-0.3532867,-0.09788513,0.9303589,1.0,-0.3403777999999999,-0.1017761,0.9347534,-29.39468,-1.72226,-17.97481,4.528793,0.4741358,0.5592417,1.0,-0.3656006,-0.09414673,0.9259949,33.50827,0.6337891,-20.39719,4.688934,0.530197,0.5046828,-0.2685192,1.017683,-0.1965884,-0.01525586,0.9016146,0.04436362,0.2975178,1.950927,34.59
3,-0.3472748,-0.09797668,0.9326171999999998,1.0,-0.33461,-0.09431458,0.9376221,-29.37451,-1.727646,-17.97182,4.590148999999999,0.4725755,0.5581148,1.0,-0.3594055,-0.1014862,0.9276276,33.531940000000006,0.6156921,-20.38274,4.690735,0.5283813,0.5062409999999999,-0.2689289,1.01761,-0.1971589,-0.01519518,0.9039436,0.04372316,0.2975178,1.950927,34.59
3,-0.3472748,-0.09797668,0.9326171999999998,1.0,-0.33461,-0.09431458,0.9376221,-29.37451,-1.727646,-17.97182,4.590148999999999,0.4725755,0.5581148,1.0,-0.3594055,-0.1014862,0.9276276,33.531940000000006,0.6156921,-20.38274,4.690735,0.5283813,0.5062409999999999,-0.2689289,1.01761,-0.1971589,-0.01519518,0.9039436,0.04372316,0.2975178,1.950927,34.59
3,-0.3472748,-0.09797668,0.9326171999999998,1.0,-0.33461,-0.09431458,0.9376221,-29.37451,-1.727646,-17.97182,4.590148999999999,0.4725755,0.5581148,1.0,-0.3594055,-0.1014862,0.9276276,33.531940000000006,0.6156921,-20.38274,4.690735,0.5283813,0.5062409999999999,-0.2689289,1.01761,-0.1971589,-0.01519518,0.9039436,0.04372316,0.2975178,1.950927,34.59
3,-0.3235015999999999,-0.10289,0.9406128,1.0,-0.3216553,-0.08836365,0.9427185,-29.17108,-1.731796,-17.93153,4.49794,0.4642956,0.5566627,1.0,-0.3253021,-0.1176146999999999,0.9382629,33.59167,0.6682587,-20.34355,4.714508,0.5208135,0.5063308,-0.2698179,1.017408,-0.1979524,-0.01548802,0.9080619,0.04315872,0.2975178,1.950927,34.59
3,-0.3235015999999999,-0.10289,0.9406128,1.0,-0.3216553,-0.08836365,0.9427185,-29.17108,-1.731796,-17.93153,4.49794,0.4642956,0.5566627,1.0,-0.3253021,-0.1176146999999999,0.9382629,33.59167,0.6682587,-20.34355,4.714508,0.5208135,0.5063308,-0.2698179,1.017408,-0.1979524,-0.01548802,0.9080619,0.04315872,0.2975178,1.950927,34.59
3,-0.3235015999999999,-0.10289,0.9406128,1.0,-0.3216553,-0.08836365,0.9427185,-29.17108,-1.731796,-17.93153,4.49794,0.4642956,0.5566627,1.0,-0.3253021,-0.1176146999999999,0.9382629,33.59167,0.6682587,-20.34355,4.714508,0.5208135,0.5063308,-0.2698179,1.017408,-0.1979524,-0.01548802,0.9080619,0.04315872,0.2975178,1.950927,34.59
3,-0.3186797999999999,-0.1022338999999999,0.9423218,1.0,-0.3178253,-0.08734131,0.9441071,-29.165940000000003,-1.696823,-17.92416,4.467072,0.463567,0.5552756999999999,1.0,-0.3195038,-0.1179047,0.9402161,33.614329999999995,0.6821441999999999,-20.34166,4.716812,0.5191404000000001,0.5058235,-0.2700883,1.017279,-0.1984566,-0.01606373,0.9098181,0.04329506,0.2975178,1.950927,34.59
3,-0.3186797999999999,-0.1022338999999999,0.9423218,1.0,-0.3178253,-0.08734131,0.9441071,-29.165940000000003,-1.696823,-17.92416,4.467072,0.463567,0.5552756999999999,1.0,-0.3195038,-0.1179047,0.9402161,33.614329999999995,0.6821441999999999,-20.34166,4.716812,0.5191404000000001,0.5058235,-0.2700883,1.017279,-0.1984566,-0.01606373,0.9098181,0.04329506,0.2975178,1.950927,34.59
3,-0.3186797999999999,-0.1022338999999999,0.9423218,1.0,-0.3178253,-0.08734131,0.9441071,-29.165940000000003,-1.696823,-17.92416,4.467072,0.463567,0.5552756999999999,1.0,-0.3195038,-0.1179047,0.9402161,33.614329999999995,0.6821441999999999,-20.34166,4.716812,0.5191404000000001,0.5058235,-0.2700883,1.017279,-0.1984566,-0.01606373,0.9098181,0.04329506,0.2975178,1.950927,34.59
3,-0.3186797999999999,-0.1022338999999999,0.9423218,1.0,-0.3178253,-0.08734131,0.9441071,-29.165940000000003,-1.696823,-17.92416,4.467072,0.463567,0.5552756999999999,1.0,-0.3195038,-0.1179047,0.9402161,33.614329999999995,0.6821441999999999,-20.34166,4.716812,0.5191404000000001,0.5058235,-0.2703521,1.017263,-0.1989096,-0.01686825,0.9114808,0.04393633,0.2975178,1.950927,34.59
3,-0.3186797999999999,-0.1022338999999999,0.9423218,1.0,-0.3178253,-0.08734131,0.9441071,-29.165940000000003,-1.696823,-17.92416,4.467072,0.463567,0.5552756999999999,1.0,-0.3195038,-0.1179047,0.9402161,33.614329999999995,0.6821441999999999,-20.34166,4.716812,0.5191404000000001,0.5058235,-0.2703521,1.017263,-0.1989096,-0.01686825,0.9114808,0.04393633,0.2975178,1.950927,34.59
3,-0.3186797999999999,-0.1022338999999999,0.9423218,1.0,-0.3178253,-0.08734131,0.9441071,-29.165940000000003,-1.696823,-17.92416,4.467072,0.463567,0.5552756999999999,1.0,-0.3195038,-0.1179047,0.9402161,33.614329999999995,0.6821441999999999,-20.34166,4.716812,0.5191404000000001,0.5058235,-0.2703521,1.017263,-0.1989096,-0.01686825,0.9114808,0.04393633,0.2975178,1.950927,34.59
3,-0.3101349,-0.1035918999999999,0.9450226,1.0,-0.3105620999999999,-0.09196472,0.9460754,-29.13239,-1.6866150000000002,-17.90846,4.409821,0.4614140999999999,0.5554247,1.0,-0.3095703,-0.1169586,0.9436493,33.63751,0.6916045999999999,-20.32387,4.649628,0.5168351999999999,0.5050313,-0.2707075,1.017439,-0.199319,-0.01791941,0.9129988,0.04508429,0.2975178,-6.636642,34.59
3,-0.3101349,-0.1035918999999999,0.9450226,1.0,-0.3105620999999999,-0.09196472,0.9460754,-29.13239,-1.6866150000000002,-17.90846,4.409821,0.4614140999999999,0.5554247,1.0,-0.3095703,-0.1169586,0.9436493,33.63751,0.6916045999999999,-20.32387,4.649628,0.5168351999999999,0.5050313,-0.2707075,1.017439,-0.199319,-0.01791941,0.9129988,0.04508429,0.2975178,-6.636642,34.59
3,-0.3101349,-0.1035918999999999,0.9450226,1.0,-0.3105620999999999,-0.09196472,0.9460754,-29.13239,-1.6866150000000002,-17.90846,4.409821,0.4614140999999999,0.5554247,1.0,-0.3095703,-0.1169586,0.9436493,33.63751,0.6916045999999999,-20.32387,4.649628,0.5168351999999999,0.5050313,-0.2707075,1.017439,-0.199319,-0.01791941,0.9129988,0.04508429,0.2975178,-6.636642,34.59
3,-1.0,-1.0,-1.0,0.6384109,0.0,0.0,0.0,-27.54138,-1.472183,-17.69202,-1.0,0.4089712,0.5606502,0.6437894000000001,0.0,0.0,0.0,35.00743,0.3069305,-20.3299,-1.0,0.4753458,0.4929505999999999,-0.2710382999999999,1.017647,-0.1996268,-0.01940688,0.9146614,0.046744,0.2975178,-6.636642,34.59
3,-1.0,-1.0,-1.0,0.6384109,0.0,0.0,0.0,-27.54138,-1.472183,-17.69202,-1.0,0.4089712,0.5606502,0.6437894000000001,0.0,0.0,0.0,35.00743,0.3069305,-20.3299,-1.0,0.4753458,0.4929505999999999,-0.2710382999999999,1.017647,-0.1996268,-0.01940688,0.9146614,0.046744,0.2975178,-6.636642,34.59
3,-1.0,-1.0,-1.0,0.6384109,0.0,0.0,0.0,-27.54138,-1.472183,-17.69202,-1.0,0.4089712,0.5606502,0.6437894000000001,0.0,0.0,0.0,35.00743,0.3069305,-20.3299,-1.0,0.4753458,0.4929505999999999,-0.2710382999999999,1.017647,-0.1996268,-0.01940688,0.9146614,0.046744,0.2975178,-6.636642,34.59
3,-1.0,-1.0,-1.0,0.4891766999999999,0.0,0.0,0.0,-27.90575,-2.155441,-13.91302,-1.0,0.4064735,0.5298593,0.5658499,0.0,0.0,0.0,34.84195,1.53862,-20.7748,-1.0,0.4561310999999999,0.5035335,-0.271399,1.018024,-0.1997815,-0.02071026,0.9164168,0.04961164,0.2936741,-6.636642,34.59
3,-1.0,-1.0,-1.0,0.4891766999999999,0.0,0.0,0.0,-27.90575,-2.155441,-13.91302,-1.0,0.4064735,0.5298593,0.5658499,0.0,0.0,0.0,34.84195,1.53862,-20.7748,-1.0,0.4561310999999999,0.5035335,-0.271399,1.018024,-0.1997815,-0.02071026,0.9164168,0.04961164,0.2936741,-6.636642,34.59
3,-1.0,-1.0,-1.0,0.4891766999999999,0.0,0.0,0.0,-27.90575,-2.155441,-13.91302,-1.0,0.4064735,0.5298593,0.5658499,0.0,0.0,0.0,34.84195,1.53862,-20.7748,-1.0,0.4561310999999999,0.5035335,-0.271399,1.018024,-0.1997815,-0.02071026,0.9164168,0.04961164,0.2936741,-6.636642,34.59
3,-1.0,-1.0,-1.0,0.8135372,0.0,0.0,0.0,-27.46899,-1.397308,-14.15514,-1.0,0.3691897,0.4607037,0.7928668000000001,0.0,0.0,0.0,34.47385,0.9382172,-15.33228,-1.0,0.4249929,0.4066619999999999,-0.2718214,1.018555,-0.1999104,-0.02300273,0.9183782,0.05316117,0.2936741,-6.636642,34.59
3,-1.0,-1.0,-1.0,0.8135372,0.0,0.0,0.0,-27.46899,-1.397308,-14.15514,-1.0,0.3691897,0.4607037,0.7928668000000001,0.0,0.0,0.0,34.47385,0.9382172,-15.33228,-1.0,0.4249929,0.4066619999999999,-0.2718214,1.018555,-0.1999104,-0.02300273,0.9183782,0.05316117,0.2936741,-6.636642,34.59
3,-1.0,-1.0,-1.0,0.8135372,0.0,0.0,0.0,-27.46899,-1.397308,-14.15514,-1.0,0.3691897,0.4607037,0.7928668000000001,0.0,0.0,0.0,34.47385,0.9382172,-15.33228,-1.0,0.4249929,0.4066619999999999,-0.2718214,1.018555,-0.1999104,-0.02300273,0.9183782,0.05316117,0.2936741,-6.636642,34.59
3,0.01358032,0.2288666,0.9733582,1.0,0.01358032,0.2288666,0.9733582,-27.16545,-1.1034389999999998,-15.31024,4.670135,0.3529294,0.4643585,1.0,0.1204071,0.2843018,0.9511261,35.05812,0.7670593000000001,-15.95288,5.019943,0.4053579,0.4023902,-0.272409,1.018871,-0.2001003999999999,-0.02473513,0.9204766,0.0566255,0.2936741,-6.636642,34.59
3,0.01358032,0.2288666,0.9733582,1.0,0.01358032,0.2288666,0.9733582,-27.16545,-1.1034389999999998,-15.31024,4.670135,0.3529294,0.4643585,1.0,0.1204071,0.2843018,0.9511261,35.05812,0.7670593000000001,-15.95288,5.019943,0.4053579,0.4023902,-0.272409,1.018871,-0.2001003999999999,-0.02473513,0.9204766,0.0566255,0.2936741,-6.636642,34.59
3,0.01358032,0.2288666,0.9733582,1.0,0.01358032,0.2288666,0.9733582,-27.16545,-1.1034389999999998,-15.31024,4.670135,0.3529294,0.4643585,1.0,0.1204071,0.2843018,0.9511261,35.05812,0.7670593000000001,-15.95288,5.019943,0.4053579,0.4023902,-0.272409,1.018871,-0.2001003999999999,-0.02473513,0.9204766,0.0566255,0.2936741,-6.636642,34.59
3,0.03015137,0.2370605,0.9710236,1.0,0.03015137,0.2370605,0.9710236,-27.20676,-1.197372,-15.20111,4.656143,0.3517268,0.4651079999999999,1.0,0.06193542,0.2416382,0.9683838,35.39955,1.395981,-18.39049,4.836304,0.4026825999999999,0.4077725,-0.273021,1.019294,-0.2001916,-0.02643464,0.9224379,0.06047287,0.2936741,-24.55639,34.59
3,0.03015137,0.2370605,0.9710236,1.0,0.03015137,0.2370605,0.9710236,-27.20676,-1.197372,-15.20111,4.656143,0.3517268,0.4651079999999999,1.0,0.06193542,0.2416382,0.9683838,35.39955,1.395981,-18.39049,4.836304,0.4026825999999999,0.4077725,-0.273021,1.019294,-0.2001916,-0.02643464,0.9224379,0.06047287,0.2936741,-24.55639,34.59
3,0.03015137,0.2370605,0.9710236,1.0,0.03015137,0.2370605,0.9710236,-27.20676,-1.197372,-15.20111,4.656143,0.3517268,0.4651079999999999,1.0,0.06193542,0.2416382,0.9683838,35.39955,1.395981,-18.39049,4.836304,0.4026825999999999,0.4077725,-0.273021,1.019294,-0.2001916,-0.02643464,0.9224379,0.06047287,0.2936741,-24.55639,34.59
3,0.06111145,0.2305907999999999,0.9711151,1.0,0.06111145,0.2305907999999999,0.9711151,-27.29118,-1.298935,-15.0619,4.695129,0.3496614999999999,0.4681229999999999,1.0,0.08390808,0.220932,0.9716644,35.57338,1.302765,-18.50145,4.533188,0.3935425,0.4144013,-0.2736447,1.019693,-0.2001876,-0.02801374,0.9243163,0.06384698,0.2936741,-24.55639,34.59
3,0.06111145,0.2305907999999999,0.9711151,1.0,0.06111145,0.2305907999999999,0.9711151,-27.29118,-1.298935,-15.0619,4.695129,0.3496614999999999,0.4681229999999999,1.0,0.08390808,0.220932,0.9716644,35.57338,1.302765,-18.50145,4.533188,0.3935425,0.4144013,-0.2736447,1.019693,-0.2001876,-0.02801374,0.9243163,0.06384698,0.2936741,-24.55639,34.59
3,0.06111145,0.2305907999999999,0.9711151,1.0,0.06111145,0.2305907999999999,0.9711151,-27.29118,-1.298935,-15.0619,4.695129,0.3496614999999999,0.4681229999999999,1.0,0.08390808,0.220932,0.9716644,35.57338,1.302765,-18.50145,4.533188,0.3935425,0.4144013,-0.2736447,1.019693,-0.2001876,-0.02801374,0.9243163,0.06384698,0.2936741,-24.55639,34.59
3,0.05924988,0.2469788,0.9671936,1.0,0.05924988,0.2470093,0.9671936,-27.28957,-1.298538,-15.61041,4.661087,0.3493925,0.4700043,1.0,0.07843018,0.2024536,0.9761353000000002,35.70558,1.436279,-19.17773,4.653976,0.3898191,0.4185170999999999,-0.2743084,1.02013,-0.2001214999999999,-0.0299851,0.9259804,0.06681295,0.2936741,-24.55639,34.59
3,0.05924988,0.2469788,0.9671936,1.0,0.05924988,0.2470093,0.9671936,-27.28957,-1.298538,-15.61041,4.661087,0.3493925,0.4700043,1.0,0.07843018,0.2024536,0.9761353000000002,35.70558,1.436279,-19.17773,4.653976,0.3898191,0.4185170999999999,-0.2743084,1.02013,-0.2001214999999999,-0.0299851,0.9259804,0.06681295,0.2936741,-24.55639,34.59
3,0.05924988,0.2469788,0.9671936,1.0,0.05924988,0.2470093,0.9671936,-27.28957,-1.298538,-15.61041,4.661087,0.3493925,0.4700043,1.0,0.07843018,0.2024536,0.9761353000000002,35.70558,1.436279,-19.17773,4.653976,0.3898191,0.4185170999999999,-0.2743084,1.02013,-0.2001214999999999,-0.0299851,0.9259804,0.06681295,0.2936741,-24.55639,34.59
3,0.08326721,0.1842041,0.9793396,1.0,0.02894592,0.2319946,0.9722748,-27.02597,-1.195892,-16.142870000000002,4.521317,0.3455334,0.473177,1.0,0.08638,0.1814117,0.979599,35.84845,1.618408,-19.98671,4.632278,0.383439,0.4224479999999999,-0.2750205999999999,1.020251,-0.200158,-0.03236153,0.9277772,0.0686628999999999,0.2936741,-24.55639,34.59
3,0.08326721,0.1842041,0.9793396,1.0,0.02894592,0.2319946,0.9722748,-27.02597,-1.195892,-16.142870000000002,4.521317,0.3455334,0.473177,1.0,0.08638,0.1814117,0.979599,35.84845,1.618408,-19.98671,4.632278,0.383439,0.4224479999999999,-0.2750205999999999,1.020251,-0.200158,-0.03236153,0.9277772,0.0686628999999999,0.2936741,-24.55639,34.59
3,0.08326721,0.1842041,0.9793396,1.0,0.02894592,0.2319946,0.9722748,-27.02597,-1.195892,-16.142870000000002,4.521317,0.3455334,0.473177,1.0,0.08638,0.1814117,0.979599,35.84845,1.618408,-19.98671,4.632278,0.383439,0.4224479999999999,-0.2750205999999999,1.020251,-0.200158,-0.03236153,0.9277772,0.0686628999999999,0.2936741,-24.55639,34.59
3,0.01559448,0.2074127,0.9781189,1.0,0.01358032,0.208252,0.9779663,-26.88768,-1.091797,-16.4193,4.450439,0.3434258,0.4756922,1.0,0.09474182,0.1735382,0.9802551,35.84995,1.5439,-19.80023,4.467667,0.3821120999999999,0.4243799,-0.2759697,1.0203950000000002,-0.2001654,-0.0338981999999999,0.9296377,0.07101283,0.2936741,6.658997,34.59
3,0.01559448,0.2074127,0.9781189,1.0,0.01358032,0.208252,0.9779663,-26.88768,-1.091797,-16.4193,4.450439,0.3434258,0.4756922,1.0,0.09474182,0.1735382,0.9802551,35.84995,1.5439,-19.80023,4.467667,0.3821120999999999,0.4243799,-0.2759697,1.0203950000000002,-0.2001654,-0.0338981999999999,0.9296377,0.07101283,0.2936741,6.658997,34.59
3,0.01559448,0.2074127,0.9781189,1.0,0.01358032,0.208252,0.9779663,-26.88768,-1.091797,-16.4193,4.450439,0.3434258,0.4756922,1.0,0.09474182,0.1735382,0.9802551,35.84995,1.5439,-19.80023,4.467667,0.3821120999999999,0.4243799,-0.2759697,1.0203950000000002,-0.2001654,-0.0338981999999999,0.9296377,0.07101283,0.2936741,6.658997,34.59
3,0.01559448,0.2074127,0.9781189,1.0,0.01358032,0.208252,0.9779663,-26.88768,-1.091797,-16.4193,4.450439,0.3434258,0.4756922,1.0,0.09474182,0.1735382,0.9802551,35.84995,1.5439,-19.80023,4.467667,0.3821120999999999,0.4243799,-0.2770607,1.020427,-0.2003106,-0.03475683,0.9322056,0.07294148,0.2936741,6.658997,34.59
3,0.01559448,0.2074127,0.9781189,1.0,0.01358032,0.208252,0.9779663,-26.88768,-1.091797,-16.4193,4.450439,0.3434258,0.4756922,1.0,0.09474182,0.1735382,0.9802551,35.84995,1.5439,-19.80023,4.467667,0.3821120999999999,0.4243799,-0.2770607,1.020427,-0.2003106,-0.03475683,0.9322056,0.07294148,0.2936741,6.658997,34.59
3,0.01559448,0.2074127,0.9781189,1.0,0.01358032,0.208252,0.9779663,-26.88768,-1.091797,-16.4193,4.450439,0.3434258,0.4756922,1.0,0.09474182,0.1735382,0.9802551,35.84995,1.5439,-19.80023,4.467667,0.3821120999999999,0.4243799,-0.2770607,1.020427,-0.2003106,-0.03475683,0.9322056,0.07294148,0.2936741,6.658997,34.59
3,0.01559448,0.2074127,0.9781189,1.0,0.01358032,0.208252,0.9779663,-26.88768,-1.091797,-16.4193,4.450439,0.3434258,0.4756922,1.0,0.09474182,0.1735382,0.9802551,35.84995,1.5439,-19.80023,4.467667,0.3821120999999999,0.4243799,-0.2785364,1.020493,-0.2006797,-0.03688887,0.9356342,0.07476495,0.2936741,6.658997,34.59
3,0.01559448,0.2074127,0.9781189,1.0,0.01358032,0.208252,0.9779663,-26.88768,-1.091797,-16.4193,4.450439,0.3434258,0.4756922,1.0,0.09474182,0.1735382,0.9802551,35.84995,1.5439,-19.80023,4.467667,0.3821120999999999,0.4243799,-0.2785364,1.020493,-0.2006797,-0.03688887,0.9356342,0.07476495,0.2936741,6.658997,34.59
3,0.01559448,0.2074127,0.9781189,1.0,0.01358032,0.208252,0.9779663,-26.88768,-1.091797,-16.4193,4.450439,0.3434258,0.4756922,1.0,0.09474182,0.1735382,0.9802551,35.84995,1.5439,-19.80023,4.467667,0.3821120999999999,0.4243799,-0.2785364,1.020493,-0.2006797,-0.03688887,0.9356342,0.07476495,0.2936741,6.658997,34.59
3,-0.1138916,0.1904755,0.9750519,1.0,-0.1668701,0.191391,0.9672089,-27.94221,-1.7944639999999998,-14.45815,4.369064,0.4046175,0.4843822,1.0,-0.05105591,0.1887054,0.9806976,34.35532,0.6739196999999999,-17.082629999999998,4.571075,0.4537305,0.4281484,-0.2807287,1.020578,-0.2013584,-0.03909891,0.9400248,0.07700257,0.2936741,6.658997,34.59
3,-0.1138916,0.1904755,0.9750519,1.0,-0.1668701,0.191391,0.9672089,-27.94221,-1.7944639999999998,-14.45815,4.369064,0.4046175,0.4843822,1.0,-0.05105591,0.1887054,0.9806976,34.35532,0.6739196999999999,-17.082629999999998,4.571075,0.4537305,0.4281484,-0.2807287,1.020578,-0.2013584,-0.03909891,0.9400248,0.07700257,0.2936741,6.658997,34.59
3,-0.1138916,0.1904755,0.9750519,1.0,-0.1668701,0.191391,0.9672089,-27.94221,-1.7944639999999998,-14.45815,4.369064,0.4046175,0.4843822,1.0,-0.05105591,0.1887054,0.9806976,34.35532,0.6739196999999999,-17.082629999999998,4.571075,0.4537305,0.4281484,-0.2807287,1.020578,-0.2013584,-0.03909891,0.9400248,0.07700257,0.2936741,6.658997,34.59
3,-0.2731323,0.1311951,0.9529724,1.0,-0.2789001,0.1495514,0.9485931,-28.85802,-1.091492,-16.55688,4.1992650000000005,0.4493068,0.4872777,1.0,-0.257843,0.08383179,0.9625244,33.86235,1.614197,-19.14163,4.353226,0.5021442,0.4325115,-0.2834905,1.021003,-0.2019387,-0.03997668,0.9452956,0.07890946,0.2936741,6.658997,34.59
3,-0.2731323,0.1311951,0.9529724,1.0,-0.2789001,0.1495514,0.9485931,-28.85802,-1.091492,-16.55688,4.1992650000000005,0.4493068,0.4872777,1.0,-0.257843,0.08383179,0.9625244,33.86235,1.614197,-19.14163,4.353226,0.5021442,0.4325115,-0.2834905,1.021003,-0.2019387,-0.03997668,0.9452956,0.07890946,0.2936741,6.658997,34.59
3,-0.2731323,0.1311951,0.9529724,1.0,-0.2789001,0.1495514,0.9485931,-28.85802,-1.091492,-16.55688,4.1992650000000005,0.4493068,0.4872777,1.0,-0.257843,0.08383179,0.9625244,33.86235,1.614197,-19.14163,4.353226,0.5021442,0.4325115,-0.2834905,1.021003,-0.2019387,-0.03997668,0.9452956,0.07890946,0.2936741,6.658997,34.59
3,-0.3563232,0.1295319,0.9253235,0.9327108,-0.3563232,0.1295471,0.9253235,-29.128390000000003,-1.134277,-16.64503,4.332733,0.4696839,0.4934984999999999,0.982094,-0.3401947,0.08435059,0.936554,33.53163,1.48938,-19.26392,4.546371,0.5259649000000001,0.4385621,-0.2865811,1.021382,-0.2024303999999999,-0.0397074,0.9506599,0.08179012,0.2936741,6.658997,34.59
3,-0.3563232,0.1295319,0.9253235,0.9327108,-0.3563232,0.1295471,0.9253235,-29.128390000000003,-1.134277,-16.64503,4.332733,0.4696839,0.4934984999999999,0.982094,-0.3401947,0.08435059,0.936554,33.53163,1.48938,-19.26392,4.546371,0.5259649000000001,0.4385621,-0.2865811,1.021382,-0.2024303999999999,-0.0397074,0.9506599,0.08179012,0.2936741,6.658997,34.59
3,-0.3563232,0.1295319,0.9253235,0.9327108,-0.3563232,0.1295471,0.9253235,-29.128390000000003,-1.134277,-16.64503,4.332733,0.4696839,0.4934984999999999,0.982094,-0.3401947,0.08435059,0.936554,33.53163,1.48938,-19.26392,4.546371,0.5259649000000001,0.4385621,-0.2865811,1.021382,-0.2024303999999999,-0.0397074,0.9506599,0.08179012,0.2936741,6.658997,34.59
3,-0.4010925,0.04403687,0.9149628,1.0,-0.4004059,0.04907227,0.9150085,-29.244770000000003,-1.320084,-16.66704,4.250748000000001,0.4799173,0.5124795999999999,1.0,-0.4029694,0.02984619,0.9147186,33.31129,1.191925,-19.34639,4.609177,0.5429725000000001,0.4583979,-0.2897714,1.021952,-0.2025973,-0.03821581,0.955839,0.08494278,0.2936741,17.87133,34.59
3,-0.4010925,0.04403687,0.9149628,1.0,-0.4004059,0.04907227,0.9150085,-29.244770000000003,-1.320084,-16.66704,4.250748000000001,0.4799173,0.5124795999999999,1.0,-0.4029694,0.02984619,0.9147186,33.31129,1.191925,-19.34639,4.609177,0.5429725000000001,0.4583979,-0.2897714,1.021952,-0.2025973,-0.03821581,0.955839,0.08494278,0.2936741,17.87133,34.59
3,-0.4010925,0.04403687,0.9149628,1.0,-0.4004059,0.04907227,0.9150085,-29.244770000000003,-1.320084,-16.66704,4.250748000000001,0.4799173,0.5124795999999999,1.0,-0.4029694,0.02984619,0.9147186,33.31129,1.191925,-19.34639,4.609177,0.5429725000000001,0.4583979,-0.2897714,1.021952,-0.2025973,-0.03821581,0.955839,0.08494278,0.2936741,17.87133,34.59
3,-0.3800964,0.03588867,0.9242401,1.0,-0.3816071,0.03909302,0.9234772,-29.17148,-1.462799,-16.62779,4.479736,0.4743863,0.5179353,1.0,-0.3773192999999999,0.03005981,0.9255829,33.40967,1.014725,-19.32062,4.6203,0.5355466999999999,0.4633373999999999,-0.2928663,1.022349,-0.2025317,-0.03722324,0.9603944,0.08663089,0.2936741,17.87133,34.59
3,-0.3800964,0.03588867,0.9242401,1.0,-0.3816071,0.03909302,0.9234772,-29.17148,-1.462799,-16.62779,4.479736,0.4743863,0.5179353,1.0,-0.3773192999999999,0.03005981,0.9255829,33.40967,1.014725,-19.32062,4.6203,0.5355466999999999,0.4633373999999999,-0.2928663,1.022349,-0.2025317,-0.03722324,0.9603944,0.08663089,0.2936741,17.87133,34.59
3,-0.3800964,0.03588867,0.9242401,1.0,-0.3816071,0.03909302,0.9234772,-29.17148,-1.462799,-16.62779,4.479736,0.4743863,0.5179353,1.0,-0.3773192999999999,0.03005981,0.9255829,33.40967,1.014725,-19.32062,4.6203,0.5355466999999999,0.4633373999999999,-0.2928663,1.022349,-0.2025317,-0.03722324,0.9603944,0.08663089,0.2936741,17.87133,34.59
3,-0.3449097,0.03288269,0.9380493,1.0,-0.3450165,0.04571533,0.9374695,-29.10663,-1.556335,-16.60162,4.440079,0.4666579,0.5189683,1.0,-0.344574,0.01042175,0.9386902,33.6116,0.9658966,-19.24425,4.48291,0.5237069999999999,0.4667617999999999,-0.2959914,1.022886,-0.202364,-0.03517765,0.9642608,0.08873739,0.2936741,17.87133,34.59
3,-0.3449097,0.03288269,0.9380493,1.0,-0.3450165,0.04571533,0.9374695,-29.10663,-1.556335,-16.60162,4.440079,0.4666579,0.5189683,1.0,-0.344574,0.01042175,0.9386902,33.6116,0.9658966,-19.24425,4.48291,0.5237069999999999,0.4667617999999999,-0.2959914,1.022886,-0.202364,-0.03517765,0.9642608,0.08873739,0.2936741,17.87133,34.59
3,-0.3449097,0.03288269,0.9380493,1.0,-0.3450165,0.04571533,0.9374695,-29.10663,-1.556335,-16.60162,4.440079,0.4666579,0.5189683,1.0,-0.344574,0.01042175,0.9386902,33.6116,0.9658966,-19.24425,4.48291,0.5237069999999999,0.4667617999999999,-0.2959914,1.022886,-0.202364,-0.03517765,0.9642608,0.08873739,0.2936741,17.87133,34.59
3,-0.3326569,0.03102112,0.9425354,1.0,-0.3300171,0.03366089,0.9433594,-29.02884,-1.605484,-16.57031,4.453094,0.4618332,0.5218683,1.0,-0.3381653,0.02548218,0.9407349,33.75331,0.9369965,-19.2285,4.549332,0.5181344,0.4650637999999999,-0.3022581,1.02306,-0.2019777999999999,-0.03410899,0.9712551,0.08860203,0.2936741,17.87133,34.59
3,-0.3326569,0.03102112,0.9425354,1.0,-0.3300171,0.03366089,0.9433594,-29.02884,-1.605484,-16.57031,4.453094,0.4618332,0.5218683,1.0,-0.3381653,0.02548218,0.9407349,33.75331,0.9369965,-19.2285,4.549332,0.5181344,0.4650637999999999,-0.3022581,1.02306,-0.2019777999999999,-0.03410899,0.9712551,0.08860203,0.2936741,17.87133,34.59
3,-0.3326569,0.03102112,0.9425354,1.0,-0.3300171,0.03366089,0.9433594,-29.02884,-1.605484,-16.57031,4.453094,0.4618332,0.5218683,1.0,-0.3381653,0.02548218,0.9407349,33.75331,0.9369965,-19.2285,4.549332,0.5181344,0.4650637999999999,-0.3022581,1.02306,-0.2019777999999999,-0.03410899,0.9712551,0.08860203,0.2936741,17.87133,34.59
3,-0.3326569,0.03102112,0.9425354,1.0,-0.3300171,0.03366089,0.9433594,-29.02884,-1.605484,-16.57031,4.453094,0.4618332,0.5218683,1.0,-0.3381653,0.02548218,0.9407349,33.75331,0.9369965,-19.2285,4.549332,0.5181344,0.4650637999999999,-0.3052197,1.022792,-0.2017797999999999,-0.03289133,0.9744631,0.08697345,0.2936741,5.360252,34.63
3,-0.3326569,0.03102112,0.9425354,1.0,-0.3300171,0.03366089,0.9433594,-29.02884,-1.605484,-16.57031,4.453094,0.4618332,0.5218683,1.0,-0.3381653,0.02548218,0.9407349,33.75331,0.9369965,-19.2285,4.549332,0.5181344,0.4650637999999999,-0.3052197,1.022792,-0.2017797999999999,-0.03289133,0.9744631,0.08697345,0.2936741,5.360252,34.63
3,-0.3326569,0.03102112,0.9425354,1.0,-0.3300171,0.03366089,0.9433594,-29.02884,-1.605484,-16.57031,4.453094,0.4618332,0.5218683,1.0,-0.3381653,0.02548218,0.9407349,33.75331,0.9369965,-19.2285,4.549332,0.5181344,0.4650637999999999,-0.3052197,1.022792,-0.2017797999999999,-0.03289133,0.9744631,0.08697345,0.2936741,5.360252,34.63
3,-0.3133392,0.02017212,0.9494171,1.0,-0.3123627,0.02581787,0.9496002,-28.97127,-1.649384,-16.5444,4.473495,0.457244,0.5239803,1.0,-0.3153381,0.008407593,0.9489288,33.81776,0.9076691,-19.18875,4.459763,0.5123397,0.4679973,-0.3082312,1.022477,-0.2013072,-0.03164518,0.9775394,0.08464166,0.2936741,5.360252,34.63
3,-0.3133392,0.02017212,0.9494171,1.0,-0.3123627,0.02581787,0.9496002,-28.97127,-1.649384,-16.5444,4.473495,0.457244,0.5239803,1.0,-0.3153381,0.008407593,0.9489288,33.81776,0.9076691,-19.18875,4.459763,0.5123397,0.4679973,-0.3082312,1.022477,-0.2013072,-0.03164518,0.9775394,0.08464166,0.2936741,5.360252,34.63
3,-0.3133392,0.02017212,0.9494171,1.0,-0.3123627,0.02581787,0.9496002,-28.97127,-1.649384,-16.5444,4.473495,0.457244,0.5239803,1.0,-0.3153381,0.008407593,0.9489288,33.81776,0.9076691,-19.18875,4.459763,0.5123397,0.4679973,-0.3082312,1.022477,-0.2013072,-0.03164518,0.9775394,0.08464166,0.2936741,5.360252,34.63
3,-0.2598419,0.009368896,0.9655914,1.0,-0.2608185,0.00970459,0.965332,-28.64175,-1.812057,-16.467679999999998,4.583679,0.4389432,0.5302203000000001,1.0,-0.2386932,0.002243042,0.9710846,34.11099,0.7050476,-19.24498,4.797256,0.4903529,0.4752034,-0.3113933,1.022184,-0.2010385,-0.02823574,0.9804327,0.08222548,0.2936741,5.360252,34.63
3,-0.2598419,0.009368896,0.9655914,1.0,-0.2608185,0.00970459,0.965332,-28.64175,-1.812057,-16.467679999999998,4.583679,0.4389432,0.5302203000000001,1.0,-0.2386932,0.002243042,0.9710846,34.11099,0.7050476,-19.24498,4.797256,0.4903529,0.4752034,-0.3113933,1.022184,-0.2010385,-0.02823574,0.9804327,0.08222548,0.2936741,5.360252,34.63
3,-0.2598419,0.009368896,0.9655914,1.0,-0.2608185,0.00970459,0.965332,-28.64175,-1.812057,-16.467679999999998,4.583679,0.4389432,0.5302203000000001,1.0,-0.2386932,0.002243042,0.9710846,34.11099,0.7050476,-19.24498,4.797256,0.4903529,0.4752034,-0.3113933,1.022184,-0.2010385,-0.02823574,0.9804327,0.08222548,0.2936741,5.360252,34.63
4,-0.3833313,0.0053253169999999,0.923584,1.0,-0.3818817,0.00668335,0.9241791,-29.27422,-1.808746,-16.7086,4.556213,0.4773385999999999,0.5343853,1.0,-0.4075317,-0.01734924,0.9130096,33.38763,0.6936798000000001,-19.44316,4.820023,0.5407936,0.4828329,-0.3173901,1.0215459999999998,-0.2002424,-0.02108886,0.9855418,0.07798278,0.2936741,5.360252,34.63
4,-0.3833313,0.0053253169999999,0.923584,1.0,-0.3818817,0.00668335,0.9241791,-29.27422,-1.808746,-16.7086,4.556213,0.4773385999999999,0.5343853,1.0,-0.4075317,-0.01734924,0.9130096,33.38763,0.6936798000000001,-19.44316,4.820023,0.5407936,0.4828329,-0.3173901,1.0215459999999998,-0.2002424,-0.02108886,0.9855418,0.07798278,0.2936741,5.360252,34.63
4,-0.3833313,0.0053253169999999,0.923584,1.0,-0.3818817,0.00668335,0.9241791,-29.27422,-1.808746,-16.7086,4.556213,0.4773385999999999,0.5343853,1.0,-0.4075317,-0.01734924,0.9130096,33.38763,0.6936798000000001,-19.44316,4.820023,0.5407936,0.4828329,-0.3173901,1.0215459999999998,-0.2002424,-0.02108886,0.9855418,0.07798278,0.2936741,5.360252,34.63
4,-0.4871674,-0.02719116,0.8728790000000001,1.0,-0.4830627,-0.02171326,0.8753052,-29.75674,-1.862152,-16.96773,4.42009,0.5085074,0.5447295,1.0,-0.4986115,-0.04260254,0.8657684000000001,32.86679,0.6525269,-19.68613,4.862793,0.5726879,0.4923559,-0.3202070999999999,1.021207,-0.1998197,-0.01783063,0.9876346,0.07663353,0.2936741,5.360252,34.63
4,-0.4871674,-0.02719116,0.8728790000000001,1.0,-0.4830627,-0.02171326,0.8753052,-29.75674,-1.862152,-16.96773,4.42009,0.5085074,0.5447295,1.0,-0.4986115,-0.04260254,0.8657684000000001,32.86679,0.6525269,-19.68613,4.862793,0.5726879,0.4923559,-0.3202070999999999,1.021207,-0.1998197,-0.01783063,0.9876346,0.07663353,0.2936741,5.360252,34.63
4,-0.4871674,-0.02719116,0.8728790000000001,1.0,-0.4830627,-0.02171326,0.8753052,-29.75674,-1.862152,-16.96773,4.42009,0.5085074,0.5447295,1.0,-0.4986115,-0.04260254,0.8657684000000001,32.86679,0.6525269,-19.68613,4.862793,0.5726879,0.4923559,-0.3202070999999999,1.021207,-0.1998197,-0.01783063,0.9876346,0.07663353,0.2936741,5.360252,34.63
4,-0.4601746,-0.02682495,0.8874054,1.0,-0.4532470999999999,-0.0148467999999999,0.8912505999999999,-29.66367,-1.872482,-16.915370000000003,4.38298,0.5008581,0.5428239,1.0,-0.4713745,-0.04652405,0.8806915000000001,33.04959,0.6150818,-19.60701,4.710297,0.5623055,0.4927729,-0.3231274,1.021096,-0.1993731,-0.01537844,0.9894014,0.07595393,0.2936741,-19.47136,34.63
4,-0.4601746,-0.02682495,0.8874054,1.0,-0.4532470999999999,-0.0148467999999999,0.8912505999999999,-29.66367,-1.872482,-16.915370000000003,4.38298,0.5008581,0.5428239,1.0,-0.4713745,-0.04652405,0.8806915000000001,33.04959,0.6150818,-19.60701,4.710297,0.5623055,0.4927729,-0.3231274,1.021096,-0.1993731,-0.01537844,0.9894014,0.07595393,0.2936741,-19.47136,34.63
4,-0.4601746,-0.02682495,0.8874054,1.0,-0.4532470999999999,-0.0148467999999999,0.8912505999999999,-29.66367,-1.872482,-16.915370000000003,4.38298,0.5008581,0.5428239,1.0,-0.4713745,-0.04652405,0.8806915000000001,33.04959,0.6150818,-19.60701,4.710297,0.5623055,0.4927729,-0.3231274,1.021096,-0.1993731,-0.01537844,0.9894014,0.07595393,0.2936741,-19.47136,34.63
4,-0.4396973,-0.03404236,0.8974915000000001,1.0,-0.4304657,-0.02973938,0.9020996,-29.59119,-1.891724,-16.85954,4.385315,0.4948604,0.5448228,1.0,-0.4581909,-0.04270935,0.8878174000000001,33.17197,0.5887909,-19.56619,4.6398470000000005,0.5562302,0.4922914,-0.3231274,1.021096,-0.1993731,-0.01537844,0.9894014,0.07595393,0.2936741,-19.47136,34.63
4,-0.4396973,-0.03404236,0.8974915000000001,1.0,-0.4304657,-0.02973938,0.9020996,-29.59119,-1.891724,-16.85954,4.385315,0.4948604,0.5448228,1.0,-0.4581909,-0.04270935,0.8878174000000001,33.17197,0.5887909,-19.56619,4.6398470000000005,0.5562302,0.4922914,-0.3231274,1.021096,-0.1993731,-0.01537844,0.9894014,0.07595393,0.2936741,-19.47136,34.63
4,-0.4396973,-0.03404236,0.8974915000000001,1.0,-0.4304657,-0.02973938,0.9020996,-29.59119,-1.891724,-16.85954,4.385315,0.4948604,0.5448228,1.0,-0.4581909,-0.04270935,0.8878174000000001,33.17197,0.5887909,-19.56619,4.6398470000000005,0.5562302,0.4922914,-0.3231274,1.021096,-0.1993731,-0.01537844,0.9894014,0.07595393,0.2936741,-19.47136,34.63
4,-0.4111327999999999,-0.02235413,0.9112854,1.0,-0.4104004,-0.01602173,0.9117584,-29.48372,-1.919067,-16.83006,4.352188,0.4884212999999999,0.5428195,1.0,-0.4121857,-0.03198242,0.9105225,33.24823,0.5463104,-19.51703,4.560425,0.5462312,0.4904984999999999,-0.3258836,1.021089,-0.198972,-0.01302611,0.9909161,0.07540814,0.2936741,-19.47136,34.63
4,-0.4111327999999999,-0.02235413,0.9112854,1.0,-0.4104004,-0.01602173,0.9117584,-29.48372,-1.919067,-16.83006,4.352188,0.4884212999999999,0.5428195,1.0,-0.4121857,-0.03198242,0.9105225,33.24823,0.5463104,-19.51703,4.560425,0.5462312,0.4904984999999999,-0.3258836,1.021089,-0.198972,-0.01302611,0.9909161,0.07540814,0.2936741,-19.47136,34.63
4,-0.4111327999999999,-0.02235413,0.9112854,1.0,-0.4104004,-0.01602173,0.9117584,-29.48372,-1.919067,-16.83006,4.352188,0.4884212999999999,0.5428195,1.0,-0.4121857,-0.03198242,0.9105225,33.24823,0.5463104,-19.51703,4.560425,0.5462312,0.4904984999999999,-0.3258836,1.021089,-0.198972,-0.01302611,0.9909161,0.07540814,0.2936741,-19.47136,34.63
4,-0.3787994,-0.02398682,0.9251556,1.0,-0.3769379,-0.01493835,0.9261017,-29.38011,-1.92514,-16.77882,4.170029,0.4800624,0.5416850000000001,1.0,-0.3811492999999999,-0.03562927,0.9238129,33.40302,0.5224915,-19.44896,4.474808,0.5361755,0.4906367999999999,-0.3285870999999999,1.020992,-0.1983229,-0.01053135,0.992311,0.0744996,0.2936741,-19.47136,34.63
4,-0.3787994,-0.02398682,0.9251556,1.0,-0.3769379,-0.01493835,0.9261017,-29.38011,-1.92514,-16.77882,4.170029,0.4800624,0.5416850000000001,1.0,-0.3811492999999999,-0.03562927,0.9238129,33.40302,0.5224915,-19.44896,4.474808,0.5361755,0.4906367999999999,-0.3285870999999999,1.020992,-0.1983229,-0.01053135,0.992311,0.0744996,0.2936741,-19.47136,34.63
4,-0.3787994,-0.02398682,0.9251556,1.0,-0.3769379,-0.01493835,0.9261017,-29.38011,-1.92514,-16.77882,4.170029,0.4800624,0.5416850000000001,1.0,-0.3811492999999999,-0.03562927,0.9238129,33.40302,0.5224915,-19.44896,4.474808,0.5361755,0.4906367999999999,-0.3285870999999999,1.020992,-0.1983229,-0.01053135,0.992311,0.0744996,0.2936741,-19.47136,34.63
4,-0.3463593,-0.0295105,0.9376221,1.0,-0.3429413,-0.02134705,0.9391022,-29.21227,-1.908936,-16.71516,3.929855,0.469674,0.54094,1.0,-0.3499908,-0.03819275,0.9359589,33.60948,0.4972992,-19.3853,4.394882,0.5244800000000001,0.4907085,-0.3341232999999999,1.021094,-0.1973339,-0.006793298,0.9945042,0.0727363999999999,0.2936741,-19.47136,34.63
4,-0.3463593,-0.0295105,0.9376221,1.0,-0.3429413,-0.02134705,0.9391022,-29.21227,-1.908936,-16.71516,3.929855,0.469674,0.54094,1.0,-0.3499908,-0.03819275,0.9359589,33.60948,0.4972992,-19.3853,4.394882,0.5244800000000001,0.4907085,-0.3341232999999999,1.021094,-0.1973339,-0.006793298,0.9945042,0.0727363999999999,0.2936741,-19.47136,34.63
4,-0.3463593,-0.0295105,0.9376221,1.0,-0.3429413,-0.02134705,0.9391022,-29.21227,-1.908936,-16.71516,3.929855,0.469674,0.54094,1.0,-0.3499908,-0.03819275,0.9359589,33.60948,0.4972992,-19.3853,4.394882,0.5244800000000001,0.4907085,-0.3341232999999999,1.021094,-0.1973339,-0.006793298,0.9945042,0.0727363999999999,0.2936741,-19.47136,34.63
4,-0.3408813,-0.02276611,0.9398193,1.0,-0.337738,-0.02105713,0.9409943,-29.18504,-1.916245,-16.7068,3.999008,0.4679563,0.5409972,1.0,-0.3442078,-0.02459717,0.9385681,33.66872,0.4679412999999999,-19.37694,4.331985,0.5217409000000001,0.48923,-0.3368874,1.021324,-0.1969522,-0.005463243,0.9953402,0.07241733,0.2936741,-17.83688,34.63
4,-0.3408813,-0.02276611,0.9398193,1.0,-0.337738,-0.02105713,0.9409943,-29.18504,-1.916245,-16.7068,3.999008,0.4679563,0.5409972,1.0,-0.3442078,-0.02459717,0.9385681,33.66872,0.4679412999999999,-19.37694,4.331985,0.5217409000000001,0.48923,-0.3368874,1.021324,-0.1969522,-0.005463243,0.9953402,0.07241733,0.2936741,-17.83688,34.63
4,-0.3408813,-0.02276611,0.9398193,1.0,-0.337738,-0.02105713,0.9409943,-29.18504,-1.916245,-16.7068,3.999008,0.4679563,0.5409972,1.0,-0.3442078,-0.02459717,0.9385681,33.66872,0.4679412999999999,-19.37694,4.331985,0.5217409000000001,0.48923,-0.3368874,1.021324,-0.1969522,-0.005463243,0.9953402,0.07241733,0.2936741,-17.83688,34.63
4,-0.3593903,-0.0320282,0.9326171999999998,1.0,-0.3614349,-0.02400208,0.9320831,-29.24522,-1.910126,-16.75725,3.838318,0.4736864,0.5420052,1.0,-0.3568878,-0.04177856,0.933197,33.46667,0.5448761,-19.42503,4.203278,0.5303621999999999,0.4901465999999999,-0.3368874,1.021324,-0.1969522,-0.005463243,0.9953402,0.07241733,0.2936741,-17.83688,34.63
4,-0.3593903,-0.0320282,0.9326171999999998,1.0,-0.3614349,-0.02400208,0.9320831,-29.24522,-1.910126,-16.75725,3.838318,0.4736864,0.5420052,1.0,-0.3568878,-0.04177856,0.933197,33.46667,0.5448761,-19.42503,4.203278,0.5303621999999999,0.4901465999999999,-0.3368874,1.021324,-0.1969522,-0.005463243,0.9953402,0.07241733,0.2936741,-17.83688,34.63
4,-0.3593903,-0.0320282,0.9326171999999998,1.0,-0.3614349,-0.02400208,0.9320831,-29.24522,-1.910126,-16.75725,3.838318,0.4736864,0.5420052,1.0,-0.3568878,-0.04177856,0.933197,33.46667,0.5448761,-19.42503,4.203278,0.5303621999999999,0.4901465999999999,-0.3368874,1.021324,-0.1969522,-0.005463243,0.9953402,0.07241733,0.2936741,-17.83688,34.63
4,-0.4283752,-0.02037048,0.9033661,1.0,-0.4249573,-0.01493835,0.9050751,-29.54431,-1.863968,-16.90881,3.800064,0.4931875,0.541613,1.0,-0.4355011,-0.0317688,0.8996124,33.09312,0.6310576999999999,-19.58159,4.188828,0.5555166,0.4885965,-0.3397154,1.021887,-0.1964675,-0.003489162,0.9959294,0.07342761,0.2936741,-17.83688,34.63
4,-0.4283752,-0.02037048,0.9033661,1.0,-0.4249573,-0.01493835,0.9050751,-29.54431,-1.863968,-16.90881,3.800064,0.4931875,0.541613,1.0,-0.4355011,-0.0317688,0.8996124,33.09312,0.6310576999999999,-19.58159,4.188828,0.5555166,0.4885965,-0.3397154,1.021887,-0.1964675,-0.003489162,0.9959294,0.07342761,0.2936741,-17.83688,34.63
4,-0.4283752,-0.02037048,0.9033661,1.0,-0.4249573,-0.01493835,0.9050751,-29.54431,-1.863968,-16.90881,3.800064,0.4931875,0.541613,1.0,-0.4355011,-0.0317688,0.8996124,33.09312,0.6310576999999999,-19.58159,4.188828,0.5555166,0.4885965,-0.3397154,1.021887,-0.1964675,-0.003489162,0.9959294,0.07342761,0.2936741,-17.83688,34.63
4,-0.5744476,-0.03981018,0.8175659000000001,1.0,-0.5718689,-0.03277588,0.8196716000000001,-30.0871,-1.847412,-17.28456,3.907944,0.5341269000000001,0.5509464,1.0,-0.5851593,-0.07020569,0.8078613,32.34563,0.6233063,-20.04533,4.260483,0.6053254,0.5032151,-0.3427232999999999,1.022533,-0.1962525,-0.00163319,0.9962931,0.07529463,0.2936741,-17.83688,34.63
4,-0.5744476,-0.03981018,0.8175659000000001,1.0,-0.5718689,-0.03277588,0.8196716000000001,-30.0871,-1.847412,-17.28456,3.907944,0.5341269000000001,0.5509464,1.0,-0.5851593,-0.07020569,0.8078613,32.34563,0.6233063,-20.04533,4.260483,0.6053254,0.5032151,-0.3427232999999999,1.022533,-0.1962525,-0.00163319,0.9962931,0.07529463,0.2936741,-17.83688,34.63
4,-0.5744476,-0.03981018,0.8175659000000001,1.0,-0.5718689,-0.03277588,0.8196716000000001,-30.0871,-1.847412,-17.28456,3.907944,0.5341269000000001,0.5509464,1.0,-0.5851593,-0.07020569,0.8078613,32.34563,0.6233063,-20.04533,4.260483,0.6053254,0.5032151,-0.3427232999999999,1.022533,-0.1962525,-0.00163319,0.9962931,0.07529463,0.2936741,-17.83688,34.63
4,-0.5935974,-0.04562378,0.8034515,1.0,-0.5868683000000001,-0.02426147,0.8093109,-30.27303,-1.961853,-17.42892,3.609802,0.5429524,0.5547526999999999,1.0,-0.604187,-0.0814208999999999,0.7926635999999999,32.25357,0.4943694999999999,-20.14351,3.899094,0.6121809,0.5106327,-0.3490032,1.023637,-0.1962703,-0.0002441406,0.9967616,0.07783186,0.2936741,-17.83688,34.63
4,-0.5935974,-0.04562378,0.8034515,1.0,-0.5868683000000001,-0.02426147,0.8093109,-30.27303,-1.961853,-17.42892,3.609802,0.5429524,0.5547526999999999,1.0,-0.604187,-0.0814208999999999,0.7926635999999999,32.25357,0.4943694999999999,-20.14351,3.899094,0.6121809,0.5106327,-0.3490032,1.023637,-0.1962703,-0.0002441406,0.9967616,0.07783186,0.2936741,-17.83688,34.63
4,-0.5935974,-0.04562378,0.8034515,1.0,-0.5868683000000001,-0.02426147,0.8093109,-30.27303,-1.961853,-17.42892,3.609802,0.5429524,0.5547526999999999,1.0,-0.604187,-0.0814208999999999,0.7926635999999999,32.25357,0.4943694999999999,-20.14351,3.899094,0.6121809,0.5106327,-0.3490032,1.023637,-0.1962703,-0.0002441406,0.9967616,0.07783186,0.2936741,-17.83688,34.63
4,-0.5796356,-0.05657959,0.8128966999999999,1.0,-0.570755,-0.03865051,0.8202056999999999,-30.21928,-1.990738,-17.383760000000002,3.659225,0.5383541999999999,0.5571193,1.0,-0.5933838,-0.08538818,0.8003693000000001,32.36278,0.4334259,-20.08797,3.975449,0.606539,0.5124196,-0.3521489,1.02395,-0.196372,0.0003452669999999,0.9968878,0.07810001,0.2936741,20.99709,34.63
4,-0.5796356,-0.05657959,0.8128966999999999,1.0,-0.570755,-0.03865051,0.8202056999999999,-30.21928,-1.990738,-17.383760000000002,3.659225,0.5383541999999999,0.5571193,1.0,-0.5933838,-0.08538818,0.8003693000000001,32.36278,0.4334259,-20.08797,3.975449,0.606539,0.5124196,-0.3521489,1.02395,-0.196372,0.0003452669999999,0.9968878,0.07810001,0.2936741,20.99709,34.63
4,-0.5796356,-0.05657959,0.8128966999999999,1.0,-0.570755,-0.03865051,0.8202056999999999,-30.21928,-1.990738,-17.383760000000002,3.659225,0.5383541999999999,0.5571193,1.0,-0.5933838,-0.08538818,0.8003693000000001,32.36278,0.4334259,-20.08797,3.975449,0.606539,0.5124196,-0.3521489,1.02395,-0.196372,0.0003452669999999,0.9968878,0.07810001,0.2936741,20.99709,34.63
4,-0.5387115,-0.05377197,0.8407593000000001,1.0,-0.5337371999999999,-0.04598999,0.8443908999999999,-30.05495,-2.070068,-17.303729999999998,3.5777589999999995,0.5270285,0.5589486,1.0,-0.5495453,-0.07099915,0.8324280000000001,32.62624,0.2994537,-19.95059,3.759781,0.5905265000000001,0.5116,-0.3552643,1.024241,-0.1965137,-0.0001220703,0.9969359,0.07820002,0.2936741,20.99709,34.63
4,-0.5387115,-0.05377197,0.8407593000000001,1.0,-0.5337371999999999,-0.04598999,0.8443908999999999,-30.05495,-2.070068,-17.303729999999998,3.5777589999999995,0.5270285,0.5589486,1.0,-0.5495453,-0.07099915,0.8324280000000001,32.62624,0.2994537,-19.95059,3.759781,0.5905265000000001,0.5116,-0.3552643,1.024241,-0.1965137,-0.0001220703,0.9969359,0.07820002,0.2936741,20.99709,34.63
4,-0.5387115,-0.05377197,0.8407593000000001,1.0,-0.5337371999999999,-0.04598999,0.8443908999999999,-30.05495,-2.070068,-17.303729999999998,3.5777589999999995,0.5270285,0.5589486,1.0,-0.5495453,-0.07099915,0.8324280000000001,32.62624,0.2994537,-19.95059,3.759781,0.5905265000000001,0.5116,-0.3552643,1.024241,-0.1965137,-0.0001220703,0.9969359,0.07820002,0.2936741,20.99709,34.63
4,-0.5279541,-0.06752014,0.8465729,1.0,-0.5212555,-0.05775452,0.8514252,-29.974290000000003,-2.1066130000000003,-17.249679999999998,3.542206,0.5223960999999999,0.5611651999999999,1.0,-0.5416411999999999,-0.08782959,0.8359985000000001,32.76254,0.3265533,-19.87865,3.766327,0.5845991,0.5126888,-0.3580446,1.02425,-0.1969231,0.0007221777,-0.9969715,-0.07761282,0.2936741,20.99709,34.63
4,-0.5279541,-0.06752014,0.8465729,1.0,-0.5212555,-0.05775452,0.8514252,-29.974290000000003,-2.1066130000000003,-17.249679999999998,3.542206,0.5223960999999999,0.5611651999999999,1.0,-0.5416411999999999,-0.08782959,0.8359985000000001,32.76254,0.3265533,-19.87865,3.766327,0.5845991,0.5126888,-0.3580446,1.02425,-0.1969231,0.0007221777,-0.9969715,-0.07761282,0.2936741,20.99709,34.63
4,-0.5279541,-0.06752014,0.8465729,1.0,-0.5212555,-0.05775452,0.8514252,-29.974290000000003,-2.1066130000000003,-17.249679999999998,3.542206,0.5223960999999999,0.5611651999999999,1.0,-0.5416411999999999,-0.08782959,0.8359985000000001,32.76254,0.3265533,-19.87865,3.766327,0.5845991,0.5126888,-0.3580446,1.02425,-0.1969231,0.0007221777,-0.9969715,-0.07761282,0.2936741,20.99709,34.63
4,-0.5155792,-0.05987549,0.8547363000000001,1.0,-0.5110016,-0.05114746,0.8580475000000001,-29.90459,-2.101135,-17.22334,3.500763,0.518604,0.5593876999999999,1.0,-0.5233154000000001,-0.07487488,0.8488312,32.82962,0.2855225,-19.84491,3.702118,0.5793778,0.5109749,-0.3634560999999999,1.023649,-0.1981256,0.001353825,-0.9972125,-0.07281605,0.2936741,20.99709,34.63
4,-0.5155792,-0.05987549,0.8547363000000001,1.0,-0.5110016,-0.05114746,0.8580475000000001,-29.90459,-2.101135,-17.22334,3.500763,0.518604,0.5593876999999999,1.0,-0.5233154000000001,-0.07487488,0.8488312,32.82962,0.2855225,-19.84491,3.702118,0.5793778,0.5109749,-0.3634560999999999,1.023649,-0.1981256,0.001353825,-0.9972125,-0.07281605,0.2936741,20.99709,34.63
4,-0.5155792,-0.05987549,0.8547363000000001,1.0,-0.5110016,-0.05114746,0.8580475000000001,-29.90459,-2.101135,-17.22334,3.500763,0.518604,0.5593876999999999,1.0,-0.5233154000000001,-0.07487488,0.8488312,32.82962,0.2855225,-19.84491,3.702118,0.5793778,0.5109749,-0.3634560999999999,1.023649,-0.1981256,0.001353825,-0.9972125,-0.07281605,0.2936741,20.99709,34.63
4,-0.6135101,-0.03720093,0.7888031,1.0,-0.6085358000000001,-0.02783203,0.7930298000000001,-30.3309,-1.963303,-17.56602,3.429489,0.5487613,0.5572218000000001,1.0,-0.6235504,-0.05656433,0.7797089,32.10155,0.4848938,-20.26614,3.663208,0.6211867,0.5084041,-0.3662739,1.023205,-0.1986773999999999,0.0008802615,-0.997317,-0.06973965,0.2936741,4.993229,34.63
4,-0.6135101,-0.03720093,0.7888031,1.0,-0.6085358000000001,-0.02783203,0.7930298000000001,-30.3309,-1.963303,-17.56602,3.429489,0.5487613,0.5572218000000001,1.0,-0.6235504,-0.05656433,0.7797089,32.10155,0.4848938,-20.26614,3.663208,0.6211867,0.5084041,-0.3662739,1.023205,-0.1986773999999999,0.0008802615,-0.997317,-0.06973965,0.2936741,4.993229,34.63
4,-0.6135101,-0.03720093,0.7888031,1.0,-0.6085358000000001,-0.02783203,0.7930298000000001,-30.3309,-1.963303,-17.56602,3.429489,0.5487613,0.5572218000000001,1.0,-0.6235504,-0.05656433,0.7797089,32.10155,0.4848938,-20.26614,3.663208,0.6211867,0.5084041,-0.3662739,1.023205,-0.1986773999999999,0.0008802615,-0.997317,-0.06973965,0.2936741,4.993229,34.63
4,-0.641037,0.003311157,0.7674866,1.0,-0.641037,0.003311157,0.7674866,-30.58537,-1.925735,-17.7518,3.2864230000000005,0.5629213000000001,0.5536878000000001,1.0,0.0,0.0,0.0,31.87225,0.5848083000000001,-20.42418,-1.0,0.6345853,0.5084314999999999,-0.369379,1.023076,-0.1991073,0.0005593965,-0.9972494,-0.06795985,0.2936741,4.993229,34.63
4,-0.641037,0.003311157,0.7674866,1.0,-0.641037,0.003311157,0.7674866,-30.58537,-1.925735,-17.7518,3.2864230000000005,0.5629213000000001,0.5536878000000001,1.0,0.0,0.0,0.0,31.87225,0.5848083000000001,-20.42418,-1.0,0.6345853,0.5084314999999999,-0.369379,1.023076,-0.1991073,0.0005593965,-0.9972494,-0.06795985,0.2936741,4.993229,34.63
4,-0.641037,0.003311157,0.7674866,1.0,-0.641037,0.003311157,0.7674866,-30.58537,-1.925735,-17.7518,3.2864230000000005,0.5629213000000001,0.5536878000000001,1.0,0.0,0.0,0.0,31.87225,0.5848083000000001,-20.42418,-1.0,0.6345853,0.5084314999999999,-0.369379,1.023076,-0.1991073,0.0005593965,-0.9972494,-0.06795985,0.2936741,4.993229,34.63
4,-0.6351776,0.001358032,0.7723541,1.0,-0.6351776,0.001358032,0.7723541,-30.60063,-1.899979,-17.73882,3.353699,0.5622494,0.5529024,1.0,0.0,0.0,0.0,31.93787,0.5466460999999999,-20.38818,-1.0,0.6309975,0.5053628,-0.3761511,1.023077,-0.1997565,-0.00187528,-0.9965373,-0.06709649,0.2936741,4.993229,34.63
4,-0.6351776,0.001358032,0.7723541,1.0,-0.6351776,0.001358032,0.7723541,-30.60063,-1.899979,-17.73882,3.353699,0.5622494,0.5529024,1.0,0.0,0.0,0.0,31.93787,0.5466460999999999,-20.38818,-1.0,0.6309975,0.5053628,-0.3761511,1.023077,-0.1997565,-0.00187528,-0.9965373,-0.06709649,0.2936741,4.993229,34.63
4,-0.6351776,0.001358032,0.7723541,1.0,-0.6351776,0.001358032,0.7723541,-30.60063,-1.899979,-17.73882,3.353699,0.5622494,0.5529024,1.0,0.0,0.0,0.0,31.93787,0.5466460999999999,-20.38818,-1.0,0.6309975,0.5053628,-0.3761511,1.023077,-0.1997565,-0.00187528,-0.9965373,-0.06709649,0.2936741,4.993229,34.63
4,-0.6083069000000001,-0.008331299,0.7936401,1.0,-0.6019135,0.003814697,0.7985382,-30.5211,-1.945709,-17.64886,3.370621,0.5538999,0.5520159,1.0,-0.6198273,-0.03089905,0.7841187,32.12045,0.4717101999999999,-20.25818,3.727692,0.6199749,0.5042946,-0.3795904,1.023036,-0.1998717,-0.004105267,-0.995957,-0.06653774,0.2936741,4.993229,34.63
4,-0.6083069000000001,-0.008331299,0.7936401,1.0,-0.6019135,0.003814697,0.7985382,-30.5211,-1.945709,-17.64886,3.370621,0.5538999,0.5520159,1.0,-0.6198273,-0.03089905,0.7841187,32.12045,0.4717101999999999,-20.25818,3.727692,0.6199749,0.5042946,-0.3795904,1.023036,-0.1998717,-0.004105267,-0.995957,-0.06653774,0.2936741,4.993229,34.63
4,-0.6083069000000001,-0.008331299,0.7936401,1.0,-0.6019135,0.003814697,0.7985382,-30.5211,-1.945709,-17.64886,3.370621,0.5538999,0.5520159,1.0,-0.6198273,-0.03089905,0.7841187,32.12045,0.4717101999999999,-20.25818,3.727692,0.6199749,0.5042946,-0.3795904,1.023036,-0.1998717,-0.004105267,-0.995957,-0.06653774,0.2936741,4.993229,34.63
4,-0.6077423000000001,-0.01852417,0.7938995,1.0,-0.6027985,-0.006225586,0.7978516,-30.523770000000003,-2.052063,-17.66183,3.3215480000000004,0.5541236999999999,0.5570943,1.0,-0.615799,-0.03924561,0.7869109999999999,32.14206,0.4004974,-20.2534,3.575211,0.6186847,0.5077617999999999,-0.3833892,1.022845,-0.1997681,-0.0059326669999999,-0.9951579,-0.06598936,0.2962365,-16.88826,34.63
4,-0.6077423000000001,-0.01852417,0.7938995,1.0,-0.6027985,-0.006225586,0.7978516,-30.523770000000003,-2.052063,-17.66183,3.3215480000000004,0.5541236999999999,0.5570943,1.0,-0.615799,-0.03924561,0.7869109999999999,32.14206,0.4004974,-20.2534,3.575211,0.6186847,0.5077617999999999,-0.3833892,1.022845,-0.1997681,-0.0059326669999999,-0.9951579,-0.06598936,0.2962365,-16.88826,34.63
4,-0.6077423000000001,-0.01852417,0.7938995,1.0,-0.6027985,-0.006225586,0.7978516,-30.523770000000003,-2.052063,-17.66183,3.3215480000000004,0.5541236999999999,0.5570943,1.0,-0.615799,-0.03924561,0.7869109999999999,32.14206,0.4004974,-20.2534,3.575211,0.6186847,0.5077617999999999,-0.3833892,1.022845,-0.1997681,-0.0059326669999999,-0.9951579,-0.06598936,0.2962365,-16.88826,34.63
4,-0.6077423000000001,-0.01852417,0.7938995,1.0,-0.6027985,-0.006225586,0.7978516,-30.523770000000003,-2.052063,-17.66183,3.3215480000000004,0.5541236999999999,0.5570943,1.0,-0.615799,-0.03924561,0.7869109999999999,32.14206,0.4004974,-20.2534,3.575211,0.6186847,0.5077617999999999,-0.3871255,1.022507,-0.1994172,-0.008753387,-0.9942685,-0.06399652,0.2962365,-16.88826,34.63
4,-0.6077423000000001,-0.01852417,0.7938995,1.0,-0.6027985,-0.006225586,0.7978516,-30.523770000000003,-2.052063,-17.66183,3.3215480000000004,0.5541236999999999,0.5570943,1.0,-0.615799,-0.03924561,0.7869109999999999,32.14206,0.4004974,-20.2534,3.575211,0.6186847,0.5077617999999999,-0.3871255,1.022507,-0.1994172,-0.008753387,-0.9942685,-0.06399652,0.2962365,-16.88826,34.63
4,-0.6077423000000001,-0.01852417,0.7938995,1.0,-0.6027985,-0.006225586,0.7978516,-30.523770000000003,-2.052063,-17.66183,3.3215480000000004,0.5541236999999999,0.5570943,1.0,-0.615799,-0.03924561,0.7869109999999999,32.14206,0.4004974,-20.2534,3.575211,0.6186847,0.5077617999999999,-0.3871255,1.022507,-0.1994172,-0.008753387,-0.9942685,-0.06399652,0.2962365,-16.88826,34.63
4,-0.6258087,-0.02935791,0.7794036999999999,1.0,-0.6258087,-0.02935791,0.7794036999999999,-30.5433,-2.296707,-17.768620000000002,3.319153,0.5586149,0.5702469,1.0,0.0,0.0,0.0,32.060559999999995,0.1454315,-20.42001,-1.0,0.6277754,0.5256473,-0.3943136,1.021677,-0.198177,-0.0114232,-0.9919892,-0.06119571,0.2962365,-16.88826,34.63
4,-0.6258087,-0.02935791,0.7794036999999999,1.0,-0.6258087,-0.02935791,0.7794036999999999,-30.5433,-2.296707,-17.768620000000002,3.319153,0.5586149,0.5702469,1.0,0.0,0.0,0.0,32.060559999999995,0.1454315,-20.42001,-1.0,0.6277754,0.5256473,-0.3943136,1.021677,-0.198177,-0.0114232,-0.9919892,-0.06119571,0.2962365,-16.88826,34.63
4,-0.6258087,-0.02935791,0.7794036999999999,1.0,-0.6258087,-0.02935791,0.7794036999999999,-30.5433,-2.296707,-17.768620000000002,3.319153,0.5586149,0.5702469,1.0,0.0,0.0,0.0,32.060559999999995,0.1454315,-20.42001,-1.0,0.6277754,0.5256473,-0.3943136,1.021677,-0.198177,-0.0114232,-0.9919892,-0.06119571,0.2962365,-16.88826,34.63
