Second,eye_comb_direction_x,eye_comb_direction_y,eye_comb_direction_z,eye_r_openness,eye_r_direction_x,eye_r_direction_y,eye_r_direction_z,eye_r_origin_x,eye_r_origin_y,eye_r_origin_z,eye_r_pupil_diameter,eye_r_pupil_position_x,eye_r_pupil_position_y,eye_l_openness,eye_l_direction_x,eye_l_direction_y,eye_l_direction_z,eye_l_origin_x,eye_l_origin_y,eye_l_origin_z,eye_l_pupil_diameter,eye_l_pupil_position_x,eye_l_pupil_position_y,head_position_x,head_position_y,head_position_z,head_rotation_roll,head_rotation_pitch,head_rotation_yaw,EDA,BVP,TMP
0,0.0121459999999999,-0.1241302,0.9921875,1.0,0.0003814697,-0.1380005,0.9904175,-32.15437,5.550033999999999,-29.17163,4.995743,0.5112239000000001,0.4257016999999999,1.0,0.03523254,-0.09677124,0.9946747,30.69461,7.313567999999999,-26.91197,4.977417,0.5626081999999999,0.3362927,-0.4466277,1.127911,0.08150664,-0.1107265,0.7393548000000001,0.05905824,1.5336972711864407,-0.012232434297108621,31.338731306081755
0,0.0121459999999999,-0.1241302,0.9921875,1.0,0.0003814697,-0.1380005,0.9904175,-32.15437,5.550033999999999,-29.17163,4.995743,0.5112239000000001,0.4257016999999999,1.0,0.03523254,-0.09677124,0.9946747,30.69461,7.313567999999999,-26.91197,4.977417,0.5626081999999999,0.3362927,-0.4466277,1.127911,0.08150664,-0.1107265,0.7393548000000001,0.05905824,1.5336972711864407,-0.012232434297108621,31.338731306081755
0,0.0121459999999999,-0.1241302,0.9921875,1.0,0.0003814697,-0.1380005,0.9904175,-32.15437,5.550033999999999,-29.17163,4.995743,0.5112239000000001,0.4257016999999999,1.0,0.03523254,-0.09677124,0.9946747,30.69461,7.313567999999999,-26.91197,4.977417,0.5626081999999999,0.3362927,-0.4466277,1.127911,0.08150664,-0.1107265,0.7393548000000001,0.05905824,1.5336972711864407,-0.012232434297108621,31.338731306081755
0,0.0121459999999999,-0.1241302,0.9921875,1.0,0.0003814697,-0.1380005,0.9904175,-32.15437,5.550033999999999,-29.17163,4.995743,0.5112239000000001,0.4257016999999999,1.0,0.03523254,-0.09677124,0.9946747,30.69461,7.313567999999999,-26.91197,4.977417,0.5626081999999999,0.3362927,-0.4466277,1.127911,0.08150664,-0.1107265,0.7393548000000001,0.05905824,1.5336972711864407,-0.012232434297108621,31.338731306081755
0,0.02955627,-0.1019896999999999,0.994339,1.0,-0.0140686,-0.1496277,0.9886322,-32.12086,5.510941000000001,-29.08626,4.906036,0.5124242,0.428287,1.0,0.03913879,-0.09144592,0.9950256,30.681690000000003,7.312775,-26.91391,4.972092,0.5624036,0.3354200999999999,-0.4465324,1.127883,0.08153261,-0.1107898,0.739355,0.05906193,1.5336972711864407,-0.012232434297108621,31.338731306081755
0,0.02955627,-0.1019896999999999,0.994339,1.0,-0.0140686,-0.1496277,0.9886322,-32.12086,5.510941000000001,-29.08626,4.906036,0.5124242,0.428287,1.0,0.03913879,-0.09144592,0.9950256,30.681690000000003,7.312775,-26.91391,4.972092,0.5624036,0.3354200999999999,-0.4465324,1.127883,0.08153261,-0.1107898,0.739355,0.05906193,1.5336972711864407,-0.012232434297108621,31.338731306081755
0,0.02955627,-0.1019896999999999,0.994339,1.0,-0.0140686,-0.1496277,0.9886322,-32.12086,5.510941000000001,-29.08626,4.906036,0.5124242,0.428287,1.0,0.03913879,-0.09144592,0.9950256,30.681690000000003,7.312775,-26.91391,4.972092,0.5624036,0.3354200999999999,-0.4465324,1.127883,0.08153261,-0.1107898,0.739355,0.05906193,1.5336972711864407,-0.012232434297108621,31.338731306081755
0,0.02922058,-0.1032714999999999,0.9942169,1.0,-0.0140686,-0.1408691,0.9899139,-32.11893,5.502945,-29.05847,4.951645,0.5123569,0.4268194,1.0,0.03926086,-0.09448242,0.9947357,30.68028,7.312850999999999,-26.91553,4.9306790000000005,0.5624148,0.3359698,-0.4465204,1.127866,0.08153221,-0.1106135999999999,0.7394363,0.05903547,1.5336972711864407,-0.012232434297108621,31.338731306081755
0,0.02922058,-0.1032714999999999,0.9942169,1.0,-0.0140686,-0.1408691,0.9899139,-32.11893,5.502945,-29.05847,4.951645,0.5123569,0.4268194,1.0,0.03926086,-0.09448242,0.9947357,30.68028,7.312850999999999,-26.91553,4.9306790000000005,0.5624148,0.3359698,-0.4465204,1.127866,0.08153221,-0.1106135999999999,0.7394363,0.05903547,1.5336972711864407,-0.012232434297108621,31.338731306081755
0,0.02922058,-0.1032714999999999,0.9942169,1.0,-0.0140686,-0.1408691,0.9899139,-32.11893,5.502945,-29.05847,4.951645,0.5123569,0.4268194,1.0,0.03926086,-0.09448242,0.9947357,30.68028,7.312850999999999,-26.91553,4.9306790000000005,0.5624148,0.3359698,-0.4465204,1.127866,0.08153221,-0.1106135999999999,0.7394363,0.05903547,1.5336972711864407,-0.012232434297108621,31.338731306081755
1,0.02575684,-0.09977722,0.9946747,1.0,-0.01449585,-0.1338501,0.9908905,-32.11722,5.485504,-29.00014,5.005539,0.5123569,0.4257135999999999,1.0,0.03924561,-0.08830261,0.9953156,30.67714,7.314453,-26.91986,4.929977,0.5625373,0.3348704,-0.446479,1.127826,0.08147253,-0.1105148,0.7394789,0.05884435,1.5336972711864407,-0.012232434297108621,31.338731306081755
1,0.02575684,-0.09977722,0.9946747,1.0,-0.01449585,-0.1338501,0.9908905,-32.11722,5.485504,-29.00014,5.005539,0.5123569,0.4257135999999999,1.0,0.03924561,-0.08830261,0.9953156,30.67714,7.314453,-26.91986,4.929977,0.5625373,0.3348704,-0.446479,1.127826,0.08147253,-0.1105148,0.7394789,0.05884435,1.5336972711864407,-0.012232434297108621,31.338731306081755
1,0.02575684,-0.09977722,0.9946747,1.0,-0.01449585,-0.1338501,0.9908905,-32.11722,5.485504,-29.00014,5.005539,0.5123569,0.4257135999999999,1.0,0.03924561,-0.08830261,0.9953156,30.67714,7.314453,-26.91986,4.929977,0.5625373,0.3348704,-0.446479,1.127826,0.08147253,-0.1105148,0.7394789,0.05884435,1.5336972711864407,-0.012232434297108621,31.338731306081755
1,0.02575684,-0.09977722,0.9946747,1.0,-0.01449585,-0.1338501,0.9908905,-32.11722,5.485504,-29.00014,5.005539,0.5123569,0.4257135999999999,1.0,0.03924561,-0.08830261,0.9953156,30.67714,7.314453,-26.91986,4.929977,0.5625373,0.3348704,-0.4464890999999999,1.127719,0.08138868,-0.1105546,0.739538,0.05863014,1.5336972711864407,-0.012232434297108621,31.338731306081755
1,0.02575684,-0.09977722,0.9946747,1.0,-0.01449585,-0.1338501,0.9908905,-32.11722,5.485504,-29.00014,5.005539,0.5123569,0.4257135999999999,1.0,0.03924561,-0.08830261,0.9953156,30.67714,7.314453,-26.91986,4.929977,0.5625373,0.3348704,-0.4464890999999999,1.127719,0.08138868,-0.1105546,0.739538,0.05863014,1.5336972711864407,-0.012232434297108621,31.338731306081755
1,0.02575684,-0.09977722,0.9946747,1.0,-0.01449585,-0.1338501,0.9908905,-32.11722,5.485504,-29.00014,5.005539,0.5123569,0.4257135999999999,1.0,0.03924561,-0.08830261,0.9953156,30.67714,7.314453,-26.91986,4.929977,0.5625373,0.3348704,-0.4464890999999999,1.127719,0.08138868,-0.1105546,0.739538,0.05863014,1.5336972711864407,-0.012232434297108621,31.338731306081755
1,0.02212524,-0.1029663,0.9944305,1.0,-0.0149231,-0.1347961,0.9907532,-32.11745,5.476074,-28.969590000000004,4.999695,0.5124242,0.4259261,1.0,0.03912354,-0.08825684,0.9953156,30.676240000000004,7.317352,-26.92166,4.943161,0.5625939999999999,0.3347711,-0.4464602,1.127626,0.08135873,-0.1104395,0.7396063,0.05856287,1.5336972711864407,-0.012232434297108621,31.338731306081755
1,0.02212524,-0.1029663,0.9944305,1.0,-0.0149231,-0.1347961,0.9907532,-32.11745,5.476074,-28.969590000000004,4.999695,0.5124242,0.4259261,1.0,0.03912354,-0.08825684,0.9953156,30.676240000000004,7.317352,-26.92166,4.943161,0.5625939999999999,0.3347711,-0.4464602,1.127626,0.08135873,-0.1104395,0.7396063,0.05856287,1.5336972711864407,-0.012232434297108621,31.338731306081755
1,0.02212524,-0.1029663,0.9944305,1.0,-0.0149231,-0.1347961,0.9907532,-32.11745,5.476074,-28.969590000000004,4.999695,0.5124242,0.4259261,1.0,0.03912354,-0.08825684,0.9953156,30.676240000000004,7.317352,-26.92166,4.943161,0.5625939999999999,0.3347711,-0.4464602,1.127626,0.08135873,-0.1104395,0.7396063,0.05856287,1.5336972711864407,-0.012232434297108621,31.338731306081755
1,0.0308074999999999,-0.09121704,0.9953461,1.0,-0.01525879,-0.119873,0.9926605,-32.11452,5.411423,-28.745790000000003,5.007706,0.5123161,0.4236439,1.0,0.03991699,-0.08552551,0.9955292,30.67503,7.32222,-26.972690000000004,4.927719000000001,0.5625373,0.3345359,-0.4464866,1.127666,0.08138233,-0.1103396,0.7396746999999999,0.05841007,1.5336972711864407,-0.012232434297108621,31.338731306081755
1,0.0308074999999999,-0.09121704,0.9953461,1.0,-0.01525879,-0.119873,0.9926605,-32.11452,5.411423,-28.745790000000003,5.007706,0.5123161,0.4236439,1.0,0.03991699,-0.08552551,0.9955292,30.67503,7.32222,-26.972690000000004,4.927719000000001,0.5625373,0.3345359,-0.4464866,1.127666,0.08138233,-0.1103396,0.7396746999999999,0.05841007,1.5336972711864407,-0.012232434297108621,31.338731306081755
1,0.0308074999999999,-0.09121704,0.9953461,1.0,-0.01525879,-0.119873,0.9926605,-32.11452,5.411423,-28.745790000000003,5.007706,0.5123161,0.4236439,1.0,0.03991699,-0.08552551,0.9955292,30.67503,7.32222,-26.972690000000004,4.927719000000001,0.5625373,0.3345359,-0.4464866,1.127666,0.08138233,-0.1103396,0.7396746999999999,0.05841007,1.5336972711864407,-0.012232434297108621,31.338731306081755
1,0.0308074999999999,-0.09121704,0.9953461,1.0,-0.01525879,-0.119873,0.9926605,-32.11452,5.411423,-28.745790000000003,5.007706,0.5123161,0.4236439,1.0,0.03991699,-0.08552551,0.9955292,30.67503,7.32222,-26.972690000000004,4.927719000000001,0.5625373,0.3345359,-0.4463899,1.127601,0.08143784,-0.1102583999999999,0.7396924,0.05830615,1.5336972711864407,-8.118835,31.338731306081755
1,0.0308074999999999,-0.09121704,0.9953461,1.0,-0.01525879,-0.119873,0.9926605,-32.11452,5.411423,-28.745790000000003,5.007706,0.5123161,0.4236439,1.0,0.03991699,-0.08552551,0.9955292,30.67503,7.32222,-26.972690000000004,4.927719000000001,0.5625373,0.3345359,-0.4463899,1.127601,0.08143784,-0.1102583999999999,0.7396924,0.05830615,1.5336972711864407,-8.118835,31.338731306081755
1,0.0308074999999999,-0.09121704,0.9953461,1.0,-0.01525879,-0.119873,0.9926605,-32.11452,5.411423,-28.745790000000003,5.007706,0.5123161,0.4236439,1.0,0.03991699,-0.08552551,0.9955292,30.67503,7.32222,-26.972690000000004,4.927719000000001,0.5625373,0.3345359,-0.4463899,1.127601,0.08143784,-0.1102583999999999,0.7396924,0.05830615,1.5336972711864407,-8.118835,31.338731306081755
1,0.03552246,-0.08366394,0.9958496,1.0,-0.01078796,-0.1429443,0.9896698,-32.11485,5.432404,-28.81369,4.764175,0.5115948,0.4274194,1.0,0.04150391,-0.07595825,0.9962463,30.66541,7.329117,-27.027590000000004,4.917603,0.5626507,0.3330534,-0.446285,1.127584,0.08142817,-0.1100351,0.7397113000000001,0.05816497,1.5336972711864407,-8.118835,31.338731306081755
1,0.03552246,-0.08366394,0.9958496,1.0,-0.01078796,-0.1429443,0.9896698,-32.11485,5.432404,-28.81369,4.764175,0.5115948,0.4274194,1.0,0.04150391,-0.07595825,0.9962463,30.66541,7.329117,-27.027590000000004,4.917603,0.5626507,0.3330534,-0.446285,1.127584,0.08142817,-0.1100351,0.7397113000000001,0.05816497,1.5336972711864407,-8.118835,31.338731306081755
1,0.03552246,-0.08366394,0.9958496,1.0,-0.01078796,-0.1429443,0.9896698,-32.11485,5.432404,-28.81369,4.764175,0.5115948,0.4274194,1.0,0.04150391,-0.07595825,0.9962463,30.66541,7.329117,-27.027590000000004,4.917603,0.5626507,0.3330534,-0.446285,1.127584,0.08142817,-0.1100351,0.7397113000000001,0.05816497,1.5336972711864407,-8.118835,31.338731306081755
1,0.02062988,-0.09205627,0.9955292,1.0,-0.006591797,-0.1226958999999999,0.9924164,-32.11485,5.420624,-28.71944,4.676880000000001,0.5108827,0.4235161,1.0,0.03778076,-0.07264709,0.9966278,30.66035,7.344833,-27.09212,4.77829,0.5634515,0.3324409,-0.4461926999999999,1.127591,0.08146995,-0.1098928999999999,0.7396609000000001,0.05817246,1.5336972711864407,-8.118835,31.338731306081755
1,0.02062988,-0.09205627,0.9955292,1.0,-0.006591797,-0.1226958999999999,0.9924164,-32.11485,5.420624,-28.71944,4.676880000000001,0.5108827,0.4235161,1.0,0.03778076,-0.07264709,0.9966278,30.66035,7.344833,-27.09212,4.77829,0.5634515,0.3324409,-0.4461926999999999,1.127591,0.08146995,-0.1098928999999999,0.7396609000000001,0.05817246,1.5336972711864407,-8.118835,31.338731306081755
1,0.02062988,-0.09205627,0.9955292,1.0,-0.006591797,-0.1226958999999999,0.9924164,-32.11485,5.420624,-28.71944,4.676880000000001,0.5108827,0.4235161,1.0,0.03778076,-0.07264709,0.9966278,30.66035,7.344833,-27.09212,4.77829,0.5634515,0.3324409,-0.4461926999999999,1.127591,0.08146995,-0.1098928999999999,0.7396609000000001,0.05817246,1.5336972711864407,-8.118835,31.338731306081755
1,0.009170532,-0.1058196999999999,0.994339,1.0,-0.00617981,-0.1195831,0.9927979,-32.117340000000006,5.433075,-28.74506,4.625183,0.5109097,0.4227753999999999,1.0,0.02702332,-0.08976746,0.9955902,30.6604,7.370864999999999,-27.14944,4.39682,0.5651664000000001,0.3350048,-0.4461407999999999,1.127491,0.08165811,-0.1099183,0.7395031999999999,0.05824607,1.5336972711864407,-8.118835,31.338731306081755
1,0.009170532,-0.1058196999999999,0.994339,1.0,-0.00617981,-0.1195831,0.9927979,-32.117340000000006,5.433075,-28.74506,4.625183,0.5109097,0.4227753999999999,1.0,0.02702332,-0.08976746,0.9955902,30.6604,7.370864999999999,-27.14944,4.39682,0.5651664000000001,0.3350048,-0.4461407999999999,1.127491,0.08165811,-0.1099183,0.7395031999999999,0.05824607,1.5336972711864407,-8.118835,31.338731306081755
1,0.009170532,-0.1058196999999999,0.994339,1.0,-0.00617981,-0.1195831,0.9927979,-32.117340000000006,5.433075,-28.74506,4.625183,0.5109097,0.4227753999999999,1.0,0.02702332,-0.08976746,0.9955902,30.6604,7.370864999999999,-27.14944,4.39682,0.5651664000000001,0.3350048,-0.4461407999999999,1.127491,0.08165811,-0.1099183,0.7395031999999999,0.05824607,1.5336972711864407,-8.118835,31.338731306081755
1,0.00843811,-0.1077118,0.9941406,1.0,-0.00541687,-0.120224,0.9927216,-32.1178,5.438766,-28.75883,4.573395,0.5108001,0.4228081,1.0,0.02653503,-0.09133911,0.9954529,30.6604,7.388717999999999,-27.19228,4.356445,0.5652723000000001,0.3350048,-0.4461813,1.127529,0.08163927,-0.1099239,0.7393460999999999,0.05826587,1.5336972711864407,-8.118835,31.338731306081755
1,0.00843811,-0.1077118,0.9941406,1.0,-0.00541687,-0.120224,0.9927216,-32.1178,5.438766,-28.75883,4.573395,0.5108001,0.4228081,1.0,0.02653503,-0.09133911,0.9954529,30.6604,7.388717999999999,-27.19228,4.356445,0.5652723000000001,0.3350048,-0.4461813,1.127529,0.08163927,-0.1099239,0.7393460999999999,0.05826587,1.5336972711864407,-8.118835,31.338731306081755
1,0.00843811,-0.1077118,0.9941406,1.0,-0.00541687,-0.120224,0.9927216,-32.1178,5.438766,-28.75883,4.573395,0.5108001,0.4228081,1.0,0.02653503,-0.09133911,0.9954529,30.6604,7.388717999999999,-27.19228,4.356445,0.5652723000000001,0.3350048,-0.4461813,1.127529,0.08163927,-0.1099239,0.7393460999999999,0.05826587,1.5336972711864407,-8.118835,31.338731306081755
1,0.00843811,-0.1077118,0.9941406,1.0,-0.00541687,-0.120224,0.9927216,-32.1178,5.438766,-28.75883,4.573395,0.5108001,0.4228081,1.0,0.02653503,-0.09133911,0.9954529,30.6604,7.388717999999999,-27.19228,4.356445,0.5652723000000001,0.3350048,-0.4461108,1.127574,0.08159204,-0.1096876,0.739341,0.05830423,1.5336972711864407,-8.118835,31.338731306081755
1,0.00843811,-0.1077118,0.9941406,1.0,-0.00541687,-0.120224,0.9927216,-32.1178,5.438766,-28.75883,4.573395,0.5108001,0.4228081,1.0,0.02653503,-0.09133911,0.9954529,30.6604,7.388717999999999,-27.19228,4.356445,0.5652723000000001,0.3350048,-0.4461108,1.127574,0.08159204,-0.1096876,0.739341,0.05830423,1.5336972711864407,-8.118835,31.338731306081755
1,0.00843811,-0.1077118,0.9941406,1.0,-0.00541687,-0.120224,0.9927216,-32.1178,5.438766,-28.75883,4.573395,0.5108001,0.4228081,1.0,0.02653503,-0.09133911,0.9954529,30.6604,7.388717999999999,-27.19228,4.356445,0.5652723000000001,0.3350048,-0.4461108,1.127574,0.08159204,-0.1096876,0.739341,0.05830423,1.5336972711864407,-8.118835,31.338731306081755
1,0.00843811,-0.1077118,0.9941406,1.0,-0.00541687,-0.120224,0.9927216,-32.1178,5.438766,-28.75883,4.573395,0.5108001,0.4228081,1.0,0.02653503,-0.09133911,0.9954529,30.6604,7.388717999999999,-27.19228,4.356445,0.5652723000000001,0.3350048,-0.4460579,1.127529,0.08155254,-0.1094473999999999,0.7392466999999999,0.05829651,1.5336972711864407,5.837097,31.338731306081755
1,0.00843811,-0.1077118,0.9941406,1.0,-0.00541687,-0.120224,0.9927216,-32.1178,5.438766,-28.75883,4.573395,0.5108001,0.4228081,1.0,0.02653503,-0.09133911,0.9954529,30.6604,7.388717999999999,-27.19228,4.356445,0.5652723000000001,0.3350048,-0.4460579,1.127529,0.08155254,-0.1094473999999999,0.7392466999999999,0.05829651,1.5336972711864407,5.837097,31.338731306081755
1,0.00843811,-0.1077118,0.9941406,1.0,-0.00541687,-0.120224,0.9927216,-32.1178,5.438766,-28.75883,4.573395,0.5108001,0.4228081,1.0,0.02653503,-0.09133911,0.9954529,30.6604,7.388717999999999,-27.19228,4.356445,0.5652723000000001,0.3350048,-0.4460579,1.127529,0.08155254,-0.1094473999999999,0.7392466999999999,0.05829651,1.5336972711864407,5.837097,31.338731306081755
1,0.0081024169999999,-0.1060943999999999,0.9943085,1.0,-0.00352478,-0.1168976,0.9931335,-32.118,5.44075,-28.76428,4.52446,0.5104954,0.4222044,1.0,0.02371216,-0.09156799,0.9955139,30.66034,7.397628999999999,-27.22531,4.246628,0.5657458000000001,0.3350048,-0.4459584,1.1275879999999998,0.08155228,-0.1096206,0.7392548000000001,0.05806803,1.5336972711864407,5.837097,31.338731306081755
1,0.0081024169999999,-0.1060943999999999,0.9943085,1.0,-0.00352478,-0.1168976,0.9931335,-32.118,5.44075,-28.76428,4.52446,0.5104954,0.4222044,1.0,0.02371216,-0.09156799,0.9955139,30.66034,7.397628999999999,-27.22531,4.246628,0.5657458000000001,0.3350048,-0.4459584,1.1275879999999998,0.08155228,-0.1096206,0.7392548000000001,0.05806803,1.5336972711864407,5.837097,31.338731306081755
1,0.0081024169999999,-0.1060943999999999,0.9943085,1.0,-0.00352478,-0.1168976,0.9931335,-32.118,5.44075,-28.76428,4.52446,0.5104954,0.4222044,1.0,0.02371216,-0.09156799,0.9955139,30.66034,7.397628999999999,-27.22531,4.246628,0.5657458000000001,0.3350048,-0.4459584,1.1275879999999998,0.08155228,-0.1096206,0.7392548000000001,0.05806803,1.5336972711864407,5.837097,31.338731306081755
1,0.0081024169999999,-0.1060943999999999,0.9943085,1.0,-0.00352478,-0.1168976,0.9931335,-32.118,5.44075,-28.76428,4.52446,0.5104954,0.4222044,1.0,0.02371216,-0.09156799,0.9955139,30.66034,7.397628999999999,-27.22531,4.246628,0.5657458000000001,0.3350048,-0.4459183,1.127565,0.08151628,-0.1095448,0.7391949999999999,0.05789393,1.5336972711864407,5.837097,31.338731306081755
1,0.0081024169999999,-0.1060943999999999,0.9943085,1.0,-0.00352478,-0.1168976,0.9931335,-32.118,5.44075,-28.76428,4.52446,0.5104954,0.4222044,1.0,0.02371216,-0.09156799,0.9955139,30.66034,7.397628999999999,-27.22531,4.246628,0.5657458000000001,0.3350048,-0.4459183,1.127565,0.08151628,-0.1095448,0.7391949999999999,0.05789393,1.5336972711864407,5.837097,31.338731306081755
1,0.0081024169999999,-0.1060943999999999,0.9943085,1.0,-0.00352478,-0.1168976,0.9931335,-32.118,5.44075,-28.76428,4.52446,0.5104954,0.4222044,1.0,0.02371216,-0.09156799,0.9955139,30.66034,7.397628999999999,-27.22531,4.246628,0.5657458000000001,0.3350048,-0.4459183,1.127565,0.08151628,-0.1095448,0.7391949999999999,0.05789393,1.5336972711864407,5.837097,31.338731306081755
1,0.1074982,-0.2169646999999999,0.9702301,0.9521399,0.09417725,-0.2409058,0.9659576,-31.62265,5.015518,-29.02312,4.022551999999999,0.4774772,0.4603354,0.8754871999999999,0.1088715,-0.2144775,0.9706268,31.04091,6.911072,-27.25272,3.803268,0.5381028,0.3739225999999999,-0.4458822,1.127359,0.0816312,-0.1092061,0.73917,0.05787823,1.5336972711864407,5.837097,31.338731306081755
1,0.1074982,-0.2169646999999999,0.9702301,0.9521399,0.09417725,-0.2409058,0.9659576,-31.62265,5.015518,-29.02312,4.022551999999999,0.4774772,0.4603354,0.8754871999999999,0.1088715,-0.2144775,0.9706268,31.04091,6.911072,-27.25272,3.803268,0.5381028,0.3739225999999999,-0.4458822,1.127359,0.0816312,-0.1092061,0.73917,0.05787823,1.5336972711864407,5.837097,31.338731306081755
1,0.1074982,-0.2169646999999999,0.9702301,0.9521399,0.09417725,-0.2409058,0.9659576,-31.62265,5.015518,-29.02312,4.022551999999999,0.4774772,0.4603354,0.8754871999999999,0.1088715,-0.2144775,0.9706268,31.04091,6.911072,-27.25272,3.803268,0.5381028,0.3739225999999999,-0.4458822,1.127359,0.0816312,-0.1092061,0.73917,0.05787823,1.5336972711864407,5.837097,31.338731306081755
1,0.1101226999999999,-0.2299042,0.9669495,0.9051142,0.09866333,-0.2413635,0.9653931,-31.62451,5.012375,-29.02502,3.967072,0.4767774999999999,0.460554,0.8382735,0.1122894,-0.2277222,0.9672241,31.06026,6.896453999999999,-27.25085,3.629349,0.5367998,0.3768284,-0.4458822,1.127359,0.0816312,-0.1092061,0.73917,0.05787823,1.651972,5.837097,31.338731306081755
1,0.1101226999999999,-0.2299042,0.9669495,0.9051142,0.09866333,-0.2413635,0.9653931,-31.62451,5.012375,-29.02502,3.967072,0.4767774999999999,0.460554,0.8382735,0.1122894,-0.2277222,0.9672241,31.06026,6.896453999999999,-27.25085,3.629349,0.5367998,0.3768284,-0.4458822,1.127359,0.0816312,-0.1092061,0.73917,0.05787823,1.651972,5.837097,31.338731306081755
1,0.1101226999999999,-0.2299042,0.9669495,0.9051142,0.09866333,-0.2413635,0.9653931,-31.62451,5.012375,-29.02502,3.967072,0.4767774999999999,0.460554,0.8382735,0.1122894,-0.2277222,0.9672241,31.06026,6.896453999999999,-27.25085,3.629349,0.5367998,0.3768284,-0.4458822,1.127359,0.0816312,-0.1092061,0.73917,0.05787823,1.651972,5.837097,31.338731306081755
1,0.1066894999999999,-0.2334137,0.9664917,0.9326139,0.09707642,-0.2400665,0.9658813,-31.625490000000003,5.011673,-29.02632,3.863449,0.4770489,0.4603594,0.8563878,0.1156006,-0.2272034,0.9669495,31.06622,6.896286,-27.2516,3.625412,0.5360363,0.376765,-0.445927,1.127281,0.08180958,-0.1092687,0.7391196,0.05777236,1.651972,5.837097,31.338731306081755
1,0.1066894999999999,-0.2334137,0.9664917,0.9326139,0.09707642,-0.2400665,0.9658813,-31.625490000000003,5.011673,-29.02632,3.863449,0.4770489,0.4603594,0.8563878,0.1156006,-0.2272034,0.9669495,31.06622,6.896286,-27.2516,3.625412,0.5360363,0.376765,-0.445927,1.127281,0.08180958,-0.1092687,0.7391196,0.05777236,1.651972,5.837097,31.338731306081755
1,0.1066894999999999,-0.2334137,0.9664917,0.9326139,0.09707642,-0.2400665,0.9658813,-31.625490000000003,5.011673,-29.02632,3.863449,0.4770489,0.4603594,0.8563878,0.1156006,-0.2272034,0.9669495,31.06622,6.896286,-27.2516,3.625412,0.5360363,0.376765,-0.445927,1.127281,0.08180958,-0.1092687,0.7391196,0.05777236,1.651972,5.837097,31.338731306081755
1,0.1102752999999999,-0.2388916,0.9647522,0.9129852,0.09619141,-0.240509,0.9658661,-31.62708,5.015396,-29.02875,3.845444,0.4772459,0.4603354,0.8035268,0.1224213,-0.2374572999999999,0.9636383,31.09186,6.943924000000001,-27.25525,3.475922,0.5339668000000001,0.3770821,-0.4460151,1.127314,0.08172521,-0.1093693999999999,0.738962,0.05786606,1.651972,6.097496,31.338731306081755
1,0.1102752999999999,-0.2388916,0.9647522,0.9129852,0.09619141,-0.240509,0.9658661,-31.62708,5.015396,-29.02875,3.845444,0.4772459,0.4603354,0.8035268,0.1224213,-0.2374572999999999,0.9636383,31.09186,6.943924000000001,-27.25525,3.475922,0.5339668000000001,0.3770821,-0.4460151,1.127314,0.08172521,-0.1093693999999999,0.738962,0.05786606,1.651972,6.097496,31.338731306081755
1,0.1102752999999999,-0.2388916,0.9647522,0.9129852,0.09619141,-0.240509,0.9658661,-31.62708,5.015396,-29.02875,3.845444,0.4772459,0.4603354,0.8035268,0.1224213,-0.2374572999999999,0.9636383,31.09186,6.943924000000001,-27.25525,3.475922,0.5339668000000001,0.3770821,-0.4460151,1.127314,0.08172521,-0.1093693999999999,0.738962,0.05786606,1.651972,6.097496,31.338731306081755
1,0.1082306,-0.2402802,0.9646454,0.8819655000000001,0.1027831999999999,-0.2503662,0.962677,-31.66626,5.055878,-29.02885,3.740036,0.4774458,0.4607741,0.7904958000000001,0.1137238,-0.2300567999999999,0.9664917,31.07921,6.944275,-27.24866,3.471359,0.5358611,0.3756479,-0.4458787,1.127292,0.08163038,-0.1091895,0.7388229000000001,0.05808806,1.651972,6.097496,31.338731306081755
1,0.1082306,-0.2402802,0.9646454,0.8819655000000001,0.1027831999999999,-0.2503662,0.962677,-31.66626,5.055878,-29.02885,3.740036,0.4774458,0.4607741,0.7904958000000001,0.1137238,-0.2300567999999999,0.9664917,31.07921,6.944275,-27.24866,3.471359,0.5358611,0.3756479,-0.4458787,1.127292,0.08163038,-0.1091895,0.7388229000000001,0.05808806,1.651972,6.097496,31.338731306081755
1,0.1082306,-0.2402802,0.9646454,0.8819655000000001,0.1027831999999999,-0.2503662,0.962677,-31.66626,5.055878,-29.02885,3.740036,0.4774458,0.4607741,0.7904958000000001,0.1137238,-0.2300567999999999,0.9664917,31.07921,6.944275,-27.24866,3.471359,0.5358611,0.3756479,-0.4458787,1.127292,0.08163038,-0.1091895,0.7388229000000001,0.05808806,1.651972,6.097496,31.338731306081755
1,-1.0,-1.0,-1.0,0.0,0.0,0.0,0.0,-31.6702,4.819839,-29.0787,-1.0,0.5591103000000001,0.6270151999999999,0.0,0.0,0.0,0.0,30.99083,6.526917,-27.35573,-1.0,0.4625729,0.5497741,-0.4457039,1.127266,0.08188015,-0.1085894999999999,0.7383405,0.05755222,1.651972,6.097496,31.338731306081755
1,-1.0,-1.0,-1.0,0.0,0.0,0.0,0.0,-31.6702,4.819839,-29.0787,-1.0,0.5591103000000001,0.6270151999999999,0.0,0.0,0.0,0.0,30.99083,6.526917,-27.35573,-1.0,0.4625729,0.5497741,-0.4457039,1.127266,0.08188015,-0.1085894999999999,0.7383405,0.05755222,1.651972,6.097496,31.338731306081755
1,-1.0,-1.0,-1.0,0.0,0.0,0.0,0.0,-31.6702,4.819839,-29.0787,-1.0,0.5591103000000001,0.6270151999999999,0.0,0.0,0.0,0.0,30.99083,6.526917,-27.35573,-1.0,0.4625729,0.5497741,-0.4457039,1.127266,0.08188015,-0.1085894999999999,0.7383405,0.05755222,1.651972,6.097496,31.338731306081755
1,-1.0,-1.0,-1.0,0.0,0.0,0.0,0.0,-31.6702,4.819839,-29.0787,-1.0,0.6076929,0.6398938,0.0,0.0,0.0,0.0,30.99083,6.526917,-27.35573,-1.0,0.4195054,0.5821771,-0.4456068,1.127236,0.0819073,-0.1086036,0.7379885,0.05726827,1.651972,3.372597,31.338731306081755
1,-1.0,-1.0,-1.0,0.0,0.0,0.0,0.0,-31.6702,4.819839,-29.0787,-1.0,0.6076929,0.6398938,0.0,0.0,0.0,0.0,30.99083,6.526917,-27.35573,-1.0,0.4195054,0.5821771,-0.4456068,1.127236,0.0819073,-0.1086036,0.7379885,0.05726827,1.651972,3.372597,31.338731306081755
1,-1.0,-1.0,-1.0,0.0,0.0,0.0,0.0,-31.6702,4.819839,-29.0787,-1.0,0.6076929,0.6398938,0.0,0.0,0.0,0.0,30.99083,6.526917,-27.35573,-1.0,0.4195054,0.5821771,-0.4456068,1.127236,0.0819073,-0.1086036,0.7379885,0.05726827,1.651972,3.372597,31.338731306081755
1,-1.0,-1.0,-1.0,0.0,0.0,0.0,0.0,-31.6702,4.819839,-29.0787,-1.0,0.6648121,0.6549388,0.0,0.0,0.0,0.0,30.99083,6.526917,-27.35573,-1.0,0.474352,0.4991527,-0.4454255999999999,1.127138,0.08193943,-0.1083423,0.737895,0.05694498,1.651972,3.372597,31.338731306081755
1,-1.0,-1.0,-1.0,0.0,0.0,0.0,0.0,-31.6702,4.819839,-29.0787,-1.0,0.6648121,0.6549388,0.0,0.0,0.0,0.0,30.99083,6.526917,-27.35573,-1.0,0.474352,0.4991527,-0.4454255999999999,1.127138,0.08193943,-0.1083423,0.737895,0.05694498,1.651972,3.372597,31.338731306081755
1,-1.0,-1.0,-1.0,0.0,0.0,0.0,0.0,-31.6702,4.819839,-29.0787,-1.0,0.6648121,0.6549388,0.0,0.0,0.0,0.0,30.99083,6.526917,-27.35573,-1.0,0.474352,0.4991527,-0.4454255999999999,1.127138,0.08193943,-0.1083423,0.737895,0.05694498,1.651972,3.372597,31.338731306081755
1,-1.0,-1.0,-1.0,0.0,0.0,0.0,0.0,-33.44675,3.918793,-29.61543,-1.0,0.5957355,0.5400041999999999,0.0,0.0,0.0,0.0,30.99083,6.526917,-27.35573,-1.0,0.4954845999999999,0.4803737,-0.4453273,1.127022,0.0819478,-0.107989,0.7377666,0.05638299,1.651972,3.372597,31.338731306081755
1,-1.0,-1.0,-1.0,0.0,0.0,0.0,0.0,-33.44675,3.918793,-29.61543,-1.0,0.5957355,0.5400041999999999,0.0,0.0,0.0,0.0,30.99083,6.526917,-27.35573,-1.0,0.4954845999999999,0.4803737,-0.4453273,1.127022,0.0819478,-0.107989,0.7377666,0.05638299,1.651972,3.372597,31.338731306081755
1,-1.0,-1.0,-1.0,0.0,0.0,0.0,0.0,-33.44675,3.918793,-29.61543,-1.0,0.5957355,0.5400041999999999,0.0,0.0,0.0,0.0,30.99083,6.526917,-27.35573,-1.0,0.4954845999999999,0.4803737,-0.4453273,1.127022,0.0819478,-0.107989,0.7377666,0.05638299,1.651972,3.372597,31.338731306081755
1,-1.0,-1.0,-1.0,0.04297967,0.0,0.0,0.0,-32.02168,5.479476999999999,-28.926790000000004,-1.0,0.5212566,0.4747814,0.0,0.0,0.0,0.0,31.09718,6.744492,-27.29782,-1.0,0.5354181,0.3850999,-0.4450709,1.126701,0.08189462,-0.1072029,0.737712,0.0548716999999999,1.651972,3.372597,31.338731306081755
1,-1.0,-1.0,-1.0,0.04297967,0.0,0.0,0.0,-32.02168,5.479476999999999,-28.926790000000004,-1.0,0.5212566,0.4747814,0.0,0.0,0.0,0.0,31.09718,6.744492,-27.29782,-1.0,0.5354181,0.3850999,-0.4450709,1.126701,0.08189462,-0.1072029,0.737712,0.0548716999999999,1.651972,3.372597,31.338731306081755
1,-1.0,-1.0,-1.0,0.04297967,0.0,0.0,0.0,-32.02168,5.479476999999999,-28.926790000000004,-1.0,0.5212566,0.4747814,0.0,0.0,0.0,0.0,31.09718,6.744492,-27.29782,-1.0,0.5354181,0.3850999,-0.4450709,1.126701,0.08189462,-0.1072029,0.737712,0.0548716999999999,1.651972,3.372597,31.338731306081755
1,-1.0,-1.0,-1.0,0.2584799,0.0,0.0,0.0,-32.041920000000005,5.447418,-28.91194,-1.0,0.5064900999999999,0.4619247,0.0,0.0,0.0,0.0,31.68848,6.761536,-27.39684,-1.0,0.4972534,0.385659,-0.4449055,1.126603,0.08187181,-0.1067228,0.7376478,0.05424417,1.651972,3.372597,31.338731306081755
1,-1.0,-1.0,-1.0,0.2584799,0.0,0.0,0.0,-32.041920000000005,5.447418,-28.91194,-1.0,0.5064900999999999,0.4619247,0.0,0.0,0.0,0.0,31.68848,6.761536,-27.39684,-1.0,0.4972534,0.385659,-0.4449055,1.126603,0.08187181,-0.1067228,0.7376478,0.05424417,1.651972,3.372597,31.338731306081755
1,-1.0,-1.0,-1.0,0.2584799,0.0,0.0,0.0,-32.041920000000005,5.447418,-28.91194,-1.0,0.5064900999999999,0.4619247,0.0,0.0,0.0,0.0,31.68848,6.761536,-27.39684,-1.0,0.4972534,0.385659,-0.4449055,1.126603,0.08187181,-0.1067228,0.7376478,0.05424417,1.651972,3.372597,31.338731306081755
1,-1.0,-1.0,-1.0,0.6290026,0.0,0.0,0.0,-32.005,5.319916,-28.93478,-1.0,0.4947505999999999,0.4422839,0.270966,0.0,0.0,0.0,30.81812,7.328049000000001,-27.145190000000003,-1.0,0.5566800999999999,0.3725224,-0.4448121,1.126424,0.08207145,-0.1062491,0.7375979,0.05348639,1.651972,-7.663956,31.338731306081755
1,-1.0,-1.0,-1.0,0.6290026,0.0,0.0,0.0,-32.005,5.319916,-28.93478,-1.0,0.4947505999999999,0.4422839,0.270966,0.0,0.0,0.0,30.81812,7.328049000000001,-27.145190000000003,-1.0,0.5566800999999999,0.3725224,-0.4448121,1.126424,0.08207145,-0.1062491,0.7375979,0.05348639,1.651972,-7.663956,31.338731306081755
1,-1.0,-1.0,-1.0,0.6290026,0.0,0.0,0.0,-32.005,5.319916,-28.93478,-1.0,0.4947505999999999,0.4422839,0.270966,0.0,0.0,0.0,30.81812,7.328049000000001,-27.145190000000003,-1.0,0.5566800999999999,0.3725224,-0.4448121,1.126424,0.08207145,-0.1062491,0.7375979,0.05348639,1.651972,-7.663956,31.338731306081755
1,0.04922485,-0.1691589,0.9843445,0.7664849,0.04751587,-0.1620026,0.9856415,-31.9619,5.340973,-28.978790000000004,3.607056,0.4966689999999999,0.4350362,0.5190425999999999,0.05903625,-0.2104797,0.9757996,30.81921,7.320053,-27.14716,2.9574130000000003,0.5538354999999999,0.3584791,-0.4444813,1.126339,0.0820345,-0.1056505,0.7374625,0.05296243,1.651972,-7.663956,31.338731306081755
1,0.04922485,-0.1691589,0.9843445,0.7664849,0.04751587,-0.1620026,0.9856415,-31.9619,5.340973,-28.978790000000004,3.607056,0.4966689999999999,0.4350362,0.5190425999999999,0.05903625,-0.2104797,0.9757996,30.81921,7.320053,-27.14716,2.9574130000000003,0.5538354999999999,0.3584791,-0.4444813,1.126339,0.0820345,-0.1056505,0.7374625,0.05296243,1.651972,-7.663956,31.338731306081755
1,0.04922485,-0.1691589,0.9843445,0.7664849,0.04751587,-0.1620026,0.9856415,-31.9619,5.340973,-28.978790000000004,3.607056,0.4966689999999999,0.4350362,0.5190425999999999,0.05903625,-0.2104797,0.9757996,30.81921,7.320053,-27.14716,2.9574130000000003,0.5538354999999999,0.3584791,-0.4444813,1.126339,0.0820345,-0.1056505,0.7374625,0.05296243,1.651972,-7.663956,31.338731306081755
1,0.04638672,-0.1643372,0.9853058,0.8682131,0.04238892,-0.159668,0.9862518,-31.94283,5.324631,-28.98483,3.565338,0.4968804,0.4352074000000001,0.628499,0.05247498,-0.1714325,0.9837952,30.79697,7.293106,-27.16827,2.925293,0.5557179,0.3525136,-0.4443891,1.126321,0.08196363,-0.1055982999999999,0.7373986,0.05294572,1.651972,-7.663956,31.338731306081755
1,0.04638672,-0.1643372,0.9853058,0.8682131,0.04238892,-0.159668,0.9862518,-31.94283,5.324631,-28.98483,3.565338,0.4968804,0.4352074000000001,0.628499,0.05247498,-0.1714325,0.9837952,30.79697,7.293106,-27.16827,2.925293,0.5557179,0.3525136,-0.4443891,1.126321,0.08196363,-0.1055982999999999,0.7373986,0.05294572,1.651972,-7.663956,31.338731306081755
1,0.04638672,-0.1643372,0.9853058,0.8682131,0.04238892,-0.159668,0.9862518,-31.94283,5.324631,-28.98483,3.565338,0.4968804,0.4352074000000001,0.628499,0.05247498,-0.1714325,0.9837952,30.79697,7.293106,-27.16827,2.925293,0.5557179,0.3525136,-0.4443891,1.126321,0.08196363,-0.1055982999999999,0.7373986,0.05294572,1.651972,-7.663956,31.338731306081755
2,0.0511321999999999,-0.1695709,0.9841766,0.9136701,0.04570007,-0.1736755,0.9837341,-31.94415,5.319351,-28.97845,3.441696,0.4963449,0.4377854,0.755013,0.05647278,-0.1655426,0.9845734,30.76103,7.283127,-27.20015,3.0867,0.5563205,0.3520352,-0.4442992,1.12631,0.08196633,-0.1056497,0.7373795999999999,0.05291037,1.651972,1.386154,31.338731306081755
2,0.0511321999999999,-0.1695709,0.9841766,0.9136701,0.04570007,-0.1736755,0.9837341,-31.94415,5.319351,-28.97845,3.441696,0.4963449,0.4377854,0.755013,0.05647278,-0.1655426,0.9845734,30.76103,7.283127,-27.20015,3.0867,0.5563205,0.3520352,-0.4442992,1.12631,0.08196633,-0.1056497,0.7373795999999999,0.05291037,1.651972,1.386154,31.338731306081755
2,0.0511321999999999,-0.1695709,0.9841766,0.9136701,0.04570007,-0.1736755,0.9837341,-31.94415,5.319351,-28.97845,3.441696,0.4963449,0.4377854,0.755013,0.05647278,-0.1655426,0.9845734,30.76103,7.283127,-27.20015,3.0867,0.5563205,0.3520352,-0.4442992,1.12631,0.08196633,-0.1056497,0.7373795999999999,0.05291037,1.651972,1.386154,31.338731306081755
2,0.0418396,-0.1676331,0.9849548,0.9516858,0.04434204,-0.1803589,0.9825897,-31.940690000000004,5.318283,-28.98381,3.346481,0.4964412,0.4390386999999999,0.8857265999999999,0.03927612,-0.1546172999999999,0.9871826,30.78001,7.263748,-27.22032,3.141098,0.558633,0.350866,-0.4441276,1.126396,0.08202918,-0.1056499,0.7375034,0.05284686,1.651972,1.386154,31.338731306081755
2,0.0418396,-0.1676331,0.9849548,0.9516858,0.04434204,-0.1803589,0.9825897,-31.940690000000004,5.318283,-28.98381,3.346481,0.4964412,0.4390386999999999,0.8857265999999999,0.03927612,-0.1546172999999999,0.9871826,30.78001,7.263748,-27.22032,3.141098,0.558633,0.350866,-0.4441276,1.126396,0.08202918,-0.1056499,0.7375034,0.05284686,1.651972,1.386154,31.338731306081755
2,0.0418396,-0.1676331,0.9849548,0.9516858,0.04434204,-0.1803589,0.9825897,-31.940690000000004,5.318283,-28.98381,3.346481,0.4964412,0.4390386999999999,0.8857265999999999,0.03927612,-0.1546172999999999,0.9871826,30.78001,7.263748,-27.22032,3.141098,0.558633,0.350866,-0.4441276,1.126396,0.08202918,-0.1056499,0.7375034,0.05284686,1.651972,1.386154,31.338731306081755
2,0.04177856,-0.1668854,0.9850769,0.9811649,0.04429626,-0.1781311,0.9830017,-31.92136,5.304718,-28.99118,3.480499,0.4958175999999999,0.4391698,0.8605078000000002,0.03927612,-0.1557464999999999,0.9869995,30.78194,7.258742999999999,-27.22507,3.149612,0.5585704,0.3512744,-0.4441815999999999,1.1262219999999998,0.08208181,-0.104973,0.7374383000000001,0.05265048,1.651972,1.386154,32.03
2,0.04177856,-0.1668854,0.9850769,0.9811649,0.04429626,-0.1781311,0.9830017,-31.92136,5.304718,-28.99118,3.480499,0.4958175999999999,0.4391698,0.8605078000000002,0.03927612,-0.1557464999999999,0.9869995,30.78194,7.258742999999999,-27.22507,3.149612,0.5585704,0.3512744,-0.4441815999999999,1.1262219999999998,0.08208181,-0.104973,0.7374383000000001,0.05265048,1.651972,1.386154,32.03
2,0.04177856,-0.1668854,0.9850769,0.9811649,0.04429626,-0.1781311,0.9830017,-31.92136,5.304718,-28.99118,3.480499,0.4958175999999999,0.4391698,0.8605078000000002,0.03927612,-0.1557464999999999,0.9869995,30.78194,7.258742999999999,-27.22507,3.149612,0.5585704,0.3512744,-0.4441815999999999,1.1262219999999998,0.08208181,-0.104973,0.7374383000000001,0.05265048,1.651972,1.386154,32.03
2,0.03529358,-0.1599884,0.9864807,1.0,0.03071594,-0.1719513,0.9846191,-31.907090000000004,5.304733000000001,-28.996890000000004,3.4434050000000003,0.4976139,0.4381195,1.0,0.04016113,-0.1472167999999999,0.9882813,30.77943,7.241013000000001,-27.21478,3.207764,0.5585154999999999,0.3502606,-0.4443114,1.126348,0.08202913,-0.1054308,0.7374951999999999,0.05220915,1.651972,1.386154,32.03
2,0.03529358,-0.1599884,0.9864807,1.0,0.03071594,-0.1719513,0.9846191,-31.907090000000004,5.304733000000001,-28.996890000000004,3.4434050000000003,0.4976139,0.4381195,1.0,0.04016113,-0.1472167999999999,0.9882813,30.77943,7.241013000000001,-27.21478,3.207764,0.5585154999999999,0.3502606,-0.4443114,1.126348,0.08202913,-0.1054308,0.7374951999999999,0.05220915,1.651972,1.386154,32.03
2,0.03529358,-0.1599884,0.9864807,1.0,0.03071594,-0.1719513,0.9846191,-31.907090000000004,5.304733000000001,-28.996890000000004,3.4434050000000003,0.4976139,0.4381195,1.0,0.04016113,-0.1472167999999999,0.9882813,30.77943,7.241013000000001,-27.21478,3.207764,0.5585154999999999,0.3502606,-0.4443114,1.126348,0.08202913,-0.1054308,0.7374951999999999,0.05220915,1.651972,1.386154,32.03
2,0.03709412,-0.1596222,0.9864655,1.0,0.03372192,-0.171463,0.9846039,-31.903440000000003,5.302917,-29.00043,3.4574580000000004,0.4969884,0.4381233,1.0,0.04060364,-0.1472626,0.9882507,30.77753,7.240189,-27.21613,3.219482,0.5585076999999999,0.3503142,-0.4443219,1.126348,0.08195731,-0.1054893,0.7373529000000001,0.0520519,1.651972,1.386154,32.03
2,0.03709412,-0.1596222,0.9864655,1.0,0.03372192,-0.171463,0.9846039,-31.903440000000003,5.302917,-29.00043,3.4574580000000004,0.4969884,0.4381233,1.0,0.04060364,-0.1472626,0.9882507,30.77753,7.240189,-27.21613,3.219482,0.5585076999999999,0.3503142,-0.4443219,1.126348,0.08195731,-0.1054893,0.7373529000000001,0.0520519,1.651972,1.386154,32.03
2,0.03709412,-0.1596222,0.9864655,1.0,0.03372192,-0.171463,0.9846039,-31.903440000000003,5.302917,-29.00043,3.4574580000000004,0.4969884,0.4381233,1.0,0.04060364,-0.1472626,0.9882507,30.77753,7.240189,-27.21613,3.219482,0.5585076999999999,0.3503142,-0.4443219,1.126348,0.08195731,-0.1054893,0.7373529000000001,0.0520519,1.651972,1.386154,32.03
2,0.04370117,-0.1612244,0.9859466999999998,1.0,0.03874207,-0.1729126,0.9841614,-31.89774,5.294876,-29.00246,3.453186,0.4959532999999999,0.4386661,1.0,0.04870605,-0.1493987999999999,0.9875641,30.77626,7.233428999999999,-27.22076,3.246201,0.5571789,0.3509733,-0.4443729999999999,1.12625,0.08194174,-0.1051609999999999,0.7374555,0.0520214,1.651972,1.298462,32.03
2,0.04370117,-0.1612244,0.9859466999999998,1.0,0.03874207,-0.1729126,0.9841614,-31.89774,5.294876,-29.00246,3.453186,0.4959532999999999,0.4386661,1.0,0.04870605,-0.1493987999999999,0.9875641,30.77626,7.233428999999999,-27.22076,3.246201,0.5571789,0.3509733,-0.4443729999999999,1.12625,0.08194174,-0.1051609999999999,0.7374555,0.0520214,1.651972,1.298462,32.03
2,0.04370117,-0.1612244,0.9859466999999998,1.0,0.03874207,-0.1729126,0.9841614,-31.89774,5.294876,-29.00246,3.453186,0.4959532999999999,0.4386661,1.0,0.04870605,-0.1493987999999999,0.9875641,30.77626,7.233428999999999,-27.22076,3.246201,0.5571789,0.3509733,-0.4443729999999999,1.12625,0.08194174,-0.1051609999999999,0.7374555,0.0520214,1.651972,1.298462,32.03
2,0.05102539,-0.1738739,0.9834442,1.0,0.05102539,-0.1738739,0.9834442,-31.93146,5.294006,-29.02821,3.432663,0.4950265,0.439106,1.0,0.0,0.0,0.0,30.79865,7.256348,-27.395940000000003,-1.0,0.5540305,0.3448572,-0.4443579000000001,1.12615,0.08196542,-0.1050792,0.7375321,0.05175979,1.651972,1.298462,32.03
2,0.05102539,-0.1738739,0.9834442,1.0,0.05102539,-0.1738739,0.9834442,-31.93146,5.294006,-29.02821,3.432663,0.4950265,0.439106,1.0,0.0,0.0,0.0,30.79865,7.256348,-27.395940000000003,-1.0,0.5540305,0.3448572,-0.4443579000000001,1.12615,0.08196542,-0.1050792,0.7375321,0.05175979,1.651972,1.298462,32.03
2,0.05102539,-0.1738739,0.9834442,1.0,0.05102539,-0.1738739,0.9834442,-31.93146,5.294006,-29.02821,3.432663,0.4950265,0.439106,1.0,0.0,0.0,0.0,30.79865,7.256348,-27.395940000000003,-1.0,0.5540305,0.3448572,-0.4443579000000001,1.12615,0.08196542,-0.1050792,0.7375321,0.05175979,1.651972,1.298462,32.03
2,-1.0,-1.0,-1.0,0.05869459,0.0,0.0,0.0,-32.02904,5.509247,-29.02345,-1.0,0.569628,0.5218949,0.0,0.0,0.0,0.0,32.03052,6.722092,-27.55356,-1.0,0.5859101999999999,0.4064725,-0.4444220999999999,1.126251,0.08195144,-0.1050645,0.7373653,0.05203436,1.651972,1.298462,32.03
2,-1.0,-1.0,-1.0,0.05869459,0.0,0.0,0.0,-32.02904,5.509247,-29.02345,-1.0,0.569628,0.5218949,0.0,0.0,0.0,0.0,32.03052,6.722092,-27.55356,-1.0,0.5859101999999999,0.4064725,-0.4444220999999999,1.126251,0.08195144,-0.1050645,0.7373653,0.05203436,1.651972,1.298462,32.03
2,-1.0,-1.0,-1.0,0.05869459,0.0,0.0,0.0,-32.02904,5.509247,-29.02345,-1.0,0.569628,0.5218949,0.0,0.0,0.0,0.0,32.03052,6.722092,-27.55356,-1.0,0.5859101999999999,0.4064725,-0.4444220999999999,1.126251,0.08195144,-0.1050645,0.7373653,0.05203436,1.651972,1.298462,32.03
2,-1.0,-1.0,-1.0,0.0,0.0,0.0,0.0,-32.02904,5.509247,-29.02345,-1.0,0.5919123000000001,0.6628732,0.0,0.0,0.0,0.0,32.03052,6.722092,-27.55356,-1.0,0.5703943,0.5630536,-0.4444523,1.126379,0.08215418,-0.1054681,0.7373644,0.05247114,1.651972,1.298462,32.03
2,-1.0,-1.0,-1.0,0.0,0.0,0.0,0.0,-32.02904,5.509247,-29.02345,-1.0,0.5919123000000001,0.6628732,0.0,0.0,0.0,0.0,32.03052,6.722092,-27.55356,-1.0,0.5703943,0.5630536,-0.4444523,1.126379,0.08215418,-0.1054681,0.7373644,0.05247114,1.651972,1.298462,32.03
2,-1.0,-1.0,-1.0,0.0,0.0,0.0,0.0,-32.02904,5.509247,-29.02345,-1.0,0.5919123000000001,0.6628732,0.0,0.0,0.0,0.0,32.03052,6.722092,-27.55356,-1.0,0.5703943,0.5630536,-0.4444523,1.126379,0.08215418,-0.1054681,0.7373644,0.05247114,1.651972,1.298462,32.03
2,-1.0,-1.0,-1.0,0.0,0.0,0.0,0.0,-32.02904,5.509247,-29.02345,-1.0,0.5254386999999999,0.6395502,0.0,0.0,0.0,0.0,32.03052,6.722092,-27.55356,-1.0,0.508614,0.5075367999999999,-0.4445441,1.126387,0.0821922,-0.1057936,0.7372612,0.05269692,1.651972,1.298462,32.03
2,-1.0,-1.0,-1.0,0.0,0.0,0.0,0.0,-32.02904,5.509247,-29.02345,-1.0,0.5254386999999999,0.6395502,0.0,0.0,0.0,0.0,32.03052,6.722092,-27.55356,-1.0,0.508614,0.5075367999999999,-0.4445441,1.126387,0.0821922,-0.1057936,0.7372612,0.05269692,1.651972,1.298462,32.03
2,-1.0,-1.0,-1.0,0.0,0.0,0.0,0.0,-32.02904,5.509247,-29.02345,-1.0,0.5254386999999999,0.6395502,0.0,0.0,0.0,0.0,32.03052,6.722092,-27.55356,-1.0,0.508614,0.5075367999999999,-0.4445441,1.126387,0.0821922,-0.1057936,0.7372612,0.05269692,1.651972,1.298462,32.03
2,-1.0,-1.0,-1.0,0.0,0.0,0.0,0.0,-32.02904,5.509247,-29.02345,-1.0,0.4935653,0.6014049,0.0,0.0,0.0,0.0,32.03052,6.722092,-27.55356,-1.0,0.5885123999999999,0.5457998000000001,-0.4446819,1.1263299999999998,0.0821804999999999,-0.1055936999999999,0.7372025999999999,0.05276381,1.651972,1.298462,32.03
2,-1.0,-1.0,-1.0,0.0,0.0,0.0,0.0,-32.02904,5.509247,-29.02345,-1.0,0.4935653,0.6014049,0.0,0.0,0.0,0.0,32.03052,6.722092,-27.55356,-1.0,0.5885123999999999,0.5457998000000001,-0.4446819,1.1263299999999998,0.0821804999999999,-0.1055936999999999,0.7372025999999999,0.05276381,1.651972,1.298462,32.03
2,-1.0,-1.0,-1.0,0.0,0.0,0.0,0.0,-32.02904,5.509247,-29.02345,-1.0,0.4935653,0.6014049,0.0,0.0,0.0,0.0,32.03052,6.722092,-27.55356,-1.0,0.5885123999999999,0.5457998000000001,-0.4446819,1.1263299999999998,0.0821804999999999,-0.1055936999999999,0.7372025999999999,0.05276381,1.651972,1.298462,32.03
2,-1.0,-1.0,-1.0,0.0,0.0,0.0,0.0,-32.02904,5.509247,-29.02345,-1.0,0.5136815,0.6534118,0.0,0.0,0.0,0.0,32.03052,6.722092,-27.55356,-1.0,0.6554394,0.5985871,-0.4447094,1.126339,0.08221354,-0.1056005,0.7371618000000001,0.05270069,1.651972,6.988998,32.03
2,-1.0,-1.0,-1.0,0.0,0.0,0.0,0.0,-32.02904,5.509247,-29.02345,-1.0,0.5136815,0.6534118,0.0,0.0,0.0,0.0,32.03052,6.722092,-27.55356,-1.0,0.6554394,0.5985871,-0.4447094,1.126339,0.08221354,-0.1056005,0.7371618000000001,0.05270069,1.651972,6.988998,32.03
2,-1.0,-1.0,-1.0,0.0,0.0,0.0,0.0,-32.02904,5.509247,-29.02345,-1.0,0.5136815,0.6534118,0.0,0.0,0.0,0.0,32.03052,6.722092,-27.55356,-1.0,0.6554394,0.5985871,-0.4447094,1.126339,0.08221354,-0.1056005,0.7371618000000001,0.05270069,1.651972,6.988998,32.03
2,-1.0,-1.0,-1.0,0.0,0.0,0.0,0.0,-31.86591,3.098999,-30.02658,-1.0,0.5365814999999999,0.550362,0.0,0.0,0.0,0.0,32.03052,6.722092,-27.55356,-1.0,0.6196611,0.4718813,-0.4447074,1.126431,0.08217004,-0.1056153,0.7371805,0.05256991,1.651972,6.988998,32.03
2,-1.0,-1.0,-1.0,0.0,0.0,0.0,0.0,-31.86591,3.098999,-30.02658,-1.0,0.5365814999999999,0.550362,0.0,0.0,0.0,0.0,32.03052,6.722092,-27.55356,-1.0,0.6196611,0.4718813,-0.4447074,1.126431,0.08217004,-0.1056153,0.7371805,0.05256991,1.651972,6.988998,32.03
2,-1.0,-1.0,-1.0,0.0,0.0,0.0,0.0,-31.86591,3.098999,-30.02658,-1.0,0.5365814999999999,0.550362,0.0,0.0,0.0,0.0,32.03052,6.722092,-27.55356,-1.0,0.6196611,0.4718813,-0.4447074,1.126431,0.08217004,-0.1056153,0.7371805,0.05256991,1.651972,6.988998,32.03
2,-1.0,-1.0,-1.0,0.0,0.0,0.0,0.0,-31.86591,3.098999,-30.02658,-1.0,0.6196648,0.5687744,0.0,0.0,0.0,0.0,32.03052,6.722092,-27.55356,-1.0,0.4992451,0.4894222,-0.4447212,1.12658,0.08196412,-0.1055821,0.7371386,0.05240504,1.651972,6.988998,32.03
2,-1.0,-1.0,-1.0,0.0,0.0,0.0,0.0,-31.86591,3.098999,-30.02658,-1.0,0.6196648,0.5687744,0.0,0.0,0.0,0.0,32.03052,6.722092,-27.55356,-1.0,0.4992451,0.4894222,-0.4447212,1.12658,0.08196412,-0.1055821,0.7371386,0.05240504,1.651972,6.988998,32.03
2,-1.0,-1.0,-1.0,0.0,0.0,0.0,0.0,-31.86591,3.098999,-30.02658,-1.0,0.6196648,0.5687744,0.0,0.0,0.0,0.0,32.03052,6.722092,-27.55356,-1.0,0.4992451,0.4894222,-0.4447212,1.12658,0.08196412,-0.1055821,0.7371386,0.05240504,1.651972,6.988998,32.03
2,-1.0,-1.0,-1.0,0.0,0.0,0.0,0.0,-31.86591,3.098999,-30.02658,-1.0,0.7254633,0.5128524999999999,0.0,0.0,0.0,0.0,32.03052,6.722092,-27.55356,-1.0,0.3058623,0.4088002999999999,-0.4446678,1.126508,0.08206148,-0.1054786,0.7371701999999999,0.05207654,1.651972,6.988998,32.03
2,-1.0,-1.0,-1.0,0.0,0.0,0.0,0.0,-31.86591,3.098999,-30.02658,-1.0,0.7254633,0.5128524999999999,0.0,0.0,0.0,0.0,32.03052,6.722092,-27.55356,-1.0,0.3058623,0.4088002999999999,-0.4446678,1.126508,0.08206148,-0.1054786,0.7371701999999999,0.05207654,1.651972,6.988998,32.03
2,-1.0,-1.0,-1.0,0.0,0.0,0.0,0.0,-31.86591,3.098999,-30.02658,-1.0,0.7254633,0.5128524999999999,0.0,0.0,0.0,0.0,32.03052,6.722092,-27.55356,-1.0,0.3058623,0.4088002999999999,-0.4446678,1.126508,0.08206148,-0.1054786,0.7371701999999999,0.05207654,1.651972,6.988998,32.03
2,-1.0,-1.0,-1.0,0.4296662,0.0,0.0,0.0,-32.52985,6.264542,-29.67574,-1.0,0.537065,0.3915967999999999,0.0,0.0,0.0,0.0,30.191240000000004,6.9147490000000005,-27.61385,-1.0,0.6291260999999999,0.4103274999999999,-0.444585,1.126391,0.08209485,-0.1051624,0.7372307,0.05166396,1.651972,8.035934,32.03
2,-1.0,-1.0,-1.0,0.4296662,0.0,0.0,0.0,-32.52985,6.264542,-29.67574,-1.0,0.537065,0.3915967999999999,0.0,0.0,0.0,0.0,30.191240000000004,6.9147490000000005,-27.61385,-1.0,0.6291260999999999,0.4103274999999999,-0.444585,1.126391,0.08209485,-0.1051624,0.7372307,0.05166396,1.651972,-6.511627,32.03
2,-1.0,-1.0,-1.0,0.4296662,0.0,0.0,0.0,-32.52985,6.264542,-29.67574,-1.0,0.537065,0.3915967999999999,0.0,0.0,0.0,0.0,30.191240000000004,6.9147490000000005,-27.61385,-1.0,0.6291260999999999,0.4103274999999999,-0.444585,1.126391,0.08209485,-0.1051624,0.7372307,0.05166396,1.651972,-6.511627,32.03
2,-1.0,-1.0,-1.0,0.7141219,0.0,0.0,0.0,-32.2265,5.512283,-29.35243,-1.0,0.513514,0.4254717,0.2694893,0.0,0.0,0.0,30.34773,7.394836,-27.24568,-1.0,0.5854617,0.4155364,-0.4444300999999999,1.126482,0.08188251,-0.1051573999999999,0.7371935000000001,0.05154042,1.651972,-6.511627,32.03
2,-1.0,-1.0,-1.0,0.7141219,0.0,0.0,0.0,-32.2265,5.512283,-29.35243,-1.0,0.513514,0.4254717,0.2694893,0.0,0.0,0.0,30.34773,7.394836,-27.24568,-1.0,0.5854617,0.4155364,-0.4444300999999999,1.126482,0.08188251,-0.1051573999999999,0.7371935000000001,0.05154042,1.651972,-6.511627,32.03
2,-1.0,-1.0,-1.0,0.7141219,0.0,0.0,0.0,-32.2265,5.512283,-29.35243,-1.0,0.513514,0.4254717,0.2694893,0.0,0.0,0.0,30.34773,7.394836,-27.24568,-1.0,0.5854617,0.4155364,-0.4444300999999999,1.126482,0.08188251,-0.1051573999999999,0.7371935000000001,0.05154042,1.651972,-6.511627,32.03
2,-1.0,-1.0,-1.0,0.2124554,0.0,0.0,0.0,-31.9762,4.808228,-29.12108,-1.0,0.4974525999999999,0.4697095999999999,0.0,0.0,0.0,0.0,30.64125,6.790114999999999,-27.37186,-1.0,0.5627918000000001,0.4087970999999999,-0.4443354999999999,1.126613,0.08200319,-0.1050835,0.7370753000000001,0.05166016,1.651972,-6.511627,32.03
2,-1.0,-1.0,-1.0,0.2124554,0.0,0.0,0.0,-31.9762,4.808228,-29.12108,-1.0,0.4974525999999999,0.4697095999999999,0.0,0.0,0.0,0.0,30.64125,6.790114999999999,-27.37186,-1.0,0.5627918000000001,0.4087970999999999,-0.4443354999999999,1.126613,0.08200319,-0.1050835,0.7370753000000001,0.05166016,1.651972,-6.511627,32.03
2,-1.0,-1.0,-1.0,0.2124554,0.0,0.0,0.0,-31.9762,4.808228,-29.12108,-1.0,0.4974525999999999,0.4697095999999999,0.0,0.0,0.0,0.0,30.64125,6.790114999999999,-27.37186,-1.0,0.5627918000000001,0.4087970999999999,-0.4443354999999999,1.126613,0.08200319,-0.1050835,0.7370753000000001,0.05166016,1.651972,-6.511627,32.03
2,-1.0,-1.0,-1.0,0.2821926,0.0,0.0,0.0,-31.92496,4.778519,-29.13246,-1.0,0.4966097,0.4744774,0.02132468,0.0,0.0,0.0,30.73636,6.650085000000001,-27.4039,-1.0,0.5609035,0.416926,-0.4442632999999999,1.126672,0.08207653,-0.1049201,0.7368754,0.05137264,1.651972,-6.511627,32.03
2,-1.0,-1.0,-1.0,0.2821926,0.0,0.0,0.0,-31.92496,4.778519,-29.13246,-1.0,0.4966097,0.4744774,0.02132468,0.0,0.0,0.0,30.73636,6.650085000000001,-27.4039,-1.0,0.5609035,0.416926,-0.4442632999999999,1.126672,0.08207653,-0.1049201,0.7368754,0.05137264,1.651972,-6.511627,32.03
2,-1.0,-1.0,-1.0,0.2821926,0.0,0.0,0.0,-31.92496,4.778519,-29.13246,-1.0,0.4966097,0.4744774,0.02132468,0.0,0.0,0.0,30.73636,6.650085000000001,-27.4039,-1.0,0.5609035,0.416926,-0.4442632999999999,1.126672,0.08207653,-0.1049201,0.7368754,0.05137264,1.651972,-6.511627,32.03
2,0.04763794,-0.2510986,0.9667816,0.4611092,0.0431366,-0.2544708,0.9661102,-31.99925,4.647797,-29.17255,3.134628,0.4985275999999999,0.476447,0.2598757,0.05529785,-0.2453461,0.9678497,30.7178,6.526047,-27.39569,2.835953,0.5578213000000001,0.3937954,-0.4442185999999999,1.126679,0.08222197,-0.1045719,0.736644,0.05121417,1.651972,-6.511627,32.03
2,0.04763794,-0.2510986,0.9667816,0.4611092,0.0431366,-0.2544708,0.9661102,-31.99925,4.647797,-29.17255,3.134628,0.4985275999999999,0.476447,0.2598757,0.05529785,-0.2453461,0.9678497,30.7178,6.526047,-27.39569,2.835953,0.5578213000000001,0.3937954,-0.4442185999999999,1.126679,0.08222197,-0.1045719,0.736644,0.05121417,1.651972,-6.511627,32.03
2,0.04763794,-0.2510986,0.9667816,0.4611092,0.0431366,-0.2544708,0.9661102,-31.99925,4.647797,-29.17255,3.134628,0.4985275999999999,0.476447,0.2598757,0.05529785,-0.2453461,0.9678497,30.7178,6.526047,-27.39569,2.835953,0.5578213000000001,0.3937954,-0.4442185999999999,1.126679,0.08222197,-0.1045719,0.736644,0.05121417,1.651972,-6.511627,32.03
2,0.04211426,-0.2400665,0.9698334,0.6348556,0.02961731,-0.2239837999999999,0.9741364,-31.973370000000003,4.548874,-29.20584,3.415161,0.4999585999999999,0.4745652,0.3244082,0.05462646,-0.2560883,0.9651031,30.74226,6.42981,-27.4263,2.8116,0.5570970999999999,0.399269,-0.4441608,1.126603,0.08218403,-0.1041191,0.7364048000000001,0.05099207,1.651972,-6.511627,32.03
2,0.04211426,-0.2400665,0.9698334,0.6348556,0.02961731,-0.2239837999999999,0.9741364,-31.973370000000003,4.548874,-29.20584,3.415161,0.4999585999999999,0.4745652,0.3244082,0.05462646,-0.2560883,0.9651031,30.74226,6.42981,-27.4263,2.8116,0.5570970999999999,0.399269,-0.4441608,1.126603,0.08218403,-0.1041191,0.7364048000000001,0.05099207,1.651972,-6.511627,32.03
2,0.04211426,-0.2400665,0.9698334,0.6348556,0.02961731,-0.2239837999999999,0.9741364,-31.973370000000003,4.548874,-29.20584,3.415161,0.4999585999999999,0.4745652,0.3244082,0.05462646,-0.2560883,0.9651031,30.74226,6.42981,-27.4263,2.8116,0.5570970999999999,0.399269,-0.4441608,1.126603,0.08218403,-0.1041191,0.7364048000000001,0.05099207,1.651972,-6.511627,32.03
2,0.05166626,-0.2389373999999999,0.9696503,0.7065442,0.05854797,-0.2280884,0.9718628,-32.03249,4.517044,-29.22067,3.455856,0.4970989999999999,0.4765576,0.418749,0.04597473,-0.247879,0.9676971,30.73354,6.380508,-27.441240000000004,2.91806,0.5588919,0.399514,-0.4440876,1.126409,0.08216257,-0.1038523,0.7363491999999999,0.05035121,1.651972,1.041855,32.03
2,0.05166626,-0.2389373999999999,0.9696503,0.7065442,0.05854797,-0.2280884,0.9718628,-32.03249,4.517044,-29.22067,3.455856,0.4970989999999999,0.4765576,0.418749,0.04597473,-0.247879,0.9676971,30.73354,6.380508,-27.441240000000004,2.91806,0.5588919,0.399514,-0.4440876,1.126409,0.08216257,-0.1038523,0.7363491999999999,0.05035121,1.651972,1.041855,32.03
2,0.05166626,-0.2389373999999999,0.9696503,0.7065442,0.05854797,-0.2280884,0.9718628,-32.03249,4.517044,-29.22067,3.455856,0.4970989999999999,0.4765576,0.418749,0.04597473,-0.247879,0.9676971,30.73354,6.380508,-27.441240000000004,2.91806,0.5588919,0.399514,-0.4440876,1.126409,0.08216257,-0.1038523,0.7363491999999999,0.05035121,1.651972,1.041855,32.03
2,0.05029297,-0.2438353999999999,0.9685059,0.8657111999999999,0.04151917,-0.2501678,0.9673004,-32.04262,4.552292,-29.20969,3.260025,0.5002782,0.4792129,0.5766316999999999,0.05880737,-0.2376862,0.9695435,30.74352,6.381592,-27.42984,2.919128,0.5563588,0.3975604,-0.4439295999999999,1.126356,0.08211969,-0.1035329,0.7363890999999999,0.0500083,1.651972,1.041855,32.03
2,0.05029297,-0.2438353999999999,0.9685059,0.8657111999999999,0.04151917,-0.2501678,0.9673004,-32.04262,4.552292,-29.20969,3.260025,0.5002782,0.4792129,0.5766316999999999,0.05880737,-0.2376862,0.9695435,30.74352,6.381592,-27.42984,2.919128,0.5563588,0.3975604,-0.4439295999999999,1.126356,0.08211969,-0.1035329,0.7363890999999999,0.0500083,1.651972,1.041855,32.03
2,0.05029297,-0.2438353999999999,0.9685059,0.8657111999999999,0.04151917,-0.2501678,0.9673004,-32.04262,4.552292,-29.20969,3.260025,0.5002782,0.4792129,0.5766316999999999,0.05880737,-0.2376862,0.9695435,30.74352,6.381592,-27.42984,2.919128,0.5563588,0.3975604,-0.4439295999999999,1.126356,0.08211969,-0.1035329,0.7363890999999999,0.0500083,1.651972,1.041855,32.03
2,0.04049683,-0.2352295,0.9710846,0.95117,0.03990173,-0.2273865,0.9729767,-32.04355,4.578827,-29.2016,3.472656,0.5006101,0.4741572,0.6706365,0.04100037,-0.2419127999999999,0.9694214,30.74678,6.413651,-27.43985,2.958939,0.5593058000000001,0.3972879,-0.4438106,1.126077,0.08216307,-0.1028056,0.7363384,0.04970093,1.651972,1.041855,32.03
2,0.04049683,-0.2352295,0.9710846,0.95117,0.03990173,-0.2273865,0.9729767,-32.04355,4.578827,-29.2016,3.472656,0.5006101,0.4741572,0.6706365,0.04100037,-0.2419127999999999,0.9694214,30.74678,6.413651,-27.43985,2.958939,0.5593058000000001,0.3972879,-0.4438106,1.126077,0.08216307,-0.1028056,0.7363384,0.04970093,1.651972,1.041855,32.03
2,0.04049683,-0.2352295,0.9710846,0.95117,0.03990173,-0.2273865,0.9729767,-32.04355,4.578827,-29.2016,3.472656,0.5006101,0.4741572,0.6706365,0.04100037,-0.2419127999999999,0.9694214,30.74678,6.413651,-27.43985,2.958939,0.5593058000000001,0.3972879,-0.4438106,1.126077,0.08216307,-0.1028056,0.7363384,0.04970093,1.651972,1.041855,32.03
2,0.04380798,-0.2398682,0.9698029,1.0,0.04454041,-0.2301788,0.9721222,-32.04076,4.601287999999999,-29.20023,3.583725,0.4997571,0.4738988,1.0,0.04316711,-0.24823,0.9677277,30.73514,6.4507900000000005,-27.43062,2.889984,0.5593199999999999,0.3971172,-0.4437102,1.125909,0.08216077,-0.1023011,0.7365651999999999,0.04888143,1.651972,1.041855,32.03
2,0.04380798,-0.2398682,0.9698029,1.0,0.04454041,-0.2301788,0.9721222,-32.04076,4.601287999999999,-29.20023,3.583725,0.4997571,0.4738988,1.0,0.04316711,-0.24823,0.9677277,30.73514,6.4507900000000005,-27.43062,2.889984,0.5593199999999999,0.3971172,-0.4437102,1.125909,0.08216077,-0.1023011,0.7365651999999999,0.04888143,1.651972,1.041855,32.03
2,0.04380798,-0.2398682,0.9698029,1.0,0.04454041,-0.2301788,0.9721222,-32.04076,4.601287999999999,-29.20023,3.583725,0.4997571,0.4738988,1.0,0.04316711,-0.24823,0.9677277,30.73514,6.4507900000000005,-27.43062,2.889984,0.5593199999999999,0.3971172,-0.4437102,1.125909,0.08216077,-0.1023011,0.7365651999999999,0.04888143,1.651972,1.041855,32.03
2,0.04454041,-0.2333373999999999,0.9713593,1.0,0.04316711,-0.2377014,0.9703674,-32.01396,4.684799,-29.184140000000003,3.660721,0.4991011999999999,0.4722954000000001,1.0,0.04576111,-0.2295227,0.9722136999999998,30.738190000000003,6.48381,-27.42352,3.129745,0.5588343000000001,0.3925106,-0.4435742,1.125821,0.08217932,-0.1023483999999999,0.7365997,0.04814856,1.651972,1.041855,32.03
2,0.04454041,-0.2333373999999999,0.9713593,1.0,0.04316711,-0.2377014,0.9703674,-32.01396,4.684799,-29.184140000000003,3.660721,0.4991011999999999,0.4722954000000001,1.0,0.04576111,-0.2295227,0.9722136999999998,30.738190000000003,6.48381,-27.42352,3.129745,0.5588343000000001,0.3925106,-0.4435742,1.125821,0.08217932,-0.1023483999999999,0.7365997,0.04814856,1.651972,5.183708,32.03
2,0.04454041,-0.2333373999999999,0.9713593,1.0,0.04316711,-0.2377014,0.9703674,-32.01396,4.684799,-29.184140000000003,3.660721,0.4991011999999999,0.4722954000000001,1.0,0.04576111,-0.2295227,0.9722136999999998,30.738190000000003,6.48381,-27.42352,3.129745,0.5588343000000001,0.3925106,-0.4435742,1.125821,0.08217932,-0.1023483999999999,0.7365997,0.04814856,1.651972,1.72448,32.03
2,0.03979492,-0.2337952,0.9714661,1.0,0.03405762,-0.2406616,0.9700012,-32.02203,4.716858,-29.18375,3.508255,0.5008854,0.471729,1.0,0.04573059,-0.2266998,0.9728851,30.73181,6.511887000000001,-27.40811,3.224091,0.5590767,0.3909117,-0.4435407,1.125659,0.08207895,-0.1015953,0.7366329,0.04746326,1.651972,1.72448,32.03
2,0.03979492,-0.2337952,0.9714661,1.0,0.03405762,-0.2406616,0.9700012,-32.02203,4.716858,-29.18375,3.508255,0.5008854,0.471729,1.0,0.04573059,-0.2266998,0.9728851,30.73181,6.511887000000001,-27.40811,3.224091,0.5590767,0.3909117,-0.4435407,1.125659,0.08207895,-0.1015953,0.7366329,0.04746326,1.651972,1.72448,32.03
2,0.03979492,-0.2337952,0.9714661,1.0,0.03405762,-0.2406616,0.9700012,-32.02203,4.716858,-29.18375,3.508255,0.5008854,0.471729,1.0,0.04573059,-0.2266998,0.9728851,30.73181,6.511887000000001,-27.40811,3.224091,0.5590767,0.3909117,-0.4435407,1.125659,0.08207895,-0.1015953,0.7366329,0.04746326,1.651972,1.72448,32.03
2,0.03956604,-0.2370453,0.9706879,1.0,0.03765869,-0.2396239999999999,0.9701233,-32.00932,4.727646,-29.18176,3.6147,0.4998657,0.4711643,1.0,0.04191589,-0.2338715,0.9713593,30.72574,6.559586,-27.39497,3.193115,0.559926,0.39048,-0.4434117,1.125498,0.08194795,-0.1011225,0.7366428,0.04690446,1.641723,1.72448,32.03
2,0.03956604,-0.2370453,0.9706879,1.0,0.03765869,-0.2396239999999999,0.9701233,-32.00932,4.727646,-29.18176,3.6147,0.4998657,0.4711643,1.0,0.04191589,-0.2338715,0.9713593,30.72574,6.559586,-27.39497,3.193115,0.559926,0.39048,-0.4434117,1.125498,0.08194795,-0.1011225,0.7366428,0.04690446,1.641723,1.72448,32.03
2,0.03956604,-0.2370453,0.9706879,1.0,0.03765869,-0.2396239999999999,0.9701233,-32.00932,4.727646,-29.18176,3.6147,0.4998657,0.4711643,1.0,0.04191589,-0.2338715,0.9713593,30.72574,6.559586,-27.39497,3.193115,0.559926,0.39048,-0.4434117,1.125498,0.08194795,-0.1011225,0.7366428,0.04690446,1.641723,1.72448,32.03
2,0.03651428,-0.2306212999999999,0.9723511,1.0,0.03497314,-0.2343902999999999,0.9714966,-31.995990000000003,4.735382,-29.179440000000003,3.625,0.4998657,0.4699452,1.0,0.03799438,-0.227005,0.9731445,30.727390000000003,6.575089,-27.38998,3.301132,0.5605629,0.3886425,-0.4432029,1.125348,0.08190358,-0.1010256,0.7364279,0.04666584,1.641723,1.72448,32.03
2,0.03651428,-0.2306212999999999,0.9723511,1.0,0.03497314,-0.2343902999999999,0.9714966,-31.995990000000003,4.735382,-29.179440000000003,3.625,0.4998657,0.4699452,1.0,0.03799438,-0.227005,0.9731445,30.727390000000003,6.575089,-27.38998,3.301132,0.5605629,0.3886425,-0.4432029,1.125348,0.08190358,-0.1010256,0.7364279,0.04666584,1.641723,1.72448,32.03
2,0.03651428,-0.2306212999999999,0.9723511,1.0,0.03497314,-0.2343902999999999,0.9714966,-31.995990000000003,4.735382,-29.179440000000003,3.625,0.4998657,0.4699452,1.0,0.03799438,-0.227005,0.9731445,30.727390000000003,6.575089,-27.38998,3.301132,0.5605629,0.3886425,-0.4432029,1.125348,0.08190358,-0.1010256,0.7364279,0.04666584,1.641723,1.72448,32.03
2,0.03683472,-0.2279967999999999,0.9729614,1.0,0.03218079,-0.2376709,0.9708099,-32.0041,4.808258,-29.16431,3.697662,0.5006227,0.4679354999999999,1.0,0.04026794,-0.2208099,0.974472,30.72499,6.586716,-27.38806,3.376053,0.5602775999999999,0.3871073,-0.4430844,1.12532,0.08190696,-0.1008651,0.7362759,0.04648818,1.641723,1.72448,32.03
2,0.03683472,-0.2279967999999999,0.9729614,1.0,0.03218079,-0.2376709,0.9708099,-32.0041,4.808258,-29.16431,3.697662,0.5006227,0.4679354999999999,1.0,0.04026794,-0.2208099,0.974472,30.72499,6.586716,-27.38806,3.376053,0.5602775999999999,0.3871073,-0.4430844,1.12532,0.08190696,-0.1008651,0.7362759,0.04648818,1.641723,1.72448,32.03
2,0.03683472,-0.2279967999999999,0.9729614,1.0,0.03218079,-0.2376709,0.9708099,-32.0041,4.808258,-29.16431,3.697662,0.5006227,0.4679354999999999,1.0,0.04026794,-0.2208099,0.974472,30.72499,6.586716,-27.38806,3.376053,0.5602775999999999,0.3871073,-0.4430844,1.12532,0.08190696,-0.1008651,0.7362759,0.04648818,1.641723,1.72448,32.03
3,0.03683472,-0.2279967999999999,0.9729614,1.0,0.03218079,-0.2376709,0.9708099,-32.0041,4.808258,-29.16431,3.697662,0.5006227,0.4679354999999999,1.0,0.04026794,-0.2208099,0.974472,30.72499,6.586716,-27.38806,3.376053,0.5602775999999999,0.3871073,-0.4430723,1.125271,0.0819701,-0.1006346,0.7360861999999999,0.04640009,1.641723,1.72448,32.03
3,0.03683472,-0.2279967999999999,0.9729614,1.0,0.03218079,-0.2376709,0.9708099,-32.0041,4.808258,-29.16431,3.697662,0.5006227,0.4679354999999999,1.0,0.04026794,-0.2208099,0.974472,30.72499,6.586716,-27.38806,3.376053,0.5602775999999999,0.3871073,-0.4430723,1.125271,0.0819701,-0.1006346,0.7360861999999999,0.04640009,1.641723,1.72448,32.03
3,0.03683472,-0.2279967999999999,0.9729614,1.0,0.03218079,-0.2376709,0.9708099,-32.0041,4.808258,-29.16431,3.697662,0.5006227,0.4679354999999999,1.0,0.04026794,-0.2208099,0.974472,30.72499,6.586716,-27.38806,3.376053,0.5602775999999999,0.3871073,-0.4430723,1.125271,0.0819701,-0.1006346,0.7360861999999999,0.04640009,1.641723,1.72448,32.03
3,0.03683472,-0.2279967999999999,0.9729614,1.0,0.03218079,-0.2376709,0.9708099,-32.0041,4.808258,-29.16431,3.697662,0.5006227,0.4679354999999999,1.0,0.04026794,-0.2208099,0.974472,30.72499,6.586716,-27.38806,3.376053,0.5602775999999999,0.3871073,-0.44306,1.125177,0.08217134,-0.1002625,0.7356636,0.04632426,1.641723,6.035721,32.03
3,0.03683472,-0.2279967999999999,0.9729614,1.0,0.03218079,-0.2376709,0.9708099,-32.0041,4.808258,-29.16431,3.697662,0.5006227,0.4679354999999999,1.0,0.04026794,-0.2208099,0.974472,30.72499,6.586716,-27.38806,3.376053,0.5602775999999999,0.3871073,-0.44306,1.125177,0.08217134,-0.1002625,0.7356636,0.04632426,1.641723,6.035721,32.03
3,0.03683472,-0.2279967999999999,0.9729614,1.0,0.03218079,-0.2376709,0.9708099,-32.0041,4.808258,-29.16431,3.697662,0.5006227,0.4679354999999999,1.0,0.04026794,-0.2208099,0.974472,30.72499,6.586716,-27.38806,3.376053,0.5602775999999999,0.3871073,-0.44306,1.125177,0.08217134,-0.1002625,0.7356636,0.04632426,1.641723,6.035721,32.03
3,0.03257751,-0.2185364,0.9752808,1.0,0.02761841,-0.2293701,0.9729309000000002,-32.03601,4.814102,-29.1622,3.623306,0.5024554,0.466252,1.0,0.03770447,-0.2072906,0.9775391,30.63782,6.627167,-27.38295,3.501968,0.5637161999999999,0.383256,-0.4431859,1.125205,0.08241831,-0.1006633999999999,0.7352728000000001,0.04647051,1.641723,6.035721,32.03
3,0.03257751,-0.2185364,0.9752808,1.0,0.02761841,-0.2293701,0.9729309000000002,-32.03601,4.814102,-29.1622,3.623306,0.5024554,0.466252,1.0,0.03770447,-0.2072906,0.9775391,30.63782,6.627167,-27.38295,3.501968,0.5637161999999999,0.383256,-0.4431859,1.125205,0.08241831,-0.1006633999999999,0.7352728000000001,0.04647051,1.641723,6.035721,32.03
3,0.03257751,-0.2185364,0.9752808,1.0,0.02761841,-0.2293701,0.9729309000000002,-32.03601,4.814102,-29.1622,3.623306,0.5024554,0.466252,1.0,0.03770447,-0.2072906,0.9775391,30.63782,6.627167,-27.38295,3.501968,0.5637161999999999,0.383256,-0.4431859,1.125205,0.08241831,-0.1006633999999999,0.7352728000000001,0.04647051,1.641723,6.035721,32.03
3,0.03182983,-0.2130127,0.9765167,1.0,0.02532959,-0.2275085,0.9734344,-32.05516,4.837784,-29.15973,3.627319,0.5034866,0.4650996,1.0,0.03840637,-0.1983032,0.9793854,30.62311,6.643753,-27.37927,3.609177,0.5641298,0.3810416,-0.4431925,1.125151,0.08237985,-0.1006828,0.7354775,0.0466159,1.641723,6.035721,32.03
3,0.03182983,-0.2130127,0.9765167,1.0,0.02532959,-0.2275085,0.9734344,-32.05516,4.837784,-29.15973,3.627319,0.5034866,0.4650996,1.0,0.03840637,-0.1983032,0.9793854,30.62311,6.643753,-27.37927,3.609177,0.5641298,0.3810416,-0.4431925,1.125151,0.08237985,-0.1006828,0.7354775,0.0466159,1.641723,6.035721,32.03
3,0.03182983,-0.2130127,0.9765167,1.0,0.02532959,-0.2275085,0.9734344,-32.05516,4.837784,-29.15973,3.627319,0.5034866,0.4650996,1.0,0.03840637,-0.1983032,0.9793854,30.62311,6.643753,-27.37927,3.609177,0.5641298,0.3810416,-0.4431925,1.125151,0.08237985,-0.1006828,0.7354775,0.0466159,1.641723,6.035721,32.03
3,0.03118896,-0.2120972,0.9767456,1.0,0.02359009,-0.2257232999999999,0.9738922,-32.05928,4.844818,-29.15704,3.619904,0.5039172000000001,0.4645358,1.0,0.03862,-0.1987152,0.9792786,30.61584,6.650817999999999,-27.37743,3.628174,0.564346,0.3808493,-0.4432037,1.125156,0.08223219,-0.1009953,0.7357425999999999,0.04657667,1.641723,-11.35892,32.03
3,0.03118896,-0.2120972,0.9767456,1.0,0.02359009,-0.2257232999999999,0.9738922,-32.05928,4.844818,-29.15704,3.619904,0.5039172000000001,0.4645358,1.0,0.03862,-0.1987152,0.9792786,30.61584,6.650817999999999,-27.37743,3.628174,0.564346,0.3808493,-0.4432037,1.125156,0.08223219,-0.1009953,0.7357425999999999,0.04657667,1.641723,-11.35892,32.03
3,0.03118896,-0.2120972,0.9767456,1.0,0.02359009,-0.2257232999999999,0.9738922,-32.05928,4.844818,-29.15704,3.619904,0.5039172000000001,0.4645358,1.0,0.03862,-0.1987152,0.9792786,30.61584,6.650817999999999,-27.37743,3.628174,0.564346,0.3808493,-0.4432037,1.125156,0.08223219,-0.1009953,0.7357425999999999,0.04657667,1.641723,-11.35892,32.03
3,0.02947998,-0.2126159999999999,0.9766846,1.0,0.019104,-0.2249297999999999,0.9741821,-32.07117,4.864883,-29.15152,3.574753,0.5050686,0.463668,1.0,0.03991699,-0.2001494999999999,0.9789429,30.59235,6.673584,-27.36859,3.612625,0.5649223000000001,0.3802708,-0.4434846999999999,1.125214,0.08216316,-0.1010034,0.7359912,0.0465477,1.641723,-11.35892,32.03
3,0.02947998,-0.2126159999999999,0.9766846,1.0,0.019104,-0.2249297999999999,0.9741821,-32.07117,4.864883,-29.15152,3.574753,0.5050686,0.463668,1.0,0.03991699,-0.2001494999999999,0.9789429,30.59235,6.673584,-27.36859,3.612625,0.5649223000000001,0.3802708,-0.4434846999999999,1.125214,0.08216316,-0.1010034,0.7359912,0.0465477,1.641723,-11.35892,32.03
3,0.02947998,-0.2126159999999999,0.9766846,1.0,0.019104,-0.2249297999999999,0.9741821,-32.07117,4.864883,-29.15152,3.574753,0.5050686,0.463668,1.0,0.03991699,-0.2001494999999999,0.9789429,30.59235,6.673584,-27.36859,3.612625,0.5649223000000001,0.3802708,-0.4434846999999999,1.125214,0.08216316,-0.1010034,0.7359912,0.0465477,1.641723,-11.35892,32.03
3,0.02947998,-0.2126159999999999,0.9766846,1.0,0.019104,-0.2249297999999999,0.9741821,-32.07117,4.864883,-29.15152,3.574753,0.5050686,0.463668,1.0,0.03991699,-0.2001494999999999,0.9789429,30.59235,6.673584,-27.36859,3.612625,0.5649223000000001,0.3802708,-0.443511,1.125227,0.08211319,-0.1010643999999999,0.7359802,0.04651327,1.641723,-11.35892,32.03
3,0.02947998,-0.2126159999999999,0.9766846,1.0,0.019104,-0.2249297999999999,0.9741821,-32.07117,4.864883,-29.15152,3.574753,0.5050686,0.463668,1.0,0.03991699,-0.2001494999999999,0.9789429,30.59235,6.673584,-27.36859,3.612625,0.5649223000000001,0.3802708,-0.443511,1.125227,0.08211319,-0.1010643999999999,0.7359802,0.04651327,1.641723,-11.35892,32.03
3,0.02947998,-0.2126159999999999,0.9766846,1.0,0.019104,-0.2249297999999999,0.9741821,-32.07117,4.864883,-29.15152,3.574753,0.5050686,0.463668,1.0,0.03991699,-0.2001494999999999,0.9789429,30.59235,6.673584,-27.36859,3.612625,0.5649223000000001,0.3802708,-0.443511,1.125227,0.08211319,-0.1010643999999999,0.7359802,0.04651327,1.641723,-11.35892,32.03
3,0.02947998,-0.2126159999999999,0.9766846,1.0,0.019104,-0.2249297999999999,0.9741821,-32.07117,4.864883,-29.15152,3.574753,0.5050686,0.463668,1.0,0.03991699,-0.2001494999999999,0.9789429,30.59235,6.673584,-27.36859,3.612625,0.5649223000000001,0.3802708,-0.4435804,1.125248,0.08227339,-0.1009851,0.7357695,0.04666344,1.641723,-11.35892,32.03
3,0.02947998,-0.2126159999999999,0.9766846,1.0,0.019104,-0.2249297999999999,0.9741821,-32.07117,4.864883,-29.15152,3.574753,0.5050686,0.463668,1.0,0.03991699,-0.2001494999999999,0.9789429,30.59235,6.673584,-27.36859,3.612625,0.5649223000000001,0.3802708,-0.4435804,1.125248,0.08227339,-0.1009851,0.7357695,0.04666344,1.641723,-11.35892,32.03
3,0.02947998,-0.2126159999999999,0.9766846,1.0,0.019104,-0.2249297999999999,0.9741821,-32.07117,4.864883,-29.15152,3.574753,0.5050686,0.463668,1.0,0.03991699,-0.2001494999999999,0.9789429,30.59235,6.673584,-27.36859,3.612625,0.5649223000000001,0.3802708,-0.4435804,1.125248,0.08227339,-0.1009851,0.7357695,0.04666344,1.641723,-11.35892,32.03
3,0.02749634,-0.2120972,0.9768524,1.0,0.02505493,-0.223053,0.974472,-32.08737,4.940780999999999,-29.142940000000003,3.49115,0.5046151,0.4607024999999999,1.0,0.02947998,-0.203125,0.9786987,30.58357,6.757538,-27.34753,3.506851,0.5669687,0.3777784999999999,-0.4437014,1.125259,0.08223604,-0.1011319,0.7356203,0.04695736,1.641723,-11.35892,32.03
3,0.02749634,-0.2120972,0.9768524,1.0,0.02505493,-0.223053,0.974472,-32.08737,4.940780999999999,-29.142940000000003,3.49115,0.5046151,0.4607024999999999,1.0,0.02947998,-0.203125,0.9786987,30.58357,6.757538,-27.34753,3.506851,0.5669687,0.3777784999999999,-0.4437014,1.125259,0.08223604,-0.1011319,0.7356203,0.04695736,1.641723,-11.35892,32.03
3,0.02749634,-0.2120972,0.9768524,1.0,0.02505493,-0.223053,0.974472,-32.08737,4.940780999999999,-29.142940000000003,3.49115,0.5046151,0.4607024999999999,1.0,0.02947998,-0.203125,0.9786987,30.58357,6.757538,-27.34753,3.506851,0.5669687,0.3777784999999999,-0.4437014,1.125259,0.08223604,-0.1011319,0.7356203,0.04695736,1.641723,-11.35892,32.03
3,0.02749634,-0.210556,0.9771881,1.0,0.0223999,-0.2198944,0.9752502,-32.08789,4.945511,-29.1424,3.49234,0.5050796,0.4599821,1.0,0.03161621,-0.2029877,0.978653,30.58469,6.762283,-27.34607,3.47644,0.5665614999999999,0.3775870999999999,-0.4437513,1.125329,0.08191998,-0.101333,0.7354025,0.04704619,1.641723,-5.192444,32.03
3,0.02749634,-0.210556,0.9771881,1.0,0.0223999,-0.2198944,0.9752502,-32.08789,4.945511,-29.1424,3.49234,0.5050796,0.4599821,1.0,0.03161621,-0.2029877,0.978653,30.58469,6.762283,-27.34607,3.47644,0.5665614999999999,0.3775870999999999,-0.4437513,1.125329,0.08191998,-0.101333,0.7354025,0.04704619,1.641723,-5.192444,32.03
3,0.02749634,-0.210556,0.9771881,1.0,0.0223999,-0.2198944,0.9752502,-32.08789,4.945511,-29.1424,3.49234,0.5050796,0.4599821,1.0,0.03161621,-0.2029877,0.978653,30.58469,6.762283,-27.34607,3.47644,0.5665614999999999,0.3775870999999999,-0.4437513,1.125329,0.08191998,-0.101333,0.7354025,0.04704619,1.641723,-5.192444,32.03
3,0.02799988,-0.2112122,0.9770355,1.0,0.02276611,-0.2211150999999999,0.9749756,-32.08961,4.956894,-29.14047,3.492279,0.5050774,0.4598054,1.0,0.0320282,-0.2035674999999999,0.9785309,30.58461,6.766311999999999,-27.343770000000003,3.4527589999999995,0.5664895999999999,0.3775438,-0.4437677,1.125366,0.08199969,-0.1016049,0.7353215999999999,0.04703813,1.641723,-5.192444,32.03
3,0.02799988,-0.2112122,0.9770355,1.0,0.02276611,-0.2211150999999999,0.9749756,-32.08961,4.956894,-29.14047,3.492279,0.5050774,0.4598054,1.0,0.0320282,-0.2035674999999999,0.9785309,30.58461,6.766311999999999,-27.343770000000003,3.4527589999999995,0.5664895999999999,0.3775438,-0.4437677,1.125366,0.08199969,-0.1016049,0.7353215999999999,0.04703813,1.641723,-5.192444,32.03
3,0.02799988,-0.2112122,0.9770355,1.0,0.02276611,-0.2211150999999999,0.9749756,-32.08961,4.956894,-29.14047,3.492279,0.5050774,0.4598054,1.0,0.0320282,-0.2035674999999999,0.9785309,30.58461,6.766311999999999,-27.343770000000003,3.4527589999999995,0.5664895999999999,0.3775438,-0.4437677,1.125366,0.08199969,-0.1016049,0.7353215999999999,0.04703813,1.641723,-5.192444,32.03
3,0.02757263,-0.2116089,0.9769592,0.9929634,0.02325439,-0.2226868,0.9746094,-32.09421,4.972763,-29.13713,3.488403,0.5051494000000001,0.4595175,0.928071,0.03088379,-0.203125,0.978653,30.58357,6.7638240000000005,-27.34344,3.411057,0.5667084,0.3775438,-0.4438188,1.125382,0.08197589,-0.1016957,0.7354655999999999,0.04704209,1.641723,-5.192444,32.03
3,0.02757263,-0.2116089,0.9769592,0.9929634,0.02325439,-0.2226868,0.9746094,-32.09421,4.972763,-29.13713,3.488403,0.5051494000000001,0.4595175,0.928071,0.03088379,-0.203125,0.978653,30.58357,6.7638240000000005,-27.34344,3.411057,0.5667084,0.3775438,-0.4438188,1.125382,0.08197589,-0.1016957,0.7354655999999999,0.04704209,1.641723,-5.192444,32.03
3,0.02757263,-0.2116089,0.9769592,0.9929634,0.02325439,-0.2226868,0.9746094,-32.09421,4.972763,-29.13713,3.488403,0.5051494000000001,0.4595175,0.928071,0.03088379,-0.203125,0.978653,30.58357,6.7638240000000005,-27.34344,3.411057,0.5667084,0.3775438,-0.4438188,1.125382,0.08197589,-0.1016957,0.7354655999999999,0.04704209,1.641723,-5.192444,32.03
3,0.02630615,-0.2114868,0.9770203000000002,0.9953775,0.02223206,-0.2226105,0.9746399,-32.09622,4.980423,-29.13692,3.474564,0.5053888,0.4592475,0.9036787,0.02938843,-0.2030333999999999,0.9787292,30.58031,6.763503999999999,-27.34314,3.3675080000000004,0.5670611999999999,0.3775463,-0.4437987,1.125425,0.08188944,-0.1018398,0.7357238,0.04709188,1.641723,-5.192444,32.03
3,0.02630615,-0.2114868,0.9770203000000002,0.9953775,0.02223206,-0.2226105,0.9746399,-32.09622,4.980423,-29.13692,3.474564,0.5053888,0.4592475,0.9036787,0.02938843,-0.2030333999999999,0.9787292,30.58031,6.763503999999999,-27.34314,3.3675080000000004,0.5670611999999999,0.3775463,-0.4437987,1.125425,0.08188944,-0.1018398,0.7357238,0.04709188,1.641723,-5.192444,32.03
3,0.02630615,-0.2114868,0.9770203000000002,0.9953775,0.02223206,-0.2226105,0.9746399,-32.09622,4.980423,-29.13692,3.474564,0.5053888,0.4592475,0.9036787,0.02938843,-0.2030333999999999,0.9787292,30.58031,6.763503999999999,-27.34314,3.3675080000000004,0.5670611999999999,0.3775463,-0.4437987,1.125425,0.08188944,-0.1018398,0.7357238,0.04709188,1.641723,-5.192444,32.03
3,0.02503967,-0.2100067,0.9773712,1.0,0.01942444,-0.2233429,0.9745331,-32.09448,4.995743,-29.13702,3.4325870000000003,0.5058005,0.4588643,1.0,0.02949524,-0.1994323999999999,0.9794617,30.57971,6.770645,-27.34007,3.350281,0.5670611999999999,0.3766306,-0.4437987,1.125254,0.08173287,-0.1013022,0.7358650999999999,0.04672346,1.641723,-5.192444,32.03
3,0.02503967,-0.2100067,0.9773712,1.0,0.01942444,-0.2233429,0.9745331,-32.09448,4.995743,-29.13702,3.4325870000000003,0.5058005,0.4588643,1.0,0.02949524,-0.1994323999999999,0.9794617,30.57971,6.770645,-27.34007,3.350281,0.5670611999999999,0.3766306,-0.4437987,1.125254,0.08173287,-0.1013022,0.7358650999999999,0.04672346,1.641723,-5.192444,32.03
3,0.02503967,-0.2100067,0.9773712,1.0,0.01942444,-0.2233429,0.9745331,-32.09448,4.995743,-29.13702,3.4325870000000003,0.5058005,0.4588643,1.0,0.02949524,-0.1994323999999999,0.9794617,30.57971,6.770645,-27.34007,3.350281,0.5670611999999999,0.3766306,-0.4437987,1.125254,0.08173287,-0.1013022,0.7358650999999999,0.04672346,1.641723,-5.192444,32.03
3,0.02560425,-0.2064667,0.9781036,0.9872457,0.01937866,-0.2236786,0.9744568,-32.0943,4.9992980000000005,-29.13702,3.424942,0.5058005,0.4588065999999999,0.9203843,0.03031921,-0.1933136,0.9806519,30.58398,6.773148,-27.3382,3.3396760000000003,0.5667738,0.375436,-0.4437933,1.125265,0.08159976,-0.1016993,0.7357831,0.04605039,1.641723,9.21328,32.03
3,0.02560425,-0.2064667,0.9781036,0.9872457,0.01937866,-0.2236786,0.9744568,-32.0943,4.9992980000000005,-29.13702,3.424942,0.5058005,0.4588065999999999,0.9203843,0.03031921,-0.1933136,0.9806519,30.58398,6.773148,-27.3382,3.3396760000000003,0.5667738,0.375436,-0.4437933,1.125265,0.08159976,-0.1016993,0.7357831,0.04605039,1.641723,9.21328,32.03
3,0.02560425,-0.2064667,0.9781036,0.9872457,0.01937866,-0.2236786,0.9744568,-32.0943,4.9992980000000005,-29.13702,3.424942,0.5058005,0.4588065999999999,0.9203843,0.03031921,-0.1933136,0.9806519,30.58398,6.773148,-27.3382,3.3396760000000003,0.5667738,0.375436,-0.4437933,1.125265,0.08159976,-0.1016993,0.7357831,0.04605039,1.641723,9.21328,32.03
3,0.026474,-0.2073059,0.9779053,0.992335,0.01931763,-0.2243804999999999,0.9743042,-32.09396,5.018814,-29.13628,3.41069,0.5058005,0.4582684,0.9090221,0.03215027,-0.1936646,0.9805298,30.586,6.792708999999999,-27.33037,3.338379,0.5663942,0.3747771,-0.4438324999999999,1.125115,0.08152166,-0.1013462,0.7359095999999999,0.04542287,1.641723,9.21328,32.03
3,0.026474,-0.2073059,0.9779053,0.992335,0.01931763,-0.2243804999999999,0.9743042,-32.09396,5.018814,-29.13628,3.41069,0.5058005,0.4582684,0.9090221,0.03215027,-0.1936646,0.9805298,30.586,6.792708999999999,-27.33037,3.338379,0.5663942,0.3747771,-0.4438324999999999,1.125115,0.08152166,-0.1013462,0.7359095999999999,0.04542287,1.641723,9.21328,32.03
3,0.026474,-0.2073059,0.9779053,0.992335,0.01931763,-0.2243804999999999,0.9743042,-32.09396,5.018814,-29.13628,3.41069,0.5058005,0.4582684,0.9090221,0.03215027,-0.1936646,0.9805298,30.586,6.792708999999999,-27.33037,3.338379,0.5663942,0.3747771,-0.4438324999999999,1.125115,0.08152166,-0.1013462,0.7359095999999999,0.04542287,1.641723,9.21328,32.03
3,0.02424622,-0.20401,0.978653,1.0,0.01751709,-0.2191467,0.9755249,-32.09441,5.022476,-29.13593,3.391296,0.5061161,0.457207,1.0,0.02964783,-0.1917572,0.9809875,30.5986,6.80278,-27.32927,3.336731,0.5663942,0.3740705,-0.4437981,1.125033,0.08141813,-0.1009263,0.7360627,0.04535826,1.641723,9.21328,32.03
3,0.02424622,-0.20401,0.978653,1.0,0.01751709,-0.2191467,0.9755249,-32.09441,5.022476,-29.13593,3.391296,0.5061161,0.457207,1.0,0.02964783,-0.1917572,0.9809875,30.5986,6.80278,-27.32927,3.336731,0.5663942,0.3740705,-0.4437981,1.125033,0.08141813,-0.1009263,0.7360627,0.04535826,1.641723,9.21328,32.03
3,0.02424622,-0.20401,0.978653,1.0,0.01751709,-0.2191467,0.9755249,-32.09441,5.022476,-29.13593,3.391296,0.5061161,0.457207,1.0,0.02964783,-0.1917572,0.9809875,30.5986,6.80278,-27.32927,3.336731,0.5663942,0.3740705,-0.4437981,1.125033,0.08141813,-0.1009263,0.7360627,0.04535826,1.641723,9.21328,32.03
3,0.02047729,-0.2003479,0.9795074,0.990437,0.01713562,-0.2189788999999999,0.9755707,-32.09526,5.033157,-29.13545,3.388992,0.5062112,0.4568082,0.9593394,0.02301025,-0.1862488,0.9822235,30.60411,6.809464,-27.32822,3.301117,0.5673298999999999,0.3728438,-0.4437832,1.1249790000000002,0.08138652,-0.1010184,0.7360101,0.04533246,1.641723,9.21328,32.03
3,0.02047729,-0.2003479,0.9795074,0.990437,0.01713562,-0.2189788999999999,0.9755707,-32.09526,5.033157,-29.13545,3.388992,0.5062112,0.4568082,0.9593394,0.02301025,-0.1862488,0.9822235,30.60411,6.809464,-27.32822,3.301117,0.5673298999999999,0.3728438,-0.4437832,1.1249790000000002,0.08138652,-0.1010184,0.7360101,0.04533246,1.641723,9.21328,32.03
3,0.02047729,-0.2003479,0.9795074,0.990437,0.01713562,-0.2189788999999999,0.9755707,-32.09526,5.033157,-29.13545,3.388992,0.5062112,0.4568082,0.9593394,0.02301025,-0.1862488,0.9822235,30.60411,6.809464,-27.32822,3.301117,0.5673298999999999,0.3728438,-0.4437832,1.1249790000000002,0.08138652,-0.1010184,0.7360101,0.04533246,1.641723,9.21328,32.03
3,0.02012634,-0.1968231,0.9802246,0.9980621,0.01713562,-0.2125397,0.9769896999999998,-32.09526,5.037719999999999,-29.13472,3.37207,0.5062112,0.4555054,0.9399407,0.02243042,-0.1846007999999999,0.9825439,30.60732,6.823624000000001,-27.32661,3.3316800000000004,0.5673298999999999,0.3720572,-0.4438102,1.125006,0.08136834,-0.1012088,0.7360916000000001,0.04543792,1.641723,4.542854,32.03
3,0.02012634,-0.1968231,0.9802246,0.9980621,0.01713562,-0.2125397,0.9769896999999998,-32.09526,5.037719999999999,-29.13472,3.37207,0.5062112,0.4555054,0.9399407,0.02243042,-0.1846007999999999,0.9825439,30.60732,6.823624000000001,-27.32661,3.3316800000000004,0.5673298999999999,0.3720572,-0.4438102,1.125006,0.08136834,-0.1012088,0.7360916000000001,0.04543792,1.641723,4.542854,32.03
3,0.02012634,-0.1968231,0.9802246,0.9980621,0.01713562,-0.2125397,0.9769896999999998,-32.09526,5.037719999999999,-29.13472,3.37207,0.5062112,0.4555054,0.9399407,0.02243042,-0.1846007999999999,0.9825439,30.60732,6.823624000000001,-27.32661,3.3316800000000004,0.5673298999999999,0.3720572,-0.4438102,1.125006,0.08136834,-0.1012088,0.7360916000000001,0.04543792,1.641723,4.542854,32.03
3,0.02033997,-0.1978607,0.980011,0.996087,0.01922607,-0.213028,0.9768524,-32.0945,5.050461,-29.13448,3.3930050000000005,0.5058372999999999,0.455158,0.9232005,0.02122498,-0.1857452,0.9823608,30.6138,6.850372,-27.32658,3.37384,0.5673298999999999,0.3713464,-0.443808,1.125108,0.08122687,-0.101321,0.7362055000000001,0.04534275,1.641723,4.542854,32.03
3,0.02033997,-0.1978607,0.980011,0.996087,0.01922607,-0.213028,0.9768524,-32.0945,5.050461,-29.13448,3.3930050000000005,0.5058372999999999,0.455158,0.9232005,0.02122498,-0.1857452,0.9823608,30.6138,6.850372,-27.32658,3.37384,0.5673298999999999,0.3713464,-0.443808,1.125108,0.08122687,-0.101321,0.7362055000000001,0.04534275,1.641723,4.542854,32.03
3,0.02033997,-0.1978607,0.980011,0.996087,0.01922607,-0.213028,0.9768524,-32.0945,5.050461,-29.13448,3.3930050000000005,0.5058372999999999,0.455158,0.9232005,0.02122498,-0.1857452,0.9823608,30.6138,6.850372,-27.32658,3.37384,0.5673298999999999,0.3713464,-0.443808,1.125108,0.08122687,-0.101321,0.7362055000000001,0.04534275,1.641723,4.542854,32.03
3,0.02104187,-0.1966552999999999,0.9802399,0.9813351,0.01991272,-0.2118987999999999,0.9770813,-32.09384,5.050461,-29.13467,3.401779,0.5056999,0.4549669,0.9102169,0.02191162,-0.1846313,0.9825592,30.61668,6.852005,-27.32739,3.373718,0.5671158000000001,0.3710917999999999,-0.4438279,1.125049,0.08124615,-0.1012072,0.7362105999999999,0.04515457,1.641723,4.542854,32.03
3,0.02104187,-0.1966552999999999,0.9802399,0.9813351,0.01991272,-0.2118987999999999,0.9770813,-32.09384,5.050461,-29.13467,3.401779,0.5056999,0.4549669,0.9102169,0.02191162,-0.1846313,0.9825592,30.61668,6.852005,-27.32739,3.373718,0.5671158000000001,0.3710917999999999,-0.4438279,1.125049,0.08124615,-0.1012072,0.7362105999999999,0.04515457,1.641723,4.542854,32.03
3,0.02104187,-0.1966552999999999,0.9802399,0.9813351,0.01991272,-0.2118987999999999,0.9770813,-32.09384,5.050461,-29.13467,3.401779,0.5056999,0.4549669,0.9102169,0.02191162,-0.1846313,0.9825592,30.61668,6.852005,-27.32739,3.373718,0.5671158000000001,0.3710917999999999,-0.4438279,1.125049,0.08124615,-0.1012072,0.7362105999999999,0.04515457,1.641723,4.542854,32.03
3,0.02085876,-0.1941376,0.9807434000000002,0.9945336,0.02018738,-0.2102509,0.9774323,-32.09326,5.049866000000001,-29.1414,3.431976,0.5056381,0.4547465999999999,0.9215089,0.02142334,-0.1807708999999999,0.9832764,30.62845,6.852341,-27.35156,3.389496,0.5668231,0.3705901,-0.4438134,1.125109,0.08116554,-0.1013803,0.7361659,0.04518185,1.641723,4.542854,32.03
3,0.02085876,-0.1941376,0.9807434000000002,0.9945336,0.02018738,-0.2102509,0.9774323,-32.09326,5.049866000000001,-29.1414,3.431976,0.5056381,0.4547465999999999,0.9215089,0.02142334,-0.1807708999999999,0.9832764,30.62845,6.852341,-27.35156,3.389496,0.5668231,0.3705901,-0.4438134,1.125109,0.08116554,-0.1013803,0.7361659,0.04518185,1.641723,4.542854,32.03
3,0.02085876,-0.1941376,0.9807434000000002,0.9945336,0.02018738,-0.2102509,0.9774323,-32.09326,5.049866000000001,-29.1414,3.431976,0.5056381,0.4547465999999999,0.9215089,0.02142334,-0.1807708999999999,0.9832764,30.62845,6.852341,-27.35156,3.389496,0.5668231,0.3705901,-0.4438134,1.125109,0.08116554,-0.1013803,0.7361659,0.04518185,1.641723,4.542854,32.03
3,0.02182007,-0.1929016,0.9809723,0.992707,0.02012634,-0.2099762,0.9774933,-32.09293,5.049866000000001,-29.142670000000003,3.436005,0.5056381,0.4547087,0.8964302,0.02320862,-0.1788635,0.9835968,30.6291,6.852341,-27.36415,3.423141,0.5665131,0.3703475,-0.4438717,1.125148,0.08112745,-0.10126,0.7361865,0.04531346,1.641723,4.542854,32.03
3,0.02182007,-0.1929016,0.9809723,0.992707,0.02012634,-0.2099762,0.9774933,-32.09293,5.049866000000001,-29.142670000000003,3.436005,0.5056381,0.4547087,0.8964302,0.02320862,-0.1788635,0.9835968,30.6291,6.852341,-27.36415,3.423141,0.5665131,0.3703475,-0.4438717,1.125148,0.08112745,-0.10126,0.7361865,0.04531346,1.641723,4.542854,32.03
3,0.02182007,-0.1929016,0.9809723,0.992707,0.02012634,-0.2099762,0.9774933,-32.09293,5.049866000000001,-29.142670000000003,3.436005,0.5056381,0.4547087,0.8964302,0.02320862,-0.1788635,0.9835968,30.6291,6.852341,-27.36415,3.423141,0.5665131,0.3703475,-0.4438717,1.125148,0.08112745,-0.10126,0.7361865,0.04531346,1.641723,4.542854,32.03
3,0.02281189,-0.1917724999999999,0.9811707,0.9839746,0.02134705,-0.2081909,0.9778442,-32.09341,5.053711,-29.144,3.448975,0.5054522,0.4542781,0.8789776,0.0241394,-0.1766357,0.983963,30.62965,6.856292999999999,-27.365070000000003,3.457214,0.5663469,0.3698159,-0.4439311999999999,1.125183,0.08110519,-0.1014282,0.7362597,0.04539192,1.641723,-10.63776,32.03
3,0.02281189,-0.1917724999999999,0.9811707,0.9839746,0.02134705,-0.2081909,0.9778442,-32.09341,5.053711,-29.144,3.448975,0.5054522,0.4542781,0.8789776,0.0241394,-0.1766357,0.983963,30.62965,6.856292999999999,-27.365070000000003,3.457214,0.5663469,0.3698159,-0.4439311999999999,1.125183,0.08110519,-0.1014282,0.7362597,0.04539192,1.641723,-10.63776,32.03
3,0.02281189,-0.1917724999999999,0.9811707,0.9839746,0.02134705,-0.2081909,0.9778442,-32.09341,5.053711,-29.144,3.448975,0.5054522,0.4542781,0.8789776,0.0241394,-0.1766357,0.983963,30.62965,6.856292999999999,-27.365070000000003,3.457214,0.5663469,0.3698159,-0.4439311999999999,1.125183,0.08110519,-0.1014282,0.7362597,0.04539192,1.641723,-10.63776,32.03
3,0.02352905,-0.1893005,0.9816284,0.9891347,0.02293396,-0.2058257999999999,0.978302,-32.0923,5.055939,-29.14526,3.481949,0.5051537,0.4537927,0.9243025,0.02406311,-0.1742706,0.9843903,30.631,6.859299000000001,-27.36562,3.472885,0.5663210999999999,0.3692927,-0.4439662,1.125293,0.08101584,-0.1017093,0.7362329000000001,0.04531902,1.641723,-10.63776,32.03
3,0.02352905,-0.1893005,0.9816284,0.9891347,0.02293396,-0.2058257999999999,0.978302,-32.0923,5.055939,-29.14526,3.481949,0.5051537,0.4537927,0.9243025,0.02406311,-0.1742706,0.9843903,30.631,6.859299000000001,-27.36562,3.472885,0.5663210999999999,0.3692927,-0.4439662,1.125293,0.08101584,-0.1017093,0.7362329000000001,0.04531902,1.641723,-10.63776,32.03
3,0.02352905,-0.1893005,0.9816284,0.9891347,0.02293396,-0.2058257999999999,0.978302,-32.0923,5.055939,-29.14526,3.481949,0.5051537,0.4537927,0.9243025,0.02406311,-0.1742706,0.9843903,30.631,6.859299000000001,-27.36562,3.472885,0.5663210999999999,0.3692927,-0.4439662,1.125293,0.08101584,-0.1017093,0.7362329000000001,0.04531902,1.641723,-10.63776,32.03
3,0.02375793,-0.1905518,0.9813843,1.0,0.02340698,-0.2041016,0.978653,-32.0921,5.057648,-29.145740000000004,3.481873,0.5050688,0.4534372999999999,1.0,0.02406311,-0.178009,0.9837189,30.63135,6.885635000000001,-27.36763,3.5080410000000004,0.5663232,0.3690815999999999,-0.4439157,1.12524,0.08108063,-0.1016859,0.7362968000000001,0.04544437,1.641723,-10.63776,32.03
3,0.02375793,-0.1905518,0.9813843,1.0,0.02340698,-0.2041016,0.978653,-32.0921,5.057648,-29.145740000000004,3.481873,0.5050688,0.4534372999999999,1.0,0.02406311,-0.178009,0.9837189,30.63135,6.885635000000001,-27.36763,3.5080410000000004,0.5663232,0.3690815999999999,-0.4439157,1.12524,0.08108063,-0.1016859,0.7362968000000001,0.04544437,1.641723,-10.63776,32.03
3,0.02375793,-0.1905518,0.9813843,1.0,0.02340698,-0.2041016,0.978653,-32.0921,5.057648,-29.145740000000004,3.481873,0.5050688,0.4534372999999999,1.0,0.02406311,-0.178009,0.9837189,30.63135,6.885635000000001,-27.36763,3.5080410000000004,0.5663232,0.3690815999999999,-0.4439157,1.12524,0.08108063,-0.1016859,0.7362968000000001,0.04544437,1.641723,-10.63776,32.03
4,0.02380371,-0.1849212999999999,0.9824524,0.9921564,0.02337646,-0.2029418999999999,0.9788971,-32.090790000000005,5.061858999999999,-29.14609,3.503143,0.505031,0.453089,0.9161923,0.0241394,-0.1702271,0.9850922,30.63188,6.885895,-27.36925,3.606308,0.5663210999999999,0.367683,-0.4439714,1.12521,0.08103411,-0.1016115,0.7363761,0.04555963,1.641723,-10.63776,32.03
4,0.02380371,-0.1849212999999999,0.9824524,0.9921564,0.02337646,-0.2029418999999999,0.9788971,-32.090790000000005,5.061858999999999,-29.14609,3.503143,0.505031,0.453089,0.9161923,0.0241394,-0.1702271,0.9850922,30.63188,6.885895,-27.36925,3.606308,0.5663210999999999,0.367683,-0.4439714,1.12521,0.08103411,-0.1016115,0.7363761,0.04555963,1.641723,-10.63776,32.03
4,0.02380371,-0.1849212999999999,0.9824524,0.9921564,0.02337646,-0.2029418999999999,0.9788971,-32.090790000000005,5.061858999999999,-29.14609,3.503143,0.505031,0.453089,0.9161923,0.0241394,-0.1702271,0.9850922,30.63188,6.885895,-27.36925,3.606308,0.5663210999999999,0.367683,-0.4439714,1.12521,0.08103411,-0.1016115,0.7363761,0.04555963,1.641723,-10.63776,32.03
4,0.02682495,-0.1821747,0.9828949,0.9915136999999998,0.02433777,-0.201828,0.9791107,-32.09035,5.068665,-29.14719,3.539658,0.5048612,0.4526775999999999,0.8755440999999999,0.02886963,-0.1658936,0.9857178,30.6322,6.893524,-27.3895,3.621033,0.5655344,0.3668198,-0.4439672,1.125167,0.08105172,-0.101525,0.7363616999999999,0.04566858,1.641723,-10.63776,32.03
4,0.02682495,-0.1821747,0.9828949,0.9915136999999998,0.02433777,-0.201828,0.9791107,-32.09035,5.068665,-29.14719,3.539658,0.5048612,0.4526775999999999,0.8755440999999999,0.02886963,-0.1658936,0.9857178,30.6322,6.893524,-27.3895,3.621033,0.5655344,0.3668198,-0.4439672,1.125167,0.08105172,-0.101525,0.7363616999999999,0.04566858,1.641723,-10.63776,32.03
4,0.02682495,-0.1821747,0.9828949,0.9915136999999998,0.02433777,-0.201828,0.9791107,-32.09035,5.068665,-29.14719,3.539658,0.5048612,0.4526775999999999,0.8755440999999999,0.02886963,-0.1658936,0.9857178,30.6322,6.893524,-27.3895,3.621033,0.5655344,0.3668198,-0.4439672,1.125167,0.08105172,-0.101525,0.7363616999999999,0.04566858,1.641723,-10.63776,32.03
4,0.02696228,-0.1805878,0.9831848,0.9812682,0.02416992,-0.1988677999999999,0.9797211,-32.08937,5.071472,-29.14824,3.577286,0.5048612,0.4520624,0.9174873,0.02932739,-0.1649779999999999,0.9858551,30.63188,6.899261,-27.3895,3.63623,0.5654715,0.3664559,-0.4439932,1.125155,0.0812399999999999,-0.1015327999999999,0.736403,0.04585059,1.641723,-9.509674,32.01
4,0.02696228,-0.1805878,0.9831848,0.9812682,0.02416992,-0.1988677999999999,0.9797211,-32.08937,5.071472,-29.14824,3.577286,0.5048612,0.4520624,0.9174873,0.02932739,-0.1649779999999999,0.9858551,30.63188,6.899261,-27.3895,3.63623,0.5654715,0.3664559,-0.4439932,1.125155,0.0812399999999999,-0.1015327999999999,0.736403,0.04585059,1.641723,-9.509674,32.01
4,0.02696228,-0.1805878,0.9831848,0.9812682,0.02416992,-0.1988677999999999,0.9797211,-32.08937,5.071472,-29.14824,3.577286,0.5048612,0.4520624,0.9174873,0.02932739,-0.1649779999999999,0.9858551,30.63188,6.899261,-27.3895,3.63623,0.5654715,0.3664559,-0.4439932,1.125155,0.0812399999999999,-0.1015327999999999,0.736403,0.04585059,1.641723,-9.509674,32.01
4,0.02656555,-0.180069,0.9832916,0.9748408000000002,0.02296448,-0.1976624,0.9799957,-32.08826,5.075974,-29.148640000000004,3.600647,0.505031,0.4517055,0.9614175,0.02938843,-0.1661987,0.9856415,30.63185,6.909805,-27.388690000000004,3.66655,0.5654715,0.3663068,-0.4440156,1.125117,0.08131947,-0.1016799,0.7364361999999999,0.04598944,1.641723,-9.509674,32.01
4,0.02656555,-0.180069,0.9832916,0.9748408000000002,0.02296448,-0.1976624,0.9799957,-32.08826,5.075974,-29.148640000000004,3.600647,0.505031,0.4517055,0.9614175,0.02938843,-0.1661987,0.9856415,30.63185,6.909805,-27.388690000000004,3.66655,0.5654715,0.3663068,-0.4440156,1.125117,0.08131947,-0.1016799,0.7364361999999999,0.04598944,1.641723,-9.509674,32.01
4,0.02656555,-0.180069,0.9832916,0.9748408000000002,0.02296448,-0.1976624,0.9799957,-32.08826,5.075974,-29.148640000000004,3.600647,0.505031,0.4517055,0.9614175,0.02938843,-0.1661987,0.9856415,30.63185,6.909805,-27.388690000000004,3.66655,0.5654715,0.3663068,-0.4440156,1.125117,0.08131947,-0.1016799,0.7364361999999999,0.04598944,1.641723,-9.509674,32.01
4,0.02624512,-0.1795807,0.9833832,0.9918674,0.02114868,-0.198288,0.9799042,-32.0862,5.087128,-29.148640000000004,3.625366000000001,0.5052694000000001,0.4514440999999999,0.9179697,0.03036499,-0.1644135,0.9859161,30.630540000000003,6.9361880000000005,-27.37822,3.704956,0.5653629,0.3649977,-0.4440310999999999,1.125157,0.08118264,-0.1016966,0.7363585,0.04594745,1.641723,-9.509674,32.01
4,0.02624512,-0.1795807,0.9833832,0.9918674,0.02114868,-0.198288,0.9799042,-32.0862,5.087128,-29.148640000000004,3.625366000000001,0.5052694000000001,0.4514440999999999,0.9179697,0.03036499,-0.1644135,0.9859161,30.630540000000003,6.9361880000000005,-27.37822,3.704956,0.5653629,0.3649977,-0.4440310999999999,1.125157,0.08118264,-0.1016966,0.7363585,0.04594745,1.641723,-9.509674,32.01
4,0.02624512,-0.1795807,0.9833832,0.9918674,0.02114868,-0.198288,0.9799042,-32.0862,5.087128,-29.148640000000004,3.625366000000001,0.5052694000000001,0.4514440999999999,0.9179697,0.03036499,-0.1644135,0.9859161,30.630540000000003,6.9361880000000005,-27.37822,3.704956,0.5653629,0.3649977,-0.4440310999999999,1.125157,0.08118264,-0.1016966,0.7363585,0.04594745,1.641723,-9.509674,32.01
4,0.02565002,-0.1808319,0.9831696,0.9882653,0.02108765,-0.1997833,0.979599,-32.085770000000004,5.099273999999999,-29.14693,3.658813,0.5052694000000001,0.4512872,0.9407418,0.02929688,-0.1656494,0.9857483,30.63005,6.946564,-27.37822,3.711731,0.5655639,0.3648598,-0.4439498999999999,1.124988,0.08118965,-0.1014164999999999,0.7362074000000001,0.04589172,1.641723,-9.509674,32.01
4,0.02565002,-0.1808319,0.9831696,0.9882653,0.02108765,-0.1997833,0.979599,-32.085770000000004,5.099273999999999,-29.14693,3.658813,0.5052694000000001,0.4512872,0.9407418,0.02929688,-0.1656494,0.9857483,30.63005,6.946564,-27.37822,3.711731,0.5655639,0.3648598,-0.4439498999999999,1.124988,0.08118965,-0.1014164999999999,0.7362074000000001,0.04589172,1.641723,-9.509674,32.01
4,0.02565002,-0.1808319,0.9831696,0.9882653,0.02108765,-0.1997833,0.979599,-32.085770000000004,5.099273999999999,-29.14693,3.658813,0.5052694000000001,0.4512872,0.9407418,0.02929688,-0.1656494,0.9857483,30.63005,6.946564,-27.37822,3.711731,0.5655639,0.3648598,-0.4439498999999999,1.124988,0.08118965,-0.1014164999999999,0.7362074000000001,0.04589172,1.641723,-9.509674,32.01
4,0.02526855,-0.1804657,0.9832458,0.987586,0.02020264,-0.1970215,0.9801788,-32.08618,5.110352,-29.1456,3.668762,0.5054331,0.4504162,0.9184985,0.02929688,-0.1671753,0.9854889,30.629620000000003,6.958603,-27.37677,3.736908,0.5655863,0.3647048,-0.4439232,1.125097,0.08119912,-0.1014169,0.736197,0.04576463,1.641723,10.29933,32.01
4,0.02526855,-0.1804657,0.9832458,0.987586,0.02020264,-0.1970215,0.9801788,-32.08618,5.110352,-29.1456,3.668762,0.5054331,0.4504162,0.9184985,0.02929688,-0.1671753,0.9854889,30.629620000000003,6.958603,-27.37677,3.736908,0.5655863,0.3647048,-0.4439232,1.125097,0.08119912,-0.1014169,0.736197,0.04576463,1.641723,10.29933,32.01
4,0.02526855,-0.1804657,0.9832458,0.987586,0.02020264,-0.1970215,0.9801788,-32.08618,5.110352,-29.1456,3.668762,0.5054331,0.4504162,0.9184985,0.02929688,-0.1671753,0.9854889,30.629620000000003,6.958603,-27.37677,3.736908,0.5655863,0.3647048,-0.4439232,1.125097,0.08119912,-0.1014169,0.736197,0.04576463,1.641723,10.29933,32.01
4,0.02371216,-0.1823273,0.9829407,0.9806029,0.01947021,-0.1991272,0.9797668,-32.08806,5.143845,-29.14322,3.739166,0.50563,0.4496516,0.9511995,0.02705383,-0.1690369,0.9852295,30.62674,6.968933,-27.37088,3.701263,0.5660542,0.3646432,-0.4439825,1.125032,0.08129217,-0.1010614,0.7361854,0.04535535,1.641723,10.29933,32.01
4,0.02371216,-0.1823273,0.9829407,0.9806029,0.01947021,-0.1991272,0.9797668,-32.08806,5.143845,-29.14322,3.739166,0.50563,0.4496516,0.9511995,0.02705383,-0.1690369,0.9852295,30.62674,6.968933,-27.37088,3.701263,0.5660542,0.3646432,-0.4439825,1.125032,0.08129217,-0.1010614,0.7361854,0.04535535,1.641723,10.29933,32.01
4,0.02371216,-0.1823273,0.9829407,0.9806029,0.01947021,-0.1991272,0.9797668,-32.08806,5.143845,-29.14322,3.739166,0.50563,0.4496516,0.9511995,0.02705383,-0.1690369,0.9852295,30.62674,6.968933,-27.37088,3.701263,0.5660542,0.3646432,-0.4439825,1.125032,0.08129217,-0.1010614,0.7361854,0.04535535,1.641723,10.29933,32.01
4,0.02386475,-0.1815338,0.9830933,0.9772139,0.01959229,-0.1972197999999999,0.9801483,-32.08833,5.144608,-29.14322,3.744019,0.5056196,0.4492839,0.9354103,0.02723694,-0.1690979,0.9852142,30.625840000000004,6.968947999999999,-27.37025,3.711563,0.5660542,0.3646432,-0.4439914000000001,1.124996,0.08134387,-0.1010363,0.7361658,0.04547406,1.641723,10.29933,32.01
4,0.02386475,-0.1815338,0.9830933,0.9772139,0.01959229,-0.1972197999999999,0.9801483,-32.08833,5.144608,-29.14322,3.744019,0.5056196,0.4492839,0.9354103,0.02723694,-0.1690979,0.9852142,30.625840000000004,6.968947999999999,-27.37025,3.711563,0.5660542,0.3646432,-0.4439914000000001,1.124996,0.08134387,-0.1010363,0.7361658,0.04547406,1.641723,10.29933,32.01
4,0.02386475,-0.1815338,0.9830933,0.9772139,0.01959229,-0.1972197999999999,0.9801483,-32.08833,5.144608,-29.14322,3.744019,0.5056196,0.4492839,0.9354103,0.02723694,-0.1690979,0.9852142,30.625840000000004,6.968947999999999,-27.37025,3.711563,0.5660542,0.3646432,-0.4439914000000001,1.124996,0.08134387,-0.1010363,0.7361658,0.04547406,1.641723,10.29933,32.01
4,0.02313232,-0.1814575,0.9831238,0.9745053,0.01893616,-0.1955872,0.9804993,-32.09219,5.149857,-29.1436,3.756073,0.505861,0.4488197,0.9408261999999998,0.02639771,-0.1703796,0.9850159,30.62244,6.975952,-27.369670000000003,3.679718,0.5663062,0.3646284,-0.4440323,1.124985,0.0814575,-0.1012935,0.7361715,0.04548393,1.641723,10.29933,32.01
4,0.02313232,-0.1814575,0.9831238,0.9745053,0.01893616,-0.1955872,0.9804993,-32.09219,5.149857,-29.1436,3.756073,0.505861,0.4488197,0.9408261999999998,0.02639771,-0.1703796,0.9850159,30.62244,6.975952,-27.369670000000003,3.679718,0.5663062,0.3646284,-0.4440323,1.124985,0.0814575,-0.1012935,0.7361715,0.04548393,1.641723,10.29933,32.01
4,0.02313232,-0.1814575,0.9831238,0.9745053,0.01893616,-0.1955872,0.9804993,-32.09219,5.149857,-29.1436,3.756073,0.505861,0.4488197,0.9408261999999998,0.02639771,-0.1703796,0.9850159,30.62244,6.975952,-27.369670000000003,3.679718,0.5663062,0.3646284,-0.4440323,1.124985,0.0814575,-0.1012935,0.7361715,0.04548393,1.641723,10.29933,32.01
4,0.02192688,-0.1822815,0.9829865,0.9608541,0.01739502,-0.1977997,0.980072,-32.09317,5.158981,-29.14497,3.737961,0.5061504,0.4489220999999999,0.9096828,0.02548218,-0.1700134,0.9851074,30.62206,6.975952,-27.36699,3.677887,0.5664718000000001,0.3645381,-0.4441313,1.125029,0.08141175,-0.1009471,0.7361269,0.04555748,1.641723,10.29933,32.01
4,0.02192688,-0.1822815,0.9829865,0.9608541,0.01739502,-0.1977997,0.980072,-32.09317,5.158981,-29.14497,3.737961,0.5061504,0.4489220999999999,0.9096828,0.02548218,-0.1700134,0.9851074,30.62206,6.975952,-27.36699,3.677887,0.5664718000000001,0.3645381,-0.4441313,1.125029,0.08141175,-0.1009471,0.7361269,0.04555748,1.641723,10.29933,32.01
4,0.02192688,-0.1822815,0.9829865,0.9608541,0.01739502,-0.1977997,0.980072,-32.09317,5.158981,-29.14497,3.737961,0.5061504,0.4489220999999999,0.9096828,0.02548218,-0.1700134,0.9851074,30.62206,6.975952,-27.36699,3.677887,0.5664718000000001,0.3645381,-0.4441313,1.125029,0.08141175,-0.1009471,0.7361269,0.04555748,1.641723,10.29933,32.01
4,0.02201843,-0.1820374,0.9830322,0.9843391,0.01689148,-0.1973114,0.9801940999999998,-32.09393,5.165604,-29.14531,3.714478,0.50626,0.4486107,0.9411972,0.02612305,-0.1697693,0.9851227,30.6189,6.981186,-27.3688,3.668121,0.5664718000000001,0.3643407,-0.4442791,1.124963,0.08156322,-0.1008031,0.7362695,0.04555869,1.627631,3.114891,32.01
4,0.02201843,-0.1820374,0.9830322,0.9843391,0.01689148,-0.1973114,0.9801940999999998,-32.09393,5.165604,-29.14531,3.714478,0.50626,0.4486107,0.9411972,0.02612305,-0.1697693,0.9851227,30.6189,6.981186,-27.3688,3.668121,0.5664718000000001,0.3643407,-0.4442791,1.124963,0.08156322,-0.1008031,0.7362695,0.04555869,1.627631,3.114891,32.01
4,0.02201843,-0.1820374,0.9830322,0.9843391,0.01689148,-0.1973114,0.9801940999999998,-32.09393,5.165604,-29.14531,3.714478,0.50626,0.4486107,0.9411972,0.02612305,-0.1697693,0.9851227,30.6189,6.981186,-27.3688,3.668121,0.5664718000000001,0.3643407,-0.4442791,1.124963,0.08156322,-0.1008031,0.7362695,0.04555869,1.627631,3.114891,32.01
4,0.02108765,-0.1809082,0.9832611,0.9656697,0.01373291,-0.1961517,0.9804688,-32.09465,5.171584999999999,-29.14651,3.702698,0.5068126000000001,0.4482155,0.9096618,0.02697754,-0.1686553999999999,0.9852905,30.617140000000003,6.984787,-27.37135,3.671066,0.5663906,0.3640369,-0.4443235,1.124973,0.0814039999999999,-0.1007065,0.7362923000000001,0.04564838,1.627631,3.114891,32.01
4,0.02108765,-0.1809082,0.9832611,0.9656697,0.01373291,-0.1961517,0.9804688,-32.09465,5.171584999999999,-29.14651,3.702698,0.5068126000000001,0.4482155,0.9096618,0.02697754,-0.1686553999999999,0.9852905,30.617140000000003,6.984787,-27.37135,3.671066,0.5663906,0.3640369,-0.4443235,1.124973,0.0814039999999999,-0.1007065,0.7362923000000001,0.04564838,1.627631,3.114891,32.01
4,0.02108765,-0.1809082,0.9832611,0.9656697,0.01373291,-0.1961517,0.9804688,-32.09465,5.171584999999999,-29.14651,3.702698,0.5068126000000001,0.4482155,0.9096618,0.02697754,-0.1686553999999999,0.9852905,30.617140000000003,6.984787,-27.37135,3.671066,0.5663906,0.3640369,-0.4443235,1.124973,0.0814039999999999,-0.1007065,0.7362923000000001,0.04564838,1.627631,3.114891,32.01
4,0.02134705,-0.1783905,0.9837189,0.9754764,0.0138854999999999,-0.1956023999999999,0.9805756,-32.09543,5.173904,-29.14706,3.695786,0.5068126000000001,0.4480474,0.9072899,0.02731323,-0.1645966,0.9859772,30.61597,6.988846000000001,-27.37663,3.698837,0.5663906,0.3632195,-0.4444199,1.125012,0.08128549,-0.1007883999999999,0.7364219,0.04552002,1.627631,3.114891,32.01
4,0.02134705,-0.1783905,0.9837189,0.9754764,0.0138854999999999,-0.1956023999999999,0.9805756,-32.09543,5.173904,-29.14706,3.695786,0.5068126000000001,0.4480474,0.9072899,0.02731323,-0.1645966,0.9859772,30.61597,6.988846000000001,-27.37663,3.698837,0.5663906,0.3632195,-0.4444199,1.125012,0.08128549,-0.1007883999999999,0.7364219,0.04552002,1.627631,3.114891,32.01
4,0.02134705,-0.1783905,0.9837189,0.9754764,0.0138854999999999,-0.1956023999999999,0.9805756,-32.09543,5.173904,-29.14706,3.695786,0.5068126000000001,0.4480474,0.9072899,0.02731323,-0.1645966,0.9859772,30.61597,6.988846000000001,-27.37663,3.698837,0.5663906,0.3632195,-0.4444199,1.125012,0.08128549,-0.1007883999999999,0.7364219,0.04552002,1.627631,3.114891,32.01
4,0.02093506,-0.1782532,0.9837494,0.950515,0.01455688,-0.1941681,0.9808502,-32.095659999999995,5.183578,-29.15051,3.658478,0.5067076,0.4474982,0.9306931,0.02607727,-0.1653595,0.9858856,30.61801,6.995895,-27.38971,3.670059,0.5665319000000001,0.3632195,-0.4444537999999999,1.125024,0.08120094,-0.1007605,0.7366126000000001,0.04535292,1.627631,3.114891,32.01
4,0.02093506,-0.1782532,0.9837494,0.950515,0.01455688,-0.1941681,0.9808502,-32.095659999999995,5.183578,-29.15051,3.658478,0.5067076,0.4474982,0.9306931,0.02607727,-0.1653595,0.9858856,30.61801,6.995895,-27.38971,3.670059,0.5665319000000001,0.3632195,-0.4444537999999999,1.125024,0.08120094,-0.1007605,0.7366126000000001,0.04535292,1.627631,3.114891,32.01
4,0.02093506,-0.1782532,0.9837494,0.950515,0.01455688,-0.1941681,0.9808502,-32.095659999999995,5.183578,-29.15051,3.658478,0.5067076,0.4474982,0.9306931,0.02607727,-0.1653595,0.9858856,30.61801,6.995895,-27.38971,3.670059,0.5665319000000001,0.3632195,-0.4444537999999999,1.125024,0.08120094,-0.1007605,0.7366126000000001,0.04535292,1.627631,3.114891,32.01
4,0.02037048,-0.1785736,0.9837036,0.9604456,0.01586914,-0.193985,0.9808655,-32.09584,5.184464,-29.153,3.634918,0.5064953,0.4474585999999999,0.8987689,0.02404785,-0.1659697999999999,0.9858246,30.62025,6.998352000000001,-27.39255,3.62294,0.5667911999999999,0.3632710999999999,-0.4444399999999999,1.124876,0.08115999,-0.1008115,0.7366102,0.04502745,1.627631,-1.32201,32.01
4,0.02037048,-0.1785736,0.9837036,0.9604456,0.01586914,-0.193985,0.9808655,-32.09584,5.184464,-29.153,3.634918,0.5064953,0.4474585999999999,0.8987689,0.02404785,-0.1659697999999999,0.9858246,30.62025,6.998352000000001,-27.39255,3.62294,0.5667911999999999,0.3632710999999999,-0.4444399999999999,1.124876,0.08115999,-0.1008115,0.7366102,0.04502745,1.627631,-1.32201,32.01
4,0.02037048,-0.1785736,0.9837036,0.9604456,0.01586914,-0.193985,0.9808655,-32.09584,5.184464,-29.153,3.634918,0.5064953,0.4474585999999999,0.8987689,0.02404785,-0.1659697999999999,0.9858246,30.62025,6.998352000000001,-27.39255,3.62294,0.5667911999999999,0.3632710999999999,-0.4444399999999999,1.124876,0.08115999,-0.1008115,0.7366102,0.04502745,1.627631,-1.32201,32.01
4,0.02183533,-0.1782684,0.9837341,0.9805442,0.01712036,-0.1931915,0.9810028,-32.09467,5.184525,-29.1571,3.657883,0.5062478,0.4473479999999999,0.9094193000000002,0.02555847,-0.1663666,0.9857178,30.62215,7.001358,-27.39601,3.629059,0.5664746,0.3632642,-0.4444079000000001,1.12487,0.08107226,-0.1006862,0.7366693,0.04494036,1.627631,-1.32201,32.01
4,0.02183533,-0.1782684,0.9837341,0.9805442,0.01712036,-0.1931915,0.9810028,-32.09467,5.184525,-29.1571,3.657883,0.5062478,0.4473479999999999,0.9094193000000002,0.02555847,-0.1663666,0.9857178,30.62215,7.001358,-27.39601,3.629059,0.5664746,0.3632642,-0.4444079000000001,1.12487,0.08107226,-0.1006862,0.7366693,0.04494036,1.627631,-1.32201,32.01
4,0.02183533,-0.1782684,0.9837341,0.9805442,0.01712036,-0.1931915,0.9810028,-32.09467,5.184525,-29.1571,3.657883,0.5062478,0.4473479999999999,0.9094193000000002,0.02555847,-0.1663666,0.9857178,30.62215,7.001358,-27.39601,3.629059,0.5664746,0.3632642,-0.4444079000000001,1.12487,0.08107226,-0.1006862,0.7366693,0.04494036,1.627631,-1.32201,32.01
4,0.02139282,-0.1779175,0.9838104,0.9826113,0.01759338,-0.1932983,0.9809723,-32.093779999999995,5.1851650000000005,-29.1571,3.645096,0.5061386,0.4473479999999999,0.9128399,0.02444458,-0.1654967999999999,0.9859009,30.62383,7.003265,-27.39844,3.628891,0.5666104000000001,0.3630653,-0.4444259,1.124887,0.08096431,-0.1006283,0.7367564,0.04483683,1.627631,-1.32201,32.01
4,0.02139282,-0.1779175,0.9838104,0.9826113,0.01759338,-0.1932983,0.9809723,-32.093779999999995,5.1851650000000005,-29.1571,3.645096,0.5061386,0.4473479999999999,0.9128399,0.02444458,-0.1654967999999999,0.9859009,30.62383,7.003265,-27.39844,3.628891,0.5666104000000001,0.3630653,-0.4444259,1.124887,0.08096431,-0.1006283,0.7367564,0.04483683,1.627631,-1.32201,32.01
4,0.02139282,-0.1779175,0.9838104,0.9826113,0.01759338,-0.1932983,0.9809723,-32.093779999999995,5.1851650000000005,-29.1571,3.645096,0.5061386,0.4473479999999999,0.9128399,0.02444458,-0.1654967999999999,0.9859009,30.62383,7.003265,-27.39844,3.628891,0.5666104000000001,0.3630653,-0.4444259,1.124887,0.08096431,-0.1006283,0.7367564,0.04483683,1.627631,-1.32201,32.01
4,0.02107239,-0.1758728,0.9841766,0.9680632,0.01818848,-0.1926117,0.9810944,-32.09044,5.19104,-29.1571,3.627777,0.5059249,0.4470238,0.9098954,0.02365112,-0.1608428999999999,0.9866943,30.627640000000003,7.011353,-27.40564,3.628006,0.5666268,0.3620107,-0.4444169,1.124759,0.08105974,-0.100454,0.7367954000000001,0.04460726,1.627631,-1.32201,32.01
4,0.02107239,-0.1758728,0.9841766,0.9680632,0.01818848,-0.1926117,0.9810944,-32.09044,5.19104,-29.1571,3.627777,0.5059249,0.4470238,0.9098954,0.02365112,-0.1608428999999999,0.9866943,30.627640000000003,7.011353,-27.40564,3.628006,0.5666268,0.3620107,-0.4444169,1.124759,0.08105974,-0.100454,0.7367954000000001,0.04460726,1.627631,-1.32201,32.01
4,0.02107239,-0.1758728,0.9841766,0.9680632,0.01818848,-0.1926117,0.9810944,-32.09044,5.19104,-29.1571,3.627777,0.5059249,0.4470238,0.9098954,0.02365112,-0.1608428999999999,0.9866943,30.627640000000003,7.011353,-27.40564,3.628006,0.5666268,0.3620107,-0.4444169,1.124759,0.08105974,-0.100454,0.7367954000000001,0.04460726,1.627631,-1.32201,32.01
4,0.02041626,-0.1755524,0.9842529,0.9615341,0.01754761,-0.1929016,0.9810486,-32.086690000000004,5.197479,-29.156270000000003,3.645035,0.5059068,0.4468595,0.9220269,0.02305603,-0.1595154,0.9869232,30.631090000000004,7.023361,-27.41988,3.642197,0.5666268,0.3614791,-0.4444684,1.124743,0.0809231,-0.1003533,0.7367228,0.04476782,1.627631,-1.32201,32.01
4,0.02041626,-0.1755524,0.9842529,0.9615341,0.01754761,-0.1929016,0.9810486,-32.086690000000004,5.197479,-29.156270000000003,3.645035,0.5059068,0.4468595,0.9220269,0.02305603,-0.1595154,0.9869232,30.631090000000004,7.023361,-27.41988,3.642197,0.5666268,0.3614791,-0.4444684,1.124743,0.0809231,-0.1003533,0.7367228,0.04476782,1.627631,-1.32201,32.01
4,0.02041626,-0.1755524,0.9842529,0.9615341,0.01754761,-0.1929016,0.9810486,-32.086690000000004,5.197479,-29.156270000000003,3.645035,0.5059068,0.4468595,0.9220269,0.02305603,-0.1595154,0.9869232,30.631090000000004,7.023361,-27.41988,3.642197,0.5666268,0.3614791,-0.4444684,1.124743,0.0809231,-0.1003533,0.7367228,0.04476782,1.627631,-1.32201,32.01
4,0.01963806,-0.1781158,0.9838104,0.934423,0.01673889,-0.1923676,0.9811707,-32.07988,5.199081,-29.15521,3.617004,0.5058119000000001,0.4466885,0.9304762,0.02233887,-0.1647339,0.9860687,30.63373,7.046233999999999,-27.42973,3.611572,0.5666605,0.3617102,-0.4444742999999999,1.12476,0.0809546,-0.1005473,0.7367043000000001,0.0450238,1.627631,-1.32201,32.01
4,0.01963806,-0.1781158,0.9838104,0.934423,0.01673889,-0.1923676,0.9811707,-32.07988,5.199081,-29.15521,3.617004,0.5058119000000001,0.4466885,0.9304762,0.02233887,-0.1647339,0.9860687,30.63373,7.046233999999999,-27.42973,3.611572,0.5666605,0.3617102,-0.4444742999999999,1.12476,0.0809546,-0.1005473,0.7367043000000001,0.0450238,1.627631,-1.32201,32.01
4,0.01963806,-0.1781158,0.9838104,0.934423,0.01673889,-0.1923676,0.9811707,-32.07988,5.199081,-29.15521,3.617004,0.5058119000000001,0.4466885,0.9304762,0.02233887,-0.1647339,0.9860687,30.63373,7.046233999999999,-27.42973,3.611572,0.5666605,0.3617102,-0.4444742999999999,1.12476,0.0809546,-0.1005473,0.7367043000000001,0.0450238,1.627631,-1.32201,32.01
4,0.01904297,-0.178772,0.9837036,0.9489833,0.01817322,-0.1918182,0.9812469,-32.07881,5.206543,-29.15521,3.617126,0.5055353,0.4463415,0.8910098,0.0199585,-0.1648102,0.9861145,30.6369,7.058731,-27.43988,3.5956269999999995,0.566963,0.3613754,-0.44441,1.12467,0.08113855,-0.1009128,0.7365624,0.04519856,1.627631,-13.61694,32.01
4,0.01904297,-0.178772,0.9837036,0.9489833,0.01817322,-0.1918182,0.9812469,-32.07881,5.206543,-29.15521,3.617126,0.5055353,0.4463415,0.8910098,0.0199585,-0.1648102,0.9861145,30.6369,7.058731,-27.43988,3.5956269999999995,0.566963,0.3613754,-0.44441,1.12467,0.08113855,-0.1009128,0.7365624,0.04519856,1.627631,-13.61694,32.01
4,0.01904297,-0.178772,0.9837036,0.9489833,0.01817322,-0.1918182,0.9812469,-32.07881,5.206543,-29.15521,3.617126,0.5055353,0.4463415,0.8910098,0.0199585,-0.1648102,0.9861145,30.6369,7.058731,-27.43988,3.5956269999999995,0.566963,0.3613754,-0.44441,1.12467,0.08113855,-0.1009128,0.7365624,0.04519856,1.627631,-13.61694,32.01
4,0.01820374,-0.1819611,0.9831238,0.9472385,0.01847839,-0.1905059999999999,0.9815063,-32.07719,5.209778,-29.15538,3.620316,0.5054305,0.4460052,0.9091758,0.01789856,-0.1722717,0.9848785,30.66331,7.107147,-27.4935,3.578171,0.5664534999999999,0.3614892,-0.4443364999999999,1.12473,0.08123548,-0.1007699,0.73644,0.04509513,1.627631,-13.61694,32.01
4,0.01820374,-0.1819611,0.9831238,0.9472385,0.01847839,-0.1905059999999999,0.9815063,-32.07719,5.209778,-29.15538,3.620316,0.5054305,0.4460052,0.9091758,0.01789856,-0.1722717,0.9848785,30.66331,7.107147,-27.4935,3.578171,0.5664534999999999,0.3614892,-0.4443364999999999,1.12473,0.08123548,-0.1007699,0.73644,0.04509513,1.627631,-13.61694,32.01
4,0.01820374,-0.1819611,0.9831238,0.9472385,0.01847839,-0.1905059999999999,0.9815063,-32.07719,5.209778,-29.15538,3.620316,0.5054305,0.4460052,0.9091758,0.01789856,-0.1722717,0.9848785,30.66331,7.107147,-27.4935,3.578171,0.5664534999999999,0.3614892,-0.4443364999999999,1.12473,0.08123548,-0.1007699,0.73644,0.04509513,1.627631,-13.61694,32.01
4,0.01856995,-0.1802368,0.9834442,0.9477935,0.01815796,-0.1868744,0.9822083,-32.0735,5.213028,-29.155990000000003,3.617188,0.5053626,0.4452531,0.8981984000000001,0.01914978,-0.1711731,0.9850464,30.66516,7.120209,-27.50565,3.5888370000000003,0.566196,0.3609430999999999,-0.4443706,1.124694,0.08118451,-0.1002529,0.7364595,0.045274,1.627631,-13.61694,32.01
4,0.01856995,-0.1802368,0.9834442,0.9477935,0.01815796,-0.1868744,0.9822083,-32.0735,5.213028,-29.155990000000003,3.617188,0.5053626,0.4452531,0.8981984000000001,0.01914978,-0.1711731,0.9850464,30.66516,7.120209,-27.50565,3.5888370000000003,0.566196,0.3609430999999999,-0.4443706,1.124694,0.08118451,-0.1002529,0.7364595,0.045274,1.627631,-13.61694,32.01
4,0.01856995,-0.1802368,0.9834442,0.9477935,0.01815796,-0.1868744,0.9822083,-32.0735,5.213028,-29.155990000000003,3.617188,0.5053626,0.4452531,0.8981984000000001,0.01914978,-0.1711731,0.9850464,30.66516,7.120209,-27.50565,3.5888370000000003,0.566196,0.3609430999999999,-0.4443706,1.124694,0.08118451,-0.1002529,0.7364595,0.045274,1.627631,-13.61694,32.01
4,0.07533264,-0.1923981,0.9784088,0.9213169,0.07427979,-0.1937866,0.9782104,-31.76514,5.211304,-29.18303,3.681564,0.4855635999999999,0.446773,0.9007462,0.07620239,-0.1912384,0.9785767,30.90778,7.079407000000001,-27.486690000000003,3.509109,0.5482026,0.3658805,-0.4443429,1.124794,0.0812176,-0.1004347,0.7362390000000001,0.04525707,1.627631,-13.61694,32.01
4,0.07533264,-0.1923981,0.9784088,0.9213169,0.07427979,-0.1937866,0.9782104,-31.76514,5.211304,-29.18303,3.681564,0.4855635999999999,0.446773,0.9007462,0.07620239,-0.1912384,0.9785767,30.90778,7.079407000000001,-27.486690000000003,3.509109,0.5482026,0.3658805,-0.4443429,1.124794,0.0812176,-0.1004347,0.7362390000000001,0.04525707,1.627631,-13.61694,32.01
4,0.07533264,-0.1923981,0.9784088,0.9213169,0.07427979,-0.1937866,0.9782104,-31.76514,5.211304,-29.18303,3.681564,0.4855635999999999,0.446773,0.9007462,0.07620239,-0.1912384,0.9785767,30.90778,7.079407000000001,-27.486690000000003,3.509109,0.5482026,0.3658805,-0.4443429,1.124794,0.0812176,-0.1004347,0.7362390000000001,0.04525707,1.627631,-13.61694,32.01
4,0.07473755,-0.1969147,0.9775543,0.9325846,0.07441711,-0.1971436,0.9775391,-31.74162,5.2171330000000005,-29.18706,3.674057,0.4847468,0.4471983,0.8636733,0.07499695,-0.1967467999999999,0.9775696,30.94193,7.061234,-27.4995,3.407928,0.5472123000000001,0.3675989,-0.4443319999999999,1.124876,0.081297,-0.1006991,0.7360777,0.04494735,1.627631,-13.61694,32.01
4,0.07473755,-0.1969147,0.9775543,0.9325846,0.07441711,-0.1971436,0.9775391,-31.74162,5.2171330000000005,-29.18706,3.674057,0.4847468,0.4471983,0.8636733,0.07499695,-0.1967467999999999,0.9775696,30.94193,7.061234,-27.4995,3.407928,0.5472123000000001,0.3675989,-0.4443319999999999,1.124876,0.081297,-0.1006991,0.7360777,0.04494735,1.627631,-13.61694,32.01
4,0.07473755,-0.1969147,0.9775543,0.9325846,0.07441711,-0.1971436,0.9775391,-31.74162,5.2171330000000005,-29.18706,3.674057,0.4847468,0.4471983,0.8636733,0.07499695,-0.1967467999999999,0.9775696,30.94193,7.061234,-27.4995,3.407928,0.5472123000000001,0.3675989,-0.4443319999999999,1.124876,0.081297,-0.1006991,0.7360777,0.04494735,1.627631,-13.61694,32.01
4,0.07513428,-0.1962279999999999,0.9776611,0.9369217,0.07575989,-0.1964722,0.9775696,-31.74718,5.217804,-29.18777,3.675797,0.4847084,0.4470686,0.8843095,0.07458496,-0.1959991,0.9777527,30.95032,7.058411,-27.50105,3.434296,0.5470056999999999,0.3675739999999999,-0.4443455,1.124784,0.0814013,-0.1002652,0.7361209,0.04523873,1.627631,7.135189,32.01
4,0.07513428,-0.1962279999999999,0.9776611,0.9369217,0.07575989,-0.1964722,0.9775696,-31.74718,5.217804,-29.18777,3.675797,0.4847084,0.4470686,0.8843095,0.07458496,-0.1959991,0.9777527,30.95032,7.058411,-27.50105,3.434296,0.5470056999999999,0.3675739999999999,-0.4443455,1.124784,0.0814013,-0.1002652,0.7361209,0.04523873,1.627631,7.135189,32.01
4,0.07513428,-0.1962279999999999,0.9776611,0.9369217,0.07575989,-0.1964722,0.9775696,-31.74718,5.217804,-29.18777,3.675797,0.4847084,0.4470686,0.8843095,0.07458496,-0.1959991,0.9777527,30.95032,7.058411,-27.50105,3.434296,0.5470056999999999,0.3675739999999999,-0.4443455,1.124784,0.0814013,-0.1002652,0.7361209,0.04523873,1.627631,7.135189,32.01
4,0.07522583,-0.1951752,0.9778748,0.9164495,0.07627869,-0.1965332,0.9775238000000002,-31.75476,5.218108999999999,-29.18777,3.672745,0.484877,0.4470715999999999,0.8542989,0.07429504,-0.1939697,0.9781799,30.95171,7.0488740000000005,-27.50549,3.427277,0.5470056999999999,0.3675739999999999,-0.4443885,1.124781,0.08131669,-0.100391,0.7361840000000001,0.04539627,1.627631,7.135189,32.01
4,0.07522583,-0.1951752,0.9778748,0.9164495,0.07627869,-0.1965332,0.9775238000000002,-31.75476,5.218108999999999,-29.18777,3.672745,0.484877,0.4470715999999999,0.8542989,0.07429504,-0.1939697,0.9781799,30.95171,7.0488740000000005,-27.50549,3.427277,0.5470056999999999,0.3675739999999999,-0.4443885,1.124781,0.08131669,-0.100391,0.7361840000000001,0.04539627,1.627631,7.135189,32.01
4,0.07522583,-0.1951752,0.9778748,0.9164495,0.07627869,-0.1965332,0.9775238000000002,-31.75476,5.218108999999999,-29.18777,3.672745,0.484877,0.4470715999999999,0.8542989,0.07429504,-0.1939697,0.9781799,30.95171,7.0488740000000005,-27.50549,3.427277,0.5470056999999999,0.3675739999999999,-0.4443885,1.124781,0.08131669,-0.100391,0.7361840000000001,0.04539627,1.627631,7.135189,32.01
5,0.07458496,-0.1955872,0.9778442,0.9222834,0.07539368,-0.1969147,0.9775085,-31.76469,5.220367,-29.18828,3.685501,0.4853640999999999,0.4470661,0.8830549999999999,0.07385254,-0.194397,0.9781341999999998,30.95398,7.049942,-27.50716,3.434311,0.5470056999999999,0.3676237,-0.4443361,1.1248479999999998,0.08131225,-0.1005825,0.7361545,0.04546791,1.627631,7.135189,32.01
5,0.07458496,-0.1955872,0.9778442,0.9222834,0.07539368,-0.1969147,0.9775085,-31.76469,5.220367,-29.18828,3.685501,0.4853640999999999,0.4470661,0.8830549999999999,0.07385254,-0.194397,0.9781341999999998,30.95398,7.049942,-27.50716,3.434311,0.5470056999999999,0.3676237,-0.4443361,1.1248479999999998,0.08131225,-0.1005825,0.7361545,0.04546791,1.627631,7.135189,32.01
5,0.07458496,-0.1955872,0.9778442,0.9222834,0.07539368,-0.1969147,0.9775085,-31.76469,5.220367,-29.18828,3.685501,0.4853640999999999,0.4470661,0.8830549999999999,0.07385254,-0.194397,0.9781341999999998,30.95398,7.049942,-27.50716,3.434311,0.5470056999999999,0.3676237,-0.4443361,1.1248479999999998,0.08131225,-0.1005825,0.7361545,0.04546791,1.627631,7.135189,32.01
5,0.07458496,-0.1955872,0.9778442,0.9222834,0.07539368,-0.1969147,0.9775085,-31.76469,5.220367,-29.18828,3.685501,0.4853640999999999,0.4470661,0.8830549999999999,0.07385254,-0.194397,0.9781341999999998,30.95398,7.049942,-27.50716,3.434311,0.5470056999999999,0.3676237,-0.4442654,1.124863,0.08142352,-0.1005238999999999,0.7360729,0.04596324,1.627631,7.135189,32.01
5,0.07458496,-0.1955872,0.9778442,0.9222834,0.07539368,-0.1969147,0.9775085,-31.76469,5.220367,-29.18828,3.685501,0.4853640999999999,0.4470661,0.8830549999999999,0.07385254,-0.194397,0.9781341999999998,30.95398,7.049942,-27.50716,3.434311,0.5470056999999999,0.3676237,-0.4442654,1.124863,0.08142352,-0.1005238999999999,0.7360729,0.04596324,1.627631,7.135189,32.01
5,0.07458496,-0.1955872,0.9778442,0.9222834,0.07539368,-0.1969147,0.9775085,-31.76469,5.220367,-29.18828,3.685501,0.4853640999999999,0.4470661,0.8830549999999999,0.07385254,-0.194397,0.9781341999999998,30.95398,7.049942,-27.50716,3.434311,0.5470056999999999,0.3676237,-0.4442654,1.124863,0.08142352,-0.1005238999999999,0.7360729,0.04596324,1.627631,7.135189,32.01
