Second,eye_comb_direction_x,eye_comb_direction_y,eye_comb_direction_z,eye_r_openness,eye_r_direction_x,eye_r_direction_y,eye_r_direction_z,eye_r_origin_x,eye_r_origin_y,eye_r_origin_z,eye_r_pupil_diameter,eye_r_pupil_position_x,eye_r_pupil_position_y,eye_l_openness,eye_l_direction_x,eye_l_direction_y,eye_l_direction_z,eye_l_origin_x,eye_l_origin_y,eye_l_origin_z,eye_l_pupil_diameter,eye_l_pupil_position_x,eye_l_pupil_position_y,head_position_x,head_position_y,head_position_z,head_rotation_roll,head_rotation_pitch,head_rotation_yaw,EDA,BVP,TMP
0,-0.02500916,-0.2145996,0.9763794,0.4560877,-0.02500916,-0.2145996,0.9763794,-35.20158,0.57901,-31.08261,3.545364,0.6212888000000001,0.6267232,0.6481236,0.0,0.0,0.0,27.5108,-0.1542511,-26.4057,-1.0,0.6808094,0.5783010999999999,-0.4206064999999999,1.255628,-0.03336832,-0.1403642999999999,0.7469236,0.06257625,0.33863731144216325,0.04713977851026542,31.169293940911366
0,-0.02500916,-0.2145996,0.9763794,0.4560877,-0.02500916,-0.2145996,0.9763794,-35.20158,0.57901,-31.08261,3.545364,0.6212888000000001,0.6267232,0.6481236,0.0,0.0,0.0,27.5108,-0.1542511,-26.4057,-1.0,0.6808094,0.5783010999999999,-0.4206064999999999,1.255628,-0.03336832,-0.1403642999999999,0.7469236,0.06257625,0.33863731144216325,0.04713977851026542,31.169293940911366
0,-0.02500916,-0.2145996,0.9763794,0.4560877,-0.02500916,-0.2145996,0.9763794,-35.20158,0.57901,-31.08261,3.545364,0.6212888000000001,0.6267232,0.6481236,0.0,0.0,0.0,27.5108,-0.1542511,-26.4057,-1.0,0.6808094,0.5783010999999999,-0.4206064999999999,1.255628,-0.03336832,-0.1403642999999999,0.7469236,0.06257625,0.33863731144216325,0.04713977851026542,31.169293940911366
0,-0.02500916,-0.2145996,0.9763794,0.4560877,-0.02500916,-0.2145996,0.9763794,-35.20158,0.57901,-31.08261,3.545364,0.6212888000000001,0.6267232,0.6481236,0.0,0.0,0.0,27.5108,-0.1542511,-26.4057,-1.0,0.6808094,0.5783010999999999,-0.4206064999999999,1.255628,-0.03336832,-0.1403642999999999,0.7469236,0.06257625,0.33863731144216325,0.04713977851026542,31.169293940911366
0,-0.04777527,-0.1341248,0.9898071,0.4979873999999999,-0.04777527,-0.1341248,0.9898071,-35.19615,0.6323241999999999,-31.40028,3.92244,0.625309,0.6136802,0.7528003000000001,0.0,0.0,0.0,27.44194,-0.2454987,-26.34531,-1.0,0.6811560999999999,0.5827399999999999,-0.4206752,1.255615,-0.03339628,-0.1403529,0.7471133000000001,0.06245063,0.33863731144216325,0.04713977851026542,31.169293940911366
0,-0.04777527,-0.1341248,0.9898071,0.4979873999999999,-0.04777527,-0.1341248,0.9898071,-35.19615,0.6323241999999999,-31.40028,3.92244,0.625309,0.6136802,0.7528003000000001,0.0,0.0,0.0,27.44194,-0.2454987,-26.34531,-1.0,0.6811560999999999,0.5827399999999999,-0.4206752,1.255615,-0.03339628,-0.1403529,0.7471133000000001,0.06245063,0.33863731144216325,0.04713977851026542,31.169293940911366
0,-0.04777527,-0.1341248,0.9898071,0.4979873999999999,-0.04777527,-0.1341248,0.9898071,-35.19615,0.6323241999999999,-31.40028,3.92244,0.625309,0.6136802,0.7528003000000001,0.0,0.0,0.0,27.44194,-0.2454987,-26.34531,-1.0,0.6811560999999999,0.5827399999999999,-0.4206752,1.255615,-0.03339628,-0.1403529,0.7471133000000001,0.06245063,0.33863731144216325,0.04713977851026542,31.169293940911366
0,-0.02403259,-0.1123962,0.9933624,0.5829986,-0.04191589,-0.1102905,0.9930115,-35.170759999999994,0.4745789000000001,-30.733320000000003,4.037674,0.6225516999999999,0.6080754,0.8086482,-0.02157593,-0.1126862,0.9933929,27.40913,-0.1651154,-26.237240000000003,3.856461,0.6815479,0.5857114999999999,-0.4206358,1.25557,-0.03337191,-0.1400951,0.7471838000000001,0.06261107,0.33863731144216325,0.04713977851026542,31.169293940911366
0,-0.02403259,-0.1123962,0.9933624,0.5829986,-0.04191589,-0.1102905,0.9930115,-35.170759999999994,0.4745789000000001,-30.733320000000003,4.037674,0.6225516999999999,0.6080754,0.8086482,-0.02157593,-0.1126862,0.9933929,27.40913,-0.1651154,-26.237240000000003,3.856461,0.6815479,0.5857114999999999,-0.4206358,1.25557,-0.03337191,-0.1400951,0.7471838000000001,0.06261107,0.33863731144216325,0.04713977851026542,31.169293940911366
0,-0.02403259,-0.1123962,0.9933624,0.5829986,-0.04191589,-0.1102905,0.9930115,-35.170759999999994,0.4745789000000001,-30.733320000000003,4.037674,0.6225516999999999,0.6080754,0.8086482,-0.02157593,-0.1126862,0.9933929,27.40913,-0.1651154,-26.237240000000003,3.856461,0.6815479,0.5857114999999999,-0.4206358,1.25557,-0.03337191,-0.1400951,0.7471838000000001,0.06261107,0.33863731144216325,0.04713977851026542,31.169293940911366
0,-0.03140259,-0.1074982,0.9936981,0.6057351,-0.0446166999999999,-0.1038361,0.9935913,-35.20712,0.3924561,-30.568590000000004,3.877808,0.6240264,0.6079869999999999,0.8363006,-0.03053284,-0.1077270999999999,0.9936981,27.46121,-0.1446838,-26.30551,3.864212,0.6813685,0.5848296,-0.4205905,1.255526,-0.03335783,-0.1397197999999999,0.7471471,0.06259172,0.33863731144216325,0.04713977851026542,31.169293940911366
0,-0.03140259,-0.1074982,0.9936981,0.6057351,-0.0446166999999999,-0.1038361,0.9935913,-35.20712,0.3924561,-30.568590000000004,3.877808,0.6240264,0.6079869999999999,0.8363006,-0.03053284,-0.1077270999999999,0.9936981,27.46121,-0.1446838,-26.30551,3.864212,0.6813685,0.5848296,-0.4205905,1.255526,-0.03335783,-0.1397197999999999,0.7471471,0.06259172,0.33863731144216325,0.04713977851026542,31.169293940911366
0,-0.03140259,-0.1074982,0.9936981,0.6057351,-0.0446166999999999,-0.1038361,0.9935913,-35.20712,0.3924561,-30.568590000000004,3.877808,0.6240264,0.6079869999999999,0.8363006,-0.03053284,-0.1077270999999999,0.9936981,27.46121,-0.1446838,-26.30551,3.864212,0.6813685,0.5848296,-0.4205905,1.255526,-0.03335783,-0.1397197999999999,0.7471471,0.06259172,0.33863731144216325,0.04713977851026542,31.169293940911366
0,-0.02882385,-0.1075287,0.9937744,0.6050462,-0.03413391,-0.09968567,0.9944305,-35.20393,0.2677002,-30.17772,3.940353,0.6216297,0.6075779,0.8607587999999999,-0.02867126,-0.1077576,0.9937591999999998,27.46085,-0.1463776,-26.36588,3.843643,0.6811616,0.5854689000000001,-0.4205735,1.255502,-0.03331043,-0.1400476,0.7469698,0.06220445,0.33863731144216325,0.04713977851026542,31.169293940911366
0,-0.02882385,-0.1075287,0.9937744,0.6050462,-0.03413391,-0.09968567,0.9944305,-35.20393,0.2677002,-30.17772,3.940353,0.6216297,0.6075779,0.8607587999999999,-0.02867126,-0.1077576,0.9937591999999998,27.46085,-0.1463776,-26.36588,3.843643,0.6811616,0.5854689000000001,-0.4205735,1.255502,-0.03331043,-0.1400476,0.7469698,0.06220445,0.33863731144216325,0.04713977851026542,31.169293940911366
0,-0.02882385,-0.1075287,0.9937744,0.6050462,-0.03413391,-0.09968567,0.9944305,-35.20393,0.2677002,-30.17772,3.940353,0.6216297,0.6075779,0.8607587999999999,-0.02867126,-0.1077576,0.9937591999999998,27.46085,-0.1463776,-26.36588,3.843643,0.6811616,0.5854689000000001,-0.4205735,1.255502,-0.03331043,-0.1400476,0.7469698,0.06220445,0.33863731144216325,0.04713977851026542,31.169293940911366
0,-0.02940369,-0.1069793999999999,0.9938202,0.6056632,-0.03645325,-0.1047516,0.9938202,-35.20624,0.2965851,-30.24016,3.886597,0.622178,0.6080874,0.8643923000000001,-0.02919006,-0.1070404,0.9938202,27.46353,-0.1430053999999999,-26.37152,3.815491,0.6811616,0.5852651,-0.420535,1.255566,-0.03324779,-0.1398849,0.7469161,0.06224289,0.33863731144216325,0.04713977851026542,31.169293940911366
0,-0.02940369,-0.1069793999999999,0.9938202,0.6056632,-0.03645325,-0.1047516,0.9938202,-35.20624,0.2965851,-30.24016,3.886597,0.622178,0.6080874,0.8643923000000001,-0.02919006,-0.1070404,0.9938202,27.46353,-0.1430053999999999,-26.37152,3.815491,0.6811616,0.5852651,-0.420535,1.255566,-0.03324779,-0.1398849,0.7469161,0.06224289,0.33863731144216325,0.04713977851026542,31.169293940911366
0,-0.02940369,-0.1069793999999999,0.9938202,0.6056632,-0.03645325,-0.1047516,0.9938202,-35.20624,0.2965851,-30.24016,3.886597,0.622178,0.6080874,0.8643923000000001,-0.02919006,-0.1070404,0.9938202,27.46353,-0.1430053999999999,-26.37152,3.815491,0.6811616,0.5852651,-0.420535,1.255566,-0.03324779,-0.1398849,0.7469161,0.06224289,0.33863731144216325,0.04713977851026542,31.169293940911366
0,-0.02940369,-0.1069793999999999,0.9938202,0.6056632,-0.03645325,-0.1047516,0.9938202,-35.20624,0.2965851,-30.24016,3.886597,0.622178,0.6080874,0.8643923000000001,-0.02919006,-0.1070404,0.9938202,27.46353,-0.1430053999999999,-26.37152,3.815491,0.6811616,0.5852651,-0.4204901,1.255541,-0.03320913,-0.1397556,0.7470508000000001,0.06219057,0.33863731144216325,0.04713977851026542,31.169293940911366
0,-0.02940369,-0.1069793999999999,0.9938202,0.6056632,-0.03645325,-0.1047516,0.9938202,-35.20624,0.2965851,-30.24016,3.886597,0.622178,0.6080874,0.8643923000000001,-0.02919006,-0.1070404,0.9938202,27.46353,-0.1430053999999999,-26.37152,3.815491,0.6811616,0.5852651,-0.4204901,1.255541,-0.03320913,-0.1397556,0.7470508000000001,0.06219057,0.33863731144216325,0.04713977851026542,31.169293940911366
0,-0.02940369,-0.1069793999999999,0.9938202,0.6056632,-0.03645325,-0.1047516,0.9938202,-35.20624,0.2965851,-30.24016,3.886597,0.622178,0.6080874,0.8643923000000001,-0.02919006,-0.1070404,0.9938202,27.46353,-0.1430053999999999,-26.37152,3.815491,0.6811616,0.5852651,-0.4204901,1.255541,-0.03320913,-0.1397556,0.7470508000000001,0.06219057,0.33863731144216325,0.04713977851026542,31.169293940911366
0,-0.0291748,-0.1094055,0.9935608,0.605169,-0.03860474,-0.1088867,0.9933014,-35.208079999999995,0.319397,-30.26102,3.869476,0.6226414,0.6082481,0.8611134,-0.02853394,-0.1094359999999999,0.993576,27.46503,-0.1347351,-26.38029,3.771729,0.6810074,0.5854689000000001,-0.4204267,1.25549,-0.03321768,-0.1396234999999999,0.7471234999999999,0.06213451,0.33863731144216325,0.04713977851026542,31.169293940911366
0,-0.0291748,-0.1094055,0.9935608,0.605169,-0.03860474,-0.1088867,0.9933014,-35.208079999999995,0.319397,-30.26102,3.869476,0.6226414,0.6082481,0.8611134,-0.02853394,-0.1094359999999999,0.993576,27.46503,-0.1347351,-26.38029,3.771729,0.6810074,0.5854689000000001,-0.4204267,1.25549,-0.03321768,-0.1396234999999999,0.7471234999999999,0.06213451,0.33863731144216325,0.04713977851026542,31.169293940911366
0,-0.0291748,-0.1094055,0.9935608,0.605169,-0.03860474,-0.1088867,0.9933014,-35.208079999999995,0.319397,-30.26102,3.869476,0.6226414,0.6082481,0.8611134,-0.02853394,-0.1094359999999999,0.993576,27.46503,-0.1347351,-26.38029,3.771729,0.6810074,0.5854689000000001,-0.4204267,1.25549,-0.03321768,-0.1396234999999999,0.7471234999999999,0.06213451,0.33863731144216325,0.04713977851026542,31.169293940911366
0,-0.03565979,-0.1151428,0.9927063,0.6200996999999999,-0.03721619,-0.1076964999999999,0.9934845,-35.22661,0.3201904,-30.28767,3.849182,0.623071,0.6082706,0.8695086999999999,-0.03395081,-0.1233673,0.9917755,27.47385,-0.08282471,-26.52859,3.697083,0.6818831999999999,0.5875828000000001,-0.4203941,1.255474,-0.03322164,-0.1396493999999999,0.7471886,0.06211015,0.33863731144216325,0.04713977851026542,31.169293940911366
0,-0.03565979,-0.1151428,0.9927063,0.6200996999999999,-0.03721619,-0.1076964999999999,0.9934845,-35.22661,0.3201904,-30.28767,3.849182,0.623071,0.6082706,0.8695086999999999,-0.03395081,-0.1233673,0.9917755,27.47385,-0.08282471,-26.52859,3.697083,0.6818831999999999,0.5875828000000001,-0.4203941,1.255474,-0.03322164,-0.1396493999999999,0.7471886,0.06211015,0.33863731144216325,0.04713977851026542,31.169293940911366
0,-0.03565979,-0.1151428,0.9927063,0.6200996999999999,-0.03721619,-0.1076964999999999,0.9934845,-35.22661,0.3201904,-30.28767,3.849182,0.623071,0.6082706,0.8695086999999999,-0.03395081,-0.1233673,0.9917755,27.47385,-0.08282471,-26.52859,3.697083,0.6818831999999999,0.5875828000000001,-0.4203941,1.255474,-0.03322164,-0.1396493999999999,0.7471886,0.06211015,0.33863731144216325,0.04713977851026542,31.169293940911366
0,-0.03497314,-0.1199341,0.992157,0.6184364,-0.0355071999999999,-0.1074523999999999,0.9935608,-35.23567,0.3348389,-30.32034,3.766724,0.6231156999999999,0.6079898,0.8808464,-0.03437805,-0.1332092,0.9904785,27.47385,-0.08282471,-26.52859,3.562958,0.6819493000000001,0.5892647,-0.4203825,1.255451,-0.03327191,-0.1395277999999999,0.7473386,0.06195104,0.3436016,1.004719,31.169293940911366
0,-0.03497314,-0.1199341,0.992157,0.6184364,-0.0355071999999999,-0.1074523999999999,0.9935608,-35.23567,0.3348389,-30.32034,3.766724,0.6231156999999999,0.6079898,0.8808464,-0.03437805,-0.1332092,0.9904785,27.47385,-0.08282471,-26.52859,3.562958,0.6819493000000001,0.5892647,-0.4203825,1.255451,-0.03327191,-0.1395277999999999,0.7473386,0.06195104,0.3436016,1.004719,31.169293940911366
0,-0.03497314,-0.1199341,0.992157,0.6184364,-0.0355071999999999,-0.1074523999999999,0.9935608,-35.23567,0.3348389,-30.32034,3.766724,0.6231156999999999,0.6079898,0.8808464,-0.03437805,-0.1332092,0.9904785,27.47385,-0.08282471,-26.52859,3.562958,0.6819493000000001,0.5892647,-0.4203825,1.255451,-0.03327191,-0.1395277999999999,0.7473386,0.06195104,0.3436016,1.004719,31.169293940911366
0,-0.03370667,-0.1261596999999999,0.9914246,0.6253873999999999,-0.03509521,-0.1062469,0.9937134,-35.23567,0.3381348,-30.38228,3.730362,0.6231156999999999,0.6082691,0.8981358,-0.0329895,-0.1364899,0.9900818,27.46184,-0.08282471,-26.52859,3.470245,0.682107,0.5897975999999999,-0.4203023,1.255334,-0.03332378,-0.1392428,0.7473207,0.06152411,0.3436016,1.004719,31.169293940911366
0,-0.03370667,-0.1261596999999999,0.9914246,0.6253873999999999,-0.03509521,-0.1062469,0.9937134,-35.23567,0.3381348,-30.38228,3.730362,0.6231156999999999,0.6082691,0.8981358,-0.0329895,-0.1364899,0.9900818,27.46184,-0.08282471,-26.52859,3.470245,0.682107,0.5897975999999999,-0.4203023,1.255334,-0.03332378,-0.1392428,0.7473207,0.06152411,0.3436016,1.004719,31.169293940911366
0,-0.03370667,-0.1261596999999999,0.9914246,0.6253873999999999,-0.03509521,-0.1062469,0.9937134,-35.23567,0.3381348,-30.38228,3.730362,0.6231156999999999,0.6082691,0.8981358,-0.0329895,-0.1364899,0.9900818,27.46184,-0.08282471,-26.52859,3.470245,0.682107,0.5897975999999999,-0.4203023,1.255334,-0.03332378,-0.1392428,0.7473207,0.06152411,0.3436016,1.004719,31.169293940911366
0,0.08470154,-0.1539459,0.984436,0.6204345,0.07194519,-0.1668701,0.9833374,-34.52094,0.2616577,-30.53525,3.442261,0.5802244000000001,0.6230277,0.8772419,0.08470154,-0.1539459,0.984436,27.96367,-0.2599335,-26.45486,3.334717,0.6447694,0.5979721,-0.4203404,1.255321,-0.0333006,-0.1388807,0.7472354999999999,0.06131898,0.3436016,1.004719,31.169293940911366
0,0.08470154,-0.1539459,0.984436,0.6204345,0.07194519,-0.1668701,0.9833374,-34.52094,0.2616577,-30.53525,3.442261,0.5802244000000001,0.6230277,0.8772419,0.08470154,-0.1539459,0.984436,27.96367,-0.2599335,-26.45486,3.334717,0.6447694,0.5979721,-0.4203404,1.255321,-0.0333006,-0.1388807,0.7472354999999999,0.06131898,0.3436016,1.004719,31.169293940911366
0,0.08470154,-0.1539459,0.984436,0.6204345,0.07194519,-0.1668701,0.9833374,-34.52094,0.2616577,-30.53525,3.442261,0.5802244000000001,0.6230277,0.8772419,0.08470154,-0.1539459,0.984436,27.96367,-0.2599335,-26.45486,3.334717,0.6447694,0.5979721,-0.4203404,1.255321,-0.0333006,-0.1388807,0.7472354999999999,0.06131898,0.3436016,1.004719,31.169293940911366
0,0.08126831,-0.1432953,0.9863281,0.6571178000000001,0.07202148,-0.1671143,0.9832916,-34.52551,0.2962341,-30.609790000000004,3.394272,0.5804095,0.6226218000000001,0.9032715,0.08126831,-0.1432953,0.9863281,28.00136,-0.3219909999999999,-26.48927,3.321411,0.6440893,0.5984825,-0.4203475,1.25527,-0.03333025,-0.1390916,0.7471763000000001,0.06108918,0.3436016,-3.138203,31.169293940911366
0,0.08126831,-0.1432953,0.9863281,0.6571178000000001,0.07202148,-0.1671143,0.9832916,-34.52551,0.2962341,-30.609790000000004,3.394272,0.5804095,0.6226218000000001,0.9032715,0.08126831,-0.1432953,0.9863281,28.00136,-0.3219909999999999,-26.48927,3.321411,0.6440893,0.5984825,-0.4203475,1.25527,-0.03333025,-0.1390916,0.7471763000000001,0.06108918,0.3436016,-3.138203,31.169293940911366
0,0.08126831,-0.1432953,0.9863281,0.6571178000000001,0.07202148,-0.1671143,0.9832916,-34.52551,0.2962341,-30.609790000000004,3.394272,0.5804095,0.6226218000000001,0.9032715,0.08126831,-0.1432953,0.9863281,28.00136,-0.3219909999999999,-26.48927,3.321411,0.6440893,0.5984825,-0.4203475,1.25527,-0.03333025,-0.1390916,0.7471763000000001,0.06108918,0.3436016,-3.138203,31.169293940911366
0,0.07702637,-0.1582947,0.984375,0.6870400999999999,0.07325745,-0.1673126,0.9831696,-34.53264,0.2962341,-30.609890000000004,3.301971,0.5804095,0.6226218000000001,0.9005764,0.08026123,-0.1504974,0.9853363000000002,27.99825,-0.3119812,-26.478240000000003,3.224213,0.6443232,0.599272,-0.4203589,1.255291,-0.03339257,-0.1390312,0.7471126,0.06121096,0.3436016,-3.138203,31.169293940911366
0,0.07702637,-0.1582947,0.984375,0.6870400999999999,0.07325745,-0.1673126,0.9831696,-34.53264,0.2962341,-30.609890000000004,3.301971,0.5804095,0.6226218000000001,0.9005764,0.08026123,-0.1504974,0.9853363000000002,27.99825,-0.3119812,-26.478240000000003,3.224213,0.6443232,0.599272,-0.4203589,1.255291,-0.03339257,-0.1390312,0.7471126,0.06121096,0.3436016,-3.138203,31.169293940911366
0,0.07702637,-0.1582947,0.984375,0.6870400999999999,0.07325745,-0.1673126,0.9831696,-34.53264,0.2962341,-30.609890000000004,3.301971,0.5804095,0.6226218000000001,0.9005764,0.08026123,-0.1504974,0.9853363000000002,27.99825,-0.3119812,-26.478240000000003,3.224213,0.6443232,0.599272,-0.4203589,1.255291,-0.03339257,-0.1390312,0.7471126,0.06121096,0.3436016,-3.138203,31.169293940911366
0,0.07885742,-0.1580505,0.9842682,0.6883121,0.07766724,-0.1660155999999999,0.9830475,-34.54294,0.2871704,-30.60175,3.24559,0.5799755,0.6226069000000001,0.9068002,0.08024597,-0.1485901,0.9856262,27.99353,-0.3148345999999999,-26.47621,3.213821,0.6444763000000001,0.599013,-0.4202617,1.255257,-0.03348632,-0.1390487,0.7472011,0.06094235,0.3436016,-3.138203,31.169293940911366
0,0.07885742,-0.1580505,0.9842682,0.6883121,0.07766724,-0.1660155999999999,0.9830475,-34.54294,0.2871704,-30.60175,3.24559,0.5799755,0.6226069000000001,0.9068002,0.08024597,-0.1485901,0.9856262,27.99353,-0.3148345999999999,-26.47621,3.213821,0.6444763000000001,0.599013,-0.4202617,1.255257,-0.03348632,-0.1390487,0.7472011,0.06094235,0.3436016,-3.138203,31.169293940911366
0,0.07885742,-0.1580505,0.9842682,0.6883121,0.07766724,-0.1660155999999999,0.9830475,-34.54294,0.2871704,-30.60175,3.24559,0.5799755,0.6226069000000001,0.9068002,0.08024597,-0.1485901,0.9856262,27.99353,-0.3148345999999999,-26.47621,3.213821,0.6444763000000001,0.599013,-0.4202617,1.255257,-0.03348632,-0.1390487,0.7472011,0.06094235,0.3436016,-3.138203,31.169293940911366
0,0.07887268,-0.1568297999999999,0.9844666,0.6979083,0.07710266,-0.1637573,0.9834747,-34.545759999999994,0.2871245999999999,-30.59598,3.253143,0.5801641,0.6221321,0.9005940999999998,0.08094788,-0.1486359,0.9855652,27.99202,-0.3145447,-26.47614,3.1914830000000003,0.6443973000000001,0.5989969,-0.4202253999999999,1.255263,-0.03359365,-0.1392007,0.7473806,0.06064168,0.3436016,-3.138203,31.169293940911366
0,0.07887268,-0.1568297999999999,0.9844666,0.6979083,0.07710266,-0.1637573,0.9834747,-34.545759999999994,0.2871245999999999,-30.59598,3.253143,0.5801641,0.6221321,0.9005940999999998,0.08094788,-0.1486359,0.9855652,27.99202,-0.3145447,-26.47614,3.1914830000000003,0.6443973000000001,0.5989969,-0.4202253999999999,1.255263,-0.03359365,-0.1392007,0.7473806,0.06064168,0.3436016,-3.138203,31.169293940911366
0,0.07887268,-0.1568297999999999,0.9844666,0.6979083,0.07710266,-0.1637573,0.9834747,-34.545759999999994,0.2871245999999999,-30.59598,3.253143,0.5801641,0.6221321,0.9005940999999998,0.08094788,-0.1486359,0.9855652,27.99202,-0.3145447,-26.47614,3.1914830000000003,0.6443973000000001,0.5989969,-0.4202253999999999,1.255263,-0.03359365,-0.1392007,0.7473806,0.06064168,0.3436016,-3.138203,31.169293940911366
0,0.08180237,-0.1503905999999999,0.9852295,0.724508,0.08032227,-0.1533051,0.9848938,-34.556059999999995,0.2749481,-30.59041,3.24556,0.5799350000000001,0.6206023,0.9203861,0.0834198,-0.1471863,0.9855804,27.98488,-0.3094177,-26.465770000000003,3.16362,0.6441913,0.5984651,-0.4202577999999999,1.255259,-0.03366338,-0.1393481,0.7475109000000001,0.0606915999999999,0.3436016,-3.138203,31.169293940911366
0,0.08180237,-0.1503905999999999,0.9852295,0.724508,0.08032227,-0.1533051,0.9848938,-34.556059999999995,0.2749481,-30.59041,3.24556,0.5799350000000001,0.6206023,0.9203861,0.0834198,-0.1471863,0.9855804,27.98488,-0.3094177,-26.465770000000003,3.16362,0.6441913,0.5984651,-0.4202577999999999,1.255259,-0.03366338,-0.1393481,0.7475109000000001,0.0606915999999999,0.3436016,-3.138203,31.169293940911366
0,0.08180237,-0.1503905999999999,0.9852295,0.724508,0.08032227,-0.1533051,0.9848938,-34.556059999999995,0.2749481,-30.59041,3.24556,0.5799350000000001,0.6206023,0.9203861,0.0834198,-0.1471863,0.9855804,27.98488,-0.3094177,-26.465770000000003,3.16362,0.6441913,0.5984651,-0.4202577999999999,1.255259,-0.03366338,-0.1393481,0.7475109000000001,0.0606915999999999,0.3436016,-3.138203,31.169293940911366
0,0.08296204,-0.1472015,0.985611,0.7169191999999999,0.08250427,-0.151535,0.9850006,-34.556059999999995,0.2749481,-30.59041,3.18338,0.5795294,0.6202522,0.9193708,0.08360291,-0.1410674999999999,0.9864502,27.983220000000003,-0.3145447,-26.465770000000003,3.133163,0.6441913,0.5975276999999999,-0.4203537999999999,1.2552450000000002,-0.0337176999999999,-0.1395471,0.7476184,0.06068788,0.3436016,-3.138203,31.169293940911366
0,0.08296204,-0.1472015,0.985611,0.7169191999999999,0.08250427,-0.151535,0.9850006,-34.556059999999995,0.2749481,-30.59041,3.18338,0.5795294,0.6202522,0.9193708,0.08360291,-0.1410674999999999,0.9864502,27.983220000000003,-0.3145447,-26.465770000000003,3.133163,0.6441913,0.5975276999999999,-0.4203537999999999,1.2552450000000002,-0.0337176999999999,-0.1395471,0.7476184,0.06068788,0.3436016,-3.138203,31.169293940911366
0,0.08296204,-0.1472015,0.985611,0.7169191999999999,0.08250427,-0.151535,0.9850006,-34.556059999999995,0.2749481,-30.59041,3.18338,0.5795294,0.6202522,0.9193708,0.08360291,-0.1410674999999999,0.9864502,27.983220000000003,-0.3145447,-26.465770000000003,3.133163,0.6441913,0.5975276999999999,-0.4203537999999999,1.2552450000000002,-0.0337176999999999,-0.1395471,0.7476184,0.06068788,0.3436016,-3.138203,31.169293940911366
0,0.08396912,-0.1465454,0.9856262,0.7158313000000001,0.08343506,-0.1512299,0.9849548,-34.55348,0.2804871,-30.60551,3.1465,0.5792764,0.6201380999999999,0.9347897,0.08459473,-0.1409302,0.9863892,27.98395,-0.3040314,-26.46635,3.13176,0.6439973000000001,0.5971451,-0.4205456,1.255258,-0.03375195,-0.1396329999999999,0.7477314,0.06076172,0.3436016,-9.720901,31.169293940911366
0,0.08396912,-0.1465454,0.9856262,0.7158313000000001,0.08343506,-0.1512299,0.9849548,-34.55348,0.2804871,-30.60551,3.1465,0.5792764,0.6201380999999999,0.9347897,0.08459473,-0.1409302,0.9863892,27.98395,-0.3040314,-26.46635,3.13176,0.6439973000000001,0.5971451,-0.4205456,1.255258,-0.03375195,-0.1396329999999999,0.7477314,0.06076172,0.3436016,-9.720901,31.169293940911366
0,0.08396912,-0.1465454,0.9856262,0.7158313000000001,0.08343506,-0.1512299,0.9849548,-34.55348,0.2804871,-30.60551,3.1465,0.5792764,0.6201380999999999,0.9347897,0.08459473,-0.1409302,0.9863892,27.98395,-0.3040314,-26.46635,3.13176,0.6439973000000001,0.5971451,-0.4205456,1.255258,-0.03375195,-0.1396329999999999,0.7477314,0.06076172,0.3436016,-9.720901,31.169293940911366
0,0.08207703,-0.1462097,0.9858398000000002,0.7239287,0.08184814,-0.1511992999999999,0.9850922,-34.54076,0.2823486,-30.60893,3.146393,0.5791153,0.6201063,0.9280469,0.08232117,-0.1408539,0.9865875,27.98502,-0.3007507,-26.46747,3.118927,0.6443452,0.5970297,-0.4205456,1.255258,-0.03375195,-0.1396329999999999,0.7477314,0.06076172,0.3436016,-9.720901,31.169293940911366
0,0.08207703,-0.1462097,0.9858398000000002,0.7239287,0.08184814,-0.1511992999999999,0.9850922,-34.54076,0.2823486,-30.60893,3.146393,0.5791153,0.6201063,0.9280469,0.08232117,-0.1408539,0.9865875,27.98502,-0.3007507,-26.46747,3.118927,0.6443452,0.5970297,-0.4205456,1.255258,-0.03375195,-0.1396329999999999,0.7477314,0.06076172,0.3436016,-9.720901,31.169293940911366
0,0.08207703,-0.1462097,0.9858398000000002,0.7239287,0.08184814,-0.1511992999999999,0.9850922,-34.54076,0.2823486,-30.60893,3.146393,0.5791153,0.6201063,0.9280469,0.08232117,-0.1408539,0.9865875,27.98502,-0.3007507,-26.46747,3.118927,0.6443452,0.5970297,-0.4205456,1.255258,-0.03375195,-0.1396329999999999,0.7477314,0.06076172,0.3436016,-9.720901,31.169293940911366
0,0.07940674,-0.1430053999999999,0.9865265,0.728454,0.07881165,-0.1496124,0.9855957,-34.52573,0.2843627999999999,-30.61484,3.123428,0.5791153,0.6197814,0.931878,0.08001709,-0.1361542,0.987442,27.98907,-0.2926178,-26.48825,3.131424,0.6446274999999999,0.5961185999999999,-0.4206501,1.255289,-0.03384129,-0.1398039999999999,0.7475939,0.06090618,0.3436016,-9.720901,31.169293940911366
0,0.07940674,-0.1430053999999999,0.9865265,0.728454,0.07881165,-0.1496124,0.9855957,-34.52573,0.2843627999999999,-30.61484,3.123428,0.5791153,0.6197814,0.931878,0.08001709,-0.1361542,0.987442,27.98907,-0.2926178,-26.48825,3.131424,0.6446274999999999,0.5961185999999999,-0.4206501,1.255289,-0.03384129,-0.1398039999999999,0.7475939,0.06090618,0.3436016,-9.720901,31.169293940911366
0,0.07940674,-0.1430053999999999,0.9865265,0.728454,0.07881165,-0.1496124,0.9855957,-34.52573,0.2843627999999999,-30.61484,3.123428,0.5791153,0.6197814,0.931878,0.08001709,-0.1361542,0.987442,27.98907,-0.2926178,-26.48825,3.131424,0.6446274999999999,0.5961185999999999,-0.4206501,1.255289,-0.03384129,-0.1398039999999999,0.7475939,0.06090618,0.3436016,-9.720901,31.169293940911366
0,0.07733154,-0.1356201,0.9877319,0.7184477,0.07557678,-0.1474762,0.9861603,-34.510670000000005,0.2932434,-30.62375,3.133759,0.5791611999999999,0.6191696999999999,0.9261231,0.07913208,-0.1233214999999999,0.9891968,28.00102,-0.2832336,-26.48903,3.155243,0.6443571,0.5935246999999999,-0.4207995,1.255407,-0.03383828,-0.1400374,0.7475166999999999,0.0611994,0.3436016,-9.720901,31.169293940911366
0,0.07733154,-0.1356201,0.9877319,0.7184477,0.07557678,-0.1474762,0.9861603,-34.510670000000005,0.2932434,-30.62375,3.133759,0.5791611999999999,0.6191696999999999,0.9261231,0.07913208,-0.1233214999999999,0.9891968,28.00102,-0.2832336,-26.48903,3.155243,0.6443571,0.5935246999999999,-0.4207995,1.255407,-0.03383828,-0.1400374,0.7475166999999999,0.0611994,0.3436016,-9.720901,31.169293940911366
0,0.07733154,-0.1356201,0.9877319,0.7184477,0.07557678,-0.1474762,0.9861603,-34.510670000000005,0.2932434,-30.62375,3.133759,0.5791611999999999,0.6191696999999999,0.9261231,0.07913208,-0.1233214999999999,0.9891968,28.00102,-0.2832336,-26.48903,3.155243,0.6443571,0.5935246999999999,-0.4207995,1.255407,-0.03383828,-0.1400374,0.7475166999999999,0.0611994,0.3436016,-9.720901,31.169293940911366
0,0.09422302,-0.09806824,0.9906921,0.7418055,0.05055237,-0.1178588999999999,0.9917296999999998,-34.524840000000005,0.7673949999999999,-31.66129,3.138062,0.5848415,0.6079945999999999,0.9694702,0.09474182,-0.09783936,0.9906769,27.91313,-0.04045105,-26.57838,3.130219,0.6447467,0.5817368,-0.4210922,1.255545,-0.03380935,-0.141238,0.7471963,0.06198364,0.3436016,1.739096,31.169293940911366
0,0.09422302,-0.09806824,0.9906921,0.7418055,0.05055237,-0.1178588999999999,0.9917296999999998,-34.524840000000005,0.7673949999999999,-31.66129,3.138062,0.5848415,0.6079945999999999,0.9694702,0.09474182,-0.09783936,0.9906769,27.91313,-0.04045105,-26.57838,3.130219,0.6447467,0.5817368,-0.4210922,1.255545,-0.03380935,-0.141238,0.7471963,0.06198364,0.3436016,1.739096,31.169293940911366
0,0.09422302,-0.09806824,0.9906921,0.7418055,0.05055237,-0.1178588999999999,0.9917296999999998,-34.524840000000005,0.7673949999999999,-31.66129,3.138062,0.5848415,0.6079945999999999,0.9694702,0.09474182,-0.09783936,0.9906769,27.91313,-0.04045105,-26.57838,3.130219,0.6447467,0.5817368,-0.4210922,1.255545,-0.03380935,-0.141238,0.7471963,0.06198364,0.3436016,1.739096,31.169293940911366
0,-1.0,-1.0,-1.0,0.6683144,0.0,0.0,0.0,-34.30705,1.710632,-32.02588,-1.0,0.5772012,0.5504618,0.9457519,0.0,0.0,0.0,27.77519,0.9883423,-27.2,-1.0,0.6478965999999999,0.5180786000000001,-0.4212440999999999,1.255726,-0.03379735,-0.1417861,0.7472138,0.06231452,0.3436016,1.739096,31.169293940911366
0,-1.0,-1.0,-1.0,0.6683144,0.0,0.0,0.0,-34.30705,1.710632,-32.02588,-1.0,0.5772012,0.5504618,0.9457519,0.0,0.0,0.0,27.77519,0.9883423,-27.2,-1.0,0.6478965999999999,0.5180786000000001,-0.4212440999999999,1.255726,-0.03379735,-0.1417861,0.7472138,0.06231452,0.3436016,1.739096,31.169293940911366
0,-1.0,-1.0,-1.0,0.6683144,0.0,0.0,0.0,-34.30705,1.710632,-32.02588,-1.0,0.5772012,0.5504618,0.9457519,0.0,0.0,0.0,27.77519,0.9883423,-27.2,-1.0,0.6478965999999999,0.5180786000000001,-0.4212440999999999,1.255726,-0.03379735,-0.1417861,0.7472138,0.06231452,0.3436016,1.739096,31.169293940911366
0,-1.0,-1.0,-1.0,0.7003871,0.0,0.0,0.0,-34.30705,1.710632,-32.02588,-1.0,0.5772012,0.5504618,0.9431431,0.0,0.0,0.0,27.77519,0.9883423,-27.2,-1.0,0.6478965999999999,0.5180786000000001,-0.4214011,1.255861,-0.03382403,-0.142454,0.7473149,0.06243334,0.3436016,1.739096,31.169293940911366
0,-1.0,-1.0,-1.0,0.7003871,0.0,0.0,0.0,-34.30705,1.710632,-32.02588,-1.0,0.5772012,0.5504618,0.9431431,0.0,0.0,0.0,27.77519,0.9883423,-27.2,-1.0,0.6478965999999999,0.5180786000000001,-0.4214011,1.255861,-0.03382403,-0.142454,0.7473149,0.06243334,0.3436016,1.739096,31.169293940911366
0,-1.0,-1.0,-1.0,0.7003871,0.0,0.0,0.0,-34.30705,1.710632,-32.02588,-1.0,0.5772012,0.5504618,0.9431431,0.0,0.0,0.0,27.77519,0.9883423,-27.2,-1.0,0.6478965999999999,0.5180786000000001,-0.4214011,1.255861,-0.03382403,-0.142454,0.7473149,0.06243334,0.3436016,1.739096,31.169293940911366
0,-1.0,-1.0,-1.0,0.7003871,0.0,0.0,0.0,-34.30705,1.710632,-32.02588,-1.0,0.5772012,0.5504618,0.9431431,0.0,0.0,0.0,27.77519,0.9883423,-27.2,-1.0,0.6478965999999999,0.5180786000000001,-0.4215387,1.25583,-0.03376346,-0.1421928999999999,0.7475663,0.06279385,0.3436016,1.739096,31.169293940911366
0,-1.0,-1.0,-1.0,0.7003871,0.0,0.0,0.0,-34.30705,1.710632,-32.02588,-1.0,0.5772012,0.5504618,0.9431431,0.0,0.0,0.0,27.77519,0.9883423,-27.2,-1.0,0.6478965999999999,0.5180786000000001,-0.4215387,1.25583,-0.03376346,-0.1421928999999999,0.7475663,0.06279385,0.3436016,1.739096,31.169293940911366
0,-1.0,-1.0,-1.0,0.7003871,0.0,0.0,0.0,-34.30705,1.710632,-32.02588,-1.0,0.5772012,0.5504618,0.9431431,0.0,0.0,0.0,27.77519,0.9883423,-27.2,-1.0,0.6478965999999999,0.5180786000000001,-0.4215387,1.25583,-0.03376346,-0.1421928999999999,0.7475663,0.06279385,0.3436016,1.739096,31.169293940911366
0,0.06576538,0.08027649,0.9945984,1.0,0.06542969,0.07997131,0.9946442,-34.2925,1.707886,-31.74825,3.375397,0.5739533,0.5415085,1.0,0.09248352,0.1045532,0.9902039,27.77496,0.8484191999999999,-26.40688,3.350006,0.6494653,0.5154403000000001,-0.421887,1.2561209999999998,-0.03392373,-0.1431635,0.7475309,0.06290063,0.3436016,1.739096,31.169293940911366
0,0.06576538,0.08027649,0.9945984,1.0,0.06542969,0.07997131,0.9946442,-34.2925,1.707886,-31.74825,3.375397,0.5739533,0.5415085,1.0,0.09248352,0.1045532,0.9902039,27.77496,0.8484191999999999,-26.40688,3.350006,0.6494653,0.5154403000000001,-0.421887,1.2561209999999998,-0.03392373,-0.1431635,0.7475309,0.06290063,0.3436016,1.739096,31.169293940911366
0,0.06576538,0.08027649,0.9945984,1.0,0.06542969,0.07997131,0.9946442,-34.2925,1.707886,-31.74825,3.375397,0.5739533,0.5415085,1.0,0.09248352,0.1045532,0.9902039,27.77496,0.8484191999999999,-26.40688,3.350006,0.6494653,0.5154403000000001,-0.421887,1.2561209999999998,-0.03392373,-0.1431635,0.7475309,0.06290063,0.3436016,1.739096,31.169293940911366
0,0.07936096,0.09593201,0.9922028,1.0,0.07922363,0.09585571,0.9922333,-34.31412,1.623367,-31.60173,3.36792,0.5721463999999999,0.5402668,1.0,0.09269714,0.1032104,0.9903259,27.77516,0.6767426,-25.96027,3.362549,0.6487991,0.5173377,-0.4220928,1.256203,-0.0339472,-0.1430987999999999,0.7475864000000001,0.06308459,0.3436016,3.557949,31.169293940911366
0,0.07936096,0.09593201,0.9922028,1.0,0.07922363,0.09585571,0.9922333,-34.31412,1.623367,-31.60173,3.36792,0.5721463999999999,0.5402668,1.0,0.09269714,0.1032104,0.9903259,27.77516,0.6767426,-25.96027,3.362549,0.6487991,0.5173377,-0.4220928,1.256203,-0.0339472,-0.1430987999999999,0.7475864000000001,0.06308459,0.3436016,3.557949,31.169293940911366
0,0.07936096,0.09593201,0.9922028,1.0,0.07922363,0.09585571,0.9922333,-34.31412,1.623367,-31.60173,3.36792,0.5721463999999999,0.5402668,1.0,0.09269714,0.1032104,0.9903259,27.77516,0.6767426,-25.96027,3.362549,0.6487991,0.5173377,-0.4220928,1.256203,-0.0339472,-0.1430987999999999,0.7475864000000001,0.06308459,0.3436016,3.557949,31.169293940911366
1,0.07887268,0.1004639,0.991806,1.0,0.07156372,0.0965271,0.9927521,-34.31937,1.572113,-31.58147,3.494156,0.5737013000000001,0.5418430999999999,1.0,0.09243774,0.1077881,0.9898529,27.78802,0.6542969,-25.92696,3.396561,0.6483715999999999,0.5170428,-0.4222456,1.256257,-0.03407512,-0.1436525,0.7475014,0.06334946,0.3436016,3.557949,31.169293940911366
1,0.07887268,0.1004639,0.991806,1.0,0.07156372,0.0965271,0.9927521,-34.31937,1.572113,-31.58147,3.494156,0.5737013000000001,0.5418430999999999,1.0,0.09243774,0.1077881,0.9898529,27.78802,0.6542969,-25.92696,3.396561,0.6483715999999999,0.5170428,-0.4222456,1.256257,-0.03407512,-0.1436525,0.7475014,0.06334946,0.3436016,3.557949,31.169293940911366
1,0.07887268,0.1004639,0.991806,1.0,0.07156372,0.0965271,0.9927521,-34.31937,1.572113,-31.58147,3.494156,0.5737013000000001,0.5418430999999999,1.0,0.09243774,0.1077881,0.9898529,27.78802,0.6542969,-25.92696,3.396561,0.6483715999999999,0.5170428,-0.4222456,1.256257,-0.03407512,-0.1436525,0.7475014,0.06334946,0.3436016,3.557949,31.169293940911366
1,0.07887268,0.1004639,0.991806,1.0,0.07156372,0.0965271,0.9927521,-34.31937,1.572113,-31.58147,3.494156,0.5737013000000001,0.5418430999999999,1.0,0.09243774,0.1077881,0.9898529,27.78802,0.6542969,-25.92696,3.396561,0.6483715999999999,0.5170428,-0.4224191,1.256347,-0.03405219,-0.1442021,0.7474704000000001,0.06367907,0.3436016,3.557949,31.169293940911366
1,0.07887268,0.1004639,0.991806,1.0,0.07156372,0.0965271,0.9927521,-34.31937,1.572113,-31.58147,3.494156,0.5737013000000001,0.5418430999999999,1.0,0.09243774,0.1077881,0.9898529,27.78802,0.6542969,-25.92696,3.396561,0.6483715999999999,0.5170428,-0.4224191,1.256347,-0.03405219,-0.1442021,0.7474704000000001,0.06367907,0.3436016,3.557949,31.169293940911366
1,0.07887268,0.1004639,0.991806,1.0,0.07156372,0.0965271,0.9927521,-34.31937,1.572113,-31.58147,3.494156,0.5737013000000001,0.5418430999999999,1.0,0.09243774,0.1077881,0.9898529,27.78802,0.6542969,-25.92696,3.396561,0.6483715999999999,0.5170428,-0.4224191,1.256347,-0.03405219,-0.1442021,0.7474704000000001,0.06367907,0.3436016,3.557949,31.169293940911366
1,0.08700562,0.1028595,0.9908752,1.0,0.07568359,0.08877563,0.9931641,-34.320370000000004,1.560165,-31.57298,3.469284,0.5730116,0.5434838000000001,1.0,0.09228516,0.1094359999999999,0.9896851,27.7928,0.6356963999999999,-25.91129,3.402023,0.6482149,0.5172462,-0.4225022,1.256564,-0.03404238,-0.1447602,0.7474137,0.06426878,0.3436016,3.557949,31.169293940911366
1,0.08700562,0.1028595,0.9908752,1.0,0.07568359,0.08877563,0.9931641,-34.320370000000004,1.560165,-31.57298,3.469284,0.5730116,0.5434838000000001,1.0,0.09228516,0.1094359999999999,0.9896851,27.7928,0.6356963999999999,-25.91129,3.402023,0.6482149,0.5172462,-0.4225022,1.256564,-0.03404238,-0.1447602,0.7474137,0.06426878,0.3436016,3.557949,31.169293940911366
1,0.08700562,0.1028595,0.9908752,1.0,0.07568359,0.08877563,0.9931641,-34.320370000000004,1.560165,-31.57298,3.469284,0.5730116,0.5434838000000001,1.0,0.09228516,0.1094359999999999,0.9896851,27.7928,0.6356963999999999,-25.91129,3.402023,0.6482149,0.5172462,-0.4225022,1.256564,-0.03404238,-0.1447602,0.7474137,0.06426878,0.3436016,3.557949,31.169293940911366
1,0.08700562,0.1028595,0.9908752,1.0,0.07568359,0.08877563,0.9931641,-34.320370000000004,1.560165,-31.57298,3.469284,0.5730116,0.5434838000000001,1.0,0.09228516,0.1094359999999999,0.9896851,27.7928,0.6356963999999999,-25.91129,3.402023,0.6482149,0.5172462,-0.4225469,1.256709,-0.03414625,-0.1452128999999999,0.7473687,0.06455659,0.3436016,2.943747,31.169293940911366
1,0.08700562,0.1028595,0.9908752,1.0,0.07568359,0.08877563,0.9931641,-34.320370000000004,1.560165,-31.57298,3.469284,0.5730116,0.5434838000000001,1.0,0.09228516,0.1094359999999999,0.9896851,27.7928,0.6356963999999999,-25.91129,3.402023,0.6482149,0.5172462,-0.4225469,1.256709,-0.03414625,-0.1452128999999999,0.7473687,0.06455659,0.3436016,2.943747,31.169293940911366
1,0.08700562,0.1028595,0.9908752,1.0,0.07568359,0.08877563,0.9931641,-34.320370000000004,1.560165,-31.57298,3.469284,0.5730116,0.5434838000000001,1.0,0.09228516,0.1094359999999999,0.9896851,27.7928,0.6356963999999999,-25.91129,3.402023,0.6482149,0.5172462,-0.4225469,1.256709,-0.03414625,-0.1452128999999999,0.7473687,0.06455659,0.3436016,2.943747,31.169293940911366
1,0.07978821,0.1004333,0.9917296999999998,1.0,0.07881165,0.08195496,0.9934998,-34.34816,1.27269,-31.08025,3.510895,0.5730651999999999,0.5498016,1.0,0.07980347,0.1005402,0.9917145,27.89742,0.5131836,-26.05394,3.524658,0.6470632,0.5242352,-0.4226518,1.25679,-0.03413496,-0.1456396,0.7474168000000001,0.06514813,0.3436016,2.943747,31.169293940911366
1,0.07978821,0.1004333,0.9917296999999998,1.0,0.07881165,0.08195496,0.9934998,-34.34816,1.27269,-31.08025,3.510895,0.5730651999999999,0.5498016,1.0,0.07980347,0.1005402,0.9917145,27.89742,0.5131836,-26.05394,3.524658,0.6470632,0.5242352,-0.4226518,1.25679,-0.03413496,-0.1456396,0.7474168000000001,0.06514813,0.3436016,2.943747,31.169293940911366
1,0.07978821,0.1004333,0.9917296999999998,1.0,0.07881165,0.08195496,0.9934998,-34.34816,1.27269,-31.08025,3.510895,0.5730651999999999,0.5498016,1.0,0.07980347,0.1005402,0.9917145,27.89742,0.5131836,-26.05394,3.524658,0.6470632,0.5242352,-0.4226518,1.25679,-0.03413496,-0.1456396,0.7474168000000001,0.06514813,0.3436016,2.943747,31.169293940911366
1,0.07872009,0.09080505,0.9927368,1.0,0.07563782,0.08351135,0.9936218,-34.343540000000004,1.27179,-31.113740000000004,3.640427,0.5735316,0.550024,1.0,0.08172607,0.09796143,0.9918213,27.908690000000004,0.5178832999999999,-26.08441,3.528366000000001,0.6463965,0.5248043000000001,-0.4227185999999999,1.256808,-0.03416695,-0.1456053,0.7473761,0.06514687,0.3436016,2.943747,31.169293940911366
1,0.07872009,0.09080505,0.9927368,1.0,0.07563782,0.08351135,0.9936218,-34.343540000000004,1.27179,-31.113740000000004,3.640427,0.5735316,0.550024,1.0,0.08172607,0.09796143,0.9918213,27.908690000000004,0.5178832999999999,-26.08441,3.528366000000001,0.6463965,0.5248043000000001,-0.4227185999999999,1.256808,-0.03416695,-0.1456053,0.7473761,0.06514687,0.3436016,2.943747,31.169293940911366
1,0.07872009,0.09080505,0.9927368,1.0,0.07563782,0.08351135,0.9936218,-34.343540000000004,1.27179,-31.113740000000004,3.640427,0.5735316,0.550024,1.0,0.08172607,0.09796143,0.9918213,27.908690000000004,0.5178832999999999,-26.08441,3.528366000000001,0.6463965,0.5248043000000001,-0.4227185999999999,1.256808,-0.03416695,-0.1456053,0.7473761,0.06514687,0.3436016,2.943747,31.169293940911366
1,0.07766724,0.09010315,0.9928894,1.0,0.07527161,0.08311462,0.9936829,-34.34377,1.272141,-31.11447,3.663101,0.5736114999999999,0.550107,1.0,0.08135986,0.1009369,0.9915466,27.91617,0.5231781,-26.16725,3.533005,0.6463211,0.5248891,-0.4228045999999999,1.256802,-0.03416956,-0.1454749,0.7474366,0.06532998,0.3436016,2.943747,31.169293940911366
1,0.07766724,0.09010315,0.9928894,1.0,0.07527161,0.08311462,0.9936829,-34.34377,1.272141,-31.11447,3.663101,0.5736114999999999,0.550107,1.0,0.08135986,0.1009369,0.9915466,27.91617,0.5231781,-26.16725,3.533005,0.6463211,0.5248891,-0.4228045999999999,1.256802,-0.03416956,-0.1454749,0.7474366,0.06532998,0.3436016,2.943747,31.169293940911366
1,0.07766724,0.09010315,0.9928894,1.0,0.07527161,0.08311462,0.9936829,-34.34377,1.272141,-31.11447,3.663101,0.5736114999999999,0.550107,1.0,0.08135986,0.1009369,0.9915466,27.91617,0.5231781,-26.16725,3.533005,0.6463211,0.5248891,-0.4228045999999999,1.256802,-0.03416956,-0.1454749,0.7474366,0.06532998,0.3436016,2.943747,31.169293940911366
1,0.04148865,0.1862488,0.9816132,1.0,0.03973389,0.1865692,0.9816284,-34.43484,1.6473080000000002,-31.05043,3.79631,0.582835,0.5190986,1.0,0.07081604,0.1806641,0.9809875,27.58156,0.9375458,-26.04517,3.704407,0.6593639,0.4967491,-0.422855,1.256785,-0.03416879,-0.1456743999999999,0.7473893,0.06552635,0.3436016,2.943747,31.169293940911366
1,0.04148865,0.1862488,0.9816132,1.0,0.03973389,0.1865692,0.9816284,-34.43484,1.6473080000000002,-31.05043,3.79631,0.582835,0.5190986,1.0,0.07081604,0.1806641,0.9809875,27.58156,0.9375458,-26.04517,3.704407,0.6593639,0.4967491,-0.422855,1.256785,-0.03416879,-0.1456743999999999,0.7473893,0.06552635,0.3436016,2.943747,31.169293940911366
1,0.04148865,0.1862488,0.9816132,1.0,0.03973389,0.1865692,0.9816284,-34.43484,1.6473080000000002,-31.05043,3.79631,0.582835,0.5190986,1.0,0.07081604,0.1806641,0.9809875,27.58156,0.9375458,-26.04517,3.704407,0.6593639,0.4967491,-0.422855,1.256785,-0.03416879,-0.1456743999999999,0.7473893,0.06552635,0.3436016,2.943747,31.169293940911366
1,0.04499817,0.2269135,0.9728699,1.0,0.04496765,0.2266388,0.9729309000000002,-34.38847,1.979309,-31.30392,3.875259,0.5805501000000001,0.5034322,1.0,0.04664612,0.2420349,0.9691315,27.522890000000004,1.074921,-25.868,3.806137,0.6653699000000001,0.4804412,-0.4227742999999999,1.256766,-0.03396539,-0.1456096,0.7474046,0.06551941,0.3436016,2.943747,31.169293940911366
1,0.04499817,0.2269135,0.9728699,1.0,0.04496765,0.2266388,0.9729309000000002,-34.38847,1.979309,-31.30392,3.875259,0.5805501000000001,0.5034322,1.0,0.04664612,0.2420349,0.9691315,27.522890000000004,1.074921,-25.868,3.806137,0.6653699000000001,0.4804412,-0.4227742999999999,1.256766,-0.03396539,-0.1456096,0.7474046,0.06551941,0.3436016,2.943747,31.169293940911366
1,0.04499817,0.2269135,0.9728699,1.0,0.04496765,0.2266388,0.9729309000000002,-34.38847,1.979309,-31.30392,3.875259,0.5805501000000001,0.5034322,1.0,0.04664612,0.2420349,0.9691315,27.522890000000004,1.074921,-25.868,3.806137,0.6653699000000001,0.4804412,-0.4227742999999999,1.256766,-0.03396539,-0.1456096,0.7474046,0.06551941,0.3436016,2.943747,31.169293940911366
1,0.04603577,0.2290038999999999,0.9723206,1.0,0.04592896,0.2288971,0.9723511,-34.39256,1.948807,-31.34589,3.812775,0.5805372,0.5044105,1.0,0.05001831,0.2328643999999999,0.9712067,27.54753,1.046768,-25.86679,3.782883,0.6639066,0.482878,-0.4227117,1.256751,-0.03388841,-0.1454202,0.7473879,0.06572745,0.3436016,-9.0874,31.169293940911366
1,0.04603577,0.2290038999999999,0.9723206,1.0,0.04592896,0.2288971,0.9723511,-34.39256,1.948807,-31.34589,3.812775,0.5805372,0.5044105,1.0,0.05001831,0.2328643999999999,0.9712067,27.54753,1.046768,-25.86679,3.782883,0.6639066,0.482878,-0.4227117,1.256751,-0.03388841,-0.1454202,0.7473879,0.06572745,0.3436016,-9.0874,31.169293940911366
1,0.04603577,0.2290038999999999,0.9723206,1.0,0.04592896,0.2288971,0.9723511,-34.39256,1.948807,-31.34589,3.812775,0.5805372,0.5044105,1.0,0.05001831,0.2328643999999999,0.9712067,27.54753,1.046768,-25.86679,3.782883,0.6639066,0.482878,-0.4227117,1.256751,-0.03388841,-0.1454202,0.7473879,0.06572745,0.3436016,-9.0874,31.169293940911366
1,0.05020142,0.2352447999999999,0.9706268,1.0,0.04966736,0.2296143,0.9720001,-34.41257,1.91716,-31.29681,3.848465,0.5805384,0.5049579000000001,1.0,0.0506134,0.2395172,0.9695587,27.55812,1.031708,-25.8989,3.776581,0.6634916999999999,0.4825547,-0.4227177,1.256728,-0.03386066,-0.1451109,0.7473525,0.06572699,0.3436016,-9.0874,31.169293940911366
1,0.05020142,0.2352447999999999,0.9706268,1.0,0.04966736,0.2296143,0.9720001,-34.41257,1.91716,-31.29681,3.848465,0.5805384,0.5049579000000001,1.0,0.0506134,0.2395172,0.9695587,27.55812,1.031708,-25.8989,3.776581,0.6634916999999999,0.4825547,-0.4227177,1.256728,-0.03386066,-0.1451109,0.7473525,0.06572699,0.3436016,-9.0874,31.169293940911366
1,0.05020142,0.2352447999999999,0.9706268,1.0,0.04966736,0.2296143,0.9720001,-34.41257,1.91716,-31.29681,3.848465,0.5805384,0.5049579000000001,1.0,0.0506134,0.2395172,0.9695587,27.55812,1.031708,-25.8989,3.776581,0.6634916999999999,0.4825547,-0.4227177,1.256728,-0.03386066,-0.1451109,0.7473525,0.06572699,0.3436016,-9.0874,31.169293940911366
1,0.05026245,0.2348328,0.9707336,1.0,0.04981995,0.229538,0.9720154,-34.41499,1.909439,-31.27251,3.86084,0.5805815,0.505029,1.0,0.05062866,0.2390747,0.9696655,27.56575,1.031708,-25.92778,3.772415,0.6632726,0.482878,-0.422559,1.256745,-0.03377585,-0.1448275,0.7472925,0.06579486,0.3436016,-9.0874,31.169293940911366
1,0.05026245,0.2348328,0.9707336,1.0,0.04981995,0.229538,0.9720154,-34.41499,1.909439,-31.27251,3.86084,0.5805815,0.505029,1.0,0.05062866,0.2390747,0.9696655,27.56575,1.031708,-25.92778,3.772415,0.6632726,0.482878,-0.422559,1.256745,-0.03377585,-0.1448275,0.7472925,0.06579486,0.3436016,-9.0874,31.169293940911366
1,0.05026245,0.2348328,0.9707336,1.0,0.04981995,0.229538,0.9720154,-34.41499,1.909439,-31.27251,3.86084,0.5805815,0.505029,1.0,0.05062866,0.2390747,0.9696655,27.56575,1.031708,-25.92778,3.772415,0.6632726,0.482878,-0.422559,1.256745,-0.03377585,-0.1448275,0.7472925,0.06579486,0.3436016,-9.0874,31.169293940911366
1,0.0500945999999999,0.2385712,0.9698181,1.0,0.05097961,0.2336426,0.9709778,-34.43562,1.868332,-31.20172,3.866623,0.581029,0.5050905,1.0,0.04927063,0.2431487999999999,0.9687195,27.585490000000004,1.031143,-25.96735,3.749054,0.6628917,0.4825366,-0.4224104,1.256729,-0.03367964,-0.144679,0.7471975000000001,0.06586055,0.3436016,-9.0874,31.169293940911366
1,0.0500945999999999,0.2385712,0.9698181,1.0,0.05097961,0.2336426,0.9709778,-34.43562,1.868332,-31.20172,3.866623,0.581029,0.5050905,1.0,0.04927063,0.2431487999999999,0.9687195,27.585490000000004,1.031143,-25.96735,3.749054,0.6628917,0.4825366,-0.4224104,1.256729,-0.03367964,-0.144679,0.7471975000000001,0.06586055,0.3436016,-9.0874,31.169293940911366
1,0.0500945999999999,0.2385712,0.9698181,1.0,0.05097961,0.2336426,0.9709778,-34.43562,1.868332,-31.20172,3.866623,0.581029,0.5050905,1.0,0.04927063,0.2431487999999999,0.9687195,27.585490000000004,1.031143,-25.96735,3.749054,0.6628917,0.4825366,-0.4224104,1.256729,-0.03367964,-0.144679,0.7471975000000001,0.06586055,0.3436016,-9.0874,31.169293940911366
1,0.04936218,0.2383881,0.9699097,1.0,0.05070496,0.2322998,0.9713135,-34.43762,1.868332,-31.1998,3.865845,0.5811439,0.5053007,1.0,0.04826355,0.2433167,0.9687347,27.59204,1.032959,-25.97391,3.736771,0.6628503000000001,0.4824901,-0.4222697,1.256682,-0.03375108,-0.1445321,0.7470524000000001,0.06593975,0.3436016,0.05968857,31.169293940911366
1,0.04936218,0.2383881,0.9699097,1.0,0.05070496,0.2322998,0.9713135,-34.43762,1.868332,-31.1998,3.865845,0.5811439,0.5053007,1.0,0.04826355,0.2433167,0.9687347,27.59204,1.032959,-25.97391,3.736771,0.6628503000000001,0.4824901,-0.4222697,1.256682,-0.03375108,-0.1445321,0.7470524000000001,0.06593975,0.3436016,0.05968857,31.169293940911366
1,0.04936218,0.2383881,0.9699097,1.0,0.05070496,0.2322998,0.9713135,-34.43762,1.868332,-31.1998,3.865845,0.5811439,0.5053007,1.0,0.04826355,0.2433167,0.9687347,27.59204,1.032959,-25.97391,3.736771,0.6628503000000001,0.4824901,-0.4222697,1.256682,-0.03375108,-0.1445321,0.7470524000000001,0.06593975,0.3436016,0.05968857,31.169293940911366
1,0.048172,0.2391357,0.9697876,1.0,0.04824829,0.2358246,0.9705811,-34.44116,1.872726,-31.1998,3.867722,0.5816958999999999,0.5045443000000001,1.0,0.04808044,0.2423553,0.9689941,27.59866,1.0403440000000002,-25.98398,3.728149,0.6626672,0.4824749,-0.4221858,1.256697,-0.03371551,-0.1446449,0.7468866,0.06575388,0.3436016,0.05968857,31.169293940911366
1,0.048172,0.2391357,0.9697876,1.0,0.04824829,0.2358246,0.9705811,-34.44116,1.872726,-31.1998,3.867722,0.5816958999999999,0.5045443000000001,1.0,0.04808044,0.2423553,0.9689941,27.59866,1.0403440000000002,-25.98398,3.728149,0.6626672,0.4824749,-0.4221858,1.256697,-0.03371551,-0.1446449,0.7468866,0.06575388,0.3436016,0.05968857,31.169293940911366
1,0.048172,0.2391357,0.9697876,1.0,0.04824829,0.2358246,0.9705811,-34.44116,1.872726,-31.1998,3.867722,0.5816958999999999,0.5045443000000001,1.0,0.04808044,0.2423553,0.9689941,27.59866,1.0403440000000002,-25.98398,3.728149,0.6626672,0.4824749,-0.4221858,1.256697,-0.03371551,-0.1446449,0.7468866,0.06575388,0.3436016,0.05968857,31.169293940911366
1,0.04898071,0.2359161,0.9705353,1.0,0.04846191,0.228302,0.9723663,-34.44919,1.900955,-31.224290000000003,3.842056,0.5819510999999999,0.5050507000000001,1.0,0.04948425,0.2432098,0.9687042,27.60175,1.053864,-25.98459,3.729156,0.6623235,0.4818929,-0.4220837,1.256763,-0.03375189,-0.1445233,0.7468233,0.06550429,0.3436016,0.05968857,31.169293940911366
1,0.04898071,0.2359161,0.9705353,1.0,0.04846191,0.228302,0.9723663,-34.44919,1.900955,-31.224290000000003,3.842056,0.5819510999999999,0.5050507000000001,1.0,0.04948425,0.2432098,0.9687042,27.60175,1.053864,-25.98459,3.729156,0.6623235,0.4818929,-0.4220837,1.256763,-0.03375189,-0.1445233,0.7468233,0.06550429,0.3436016,0.05968857,31.169293940911366
1,0.04898071,0.2359161,0.9705353,1.0,0.04846191,0.228302,0.9723663,-34.44919,1.900955,-31.224290000000003,3.842056,0.5819510999999999,0.5050507000000001,1.0,0.04948425,0.2432098,0.9687042,27.60175,1.053864,-25.98459,3.729156,0.6623235,0.4818929,-0.4220837,1.256763,-0.03375189,-0.1445233,0.7468233,0.06550429,0.3436016,0.05968857,31.169293940911366
1,0.04940796,0.2374268,0.9701385,1.0,0.04730225,0.2296143,0.9721222,-34.45328,1.905823,-31.22966,3.826355,0.5822964,0.5046909,1.0,0.05131531,0.2444916,0.968277,27.602870000000003,1.063797,-25.98309,3.745285,0.6619739,0.4813589,-0.4219749,1.256579,-0.03367941,-0.1437457,0.7469453,0.0655491,0.3436016,0.05968857,31.169293940911366
1,0.04940796,0.2374268,0.9701385,1.0,0.04730225,0.2296143,0.9721222,-34.45328,1.905823,-31.22966,3.826355,0.5822964,0.5046909,1.0,0.05131531,0.2444916,0.968277,27.602870000000003,1.063797,-25.98309,3.745285,0.6619739,0.4813589,-0.4219749,1.256579,-0.03367941,-0.1437457,0.7469453,0.0655491,0.3436016,0.05968857,31.169293940911366
1,0.04940796,0.2374268,0.9701385,1.0,0.04730225,0.2296143,0.9721222,-34.45328,1.905823,-31.22966,3.826355,0.5822964,0.5046909,1.0,0.05131531,0.2444916,0.968277,27.602870000000003,1.063797,-25.98309,3.745285,0.6619739,0.4813589,-0.4219749,1.256579,-0.03367941,-0.1437457,0.7469453,0.0655491,0.3436016,0.05968857,31.169293940911366
1,0.04795837,0.2380066,0.9700623,1.0,0.04541016,0.2287902999999999,0.9724121,-34.45496,1.909531,-31.23016,3.815628,0.582684,0.5046909,1.0,0.05049133,0.2471466,0.9676514,27.602870000000003,1.079453,-25.98334,3.749466,0.6621219,0.4803949,-0.4219297999999999,1.256607,-0.03367963,-0.1437393,0.7469986999999999,0.06519133,0.3436016,0.05968857,31.169293940911366
1,0.04795837,0.2380066,0.9700623,1.0,0.04541016,0.2287902999999999,0.9724121,-34.45496,1.909531,-31.23016,3.815628,0.582684,0.5046909,1.0,0.05049133,0.2471466,0.9676514,27.602870000000003,1.079453,-25.98334,3.749466,0.6621219,0.4803949,-0.4219297999999999,1.256607,-0.03367963,-0.1437393,0.7469986999999999,0.06519133,0.3436016,0.05968857,31.169293940911366
1,0.04795837,0.2380066,0.9700623,1.0,0.04541016,0.2287902999999999,0.9724121,-34.45496,1.909531,-31.23016,3.815628,0.582684,0.5046909,1.0,0.05049133,0.2471466,0.9676514,27.602870000000003,1.079453,-25.98334,3.749466,0.6621219,0.4803949,-0.4219297999999999,1.256607,-0.03367963,-0.1437393,0.7469986999999999,0.06519133,0.3436016,0.05968857,31.169293940911366
1,0.04788208,0.2375792999999999,0.9701843,1.0,0.04508972,0.2280272999999999,0.9725952,-34.45496,1.914215,-31.23534,3.796021,0.5827386,0.5046909,1.0,0.05064392,0.246994,0.9676819,27.60208,1.080139,-25.98289,3.746567,0.6621219,0.4803912999999999,-0.4219011,1.256591,-0.03374909,-0.1438624,0.7470124,0.06511245,0.3436016,0.08641624,31.169293940911366
1,0.04788208,0.2375792999999999,0.9701843,1.0,0.04508972,0.2280272999999999,0.9725952,-34.45496,1.914215,-31.23534,3.796021,0.5827386,0.5046909,1.0,0.05064392,0.246994,0.9676819,27.60208,1.080139,-25.98289,3.746567,0.6621219,0.4803912999999999,-0.4219011,1.256591,-0.03374909,-0.1438624,0.7470124,0.06511245,0.3436016,0.08641624,31.169293940911366
1,0.04788208,0.2375792999999999,0.9701843,1.0,0.04508972,0.2280272999999999,0.9725952,-34.45496,1.914215,-31.23534,3.796021,0.5827386,0.5046909,1.0,0.05064392,0.246994,0.9676819,27.60208,1.080139,-25.98289,3.746567,0.6621219,0.4803912999999999,-0.4219011,1.256591,-0.03374909,-0.1438624,0.7470124,0.06511245,0.3436016,0.08641624,31.169293940911366
1,0.04902649,0.2361603,0.9704742,1.0,0.04136658,0.2238159,0.9737396,-34.44263,1.962738,-31.30486,3.820557,0.5830364,0.5044166,1.0,0.05401611,0.2441558999999999,0.9682159,27.58951,1.121155,-25.9845,3.757339,0.6619739,0.4795269,-0.4218036,1.256481,-0.03377929,-0.1435178999999999,0.747146,0.06503651,0.3436016,0.08641624,31.169293940911366
1,0.04902649,0.2361603,0.9704742,1.0,0.04136658,0.2238159,0.9737396,-34.44263,1.962738,-31.30486,3.820557,0.5830364,0.5044166,1.0,0.05401611,0.2441558999999999,0.9682159,27.58951,1.121155,-25.9845,3.757339,0.6619739,0.4795269,-0.4218036,1.256481,-0.03377929,-0.1435178999999999,0.747146,0.06503651,0.3436016,0.08641624,31.169293940911366
1,0.04902649,0.2361603,0.9704742,1.0,0.04136658,0.2238159,0.9737396,-34.44263,1.962738,-31.30486,3.820557,0.5830364,0.5044166,1.0,0.05401611,0.2441558999999999,0.9682159,27.58951,1.121155,-25.9845,3.757339,0.6619739,0.4795269,-0.4218036,1.256481,-0.03377929,-0.1435178999999999,0.747146,0.06503651,0.3436016,0.08641624,31.169293940911366
1,0.04862976,0.2357941,0.9705811,1.0,0.04255676,0.2257385,0.9732513,-34.44312,1.962738,-31.30469,3.80307,0.5828364,0.5040717,1.0,0.05400085,0.2446747,0.9680939,27.59621,1.118378,-25.98395,3.757629,0.66175,0.4795269,-0.4217436,1.256471,-0.03376918,-0.1438317,0.7472771,0.06506107,0.3436016,0.08641624,31.169293940911366
1,0.04862976,0.2357941,0.9705811,1.0,0.04255676,0.2257385,0.9732513,-34.44312,1.962738,-31.30469,3.80307,0.5828364,0.5040717,1.0,0.05400085,0.2446747,0.9680939,27.59621,1.118378,-25.98395,3.757629,0.66175,0.4795269,-0.4217436,1.256471,-0.03376918,-0.1438317,0.7472771,0.06506107,0.3436016,0.08641624,31.169293940911366
1,0.04862976,0.2357941,0.9705811,1.0,0.04255676,0.2257385,0.9732513,-34.44312,1.962738,-31.30469,3.80307,0.5828364,0.5040717,1.0,0.05400085,0.2446747,0.9680939,27.59621,1.118378,-25.98395,3.757629,0.66175,0.4795269,-0.4217436,1.256471,-0.03376918,-0.1438317,0.7472771,0.06506107,0.3436016,0.08641624,31.169293940911366
1,0.04910278,0.2355957,0.9705963,1.0,0.04286194,0.2262726,0.973114,-34.44469,1.959808,-31.30328,3.803391,0.5828364,0.5040717,1.0,0.05522156,0.2447204999999999,0.9680176,27.60063,1.118378,-25.98289,3.768677,0.6613901,0.4795269,-0.4217157,1.256685,-0.03406218,-0.1443668,0.7473124,0.06540179,0.3436016,0.08641624,31.169293940911366
1,0.04910278,0.2355957,0.9705963,1.0,0.04286194,0.2262726,0.973114,-34.44469,1.959808,-31.30328,3.803391,0.5828364,0.5040717,1.0,0.05522156,0.2447204999999999,0.9680176,27.60063,1.118378,-25.98289,3.768677,0.6613901,0.4795269,-0.4217157,1.256685,-0.03406218,-0.1443668,0.7473124,0.06540179,0.3436016,0.08641624,31.169293940911366
1,0.04910278,0.2355957,0.9705963,1.0,0.04286194,0.2262726,0.973114,-34.44469,1.959808,-31.30328,3.803391,0.5828364,0.5040717,1.0,0.05522156,0.2447204999999999,0.9680176,27.60063,1.118378,-25.98289,3.768677,0.6613901,0.4795269,-0.4217157,1.256685,-0.03406218,-0.1443668,0.7473124,0.06540179,0.3436016,0.08641624,31.169293940911366
1,0.1069641,0.2169189,0.9703064,1.0,0.08703613,0.2065277,0.9745483,-34.09843,1.750748,-31.34375,3.876678,0.5632168000000001,0.5150834,1.0,0.1164551,0.2218475,0.9680939,27.93802,0.8664703000000001,-25.9987,3.884491,0.6394446,0.492135,-0.4217482,1.256805,-0.03417472,-0.1447592999999999,0.7473586,0.06599575,0.3436016,0.08641624,31.169293940911366
1,0.1069641,0.2169189,0.9703064,1.0,0.08703613,0.2065277,0.9745483,-34.09843,1.750748,-31.34375,3.876678,0.5632168000000001,0.5150834,1.0,0.1164551,0.2218475,0.9680939,27.93802,0.8664703000000001,-25.9987,3.884491,0.6394446,0.492135,-0.4217482,1.256805,-0.03417472,-0.1447592999999999,0.7473586,0.06599575,0.3436016,0.08641624,31.169293940911366
1,0.1069641,0.2169189,0.9703064,1.0,0.08703613,0.2065277,0.9745483,-34.09843,1.750748,-31.34375,3.876678,0.5632168000000001,0.5150834,1.0,0.1164551,0.2218475,0.9680939,27.93802,0.8664703000000001,-25.9987,3.884491,0.6394446,0.492135,-0.4217482,1.256805,-0.03417472,-0.1447592999999999,0.7473586,0.06599575,0.3436016,0.08641624,31.169293940911366
1,0.108017,0.2182159,0.9698944,1.0,0.0884552,0.2126465,0.973114,-34.100629999999995,1.7388,-31.36443,3.893845,0.5630604,0.5146637,1.0,0.1166686999999999,0.2206572999999999,0.968338,27.95221,0.8685455,-26.0168,3.848877,0.6389364000000001,0.4923874,-0.4218864,1.2568629999999998,-0.03410527,-0.1446743999999999,0.7474094,0.06613161,0.3410394,0.08641624,31.169293940911366
1,0.108017,0.2182159,0.9698944,1.0,0.0884552,0.2126465,0.973114,-34.100629999999995,1.7388,-31.36443,3.893845,0.5630604,0.5146637,1.0,0.1166686999999999,0.2206572999999999,0.968338,27.95221,0.8685455,-26.0168,3.848877,0.6389364000000001,0.4923874,-0.4218864,1.2568629999999998,-0.03410527,-0.1446743999999999,0.7474094,0.06613161,0.3410394,0.08641624,31.169293940911366
1,0.108017,0.2182159,0.9698944,1.0,0.0884552,0.2126465,0.973114,-34.100629999999995,1.7388,-31.36443,3.893845,0.5630604,0.5146637,1.0,0.1166686999999999,0.2206572999999999,0.968338,27.95221,0.8685455,-26.0168,3.848877,0.6389364000000001,0.4923874,-0.4218864,1.2568629999999998,-0.03410527,-0.1446743999999999,0.7474094,0.06613161,0.3410394,0.08641624,31.169293940911366
1,0.1052398999999999,0.2187347,0.9700775,1.0,0.08847046,0.2164154,0.9722748,-34.10609,1.715393,-31.47812,3.84729,0.5633039000000001,0.5158363,1.0,0.1107941,0.2194824,0.9692993,27.98099,0.8579254000000001,-26.04741,3.811417,0.6389942,0.4931435999999999,-0.4218792,1.256834,-0.03405792,-0.1444703,0.7473310000000001,0.06623701,0.3410394,4.18034,31.169293940911366
1,0.1052398999999999,0.2187347,0.9700775,1.0,0.08847046,0.2164154,0.9722748,-34.10609,1.715393,-31.47812,3.84729,0.5633039000000001,0.5158363,1.0,0.1107941,0.2194824,0.9692993,27.98099,0.8579254000000001,-26.04741,3.811417,0.6389942,0.4931435999999999,-0.4218792,1.256834,-0.03405792,-0.1444703,0.7473310000000001,0.06623701,0.3410394,4.18034,31.169293940911366
1,0.1052398999999999,0.2187347,0.9700775,1.0,0.08847046,0.2164154,0.9722748,-34.10609,1.715393,-31.47812,3.84729,0.5633039000000001,0.5158363,1.0,0.1107941,0.2194824,0.9692993,27.98099,0.8579254000000001,-26.04741,3.811417,0.6389942,0.4931435999999999,-0.4218792,1.256834,-0.03405792,-0.1444703,0.7473310000000001,0.06623701,0.3410394,4.18034,31.169293940911366
1,0.1027527,0.2186432,0.9703674,1.0,0.09410095,0.2200927999999999,0.9709167,-34.117740000000005,1.586563,-31.3922,3.828156,0.5626413,0.5187979,1.0,0.1081238,0.2177277,0.969986,27.99434,0.8365630999999999,-26.04741,3.807968,0.6389975999999999,0.4941220999999999,-0.422031,1.25693,-0.03401767,-0.1443973999999999,0.7473534000000001,0.06593484,0.3410394,4.18034,31.169293940911366
1,0.1027527,0.2186432,0.9703674,1.0,0.09410095,0.2200927999999999,0.9709167,-34.117740000000005,1.586563,-31.3922,3.828156,0.5626413,0.5187979,1.0,0.1081238,0.2177277,0.969986,27.99434,0.8365630999999999,-26.04741,3.807968,0.6389975999999999,0.4941220999999999,-0.422031,1.25693,-0.03401767,-0.1443973999999999,0.7473534000000001,0.06593484,0.3410394,4.18034,31.169293940911366
1,0.1027527,0.2186432,0.9703674,1.0,0.09410095,0.2200927999999999,0.9709167,-34.117740000000005,1.586563,-31.3922,3.828156,0.5626413,0.5187979,1.0,0.1081238,0.2177277,0.969986,27.99434,0.8365630999999999,-26.04741,3.807968,0.6389975999999999,0.4941220999999999,-0.422031,1.25693,-0.03401767,-0.1443973999999999,0.7473534000000001,0.06593484,0.3410394,4.18034,31.169293940911366
1,0.1029663,0.2183075,0.9704285,1.0,0.09465027,0.2175598,0.9714355,-34.11497,1.601074,-31.40555,3.860123,0.5624768,0.5189043999999999,1.0,0.1084442,0.2187958,0.9697113000000002,27.99271,0.8299408000000001,-26.04718,3.805527,0.6389959,0.4941609,-0.4219905,1.256957,-0.03394009,-0.1446317,0.7473857,0.06600446,0.3410394,4.18034,31.169293940911366
1,0.1029663,0.2183075,0.9704285,1.0,0.09465027,0.2175598,0.9714355,-34.11497,1.601074,-31.40555,3.860123,0.5624768,0.5189043999999999,1.0,0.1084442,0.2187958,0.9697113000000002,27.99271,0.8299408000000001,-26.04718,3.805527,0.6389959,0.4941609,-0.4219905,1.256957,-0.03394009,-0.1446317,0.7473857,0.06600446,0.3410394,4.18034,31.169293940911366
1,0.1029663,0.2183075,0.9704285,1.0,0.09465027,0.2175598,0.9714355,-34.11497,1.601074,-31.40555,3.860123,0.5624768,0.5189043999999999,1.0,0.1084442,0.2187958,0.9697113000000002,27.99271,0.8299408000000001,-26.04718,3.805527,0.6389959,0.4941609,-0.4219905,1.256957,-0.03394009,-0.1446317,0.7473857,0.06600446,0.3410394,4.18034,31.169293940911366
1,0.1029663,0.2183075,0.9704285,1.0,0.09465027,0.2175598,0.9714355,-34.11497,1.601074,-31.40555,3.860123,0.5624768,0.5189043999999999,1.0,0.1084442,0.2187958,0.9697113000000002,27.99271,0.8299408000000001,-26.04718,3.805527,0.6389959,0.4941609,-0.4220766999999999,1.257097,-0.03394651,-0.1443056,0.7473209,0.06626078,0.3410394,4.18034,32.51
1,0.1029663,0.2183075,0.9704285,1.0,0.09465027,0.2175598,0.9714355,-34.11497,1.601074,-31.40555,3.860123,0.5624768,0.5189043999999999,1.0,0.1084442,0.2187958,0.9697113000000002,27.99271,0.8299408000000001,-26.04718,3.805527,0.6389959,0.4941609,-0.4220766999999999,1.257097,-0.03394651,-0.1443056,0.7473209,0.06626078,0.3410394,4.18034,32.51
1,0.1029663,0.2183075,0.9704285,1.0,0.09465027,0.2175598,0.9714355,-34.11497,1.601074,-31.40555,3.860123,0.5624768,0.5189043999999999,1.0,0.1084442,0.2187958,0.9697113000000002,27.99271,0.8299408000000001,-26.04718,3.805527,0.6389959,0.4941609,-0.4220766999999999,1.257097,-0.03394651,-0.1443056,0.7473209,0.06626078,0.3410394,4.18034,32.51
1,-1.0,-1.0,-1.0,0.7654194000000001,0.0,0.0,0.0,-35.06581,-0.1582489,-33.07039,-1.0,0.5895513000000001,0.6364034000000001,0.4850104,0.0,0.0,0.0,28.2406,-1.475327,-26.13907,-1.0,0.6214114000000001,0.6457458,-0.4221702,1.257264,-0.03401819,-0.1442271,0.7474063,0.06625211,0.3410394,-1.996935,32.51
1,-1.0,-1.0,-1.0,0.7654194000000001,0.0,0.0,0.0,-35.06581,-0.1582489,-33.07039,-1.0,0.5895513000000001,0.6364034000000001,0.4850104,0.0,0.0,0.0,28.2406,-1.475327,-26.13907,-1.0,0.6214114000000001,0.6457458,-0.4221702,1.257264,-0.03401819,-0.1442271,0.7474063,0.06625211,0.3410394,-1.996935,32.51
1,-1.0,-1.0,-1.0,0.7654194000000001,0.0,0.0,0.0,-35.06581,-0.1582489,-33.07039,-1.0,0.5895513000000001,0.6364034000000001,0.4850104,0.0,0.0,0.0,28.2406,-1.475327,-26.13907,-1.0,0.6214114000000001,0.6457458,-0.4221702,1.257264,-0.03401819,-0.1442271,0.7474063,0.06625211,0.3410394,-1.996935,32.51
2,-1.0,-1.0,-1.0,0.0,0.0,0.0,0.0,-36.25337,-1.557831,-32.0118,-1.0,0.5927614999999999,0.8848574,0.0,0.0,0.0,0.0,28.2406,-1.475327,-26.13907,-1.0,0.461493,0.8645306,-0.4221295999999999,1.257357,-0.03413928,-0.1444392,0.7474179,0.06635897,0.3410394,-1.996935,32.51
2,-1.0,-1.0,-1.0,0.0,0.0,0.0,0.0,-36.25337,-1.557831,-32.0118,-1.0,0.5927614999999999,0.8848574,0.0,0.0,0.0,0.0,28.2406,-1.475327,-26.13907,-1.0,0.461493,0.8645306,-0.4221295999999999,1.257357,-0.03413928,-0.1444392,0.7474179,0.06635897,0.3410394,-1.996935,32.51
2,-1.0,-1.0,-1.0,0.0,0.0,0.0,0.0,-36.25337,-1.557831,-32.0118,-1.0,0.5927614999999999,0.8848574,0.0,0.0,0.0,0.0,28.2406,-1.475327,-26.13907,-1.0,0.461493,0.8645306,-0.4221295999999999,1.257357,-0.03413928,-0.1444392,0.7474179,0.06635897,0.3410394,-1.996935,32.51
2,-1.0,-1.0,-1.0,0.0,0.0,0.0,0.0,-36.25337,-1.557831,-32.0118,-1.0,-1.0,-1.0,0.01129611,0.0,0.0,0.0,28.2406,-1.475327,-26.13907,-1.0,-1.0,-1.0,-0.4219958,1.257509,-0.03406357,-0.1444672999999999,0.7474630999999999,0.06657576,0.3410394,-1.996935,32.51
2,-1.0,-1.0,-1.0,0.0,0.0,0.0,0.0,-36.25337,-1.557831,-32.0118,-1.0,-1.0,-1.0,0.01129611,0.0,0.0,0.0,28.2406,-1.475327,-26.13907,-1.0,-1.0,-1.0,-0.4219958,1.257509,-0.03406357,-0.1444672999999999,0.7474630999999999,0.06657576,0.3410394,-1.996935,32.51
2,-1.0,-1.0,-1.0,0.0,0.0,0.0,0.0,-36.25337,-1.557831,-32.0118,-1.0,-1.0,-1.0,0.01129611,0.0,0.0,0.0,28.2406,-1.475327,-26.13907,-1.0,-1.0,-1.0,-0.4219958,1.257509,-0.03406357,-0.1444672999999999,0.7474630999999999,0.06657576,0.3410394,-1.996935,32.51
2,-1.0,-1.0,-1.0,0.0,0.0,0.0,0.0,-36.25337,-1.557831,-32.0118,-1.0,0.5638155,0.8642035,0.0,0.0,0.0,0.0,28.2406,-1.475327,-26.13907,-1.0,-1.0,-1.0,-0.4219853,1.257657,-0.03416762,-0.1444987,0.7474776999999999,0.06670816,0.3410394,-1.996935,32.51
2,-1.0,-1.0,-1.0,0.0,0.0,0.0,0.0,-36.25337,-1.557831,-32.0118,-1.0,0.5638155,0.8642035,0.0,0.0,0.0,0.0,28.2406,-1.475327,-26.13907,-1.0,-1.0,-1.0,-0.4219853,1.257657,-0.03416762,-0.1444987,0.7474776999999999,0.06670816,0.3410394,-1.996935,32.51
2,-1.0,-1.0,-1.0,0.0,0.0,0.0,0.0,-36.25337,-1.557831,-32.0118,-1.0,0.5638155,0.8642035,0.0,0.0,0.0,0.0,28.2406,-1.475327,-26.13907,-1.0,-1.0,-1.0,-0.4219853,1.257657,-0.03416762,-0.1444987,0.7474776999999999,0.06670816,0.3410394,-1.996935,32.51
2,-1.0,-1.0,-1.0,0.0,0.0,0.0,0.0,-36.25337,-1.557831,-32.0118,-1.0,0.5957258000000001,0.7495861999999999,0.0,0.0,0.0,0.0,28.2406,-1.475327,-26.13907,-1.0,-1.0,-1.0,-0.4219688,1.257863,-0.03420392,-0.1441478,0.7476465999999999,0.06701157,0.3410394,-1.996935,32.51
2,-1.0,-1.0,-1.0,0.0,0.0,0.0,0.0,-36.25337,-1.557831,-32.0118,-1.0,0.5957258000000001,0.7495861999999999,0.0,0.0,0.0,0.0,28.2406,-1.475327,-26.13907,-1.0,-1.0,-1.0,-0.4219688,1.257863,-0.03420392,-0.1441478,0.7476465999999999,0.06701157,0.3410394,-1.996935,32.51
2,-1.0,-1.0,-1.0,0.0,0.0,0.0,0.0,-36.25337,-1.557831,-32.0118,-1.0,0.5957258000000001,0.7495861999999999,0.0,0.0,0.0,0.0,28.2406,-1.475327,-26.13907,-1.0,-1.0,-1.0,-0.4219688,1.257863,-0.03420392,-0.1441478,0.7476465999999999,0.06701157,0.3410394,-1.996935,32.51
2,-1.0,-1.0,-1.0,0.0,0.0,0.0,0.0,-36.25337,-1.557831,-32.0118,-1.0,0.5985861,0.7442751999999999,0.08854938,0.0,0.0,0.0,28.2406,-1.475327,-26.13907,-1.0,0.6847221,0.7243034,-0.4219941,1.257919,-0.03410834,-0.1441752,0.7476054,0.0670677,0.3410394,-3.96139,32.51
2,-1.0,-1.0,-1.0,0.0,0.0,0.0,0.0,-36.25337,-1.557831,-32.0118,-1.0,0.5985861,0.7442751999999999,0.08854938,0.0,0.0,0.0,28.2406,-1.475327,-26.13907,-1.0,0.6847221,0.7243034,-0.4219941,1.257919,-0.03410834,-0.1441752,0.7476054,0.0670677,0.3410394,-3.96139,32.51
2,-1.0,-1.0,-1.0,0.0,0.0,0.0,0.0,-36.25337,-1.557831,-32.0118,-1.0,0.5985861,0.7442751999999999,0.08854938,0.0,0.0,0.0,28.2406,-1.475327,-26.13907,-1.0,0.6847221,0.7243034,-0.4219941,1.257919,-0.03410834,-0.1441752,0.7476054,0.0670677,0.3410394,-3.96139,32.51
2,-1.0,-1.0,-1.0,0.0,0.0,0.0,0.0,-36.25337,-1.557831,-32.0118,-1.0,0.5921249,0.7353335999999999,0.08854938,0.0,0.0,0.0,28.2406,-1.475327,-26.13907,-1.0,0.6895406,0.7194831,-0.4219428,1.257738,-0.03400516,-0.1437745,0.7476053,0.06671721,0.3410394,-3.96139,32.51
2,-1.0,-1.0,-1.0,0.0,0.0,0.0,0.0,-36.25337,-1.557831,-32.0118,-1.0,0.5921249,0.7353335999999999,0.08854938,0.0,0.0,0.0,28.2406,-1.475327,-26.13907,-1.0,0.6895406,0.7194831,-0.4219428,1.257738,-0.03400516,-0.1437745,0.7476053,0.06671721,0.3410394,-3.96139,32.51
2,-1.0,-1.0,-1.0,0.0,0.0,0.0,0.0,-36.25337,-1.557831,-32.0118,-1.0,0.5921249,0.7353335999999999,0.08854938,0.0,0.0,0.0,28.2406,-1.475327,-26.13907,-1.0,0.6895406,0.7194831,-0.4219428,1.257738,-0.03400516,-0.1437745,0.7476053,0.06671721,0.3410394,-3.96139,32.51
2,0.01376343,-0.2475433,0.9687653,0.7376813,0.01376343,-0.2475433,0.9687653,-34.687670000000004,-1.188095,-31.58116,3.87825,0.5979549,0.7001448,0.6444986,0.03274536,-0.2109222,0.976944,27.846940000000004,-1.978653,-26.23647,4.11557,0.6577793000000001,0.6645628,-0.4218979,1.257647,-0.03394108,-0.1431362,0.7475755000000001,0.06677534,0.3410394,-3.96139,32.51
2,0.01376343,-0.2475433,0.9687653,0.7376813,0.01376343,-0.2475433,0.9687653,-34.687670000000004,-1.188095,-31.58116,3.87825,0.5979549,0.7001448,0.6444986,0.03274536,-0.2109222,0.976944,27.846940000000004,-1.978653,-26.23647,4.11557,0.6577793000000001,0.6645628,-0.4218979,1.257647,-0.03394108,-0.1431362,0.7475755000000001,0.06677534,0.3410394,-3.96139,32.51
2,0.01376343,-0.2475433,0.9687653,0.7376813,0.01376343,-0.2475433,0.9687653,-34.687670000000004,-1.188095,-31.58116,3.87825,0.5979549,0.7001448,0.6444986,0.03274536,-0.2109222,0.976944,27.846940000000004,-1.978653,-26.23647,4.11557,0.6577793000000001,0.6645628,-0.4218979,1.257647,-0.03394108,-0.1431362,0.7475755000000001,0.06677534,0.3410394,-3.96139,32.51
2,0.01786804,-0.2251433999999999,0.9741516,0.8608454,0.01376343,-0.2307739,0.9729004,-34.70244,-1.147507,-31.56386,3.968674,0.5984151999999999,0.6953743,0.7598198,0.02217102,-0.2192078,0.9754181,27.84605,-1.93576,-26.214890000000004,4.002716,0.6595340999999999,0.6643375,-0.4217465999999999,1.257625,-0.03397344,-0.1436142999999999,0.7474017,0.06615904,0.3410394,-3.96139,32.51
2,0.01786804,-0.2251433999999999,0.9741516,0.8608454,0.01376343,-0.2307739,0.9729004,-34.70244,-1.147507,-31.56386,3.968674,0.5984151999999999,0.6953743,0.7598198,0.02217102,-0.2192078,0.9754181,27.84605,-1.93576,-26.214890000000004,4.002716,0.6595340999999999,0.6643375,-0.4217465999999999,1.257625,-0.03397344,-0.1436142999999999,0.7474017,0.06615904,0.3410394,-3.96139,32.51
2,0.01786804,-0.2251433999999999,0.9741516,0.8608454,0.01376343,-0.2307739,0.9729004,-34.70244,-1.147507,-31.56386,3.968674,0.5984151999999999,0.6953743,0.7598198,0.02217102,-0.2192078,0.9754181,27.84605,-1.93576,-26.214890000000004,4.002716,0.6595340999999999,0.6643375,-0.4217465999999999,1.257625,-0.03397344,-0.1436142999999999,0.7474017,0.06615904,0.3410394,-3.96139,32.51
2,0.01644897,-0.2260132,0.9739685,0.8606603999999999,0.01060486,-0.228775,0.9734192,-34.7197,-1.156937,-31.566540000000003,4.012238,0.5995896,0.6953918,0.766965,0.02249146,-0.2231598,0.9745178,27.84525,-1.928146,-26.2132,4.060089,0.6595340999999999,0.6647947,-0.4217111,1.257554,-0.03401468,-0.1432162,0.7474263000000001,0.06586646,0.3410394,3.611885,32.51
2,0.01644897,-0.2260132,0.9739685,0.8606603999999999,0.01060486,-0.228775,0.9734192,-34.7197,-1.156937,-31.566540000000003,4.012238,0.5995896,0.6953918,0.766965,0.02249146,-0.2231598,0.9745178,27.84525,-1.928146,-26.2132,4.060089,0.6595340999999999,0.6647947,-0.4217111,1.257554,-0.03401468,-0.1432162,0.7474263000000001,0.06586646,0.3410394,3.611885,32.51
2,0.01644897,-0.2260132,0.9739685,0.8606603999999999,0.01060486,-0.228775,0.9734192,-34.7197,-1.156937,-31.566540000000003,4.012238,0.5995896,0.6953918,0.766965,0.02249146,-0.2231598,0.9745178,27.84525,-1.928146,-26.2132,4.060089,0.6595340999999999,0.6647947,-0.4217111,1.257554,-0.03401468,-0.1432162,0.7474263000000001,0.06586646,0.3410394,3.611885,32.51
2,0.0198822,-0.2214203,0.9749603,0.9510999,0.01464844,-0.2147522,0.9765472,-34.71808,-1.155945,-31.55873,4.189285,0.5988357,0.6927238,0.8445282,0.02604675,-0.229248,0.9730072,27.831090000000003,-1.936508,-26.22154,4.038437,0.6594388000000001,0.6662679,-0.4217304,1.257357,-0.03415242,-0.1428911,0.7477415,0.0657475,0.3410394,3.611885,32.51
2,0.0198822,-0.2214203,0.9749603,0.9510999,0.01464844,-0.2147522,0.9765472,-34.71808,-1.155945,-31.55873,4.189285,0.5988357,0.6927238,0.8445282,0.02604675,-0.229248,0.9730072,27.831090000000003,-1.936508,-26.22154,4.038437,0.6594388000000001,0.6662679,-0.4217304,1.257357,-0.03415242,-0.1428911,0.7477415,0.0657475,0.3410394,3.611885,32.51
2,0.0198822,-0.2214203,0.9749603,0.9510999,0.01464844,-0.2147522,0.9765472,-34.71808,-1.155945,-31.55873,4.189285,0.5988357,0.6927238,0.8445282,0.02604675,-0.229248,0.9730072,27.831090000000003,-1.936508,-26.22154,4.038437,0.6594388000000001,0.6662679,-0.4217304,1.257357,-0.03415242,-0.1428911,0.7477415,0.0657475,0.3410394,3.611885,32.51
2,0.02064514,-0.2239989999999999,0.9743652,0.9714762,0.01652527,-0.220871,0.9751587,-34.71515,-1.118652,-31.545,4.166092,0.5983864999999999,0.692381,0.8641094000000001,0.02554321,-0.2276917,0.9733887,27.83063,-1.930603,-26.2198,4.057861,0.6595401999999999,0.6657786,-0.4216524,1.2572709999999998,-0.03414735,-0.1428476,0.7477804,0.06560073,0.3410394,3.611885,32.51
2,0.02064514,-0.2239989999999999,0.9743652,0.9714762,0.01652527,-0.220871,0.9751587,-34.71515,-1.118652,-31.545,4.166092,0.5983864999999999,0.692381,0.8641094000000001,0.02554321,-0.2276917,0.9733887,27.83063,-1.930603,-26.2198,4.057861,0.6595401999999999,0.6657786,-0.4216524,1.2572709999999998,-0.03414735,-0.1428476,0.7477804,0.06560073,0.3410394,3.611885,32.51
2,0.02064514,-0.2239989999999999,0.9743652,0.9714762,0.01652527,-0.220871,0.9751587,-34.71515,-1.118652,-31.545,4.166092,0.5983864999999999,0.692381,0.8641094000000001,0.02554321,-0.2276917,0.9733887,27.83063,-1.930603,-26.2198,4.057861,0.6595401999999999,0.6657786,-0.4216524,1.2572709999999998,-0.03414735,-0.1428476,0.7477804,0.06560073,0.3410394,3.611885,32.51
2,0.01759338,-0.2265015,0.9738464,0.982148,0.01306152,-0.2377167,0.9712372,-34.71078,-1.046463,-31.51422,3.917618,0.5987352,0.6925306,0.8872038000000001,0.02314758,-0.2126922999999999,0.9768372,27.82994,-1.812317,-26.19615,4.271164,0.6599562,0.6588633,-0.4215864,1.257121,-0.03409602,-0.1427178999999999,0.7478005999999999,0.06520089,0.3410394,3.611885,32.51
2,0.01759338,-0.2265015,0.9738464,0.982148,0.01306152,-0.2377167,0.9712372,-34.71078,-1.046463,-31.51422,3.917618,0.5987352,0.6925306,0.8872038000000001,0.02314758,-0.2126922999999999,0.9768372,27.82994,-1.812317,-26.19615,4.271164,0.6599562,0.6588633,-0.4215864,1.257121,-0.03409602,-0.1427178999999999,0.7478005999999999,0.06520089,0.3410394,3.611885,32.51
2,0.01759338,-0.2265015,0.9738464,0.982148,0.01306152,-0.2377167,0.9712372,-34.71078,-1.046463,-31.51422,3.917618,0.5987352,0.6925306,0.8872038000000001,0.02314758,-0.2126922999999999,0.9768372,27.82994,-1.812317,-26.19615,4.271164,0.6599562,0.6588633,-0.4215864,1.257121,-0.03409602,-0.1427178999999999,0.7478005999999999,0.06520089,0.3410394,3.611885,32.51
2,0.01777649,-0.2247925,0.9742432,1.0,0.01385498,-0.2303772,0.9729919,-34.70325,-1.005707,-31.50262,3.981781,0.5982983000000001,0.6895981,1.0,0.02243042,-0.2181548999999999,0.975647,27.83258,-1.799164,-26.19426,4.171921,0.6599562,0.6593328,-0.4215807,1.2572139999999998,-0.03410291,-0.1426324,0.747754,0.0650865,0.3410394,-6.607384,32.51
2,0.01777649,-0.2247925,0.9742432,1.0,0.01385498,-0.2303772,0.9729919,-34.70325,-1.005707,-31.50262,3.981781,0.5982983000000001,0.6895981,1.0,0.02243042,-0.2181548999999999,0.975647,27.83258,-1.799164,-26.19426,4.171921,0.6599562,0.6593328,-0.4215807,1.2572139999999998,-0.03410291,-0.1426324,0.747754,0.0650865,0.3410394,-6.607384,32.51
2,0.01777649,-0.2247925,0.9742432,1.0,0.01385498,-0.2303772,0.9729919,-34.70325,-1.005707,-31.50262,3.981781,0.5982983000000001,0.6895981,1.0,0.02243042,-0.2181548999999999,0.975647,27.83258,-1.799164,-26.19426,4.171921,0.6599562,0.6593328,-0.4215807,1.2572139999999998,-0.03410291,-0.1426324,0.747754,0.0650865,0.3410394,-6.607384,32.51
2,0.01701355,-0.2237091,0.9745026,1.0,0.01345825,-0.2289124,0.9733429,-34.69638,-0.9796295,-31.49368,4.0908050000000005,0.5981342,0.6883495,1.0,0.02073669,-0.2182312,0.9756622,27.82994,-1.786209,-26.19273,4.188583,0.660337,0.6589046,-0.4214930999999999,1.257079,-0.03414384,-0.1422566,0.7477505,0.06493481,0.3410394,-6.607384,32.51
2,0.01701355,-0.2237091,0.9745026,1.0,0.01345825,-0.2289124,0.9733429,-34.69638,-0.9796295,-31.49368,4.0908050000000005,0.5981342,0.6883495,1.0,0.02073669,-0.2182312,0.9756622,27.82994,-1.786209,-26.19273,4.188583,0.660337,0.6589046,-0.4214930999999999,1.257079,-0.03414384,-0.1422566,0.7477505,0.06493481,0.3410394,-6.607384,32.51
2,0.01701355,-0.2237091,0.9745026,1.0,0.01345825,-0.2289124,0.9733429,-34.69638,-0.9796295,-31.49368,4.0908050000000005,0.5981342,0.6883495,1.0,0.02073669,-0.2182312,0.9756622,27.82994,-1.786209,-26.19273,4.188583,0.660337,0.6589046,-0.4214930999999999,1.257079,-0.03414384,-0.1422566,0.7477505,0.06493481,0.3410394,-6.607384,32.51
2,0.01701355,-0.2237091,0.9745026,1.0,0.01345825,-0.2289124,0.9733429,-34.69638,-0.9796295,-31.49368,4.0908050000000005,0.5981342,0.6883495,1.0,0.02073669,-0.2182312,0.9756622,27.82994,-1.786209,-26.19273,4.188583,0.660337,0.6589046,-0.4214057,1.25688,-0.03415649,-0.142481,0.7477187,0.06439507,0.3410394,-6.607384,32.51
2,0.01701355,-0.2237091,0.9745026,1.0,0.01345825,-0.2289124,0.9733429,-34.69638,-0.9796295,-31.49368,4.0908050000000005,0.5981342,0.6883495,1.0,0.02073669,-0.2182312,0.9756622,27.82994,-1.786209,-26.19273,4.188583,0.660337,0.6589046,-0.4214057,1.25688,-0.03415649,-0.142481,0.7477187,0.06439507,0.3410394,-6.607384,32.51
2,0.01701355,-0.2237091,0.9745026,1.0,0.01345825,-0.2289124,0.9733429,-34.69638,-0.9796295,-31.49368,4.0908050000000005,0.5981342,0.6883495,1.0,0.02073669,-0.2182312,0.9756622,27.82994,-1.786209,-26.19273,4.188583,0.660337,0.6589046,-0.4214057,1.25688,-0.03415649,-0.142481,0.7477187,0.06439507,0.3410394,-6.607384,32.51
2,0.01782227,-0.2245331,0.9742889,1.0,0.01383972,-0.2294312,0.9732208,-34.69624,-0.9802246,-31.49335,4.031708,0.5980473000000001,0.688441,1.0,0.02198792,-0.2193909,0.9753876,27.829190000000004,-1.7801060000000002,-26.19121,4.180771,0.6601467,0.658884,-0.4213393,1.256875,-0.03421552,-0.1424705,0.7477654,0.06458452,0.3410394,-6.607384,32.51
2,0.01782227,-0.2245331,0.9742889,1.0,0.01383972,-0.2294312,0.9732208,-34.69624,-0.9802246,-31.49335,4.031708,0.5980473000000001,0.688441,1.0,0.02198792,-0.2193909,0.9753876,27.829190000000004,-1.7801060000000002,-26.19121,4.180771,0.6601467,0.658884,-0.4213393,1.256875,-0.03421552,-0.1424705,0.7477654,0.06458452,0.3410394,-6.607384,32.51
2,0.01782227,-0.2245331,0.9742889,1.0,0.01383972,-0.2294312,0.9732208,-34.69624,-0.9802246,-31.49335,4.031708,0.5980473000000001,0.688441,1.0,0.02198792,-0.2193909,0.9753876,27.829190000000004,-1.7801060000000002,-26.19121,4.180771,0.6601467,0.658884,-0.4213393,1.256875,-0.03421552,-0.1424705,0.7477654,0.06458452,0.3410394,-6.607384,32.51
2,0.01817322,-0.2252808,0.9741211,1.0,0.01325989,-0.2300567999999999,0.9730835,-34.69638,-0.9805298,-31.49301,3.972397,0.5981342,0.6885325,1.0,0.02330017,-0.2203063999999999,0.9751434,27.82845,-1.774658,-26.19048,4.18959,0.6599562,0.6588633,-0.4213407,1.256493,-0.0343572,-0.1423706,0.7478081,0.06419048,0.3410394,-6.607384,32.51
2,0.01817322,-0.2252808,0.9741211,1.0,0.01325989,-0.2300567999999999,0.9730835,-34.69638,-0.9805298,-31.49301,3.972397,0.5981342,0.6885325,1.0,0.02330017,-0.2203063999999999,0.9751434,27.82845,-1.774658,-26.19048,4.18959,0.6599562,0.6588633,-0.4213407,1.256493,-0.0343572,-0.1423706,0.7478081,0.06419048,0.3410394,-6.607384,32.51
2,0.01817322,-0.2252808,0.9741211,1.0,0.01325989,-0.2300567999999999,0.9730835,-34.69638,-0.9805298,-31.49301,3.972397,0.5981342,0.6885325,1.0,0.02330017,-0.2203063999999999,0.9751434,27.82845,-1.774658,-26.19048,4.18959,0.6599562,0.6588633,-0.4213407,1.256493,-0.0343572,-0.1423706,0.7478081,0.06419048,0.3410394,-6.607384,32.51
2,0.02206421,-0.2093658,0.9775848,0.9484515,0.01495361,-0.2053375,0.9785614,-34.70793,-0.5159302,-31.368990000000004,4.096756,0.597905,0.666253,0.9383873,0.02798462,-0.2127075,0.9766998,27.81566,-1.339951,-26.11211,4.16832,0.6594036,0.6418799,-0.4211693,1.256076,-0.03446764,-0.1425465,0.7479399,0.0634829,0.3410394,5.890137,32.51
2,0.02206421,-0.2093658,0.9775848,0.9484515,0.01495361,-0.2053375,0.9785614,-34.70793,-0.5159302,-31.368990000000004,4.096756,0.597905,0.666253,0.9383873,0.02798462,-0.2127075,0.9766998,27.81566,-1.339951,-26.11211,4.16832,0.6594036,0.6418799,-0.4211693,1.256076,-0.03446764,-0.1425465,0.7479399,0.0634829,0.3410394,5.890137,32.51
2,0.02206421,-0.2093658,0.9775848,0.9484515,0.01495361,-0.2053375,0.9785614,-34.70793,-0.5159302,-31.368990000000004,4.096756,0.597905,0.666253,0.9383873,0.02798462,-0.2127075,0.9766998,27.81566,-1.339951,-26.11211,4.16832,0.6594036,0.6418799,-0.4211693,1.256076,-0.03446764,-0.1425465,0.7479399,0.0634829,0.3410394,5.890137,32.51
2,0.03063965,-0.1925507,0.9808044,0.9000081,0.02177429,-0.2146454,0.9764404,-34.73035,-0.2125397,-31.23314,4.148941000000001,0.5973042,0.6559139,0.9332371,0.03727722,-0.1759032999999999,0.9836884,27.80397,-1.057114,-26.23608,4.206116000000001,0.6583574000000001,0.6270151999999999,-0.4210664,1.255814,-0.03446884,-0.1426111,0.747934,0.06342892,0.3410394,5.890137,32.51
2,0.03063965,-0.1925507,0.9808044,0.9000081,0.02177429,-0.2146454,0.9764404,-34.73035,-0.2125397,-31.23314,4.148941000000001,0.5973042,0.6559139,0.9332371,0.03727722,-0.1759032999999999,0.9836884,27.80397,-1.057114,-26.23608,4.206116000000001,0.6583574000000001,0.6270151999999999,-0.4210664,1.255814,-0.03446884,-0.1426111,0.747934,0.06342892,0.3410394,5.890137,32.51
2,0.03063965,-0.1925507,0.9808044,0.9000081,0.02177429,-0.2146454,0.9764404,-34.73035,-0.2125397,-31.23314,4.148941000000001,0.5973042,0.6559139,0.9332371,0.03727722,-0.1759032999999999,0.9836884,27.80397,-1.057114,-26.23608,4.206116000000001,0.6583574000000001,0.6270151999999999,-0.4210664,1.255814,-0.03446884,-0.1426111,0.747934,0.06342892,0.3410394,5.890137,32.51
2,0.02351379,-0.1910858,0.9812775,0.8540506,0.01235962,-0.195343,0.9806519,-34.74223,-0.1837463,-31.2619,4.060912999999999,0.5992886,0.6516239,0.9240302,0.04769897,-0.1817627,0.9821777,27.80667,-0.9762878,-26.20988,4.217422,0.6564715,0.6250504,-0.4210664,1.255814,-0.03446884,-0.1426111,0.747934,0.06342892,0.3410394,5.890137,32.51
2,0.02351379,-0.1910858,0.9812775,0.8540506,0.01235962,-0.195343,0.9806519,-34.74223,-0.1837463,-31.2619,4.060912999999999,0.5992886,0.6516239,0.9240302,0.04769897,-0.1817627,0.9821777,27.80667,-0.9762878,-26.20988,4.217422,0.6564715,0.6250504,-0.4210664,1.255814,-0.03446884,-0.1426111,0.747934,0.06342892,0.3410394,5.890137,32.51
2,0.02351379,-0.1910858,0.9812775,0.8540506,0.01235962,-0.195343,0.9806519,-34.74223,-0.1837463,-31.2619,4.060912999999999,0.5992886,0.6516239,0.9240302,0.04769897,-0.1817627,0.9821777,27.80667,-0.9762878,-26.20988,4.217422,0.6564715,0.6250504,-0.4210664,1.255814,-0.03446884,-0.1426111,0.747934,0.06342892,0.3410394,5.890137,32.51
2,0.02496338,-0.1929016,0.980896,0.8326021,0.01612854,-0.195343,0.9805908,-34.73685,-0.04251099,-31.20747,4.139282,0.5983742,0.6461468,0.9061295,0.0500945999999999,-0.1858368,0.9812927,27.79878,-0.7116089,-26.41924,4.350372,0.6567048000000001,0.618978,-0.4211168999999999,1.255633,-0.03441672,-0.1425731,0.7479439,0.0632465,0.3410394,5.890137,32.51
2,0.02496338,-0.1929016,0.980896,0.8326021,0.01612854,-0.195343,0.9805908,-34.73685,-0.04251099,-31.20747,4.139282,0.5983742,0.6461468,0.9061295,0.0500945999999999,-0.1858368,0.9812927,27.79878,-0.7116089,-26.41924,4.350372,0.6567048000000001,0.618978,-0.4211168999999999,1.255633,-0.03441672,-0.1425731,0.7479439,0.0632465,0.3410394,5.890137,32.51
2,0.02496338,-0.1929016,0.980896,0.8326021,0.01612854,-0.195343,0.9805908,-34.73685,-0.04251099,-31.20747,4.139282,0.5983742,0.6461468,0.9061295,0.0500945999999999,-0.1858368,0.9812927,27.79878,-0.7116089,-26.41924,4.350372,0.6567048000000001,0.618978,-0.4211168999999999,1.255633,-0.03441672,-0.1425731,0.7479439,0.0632465,0.3410394,5.890137,32.51
2,0.01727295,-0.1821899,0.9831085,0.8219890999999999,0.01371765,-0.1808167,0.9834136999999998,-34.73772,0.08735657,-31.1114,4.127716,0.5986336,0.6379464,0.8766896000000001,0.03582764,-0.1893616,0.9812469,27.79062,-0.558197,-26.573,4.150192,0.6595483,0.6158723,-0.4211199,1.255592,-0.03438515,-0.1427145,0.7476243,0.06321353,0.3410394,5.890137,32.51
2,0.01727295,-0.1821899,0.9831085,0.8219890999999999,0.01371765,-0.1808167,0.9834136999999998,-34.73772,0.08735657,-31.1114,4.127716,0.5986336,0.6379464,0.8766896000000001,0.03582764,-0.1893616,0.9812469,27.79062,-0.558197,-26.573,4.150192,0.6595483,0.6158723,-0.4211199,1.255592,-0.03438515,-0.1427145,0.7476243,0.06321353,0.3410394,-6.475342,32.51
2,0.01727295,-0.1821899,0.9831085,0.8219890999999999,0.01371765,-0.1808167,0.9834136999999998,-34.73772,0.08735657,-31.1114,4.127716,0.5986336,0.6379464,0.8766896000000001,0.03582764,-0.1893616,0.9812469,27.79062,-0.558197,-26.573,4.150192,0.6595483,0.6158723,-0.4211199,1.255592,-0.03438515,-0.1427145,0.7476243,0.06321353,0.3410394,-6.475342,32.51
2,0.01881409,-0.1921082,0.9811859,0.7936501,0.01567078,-0.1955109,0.9805603,-34.68584,0.2827759,-31.32887,3.997101,0.5966739999999999,0.6360398,0.8919601,0.04237366,-0.1663208,0.9851532,27.800690000000003,-0.380249,-26.82776,4.219345,0.6584211999999999,0.6083145999999999,-0.4209132,1.255597,-0.03433086,-0.1428606,0.7474093,0.06305703,0.3410394,-6.475342,32.51
2,0.01881409,-0.1921082,0.9811859,0.7936501,0.01567078,-0.1955109,0.9805603,-34.68584,0.2827759,-31.32887,3.997101,0.5966739999999999,0.6360398,0.8919601,0.04237366,-0.1663208,0.9851532,27.800690000000003,-0.380249,-26.82776,4.219345,0.6584211999999999,0.6083145999999999,-0.4209132,1.255597,-0.03433086,-0.1428606,0.7474093,0.06305703,0.3410394,-6.475342,32.51
2,0.01881409,-0.1921082,0.9811859,0.7936501,0.01567078,-0.1955109,0.9805603,-34.68584,0.2827759,-31.32887,3.997101,0.5966739999999999,0.6360398,0.8919601,0.04237366,-0.1663208,0.9851532,27.800690000000003,-0.380249,-26.82776,4.219345,0.6584211999999999,0.6083145999999999,-0.4209132,1.255597,-0.03433086,-0.1428606,0.7474093,0.06305703,0.3410394,-6.475342,32.51
2,-1.0,-1.0,-1.0,0.7307734,0.0,0.0,0.0,-34.23645,1.470444,-32.275240000000004,-1.0,0.5743684,0.5715705,0.8387077,0.0,0.0,0.0,27.87581,0.476593,-26.64462,-1.0,0.6476718000000001,0.5530361,-0.4208648,1.255655,-0.03430853,-0.1430629,0.7472913,0.06314243,0.3410394,-6.475342,32.51
2,-1.0,-1.0,-1.0,0.7307734,0.0,0.0,0.0,-34.23645,1.470444,-32.275240000000004,-1.0,0.5743684,0.5715705,0.8387077,0.0,0.0,0.0,27.87581,0.476593,-26.64462,-1.0,0.6476718000000001,0.5530361,-0.4208648,1.255655,-0.03430853,-0.1430629,0.7472913,0.06314243,0.3410394,-6.475342,32.51
2,-1.0,-1.0,-1.0,0.7307734,0.0,0.0,0.0,-34.23645,1.470444,-32.275240000000004,-1.0,0.5743684,0.5715705,0.8387077,0.0,0.0,0.0,27.87581,0.476593,-26.64462,-1.0,0.6476718000000001,0.5530361,-0.4208648,1.255655,-0.03430853,-0.1430629,0.7472913,0.06314243,0.3410394,-6.475342,32.51
2,0.08999634,-0.02742004,0.9955597,0.8137389,0.06315613,-0.003097534,0.9979858,-34.30461,1.321014,-31.80287,4.226074,0.5752488,0.5706627,0.8898341000000001,0.09016418,-0.02758789,0.9955292,27.863540000000004,0.5014801,-26.57446,4.159393,0.6475986,0.5518895,-0.4208467000000001,1.25563,-0.03424573,-0.1425702,0.7472713000000001,0.06333129,0.3410394,-6.475342,32.51
2,0.08999634,-0.02742004,0.9955597,0.8137389,0.06315613,-0.003097534,0.9979858,-34.30461,1.321014,-31.80287,4.226074,0.5752488,0.5706627,0.8898341000000001,0.09016418,-0.02758789,0.9955292,27.863540000000004,0.5014801,-26.57446,4.159393,0.6475986,0.5518895,-0.4208467000000001,1.25563,-0.03424573,-0.1425702,0.7472713000000001,0.06333129,0.3410394,-6.475342,32.51
2,0.08999634,-0.02742004,0.9955597,0.8137389,0.06315613,-0.003097534,0.9979858,-34.30461,1.321014,-31.80287,4.226074,0.5752488,0.5706627,0.8898341000000001,0.09016418,-0.02758789,0.9955292,27.863540000000004,0.5014801,-26.57446,4.159393,0.6475986,0.5518895,-0.4208467000000001,1.25563,-0.03424573,-0.1425702,0.7472713000000001,0.06333129,0.3410394,-6.475342,32.51
2,0.08499146,-0.01779175,0.9962158,0.8218639000000001,0.06005859,0.004180908,0.9981842,-34.31207,1.318253,-31.861040000000003,4.267517,0.5760983000000001,0.570096,0.9057259,0.0879364,-0.02038574,0.9959106,27.873520000000003,0.4581299,-26.46353,4.240173,0.6475137,0.5511239,-0.4208499,1.255586,-0.03425938,-0.1423693,0.7472409999999999,0.06339616,0.3410394,-6.475342,32.51
2,0.08499146,-0.01779175,0.9962158,0.8218639000000001,0.06005859,0.004180908,0.9981842,-34.31207,1.318253,-31.861040000000003,4.267517,0.5760983000000001,0.570096,0.9057259,0.0879364,-0.02038574,0.9959106,27.873520000000003,0.4581299,-26.46353,4.240173,0.6475137,0.5511239,-0.4208499,1.255586,-0.03425938,-0.1423693,0.7472409999999999,0.06339616,0.3410394,-6.475342,32.51
2,0.08499146,-0.01779175,0.9962158,0.8218639000000001,0.06005859,0.004180908,0.9981842,-34.31207,1.318253,-31.861040000000003,4.267517,0.5760983000000001,0.570096,0.9057259,0.0879364,-0.02038574,0.9959106,27.873520000000003,0.4581299,-26.46353,4.240173,0.6475137,0.5511239,-0.4208499,1.255586,-0.03425938,-0.1423693,0.7472409999999999,0.06339616,0.3410394,-6.475342,32.51
2,0.07623291,-0.01907349,0.9969025,0.8661634,0.05877686,-0.007949829,0.99823,-34.3382,1.260101,-31.60841,4.253693,0.5770236999999999,0.571704,0.9632916,0.0821228,-0.02282715,0.9963531,27.890290000000004,0.4273071,-26.40332,4.190399,0.6478133,0.5519457,-0.4208207,1.255593,-0.03427147,-0.1431464,0.7472371,0.06296927,0.3410394,-6.475342,32.51
2,0.07623291,-0.01907349,0.9969025,0.8661634,0.05877686,-0.007949829,0.99823,-34.3382,1.260101,-31.60841,4.253693,0.5770236999999999,0.571704,0.9632916,0.0821228,-0.02282715,0.9963531,27.890290000000004,0.4273071,-26.40332,4.190399,0.6478133,0.5519457,-0.4208207,1.255593,-0.03427147,-0.1431464,0.7472371,0.06296927,0.3410394,-6.475342,32.51
2,0.07623291,-0.01907349,0.9969025,0.8661634,0.05877686,-0.007949829,0.99823,-34.3382,1.260101,-31.60841,4.253693,0.5770236999999999,0.571704,0.9632916,0.0821228,-0.02282715,0.9963531,27.890290000000004,0.4273071,-26.40332,4.190399,0.6478133,0.5519457,-0.4208207,1.255593,-0.03427147,-0.1431464,0.7472371,0.06296927,0.3410394,-6.475342,32.51
3,0.07858276,-0.01901245,0.9967194,1.0,0.05856323,-0.01304626,0.9981842,-34.35841,1.263962,-31.6259,4.122604,0.5777392,0.5725164,1.0,0.08422852,-0.02069092,0.9962311,27.89301,0.4217072,-26.41351,4.163986,0.6473651,0.5518495,-0.4207996,1.255571,-0.03432263,-0.1425852,0.7473241999999999,0.06311981,0.3410394,0.3727627,32.51
3,0.07858276,-0.01901245,0.9967194,1.0,0.05856323,-0.01304626,0.9981842,-34.35841,1.263962,-31.6259,4.122604,0.5777392,0.5725164,1.0,0.08422852,-0.02069092,0.9962311,27.89301,0.4217072,-26.41351,4.163986,0.6473651,0.5518495,-0.4207996,1.255571,-0.03432263,-0.1425852,0.7473241999999999,0.06311981,0.3410394,0.3727627,32.51
3,0.07858276,-0.01901245,0.9967194,1.0,0.05856323,-0.01304626,0.9981842,-34.35841,1.263962,-31.6259,4.122604,0.5777392,0.5725164,1.0,0.08422852,-0.02069092,0.9962311,27.89301,0.4217072,-26.41351,4.163986,0.6473651,0.5518495,-0.4207996,1.255571,-0.03432263,-0.1425852,0.7473241999999999,0.06311981,0.3410394,0.3727627,32.51
3,0.0788268999999999,-0.01832581,0.9967041,1.0,0.06304932,-0.01080322,0.9979401,-34.36748,1.22084,-31.49313,4.137299,0.5771685999999999,0.5723151,1.0,0.08526611,-0.02139282,0.9961243,27.89757,0.4187774999999999,-26.40352,4.144409,0.6470102,0.5519590999999999,-0.420809,1.255509,-0.03431674,-0.1425656,0.7474328,0.06304374,0.3410394,0.3727627,32.51
3,0.0788268999999999,-0.01832581,0.9967041,1.0,0.06304932,-0.01080322,0.9979401,-34.36748,1.22084,-31.49313,4.137299,0.5771685999999999,0.5723151,1.0,0.08526611,-0.02139282,0.9961243,27.89757,0.4187774999999999,-26.40352,4.144409,0.6470102,0.5519590999999999,-0.420809,1.255509,-0.03431674,-0.1425656,0.7474328,0.06304374,0.3410394,0.3727627,32.51
3,0.0788268999999999,-0.01832581,0.9967041,1.0,0.06304932,-0.01080322,0.9979401,-34.36748,1.22084,-31.49313,4.137299,0.5771685999999999,0.5723151,1.0,0.08526611,-0.02139282,0.9961243,27.89757,0.4187774999999999,-26.40352,4.144409,0.6470102,0.5519590999999999,-0.420809,1.255509,-0.03431674,-0.1425656,0.7474328,0.06304374,0.3410394,0.3727627,32.51
3,0.07949829,-0.01786804,0.9966736,1.0,0.06074524,-0.008834839,0.9981079,-34.36844,1.204132,-31.43721,4.131058,0.5775491999999999,0.5719960999999999,1.0,0.08680725,-0.02139282,0.9959869,27.89888,0.4217072,-26.41351,4.144348,0.6467187,0.5519590999999999,-0.4208593,1.25549,-0.03426613,-0.1425826,0.7473933,0.06326797,0.3410394,0.3727627,32.51
3,0.07949829,-0.01786804,0.9966736,1.0,0.06074524,-0.008834839,0.9981079,-34.36844,1.204132,-31.43721,4.131058,0.5775491999999999,0.5719960999999999,1.0,0.08680725,-0.02139282,0.9959869,27.89888,0.4217072,-26.41351,4.144348,0.6467187,0.5519590999999999,-0.4208593,1.25549,-0.03426613,-0.1425826,0.7473933,0.06326797,0.3410394,0.3727627,32.51
3,0.07949829,-0.01786804,0.9966736,1.0,0.06074524,-0.008834839,0.9981079,-34.36844,1.204132,-31.43721,4.131058,0.5775491999999999,0.5719960999999999,1.0,0.08680725,-0.02139282,0.9959869,27.89888,0.4217072,-26.41351,4.144348,0.6467187,0.5519590999999999,-0.4208593,1.25549,-0.03426613,-0.1425826,0.7473933,0.06326797,0.3410394,0.3727627,32.51
3,0.07949829,-0.01786804,0.9966736,1.0,0.06074524,-0.008834839,0.9981079,-34.36844,1.204132,-31.43721,4.131058,0.5775491999999999,0.5719960999999999,1.0,0.08680725,-0.02139282,0.9959869,27.89888,0.4217072,-26.41351,4.144348,0.6467187,0.5519590999999999,-0.4209018,1.255595,-0.03414416,-0.1425184,0.7472015999999999,0.06340557,0.3410394,0.3727627,32.51
3,0.07949829,-0.01786804,0.9966736,1.0,0.06074524,-0.008834839,0.9981079,-34.36844,1.204132,-31.43721,4.131058,0.5775491999999999,0.5719960999999999,1.0,0.08680725,-0.02139282,0.9959869,27.89888,0.4217072,-26.41351,4.144348,0.6467187,0.5519590999999999,-0.4209018,1.255595,-0.03414416,-0.1425184,0.7472015999999999,0.06340557,0.3410394,0.3727627,32.51
3,0.07949829,-0.01786804,0.9966736,1.0,0.06074524,-0.008834839,0.9981079,-34.36844,1.204132,-31.43721,4.131058,0.5775491999999999,0.5719960999999999,1.0,0.08680725,-0.02139282,0.9959869,27.89888,0.4217072,-26.41351,4.144348,0.6467187,0.5519590999999999,-0.4209018,1.255595,-0.03414416,-0.1425184,0.7472015999999999,0.06340557,0.3410394,0.3727627,32.51
3,0.07929993,-0.01445007,0.9967346,1.0,0.06378174,-0.00680542,0.9979401,-34.38026,1.1705020000000002,-31.3559,4.131317,0.5773647,0.5719960999999999,1.0,0.08676147,-0.01812744,0.9960632,27.908140000000003,0.4225159,-26.46771,4.110672,0.6464664999999999,0.5518629,-0.4208826,1.255647,-0.03409603,-0.1426311,0.7471486999999999,0.06318241,0.3410394,0.3727627,32.51
3,0.07929993,-0.01445007,0.9967346,1.0,0.06378174,-0.00680542,0.9979401,-34.38026,1.1705020000000002,-31.3559,4.131317,0.5773647,0.5719960999999999,1.0,0.08676147,-0.01812744,0.9960632,27.908140000000003,0.4225159,-26.46771,4.110672,0.6464664999999999,0.5518629,-0.4208826,1.255647,-0.03409603,-0.1426311,0.7471486999999999,0.06318241,0.3410394,0.3727627,32.51
3,0.07929993,-0.01445007,0.9967346,1.0,0.06378174,-0.00680542,0.9979401,-34.38026,1.1705020000000002,-31.3559,4.131317,0.5773647,0.5719960999999999,1.0,0.08676147,-0.01812744,0.9960632,27.908140000000003,0.4225159,-26.46771,4.110672,0.6464664999999999,0.5518629,-0.4208826,1.255647,-0.03409603,-0.1426311,0.7471486999999999,0.06318241,0.3410394,0.3727627,32.51
3,0.07241821,-0.0081024169999999,0.9973297,1.0,0.06590271,-0.00302124,0.997818,-34.3965,1.140564,-31.29225,4.136124,0.5775048,0.5717426,1.0,0.08338928,-0.01664734,0.9963684000000002,27.93584,0.4485015999999999,-26.60054,4.113663,0.6462779000000001,0.5519864999999999,-0.4208909,1.255665,-0.03406513,-0.1425494,0.7470127,0.06342449,0.3410394,6.113005,32.51
3,0.07241821,-0.0081024169999999,0.9973297,1.0,0.06590271,-0.00302124,0.997818,-34.3965,1.140564,-31.29225,4.136124,0.5775048,0.5717426,1.0,0.08338928,-0.01664734,0.9963684000000002,27.93584,0.4485015999999999,-26.60054,4.113663,0.6462779000000001,0.5519864999999999,-0.4208909,1.255665,-0.03406513,-0.1425494,0.7470127,0.06342449,0.3410394,6.113005,32.51
3,0.07241821,-0.0081024169999999,0.9973297,1.0,0.06590271,-0.00302124,0.997818,-34.3965,1.140564,-31.29225,4.136124,0.5775048,0.5717426,1.0,0.08338928,-0.01664734,0.9963684000000002,27.93584,0.4485015999999999,-26.60054,4.113663,0.6462779000000001,0.5519864999999999,-0.4208909,1.255665,-0.03406513,-0.1425494,0.7470127,0.06342449,0.3410394,6.113005,32.51
3,0.07345581,-0.006744385,0.9972687,1.0,0.06466675,-0.0007324219,0.9978943,-34.40138,1.131577,-31.26591,4.166931,0.5778713000000001,0.5714195,1.0,0.082901,-0.01321411,0.99646,27.9406,0.4484558,-26.60054,4.154129,0.6462147,0.5514288,-0.421,1.255593,-0.03399999,-0.1425558,0.7470285,0.06342046,0.3410394,6.113005,32.51
3,0.07345581,-0.006744385,0.9972687,1.0,0.06466675,-0.0007324219,0.9978943,-34.40138,1.131577,-31.26591,4.166931,0.5778713000000001,0.5714195,1.0,0.082901,-0.01321411,0.99646,27.9406,0.4484558,-26.60054,4.154129,0.6462147,0.5514288,-0.421,1.255593,-0.03399999,-0.1425558,0.7470285,0.06342046,0.3410394,6.113005,32.51
3,0.07345581,-0.006744385,0.9972687,1.0,0.06466675,-0.0007324219,0.9978943,-34.40138,1.131577,-31.26591,4.166931,0.5778713000000001,0.5714195,1.0,0.082901,-0.01321411,0.99646,27.9406,0.4484558,-26.60054,4.154129,0.6462147,0.5514288,-0.421,1.255593,-0.03399999,-0.1425558,0.7470285,0.06342046,0.3410394,6.113005,32.51
3,0.02461243,-0.1108246,0.9935303,1.0,0.02334595,-0.1105347,0.9935913,-34.555240000000005,0.6248169,-31.36389,4.222382,0.5906545999999999,0.6092523,1.0,0.04498291,-0.1154022,0.9922943,27.54356,-0.2492828,-25.98958,4.285492,0.6654505000000001,0.5867526999999999,-0.4209945,1.255636,-0.03403593,-0.1424891,0.747088,0.06355684,0.3410394,6.113005,32.51
3,0.02461243,-0.1108246,0.9935303,1.0,0.02334595,-0.1105347,0.9935913,-34.555240000000005,0.6248169,-31.36389,4.222382,0.5906545999999999,0.6092523,1.0,0.04498291,-0.1154022,0.9922943,27.54356,-0.2492828,-25.98958,4.285492,0.6654505000000001,0.5867526999999999,-0.4209945,1.255636,-0.03403593,-0.1424891,0.747088,0.06355684,0.3397583,6.113005,32.51
3,0.02461243,-0.1108246,0.9935303,1.0,0.02334595,-0.1105347,0.9935913,-34.555240000000005,0.6248169,-31.36389,4.222382,0.5906545999999999,0.6092523,1.0,0.04498291,-0.1154022,0.9922943,27.54356,-0.2492828,-25.98958,4.285492,0.6654505000000001,0.5867526999999999,-0.4209945,1.255636,-0.03403593,-0.1424891,0.747088,0.06355684,0.3397583,6.113005,32.51
3,0.02006531,-0.1886597,0.9818268,1.0,0.01972961,-0.1884154999999999,0.9818878,-34.54573,0.326828,-31.3903,4.111786,0.5911626,0.6338689000000001,1.0,0.0280304,-0.1945801,0.980484,27.571690000000004,-0.3729401,-26.5443,4.3441160000000005,0.6683769,0.6103433000000001,-0.4209945,1.255636,-0.03403593,-0.1424891,0.747088,0.06355684,0.3397583,6.113005,32.51
3,0.02006531,-0.1886597,0.9818268,1.0,0.01972961,-0.1884154999999999,0.9818878,-34.54573,0.326828,-31.3903,4.111786,0.5911626,0.6338689000000001,1.0,0.0280304,-0.1945801,0.980484,27.571690000000004,-0.3729401,-26.5443,4.3441160000000005,0.6683769,0.6103433000000001,-0.4209945,1.255636,-0.03403593,-0.1424891,0.747088,0.06355684,0.3397583,6.113005,32.51
3,0.02006531,-0.1886597,0.9818268,1.0,0.01972961,-0.1884154999999999,0.9818878,-34.54573,0.326828,-31.3903,4.111786,0.5911626,0.6338689000000001,1.0,0.0280304,-0.1945801,0.980484,27.571690000000004,-0.3729401,-26.5443,4.3441160000000005,0.6683769,0.6103433000000001,-0.4209945,1.255636,-0.03403593,-0.1424891,0.747088,0.06355684,0.3397583,6.113005,32.51
3,0.006439209,-0.2601623999999999,0.9655304,0.8653726,0.00428772,-0.2605133,0.9654541,-34.5824,-0.01612854,-31.4937,3.991699,0.5954537,0.6603210999999999,0.9308953,0.04438782,-0.2539368,0.9661865,27.57423,-0.8018188,-26.62479,4.331146,0.665875,0.6364524,-0.4208997,1.255618,-0.03399907,-0.1425215,0.7471709,0.06317482,0.3397583,-3.160864,32.51
3,0.006439209,-0.2601623999999999,0.9655304,0.8653726,0.00428772,-0.2605133,0.9654541,-34.5824,-0.01612854,-31.4937,3.991699,0.5954537,0.6603210999999999,0.9308953,0.04438782,-0.2539368,0.9661865,27.57423,-0.8018188,-26.62479,4.331146,0.665875,0.6364524,-0.4208997,1.255618,-0.03399907,-0.1425215,0.7471709,0.06317482,0.3397583,-3.160864,32.51
3,0.006439209,-0.2601623999999999,0.9655304,0.8653726,0.00428772,-0.2605133,0.9654541,-34.5824,-0.01612854,-31.4937,3.991699,0.5954537,0.6603210999999999,0.9308953,0.04438782,-0.2539368,0.9661865,27.57423,-0.8018188,-26.62479,4.331146,0.665875,0.6364524,-0.4208997,1.255618,-0.03399907,-0.1425215,0.7471709,0.06317482,0.3397583,-3.160864,32.51
3,0.02972412,-0.2780457,0.9600983,0.8472209999999999,0.01597595,-0.2823792,0.9591675,-34.63997,-0.03097534,-31.50328,4.025467,0.5955541,0.6651146,0.9241071,0.04328918,-0.2737122,0.9608307,27.622940000000003,-0.7607727,-26.606890000000003,4.295914,0.6643935000000001,0.6384594,-0.4209117999999999,1.255545,-0.03390316,-0.1423522,0.7470918000000001,0.06309001,0.3397583,-3.160864,32.51
3,0.02972412,-0.2780457,0.9600983,0.8472209999999999,0.01597595,-0.2823792,0.9591675,-34.63997,-0.03097534,-31.50328,4.025467,0.5955541,0.6651146,0.9241071,0.04328918,-0.2737122,0.9608307,27.622940000000003,-0.7607727,-26.606890000000003,4.295914,0.6643935000000001,0.6384594,-0.4209117999999999,1.255545,-0.03390316,-0.1423522,0.7470918000000001,0.06309001,0.3397583,-3.160864,32.51
3,0.02972412,-0.2780457,0.9600983,0.8472209999999999,0.01597595,-0.2823792,0.9591675,-34.63997,-0.03097534,-31.50328,4.025467,0.5955541,0.6651146,0.9241071,0.04328918,-0.2737122,0.9608307,27.622940000000003,-0.7607727,-26.606890000000003,4.295914,0.6643935000000001,0.6384594,-0.4209117999999999,1.255545,-0.03390316,-0.1423522,0.7470918000000001,0.06309001,0.3397583,-3.160864,32.51
3,0.03462219,-0.2771301,0.9602051,0.8286073,0.0333251999999999,-0.2770081,0.9602814,-34.6757,-0.03666687,-31.50555,4.1898040000000005,0.5938513000000001,0.6643744,0.8748302,0.03578186,-0.2772369,0.9601288,27.67114,-0.7477264,-26.60641,4.295425,0.664008,0.6386401999999999,-0.4209117999999999,1.255545,-0.03390316,-0.1423522,0.7470918000000001,0.06309001,0.3397583,-3.160864,32.51
3,0.03462219,-0.2771301,0.9602051,0.8286073,0.0333251999999999,-0.2770081,0.9602814,-34.6757,-0.03666687,-31.50555,4.1898040000000005,0.5938513000000001,0.6643744,0.8748302,0.03578186,-0.2772369,0.9601288,27.67114,-0.7477264,-26.60641,4.295425,0.664008,0.6386401999999999,-0.4209117999999999,1.255545,-0.03390316,-0.1423522,0.7470918000000001,0.06309001,0.3397583,-3.160864,32.51
3,0.03462219,-0.2771301,0.9602051,0.8286073,0.0333251999999999,-0.2770081,0.9602814,-34.6757,-0.03666687,-31.50555,4.1898040000000005,0.5938513000000001,0.6643744,0.8748302,0.03578186,-0.2772369,0.9601288,27.67114,-0.7477264,-26.60641,4.295425,0.664008,0.6386401999999999,-0.4209117999999999,1.255545,-0.03390316,-0.1423522,0.7470918000000001,0.06309001,0.3397583,-3.160864,32.51
3,0.02923584,-0.2802277,0.9594726999999998,0.8260641,0.02848816,-0.281723,0.9590607,-34.6828,-0.02433777,-31.503740000000004,4.205856,0.5949525999999999,0.6648210999999999,0.8393763000000001,0.02989197,-0.2789307,0.9598389,27.69626,-0.7435913000000001,-26.60524,4.3022160000000005,0.6641431999999999,0.6387868,-0.4208729999999999,1.2554459999999998,-0.03389852,-0.141988,0.7469826999999999,0.06298807,0.3397583,-3.160864,32.51
3,0.02923584,-0.2802277,0.9594726999999998,0.8260641,0.02848816,-0.281723,0.9590607,-34.6828,-0.02433777,-31.503740000000004,4.205856,0.5949525999999999,0.6648210999999999,0.8393763000000001,0.02989197,-0.2789307,0.9598389,27.69626,-0.7435913000000001,-26.60524,4.3022160000000005,0.6641431999999999,0.6387868,-0.4208729999999999,1.2554459999999998,-0.03389852,-0.141988,0.7469826999999999,0.06298807,0.3397583,-3.160864,32.51
3,0.02923584,-0.2802277,0.9594726999999998,0.8260641,0.02848816,-0.281723,0.9590607,-34.6828,-0.02433777,-31.503740000000004,4.205856,0.5949525999999999,0.6648210999999999,0.8393763000000001,0.02989197,-0.2789307,0.9598389,27.69626,-0.7435913000000001,-26.60524,4.3022160000000005,0.6641431999999999,0.6387868,-0.4208729999999999,1.2554459999999998,-0.03389852,-0.141988,0.7469826999999999,0.06298807,0.3397583,-3.160864,32.51
3,0.02789307,-0.2789917,0.9598846,0.7989311,0.02494812,-0.2789612,0.9599761999999998,-34.69212,-0.03404236,-31.50591,4.225204,0.595893,0.6646729,0.8318390999999999,0.03038025,-0.279007,0.9597931,27.70107,-0.7437286,-26.60301,4.319351,0.6638979,0.6387868,-0.4208287,1.25544,-0.03382284,-0.1418137,0.7468151,0.0629411,0.3397583,-3.160864,32.51
3,0.02789307,-0.2789917,0.9598846,0.7989311,0.02494812,-0.2789612,0.9599761999999998,-34.69212,-0.03404236,-31.50591,4.225204,0.595893,0.6646729,0.8318390999999999,0.03038025,-0.279007,0.9597931,27.70107,-0.7437286,-26.60301,4.319351,0.6638979,0.6387868,-0.4208287,1.25544,-0.03382284,-0.1418137,0.7468151,0.0629411,0.3397583,-3.160864,32.51
3,0.02789307,-0.2789917,0.9598846,0.7989311,0.02494812,-0.2789612,0.9599761999999998,-34.69212,-0.03404236,-31.50591,4.225204,0.595893,0.6646729,0.8318390999999999,0.03038025,-0.279007,0.9597931,27.70107,-0.7437286,-26.60301,4.319351,0.6638979,0.6387868,-0.4208287,1.25544,-0.03382284,-0.1418137,0.7468151,0.0629411,0.3397583,-3.160864,32.51
3,0.02529907,-0.2788849,0.9599761999999998,0.8188177,0.02127075,-0.2782288,0.9602661,-34.69736,-0.03268433,-31.50548,4.2247010000000005,0.5967063,0.6644866999999999,0.8371014999999999,0.02815247,-0.2793427,0.9597626,27.70798,-0.7437286,-26.60191,4.31926,0.6640347,0.6388408,-0.4207885,1.255452,-0.03379559,-0.141948,0.7468359999999999,0.06308992,0.3397583,-3.160864,32.51
3,0.02529907,-0.2788849,0.9599761999999998,0.8188177,0.02127075,-0.2782288,0.9602661,-34.69736,-0.03268433,-31.50548,4.2247010000000005,0.5967063,0.6644866999999999,0.8371014999999999,0.02815247,-0.2793427,0.9597626,27.70798,-0.7437286,-26.60191,4.31926,0.6640347,0.6388408,-0.4207885,1.255452,-0.03379559,-0.141948,0.7468359999999999,0.06308992,0.3397583,-3.160864,32.51
3,0.02529907,-0.2788849,0.9599761999999998,0.8188177,0.02127075,-0.2782288,0.9602661,-34.69736,-0.03268433,-31.50548,4.2247010000000005,0.5967063,0.6644866999999999,0.8371014999999999,0.02815247,-0.2793427,0.9597626,27.70798,-0.7437286,-26.60191,4.31926,0.6640347,0.6388408,-0.4207885,1.255452,-0.03379559,-0.141948,0.7468359999999999,0.06308992,0.3397583,-3.160864,32.51
3,0.02529907,-0.2788849,0.9599761999999998,0.8188177,0.02127075,-0.2782288,0.9602661,-34.69736,-0.03268433,-31.50548,4.2247010000000005,0.5967063,0.6644866999999999,0.8371014999999999,0.02815247,-0.2793427,0.9597626,27.70798,-0.7437286,-26.60191,4.31926,0.6640347,0.6388408,-0.4207710999999999,1.255441,-0.03383812,-0.1420775,0.7467791,0.06292365,0.3397583,-6.688726,32.51
3,0.02529907,-0.2788849,0.9599761999999998,0.8188177,0.02127075,-0.2782288,0.9602661,-34.69736,-0.03268433,-31.50548,4.2247010000000005,0.5967063,0.6644866999999999,0.8371014999999999,0.02815247,-0.2793427,0.9597626,27.70798,-0.7437286,-26.60191,4.31926,0.6640347,0.6388408,-0.4207710999999999,1.255441,-0.03383812,-0.1420775,0.7467791,0.06292365,0.3397583,-6.688726,32.51
3,0.02529907,-0.2788849,0.9599761999999998,0.8188177,0.02127075,-0.2782288,0.9602661,-34.69736,-0.03268433,-31.50548,4.2247010000000005,0.5967063,0.6644866999999999,0.8371014999999999,0.02815247,-0.2793427,0.9597626,27.70798,-0.7437286,-26.60191,4.31926,0.6640347,0.6388408,-0.4207710999999999,1.255441,-0.03383812,-0.1420775,0.7467791,0.06292365,0.3397583,-6.688726,32.51
3,0.02363586,-0.2785339,0.9601288,0.8188177,0.02070618,-0.2790527,0.9600372,-34.69998,-0.03155518,-31.50542,4.226883,0.5969005999999999,0.6645989000000001,0.8371014999999999,0.02571106,-0.2781677,0.9601746,27.71974,-0.7490845,-26.60078,4.3190610000000005,0.6640347,0.6387868,-0.4207710999999999,1.255441,-0.03383812,-0.1420775,0.7467791,0.06292365,0.3397583,-6.688726,32.51
3,0.02363586,-0.2785339,0.9601288,0.8188177,0.02070618,-0.2790527,0.9600372,-34.69998,-0.03155518,-31.50542,4.226883,0.5969005999999999,0.6645989000000001,0.8371014999999999,0.02571106,-0.2781677,0.9601746,27.71974,-0.7490845,-26.60078,4.3190610000000005,0.6640347,0.6387868,-0.4207710999999999,1.255441,-0.03383812,-0.1420775,0.7467791,0.06292365,0.3397583,-6.688726,32.51
3,0.02363586,-0.2785339,0.9601288,0.8188177,0.02070618,-0.2790527,0.9600372,-34.69998,-0.03155518,-31.50542,4.226883,0.5969005999999999,0.6645989000000001,0.8371014999999999,0.02571106,-0.2781677,0.9601746,27.71974,-0.7490845,-26.60078,4.3190610000000005,0.6640347,0.6387868,-0.4207710999999999,1.255441,-0.03383812,-0.1420775,0.7467791,0.06292365,0.3397583,-6.688726,32.51
3,0.02534485,-0.2754517,0.960968,0.8141148,0.02445984,-0.2729187,0.9617157,-34.75853,-0.05665588,-31.50348,4.243866000000001,0.5982987,0.6643183000000001,0.7947001,0.02622986,-0.2779694,0.9602203,27.728790000000004,-0.7519989,-26.59827,4.323242,0.6636337,0.6388180999999999,-0.4207225,1.25549,-0.03385414,-0.1419297999999999,0.7469026999999999,0.06292065,0.3397583,-6.688726,32.51
3,0.02534485,-0.2754517,0.960968,0.8141148,0.02445984,-0.2729187,0.9617157,-34.75853,-0.05665588,-31.50348,4.243866000000001,0.5982987,0.6643183000000001,0.7947001,0.02622986,-0.2779694,0.9602203,27.728790000000004,-0.7519989,-26.59827,4.323242,0.6636337,0.6388180999999999,-0.4207225,1.25549,-0.03385414,-0.1419297999999999,0.7469026999999999,0.06292065,0.3397583,-6.688726,32.51
3,0.02534485,-0.2754517,0.960968,0.8141148,0.02445984,-0.2729187,0.9617157,-34.75853,-0.05665588,-31.50348,4.243866000000001,0.5982987,0.6643183000000001,0.7947001,0.02622986,-0.2779694,0.9602203,27.728790000000004,-0.7519989,-26.59827,4.323242,0.6636337,0.6388180999999999,-0.4207225,1.25549,-0.03385414,-0.1419297999999999,0.7469026999999999,0.06292065,0.3397583,-6.688726,32.51
3,0.02687073,-0.2771454,0.9604492,0.7715483,0.02023315,-0.2740631,0.9614868,-34.76149,-0.05665588,-31.50217,4.248016000000001,0.5991368,0.6645308000000001,0.80437,0.03282166,-0.279892,0.9594574,27.74123,-0.7183838,-26.59282,4.335876,0.6620933000000001,0.6379643,-0.4207996,1.255413,-0.03385179,-0.1418836,0.7470346999999999,0.06269645,0.3397583,-6.688726,32.51
3,0.02687073,-0.2771454,0.9604492,0.7715483,0.02023315,-0.2740631,0.9614868,-34.76149,-0.05665588,-31.50217,4.248016000000001,0.5991368,0.6645308000000001,0.80437,0.03282166,-0.279892,0.9594574,27.74123,-0.7183838,-26.59282,4.335876,0.6620933000000001,0.6379643,-0.4207996,1.255413,-0.03385179,-0.1418836,0.7470346999999999,0.06269645,0.3397583,-6.688726,32.51
3,0.02687073,-0.2771454,0.9604492,0.7715483,0.02023315,-0.2740631,0.9614868,-34.76149,-0.05665588,-31.50217,4.248016000000001,0.5991368,0.6645308000000001,0.80437,0.03282166,-0.279892,0.9594574,27.74123,-0.7183838,-26.59282,4.335876,0.6620933000000001,0.6379643,-0.4207996,1.255413,-0.03385179,-0.1418836,0.7470346999999999,0.06269645,0.3397583,-6.688726,32.51
3,0.0322876,-0.3083649,0.9507141,0.7815270000000001,0.02604675,-0.3396606,0.9401703,-34.62878,-0.1188507,-31.53194,4.207580999999999,0.5937625,0.6795521,0.7780009,0.03630066,-0.2880096,0.9569244,27.70172,-0.8837280000000001,-26.642090000000003,4.389435,0.6630111,0.6456334,-0.4208077999999999,1.255417,-0.03386511,-0.1415455,0.7471065,0.06230436,0.3397583,-6.688726,32.51
3,0.0322876,-0.3083649,0.9507141,0.7815270000000001,0.02604675,-0.3396606,0.9401703,-34.62878,-0.1188507,-31.53194,4.207580999999999,0.5937625,0.6795521,0.7780009,0.03630066,-0.2880096,0.9569244,27.70172,-0.8837280000000001,-26.642090000000003,4.389435,0.6630111,0.6456334,-0.4208077999999999,1.255417,-0.03386511,-0.1415455,0.7471065,0.06230436,0.3397583,-6.688726,32.51
3,0.0322876,-0.3083649,0.9507141,0.7815270000000001,0.02604675,-0.3396606,0.9401703,-34.62878,-0.1188507,-31.53194,4.207580999999999,0.5937625,0.6795521,0.7780009,0.03630066,-0.2880096,0.9569244,27.70172,-0.8837280000000001,-26.642090000000003,4.389435,0.6630111,0.6456334,-0.4208077999999999,1.255417,-0.03386511,-0.1415455,0.7471065,0.06230436,0.3397583,-6.688726,32.51
3,0.02838135,-0.4374542,0.8987885,0.5631732,0.02566528,-0.4393920999999999,0.8979187,-34.53023,-0.7466735999999999,-31.81557,4.217651,0.5913974,0.7250323000000001,0.604657,0.03227234,-0.4346465999999999,0.9000091999999998,27.60814,-1.525696,-26.93054,4.103668,0.6681175,0.6988101999999999,-0.4208802,1.255285,-0.03387232,-0.1408968,0.7473103,0.06186213,0.3397583,2.61935,32.51
3,0.02838135,-0.4374542,0.8987885,0.5631732,0.02566528,-0.4393920999999999,0.8979187,-34.53023,-0.7466735999999999,-31.81557,4.217651,0.5913974,0.7250323000000001,0.604657,0.03227234,-0.4346465999999999,0.9000091999999998,27.60814,-1.525696,-26.93054,4.103668,0.6681175,0.6988101999999999,-0.4208802,1.255285,-0.03387232,-0.1408968,0.7473103,0.06186213,0.3397583,2.61935,32.51
3,0.02838135,-0.4374542,0.8987885,0.5631732,0.02566528,-0.4393920999999999,0.8979187,-34.53023,-0.7466735999999999,-31.81557,4.217651,0.5913974,0.7250323000000001,0.604657,0.03227234,-0.4346465999999999,0.9000091999999998,27.60814,-1.525696,-26.93054,4.103668,0.6681175,0.6988101999999999,-0.4208802,1.255285,-0.03387232,-0.1408968,0.7473103,0.06186213,0.3397583,2.61935,32.51
3,0.02780151,-0.4469604,0.8941193000000001,0.448912,0.02593994,-0.4530944999999999,0.8910674999999999,-34.5925,-0.7851104999999999,-31.82953,4.122116,0.5936461,0.7294593,0.5231462,0.03240967,-0.4317322,0.901413,27.68921,-1.6480709999999998,-26.98628,4.031174,0.6653564999999999,0.7030751999999999,-0.4208242,1.2552299999999998,-0.03389836,-0.1406347,0.7472781,0.06157513,0.3397583,2.61935,32.51
3,0.02780151,-0.4469604,0.8941193000000001,0.448912,0.02593994,-0.4530944999999999,0.8910674999999999,-34.5925,-0.7851104999999999,-31.82953,4.122116,0.5936461,0.7294593,0.5231462,0.03240967,-0.4317322,0.901413,27.68921,-1.6480709999999998,-26.98628,4.031174,0.6653564999999999,0.7030751999999999,-0.4208242,1.2552299999999998,-0.03389836,-0.1406347,0.7472781,0.06157513,0.3397583,2.61935,32.51
3,0.02780151,-0.4469604,0.8941193000000001,0.448912,0.02593994,-0.4530944999999999,0.8910674999999999,-34.5925,-0.7851104999999999,-31.82953,4.122116,0.5936461,0.7294593,0.5231462,0.03240967,-0.4317322,0.901413,27.68921,-1.6480709999999998,-26.98628,4.031174,0.6653564999999999,0.7030751999999999,-0.4208242,1.2552299999999998,-0.03389836,-0.1406347,0.7472781,0.06157513,0.3397583,2.61935,32.51
3,0.02285767,-0.43573,0.8997803,0.4262592,0.01548767,-0.4415436,0.8970947,-34.59073,-0.7527771,-31.802670000000003,4.167374,0.5953007,0.7255832,0.5082573,0.03596497,-0.4252777,0.9043427,27.69151,-1.639114,-26.98164,4.072739,0.6646430999999999,0.7014305000000001,-0.4208429,1.255246,-0.03393953,-0.140577,0.7473335,0.06160774,0.3397583,2.61935,32.51
3,0.02285767,-0.43573,0.8997803,0.4262592,0.01548767,-0.4415436,0.8970947,-34.59073,-0.7527771,-31.802670000000003,4.167374,0.5953007,0.7255832,0.5082573,0.03596497,-0.4252777,0.9043427,27.69151,-1.639114,-26.98164,4.072739,0.6646430999999999,0.7014305000000001,-0.4208429,1.255246,-0.03393953,-0.140577,0.7473335,0.06160774,0.3397583,2.61935,32.51
3,0.02285767,-0.43573,0.8997803,0.4262592,0.01548767,-0.4415436,0.8970947,-34.59073,-0.7527771,-31.802670000000003,4.167374,0.5953007,0.7255832,0.5082573,0.03596497,-0.4252777,0.9043427,27.69151,-1.639114,-26.98164,4.072739,0.6646430999999999,0.7014305000000001,-0.4208429,1.255246,-0.03393953,-0.140577,0.7473335,0.06160774,0.3397583,2.61935,32.51
3,0.03491211,-0.4506226,0.8920135,0.4537998,0.03108215,-0.4693604,0.8824463,-34.60217,-0.7489014,-31.82204,4.049728,0.5931323000000001,0.731468,0.5243028000000001,0.03971863,-0.4267730999999999,0.9034729,27.69922,-1.627289,-26.97539,4.098267,0.6637409000000001,0.7012446,-0.4208429,1.255246,-0.03393953,-0.140577,0.7473335,0.06160774,0.3397583,2.61935,32.51
3,0.03491211,-0.4506226,0.8920135,0.4537998,0.03108215,-0.4693604,0.8824463,-34.60217,-0.7489014,-31.82204,4.049728,0.5931323000000001,0.731468,0.5243028000000001,0.03971863,-0.4267730999999999,0.9034729,27.69922,-1.627289,-26.97539,4.098267,0.6637409000000001,0.7012446,-0.4208429,1.255246,-0.03393953,-0.140577,0.7473335,0.06160774,0.3397583,2.61935,32.51
3,0.03491211,-0.4506226,0.8920135,0.4537998,0.03108215,-0.4693604,0.8824463,-34.60217,-0.7489014,-31.82204,4.049728,0.5931323000000001,0.731468,0.5243028000000001,0.03971863,-0.4267730999999999,0.9034729,27.69922,-1.627289,-26.97539,4.098267,0.6637409000000001,0.7012446,-0.4208429,1.255246,-0.03393953,-0.140577,0.7473335,0.06160774,0.3397583,2.61935,32.51
3,0.0357666,-0.4352264,0.8995972,0.4799016,0.02915955,-0.4434357,0.8958282,-34.61566,-0.8927765,-31.86545,4.11763,0.5939574000000001,0.7317800999999999,0.5059243,0.04173279,-0.4277801999999999,0.9029083,27.70352,-1.625839,-26.97522,4.071075,0.6632404000000001,0.7013971,-0.4208598,1.2552,-0.03394387,-0.1406997,0.7471875,0.06158396,0.3397583,2.61935,32.51
3,0.0357666,-0.4352264,0.8995972,0.4799016,0.02915955,-0.4434357,0.8958282,-34.61566,-0.8927765,-31.86545,4.11763,0.5939574000000001,0.7317800999999999,0.5059243,0.04173279,-0.4277801999999999,0.9029083,27.70352,-1.625839,-26.97522,4.071075,0.6632404000000001,0.7013971,-0.4208598,1.2552,-0.03394387,-0.1406997,0.7471875,0.06158396,0.3397583,2.61935,32.51
3,0.0357666,-0.4352264,0.8995972,0.4799016,0.02915955,-0.4434357,0.8958282,-34.61566,-0.8927765,-31.86545,4.11763,0.5939574000000001,0.7317800999999999,0.5059243,0.04173279,-0.4277801999999999,0.9029083,27.70352,-1.625839,-26.97522,4.071075,0.6632404000000001,0.7013971,-0.4208598,1.2552,-0.03394387,-0.1406997,0.7471875,0.06158396,0.3397583,2.61935,32.51
3,0.037323,-0.4378357,0.8982697000000001,0.4792719,0.02970886,-0.4453735,0.8948364,-34.6246,-0.8927765,-31.86545,4.067291,0.5941739,0.7321973,0.5154738,0.04580688,-0.4293518,0.9019623,27.72029,-1.625839,-26.97522,3.988388,0.6619328,0.7017149,-0.4209378,1.255159,-0.03393168,-0.1404043999999999,0.7472698,0.06158009,0.3397583,5.253281,32.51
3,0.037323,-0.4378357,0.8982697000000001,0.4792719,0.02970886,-0.4453735,0.8948364,-34.6246,-0.8927765,-31.86545,4.067291,0.5941739,0.7321973,0.5154738,0.04580688,-0.4293518,0.9019623,27.72029,-1.625839,-26.97522,3.988388,0.6619328,0.7017149,-0.4209378,1.255159,-0.03393168,-0.1404043999999999,0.7472698,0.06158009,0.3397583,5.253281,32.51
3,0.037323,-0.4378357,0.8982697000000001,0.4792719,0.02970886,-0.4453735,0.8948364,-34.6246,-0.8927765,-31.86545,4.067291,0.5941739,0.7321973,0.5154738,0.04580688,-0.4293518,0.9019623,27.72029,-1.625839,-26.97522,3.988388,0.6619328,0.7017149,-0.4209378,1.255159,-0.03393168,-0.1404043999999999,0.7472698,0.06158009,0.3397583,5.253281,32.51
3,0.03701782,-0.4526062,0.8909302,0.4694094,0.02713013,-0.4626923,0.8860931000000001,-34.62608,-0.803299,-31.83466,4.118393,0.5947077,0.7321973,0.5574710999999999,0.04864502,-0.4406127999999999,0.8963623,27.72083,-1.625839,-26.97545,3.985565,0.6614937,0.7039592,-0.4209378,1.255159,-0.03393168,-0.1404043999999999,0.7472698,0.06158009,0.3397583,5.253281,32.51
3,0.03701782,-0.4526062,0.8909302,0.4694094,0.02713013,-0.4626923,0.8860931000000001,-34.62608,-0.803299,-31.83466,4.118393,0.5947077,0.7321973,0.5574710999999999,0.04864502,-0.4406127999999999,0.8963623,27.72083,-1.625839,-26.97545,3.985565,0.6614937,0.7039592,-0.4209378,1.255159,-0.03393168,-0.1404043999999999,0.7472698,0.06158009,0.3397583,5.253281,32.49
3,0.03701782,-0.4526062,0.8909302,0.4694094,0.02713013,-0.4626923,0.8860931000000001,-34.62608,-0.803299,-31.83466,4.118393,0.5947077,0.7321973,0.5574710999999999,0.04864502,-0.4406127999999999,0.8963623,27.72083,-1.625839,-26.97545,3.985565,0.6614937,0.7039592,-0.4209378,1.255159,-0.03393168,-0.1404043999999999,0.7472698,0.06158009,0.3397583,5.253281,32.49
3,0.03483582,-0.4614104999999999,0.8864898999999999,0.4942269,0.02667236,-0.466156,0.8842926,-34.6505,-0.8129425,-31.83949,4.189667,0.5957170999999999,0.7333192,0.5833510000000001,0.04498291,-0.4554443,0.8891144,27.7413,-1.630081,-26.97873,3.94519,0.6614770000000001,0.7071105,-0.4210935999999999,1.25526,-0.03395028,-0.1404867,0.7474396,0.06162035,0.3397583,5.253281,32.49
3,0.03483582,-0.4614104999999999,0.8864898999999999,0.4942269,0.02667236,-0.466156,0.8842926,-34.6505,-0.8129425,-31.83949,4.189667,0.5957170999999999,0.7333192,0.5833510000000001,0.04498291,-0.4554443,0.8891144,27.7413,-1.630081,-26.97873,3.94519,0.6614770000000001,0.7071105,-0.4210935999999999,1.25526,-0.03395028,-0.1404867,0.7474396,0.06162035,0.3397583,5.253281,32.49
3,0.03483582,-0.4614104999999999,0.8864898999999999,0.4942269,0.02667236,-0.466156,0.8842926,-34.6505,-0.8129425,-31.83949,4.189667,0.5957170999999999,0.7333192,0.5833510000000001,0.04498291,-0.4554443,0.8891144,27.7413,-1.630081,-26.97873,3.94519,0.6614770000000001,0.7071105,-0.4210935999999999,1.25526,-0.03395028,-0.1404867,0.7474396,0.06162035,0.3397583,5.253281,32.49
3,-1.0,-1.0,-1.0,0.3213602,0.0,0.0,0.0,-35.16298,-0.2649384,-31.59375,-1.0,0.6379902,0.6867191,0.5221514,0.0,0.0,0.0,27.24013,-0.9929047,-26.70227,-1.0,0.6962517,0.6575496,-0.4211763,1.255293,-0.03397492,-0.1406837,0.7475670999999999,0.06195946,0.3397583,5.253281,32.49
3,-1.0,-1.0,-1.0,0.3213602,0.0,0.0,0.0,-35.16298,-0.2649384,-31.59375,-1.0,0.6379902,0.6867191,0.5221514,0.0,0.0,0.0,27.24013,-0.9929047,-26.70227,-1.0,0.6962517,0.6575496,-0.4211763,1.255293,-0.03397492,-0.1406837,0.7475670999999999,0.06195946,0.3397583,5.253281,32.49
