Second,eye_comb_direction_x,eye_comb_direction_y,eye_comb_direction_z,eye_r_openness,eye_r_direction_x,eye_r_direction_y,eye_r_direction_z,eye_r_origin_x,eye_r_origin_y,eye_r_origin_z,eye_r_pupil_diameter,eye_r_pupil_position_x,eye_r_pupil_position_y,eye_l_openness,eye_l_direction_x,eye_l_direction_y,eye_l_direction_z,eye_l_origin_x,eye_l_origin_y,eye_l_origin_z,eye_l_pupil_diameter,eye_l_pupil_position_x,eye_l_pupil_position_y,head_position_x,head_position_y,head_position_z,head_rotation_roll,head_rotation_pitch,head_rotation_yaw,EDA,BVP,TMP
0,0.0,0.0,0.0,0.0,0.0,0.0,0.0,0.0,0.0,0.0,0.0,0.0,0.0,0.0,0.0,0.0,0.0,0.0,0.0,0.0,0.0,0.0,0.0,0.0,0.0,0.0,0.0,0.0,0.0,0.41200960752844346,-0.11679546032921814,28.98214233841685
0,0.05705261,-0.08329773,0.9948883,1.0,0.06703186,-0.1031342,0.9924011,-30.99771,5.465851,-28.30907,5.201294,0.4612444,0.4150385,1.0,0.04927063,-0.06785583,0.9964752,29.55089,6.692322,-26.90904,5.064087,0.5991239,0.3526046,0.214084,1.175703,-0.2552326,-0.04909534,0.7743828,0.05022359,0.41200960752844346,-0.11679546032921814,28.98214233841685
1,0.0592804,-0.08804321,0.994339,1.0,0.0670166,-0.1022034,0.9924927,-30.99983,5.462738,-28.33412,5.241928,0.4613199,0.415201,1.0,0.04974365,-0.07060242,0.9962616,29.54672,6.699463,-26.95959,5.05928,0.599236,0.3532273,0.2143956,1.175542,-0.2556615,-0.04898633,0.7740128,0.04987308,0.41200960752844346,-0.11679546032921814,28.98214233841685
1,0.0592804,-0.08804321,0.994339,1.0,0.0670166,-0.1022034,0.9924927,-30.99983,5.462738,-28.33412,5.241928,0.4613199,0.415201,1.0,0.04974365,-0.07060242,0.9962616,29.54672,6.699463,-26.95959,5.05928,0.599236,0.3532273,0.2143956,1.175542,-0.2556615,-0.04898633,0.7740128,0.04987308,0.41200960752844346,-0.11679546032921814,28.98214233841685
1,0.0592804,-0.08804321,0.994339,1.0,0.0670166,-0.1022034,0.9924927,-30.99983,5.462738,-28.33412,5.241928,0.4613199,0.415201,1.0,0.04974365,-0.07060242,0.9962616,29.54672,6.699463,-26.95959,5.05928,0.599236,0.3532273,0.2143956,1.175542,-0.2556615,-0.04898633,0.7740128,0.04987308,0.41200960752844346,-0.11679546032921814,28.98214233841685
1,0.0592804,-0.08804321,0.994339,1.0,0.0670166,-0.1022034,0.9924927,-30.99983,5.462738,-28.33412,5.241928,0.4613199,0.415201,1.0,0.04974365,-0.07060242,0.9962616,29.54672,6.699463,-26.95959,5.05928,0.599236,0.3532273,0.2143956,1.175542,-0.2556615,-0.04898633,0.7740128,0.04987308,0.41200960752844346,-0.11679546032921814,28.98214233841685
1,0.0592804,-0.08804321,0.994339,1.0,0.0670166,-0.1022034,0.9924927,-30.99983,5.462738,-28.33412,5.241928,0.4613199,0.415201,1.0,0.04974365,-0.07060242,0.9962616,29.54672,6.699463,-26.95959,5.05928,0.599236,0.3532273,0.2143956,1.175542,-0.2556615,-0.04898633,0.7740128,0.04987308,0.41200960752844346,-0.11679546032921814,28.98214233841685
1,0.0592804,-0.08804321,0.994339,1.0,0.0670166,-0.1022034,0.9924927,-30.99983,5.462738,-28.33412,5.241928,0.4613199,0.415201,1.0,0.04974365,-0.07060242,0.9962616,29.54672,6.699463,-26.95959,5.05928,0.599236,0.3532273,0.2143956,1.175542,-0.2556615,-0.04898633,0.7740128,0.04987308,0.41200960752844346,-0.11679546032921814,28.98214233841685
1,0.0592804,-0.08804321,0.994339,1.0,0.0670166,-0.1022034,0.9924927,-30.99983,5.462738,-28.33412,5.241928,0.4613199,0.415201,1.0,0.04974365,-0.07060242,0.9962616,29.54672,6.699463,-26.95959,5.05928,0.599236,0.3532273,0.2143956,1.175542,-0.2556615,-0.04898633,0.7740128,0.04987308,0.41200960752844346,-0.11679546032921814,28.98214233841685
1,0.0592804,-0.08804321,0.994339,1.0,0.0670166,-0.1022034,0.9924927,-30.99983,5.462738,-28.33412,5.241928,0.4613199,0.415201,1.0,0.04974365,-0.07060242,0.9962616,29.54672,6.699463,-26.95959,5.05928,0.599236,0.3532273,0.2143956,1.175542,-0.2556615,-0.04898633,0.7740128,0.04987308,0.41200960752844346,-0.11679546032921814,28.98214233841685
1,0.0592804,-0.08804321,0.994339,1.0,0.0670166,-0.1022034,0.9924927,-30.99983,5.462738,-28.33412,5.241928,0.4613199,0.415201,1.0,0.04974365,-0.07060242,0.9962616,29.54672,6.699463,-26.95959,5.05928,0.599236,0.3532273,0.2143956,1.175542,-0.2556615,-0.04898633,0.7740128,0.04987308,0.41200960752844346,-0.11679546032921814,28.98214233841685
1,0.04776001,-0.1329651,0.9899597,1.0,0.05773926,-0.1456604,0.9876404,-31.02682,5.367355,-28.54674,5.037537,0.4636784,0.42758,1.0,0.03656006,-0.1186676,0.9922485,29.52989,6.558182,-26.81311,4.889725,0.6016671,0.3651979,0.2137561,1.175472,-0.2558732,-0.04902411,0.7740037,0.05006654,0.41200960752844346,-0.11679546032921814,28.98214233841685
1,0.04776001,-0.1329651,0.9899597,1.0,0.05773926,-0.1456604,0.9876404,-31.02682,5.367355,-28.54674,5.037537,0.4636784,0.42758,1.0,0.03656006,-0.1186676,0.9922485,29.52989,6.558182,-26.81311,4.889725,0.6016671,0.3651979,0.2137561,1.175472,-0.2558732,-0.04902411,0.7740037,0.05006654,0.41200960752844346,-0.11679546032921814,28.98214233841685
1,0.04776001,-0.1329651,0.9899597,1.0,0.05773926,-0.1456604,0.9876404,-31.02682,5.367355,-28.54674,5.037537,0.4636784,0.42758,1.0,0.03656006,-0.1186676,0.9922485,29.52989,6.558182,-26.81311,4.889725,0.6016671,0.3651979,0.2137561,1.175472,-0.2558732,-0.04902411,0.7740037,0.05006654,0.41200960752844346,-0.11679546032921814,28.98214233841685
1,0.04776001,-0.1329651,0.9899597,1.0,0.05773926,-0.1456604,0.9876404,-31.02682,5.367355,-28.54674,5.037537,0.4636784,0.42758,1.0,0.03656006,-0.1186676,0.9922485,29.52989,6.558182,-26.81311,4.889725,0.6016671,0.3651979,0.2137561,1.175472,-0.2558732,-0.04902411,0.7740037,0.05006654,0.41200960752844346,-0.11679546032921814,28.98214233841685
1,0.06948853,-0.1202393,0.9902954,1.0,0.07049561,-0.1210785,0.9901276,-30.90865,5.498886,-28.68817,5.201645,0.4576302,0.4201596,1.0,0.04469299,-0.09931946,0.9940491,29.6671,6.849701,-27.63997,4.914368,0.5965042,0.3586135,0.2137109,1.175464,-0.2558405,-0.04922916,0.7739495,0.05029904,0.41200960752844346,-0.11679546032921814,28.98214233841685
1,0.06948853,-0.1202393,0.9902954,1.0,0.07049561,-0.1210785,0.9901276,-30.90865,5.498886,-28.68817,5.201645,0.4576302,0.4201596,1.0,0.04469299,-0.09931946,0.9940491,29.6671,6.849701,-27.63997,4.914368,0.5965042,0.3586135,0.2137109,1.175464,-0.2558405,-0.04922916,0.7739495,0.05029904,0.41200960752844346,-0.11679546032921814,28.98214233841685
1,0.08285522,-0.07557678,0.9936829,1.0,0.08285522,-0.0756073,0.9936829,-30.67508,5.707489,-28.43091,5.198212,0.4477905,0.4031578,1.0,0.08151245,-0.0642395,0.9945984,29.71927,7.012039,-27.14116,4.935547,0.5882976,0.3428084,0.2136741,1.175515,-0.2558309,-0.04935031,0.7738671,0.05045884,0.41200960752844346,-0.11679546032921814,28.98214233841685
1,0.08285522,-0.07557678,0.9936829,1.0,0.08285522,-0.0756073,0.9936829,-30.67508,5.707489,-28.43091,5.198212,0.4477905,0.4031578,1.0,0.08151245,-0.0642395,0.9945984,29.71927,7.012039,-27.14116,4.935547,0.5882976,0.3428084,0.2136741,1.175515,-0.2558309,-0.04935031,0.7738671,0.05045884,0.41200960752844346,-0.11679546032921814,28.98214233841685
1,0.08285522,-0.07557678,0.9936829,1.0,0.08285522,-0.0756073,0.9936829,-30.67508,5.707489,-28.43091,5.198212,0.4477905,0.4031578,1.0,0.08151245,-0.0642395,0.9945984,29.71927,7.012039,-27.14116,4.935547,0.5882976,0.3428084,0.2136525,1.175511,-0.2558091,-0.04936767,0.7738485,0.05056253,0.41200960752844346,-0.11679546032921814,28.98214233841685
1,0.08285522,-0.07557678,0.9936829,1.0,0.08285522,-0.0756073,0.9936829,-30.67508,5.707489,-28.43091,5.198212,0.4477905,0.4031578,1.0,0.08151245,-0.0642395,0.9945984,29.71927,7.012039,-27.14116,4.935547,0.5882976,0.3428084,0.2137116,1.175534,-0.2557422,-0.04949473,0.7737987,0.05070718,0.3820575,-0.11679546032921814,28.98214233841685
1,0.08285522,-0.07557678,0.9936829,1.0,0.08285522,-0.0756073,0.9936829,-30.67508,5.707489,-28.43091,5.198212,0.4477905,0.4031578,1.0,0.08151245,-0.0642395,0.9945984,29.71927,7.012039,-27.14116,4.935547,0.5882976,0.3428084,0.2136654,1.175642,-0.255722,-0.04950512,0.7737911,0.05079482,0.3820575,-0.11679546032921814,28.98214233841685
1,0.1025391,-0.06977844,0.9922638,1.0,0.1025848,-0.06991577,0.9922485,-30.56242,5.9534,-28.88011,5.194824,0.4406531,0.3976007,1.0,0.09806824,-0.05418396,0.9936981,29.76385,7.099884,-27.08319,4.946533,0.5839897,0.3376907,0.2136849,1.175779,-0.2557162,-0.04962327,0.7737715,0.05099216,0.3820575,-0.11679546032921814,28.98214233841685
1,0.1025391,-0.06977844,0.9922638,1.0,0.1025848,-0.06991577,0.9922485,-30.56242,5.9534,-28.88011,5.194824,0.4406531,0.3976007,1.0,0.09806824,-0.05418396,0.9936981,29.76385,7.099884,-27.08319,4.946533,0.5839897,0.3376907,0.2136849,1.175779,-0.2557162,-0.04962327,0.7737715,0.05099216,0.3820575,-0.11679546032921814,28.98214233841685
1,0.1132813,-0.0501709,0.9922791,1.0,0.1132813,-0.0501709,0.9922791,-30.56906,5.801208,-28.09952,5.310013,0.4393239,0.392983,1.0,0.1136627,-0.02932739,0.9930725,30.0002,7.186401,-27.39754,4.946915,0.57358,0.3329438,0.2136567,1.175795,-0.2556711,-0.04959429,0.7737129,0.05112335,0.3820575,-0.11679546032921814,28.98214233841685
1,0.1132813,-0.0501709,0.9922791,1.0,0.1132813,-0.0501709,0.9922791,-30.56906,5.801208,-28.09952,5.310013,0.4393239,0.392983,1.0,0.1136627,-0.02932739,0.9930725,30.0002,7.186401,-27.39754,4.946915,0.57358,0.3329438,0.2136567,1.175795,-0.2556711,-0.04959429,0.7737129,0.05112335,0.3820575,-0.11679546032921814,28.98214233841685
1,0.1171265,-0.04850769,0.9919281,1.0,0.1171265,-0.04850769,0.9919281,-30.5799,5.80542,-28.15134,5.295074,0.4390412,0.3929978,1.0,0.1186066,-0.03224182,0.9924011,30.02235,7.224991,-27.63588,4.932205,0.5721697,0.3339909,0.2136455,1.175842,-0.2555993,-0.04957723,0.773683,0.05133619,0.3820575,-0.11679546032921814,28.98214233841685
1,0.11586,-0.04672241,0.992157,1.0,0.11586,-0.04672241,0.992157,-30.5854,5.80571,-28.19023,5.293655,0.4394208,0.3929978,1.0,0.118866,-0.03091431,0.9924164,30.02779,7.224991,-27.67049,4.923615,0.5719653,0.3340127,0.2136576,1.175865,-0.2555859,-0.04953724,0.7736247,0.0514898,0.3820575,-0.11679546032921814,28.98214233841685
1,0.1134033,-0.04627991,0.9924622,1.0,0.1134033,-0.04627991,0.9924622,-30.58949,5.806656,-28.2029,5.307083,0.4399622,0.3929978,1.0,0.1213226,-0.03059387,0.9921265,30.03358,7.225006,-27.67619,4.912384,0.5713506,0.3340127,0.2136992,1.175941,-0.2555811,-0.04972024,0.7735488,0.05139986,0.3820575,-0.11679546032921814,28.98214233841685
1,0.1134033,-0.04627991,0.9924622,1.0,0.1134033,-0.04627991,0.9924622,-30.58949,5.806656,-28.2029,5.307083,0.4399622,0.3929978,1.0,0.1213226,-0.03059387,0.9921265,30.03358,7.225006,-27.67619,4.912384,0.5713506,0.3340127,0.2136992,1.175941,-0.2555811,-0.04972024,0.7735488,0.05139986,0.3820575,-0.11679546032921814,28.98214233841685
1,0.1122131,-0.04371643,0.9927063,1.0,0.111145,-0.04664612,0.9927063,-30.59352,5.806656,-28.21466,5.306,0.4404662,0.3931557,1.0,0.1168365,-0.0309906,0.9926605,30.03809,7.228226,-27.68184,4.922333,0.5719653,0.3339909,0.2137045,1.175926,-0.255539,-0.04980042,0.7734956,0.05123122,0.3820575,-0.11679546032921814,28.98214233841685
1,0.1123962,-0.03851318,0.9929047,1.0,0.1088104,-0.04656982,0.9929657,-30.59793,5.806656,-28.23015,5.305466,0.4409918,0.3932747,1.0,0.115799,-0.03083801,0.9927826,30.0435,7.229156,-27.68858,4.928299,0.5719653,0.3339909,0.2136669,1.17594,-0.2555171,-0.04973358,0.7734892,0.05115037,0.3820575,-0.11679546032921814,28.98214233841685
1,0.1126099,-0.03793335,0.9929047,1.0,0.107605,-0.04646301,0.993103,-30.60042,5.804657,-28.23732,5.302567,0.4412722,0.3933734,1.0,0.117218,-0.03005981,0.9926453,30.04565,7.22937,-27.69365,4.934525,0.571658,0.3338924,0.2136831,1.175955,-0.2554975,-0.04971297,0.7734067,0.05107129,0.3820575,-0.11679546032921814,29.29
1,0.1126099,-0.03793335,0.9929047,1.0,0.107605,-0.04646301,0.993103,-30.60042,5.804657,-28.23732,5.302567,0.4412722,0.3933734,1.0,0.117218,-0.03005981,0.9926453,30.04565,7.22937,-27.69365,4.934525,0.571658,0.3338924,0.2136831,1.175955,-0.2554975,-0.04971297,0.7734067,0.05107129,0.3820575,-0.11679546032921814,29.29
1,0.1121826,-0.03865051,0.9929199,1.0,0.1075897,-0.04829407,0.9930115,-30.60231,5.804077,-28.24747,5.301376,0.441338,0.3937813,1.0,0.1163483,-0.02987671,0.9927521,30.05005,7.229599,-27.70004,4.933655,0.571658,0.3338924,0.2137111,1.175905,-0.2554071,-0.04952024,0.7733344,0.05112284,0.3820575,-0.11679546032921814,29.29
1,0.1115112,-0.03961182,0.9929657,1.0,0.1053619,-0.05067444,0.9931335,-30.60732,5.80864,-28.26068,5.279938,0.4418661,0.3941351,1.0,0.1172485,-0.02926636,0.9926605,30.05554,7.229736,-27.72263,4.933441,0.571335,0.3339655,0.2136525,1.175903,-0.2553724,-0.0492144,0.7732311,0.05108734,0.3820575,-0.11679546032921814,29.29
1,0.1115112,-0.03961182,0.9929657,1.0,0.1053619,-0.05067444,0.9931335,-30.60732,5.80864,-28.26068,5.279938,0.4418661,0.3941351,1.0,0.1172485,-0.02926636,0.9926605,30.05554,7.229736,-27.72263,4.933441,0.571335,0.3339655,0.2136525,1.175903,-0.2553724,-0.0492144,0.7732311,0.05108734,0.3820575,-0.11679546032921814,29.29
2,0.1105957,-0.03965759,0.9930725,1.0,0.10466,-0.05076599,0.9931946,-30.61613,5.804077,-28.26572,5.279739,0.4422757,0.3943507,1.0,0.1170349,-0.02755737,0.9927368,30.0591,7.230515,-27.76135,4.937805,0.5712809,0.3339401,0.2137103,1.175871,-0.2553353,-0.04919684,0.7732007,0.0510094,0.3820575,-0.11679546032921814,29.29
2,0.1097107,-0.04122925,0.993103,1.0,0.1049805,-0.05358887,0.9930267,-30.61954,5.804077,-28.29007,5.274063,0.4423333,0.3950343,1.0,0.1154022,-0.02632141,0.9929657,30.06801,7.230804,-27.77301,4.936737,0.5712607,0.3337939,0.21372,1.175847,-0.2553113,-0.049092,0.7731081,0.05101721,0.3820575,4.539454,29.29
2,0.1097107,-0.04122925,0.993103,1.0,0.1049805,-0.05358887,0.9930267,-30.61954,5.804077,-28.29007,5.274063,0.4423333,0.3950343,1.0,0.1154022,-0.02632141,0.9929657,30.06801,7.230804,-27.77301,4.936737,0.5712607,0.3337939,0.21372,1.175847,-0.2553113,-0.049092,0.7731081,0.05101721,0.3820575,4.539454,29.29
2,0.107666,-0.04141235,0.9933167,1.0,0.1020966,-0.05345154,0.9933319,-30.62044,5.801163,-28.29237,5.264862,0.442835,0.3951186,1.0,0.1147156,-0.02613831,0.993042,30.0731,7.232346,-27.80148,4.935455,0.5712222,0.3339401,0.2137455,1.175808,-0.2552525,-0.04906118,0.7730507,0.05086525,0.3820575,4.539454,29.29
2,0.1078796,-0.04119873,0.9933014,1.0,0.1027069,-0.05274963,0.9933014,-30.62184,5.801163,-28.29601,5.264954,0.4427799,0.3950343,1.0,0.1143188,-0.02677917,0.9930725,30.07483,7.233917,-27.80524,4.918137,0.5712222,0.3340129,0.2136527,1.175736,-0.2552093,-0.04900177,0.7729968,0.05073721,0.3820575,4.539454,29.29
2,0.1076813,-0.04136658,0.9933167,1.0,0.1020508,-0.05278015,0.9933624,-30.62579,5.801163,-28.29601,5.263428,0.44302,0.3950343,1.0,0.1142426,-0.0279541,0.9930573,30.07483,7.233917,-27.80803,4.891998,0.5712222,0.3342434,0.2136916,1.17573,-0.2552048,-0.04879966,0.7729196,0.05067676,0.3820575,4.539454,29.29
2,0.1076813,-0.04136658,0.9933167,1.0,0.1020508,-0.05278015,0.9933624,-30.62579,5.801163,-28.29601,5.263428,0.44302,0.3950343,1.0,0.1142426,-0.0279541,0.9930573,30.07483,7.233917,-27.80803,4.891998,0.5712222,0.3342434,0.2136916,1.17573,-0.2552048,-0.04879966,0.7729196,0.05067676,0.3820575,4.539454,29.29
2,0.1078033,-0.04153442,0.9933014,1.0,0.1020966,-0.05300903,0.9933472,-30.62779,5.802429,-28.29601,5.255402,0.44308,0.3950343,1.0,0.1141815,-0.02865601,0.993042,30.07483,7.234711,-27.81062,4.868118,0.5712222,0.3343622,0.2136337,1.175729,-0.255131,-0.04868257,0.772866,0.05066705,0.3820575,4.539454,29.29
2,0.1073761,-0.04164124,0.9933319,1.0,0.1013336,-0.05032349,0.993576,-30.62885,5.802429,-28.29601,5.236755,0.4432369,0.3945718,1.0,0.1138,-0.03239441,0.9929657,30.07483,7.235336,-27.81062,4.859207,0.5712765,0.3349899,0.2136191,1.175709,-0.2551061,-0.04861373,0.7728615,0.05066462,0.3820575,4.539454,29.29
2,0.1066742,-0.04029846,0.9934692,1.0,0.1000977,-0.04806519,0.9938049,-30.62907,5.799576,-28.28534,5.200806,0.4434435,0.3941888,1.0,0.1134033,-0.03234863,0.9930115,30.07271,7.234955,-27.81062,4.85321,0.5714146,0.3349899,0.2136624,1.175671,-0.255085,-0.04849603,0.7728141,0.0507071,0.3820575,4.539454,29.29
2,0.1066742,-0.04029846,0.9934692,1.0,0.1000977,-0.04806519,0.9938049,-30.62907,5.799576,-28.28534,5.200806,0.4434435,0.3941888,1.0,0.1134033,-0.03234863,0.9930115,30.07271,7.234955,-27.81062,4.85321,0.5714146,0.3349899,0.2136624,1.175671,-0.255085,-0.04849603,0.7728141,0.0507071,0.3820575,4.539454,29.29
2,0.1062012,-0.04005432,0.9935303,1.0,0.09909058,-0.04743958,0.9939423,-30.62907,5.797394,-28.2776,5.200455,0.4436106,0.3940888,1.0,0.1136322,-0.03231812,0.992981,30.07156,7.234955,-27.81062,4.853149,0.5714146,0.3349899,0.213644,1.175654,-0.2550243,-0.04839222,0.772812,0.05060606,0.3820575,4.539454,29.29
2,0.1062012,-0.04005432,0.9935303,1.0,0.09909058,-0.04743958,0.9939423,-30.62907,5.797394,-28.2776,5.200455,0.4436106,0.3940888,1.0,0.1136322,-0.03231812,0.992981,30.07156,7.234955,-27.81062,4.853149,0.5714146,0.3349899,0.2136166,1.175624,-0.2550199,-0.04835826,0.7728281,0.05056607,0.3820575,4.539454,29.29
2,0.1062012,-0.04005432,0.9935303,1.0,0.09909058,-0.04743958,0.9939423,-30.62907,5.797394,-28.2776,5.200455,0.4436106,0.3940888,1.0,0.1136322,-0.03231812,0.992981,30.07156,7.234955,-27.81062,4.853149,0.5714146,0.3349899,0.2136117,1.175605,-0.2550066,-0.04828888,0.7728148,0.05046932,0.3820575,4.539454,29.29
2,0.1062012,-0.04005432,0.9935303,1.0,0.09909058,-0.04743958,0.9939423,-30.62907,5.797394,-28.2776,5.200455,0.4436106,0.3940888,1.0,0.1136322,-0.03231812,0.992981,30.07156,7.234955,-27.81062,4.853149,0.5714146,0.3349899,0.213616,1.175601,-0.2550623,-0.04810701,0.7728582,0.05041238,0.3820575,4.539454,29.29
2,0.1062012,-0.04005432,0.9935303,1.0,0.09909058,-0.04743958,0.9939423,-30.62907,5.797394,-28.2776,5.200455,0.4436106,0.3940888,1.0,0.1136322,-0.03231812,0.992981,30.07156,7.234955,-27.81062,4.853149,0.5714146,0.3349899,0.213616,1.175601,-0.2550623,-0.04810701,0.7728582,0.05041238,0.3820575,4.539454,29.29
2,0.1039886,-0.0390625,0.9938049,1.0,0.09477234,-0.04814148,0.9943237,-30.62901,5.793793,-28.24373,5.180237,0.4443232,0.3940374,1.0,0.1123047,-0.03085327,0.9931793,30.06937,7.234955,-27.80505,4.838501,0.5717034,0.334688,0.2135628,1.175573,-0.2551308,-0.04799009,0.7729188,0.05024331,0.3820575,4.539454,29.29
2,-0.07000732,-0.09765625,0.9927521,1.0,-0.07000732,-0.09765625,0.9927521,-31.5701,5.667953,-28.47279,4.928772,0.5029507,0.4089071,1.0,-0.04821777,-0.07736206,0.9958344,28.78178,6.900406,-26.96379,4.567932,0.6418437,0.3472385,0.2135675,1.175551,-0.2551603,-0.04795243,0.7729995,0.05017157,0.3820575,-5.168351,29.29
2,-0.07000732,-0.09765625,0.9927521,1.0,-0.07000732,-0.09765625,0.9927521,-31.5701,5.667953,-28.47279,4.928772,0.5029507,0.4089071,1.0,-0.04821777,-0.07736206,0.9958344,28.78178,6.900406,-26.96379,4.567932,0.6418437,0.3472385,0.2135675,1.175551,-0.2551603,-0.04795243,0.7729995,0.05017157,0.3820575,-5.168351,29.29
2,-0.144165,-0.1176605,0.9825287,1.0,-0.144165,-0.1176605,0.9825287,-31.99734,5.552979,-28.41801,4.844177,0.529505,0.4161196,1.0,-0.1223602,-0.1085968,0.9865112,28.29446,6.954468,-27.54192,4.617203,0.6722623,0.3551686,0.2136027,1.175492,-0.255192,-0.04798016,0.7731882,0.04992049,0.3820575,-5.168351,29.29
2,-0.1513824,-0.1181183,0.9813843,1.0,-0.1513824,-0.1181183,0.9813843,-32.05876,5.531052,-28.39508,4.860825,0.5327489,0.4168007,1.0,-0.1196899,-0.09301758,0.9884338,28.32765,6.916321,-27.44952,4.583801,0.6705992,0.3529024,0.2135953,1.175462,-0.2552555,-0.0479456,0.7732589,0.04972946,0.3820575,-5.168351,29.29
2,-0.1515961,-0.1207886,0.9810181,1.0,-0.1515961,-0.1207886,0.9810181,-32.07036,5.52887,-28.39252,4.87175,0.5331653,0.4173123,1.0,-0.1216125,-0.09239197,0.9882507,28.33528,6.909119,-27.42305,4.603638,0.6706238,0.3528512,0.2135969,1.175447,-0.2552679,-0.04765849,0.7734562,0.04950392,0.3820575,-5.168351,29.29
2,-0.1463776,-0.12146,0.9817352,1.0,-0.1463776,-0.12146,0.9817352,-32.07974,5.52739,-28.38751,4.819717,0.532631,0.4174014,1.0,-0.1229401,-0.09173584,0.9881592,28.34238,6.899338,-27.39546,4.605591,0.67055,0.3528625,0.2135969,1.175447,-0.2552679,-0.04765849,0.7734562,0.04950392,0.3820575,-5.168351,29.29
2,-0.1463776,-0.12146,0.9817352,1.0,-0.1463776,-0.12146,0.9817352,-32.07974,5.52739,-28.38751,4.819717,0.532631,0.4174014,1.0,-0.1229401,-0.09173584,0.9881592,28.34238,6.899338,-27.39546,4.605591,0.67055,0.3528625,0.2135969,1.175447,-0.2552679,-0.04765849,0.7734562,0.04950392,0.3820575,-5.168351,29.29
2,-0.1473694,-0.1200409,0.9817657,1.0,-0.1475525,-0.1202545,0.9817047,-32.08983,5.524857,-28.39001,4.819916,0.5331653,0.4173123,1.0,-0.1235962,-0.09127808,0.9881134,28.34377,6.88884,-27.35934,4.607452,0.67055,0.3528625,0.2135974,1.175417,-0.2554317,-0.04722362,0.7737901,0.04912484,0.3820575,-5.168351,29.29
2,-0.1387329,-0.1106567,0.9841156,1.0,-0.148056,-0.1203461,0.9816132,-32.10031,5.524261,-28.39163,4.819809,0.5336019,0.4173624,1.0,-0.1204529,-0.09162903,0.9884644,28.34669,6.884918,-27.33385,4.609238,0.6698593,0.3528625,0.2135717,1.175275,-0.2555882,-0.04684694,0.7741634,0.04851715,0.3820575,-5.168351,29.29
2,-0.1387329,-0.1106567,0.9841156,1.0,-0.148056,-0.1203461,0.9816132,-32.10031,5.524261,-28.39163,4.819809,0.5336019,0.4173624,1.0,-0.1204529,-0.09162903,0.9884644,28.34669,6.884918,-27.33385,4.609238,0.6698593,0.3528625,0.2135717,1.175275,-0.2555882,-0.04684694,0.7741634,0.04851715,0.3820575,-5.168351,29.29
2,-0.1393433,-0.1091461,0.9842072,1.0,-0.1504974,-0.1196136,0.9813385,-32.10855,5.522583,-28.39252,4.806564,0.5342887,0.4173123,1.0,-0.1199036,-0.09091187,0.9886017,28.34967,6.871628,-27.28975,4.614105,0.6695843,0.3528512,0.2134749,1.175082,-0.2556602,-0.04665841,0.7746337,0.04788044,0.3820575,-5.168351,29.29
2,-0.1403046,-0.1069183,0.984314,1.0,-0.1500549,-0.1179047,0.9816132,-32.11322,5.523239,-28.39426,4.796234,0.5343789,0.4170126,1.0,-0.1224823,-0.08685303,0.9886475,28.35271,6.860687,-27.24651,4.615921,0.6698593,0.3521885,0.2134849,1.175081,-0.2558529,-0.04651343,0.7752212,0.04703685,0.3820575,-5.168351,29.29
2,-0.1403046,-0.1069183,0.984314,1.0,-0.1500549,-0.1179047,0.9816132,-32.11322,5.523239,-28.39426,4.796234,0.5343789,0.4170126,1.0,-0.1224823,-0.08685303,0.9886475,28.35271,6.860687,-27.24651,4.615921,0.6698593,0.3521885,0.2134849,1.175081,-0.2558529,-0.04651343,0.7752212,0.04703685,0.3820575,-5.168351,29.29
2,-0.1410217,-0.1079559,0.9841003,1.0,-0.1496735,-0.1179962,0.9816589,-32.1167,5.524124,-28.3969,4.789764,0.5344357,0.4170126,1.0,-0.1218109,-0.08566284,0.9888458,28.35403,6.842499,-27.17828,4.632294,0.6695843,0.3520609,0.2134994,1.175013,-0.2560662,-0.04624476,0.7758145,0.04644426,0.3820575,-5.168351,29.29
2,-0.1410217,-0.1079559,0.9841003,1.0,-0.1496735,-0.1179962,0.9816589,-32.1167,5.524124,-28.3969,4.789764,0.5344357,0.4170126,1.0,-0.1218109,-0.08566284,0.9888458,28.35403,6.842499,-27.17828,4.632294,0.6695843,0.3520609,0.2134994,1.175013,-0.2560662,-0.04624476,0.7758145,0.04644426,0.3820575,-5.168351,29.29
2,-0.1410217,-0.1079559,0.9841003,1.0,-0.1496735,-0.1179962,0.9816589,-32.1167,5.524124,-28.3969,4.789764,0.5344357,0.4170126,1.0,-0.1218109,-0.08566284,0.9888458,28.35403,6.842499,-27.17828,4.632294,0.6695843,0.3520609,0.2134309,1.174886,-0.2561857,-0.04607269,0.7764311,0.04581305,0.3820575,-15.64072,29.29
2,-0.1410217,-0.1079559,0.9841003,1.0,-0.1496735,-0.1179962,0.9816589,-32.1167,5.524124,-28.3969,4.789764,0.5344357,0.4170126,1.0,-0.1218109,-0.08566284,0.9888458,28.35403,6.842499,-27.17828,4.632294,0.6695843,0.3520609,0.2134309,1.174886,-0.2561857,-0.04607269,0.7764311,0.04581305,0.3820575,-15.64072,29.29
2,-0.1410217,-0.1079559,0.9841003,1.0,-0.1496735,-0.1179962,0.9816589,-32.1167,5.524124,-28.3969,4.789764,0.5344357,0.4170126,1.0,-0.1218109,-0.08566284,0.9888458,28.35403,6.842499,-27.17828,4.632294,0.6695843,0.3520609,0.2133726,1.174714,-0.2563584,-0.04595895,0.7770019,0.04528743,0.3820575,-15.64072,29.29
2,-0.1410217,-0.1079559,0.9841003,1.0,-0.1496735,-0.1179962,0.9816589,-32.1167,5.524124,-28.3969,4.789764,0.5344357,0.4170126,1.0,-0.1218109,-0.08566284,0.9888458,28.35403,6.842499,-27.17828,4.632294,0.6695843,0.3520609,0.2133726,1.174714,-0.2563584,-0.04595895,0.7770019,0.04528743,0.3820575,-15.64072,29.29
2,-0.1503754,-0.1162415,0.9817657,1.0,-0.150589,-0.116394,0.9817047,-32.11578,5.533813,-28.40456,4.733612,0.5345808,0.4164735,1.0,-0.1089172,-0.08882141,0.9900665,28.37784,6.630219,-26.17635,4.401749,0.6649069,0.3519125,0.2133946,1.174626,-0.2565265,-0.04587887,0.777513,0.04496605,0.3820575,-15.64072,29.29
2,-0.1503754,-0.1162415,0.9817657,1.0,-0.150589,-0.116394,0.9817047,-32.11578,5.533813,-28.40456,4.733612,0.5345808,0.4164735,1.0,-0.1089172,-0.08882141,0.9900665,28.37784,6.630219,-26.17635,4.401749,0.6649069,0.3519125,0.2133946,1.174626,-0.2565265,-0.04587887,0.777513,0.04496605,0.3820575,-15.64072,29.29
2,-0.1346893,-0.1123505,0.9844818,1.0,-0.1346893,-0.1123505,0.9844818,-32.10487,5.533798,-28.38446,4.661301,0.531597,0.4155073,1.0,-0.1107025,-0.07556152,0.9909668,28.3967,6.646942,-26.19862,4.467621,0.6644739,0.3495061,0.2133803,1.174606,-0.2566547,-0.04597191,0.7779437,0.04488155,0.3820575,-15.64072,29.29
2,-0.1346893,-0.1123505,0.9844818,1.0,-0.1346893,-0.1123505,0.9844818,-32.10487,5.533798,-28.38446,4.661301,0.531597,0.4155073,1.0,-0.1107025,-0.07556152,0.9909668,28.3967,6.646942,-26.19862,4.467621,0.6644739,0.3495061,0.2133803,1.174606,-0.2566547,-0.04597191,0.7779437,0.04488155,0.3820575,-15.64072,29.29
2,-0.1353607,-0.1125946,0.984375,1.0,-0.1360168,-0.1134644,0.9841766,-32.09647,5.535858,-28.36972,4.658783,0.5315265,0.4155073,1.0,-0.1114807,-0.08085632,0.9904633,28.42189,6.688385,-26.34491,4.405197,0.6639627,0.350149,0.2132752,1.174718,-0.2569146,-0.04594062,0.7784277,0.04495238,0.3820575,-15.64072,29.29
2,-0.1353607,-0.1125946,0.984375,1.0,-0.1360168,-0.1134644,0.9841766,-32.09647,5.535858,-28.36972,4.658783,0.5315265,0.4155073,1.0,-0.1114807,-0.08085632,0.9904633,28.42189,6.688385,-26.34491,4.405197,0.6639627,0.350149,0.2132752,1.174718,-0.2569146,-0.04594062,0.7784277,0.04495238,0.3820575,-15.64072,29.29
2,-0.1300354,-0.107254,0.9856873,1.0,-0.1357574,-0.1140137,0.9841461,-32.09331,5.537033,-28.36972,4.649689,0.5313803,0.4155599,1.0,-0.108139,-0.08143616,0.9907837,28.43237,6.704437,-26.40697,4.376999,0.6631336,0.3501742,0.2131811,1.174782,-0.2569937,-0.045954,0.7787027,0.04500829,0.3820575,-15.64072,29.29
2,-0.1300354,-0.107254,0.9856873,1.0,-0.1357574,-0.1140137,0.9841461,-32.09331,5.537033,-28.36972,4.649689,0.5313803,0.4155599,1.0,-0.108139,-0.08143616,0.9907837,28.43237,6.704437,-26.40697,4.376999,0.6631336,0.3501742,0.2131811,1.174782,-0.2569937,-0.045954,0.7787027,0.04500829,0.3820575,-15.64072,29.29
2,-0.1269226,-0.109787,0.9858093,1.0,-0.1329651,-0.1164551,0.9842529,-32.09157,5.539398,-28.37143,4.646423,0.5308555,0.4158946,1.0,-0.1046753,-0.08525085,0.9908295,28.4406,6.717773,-26.44073,4.344513,0.662305,0.3506419,0.2129761,1.174729,-0.2570438,-0.04610736,0.7789693,0.04494243,0.3820575,-15.64072,29.29
2,-0.1269226,-0.109787,0.9858093,1.0,-0.1329651,-0.1164551,0.9842529,-32.09157,5.539398,-28.37143,4.646423,0.5308555,0.4158946,1.0,-0.1046753,-0.08525085,0.9908295,28.4406,6.717773,-26.44073,4.344513,0.662305,0.3506419,0.2129761,1.174729,-0.2570438,-0.04610736,0.7789693,0.04494243,0.3820575,-15.64072,29.29
2,-0.1201935,-0.1051941,0.9871521,1.0,-0.1308289,-0.1168976,0.9844818,-32.09111,5.539764,-28.36964,4.637848,0.5304881,0.4159216,1.0,-0.1018677,-0.08502197,0.9911499,28.44438,6.723114,-26.4691,4.309509,0.6617314,0.3506419,0.2128121,1.174727,-0.2571613,-0.04622502,0.7791449,0.04496017,0.3820575,-15.64072,29.29
2,-0.1201935,-0.1051941,0.9871521,1.0,-0.1308289,-0.1168976,0.9844818,-32.09111,5.539764,-28.36964,4.637848,0.5304881,0.4159216,1.0,-0.1018677,-0.08502197,0.9911499,28.44438,6.723114,-26.4691,4.309509,0.6617314,0.3506419,0.2128121,1.174727,-0.2571613,-0.04622502,0.7791449,0.04496017,0.3820575,-15.64072,29.29
2,-0.1171417,-0.1036377,0.9876862,1.0,-0.1325073,-0.117981,0.9841309,-32.07903,5.539841,-28.36954,4.585571,0.5303728,0.4161082,1.0,-0.09738159,-0.08518982,0.9915924,28.45695,6.726746,-26.48106,4.280685,0.6605524,0.3506419,0.2126994,1.17474,-0.2572052,-0.04629153,0.779233,0.04503485,0.3820575,4.318888,29.29
2,-0.1171417,-0.1036377,0.9876862,1.0,-0.1325073,-0.117981,0.9841309,-32.07903,5.539841,-28.36954,4.585571,0.5303728,0.4161082,1.0,-0.09738159,-0.08518982,0.9915924,28.45695,6.726746,-26.48106,4.280685,0.6605524,0.3506419,0.2126994,1.17474,-0.2572052,-0.04629153,0.779233,0.04503485,0.3820575,4.318888,29.29
2,-0.1167755,-0.1058807,0.9874878,1.0,-0.1326141,-0.1203003,0.9838257,-32.07097,5.540955,-28.36858,4.565704,0.5301209,0.4164554,1.0,-0.09689331,-0.08779907,0.9914093,28.46053,6.727173,-26.48106,4.271454,0.6603356,0.3510837,0.2126547,1.174755,-0.2572724,-0.04654106,0.7793018,0.04521704,0.3820575,4.318888,29.29
2,-0.1167755,-0.1058807,0.9874878,1.0,-0.1326141,-0.1203003,0.9838257,-32.07097,5.540955,-28.36858,4.565704,0.5301209,0.4164554,1.0,-0.09689331,-0.08779907,0.9914093,28.46053,6.727173,-26.48106,4.271454,0.6603356,0.3510837,0.2126547,1.174755,-0.2572724,-0.04654106,0.7793018,0.04521704,0.3820575,4.318888,29.29
2,-0.1167755,-0.1058807,0.9874878,1.0,-0.1326141,-0.1203003,0.9838257,-32.07097,5.540955,-28.36858,4.565704,0.5301209,0.4164554,1.0,-0.09689331,-0.08779907,0.9914093,28.46053,6.727173,-26.48106,4.271454,0.6603356,0.3510837,0.2125894,1.174801,-0.2571895,-0.04663142,0.7793071,0.04535343,0.3820575,4.318888,29.29
2,-0.1167755,-0.1058807,0.9874878,1.0,-0.1326141,-0.1203003,0.9838257,-32.07097,5.540955,-28.36858,4.565704,0.5301209,0.4164554,1.0,-0.09689331,-0.08779907,0.9914093,28.46053,6.727173,-26.48106,4.271454,0.6603356,0.3510837,0.2125894,1.174801,-0.2571895,-0.04663142,0.7793071,0.04535343,0.3820575,4.318888,29.29
2,-0.1167755,-0.1058807,0.9874878,1.0,-0.1326141,-0.1203003,0.9838257,-32.07097,5.540955,-28.36858,4.565704,0.5301209,0.4164554,1.0,-0.09689331,-0.08779907,0.9914093,28.46053,6.727173,-26.48106,4.271454,0.6603356,0.3510837,0.2125367,1.174836,-0.2571274,-0.04665203,0.7792299,0.045531,0.3820575,4.318888,29.29
2,-0.1167755,-0.1058807,0.9874878,1.0,-0.1326141,-0.1203003,0.9838257,-32.07097,5.540955,-28.36858,4.565704,0.5301209,0.4164554,1.0,-0.09689331,-0.08779907,0.9914093,28.46053,6.727173,-26.48106,4.271454,0.6603356,0.3510837,0.2125367,1.174836,-0.2571274,-0.04665203,0.7792299,0.045531,0.3820575,4.318888,29.29
2,-0.1109467,-0.1118622,0.9875031,1.0,-0.1248016,-0.1353912,0.9828949,-32.00101,5.553085,-28.3656,4.34816,0.5265092,0.4185358,1.0,-0.09555054,-0.08576965,0.9917145,28.47441,6.729828,-26.48106,4.258133,0.6596313,0.3506419,0.2125088,1.174875,-0.2570481,-0.04672025,0.7792613,0.04568855,0.3820575,4.318888,29.29
2,-0.1109467,-0.1118622,0.9875031,1.0,-0.1248016,-0.1353912,0.9828949,-32.00101,5.553085,-28.3656,4.34816,0.5265092,0.4185358,1.0,-0.09555054,-0.08576965,0.9917145,28.47441,6.729828,-26.48106,4.258133,0.6596313,0.3506419,0.2125088,1.174875,-0.2570481,-0.04672025,0.7792613,0.04568855,0.3820575,4.318888,29.29
2,-0.1104736,-0.1086578,0.987915,1.0,-0.1248627,-0.1277466,0.983902,-32.00041,5.554382,-28.36865,4.355377,0.5265092,0.4172001,1.0,-0.09547424,-0.08880615,0.9914551,28.48035,6.729828,-26.46854,4.192886,0.6593713,0.3510836,0.212456,1.174912,-0.2570468,-0.04688025,0.7792006,0.04559992,0.3820575,4.318888,29.29
2,-0.1104736,-0.1086578,0.987915,1.0,-0.1248627,-0.1277466,0.983902,-32.00041,5.554382,-28.36865,4.355377,0.5265092,0.4172001,1.0,-0.09547424,-0.08880615,0.9914551,28.48035,6.729828,-26.46854,4.192886,0.6593713,0.3510836,0.212456,1.174912,-0.2570468,-0.04688025,0.7792006,0.04559992,0.3820575,4.318888,29.29
2,-0.1107178,-0.1091614,0.9878235,1.0,-0.1251678,-0.1286774,0.9837494,-31.99884,5.554382,-28.37428,4.35051,0.5265092,0.4174139,1.0,-0.09553528,-0.0887146,0.9914551,28.48035,6.728821,-26.46619,4.164169,0.6593713,0.3510836,0.2123529,1.174933,-0.2570351,-0.04682276,0.7792807,0.04558709,0.3820575,4.318888,29.29
2,-0.1107178,-0.1091614,0.9878235,1.0,-0.1251678,-0.1286774,0.9837494,-31.99884,5.554382,-28.37428,4.35051,0.5265092,0.4174139,1.0,-0.09553528,-0.0887146,0.9914551,28.48035,6.728821,-26.46619,4.164169,0.6593713,0.3510836,0.2123529,1.174933,-0.2570351,-0.04682276,0.7792807,0.04558709,0.3820575,4.318888,29.29
2,-0.1133423,-0.1087036,0.9875793,1.0,-0.1253967,-0.1286316,0.9837189,-31.99849,5.554901,-28.37708,4.34729,0.526538,0.4174126,1.0,-0.1011353,-0.08859253,0.9909058,28.48035,6.726257,-26.46248,4.139374,0.6603168,0.3511364,0.212355,1.174837,-0.2570317,-0.04673938,0.7793998,0.04548622,0.3820575,4.318888,29.29
2,-0.1133423,-0.1087036,0.9875793,1.0,-0.1253967,-0.1286316,0.9837189,-31.99849,5.554901,-28.37708,4.34729,0.526538,0.4174126,1.0,-0.1011353,-0.08859253,0.9909058,28.48035,6.726257,-26.46248,4.139374,0.6603168,0.3511364,0.212355,1.174837,-0.2570317,-0.04673938,0.7793998,0.04548622,0.3820575,4.318888,29.29
2,-0.1138306,-0.1074524,0.9876556,1.0,-0.1253204,-0.1271667,0.9839172,-31.99823,5.555405,-28.38367,4.346085,0.52652,0.4172001,1.0,-0.1024475,-0.08796692,0.9908295,28.47804,6.724533,-26.46248,4.106125,0.6606126,0.3510836,0.212325,1.17491,-0.2570103,-0.04651744,0.7795873,0.04493431,0.3820575,7.161453,29.29
2,-0.1138306,-0.1074524,0.9876556,1.0,-0.1253204,-0.1271667,0.9839172,-31.99823,5.555405,-28.38367,4.346085,0.52652,0.4172001,1.0,-0.1024475,-0.08796692,0.9908295,28.47804,6.724533,-26.46248,4.106125,0.6606126,0.3510836,0.212325,1.17491,-0.2570103,-0.04651744,0.7795873,0.04493431,0.3820575,7.161453,29.29
2,-0.1143036,-0.1075439,0.9875946,1.0,-0.1252441,-0.1271973,0.9839325,-31.99823,5.555405,-28.38417,4.343903,0.5265092,0.4172001,1.0,-0.1035309,-0.08825684,0.9906921,28.47614,6.724854,-26.46349,4.087158,0.6608603,0.3511364,0.2122254,1.174768,-0.2570457,-0.0459818,0.7799678,0.04444164,0.3820575,7.161453,29.29
2,-0.1143036,-0.1075439,0.9875946,1.0,-0.1252441,-0.1271973,0.9839325,-31.99823,5.555405,-28.38417,4.343903,0.5265092,0.4172001,1.0,-0.1035309,-0.08825684,0.9906921,28.47614,6.724854,-26.46349,4.087158,0.6608603,0.3511364,0.2122254,1.174768,-0.2570457,-0.0459818,0.7799678,0.04444164,0.3820575,7.161453,29.29
2,-0.1127472,-0.1080017,0.9877319,1.0,-0.1239777,-0.1281433,0.983963,-31.99797,5.556961,-28.39604,4.336853,0.5262932,0.4174114,1.0,-0.1018524,-0.08853149,0.9908447,28.46681,6.726501,-26.46646,4.066467,0.6608961,0.3511364,0.2122141,1.17466,-0.2571032,-0.04554196,0.7801569,0.04406273,0.3820575,7.161453,29.29
2,-0.1124115,-0.1070099,0.9878693,1.0,-0.1233063,-0.1281891,0.9840393,-31.99762,5.557922,-28.39917,4.328873,0.5261747,0.4174139,1.0,-0.1019287,-0.08668518,0.9909973,28.46529,6.724854,-26.46727,4.066391,0.6609682,0.3508822,0.212113,1.17444,-0.2571954,-0.04472923,0.7807308,0.04315924,0.3820575,7.161453,29.29
2,-0.1124115,-0.1070099,0.9878693,1.0,-0.1233063,-0.1281891,0.9840393,-31.99762,5.557922,-28.39917,4.328873,0.5261747,0.4174139,1.0,-0.1019287,-0.08668518,0.9909973,28.46529,6.724854,-26.46727,4.066391,0.6609682,0.3508822,0.212113,1.17444,-0.2571954,-0.04472923,0.7807308,0.04315924,0.3820575,7.161453,29.29
2,-0.1126862,-0.1070404,0.9878387,1.0,-0.1245117,-0.1285553,0.9838409,-31.99495,5.561935,-28.40698,4.311462,0.5262932,0.4174114,1.0,-0.1011658,-0.08610535,0.9911346,28.46463,6.726578,-26.47699,4.062698,0.6608763,0.3507932,0.212114,1.174368,-0.2572384,-0.04433699,0.7810892,0.0423803,0.3820575,7.161453,29.29
2,-0.1126862,-0.1070404,0.9878387,1.0,-0.1245117,-0.1285553,0.9838409,-31.99495,5.561935,-28.40698,4.311462,0.5262932,0.4174114,1.0,-0.1011658,-0.08610535,0.9911346,28.46463,6.726578,-26.47699,4.062698,0.6608763,0.3507932,0.212114,1.174368,-0.2572384,-0.04433699,0.7810892,0.0423803,0.3820575,7.161453,29.29
2,-0.1125641,-0.107254,0.9878235,1.0,-0.1237946,-0.1272125,0.9841156,-31.994,5.562485,-28.4111,4.303894,0.5261462,0.4171884,1.0,-0.1010437,-0.08680725,0.9910736,28.46463,6.729126,-26.48294,4.041382,0.6608603,0.3508822,0.2119354,1.17416,-0.2573689,-0.04324935,0.7820527,0.0404085,0.3820575,7.161453,29.29
2,-0.1124115,-0.106781,0.9878998,1.0,-0.1235046,-0.1269684,0.9841766,-31.99026,5.562546,-28.4162,4.296127,0.5259773,0.4171884,1.0,-0.1009216,-0.08592224,0.9911652,28.46463,6.731903,-26.49205,4.06218,0.6608603,0.3506999,0.2118351,1.17399,-0.2574373,-0.04247363,0.7827208,0.03901918,0.3820575,7.161453,29.29
2,-0.1119385,-0.1067657,0.9879608,1.0,-0.1225586,-0.1268463,0.984314,-31.98907,5.562729,-28.4162,4.284073,0.5257831,0.417149,1.0,-0.1008453,-0.08581543,0.9911804,28.46463,6.737396,-26.50726,4.070908,0.6608763,0.3506106,0.2115099,1.173552,-0.2576776,-0.04018988,0.7841777,0.03596954,0.3820575,7.161453,29.29
2,-0.1119385,-0.1067657,0.9879608,1.0,-0.1225586,-0.1268463,0.984314,-31.98907,5.562729,-28.4162,4.284073,0.5257831,0.417149,1.0,-0.1008453,-0.08581543,0.9911804,28.46463,6.737396,-26.50726,4.070908,0.6608763,0.3506106,0.2115099,1.173552,-0.2576776,-0.04018988,0.7841777,0.03596954,0.3820575,7.161453,29.29
2,-0.1127472,-0.1088409,0.9876404,1.0,-0.1235046,-0.1271362,0.9841614,-31.9827,5.566895,-28.4162,4.279984,0.5257265,0.4170618,1.0,-0.0997467,-0.08679199,0.9912109,28.46614,6.765076,-26.55795,4.071701,0.6607252,0.3502258,0.2114061,1.17325,-0.2578108,-0.03872814,0.7850187,0.03406604,0.3820575,7.161453,29.29
2,-0.1081543,-0.09991455,0.98909,1.0,-0.1165314,-0.1129761,0.9867249,-31.95947,5.570572,-28.31837,4.273346,0.523772,0.413628,1.0,-0.09922791,-0.08605957,0.991333,28.46854,6.770889,-26.56332,4.071335,0.6605754,0.3499351,0.211162,1.172407,-0.2579839,-0.03534225,0.7867555,0.0293893,0.3820575,3.078987,29.29
2,-0.1081543,-0.09991455,0.98909,1.0,-0.1165314,-0.1129761,0.9867249,-31.95947,5.570572,-28.31837,4.273346,0.523772,0.413628,1.0,-0.09922791,-0.08605957,0.991333,28.46854,6.770889,-26.56332,4.071335,0.6605754,0.3499351,0.211162,1.172407,-0.2579839,-0.03534225,0.7867555,0.0293893,0.3820575,3.078987,29.29
2,-0.1032562,-0.0904541,0.9905243,1.0,-0.1101685,-0.1077881,0.9880371,-31.93178,5.559525,-28.25513,4.308136,0.5217583,0.4125555,1.0,-0.09901428,-0.07984924,0.9918671,28.46957,6.770889,-26.56332,4.07077,0.6605234,0.3488426,0.2110268,1.171889,-0.2580265,-0.03303711,0.7877184,0.02637058,0.3820575,3.078987,29.29
2,-0.09851074,-0.07894897,0.9919891,1.0,-0.106842,-0.09924316,0.9893036,-31.89749,5.541153,-28.15227,4.267319,0.5200392,0.4108055,1.0,-0.09637451,-0.07373047,0.9925995,28.47951,6.770889,-26.56332,4.073318,0.6597486,0.3477681,0.2107593,1.170467,-0.2580879,-0.02724398,0.7893831,0.01918,0.3820575,3.078987,29.29
2,-0.09851074,-0.07894897,0.9919891,1.0,-0.106842,-0.09924316,0.9893036,-31.89749,5.541153,-28.15227,4.267319,0.5200392,0.4108055,1.0,-0.09637451,-0.07373047,0.9925995,28.47951,6.770889,-26.56332,4.073318,0.6597486,0.3477681,0.2107593,1.170467,-0.2580879,-0.02724398,0.7893831,0.01918,0.3820575,3.078987,29.29
2,-0.08296204,-0.06472778,0.9944458,1.0,-0.09588623,-0.1046143,0.9898682,-31.79208,5.594788,-28.46826,4.252625,0.5147877,0.4125152,1.0,-0.07676697,-0.04570007,0.9959869,28.54126,6.698959,-26.27893,4.303665,0.6540034,0.3430769,0.2104274,1.168606,-0.2580626,-0.01957964,0.7907943,0.01076644,0.3820575,3.078987,29.29
2,-0.08296204,-0.06472778,0.9944458,1.0,-0.09588623,-0.1046143,0.9898682,-31.79208,5.594788,-28.46826,4.252625,0.5147877,0.4125152,1.0,-0.07676697,-0.04570007,0.9959869,28.54126,6.698959,-26.27893,4.303665,0.6540034,0.3430769,0.2104274,1.168606,-0.2580626,-0.01957964,0.7907943,0.01076644,0.3820575,3.078987,29.29
2,-0.05102539,-0.1426239,0.9884491,1.0,-0.05331421,-0.1514587,0.9870148,-31.41946,5.37442,-28.41481,4.315948,0.4951173,0.4273359,1.0,-0.04707336,-0.1274261,0.9907227,28.74625,6.619064,-26.93297,4.100296,0.642454,0.3654147,0.2102857,1.167635,-0.2580171,-0.01547888,0.7914153,0.006306441,0.3820575,3.078987,29.29
2,-0.02732849,-0.1983032,0.9797516,1.0,-0.03413391,-0.2021637,0.9787445,-31.16081,5.165848,-28.42645,4.208801,0.4832119,0.4430956,1.0,-0.0164032,-0.1920776,0.9812317,28.80627,6.317078,-26.61516,4.023361,0.63456,0.3845867,0.2101587,1.166564,-0.257962,-0.01113319,0.7919356,0.001485049,0.3820575,3.078987,29.29
2,-0.02732849,-0.1983032,0.9797516,1.0,-0.03413391,-0.2021637,0.9787445,-31.16081,5.165848,-28.42645,4.208801,0.4832119,0.4430956,1.0,-0.0164032,-0.1920776,0.9812317,28.80627,6.317078,-26.61516,4.023361,0.63456,0.3845867,0.2101587,1.166564,-0.257962,-0.01113319,0.7919356,0.001485049,0.3820575,3.078987,29.29
2,-0.02526855,-0.2129211,0.9767303,0.8092673,-0.03038025,-0.2312012,0.9724274,-31.12613,5.066727,-28.4445,4.362747,0.4813715,0.4516481,0.918803,-0.01652527,-0.1815643,0.9832306,28.82202,6.259613,-26.68648,4.187851,0.6341494,0.3852566,0.2100264,1.164248,-0.2577742,-0.002671639,0.7931303,-0.008383841,0.3820575,3.078987,29.29
2,0.003601074,-0.2549744,0.9669342,0.7922127,0.001876831,-0.2532196,0.967392,-30.97118,4.876526,-28.49937,4.339264,0.4708099,0.4622772,0.8652988,0.0144043,-0.2659454,0.9638672,28.91963,6.104172,-26.65707,4.145462,0.6255103,0.4053049,0.2098811,1.161727,-0.2574711,0.006261981,0.7941364,-0.01918583,0.3820575,3.078987,29.29
3,0.003601074,-0.2549744,0.9669342,0.7922127,0.001876831,-0.2532196,0.967392,-30.97118,4.876526,-28.49937,4.339264,0.4708099,0.4622772,0.8652988,0.0144043,-0.2659454,0.9638672,28.91963,6.104172,-26.65707,4.145462,0.6255103,0.4053049,0.2098811,1.161727,-0.2574711,0.006261981,0.7941364,-0.01918583,0.3820575,3.078987,29.29
3,0.01123047,-0.2999115,0.9538879,0.781305,0.005783081,-0.3017883,0.9533386,-30.90622,4.770966,-28.55441,4.303131,0.4679274,0.4749234,0.8355558,0.02571106,-0.2948456,0.9551849,28.96074,5.988876,-26.68871,3.959869,0.6221741,0.4147431,0.2097455,1.160312,-0.2573341,0.01109061,0.7945093,-0.02459876,0.3820575,3.078987,29.29
3,0.02563477,-0.3022003,0.9528809,0.781305,0.01057434,-0.3146515,0.9491425,-30.85265,4.718414,-28.57265,4.317673,0.4653151,0.4791323,0.8355558,0.04548645,-0.2855835,0.9572601,28.9707,5.939545,-26.71103,4.1194,0.6185886,0.4149109,0.2096012,1.158904,-0.2570914,0.01597163,0.7948773,-0.03031402,0.3820575,3.078987,29.29
3,0.02078247,-0.3140106,0.949173,0.7122393,0.02078247,-0.3140106,0.949173,-30.79594,4.644699,-28.59416,4.274002,0.4617112,0.4816842,0.8269861,0.0,0.0,0.0,29.05991,5.866425,-26.72435,-1.0,0.6150894,0.4181014,0.2092572,1.155966,-0.2566515,0.02587603,0.7951043,-0.04149745,0.3820575,-4.4122,29.29
3,0.02078247,-0.3140106,0.949173,0.7122393,0.02078247,-0.3140106,0.949173,-30.79594,4.644699,-28.59416,4.274002,0.4617112,0.4816842,0.8269861,0.0,0.0,0.0,29.05991,5.866425,-26.72435,-1.0,0.6150894,0.4181014,0.2092572,1.155966,-0.2566515,0.02587603,0.7951043,-0.04149745,0.3820575,-4.4122,29.29
3,0.03245544,-0.3202667,0.9467621,0.6655451,0.03245544,-0.3202667,0.9467621,-30.79504,4.598236,-28.61665,4.258057,0.4597455,0.4845737,0.7826207,0.0,0.0,0.0,29.09566,5.844208,-26.73735,-1.0,0.6122611,0.4248903,0.2087216,1.152939,-0.2561378,0.03594188,0.7948951,-0.05277018,0.3820575,-4.4122,29.29
3,0.03245544,-0.3202667,0.9467621,0.6655451,0.03245544,-0.3202667,0.9467621,-30.79504,4.598236,-28.61665,4.258057,0.4597455,0.4845737,0.7826207,0.0,0.0,0.0,29.09566,5.844208,-26.73735,-1.0,0.6122611,0.4248903,0.2087216,1.152939,-0.2561378,0.03594188,0.7948951,-0.05277018,0.3820575,-4.4122,29.29
3,0.05563354,-0.3432617,0.9375763,0.6497277,0.04924011,-0.3602753,0.9315338,-30.75002,4.519089,-28.66524,4.337509,0.4554153,0.4949296,0.7753437,0.06115723,-0.3284302,0.9425354,29.1342,5.789886,-26.76787,4.221802,0.6105092,0.428194,0.2083939,1.151311,-0.2558215,0.04089073,0.7947403,-0.05863017,0.3820575,-4.4122,29.29
3,0.0606842,-0.3451843,0.9365692,0.6497277,0.04728699,-0.3656769,0.9295197,-30.73456,4.481598,-28.68124,4.322556,0.4551999,0.4973143,0.7753437,0.07144165,-0.3285065,0.9417877,29.14044,5.76207,-26.77751,4.172531,0.6085669,0.4292768,0.2080411,1.149746,-0.2555308,0.04549212,0.7945286,-0.06418391,0.3820575,-4.4122,29.29
3,0.05270386,-0.3196259,0.9460602,0.627297,0.04838562,-0.3573456,0.9327087,-30.77164,4.45462,-28.68959,4.421219,0.4562815,0.4967489,0.7780319,0.05581665,-0.2915192,0.9549255,29.11714,5.733017,-26.76508,4.485809,0.6120321,0.4233258,0.2074345,1.146904,-0.2549496,0.05329317,0.793979,-0.0745395,0.3820575,-4.4122,29.29
3,0.05270386,-0.3196259,0.9460602,0.627297,0.04838562,-0.3573456,0.9327087,-30.77164,4.45462,-28.68959,4.421219,0.4562815,0.4967489,0.7780319,0.05581665,-0.2915192,0.9549255,29.11714,5.733017,-26.76508,4.485809,0.6120321,0.4233258,0.2074345,1.146904,-0.2549496,0.05329317,0.793979,-0.0745395,0.3820575,-4.4122,29.29
3,0.0355835,-0.3569031,0.9334564,0.6131812,0.01260376,-0.3739014,0.9273682,-30.89381,4.462875,-28.67813,4.30603,0.4662734,0.4994484,0.7729179,0.05369568,-0.3432922,0.9376831,29.00835,5.811356,-26.76709,4.066681,0.6160013,0.4302135,0.2071428,1.145722,-0.254669,0.05667837,0.7936797,-0.07893779,0.3820575,-4.4122,29.29
3,0.01243591,-0.3545074,0.934967,0.6119479,0.005493164,-0.3880463,0.9216156,-31.03865,4.49144,-28.68224,4.314255,0.4723302,0.5011662,0.7689884,0.01849365,-0.3248444,0.9455719,28.90849,5.848312,-26.75002,4.356598,0.6253492,0.4252743,0.2069205,1.144554,-0.2544028,0.05956781,0.793344,-0.08280382,0.3820575,-4.4122,29.29
3,0.01243591,-0.3545074,0.934967,0.6119479,0.005493164,-0.3880463,0.9216156,-31.03865,4.49144,-28.68224,4.314255,0.4723302,0.5011662,0.7689884,0.01849365,-0.3248444,0.9455719,28.90849,5.848312,-26.75002,4.356598,0.6253492,0.4252743,0.2069205,1.144554,-0.2544028,0.05956781,0.793344,-0.08280382,0.3820575,-4.4122,29.29
3,0.006118774,-0.3536682,0.9353485,0.5756841,-0.01075745,-0.3770447,0.9261169,-31.02643,4.464203,-28.68311,4.423676,0.4745886,0.5000436,0.7703502,0.02314758,-0.3297272,0.9437866,28.94147,5.816208,-26.75717,4.235794,0.6234124,0.4273621,0.2066064,1.143376,-0.2541332,0.06267665,0.7928591,-0.08671599,0.3820575,-4.4122,29.29
3,-0.008361816,-0.3611145,0.9324646,0.5419409,-0.00428772,-0.3835602,0.9234924,-31.04677,4.450348,-28.69951,4.372147,0.4742098,0.5018588,0.7510377,-0.01287842,-0.3359222,0.9417877,28.95804,5.762619,-26.76898,4.294479,0.6288728,0.4303618,0.2058998,1.141191,-0.2534583,0.06903441,0.7914455,-0.09350187,0.3820575,-4.4122,29.29
3,0.0025177,-0.3646088,0.9311523,0.5278598,-0.001190186,-0.3813324,0.9244232,-31.07246,4.436768,-28.69403,4.403183,0.4745681,0.5018575,0.7336103,0.00630188,-0.3473969,0.9376831,28.95221,5.765793,-26.77402,4.453827,0.6259381,0.4323116,0.2051979,1.139342,-0.2527688,0.07479026,0.7899419,-0.09934581,0.3820575,-4.4122,29.29
3,0.0025177,-0.3646088,0.9311523,0.5278598,-0.001190186,-0.3813324,0.9244232,-31.07246,4.436768,-28.69403,4.403183,0.4745681,0.5018575,0.7336103,0.00630188,-0.3473969,0.9376831,28.95221,5.765793,-26.77402,4.453827,0.6259381,0.4323116,0.2051979,1.139342,-0.2527688,0.07479026,0.7899419,-0.09934581,0.3820575,-4.4122,29.29
3,0.001724243,-0.3614655,0.932373,0.5257452,-0.003616333,-0.3796997,0.9250946,-31.10391,4.461914,-28.68413,4.425598,0.4760349,0.5006153,0.7342342,0.007263184,-0.3424835,0.9394836,28.97597,5.819443,-26.75276,4.403381,0.6249378,0.4294488,0.2043213,1.137759,-0.2520915,0.07936819,0.7887709,-0.1046397,0.3820575,-4.4122,29.29
3,0.001724243,-0.3614655,0.932373,0.5257452,-0.003616333,-0.3796997,0.9250946,-31.10391,4.461914,-28.68413,4.425598,0.4760349,0.5006153,0.7342342,0.007263184,-0.3424835,0.9394836,28.97597,5.819443,-26.75276,4.403381,0.6249378,0.4294488,0.2043213,1.137759,-0.2520915,0.07936819,0.7887709,-0.1046397,0.3820575,-4.4122,29.29
3,0.0050354,-0.357666,0.9338226,0.5257452,-3.051758e-05,-0.3843536,0.923172,-31.13255,4.511932,-28.6716,4.427902,0.4764173,0.4996758,0.7342342,0.01022339,-0.3300781,0.9438934,28.9881,5.845627,-26.73819,4.399002,0.6240091,0.426187,0.203398,1.136186,-0.2515539,0.08332991,0.7879477,-0.1101123,0.3820575,-4.4122,29.29
3,0.0050354,-0.357666,0.9338226,0.5257452,-3.051758e-05,-0.3843536,0.923172,-31.13255,4.511932,-28.6716,4.427902,0.4764173,0.4996758,0.7342342,0.01022339,-0.3300781,0.9438934,28.9881,5.845627,-26.73819,4.399002,0.6240091,0.426187,0.203398,1.136186,-0.2515539,0.08332991,0.7879477,-0.1101123,0.3820575,-4.4122,29.29
3,0.0050354,-0.357666,0.9338226,0.5257452,-3.051758e-05,-0.3843536,0.923172,-31.13255,4.511932,-28.6716,4.427902,0.4764173,0.4996758,0.7342342,0.01022339,-0.3300781,0.9438934,28.9881,5.845627,-26.73819,4.399002,0.6240091,0.426187,0.2022126,1.134566,-0.2510507,0.08736224,0.7876692,-0.1154616,0.3820575,-17.70289,29.29
3,0.0050354,-0.357666,0.9338226,0.5257452,-3.051758e-05,-0.3843536,0.923172,-31.13255,4.511932,-28.6716,4.427902,0.4764173,0.4996758,0.7342342,0.01022339,-0.3300781,0.9438934,28.9881,5.845627,-26.73819,4.399002,0.6240091,0.426187,0.2022126,1.134566,-0.2510507,0.08736224,0.7876692,-0.1154616,0.3820575,-17.70289,29.29
3,0.008117676,-0.3318939,0.9432678,0.5488601,-0.008728027,-0.3674927,0.9299774,-31.1804,4.543961,-28.65604,4.44397,0.4794761,0.4953797,0.7420685,0.02548218,-0.294632,0.9552612,28.98749,5.896118,-26.71147,4.493301,0.6214845,0.4178393,0.200816,1.133038,-0.2506781,0.09165054,0.7877233,-0.1205685,0.3820575,-17.70289,29.29
3,0.008117676,-0.3318939,0.9432678,0.5488601,-0.008728027,-0.3674927,0.9299774,-31.1804,4.543961,-28.65604,4.44397,0.4794761,0.4953797,0.7420685,0.02548218,-0.294632,0.9552612,28.98749,5.896118,-26.71147,4.493301,0.6214845,0.4178393,0.200816,1.133038,-0.2506781,0.09165054,0.7877233,-0.1205685,0.3820575,-17.70289,29.29
3,0.01991272,-0.3221436,0.9464722,0.5978503,0.00453186,-0.3195801,0.9475403,-31.29712,4.616806,-28.62675,4.4953,0.4812769,0.483985,0.7466325,0.03143311,-0.3240204,0.9455109,28.9756,5.958176,-26.71643,4.126587,0.6208163,0.4212493,0.1995548,1.13178,-0.2504904,0.09522236,0.7882771,-0.124775,0.3820575,-17.70289,29.29
3,0.01991272,-0.3221436,0.9464722,0.5978503,0.00453186,-0.3195801,0.9475403,-31.29712,4.616806,-28.62675,4.4953,0.4812769,0.483985,0.7466325,0.03143311,-0.3240204,0.9455109,28.9756,5.958176,-26.71643,4.126587,0.6208163,0.4212493,0.1995548,1.13178,-0.2504904,0.09522236,0.7882771,-0.124775,0.3820575,-17.70289,29.29
3,0.01705933,-0.3192444,0.9475098,0.6368321,-0.004547119,-0.3230286,0.9463654,-31.3205,4.700409,-28.60767,4.398743,0.483565,0.481661,0.7335295,0.03500366,-0.3159943,0.9481049,28.97784,6.057129,-26.69121,4.148972,0.6201407,0.4162253,0.1983589,1.130773,-0.2505375,0.09795465,0.7893539,-0.127914,0.3833387,-17.70289,29.29
3,0.01705933,-0.3192444,0.9475098,0.6368321,-0.004547119,-0.3230286,0.9463654,-31.3205,4.700409,-28.60767,4.398743,0.483565,0.481661,0.7335295,0.03500366,-0.3159943,0.9481049,28.97784,6.057129,-26.69121,4.148972,0.6201407,0.4162253,0.1983589,1.130773,-0.2505375,0.09795465,0.7893539,-0.127914,0.3833387,-17.70289,29.29
3,0.022995,-0.3143158,0.9490356,0.6305305,0.0008392334,-0.3172913,0.9483185,-31.32608,4.743027,-28.59349,4.447357,0.4828766,0.4790588,0.7163662,0.04777527,-0.3108063,0.9492645,28.97194,6.110535,-26.66779,4.152466,0.6181993,0.4133137,0.1970844,1.129573,-0.2506752,0.1010178,0.7906076,-0.1313077,0.3833387,-17.70289,29.29
3,0.022995,-0.3143158,0.9490356,0.6305305,0.0008392334,-0.3172913,0.9483185,-31.32608,4.743027,-28.59349,4.447357,0.4828766,0.4790588,0.7163662,0.04777527,-0.3108063,0.9492645,28.97194,6.110535,-26.66779,4.152466,0.6181993,0.4133137,0.1970844,1.129573,-0.2506752,0.1010178,0.7906076,-0.1313077,0.3833387,-17.70289,29.29
3,0.02386475,-0.3094788,0.950592,0.6582242,0.005325317,-0.3186951,0.9478302,-31.34496,4.750137,-28.58142,4.386902,0.4827744,0.4789832,0.7272222,0.04191589,-0.300354,0.9528961,28.99301,6.115982,-26.66026,4.212784,0.6184664,0.4111426,0.1956941,1.128135,-0.2508618,0.1046181,0.7920044,-0.1353313,0.3833387,-17.70289,29.29
3,0.02386475,-0.3094788,0.950592,0.6582242,0.005325317,-0.3186951,0.9478302,-31.34496,4.750137,-28.58142,4.386902,0.4827744,0.4789832,0.7272222,0.04191589,-0.300354,0.9528961,28.99301,6.115982,-26.66026,4.212784,0.6184664,0.4111426,0.1956941,1.128135,-0.2508618,0.1046181,0.7920044,-0.1353313,0.3833387,-17.70289,29.29
3,0.01870728,-0.2941589,0.9555664,0.6811541,-0.002212524,-0.2973785,0.9547424,-31.32202,4.714172,-28.59377,4.591461,0.4832486,0.4764403,0.7471959,0.0423584,-0.2903595,0.9559784,29.03506,6.092209,-26.66066,4.175797,0.6169329,0.4101657,0.1943369,1.126674,-0.2511864,0.1081048,0.7935632,-0.139868,0.3833387,3.897106,29.29
3,0.01870728,-0.2941589,0.9555664,0.6811541,-0.002212524,-0.2973785,0.9547424,-31.32202,4.714172,-28.59377,4.591461,0.4832486,0.4764403,0.7471959,0.0423584,-0.2903595,0.9559784,29.03506,6.092209,-26.66066,4.175797,0.6169329,0.4101657,0.1943369,1.126674,-0.2511864,0.1081048,0.7935632,-0.139868,0.3833387,3.897106,29.29
3,0.02755737,-0.2833099,0.9586182,0.6928136,0.01786804,-0.2760773,0.960968,-31.30176,4.757217,-28.57825,4.575943,0.4792928,0.4710646,0.7525941,0.03839111,-0.2913666,0.9558258,29.05605,6.10881,-26.65958,4.240509,0.6169061,0.4097438,0.1933409,1.125185,-0.2515045,0.112089,0.7952849,-0.1442377,0.3833387,3.897106,29.29
3,0.02755737,-0.2833099,0.9586182,0.6928136,0.01786804,-0.2760773,0.960968,-31.30176,4.757217,-28.57825,4.575943,0.4792928,0.4710646,0.7525941,0.03839111,-0.2913666,0.9558258,29.05605,6.10881,-26.65958,4.240509,0.6169061,0.4097438,0.1933409,1.125185,-0.2515045,0.112089,0.7952849,-0.1442377,0.3833387,3.897106,29.29
3,0.01945496,-0.2838745,0.9586487,0.7067171,0.005081177,-0.2868805,0.9579468,-31.28104,4.794098,-28.57141,4.521423,0.4806876,0.4716916,0.7495685,0.03668213,-0.2801971,0.9592285,29.06459,6.115982,-26.65849,4.266769,0.616906,0.4074765,0.1922396,1.123305,-0.25195,0.1172014,0.7965923,-0.1493841,0.3833387,3.897106,29.29
3,0.01945496,-0.2838745,0.9586487,0.7067171,0.005081177,-0.2868805,0.9579468,-31.28104,4.794098,-28.57141,4.521423,0.4806876,0.4716916,0.7495685,0.03668213,-0.2801971,0.9592285,29.06459,6.115982,-26.65849,4.266769,0.616906,0.4074765,0.1922396,1.123305,-0.25195,0.1172014,0.7965923,-0.1493841,0.3833387,3.897106,29.29
3,0.03608704,-0.2627563,0.9641724,0.7480887,0.01034546,-0.2826233,0.9591675,-31.22319,4.776855,-28.57707,4.39798,0.4778717,0.471562,0.7587441,0.06072998,-0.2434235,0.9680023,29.16527,6.107147,-26.65451,4.273148,0.609442,0.4012401,0.1911939,1.120767,-0.2523488,0.1240185,0.7972462,-0.1563213,0.3833387,3.897106,29.29
3,0.03608704,-0.2627563,0.9641724,0.7480887,0.01034546,-0.2826233,0.9591675,-31.22319,4.776855,-28.57707,4.39798,0.4778717,0.471562,0.7587441,0.06072998,-0.2434235,0.9680023,29.16527,6.107147,-26.65451,4.273148,0.609442,0.4012401,0.1911939,1.120767,-0.2523488,0.1240185,0.7972462,-0.1563213,0.3833387,3.897106,29.29
3,0.03808594,-0.2611694,0.9645386,0.7371769,0.02157593,-0.2825012,0.9590149,-31.17126,4.77948,-28.57939,4.44368,0.4742804,0.4714525,0.7698638,0.05503845,-0.2389984,0.9694519,29.18431,6.084457,-26.65811,4.290833,0.6097463,0.4012401,0.1898477,1.117853,-0.2526464,0.1318204,0.797306,-0.1642946,0.3833387,3.897106,29.29
3,0.03808594,-0.2611694,0.9645386,0.7371769,0.02157593,-0.2825012,0.9590149,-31.17126,4.77948,-28.57939,4.44368,0.4742804,0.4714525,0.7698638,0.05503845,-0.2389984,0.9694519,29.18431,6.084457,-26.65811,4.290833,0.6097463,0.4012401,0.1898477,1.117853,-0.2526464,0.1318204,0.797306,-0.1642946,0.3833387,3.897106,29.29
3,0.03662109,-0.2232971,0.9740601,0.7322628,0.02006531,-0.2266846,0.9737549,-31.11311,4.815689,-28.5636,4.561127,0.4726075,0.4602464,0.7704433,0.05270386,-0.2199402,0.9740753,29.26114,6.094086,-26.645,4.37709,0.6075376,0.3974079,0.1886376,1.114951,-0.2528589,0.1386392,0.7971475,-0.1727971,0.3833387,3.897106,29.29
3,0.03662109,-0.2232971,0.9740601,0.7322628,0.02006531,-0.2266846,0.9737549,-31.11311,4.815689,-28.5636,4.561127,0.4726075,0.4602464,0.7704433,0.05270386,-0.2199402,0.9740753,29.26114,6.094086,-26.645,4.37709,0.6075376,0.3974079,0.1886376,1.114951,-0.2528589,0.1386392,0.7971475,-0.1727971,0.3833387,3.897106,29.29
3,0.05412292,-0.2397308,0.9693146,0.7410803,0.03231812,-0.2338409,0.9717255,-31.02626,4.900894,-28.54102,4.505264,0.4676771,0.458425,0.7870173,0.07287598,-0.2447052,0.9668427,29.2834,6.232422,-26.62019,4.0578,0.6033105,0.3970379,0.1877685,1.112367,-0.2531465,0.143225,0.7973641,-0.1796265,0.3833387,3.897106,29.29
3,0.05412292,-0.2397308,0.9693146,0.7410803,0.03231812,-0.2338409,0.9717255,-31.02626,4.900894,-28.54102,4.505264,0.4676771,0.458425,0.7870173,0.07287598,-0.2447052,0.9668427,29.2834,6.232422,-26.62019,4.0578,0.6033105,0.3970379,0.1877685,1.112367,-0.2531465,0.143225,0.7973641,-0.1796265,0.3833387,3.897106,29.29
3,0.0269165,-0.2411957,0.9700928,0.7296391,0.01028442,-0.2487183,0.9685059,-31.11685,4.918472,-28.54637,4.473236,0.4743433,0.4605169,0.7720559,0.04371643,-0.2335205,0.9713593,29.10074,6.294128,-26.59784,4.323837,0.6144951,0.3926229,0.1869346,1.110425,-0.2534856,0.1463307,0.7976397,-0.1848595,0.3833387,3.897106,29.29
3,0.0269165,-0.2411957,0.9700928,0.7296391,0.01028442,-0.2487183,0.9685059,-31.11685,4.918472,-28.54637,4.473236,0.4743433,0.4605169,0.7720559,0.04371643,-0.2335205,0.9713593,29.10074,6.294128,-26.59784,4.323837,0.6144951,0.3926229,0.1869346,1.110425,-0.2534856,0.1463307,0.7976397,-0.1848595,0.3833387,3.897106,29.29
3,-0.02284241,-0.2455292,0.9691162,0.6945085,-0.03669739,-0.2514343,0.9671631,-31.40869,5.070496,-28.49669,4.520691,0.4918863,0.4556044,0.7592747,-0.004959106,-0.2378235,0.971283,28.79243,6.397049,-26.57489,4.264999,0.63314,0.3896077,0.186159,1.109425,-0.253877,0.147006,0.7985981,-0.187786,0.3833387,9.172329,29.29
3,-0.02284241,-0.2455292,0.9691162,0.6945085,-0.03669739,-0.2514343,0.9671631,-31.40869,5.070496,-28.49669,4.520691,0.4918863,0.4556044,0.7592747,-0.004959106,-0.2378235,0.971283,28.79243,6.397049,-26.57489,4.264999,0.63314,0.3896077,0.186159,1.109425,-0.253877,0.147006,0.7985981,-0.187786,0.3833387,9.172329,29.29
3,-0.04321289,-0.2165833,0.975296,0.693416,-0.05975342,-0.2272949,0.9719849,-31.50569,5.29277,-28.44981,4.442902,0.4989935,0.4435993,0.7653053,-0.0151062,-0.1982269,0.9800262,28.73024,6.6427,-26.5024,4.456436,0.6370669,0.3735625,0.1858319,1.109826,-0.2543747,0.1444079,0.8006124,-0.1864403,0.3833387,9.172329,29.29
3,-0.04321289,-0.2165833,0.975296,0.693416,-0.05975342,-0.2272949,0.9719849,-31.50569,5.29277,-28.44981,4.442902,0.4989935,0.4435993,0.7653053,-0.0151062,-0.1982269,0.9800262,28.73024,6.6427,-26.5024,4.456436,0.6370669,0.3735625,0.1858319,1.109826,-0.2543747,0.1444079,0.8006124,-0.1864403,0.3833387,9.172329,29.29
3,-0.04084778,-0.1925964,0.980423,0.6958719,-0.05305481,-0.2035065,0.9776306,-31.52066,5.432144,-28.41779,4.516388,0.4984229,0.4344673,0.7771462,-0.02159119,-0.175293,0.9842682,28.7672,6.80423,-26.46645,4.558517,0.6369915,0.3636871,0.1861284,1.111191,-0.2551222,0.1392643,0.8037728,-0.1815537,0.3833387,9.172329,29.29
3,-0.04084778,-0.1925964,0.980423,0.6958719,-0.05305481,-0.2035065,0.9776306,-31.52066,5.432144,-28.41779,4.516388,0.4984229,0.4344673,0.7771462,-0.02159119,-0.175293,0.9842682,28.7672,6.80423,-26.46645,4.558517,0.6369915,0.3636871,0.1861284,1.111191,-0.2551222,0.1392643,0.8037728,-0.1815537,0.3833387,9.172329,29.29
3,-0.03326416,-0.2052765,0.9781342,0.7466262,-0.04341125,-0.2264557,0.9730377,-31.56322,5.510498,-28.40508,4.426865,0.4982622,0.4357252,0.7980117,-0.01454163,-0.1659241,0.9860229,28.78464,6.965698,-26.79665,4.524826,0.6356812,0.3592052,0.1861523,1.113038,-0.2560155,0.1337098,0.8071808,-0.1757335,0.3833387,9.172329,29.29
3,-0.03326416,-0.2052765,0.9781342,0.7466262,-0.04341125,-0.2264557,0.9730377,-31.56322,5.510498,-28.40508,4.426865,0.4982622,0.4357252,0.7980117,-0.01454163,-0.1659241,0.9860229,28.78464,6.965698,-26.79665,4.524826,0.6356812,0.3592052,0.1861523,1.113038,-0.2560155,0.1337098,0.8071808,-0.1757335,0.3833387,9.172329,29.29
3,-0.04171753,-0.1952515,0.9798584,0.7864653,-0.05328369,-0.1919098,0.97995,-31.57149,5.416565,-28.42087,4.579712,0.5001686,0.4330127,0.8540209,-0.0181427,-0.2019806,0.9792175,28.79591,6.799759,-26.54471,4.329208,0.635407,0.3692655,0.1860738,1.115052,-0.2570149,0.1293808,0.8105226,-0.1698316,0.3833387,9.172329,29.29
3,-0.04171753,-0.1952515,0.9798584,0.7864653,-0.05328369,-0.1919098,0.97995,-31.57149,5.416565,-28.42087,4.579712,0.5001686,0.4330127,0.8540209,-0.0181427,-0.2019806,0.9792175,28.79591,6.799759,-26.54471,4.329208,0.635407,0.3692655,0.1860738,1.115052,-0.2570149,0.1293808,0.8105226,-0.1698316,0.3833387,9.172329,29.29
3,-0.03756714,-0.2077332,0.9774628,0.7949628,-0.05007935,-0.2132416,0.975708,-31.57706,5.220901,-28.47025,4.615234,0.4997925,0.4437072,0.8719208,-0.01312256,-0.1968689,0.9803314,28.83208,6.556931,-26.57018,4.438843,0.633287,0.3768316,0.1858377,1.117057,-0.2582117,0.1251905,0.8141189,-0.1635294,0.3833387,9.172329,29.29
3,-0.03756714,-0.2077332,0.9774628,0.7949628,-0.05007935,-0.2132416,0.975708,-31.57706,5.220901,-28.47025,4.615234,0.4997925,0.4437072,0.8719208,-0.01312256,-0.1968689,0.9803314,28.83208,6.556931,-26.57018,4.438843,0.633287,0.3768316,0.1858377,1.117057,-0.2582117,0.1251905,0.8141189,-0.1635294,0.3833387,9.172329,29.29
3,-0.02859497,-0.2147369,0.9762421,0.8272688,-0.04011536,-0.2258453,0.9733276,-31.57069,5.067139,-28.52145,4.614014,0.497918,0.4514804,0.8754328,-0.01379395,-0.2004089,0.9796143,28.84663,6.401382,-26.6106,4.444016,0.6328828,0.3830912,0.185716,1.118142,-0.2588541,0.1229139,0.8160939,-0.1602811,0.3833387,9.172329,29.29
3,-0.02453613,-0.2225037,0.9746094,0.8370256,-0.03564453,-0.2335205,0.9716949,-31.53775,4.9935,-28.54288,4.58786,0.4960648,0.4554681,0.8777416,-0.01504517,-0.213028,0.9769287,28.86934,6.313614,-26.63957,4.415054,0.6323011,0.3885557,0.1854655,1.120417,-0.2601788,0.1181261,0.8203481,-0.1533905,0.3833387,9.172329,29.29
3,-0.02453613,-0.2225037,0.9746094,0.8370256,-0.03564453,-0.2335205,0.9716949,-31.53775,4.9935,-28.54288,4.58786,0.4960648,0.4554681,0.8777416,-0.01504517,-0.213028,0.9769287,28.86934,6.313614,-26.63957,4.415054,0.6323011,0.3885557,0.1854655,1.120417,-0.2601788,0.1181261,0.8203481,-0.1533905,0.3833387,9.172329,29.29
3,-0.01654053,-0.2239838,0.9744415,0.8641254,-0.0335083,-0.2331543,0.9718475,-31.49603,4.893433,-28.5657,4.647797,0.4942961,0.4589459,0.8906736,-0.001083374,-0.2155609,0.9764862,28.89018,6.220169,-26.66017,4.490372,0.6292639,0.3923357,0.1852937,1.121507,-0.2609732,0.1155074,0.8226855,-0.1497652,0.3833387,6.51893,29.29
3,-0.01654053,-0.2239838,0.9744415,0.8641254,-0.0335083,-0.2331543,0.9718475,-31.49603,4.893433,-28.5657,4.647797,0.4942961,0.4589459,0.8906736,-0.001083374,-0.2155609,0.9764862,28.89018,6.220169,-26.66017,4.490372,0.6292639,0.3923357,0.1852937,1.121507,-0.2609732,0.1155074,0.8226855,-0.1497652,0.3833387,6.51893,29.29
3,-0.0201416,-0.2411652,0.9702606,0.8834263,-0.03321838,-0.2545319,0.9664764,-31.51401,4.834091,-28.58951,4.509781,0.4948414,0.4648983,0.9023661,-0.006317139,-0.2269592,0.973877,28.88684,6.167557,-26.68158,4.480713,0.6302546,0.3963149,0.1849467,1.123893,-0.2626889,0.1095901,0.8278967,-0.1418765,0.3833387,6.51893,29.29
3,-0.04751587,-0.1765442,0.983139,0.9026561,-0.06694031,-0.1838989,0.9806519,-31.73392,5.092636,-28.54549,4.690582,0.5078528,0.4436579,0.9037059,-0.02613831,-0.1683807,0.9853668,28.53157,6.492599,-26.57497,4.406998,0.6457788,0.3739615,0.1847982,1.125157,-0.2636384,0.1058352,0.8309765,-0.1376083,0.3833387,6.51893,29.29
3,-0.09185791,-0.1133423,0.9892883,0.852829,-0.09710693,-0.1197205,0.9880371,-31.85938,5.688416,-28.41347,4.526901,0.5171763,0.4115704,0.8594623,-0.07217407,-0.08946228,0.9933624,28.0341,6.961502,-26.17996,4.33902,0.670708,0.3404583,0.1844867,1.128038,-0.2658191,0.09786553,0.8377031,-0.1278717,0.3833387,6.51893,29.29
3,-0.09185791,-0.1133423,0.9892883,0.852829,-0.09710693,-0.1197205,0.9880371,-31.85938,5.688416,-28.41347,4.526901,0.5171763,0.4115704,0.8594623,-0.07217407,-0.08946228,0.9933624,28.0341,6.961502,-26.17996,4.33902,0.670708,0.3404583,0.1844867,1.128038,-0.2658191,0.09786553,0.8377031,-0.1278717,0.3833387,6.51893,29.29
3,-0.1560974,-0.01504517,0.9876099,0.7971099,-0.1560974,-0.01504517,0.9876099,-32.13565,6.082535,-28.45277,4.749939,0.5364966,0.3810774,0.8865816,0.0,0.0,0.0,27.68021,7.482986,-26.59767,-1.0,0.6967977,0.3050474,0.1843801,1.129595,-0.2670231,0.09340653,0.8413697,-0.122579,0.3833387,6.51893,29.29
3,-0.1869659,0.06443787,0.9802399,0.922273,-0.1869659,0.06443787,0.9802399,-32.37737,6.381332,-28.51854,4.876312,0.5501428,0.3582031,0.9882887,0.0,0.0,0.0,27.48875,7.599564,-26.66452,-1.0,0.7106906,0.2821327,0.1842092,1.131231,-0.2682837,0.08883147,0.845178,-0.1167234,0.3833387,6.51893,29.29
3,-0.1869659,0.06443787,0.9802399,0.922273,-0.1869659,0.06443787,0.9802399,-32.37737,6.381332,-28.51854,4.876312,0.5501428,0.3582031,0.9882887,0.0,0.0,0.0,27.48875,7.599564,-26.66452,-1.0,0.7106906,0.2821327,0.1842092,1.131231,-0.2682837,0.08883147,0.845178,-0.1167234,0.3833387,6.51893,29.29
3,-0.1993256,0.1297455,0.9712982,1.0,-0.2078247,0.1212616,0.9706116,-32.50861,6.508774,-28.51041,4.891922,0.5584185,0.3441564,1.0,-0.1684265,0.1602173,0.9725952,27.31123,7.799942,-26.67426,4.63736,0.7171884,0.2687319,0.1841263,1.132874,-0.2695717,0.08435823,0.8489257,-0.1107845,0.3833387,6.51893,29.29
3,-0.2075653,0.154953,0.9658661,1.0,-0.2264404,0.144104,0.9633026,-32.54889,6.503281,-28.53862,4.962845,0.5630798,0.3407916,1.0,-0.165802,0.1785126,0.9698639,27.29941,7.724518,-26.69191,4.515976,0.7172129,0.2682995,0.1837204,1.136431,-0.2722498,0.07539386,0.8566494,-0.09851547,0.3833387,6.51893,29.29
3,-0.2075653,0.154953,0.9658661,1.0,-0.2264404,0.144104,0.9633026,-32.54889,6.503281,-28.53862,4.962845,0.5630798,0.3407916,1.0,-0.165802,0.1785126,0.9698639,27.29941,7.724518,-26.69191,4.515976,0.7172129,0.2682995,0.1837204,1.136431,-0.2722498,0.07539386,0.8566494,-0.09851547,0.3833387,6.51893,29.29
3,-0.2105865,0.1759949,0.9615936,1.0,-0.2360687,0.1452026,0.9608154,-32.60013,6.416855,-28.52519,4.903763,0.5664519,0.343531,1.0,-0.1930237,0.1968231,0.9612427,27.22395,7.64238,-26.73607,4.48613,0.7251723,0.267998,0.1831259,1.139935,-0.274878,0.06697346,0.8640051,-0.08599826,0.3833387,6.51893,29.29
3,-0.219635,0.2042389,0.953949,1.0,-0.2450562,0.1647491,0.9553986,-32.64207,6.335831,-28.56123,4.899292,0.5695309,0.3433466,1.0,-0.2103271,0.2184143,0.9529114,27.19743,7.572617,-26.77634,4.568878,0.7296311,0.2668482,0.1827956,1.141586,-0.2760901,0.06294509,0.8674115,-0.08006929,0.3833387,6.51893,29.29
3,-0.2263794,0.182785,0.9567261,1.0,-0.2375488,0.1611023,0.9579163,-32.61957,6.257706,-28.55702,4.989731,0.5673847,0.3466355,1.0,-0.2092896,0.2152863,0.9538574,27.29713,7.448471,-26.75854,4.610001,0.7254566,0.2721424,0.182361,1.143232,-0.2772467,0.05892786,0.8706622,-0.07426321,0.3833387,6.51893,29.29
3,-0.2084503,0.1678314,0.9635162,1.0,-0.2214661,0.1429443,0.9646301,-32.53296,6.027679,-28.51686,4.875153,0.5615124,0.3571935,1.0,-0.1916504,0.1993256,0.9609985,27.47797,7.202591,-26.64482,4.628036,0.7146898,0.283737,0.1815752,1.146251,-0.2793343,0.05179005,0.8765497,-0.06357743,0.3833387,-2.209579,29.29
3,-0.2084503,0.1678314,0.9635162,1.0,-0.2214661,0.1429443,0.9646301,-32.53296,6.027679,-28.51686,4.875153,0.5615124,0.3571935,1.0,-0.1916504,0.1993256,0.9609985,27.47797,7.202591,-26.64482,4.628036,0.7146898,0.283737,0.1815752,1.146251,-0.2793343,0.05179005,0.8765497,-0.06357743,0.3833387,-2.209579,29.29
3,-0.2081299,0.141098,0.967865,1.0,-0.212326,0.1302185,0.9684753,-32.43459,5.831497,-28.45819,4.913712,0.556443,0.3655744,1.0,-0.1906128,0.1854401,0.963974,27.64417,7.023132,-26.42657,4.740509,0.7076257,0.2915154,0.1811889,1.147693,-0.280284,0.04872058,0.8791957,-0.05880344,0.3833387,-2.209579,29.29
3,-0.1976624,0.1074066,0.9743652,1.0,-0.1976624,0.1073914,0.9743652,-32.34172,5.666229,-28.30435,4.854172,0.5506032,0.3736807,1.0,-0.1744537,0.1758423,0.9688263,27.7831,6.553543,-25.09824,4.625122,0.6965879,0.3002899,0.1805423,1.149986,-0.282081,0.04306418,0.8836821,-0.05032511,0.3833387,-2.209579,29.29
3,-0.1976624,0.1074066,0.9743652,1.0,-0.1976624,0.1073914,0.9743652,-32.34172,5.666229,-28.30435,4.854172,0.5506032,0.3736807,1.0,-0.1744537,0.1758423,0.9688263,27.7831,6.553543,-25.09824,4.625122,0.6965879,0.3002899,0.1805423,1.149986,-0.282081,0.04306418,0.8836821,-0.05032511,0.3833387,-2.209579,29.29
3,-0.1886597,0.09588623,0.9773407,1.0,-0.1886597,0.09588623,0.9773407,-32.23209,5.422958,-27.6889,4.861893,0.5449451,0.3788079,1.0,-0.1725006,0.173111,0.9696655,27.95799,6.469818,-25.1853,4.566193,0.6898592,0.3049979,0.1800851,1.152074,-0.2836423,0.03845118,0.8875853,-0.04285694,0.3833387,-2.209579,29.27
3,-0.1886597,0.09588623,0.9773407,1.0,-0.1886597,0.09588623,0.9773407,-32.23209,5.422958,-27.6889,4.861893,0.5449451,0.3788079,1.0,-0.1725006,0.173111,0.9696655,27.95799,6.469818,-25.1853,4.566193,0.6898592,0.3049979,0.1800851,1.152074,-0.2836423,0.03845118,0.8875853,-0.04285694,0.3833387,-2.209579,29.27
3,-0.1680756,0.07563782,0.9828644,1.0,-0.1680756,0.07562256,0.9828644,-32.14624,5.420746,-27.88475,4.854584,0.5386491,0.3837406,1.0,-0.1437988,0.1447449,0.9789581,28.08727,6.411758,-25.40341,4.640717,0.6805286,0.313556,0.1799353,1.152925,-0.284359,0.03622919,0.8891667,-0.03944779,0.3833387,-2.209579,29.27
3,-0.1500092,0.07704163,0.985672,1.0,-0.160141,0.05300903,0.9856567,-32.04356,5.177429,-27.26483,4.745071,0.5335265,0.3904877,1.0,-0.1265717,0.1315613,0.9831848,28.17123,6.271927,-25.15952,4.720474,0.6740494,0.3189295,0.1797637,1.153753,-0.2849772,0.03408036,0.8907558,-0.03642915,0.3833387,-2.209579,29.27
3,-0.1221771,0.1212311,0.9850616,1.0,-0.157547,0.03527832,0.9868774,-31.97537,5.240631,-27.71045,4.684525,0.5309938,0.3949252,1.0,-0.1210632,0.1238861,0.9848785,28.2673,6.286285,-25.47855,4.679489,0.6702093,0.322264,0.1794914,1.155002,-0.2861676,0.03021826,0.8934534,-0.03144584,0.3833387,-2.209579,29.27
3,-0.1221771,0.1212311,0.9850616,1.0,-0.157547,0.03527832,0.9868774,-31.97537,5.240631,-27.71045,4.684525,0.5309938,0.3949252,1.0,-0.1210632,0.1238861,0.9848785,28.2673,6.286285,-25.47855,4.679489,0.6702093,0.322264,0.1794914,1.155002,-0.2861676,0.03021826,0.8934534,-0.03144584,0.3833387,-2.209579,29.27
4,-0.1037903,0.09980774,0.989563,1.0,-0.1218872,0.01972961,0.9923401,-31.98172,5.492325,-28.93105,4.581879,0.5257847,0.3989456,1.0,-0.1037903,0.09986877,0.989563,28.33417,6.137939,-25.17358,4.579529,0.6642767,0.329033,0.1794273,1.155495,-0.2866788,0.028236,0.8946337,-0.02951225,0.3833387,-2.209579,29.27
4,-0.1015015,0.09983826,0.9898071,1.0,-0.1237183,0.02023315,0.9920959,-31.94354,5.296844,-28.29715,4.658554,0.5245144,0.4002266,1.0,-0.1015015,0.09985352,0.9898071,28.38687,6.145767,-25.27031,4.617493,0.6621985,0.3296223,0.1794219,1.156053,-0.2872905,0.02631713,0.8958098,-0.02762109,0.3833387,-2.209579,29.27
4,-0.1008453,0.09584045,0.9902649,1.0,-0.1169891,0.006393433,0.993103,-31.92567,5.267136,-28.2215,4.60437,0.5227463,0.4028564,1.0,-0.1008453,0.09584045,0.9902649,28.41399,6.171692,-25.41132,4.607452,0.661365,0.3304822,0.1794327,1.15648,-0.2878032,0.02432019,0.8969314,-0.02566469,0.3833387,-2.209579,29.27
4,-0.07911682,0.08183289,0.9934845,1.0,-0.1135101,0.006118774,0.993515,-31.87686,5.236267,-28.20082,4.612457,0.5205142,0.4037525,1.0,-0.07911682,0.08184814,0.9934845,28.44418,6.169327,-25.45741,4.53688,0.6566448,0.3332181,0.1795164,1.15721,-0.2887011,0.02046745,0.8990581,-0.02265679,0.3833387,-2.209579,29.27
4,-0.07911682,0.08183289,0.9934845,1.0,-0.1135101,0.006118774,0.993515,-31.87686,5.236267,-28.20082,4.612457,0.5205142,0.4037525,1.0,-0.07911682,0.08184814,0.9934845,28.44418,6.169327,-25.45741,4.53688,0.6566448,0.3332181,0.1795164,1.15721,-0.2887011,0.02046745,0.8990581,-0.02265679,0.3833387,-2.209579,29.27
4,-0.07684326,0.06248474,0.9950714,1.0,-0.1113586,-0.001113892,0.9937744,-31.81079,5.111969,-27.83942,4.573486,0.5177992,0.4060897,1.0,-0.07615662,0.06373596,0.9950409,28.51884,6.160233,-25.58371,4.525879,0.6536937,0.3376024,0.1795164,1.15721,-0.2887011,0.02046745,0.8990581,-0.02265679,0.3833387,-2.209579,29.27
4,-0.08712769,0.02812195,0.9957886,1.0,-0.1029816,-0.01185608,0.9945984,-31.78658,5.180634,-28.22681,4.608353,0.5157049,0.4087948,1.0,-0.07681274,0.05395508,0.995575,28.60832,6.145309,-25.75006,4.527237,0.6509442,0.3410726,0.1794113,1.15786,-0.2893703,0.01724089,0.900827,-0.02000613,0.3833387,-11.20707,29.27
4,-0.08235168,0.01853943,0.9964294,1.0,-0.09143066,-0.01222229,0.9957275,-31.76411,5.149399,-28.15575,4.57399,0.5130165,0.409249,1.0,-0.07159424,0.05462646,0.9959259,28.64063,6.141815,-25.77542,4.531738,0.648985,0.3412941,0.1792034,1.158729,-0.2901554,0.01343328,0.9022287,-0.01669197,0.3833387,-11.20707,29.27
4,-0.08235168,0.01853943,0.9964294,1.0,-0.09143066,-0.01222229,0.9957275,-31.76411,5.149399,-28.15575,4.57399,0.5130165,0.409249,1.0,-0.07159424,0.05462646,0.9959259,28.64063,6.141815,-25.77542,4.531738,0.648985,0.3412941,0.1792034,1.158729,-0.2901554,0.01343328,0.9022287,-0.01669197,0.3833387,-11.20707,29.27
4,-0.08622742,-0.004379272,0.9962616,1.0,-0.09069824,-0.01516724,0.9957581,-31.73927,5.180725,-28.27835,4.503265,0.5121108,0.4096944,1.0,-0.06535339,0.04563904,0.9968109,28.66954,6.166718,-25.85838,4.430618,0.6470108,0.3425871,0.179116,1.160118,-0.290854,0.007399113,0.9037998,-0.01212497,0.3833387,-11.20707,29.27
4,-0.08622742,-0.004379272,0.9962616,1.0,-0.09069824,-0.01516724,0.9957581,-31.73927,5.180725,-28.27835,4.503265,0.5121108,0.4096944,1.0,-0.06535339,0.04563904,0.9968109,28.66954,6.166718,-25.85838,4.430618,0.6470108,0.3425871,0.179116,1.160118,-0.290854,0.007399113,0.9037998,-0.01212497,0.3833387,-11.20707,29.27
4,-0.05792236,0.03425598,0.9977264,1.0,-0.07893372,-0.03651428,0.9962006,-31.71281,5.282684,-28.65475,4.553116,0.5093474,0.4130068,1.0,-0.05633545,0.03956604,0.9976196,28.73013,6.241074,-26.03406,4.511658,0.6437042,0.342459,0.1790236,1.161697,-0.2914846,0.0004048614,0.905467,-0.006501892,0.3833387,-11.20707,29.27
4,-0.05792236,0.03425598,0.9977264,1.0,-0.07893372,-0.03651428,0.9962006,-31.71281,5.282684,-28.65475,4.553116,0.5093474,0.4130068,1.0,-0.05633545,0.03956604,0.9976196,28.73013,6.241074,-26.03406,4.511658,0.6437042,0.342459,0.1790236,1.161697,-0.2914846,0.0004048614,0.905467,-0.006501892,0.3833387,-11.20707,29.27
4,-0.04803467,0.01293945,0.9987488,1.0,-0.07243347,-0.05126953,0.996048,-31.64287,5.106308,-28.25578,4.520584,0.5057808,0.4180187,1.0,-0.04524231,0.02024841,0.998764,28.7581,6.169907,-25.95897,4.407715,0.6406503,0.3475698,0.1787273,1.163369,-0.2921904,-0.006344134,0.9071782,-0.0003662109,0.3833387,-11.20707,29.27
4,-0.04803467,0.01293945,0.9987488,1.0,-0.07243347,-0.05126953,0.996048,-31.64287,5.106308,-28.25578,4.520584,0.5057808,0.4180187,1.0,-0.04524231,0.02024841,0.998764,28.7581,6.169907,-25.95897,4.407715,0.6406503,0.3475698,0.1787273,1.163369,-0.2921904,-0.006344134,0.9071782,-0.0003662109,0.3833387,-11.20707,29.27
4,-0.03834534,0.003036499,0.9992523,1.0,-0.06336975,-0.07034302,0.9954987,-31.62601,5.175415,-28.83563,4.532669,0.5038321,0.423817,1.0,-0.03779602,0.004669189,0.9992676,28.78847,6.048294,-26.00093,4.389633,0.6382713,0.3547645,0.178347,1.165064,-0.2927527,-0.01230006,0.9090006,0.006165457,0.3833387,-11.20707,29.27
4,-0.03834534,0.003036499,0.9992523,1.0,-0.06336975,-0.07034302,0.9954987,-31.62601,5.175415,-28.83563,4.532669,0.5038321,0.423817,1.0,-0.03779602,0.004669189,0.9992676,28.78847,6.048294,-26.00093,4.389633,0.6382713,0.3547645,0.178347,1.165064,-0.2927527,-0.01230006,0.9090006,0.006165457,0.3833387,-11.20707,29.27
4,-0.0617218,0.02033997,0.997879,1.0,-0.08253479,-0.04992676,0.9953308,-31.70169,5.184982,-28.47955,4.530563,0.5094932,0.4171072,1.0,-0.06147766,0.02111816,0.997879,28.66226,6.165909,-26.1001,4.459091,0.6468645,0.3486726,0.177807,1.166875,-0.2935226,-0.01827797,0.9109759,0.01346431,0.3833387,-11.20707,29.27
4,-0.0617218,0.02033997,0.997879,1.0,-0.08253479,-0.04992676,0.9953308,-31.70169,5.184982,-28.47955,4.530563,0.5094932,0.4171072,1.0,-0.06147766,0.02111816,0.997879,28.66226,6.165909,-26.1001,4.459091,0.6468645,0.3486726,0.177807,1.166875,-0.2935226,-0.01827797,0.9109759,0.01346431,0.3833387,-11.20707,29.27
4,-0.1659698,0.1120148,0.9797363,1.0,-0.1815948,0.04440308,0.9823608,-32.17458,5.55806,-27.97231,4.661575,0.541915,0.384988,1.0,-0.1658783,0.1123962,0.9797058,27.73721,6.674667,-25.9127,4.617935,0.6975397,0.3133529,0.1771026,1.168819,-0.2943009,-0.02443633,0.9136115,0.02103757,0.3833387,-11.20707,29.27
4,-0.1659698,0.1120148,0.9797363,1.0,-0.1815948,0.04440308,0.9823608,-32.17458,5.55806,-27.97231,4.661575,0.541915,0.384988,1.0,-0.1658783,0.1123962,0.9797058,27.73721,6.674667,-25.9127,4.617935,0.6975397,0.3133529,0.1771026,1.168819,-0.2943009,-0.02443633,0.9136115,0.02103757,0.3833387,-11.20707,29.27
4,-0.2294006,0.1356659,0.9638214,1.0,-0.2508545,0.07807922,0.964859,-32.56075,5.776703,-28.46968,4.705994,0.56709,0.3765113,1.0,-0.2291107,0.1364288,0.9637756,27.30763,6.832062,-26.06271,4.420135,0.7247551,0.3040694,0.176367,1.17048,-0.2950971,-0.02954278,0.9162464,0.02799565,0.3833387,10.73119,29.27
4,-0.2294006,0.1356659,0.9638214,1.0,-0.2508545,0.07807922,0.964859,-32.56075,5.776703,-28.46968,4.705994,0.56709,0.3765113,1.0,-0.2291107,0.1364288,0.9637756,27.30763,6.832062,-26.06271,4.420135,0.7247551,0.3040694,0.176367,1.17048,-0.2950971,-0.02954278,0.9162464,0.02799565,0.3833387,10.73119,29.27
4,-0.2866821,0.09558105,0.9532318,1.0,-0.2868805,0.08609009,0.9540863,-32.90451,5.6642,-28.55907,4.73468,0.5849852,0.3800126,1.0,-0.2853851,0.1409912,0.9479675,27.04337,6.677322,-26.16055,4.391632,0.7446482,0.3091249,0.1753695,1.171916,-0.2959331,-0.03322489,0.9190041,0.03438983,0.3833387,10.73119,29.27
4,-0.2866821,0.09558105,0.9532318,1.0,-0.2868805,0.08609009,0.9540863,-32.90451,5.6642,-28.55907,4.73468,0.5849852,0.3800126,1.0,-0.2853851,0.1409912,0.9479675,27.04337,6.677322,-26.16055,4.391632,0.7446482,0.3091249,0.1753695,1.171916,-0.2959331,-0.03322489,0.9190041,0.03438983,0.3833387,10.73119,29.27
4,-0.2743835,0.1121674,0.9550476,1.0,-0.2896423,0.05508423,0.9555359,-32.85213,5.479111,-28.55243,4.689377,0.5834765,0.3915326,1.0,-0.2693787,0.1300964,0.9541931,27.21873,6.455688,-26.11224,4.357849,0.7347591,0.3188674,0.1743474,1.173071,-0.2968123,-0.03597141,0.9220425,0.0400493,0.3833387,10.73119,29.27
4,-0.2743835,0.1121674,0.9550476,1.0,-0.2896423,0.05508423,0.9555359,-32.85213,5.479111,-28.55243,4.689377,0.5834765,0.3915326,1.0,-0.2693787,0.1300964,0.9541931,27.21873,6.455688,-26.11224,4.357849,0.7347591,0.3188674,0.1743474,1.173071,-0.2968123,-0.03597141,0.9220425,0.0400493,0.3833387,10.73119,29.27
4,-0.2707367,0.07904053,0.9593964,1.0,-0.2737885,0.04457092,0.9607391,-32.79085,5.334732,-28.53944,4.55629,0.5786446,0.3978992,1.0,-0.26651,0.1214447,0.956131,27.39763,6.302536,-26.09526,4.376343,0.7274786,0.3259482,0.1733329,1.174098,-0.2976606,-0.03812465,0.9252776,0.04480562,0.3833387,10.73119,29.27
4,-0.2707367,0.07904053,0.9593964,1.0,-0.2737885,0.04457092,0.9607391,-32.79085,5.334732,-28.53944,4.55629,0.5786446,0.3978992,1.0,-0.26651,0.1214447,0.956131,27.39763,6.302536,-26.09526,4.376343,0.7274786,0.3259482,0.1733329,1.174098,-0.2976606,-0.03812465,0.9252776,0.04480562,0.3833387,10.73119,29.27
4,-0.2553101,0.06297302,0.964798,1.0,-0.2563934,0.02508545,0.9662323,-32.74239,5.280212,-28.51352,4.554611,0.5739209,0.4026679,1.0,-0.2533569,0.1118927,0.9608765,27.47394,6.233276,-26.06409,4.364471,0.7221392,0.3298675,0.1721634,1.174876,-0.2986096,-0.04014147,0.9289382,0.0486776,0.3833387,10.73119,29.27
4,-0.2553101,0.06297302,0.964798,1.0,-0.2563934,0.02508545,0.9662323,-32.74239,5.280212,-28.51352,4.554611,0.5739209,0.4026679,1.0,-0.2533569,0.1118927,0.9608765,27.47394,6.233276,-26.06409,4.364471,0.7221392,0.3298675,0.1721634,1.174876,-0.2986096,-0.04014147,0.9289382,0.0486776,0.3833387,10.73119,29.27
4,-0.2362518,0.03945923,0.9708862,1.0,-0.2360229,0.007232666,0.9717102,-32.64803,5.20108,-28.49547,4.435104,0.567225,0.407988,1.0,-0.2361908,0.08416748,0.9680481,27.58311,6.18486,-25.99899,4.415207,0.7147543,0.3359788,0.1707019,1.175348,-0.2997977,-0.0424157,0.932923,0.05209772,0.3833387,10.73119,29.27
4,-0.2362518,0.03945923,0.9708862,1.0,-0.2360229,0.007232666,0.9717102,-32.64803,5.20108,-28.49547,4.435104,0.567225,0.407988,1.0,-0.2361908,0.08416748,0.9680481,27.58311,6.18486,-25.99899,4.415207,0.7147543,0.3359788,0.1707019,1.175348,-0.2997977,-0.0424157,0.932923,0.05209772,0.3833387,10.73119,29.27
4,-0.218811,0.03514099,0.9751282,1.0,-0.2193146,0.007720947,0.9756165,-32.60966,5.149979,-28.48212,4.46257,0.5630705,0.4093902,1.0,-0.2175903,0.08085632,0.9726715,27.63106,6.171432,-25.96291,4.245682,0.7096256,0.3367056,0.1691453,1.175734,-0.3011047,-0.04519982,0.9374686,0.05469608,0.3833387,10.73119,29.27
4,-0.218811,0.03514099,0.9751282,1.0,-0.2193146,0.007720947,0.9756165,-32.60966,5.149979,-28.48212,4.46257,0.5630705,0.4093902,1.0,-0.2175903,0.08085632,0.9726715,27.63106,6.171432,-25.96291,4.245682,0.7096256,0.3367056,0.1691453,1.175734,-0.3011047,-0.04519982,0.9374686,0.05469608,0.3833387,10.73119,29.27
4,-0.1917419,0.000869751,0.9814301,1.0,-0.1950378,-0.01148987,0.9807281,-32.54463,5.102966,-28.44801,4.418594,0.5567089,0.4137315,1.0,-0.1759186,0.05883789,0.9826355,27.71667,6.080719,-25.64725,4.248886,0.6985006,0.3411424,0.1670316,1.175993,-0.3026987,-0.04973074,0.9425869,0.05676677,0.3833387,8.96698,29.27
4,-0.1917419,0.000869751,0.9814301,1.0,-0.1950378,-0.01148987,0.9807281,-32.54463,5.102966,-28.44801,4.418594,0.5567089,0.4137315,1.0,-0.1759186,0.05883789,0.9826355,27.71667,6.080719,-25.64725,4.248886,0.6985006,0.3411424,0.1670316,1.175993,-0.3026987,-0.04973074,0.9425869,0.05676677,0.3833387,8.96698,29.27
4,-0.1757813,-0.01849365,0.9842529,1.0,-0.1758118,-0.01858521,0.9842377,-32.46223,5.025269,-28.4194,4.406876,0.5506575,0.4171609,1.0,-0.1581726,0.05284119,0.9859924,27.79297,6.02034,-25.31567,4.249146,0.6919836,0.3418466,0.1644657,1.176215,-0.3046731,-0.05596148,0.9485421,0.05947894,0.3833387,8.96698,29.27
4,-0.1757813,-0.01849365,0.9842529,1.0,-0.1758118,-0.01858521,0.9842377,-32.46223,5.025269,-28.4194,4.406876,0.5506575,0.4171609,1.0,-0.1581726,0.05284119,0.9859924,27.79297,6.02034,-25.31567,4.249146,0.6919836,0.3418466,0.1644657,1.176215,-0.3046731,-0.05596148,0.9485421,0.05947894,0.3833387,8.96698,29.27
4,-0.155365,-0.01921082,0.9876556,1.0,-0.1553802,-0.01930237,0.9876556,-32.42979,5.00351,-28.36583,4.311829,0.546133,0.4173809,1.0,-0.1502838,0.05314636,0.9871979,27.81799,6.044601,-25.40323,4.272675,0.6899283,0.3416558,0.1615734,1.176573,-0.3068407,-0.06062509,0.954365,0.06356594,0.3833387,8.96698,29.27
4,-0.155365,-0.01921082,0.9876556,1.0,-0.1553802,-0.01930237,0.9876556,-32.42979,5.00351,-28.36583,4.311829,0.546133,0.4173809,1.0,-0.1502838,0.05314636,0.9871979,27.81799,6.044601,-25.40323,4.272675,0.6899283,0.3416558,0.1615734,1.176573,-0.3068407,-0.06062509,0.954365,0.06356594,0.3833387,8.96698,29.27
4,-0.155365,-0.01921082,0.9876556,1.0,-0.1553802,-0.01930237,0.9876556,-32.42979,5.00351,-28.36583,4.311829,0.546133,0.4173809,1.0,-0.1502838,0.05314636,0.9871979,27.81799,6.044601,-25.40323,4.272675,0.6899283,0.3416558,0.1585002,1.176863,-0.3088827,-0.06308969,0.959965,0.06738082,0.3833387,8.96698,29.27
4,-0.155365,-0.01921082,0.9876556,1.0,-0.1553802,-0.01930237,0.9876556,-32.42979,5.00351,-28.36583,4.311829,0.546133,0.4173809,1.0,-0.1502838,0.05314636,0.9871979,27.81799,6.044601,-25.40323,4.272675,0.6899283,0.3416558,0.1585002,1.176863,-0.3088827,-0.06308969,0.959965,0.06738082,0.3833387,8.96698,29.27
4,-0.155365,-0.01921082,0.9876556,1.0,-0.1553802,-0.01930237,0.9876556,-32.42979,5.00351,-28.36583,4.311829,0.546133,0.4173809,1.0,-0.1502838,0.05314636,0.9871979,27.81799,6.044601,-25.40323,4.272675,0.6899283,0.3416558,0.155429,1.176895,-0.3108771,-0.06355692,0.9653085,0.07017982,0.3833387,8.96698,29.27
4,-0.155365,-0.01921082,0.9876556,1.0,-0.1553802,-0.01930237,0.9876556,-32.42979,5.00351,-28.36583,4.311829,0.546133,0.4173809,1.0,-0.1502838,0.05314636,0.9871979,27.81799,6.044601,-25.40323,4.272675,0.6899283,0.3416558,0.155429,1.176895,-0.3108771,-0.06355692,0.9653085,0.07017982,0.3833387,8.96698,29.27
4,-0.06593323,-0.03271484,0.9972839,1.0,-0.06974792,-0.04119873,0.9967041,-31.70033,4.822144,-27.90564,4.365494,0.5071747,0.4228124,1.0,-0.04350281,0.01708984,0.9989014,28.56183,5.90799,-25.71533,4.171799,0.6464505,0.3550826,0.1524589,1.176816,-0.3126575,-0.06292248,0.9702736,0.07208993,0.3833387,8.96698,29.27
4,-0.06593323,-0.03271484,0.9972839,1.0,-0.06974792,-0.04119873,0.9967041,-31.70033,4.822144,-27.90564,4.365494,0.5071747,0.4228124,1.0,-0.04350281,0.01708984,0.9989014,28.56183,5.90799,-25.71533,4.171799,0.6464505,0.3550826,0.1524589,1.176816,-0.3126575,-0.06292248,0.9702736,0.07208993,0.3833387,8.96698,29.27
4,-0.09831238,-0.02697754,0.9947815,1.0,-0.103775,-0.03909302,0.9938202,-31.75873,5.052399,-28.45926,4.329941,0.5149729,0.41952,1.0,-0.07647705,0.02105713,0.9968414,28.37434,5.950104,-25.98679,4.149368,0.6589212,0.3549452,0.1495241,1.176517,-0.3143045,-0.06215202,0.9747336,0.07322235,0.3833387,8.96698,29.27
4,-0.09831238,-0.02697754,0.9947815,1.0,-0.103775,-0.03909302,0.9938202,-31.75873,5.052399,-28.45926,4.329941,0.5149729,0.41952,1.0,-0.07647705,0.02105713,0.9968414,28.37434,5.950104,-25.98679,4.149368,0.6589212,0.3549452,0.1495241,1.176517,-0.3143045,-0.06215202,0.9747336,0.07322235,0.3833387,8.96698,29.27
4,-0.2232361,0.0620575,0.9727783,1.0,-0.2288361,0.005569458,0.9734344,-32.3475,5.219772,-28.32837,4.368149,0.5557939,0.4061441,1.0,-0.2223969,0.06999207,0.9724274,27.46938,6.117157,-25.94475,4.173553,0.7158691,0.3403049,0.1481222,1.176288,-0.3151333,-0.06152041,0.9768364,0.07370692,0.3833387,8.96698,29.27
4,-0.2232361,0.0620575,0.9727783,1.0,-0.2288361,0.005569458,0.9734344,-32.3475,5.219772,-28.32837,4.368149,0.5557939,0.4061441,1.0,-0.2223969,0.06999207,0.9724274,27.46938,6.117157,-25.94475,4.173553,0.7158691,0.3403049,0.1481222,1.176288,-0.3151333,-0.06152041,0.9768364,0.07370692,0.3833387,8.96698,29.27
4,-0.2833557,0.08743286,0.9550171,1.0,-0.2640228,0.005310059,0.9644928,-32.53419,5.239227,-28.37326,4.354645,0.5680931,0.4062299,1.0,-0.2848816,0.09428406,0.9539032,27.26505,6.14978,-26.04358,4.269516,0.7348683,0.3356682,0.1454914,1.175799,-0.3165326,-0.05942154,0.9805737,0.074032,0.3833387,8.96698,29.27
4,-0.2833557,0.08743286,0.9550171,1.0,-0.2640228,0.005310059,0.9644928,-32.53419,5.239227,-28.37326,4.354645,0.5680931,0.4062299,1.0,-0.2848816,0.09428406,0.9539032,27.26505,6.14978,-26.04358,4.269516,0.7348683,0.3356682,0.1442245,1.175504,-0.3171914,-0.0580879,0.9822482,0.07393058,0.3833387,0.9965172,29.27
4,-0.2833557,0.08743286,0.9550171,1.0,-0.2640228,0.005310059,0.9644928,-32.53419,5.239227,-28.37326,4.354645,0.5680931,0.4062299,1.0,-0.2848816,0.09428406,0.9539032,27.26505,6.14978,-26.04358,4.269516,0.7348683,0.3356682,0.1442245,1.175504,-0.3171914,-0.0580879,0.9822482,0.07393058,0.3833387,0.9965172,29.27
4,-0.2833557,0.08743286,0.9550171,1.0,-0.2640228,0.005310059,0.9644928,-32.53419,5.239227,-28.37326,4.354645,0.5680931,0.4062299,1.0,-0.2848816,0.09428406,0.9539032,27.26505,6.14978,-26.04358,4.269516,0.7348683,0.3356682,0.1420512,1.174775,-0.3183421,-0.05569752,0.9851062,0.07326802,0.3833387,0.9965172,29.27
4,-0.2833557,0.08743286,0.9550171,1.0,-0.2640228,0.005310059,0.9644928,-32.53419,5.239227,-28.37326,4.354645,0.5680931,0.4062299,1.0,-0.2848816,0.09428406,0.9539032,27.26505,6.14978,-26.04358,4.269516,0.7348683,0.3356682,0.1411054,1.17435,-0.3188206,-0.05462343,0.98633,0.07286627,0.3833387,0.9965172,29.27
4,-0.2833557,0.08743286,0.9550171,1.0,-0.2640228,0.005310059,0.9644928,-32.53419,5.239227,-28.37326,4.354645,0.5680931,0.4062299,1.0,-0.2848816,0.09428406,0.9539032,27.26505,6.14978,-26.04358,4.269516,0.7348683,0.3356682,0.1411054,1.17435,-0.3188206,-0.05462343,0.98633,0.07286627,0.3833387,0.9965172,29.27
4,-0.2349854,0.06312561,0.9699402,1.0,-0.2406311,-0.001602173,0.9706116,-32.38689,5.152008,-28.3504,4.279648,0.5591359,0.4099002,1.0,-0.2340851,0.07240295,0.9695129,27.69221,6.033203,-25.87978,4.133362,0.7100427,0.3424088,0.1384016,1.173396,-0.3200636,-0.05178185,0.9893346,0.07182954,0.3833387,0.9965172,29.27
4,-0.2349854,0.06312561,0.9699402,1.0,-0.2406311,-0.001602173,0.9706116,-32.38689,5.152008,-28.3504,4.279648,0.5591359,0.4099002,1.0,-0.2340851,0.07240295,0.9695129,27.69221,6.033203,-25.87978,4.133362,0.7100427,0.3424088,0.1384016,1.173396,-0.3200636,-0.05178185,0.9893346,0.07182954,0.3833387,0.9965172,29.27
4,-0.1982727,-0.007919312,0.9801025,1.0,-0.1983948,-0.01123047,0.9800415,-32.15221,5.142319,-28.32147,4.252029,0.5440679,0.4112354,1.0,-0.1948242,0.06834412,0.9784393,28.01515,6.00618,-25.66716,3.973801,0.6913738,0.3425462,0.1378058,1.173047,-0.3204021,-0.05079094,0.9900884,0.07137409,0.3833387,0.9965172,29.27
4,-0.1755524,-0.003204346,0.9844513,1.0,-0.1757507,-0.005722046,0.9844055,-32.02077,5.190201,-28.55884,4.211014,0.5359871,0.4104868,1.0,-0.1702118,0.06318665,0.9833679,28.15651,5.989182,-25.62003,4.094391,0.6821545,0.3436071,0.137087,1.172463,-0.3209096,-0.05015278,0.9907413,0.07084949,0.3833387,0.9965172,29.27
4,-0.1601715,0.01028442,0.98703,1.0,-0.160675,-0.003646851,0.9869843,-31.88425,5.125916,-28.26909,4.204285,0.5287377,0.409753,1.0,-0.1577911,0.06632996,0.9852295,28.28526,6.003723,-25.61032,4.233734,0.6755927,0.3425868,0.1366624,1.172069,-0.3211899,-0.04922265,0.9913558,0.07019287,0.3833387,0.9965172,29.27
4,-0.1601715,0.01028442,0.98703,1.0,-0.160675,-0.003646851,0.9869843,-31.88425,5.125916,-28.26909,4.204285,0.5287377,0.409753,1.0,-0.1577911,0.06632996,0.9852295,28.28526,6.003723,-25.61032,4.233734,0.6755927,0.3425868,0.1366624,1.172069,-0.3211899,-0.04922265,0.9913558,0.07019287,0.3833387,0.9965172,29.27
4,-0.1491547,0.0422821,0.9878998,1.0,-0.1483459,-0.007919312,0.9888916,-31.83221,5.257874,-28.76279,4.18335,0.5251318,0.4100745,1.0,-0.1494446,0.06942749,0.9863281,28.35498,6.000793,-25.57951,4.167831,0.6716917,0.3419577,0.1360408,1.171271,-0.3215704,-0.04675054,0.9924244,0.06850462,0.3833387,0.9965172,29.27
4,-0.1194153,0.06474304,0.9907227,1.0,-0.1268616,-0.01657104,0.9917755,-31.75772,5.280396,-28.80182,4.18364,0.5190122,0.4110003,1.0,-0.1192169,0.06680298,0.9906158,28.47052,6.025375,-25.66245,4.029526,0.6626508,0.3421387,0.135872,1.170891,-0.3217602,-0.04546771,0.9928844,0.06766363,0.3833387,0.9965172,29.27
4,-0.1183472,0.04771423,0.9918213,1.0,-0.117569,-0.01733398,0.9929047,-31.64442,5.265289,-28.65791,4.217758,0.5135834,0.4103816,1.0,-0.1184235,0.05723572,0.9913025,28.629,6.183914,-26.1906,4.064026,0.6578568,0.3426251,0.1355712,1.170286,-0.3219521,-0.04295956,0.9936467,0.06607094,0.3833387,0.9965172,29.27
4,-0.1183472,0.04771423,0.9918213,1.0,-0.117569,-0.01733398,0.9929047,-31.64442,5.265289,-28.65791,4.217758,0.5135834,0.4103816,1.0,-0.1184235,0.05723572,0.9913025,28.629,6.183914,-26.1906,4.064026,0.6578568,0.3426251,0.1355712,1.170286,-0.3219521,-0.04295956,0.9936467,0.06607094,0.3833387,0.9965172,29.27
4,-0.09866333,-0.002838135,0.9951019,1.0,-0.09875488,-0.01278687,0.9950256,-31.59666,5.274826,-28.66238,4.174545,0.508851,0.4092052,1.0,-0.09767151,0.06752014,0.9929199,28.68683,6.131119,-25.90082,4.108444,0.6520402,0.3402244,0.1356801,1.169941,-0.3220617,-0.04208382,0.9939249,0.06526197,0.3833387,-13.82875,29.27
4,-0.09498596,-0.006881714,0.9954529,1.0,-0.09506226,-0.01409912,0.9953613,-31.57195,5.303421,-28.72499,4.121109,0.5074285,0.408952,1.0,-0.09420776,0.05688477,0.9939117,28.72603,6.145844,-25.90923,4.029648,0.6500224,0.3416837,0.1357722,1.169606,-0.3221209,-0.04095436,0.9942287,0.06443243,0.3833387,-13.82875,29.27
4,-0.09498596,-0.006881714,0.9954529,1.0,-0.09506226,-0.01409912,0.9953613,-31.57195,5.303421,-28.72499,4.121109,0.5074285,0.408952,1.0,-0.09420776,0.05688477,0.9939117,28.72603,6.145844,-25.90923,4.029648,0.6500224,0.3416837,0.1357722,1.169606,-0.3221209,-0.04095436,0.9942287,0.06443243,0.3833387,-13.82875,29.27
4,-0.07928467,0.06288147,0.9948578,1.0,-0.1097107,-0.004272461,0.9939423,-31.42361,4.892563,-27.34885,4.187927,0.5045247,0.4096433,1.0,-0.07783508,0.06604004,0.9947662,28.77364,6.152466,-25.8653,4.063461,0.6455902,0.3395453,0.1360173,1.169087,-0.3220761,-0.03915909,0.9946891,0.06300378,0.3833387,-13.82875,29.27
4,-0.07928467,0.06288147,0.9948578,1.0,-0.1097107,-0.004272461,0.9939423,-31.42361,4.892563,-27.34885,4.187927,0.5045247,0.4096433,1.0,-0.07783508,0.06604004,0.9947662,28.77364,6.152466,-25.8653,4.063461,0.6455902,0.3395453,0.1360173,1.169087,-0.3220761,-0.03915909,0.9946891,0.06300378,0.3833387,-13.82875,29.27
4,-0.07928467,0.06288147,0.9948578,1.0,-0.1097107,-0.004272461,0.9939423,-31.42361,4.892563,-27.34885,4.187927,0.5045247,0.4096433,1.0,-0.07783508,0.06604004,0.9947662,28.77364,6.152466,-25.8653,4.063461,0.6455902,0.3395453,0.136587,1.168734,-0.3219335,-0.03748712,0.9950455,0.06177469,0.3769328,-13.82875,29.27
4,-0.07928467,0.06288147,0.9948578,1.0,-0.1097107,-0.004272461,0.9939423,-31.42361,4.892563,-27.34885,4.187927,0.5045247,0.4096433,1.0,-0.07783508,0.06604004,0.9947662,28.77364,6.152466,-25.8653,4.063461,0.6455902,0.3395453,0.1369354,1.168531,-0.3218068,-0.03647309,0.9952175,0.06126982,0.3769328,-13.82875,29.27
4,-0.07928467,0.06288147,0.9948578,1.0,-0.1097107,-0.004272461,0.9939423,-31.42361,4.892563,-27.34885,4.187927,0.5045247,0.4096433,1.0,-0.07783508,0.06604004,0.9947662,28.77364,6.152466,-25.8653,4.063461,0.6455902,0.3395453,0.1377679,1.168217,-0.3214134,-0.03455388,0.9954383,0.06114468,0.3769328,-13.82875,29.27
4,-0.07928467,0.06288147,0.9948578,1.0,-0.1097107,-0.004272461,0.9939423,-31.42361,4.892563,-27.34885,4.187927,0.5045247,0.4096433,1.0,-0.07783508,0.06604004,0.9947662,28.77364,6.152466,-25.8653,4.063461,0.6455902,0.3395453,0.1377679,1.168217,-0.3214134,-0.03455388,0.9954383,0.06114468,0.3769328,-13.82875,29.27
4,-0.04821777,0.05860901,0.9971008,1.0,-0.07957458,0.01618958,0.9966888,-31.30017,4.885956,-27.13,3.945374,0.4954745,0.4042852,1.0,-0.04821777,0.05860901,0.9971008,28.92577,6.339752,-26.09506,3.957947,0.6356623,0.3362572,0.1382687,1.168142,-0.3211187,-0.03420627,0.9954971,0.06128562,0.3769328,-13.82875,29.27
4,-0.04063416,0.06544495,0.9970245,1.0,-0.07591248,0.005004883,0.9971008,-31.28552,4.908569,-27.1604,4.065231,0.4943497,0.4057078,1.0,-0.04063416,0.06544495,0.9970245,28.93446,6.385834,-26.19133,4.031387,0.6343053,0.3341796,0.1387739,1.168154,-0.3207903,-0.03361902,0.9955237,0.06194524,0.3769328,-13.82875,29.27
4,-0.03744507,0.06813049,0.9969635,1.0,-0.06983948,0.009735107,0.9974976,-31.27016,4.928909,-27.14705,4.004135,0.4928538,0.40407,1.0,-0.03744507,0.06813049,0.9969635,28.93546,6.378708,-26.12241,4.011917,0.6336471,0.3334167,0.1397688,1.168252,-0.3200428,-0.03315485,0.9955212,0.06353276,0.3769328,-13.82875,29.27
4,-0.03744507,0.06813049,0.9969635,1.0,-0.06983948,0.009735107,0.9974976,-31.27016,4.928909,-27.14705,4.004135,0.4928538,0.40407,1.0,-0.03744507,0.06813049,0.9969635,28.93546,6.378708,-26.12241,4.011917,0.6336471,0.3334167,0.1397688,1.168252,-0.3200428,-0.03315485,0.9955212,0.06353276,0.3769328,-13.82875,29.27
4,-0.05311584,0.03675842,0.9979095,1.0,-0.06997681,0.01098633,0.9974823,-31.2655,4.94368,-27.17253,3.955276,0.4927358,0.403554,1.0,-0.0355072,0.06356812,0.9973297,28.93701,6.37767,-26.01596,3.977264,0.6331016,0.3334167,0.1403098,1.168306,-0.3195934,-0.03323385,0.9955024,0.06437135,0.3769328,-13.82875,29.27
4,-0.05647278,0.02615356,0.9980469,1.0,-0.06733704,0.007476807,0.9976959,-31.26335,4.951462,-27.20975,3.939911,0.4922304,0.404171,1.0,-0.03398132,0.06462097,0.9973297,28.93811,6.378525,-25.94672,3.948792,0.6327093,0.3326801,0.141494,1.168555,-0.3184865,-0.03353825,0.9954054,0.0661987,0.3769328,-13.82875,29.27
4,-0.05647278,0.02615356,0.9980469,1.0,-0.06733704,0.007476807,0.9976959,-31.26335,4.951462,-27.20975,3.939911,0.4922304,0.404171,1.0,-0.03398132,0.06462097,0.9973297,28.93811,6.378525,-25.94672,3.948792,0.6327093,0.3326801,0.141494,1.168555,-0.3184865,-0.03353825,0.9954054,0.0661987,0.3769328,-13.82875,29.27
4,-0.06045532,0.01295471,0.9980774,1.0,-0.06625366,0.003219604,0.9977875,-31.26176,4.950958,-27.22932,3.904572,0.4920028,0.4050353,1.0,-0.03260803,0.05941772,0.9976959,28.93892,6.377487,-25.9231,3.908936,0.6323859,0.3334167,0.1420857,1.168791,-0.3178802,-0.03352625,0.9953519,0.06714699,0.3769328,-22.19499,29.27
4,-0.0554657,0.0184021,0.9982758,1.0,-0.06416321,0.002975464,0.9979248,-31.25989,4.946655,-27.2426,3.9039,0.4915937,0.4053191,1.0,-0.03294373,0.05819702,0.997757,28.94046,6.375885,-25.91841,3.869003,0.6323698,0.3336289,0.1427339,1.168956,-0.3172837,-0.03335335,0.9952902,0.06813831,0.3769328,-22.19499,29.27
4,-0.0554657,0.0184021,0.9982758,1.0,-0.06416321,0.002975464,0.9979248,-31.25989,4.946655,-27.2426,3.9039,0.4915937,0.4053191,1.0,-0.03294373,0.05819702,0.997757,28.94046,6.375885,-25.91841,3.869003,0.6323698,0.3336289,0.1427339,1.168956,-0.3172837,-0.03335335,0.9952902,0.06813831,0.3769328,-22.19499,29.27
4,-0.0466156,0.02885437,0.9984894,1.0,-0.05944824,0.001525879,0.9982147,-31.25589,4.936462,-27.34502,3.859787,0.4906934,0.4067104,1.0,-0.03279114,0.05815125,0.997757,28.94267,6.372726,-25.90869,3.840958,0.6322472,0.333659,0.1439465,1.169287,-0.31612,-0.03267839,0.9952214,0.06975441,0.3769328,-22.19499,29.27
4,-0.03266907,0.05490112,0.9979553,1.0,-0.04368591,0.0001373291,0.9990387,-31.30928,5.092529,-27.94458,3.721985,0.4899543,0.4066159,1.0,-0.03199768,0.05821228,0.9977875,28.94168,6.370285,-25.90039,3.827103,0.6321301,0.3336719,0.1439465,1.169287,-0.31612,-0.03267839,0.9952214,0.06975441,0.3769328,-22.19499,29.27
4,-0.0239563,0.05952454,0.9979248,1.0,-0.05960083,0.005096436,0.9981995,-31.29167,4.935593,-27.46581,3.712433,0.4919493,0.4070934,1.0,-0.02384949,0.05969238,0.9979248,28.94168,6.355911,-25.90039,3.82515,0.6307358,0.3339088,0.1450721,1.169405,-0.3148952,-0.03142048,0.9952908,0.07036345,0.3769328,-22.19499,29.27
4,-0.0239563,0.05952454,0.9979248,1.0,-0.05960083,0.005096436,0.9981995,-31.29167,4.935593,-27.46581,3.712433,0.4919493,0.4070934,1.0,-0.02384949,0.05969238,0.9979248,28.94168,6.355911,-25.90039,3.82515,0.6307358,0.3339088,0.1450721,1.169405,-0.3148952,-0.03142048,0.9952908,0.07036345,0.3769328,-22.19499,29.27
5,-0.0239563,0.05952454,0.9979248,1.0,-0.05960083,0.005096436,0.9981995,-31.29167,4.935593,-27.46581,3.712433,0.4919493,0.4070934,1.0,-0.02384949,0.05969238,0.9979248,28.94168,6.355911,-25.90039,3.82515,0.6307358,0.3339088,0.1460797,1.169241,-0.313547,-0.02983414,0.9955471,0.06947614,0.3769328,-22.19499,29.27
5,-0.0239563,0.05952454,0.9979248,1.0,-0.05960083,0.005096436,0.9981995,-31.29167,4.935593,-27.46581,3.712433,0.4919493,0.4070934,1.0,-0.02384949,0.05969238,0.9979248,28.94168,6.355911,-25.90039,3.82515,0.6307358,0.3339088,0.1468335,1.168801,-0.3122271,-0.02829636,0.9959026,0.06756843,0.3769328,-22.19499,29.27
5,-0.0239563,0.05952454,0.9979248,1.0,-0.05960083,0.005096436,0.9981995,-31.29167,4.935593,-27.46581,3.712433,0.4919493,0.4070934,1.0,-0.02384949,0.05969238,0.9979248,28.94168,6.355911,-25.90039,3.82515,0.6307358,0.3339088,0.1468335,1.168801,-0.3122271,-0.02829636,0.9959026,0.06756843,0.3769328,-22.19499,29.27
5,-0.0239563,0.05952454,0.9979248,1.0,-0.05960083,0.005096436,0.9981995,-31.29167,4.935593,-27.46581,3.712433,0.4919493,0.4070934,1.0,-0.02384949,0.05969238,0.9979248,28.94168,6.355911,-25.90039,3.82515,0.6307358,0.3339088,0.1472683,1.168094,-0.3108201,-0.02659705,0.9964553,0.06412341,0.3769328,-22.19499,29.27
5,-0.0239563,0.05952454,0.9979248,1.0,-0.05960083,0.005096436,0.9981995,-31.29167,4.935593,-27.46581,3.712433,0.4919493,0.4070934,1.0,-0.02384949,0.05969238,0.9979248,28.94168,6.355911,-25.90039,3.82515,0.6307358,0.3339088,0.1472683,1.168094,-0.3108201,-0.02659705,0.9964553,0.06412341,0.3769328,-22.19499,29.27
5,-0.004058838,0.04519653,0.9989624,1.0,-0.03921509,-0.003921509,0.9992218,-31.41707,4.95871,-27.96663,3.588882,0.4928007,0.4119085,1.0,-0.003997803,0.04527283,0.9989624,28.80643,6.177429,-25.763,3.655548,0.6316056,0.3412875,0.1473622,1.167212,-0.3093381,-0.02500982,0.9971002,0.05953028,0.3769328,-22.19499,29.27
5,-0.004058838,0.04519653,0.9989624,1.0,-0.03921509,-0.003921509,0.9992218,-31.41707,4.95871,-27.96663,3.588882,0.4928007,0.4119085,1.0,-0.003997803,0.04527283,0.9989624,28.80643,6.177429,-25.763,3.655548,0.6316056,0.3412875,0.1473622,1.167212,-0.3093381,-0.02500982,0.9971002,0.05953028,0.3769328,-22.19499,29.27
5,-0.006286621,0.04248047,0.9990692,1.0,-0.03773499,-0.005722046,0.9992676,-31.42984,5.008789,-28.17892,3.630524,0.4930086,0.4123451,1.0,-0.006271362,0.04251099,0.9990692,28.79401,6.198669,-25.81386,3.589981,0.6324367,0.3414459,0.1472765,1.166214,-0.3077075,-0.0233834,0.9977093,0.05502948,0.3769328,-22.19499,29.27
5,-0.006286621,0.04248047,0.9990692,1.0,-0.03773499,-0.005722046,0.9992676,-31.42984,5.008789,-28.17892,3.630524,0.4930086,0.4123451,1.0,-0.006271362,0.04251099,0.9990692,28.79401,6.198669,-25.81386,3.589981,0.6324367,0.3414459,0.1472765,1.166214,-0.3077075,-0.0233834,0.9977093,0.05502948,0.3769328,-22.19499,29.27
5,-0.006286621,0.04248047,0.9990692,1.0,-0.03773499,-0.005722046,0.9992676,-31.42984,5.008789,-28.17892,3.630524,0.4930086,0.4123451,1.0,-0.006271362,0.04251099,0.9990692,28.79401,6.198669,-25.81386,3.589981,0.6324367,0.3414459,0.1468585,1.165409,-0.3059409,-0.02110405,0.9982272,0.05127026,0.3769328,-1.292065,29.27
5,-0.006286621,0.04248047,0.9990692,1.0,-0.03773499,-0.005722046,0.9992676,-31.42984,5.008789,-28.17892,3.630524,0.4930086,0.4123451,1.0,-0.006271362,0.04251099,0.9990692,28.79401,6.198669,-25.81386,3.589981,0.6324367,0.3414459,0.1468585,1.165409,-0.3059409,-0.02110405,0.9982272,0.05127026,0.3769328,-1.292065,29.27
5,-0.03231812,0.02609253,0.9991302,1.0,-0.04603577,-0.02999878,0.9984741,-31.57941,5.048538,-28.58882,3.657745,0.4994532,0.4186658,1.0,-0.03231812,0.02610779,0.9991302,28.62637,6.200592,-26.05067,3.666641,0.642849,0.3460381,0.146246,1.164774,-0.3038636,-0.01765172,0.9986427,0.04794427,0.3769328,-1.292065,29.27
5,-0.03231812,0.02609253,0.9991302,1.0,-0.04603577,-0.02999878,0.9984741,-31.57941,5.048538,-28.58882,3.657745,0.4994532,0.4186658,1.0,-0.03231812,0.02610779,0.9991302,28.62637,6.200592,-26.05067,3.666641,0.642849,0.3460381,0.146246,1.164774,-0.3038636,-0.01765172,0.9986427,0.04794427,0.3769328,-1.292065,29.27
5,-0.358902,-0.0776062,0.93013,1.0,-0.3498993,-0.1230164,0.9286652,-33.11963,4.667603,-28.20619,3.476685,0.6025125,0.4469791,1.0,-0.3590851,-0.07662964,0.9301453,26.72824,6.020355,-26.274,3.445541,0.7667534,0.3720644,0.1451516,1.163853,-0.3015606,0.01377827,-0.9989183,-0.04431304,0.3769328,-1.292065,29.27
5,-0.358902,-0.0776062,0.93013,1.0,-0.3498993,-0.1230164,0.9286652,-33.11963,4.667603,-28.20619,3.476685,0.6025125,0.4469791,1.0,-0.3590851,-0.07662964,0.9301453,26.72824,6.020355,-26.274,3.445541,0.7667534,0.3720644,0.1451516,1.163853,-0.3015606,0.01377827,-0.9989183,-0.04431304,0.3769328,-1.292065,29.27
5,-0.3695526,-0.1088104,0.9228058,1.0,-0.3710327,-0.1124573,0.9217682,-33.25011,4.64534,-28.27875,3.610992,0.6106103,0.4468655,1.0,-0.3551483,-0.07389832,0.9318695,26.73843,5.986694,-26.27129,3.448502,0.7656729,0.3726506,0.1438724,1.162696,-0.2987907,0.009977708,-0.9990112,-0.03979062,0.3769328,-1.292065,29.27
5,-0.3695526,-0.1088104,0.9228058,1.0,-0.3710327,-0.1124573,0.9217682,-33.25011,4.64534,-28.27875,3.610992,0.6106103,0.4468655,1.0,-0.3551483,-0.07389832,0.9318695,26.73843,5.986694,-26.27129,3.448502,0.7656729,0.3726506,0.1438724,1.162696,-0.2987907,0.009977708,-0.9990112,-0.03979062,0.3769328,-1.292065,29.27
5,-0.34198,-0.09236145,0.9351501,1.0,-0.3400116,-0.1124878,0.9336548,-33.20311,4.618118,-28.23869,3.496399,0.603654,0.4469188,1.0,-0.345459,-0.05276489,0.9369354,26.84962,5.964264,-26.24893,3.513428,0.7599317,0.3694946,0.142433,1.161373,-0.2957957,0.007031505,-0.9988745,-0.03462195,0.3769328,-1.292065,29.27
5,-0.34198,-0.09236145,0.9351501,1.0,-0.3400116,-0.1124878,0.9336548,-33.20311,4.618118,-28.23869,3.496399,0.603654,0.4469188,1.0,-0.345459,-0.05276489,0.9369354,26.84962,5.964264,-26.24893,3.513428,0.7599317,0.3694946,0.142433,1.161373,-0.2957957,0.007031505,-0.9988745,-0.03462195,0.3769328,-1.292065,29.27
5,-0.3139038,-0.08930969,0.9452362,1.0,-0.3195953,-0.09945679,0.9423065,-33.10022,4.604538,-28.19922,3.554367,0.5965995,0.4444696,1.0,-0.3048553,-0.07327271,0.9495697,27.04695,6.017792,-26.15302,3.312302,0.7451149,0.3704064,0.1408744,1.160166,-0.2925557,0.00472461,-0.9984778,-0.03020691,0.3769328,-1.292065,29.27
5,-0.3139038,-0.08930969,0.9452362,1.0,-0.3195953,-0.09945679,0.9423065,-33.10022,4.604538,-28.19922,3.554367,0.5965995,0.4444696,1.0,-0.3048553,-0.07327271,0.9495697,27.04695,6.017792,-26.15302,3.312302,0.7451149,0.3704064,0.1408744,1.160166,-0.2925557,0.00472461,-0.9984778,-0.03020691,0.3769328,-1.292065,29.27
5,-0.2790527,-0.08639526,0.9563751,1.0,-0.2765503,-0.1096649,0.9547119,-32.94939,4.661148,-28.11354,3.336456,0.5841508,0.4429979,1.0,-0.2824249,-0.05236816,0.9578552,27.25323,6.09642,-26.09099,3.531525,0.7337619,0.3635022,0.1395521,1.159188,-0.2890319,0.002447502,-0.9978997,-0.02661581,0.3769328,-1.292065,29.27
5,-0.2790527,-0.08639526,0.9563751,1.0,-0.2765503,-0.1096649,0.9547119,-32.94939,4.661148,-28.11354,3.336456,0.5841508,0.4429979,1.0,-0.2824249,-0.05236816,0.9578552,27.25323,6.09642,-26.09099,3.531525,0.7337619,0.3635022,0.1395521,1.159188,-0.2890319,0.002447502,-0.9978997,-0.02661581,0.3769328,-1.292065,29.27
5,-0.2600708,-0.08143616,0.9621429,1.0,-0.2634888,-0.09217834,0.9602356,-32.80679,4.725388,-28.07425,3.490906,0.5770463,0.4373466,1.0,-0.2547302,-0.06489563,0.9648285,27.44536,6.149979,-26.03331,3.29454,0.7219064,0.3634,0.1383834,1.158453,-0.2853639,-0.0002441407,-0.9972149,-0.02371308,0.3769328,-1.292065,29.27
5,-0.2600708,-0.08143616,0.9621429,1.0,-0.2634888,-0.09217834,0.9602356,-32.80679,4.725388,-28.07425,3.490906,0.5770463,0.4373466,1.0,-0.2547302,-0.06489563,0.9648285,27.44536,6.149979,-26.03331,3.29454,0.7219064,0.3634,0.1383834,1.158453,-0.2853639,-0.0002441407,-0.9972149,-0.02371308,0.3769328,-1.292065,29.27
5,-0.2407379,-0.07139587,0.9679565,1.0,-0.2443085,-0.08802795,0.965683,-32.59453,4.813782,-28.02092,3.608002,0.5665666,0.4330315,1.0,-0.2356567,-0.04829407,0.9706268,27.62251,6.212219,-25.99394,3.579422,0.7123473,0.3580554,0.1376511,1.158117,-0.2815422,-0.003579804,-0.9964843,-0.0219197,0.3769328,15.41446,29.27
5,-0.2407379,-0.07139587,0.9679565,1.0,-0.2443085,-0.08802795,0.965683,-32.59453,4.813782,-28.02092,3.608002,0.5665666,0.4330315,1.0,-0.2356567,-0.04829407,0.9706268,27.62251,6.212219,-25.99394,3.579422,0.7123473,0.3580554,0.1376511,1.158117,-0.2815422,-0.003579804,-0.9964843,-0.0219197,0.3769328,15.41446,29.27
5,-0.2007751,-0.0743866,0.9768066,1.0,-0.2143555,-0.0969696,0.9719238,-32.46692,4.886215,-27.97301,3.4039,0.5572625,0.4313896,1.0,-0.183609,-0.04608154,0.9819031,27.67561,6.264999,-25.88002,3.52121,0.7011774,0.3547291,0.1373365,1.158402,-0.2774947,-0.008536198,-0.995842,-0.02139611,0.3769328,15.41446,29.27
5,-0.2007751,-0.0743866,0.9768066,1.0,-0.2143555,-0.0969696,0.9719238,-32.46692,4.886215,-27.97301,3.4039,0.5572625,0.4313896,1.0,-0.183609,-0.04608154,0.9819031,27.67561,6.264999,-25.88002,3.52121,0.7011774,0.3547291,0.1373365,1.158402,-0.2774947,-0.008536198,-0.995842,-0.02139611,0.3769328,15.41446,29.27
5,-0.1927795,-0.07455444,0.9783936,1.0,-0.1937866,-0.08399963,0.9774323,-32.28261,4.978699,-27.92746,3.543198,0.54756,0.4255233,1.0,-0.1894226,-0.04428101,0.9808807,27.95026,6.312668,-25.77748,3.488022,0.6925209,0.3522196,0.1373935,1.159447,-0.2731385,-0.01306552,-0.995349,-0.02345403,0.3769328,15.41446,29.27
5,-0.1927795,-0.07455444,0.9783936,1.0,-0.1937866,-0.08399963,0.9774323,-32.28261,4.978699,-27.92746,3.543198,0.54756,0.4255233,1.0,-0.1894226,-0.04428101,0.9808807,27.95026,6.312668,-25.77748,3.488022,0.6925209,0.3522196,0.1373935,1.159447,-0.2731385,-0.01306552,-0.995349,-0.02345403,0.3769328,15.41446,29.27
5,-0.1660004,-0.07702637,0.9831085,1.0,-0.1706848,-0.08439636,0.9816895,-32.14888,5.035477,-27.96535,3.49231,0.5392361,0.4238,1.0,-0.1475525,-0.048172,0.9878693,28.09064,6.418549,-25.92719,3.393646,0.6806732,0.3504024,0.1376842,1.161203,-0.2686092,-0.01610588,-0.9949306,-0.02752462,0.3769328,15.41446,29.27
5,-0.1660004,-0.07702637,0.9831085,1.0,-0.1706848,-0.08439636,0.9816895,-32.14888,5.035477,-27.96535,3.49231,0.5392361,0.4238,1.0,-0.1475525,-0.048172,0.9878693,28.09064,6.418549,-25.92719,3.393646,0.6806732,0.3504024,0.1376842,1.161203,-0.2686092,-0.01610588,-0.9949306,-0.02752462,0.3769328,15.41446,29.27
5,-0.1630707,-0.07824707,0.98349,1.0,-0.1708679,-0.0852356,0.9815979,-32.11963,5.04454,-27.98108,3.512039,0.5382872,0.423779,1.0,-0.1378021,-0.05561829,0.9888916,28.1185,6.4086,-25.8165,3.430328,0.6778673,0.3510935,0.1381646,1.163365,-0.2640796,-0.01789111,-0.9946221,-0.03298633,0.3769328,15.41446,29.27
5,-0.1630707,-0.07824707,0.98349,1.0,-0.1708679,-0.0852356,0.9815979,-32.11963,5.04454,-27.98108,3.512039,0.5382872,0.423779,1.0,-0.1378021,-0.05561829,0.9888916,28.1185,6.4086,-25.8165,3.430328,0.6778673,0.3510935,0.1381646,1.163365,-0.2640796,-0.01789111,-0.9946221,-0.03298633,0.3769328,15.41446,29.27
5,-0.1630707,-0.07824707,0.98349,1.0,-0.1708679,-0.0852356,0.9815979,-32.11963,5.04454,-27.98108,3.512039,0.5382872,0.423779,1.0,-0.1378021,-0.05561829,0.9888916,28.1185,6.4086,-25.8165,3.430328,0.6778673,0.3510935,0.138558,1.165692,-0.259411,-0.01760523,-0.9943421,-0.03953873,0.3769328,15.41446,29.27
5,-0.1630707,-0.07824707,0.98349,1.0,-0.1708679,-0.0852356,0.9815979,-32.11963,5.04454,-27.98108,3.512039,0.5382872,0.423779,1.0,-0.1378021,-0.05561829,0.9888916,28.1185,6.4086,-25.8165,3.430328,0.6778673,0.3510935,0.138558,1.165692,-0.259411,-0.01760523,-0.9943421,-0.03953873,0.3769328,15.41446,29.27
5,-0.1559143,-0.06993103,0.9852753,1.0,-0.1656952,-0.08360291,0.9826202,-32.09541,5.045273,-28.00665,3.469177,0.5366369,0.4236311,1.0,-0.1329956,-0.0381012,0.9903717,28.13771,6.414063,-25.79799,3.477127,0.6764004,0.3477293,0.1389512,1.167723,-0.2546759,-0.01692777,-0.9939647,-0.046201,0.3769328,15.41446,29.27
5,-0.1559143,-0.06993103,0.9852753,1.0,-0.1656952,-0.08360291,0.9826202,-32.09541,5.045273,-28.00665,3.469177,0.5366369,0.4236311,1.0,-0.1329956,-0.0381012,0.9903717,28.13771,6.414063,-25.79799,3.477127,0.6764004,0.3477293,0.1389512,1.167723,-0.2546759,-0.01692777,-0.9939647,-0.046201,0.3769328,15.41446,29.27
5,-0.2041473,-0.02754211,0.9785461,1.0,-0.2073517,-0.03866577,0.9774933,-32.35106,5.132721,-27.96107,3.461243,0.5523233,0.412955,1.0,-0.1949463,0.003982544,0.9807892,27.67291,6.605179,-25.9238,3.493027,0.7039471,0.3345262,0.1392893,1.169664,-0.2498603,-0.016675,-0.9934243,-0.05339847,0.3769328,15.56857,29.27
5,-0.2041473,-0.02754211,0.9785461,1.0,-0.2073517,-0.03866577,0.9774933,-32.35106,5.132721,-27.96107,3.461243,0.5523233,0.412955,1.0,-0.1949463,0.003982544,0.9807892,27.67291,6.605179,-25.9238,3.493027,0.7039471,0.3345262,0.1392893,1.169664,-0.2498603,-0.016675,-0.9934243,-0.05339847,0.3769328,15.56857,29.27
5,-0.2702026,0.04707336,0.9616394,1.0,-0.2679749,0.037323,0.9626923,-32.7377,5.569351,-28.03032,3.623215,0.575956,0.3865009,1.0,-0.2816467,0.09899902,0.9543915,27.15433,6.952164,-26.05423,3.496643,0.7395025,0.3060765,0.1394895,1.170615,-0.2474632,-0.01692116,-0.9931011,-0.05700082,0.3769328,15.56857,29.27
5,-0.2810974,0.06243896,0.9576416,1.0,-0.2796631,0.05503845,0.9585114,-32.82474,5.551437,-28.06224,3.684723,0.580966,0.3844821,1.0,-0.2917938,0.119812,0.9489441,27.1089,6.926865,-26.09221,3.51709,0.7433664,0.3034277,0.1396526,1.172172,-0.2425684,-0.01752719,-0.9924595,-0.06324373,0.3769328,15.56857,29.27
5,-0.2810974,0.06243896,0.9576416,1.0,-0.2796631,0.05503845,0.9585114,-32.82474,5.551437,-28.06224,3.684723,0.580966,0.3844821,1.0,-0.2917938,0.119812,0.9489441,27.1089,6.926865,-26.09221,3.51709,0.7433664,0.3034277,0.1396526,1.172172,-0.2425684,-0.01752719,-0.9924595,-0.06324373,0.3769328,15.56857,29.27
5,-0.2801819,0.0697937,0.9573975,1.0,-0.2781525,0.03865051,0.9597473,-32.84937,5.38118,-28.07401,3.540787,0.5815077,0.3930301,1.0,-0.2836151,0.1365356,0.9491577,27.19742,6.715286,-26.09152,3.694901,0.7385265,0.3081581,0.1398089,1.172725,-0.240175,-0.01777329,-0.9921618,-0.06582058,0.3769328,15.56857,29.27
5,-0.2740021,0.06278992,0.959671,1.0,-0.27565,0.0244751,0.9609375,-32.845,5.286209,-28.07877,3.591522,0.580824,0.3986857,1.0,-0.2714996,0.1086578,0.9562683,27.15057,6.62561,-26.06686,3.609894,0.7374287,0.3160392,0.1401063,1.173616,-0.235473,-0.01843545,-0.9915829,-0.0708214,0.3769328,15.56857,29.27
5,-0.2740021,0.06278992,0.959671,1.0,-0.27565,0.0244751,0.9609375,-32.845,5.286209,-28.07877,3.591522,0.580824,0.3986857,1.0,-0.2714996,0.1086578,0.9562683,27.15057,6.62561,-26.06686,3.609894,0.7374287,0.3160392,0.1401063,1.173616,-0.235473,-0.01843545,-0.9915829,-0.0708214,0.3769328,15.56857,29.27
5,-0.2639465,0.05285645,0.9630737,1.0,-0.2680511,0.01841736,0.9632263,-32.84206,5.214798,-28.08141,3.533783,0.5794101,0.4020395,1.0,-0.2593842,0.08834839,0.9617157,27.21388,6.546082,-26.04141,3.447342,0.7325532,0.3222841,0.1404375,1.174063,-0.2332091,-0.01872099,-0.9913103,-0.07342547,0.3769328,15.56857,29.27
5,-0.2591553,0.04277039,0.9648743,1.0,-0.2663727,0.01097107,0.9638062,-32.81801,5.208679,-28.07594,3.547638,0.5782712,0.4034601,1.0,-0.2497406,0.0824585,0.9647827,27.2849,6.535782,-26.01564,3.506821,0.7281315,0.3235804,0.1406957,1.174482,-0.2310517,-0.01894058,-0.991047,-0.07623982,0.3769328,15.56857,29.27
5,-0.2610931,0.02865601,0.9648743,1.0,-0.2640381,0.002883911,0.9644928,-32.78745,5.189392,-28.06462,3.496307,0.5768296,0.4053543,1.0,-0.256485,0.0660553,0.9642792,27.35432,6.525375,-25.99922,3.596085,0.7266826,0.3268752,0.1415654,1.175219,-0.227062,-0.01926082,-0.9906214,-0.08189144,0.3769328,15.56857,29.27
5,-0.2610931,0.02865601,0.9648743,1.0,-0.2640381,0.002883911,0.9644928,-32.78745,5.189392,-28.06462,3.496307,0.5768296,0.4053543,1.0,-0.256485,0.0660553,0.9642792,27.35432,6.525375,-25.99922,3.596085,0.7266826,0.3268752,0.1415654,1.175219,-0.227062,-0.01926082,-0.9906214,-0.08189144,0.3769328,15.56857,29.27
5,-0.2611389,0.02217102,0.9650421,1.0,-0.2645111,-0.001983643,0.9643707,-32.77339,5.180527,-28.06026,3.45018,0.5764413,0.4064351,1.0,-0.2560272,0.05677795,0.9649963,27.3819,6.514709,-25.98509,3.430374,0.7255067,0.3287731,0.142073,1.175508,-0.2251641,-0.01938921,-0.990458,-0.0847014,0.3769328,15.56857,29.27
5,-0.2616577,0.01872253,0.9649658,1.0,-0.2653046,-0.01116943,0.9640961,-32.7486,5.142532,-28.05548,3.511841,0.5756673,0.409277,1.0,-0.2567139,0.05644226,0.9648285,27.43062,6.45784,-25.97952,3.427002,0.7238241,0.3308455,0.1426922,1.175773,-0.2233469,-0.01935498,-0.9903564,-0.08733975,0.3769328,15.56857,29.27
5,-0.2554932,0.01585388,0.9666748,1.0,-0.2636414,-0.01200867,0.9645386,-32.73459,5.09668,-28.06372,3.482422,0.5749245,0.4110004,1.0,-0.2458801,0.04777527,0.9681091,27.45192,6.416031,-25.96194,3.468262,0.7209557,0.3336822,0.1432127,1.176018,-0.2216248,-0.01934535,-0.9903139,-0.08978511,0.3769328,2.042625,29.27
5,-0.2554932,0.01585388,0.9666748,1.0,-0.2636414,-0.01200867,0.9645386,-32.73459,5.09668,-28.06372,3.482422,0.5749245,0.4110004,1.0,-0.2458801,0.04777527,0.9681091,27.45192,6.416031,-25.96194,3.468262,0.7209557,0.3336822,0.1432127,1.176018,-0.2216248,-0.01934535,-0.9903139,-0.08978511,0.3769328,2.042625,29.27
5,-0.2553253,0.00340271,0.9668427,1.0,-0.2636871,-0.02534485,0.9642639,-32.72899,5.08017,-28.06808,3.395065,0.5747492,0.4138519,1.0,-0.2460327,0.03440857,0.9686432,27.45941,6.394119,-25.96643,3.43103,0.7205974,0.3368462,0.1446828,1.176427,-0.2184113,-0.01920388,-0.9903269,-0.09472381,0.3769328,2.042625,29.27
5,-0.2520599,0.00453186,0.9676971,1.0,-0.256897,-0.02366638,0.9661407,-32.74487,5.06488,-28.064,3.488235,0.5740656,0.4140026,1.0,-0.2466583,0.03465271,0.9684753,27.45955,6.393539,-25.966,3.435867,0.7206995,0.3368282,0.145439,1.176734,-0.2169008,-0.01923101,-0.9903586,-0.09716605,0.3769328,2.042625,29.27
5,-0.2576141,0.001190186,0.9662323,1.0,-0.270874,-0.02766418,0.962204,-32.73645,5.070358,-28.07578,3.443817,0.5762042,0.41474,1.0,-0.2428741,0.03263855,0.9694977,27.45988,6.386734,-25.966,3.436157,0.7199823,0.3374048,0.1462375,1.177016,-0.2155591,-0.01921706,-0.9904489,-0.09938016,0.3769328,2.042625,29.27
5,-0.2653198,-0.01818848,0.963974,1.0,-0.2749176,-0.04211426,0.9605408,-32.76805,5.022781,-28.07507,3.277679,0.5780046,0.4187945,1.0,-0.2545776,0.008041382,0.9670105,27.43967,6.32196,-25.96561,3.246613,0.7225631,0.3440004,0.1478075,1.177449,-0.2129561,-0.01925463,-0.9906971,-0.1030785,0.3769328,2.042625,29.27
5,-0.2653198,-0.01818848,0.963974,1.0,-0.2749176,-0.04211426,0.9605408,-32.76805,5.022781,-28.07507,3.277679,0.5780046,0.4187945,1.0,-0.2545776,0.008041382,0.9670105,27.43967,6.32196,-25.96561,3.246613,0.7225631,0.3440004,0.1478075,1.177449,-0.2129561,-0.01925463,-0.9906971,-0.1030785,0.3769328,2.042625,29.27
5,-0.2678986,-0.01271057,0.9633484,1.0,-0.2732697,-0.03369141,0.9613342,-32.83109,4.968704,-28.10713,3.376648,0.5798236,0.4194434,1.0,-0.2618713,0.01025391,0.9650421,27.38963,6.2845,-25.98347,3.310883,0.7256451,0.3450435,0.1485943,1.177654,-0.2117508,-0.01907229,-0.9908392,-0.1046087,0.3769328,2.042625,29.27
5,-0.271759,-0.0234375,0.9620667,1.0,-0.276825,-0.05238342,0.9594879,-32.87526,4.934433,-28.11554,3.33876,0.5818884,0.4239193,1.0,-0.2661133,0.007263184,0.9638977,27.35677,6.265671,-25.99216,3.365738,0.7275366,0.3463072,0.1491587,1.177583,-0.2107506,-0.01894294,-0.991028,-0.1056498,0.3769328,2.042625,29.27
5,-0.2867584,-0.02545166,0.9576569,1.0,-0.2829285,-0.04446411,0.9580994,-32.9288,4.900986,-28.12955,3.407547,0.5847296,0.4238848,1.0,-0.2909851,-0.003738403,0.9567108,27.29225,6.244431,-26.01395,3.279404,0.7342871,0.3492293,0.1507062,1.177804,-0.2084915,-0.01901556,-0.9914492,-0.1071502,0.3769328,2.042625,29.27
5,-0.2867584,-0.02545166,0.9576569,1.0,-0.2829285,-0.04446411,0.9580994,-32.9288,4.900986,-28.12955,3.407547,0.5847296,0.4238848,1.0,-0.2909851,-0.003738403,0.9567108,27.29225,6.244431,-26.01395,3.279404,0.7342871,0.3492293,0.1507062,1.177804,-0.2084915,-0.01901556,-0.9914492,-0.1071502,0.3769328,2.042625,29.27
5,-0.2923126,-0.03317261,0.9557343,1.0,-0.2879028,-0.05004883,0.9563446,-33.00328,4.892761,-28.14648,3.251068,0.5881845,0.4252668,1.0,-0.2976379,-0.01226807,0.9545898,27.19606,6.235596,-26.02689,3.306717,0.738852,0.3511012,0.1515074,1.177974,-0.2074744,-0.01924612,-0.9916729,-0.1076893,0.3769328,2.042625,29.27
5,-0.2970276,-0.03622437,0.9541779,1.0,-0.2924957,-0.05596924,0.9546204,-33.04933,4.886002,-28.15645,3.325729,0.590471,0.4266862,1.0,-0.302597,-0.01113892,0.9530487,27.12791,6.218994,-26.04172,3.284943,0.7422029,0.3515518,0.1523136,1.178047,-0.2064877,-0.0192031,-0.9918786,-0.1082914,0.3769328,2.042625,29.27
5,-0.3046112,-0.04072571,0.9515991,1.0,-0.3091125,-0.06121826,0.9490509,-33.08647,4.88472,-28.1732,3.381866,0.5945614,0.4280163,1.0,-0.2992249,-0.016922,0.9540253,27.09244,6.212097,-26.04054,3.188461,0.7428073,0.3527395,0.1530384,1.178118,-0.2056124,-0.01895356,-0.9920467,-0.1090257,0.3769328,2.042625,29.27
5,-0.324173,-0.04164124,0.9450684,1.0,-0.3232727,-0.06797791,0.9438477,-33.17859,4.86795,-28.20303,3.356812,0.6001461,0.4301879,1.0,-0.3247986,-0.0168457,0.9456177,27.01138,6.210342,-26.07567,3.179596,0.750484,0.3531591,0.1538163,1.178159,-0.2048151,-0.01866079,-0.9922158,-0.1096365,0.3769328,2.042625,29.27
5,-0.332489,-0.03166199,0.9425659,1.0,-0.3253784,-0.0630188,0.9434662,-33.20248,4.86557,-28.21352,3.39212,0.6013229,0.4295325,1.0,-0.3387604,-0.002563477,0.9408569,26.99261,6.207657,-26.09993,3.24086,0.7539172,0.3509732,0.1553109,1.178267,-0.203405,-0.01771492,-0.9925693,-0.110603,0.3769328,2.042625,29.27
5,-0.332489,-0.03166199,0.9425659,1.0,-0.3253784,-0.0630188,0.9434662,-33.20248,4.86557,-28.21352,3.39212,0.6013229,0.4295325,1.0,-0.3387604,-0.002563477,0.9408569,26.99261,6.207657,-26.09993,3.24086,0.7539172,0.3509732,0.1553109,1.178267,-0.203405,-0.01771492,-0.9925693,-0.110603,0.3769328,2.042625,29.27
5,-0.3439789,-0.04438782,0.937912,1.0,-0.3314362,-0.07493591,0.9404907,-33.22887,4.849274,-28.22353,3.25058,0.6033311,0.4322788,1.0,-0.3587494,-0.007110596,0.9333954,26.95987,6.16893,-26.13263,3.298859,0.7588198,0.3535087,0.1562732,1.178255,-0.2027315,-0.0170881,-0.9927852,-0.1107526,0.3769328,-2.758049,29.27
5,-0.3491516,-0.05126953,0.9356537,1.0,-0.3400726,-0.0771637,0.9372253,-33.24341,4.840469,-28.23885,3.382751,0.6052436,0.4332574,1.0,-0.3610992,-0.01589966,0.932373,26.92697,6.138855,-26.14583,3.250275,0.7603745,0.3562118,0.1572882,1.178214,-0.2022013,-0.01646728,-0.9931006,-0.1101135,0.3769328,-2.758049,29.27
5,-0.3631439,-0.04678345,0.930542,1.0,-0.3615265,-0.06915283,0.9297791,-33.22379,4.844635,-28.2614,3.291885,0.6084488,0.4322042,1.0,-0.365097,-0.01573181,0.9308319,26.91261,6.096939,-26.15771,3.167816,0.7616474,0.3577521,0.1572882,1.178214,-0.2022013,-0.01646728,-0.9931006,-0.1101135,0.3769328,-2.758049,29.27
5,-0.3631439,-0.04678345,0.930542,1.0,-0.3615265,-0.06915283,0.9297791,-33.22379,4.844635,-28.2614,3.291885,0.6084488,0.4322042,1.0,-0.365097,-0.01573181,0.9308319,26.91261,6.096939,-26.15771,3.167816,0.7616474,0.3577521,0.1572882,1.178214,-0.2022013,-0.01646728,-0.9931006,-0.1101135,0.3769328,-2.758049,29.27
