Second,eye_comb_direction_x,eye_comb_direction_y,eye_comb_direction_z,eye_r_openness,eye_r_direction_x,eye_r_direction_y,eye_r_direction_z,eye_r_origin_x,eye_r_origin_y,eye_r_origin_z,eye_r_pupil_diameter,eye_r_pupil_position_x,eye_r_pupil_position_y,eye_l_openness,eye_l_direction_x,eye_l_direction_y,eye_l_direction_z,eye_l_origin_x,eye_l_origin_y,eye_l_origin_z,eye_l_pupil_diameter,eye_l_pupil_position_x,eye_l_pupil_position_y,head_position_x,head_position_y,head_position_z,head_rotation_roll,head_rotation_pitch,head_rotation_yaw,EDA,BVP,TMP
0,0.0,0.0,0.0,0.0,0.0,0.0,0.0,0.0,0.0,0.0,0.0,0.0,0.0,0.0,0.0,0.0,0.0,0.0,0.0,0.0,0.0,0.0,0.0,0.0,0.0,0.0,0.0,0.0,0.0,2.498676200918762,0.21074421386847195,28.53114845261122
0,0.06173706,-0.08970642,0.9940491,0.8320517,0.06860352,-0.1045074,0.9921417,-30.82175,5.59024,-28.49939,5.271606,0.4550556,0.4126444,0.8894532,0.05349731,-0.07200623,0.9959564,29.62012,6.814789,-26.53041,5.071884,0.5957655,0.3460883,0.1958177,1.171217,-0.2080966,-0.029209,0.7477511,0.03165625,2.498676200918762,0.21074421386847195,28.53114845261122
1,0.07226563,-0.09953308,0.9924011,0.8426421,0.07640076,-0.1015472,0.9918823,-30.80608,5.631821,-28.36101,5.289124,0.4532803,0.4095664,0.904999,0.04966736,-0.08850098,0.9948273,29.68069,7.025314,-27.14615,4.992554,0.5949348,0.3465607,0.1995891,1.175712,-0.2116696,0.004759178,0.7334589,0.09616523,2.498676200918762,0.21074421386847195,28.53114845261122
1,0.07226563,-0.09953308,0.9924011,0.8426421,0.07640076,-0.1015472,0.9918823,-30.80608,5.631821,-28.36101,5.289124,0.4532803,0.4095664,0.904999,0.04966736,-0.08850098,0.9948273,29.68069,7.025314,-27.14615,4.992554,0.5949348,0.3465607,0.1995891,1.175712,-0.2116696,0.004759178,0.7334589,0.09616523,2.498676200918762,0.21074421386847195,28.53114845261122
1,0.07226563,-0.09953308,0.9924011,0.8426421,0.07640076,-0.1015472,0.9918823,-30.80608,5.631821,-28.36101,5.289124,0.4532803,0.4095664,0.904999,0.04966736,-0.08850098,0.9948273,29.68069,7.025314,-27.14615,4.992554,0.5949348,0.3465607,0.1995891,1.175712,-0.2116696,0.004759178,0.7334589,0.09616523,2.498676200918762,0.21074421386847195,28.53114845261122
1,0.07226563,-0.09953308,0.9924011,0.8426421,0.07640076,-0.1015472,0.9918823,-30.80608,5.631821,-28.36101,5.289124,0.4532803,0.4095664,0.904999,0.04966736,-0.08850098,0.9948273,29.68069,7.025314,-27.14615,4.992554,0.5949348,0.3465607,0.1995891,1.175712,-0.2116696,0.004759178,0.7334589,0.09616523,2.498676200918762,0.21074421386847195,28.53114845261122
1,0.07226563,-0.09953308,0.9924011,0.8426421,0.07640076,-0.1015472,0.9918823,-30.80608,5.631821,-28.36101,5.289124,0.4532803,0.4095664,0.904999,0.04966736,-0.08850098,0.9948273,29.68069,7.025314,-27.14615,4.992554,0.5949348,0.3465607,0.1995891,1.175712,-0.2116696,0.004759178,0.7334589,0.09616523,2.498676200918762,0.21074421386847195,28.53114845261122
1,0.07226563,-0.09953308,0.9924011,0.8426421,0.07640076,-0.1015472,0.9918823,-30.80608,5.631821,-28.36101,5.289124,0.4532803,0.4095664,0.904999,0.04966736,-0.08850098,0.9948273,29.68069,7.025314,-27.14615,4.992554,0.5949348,0.3465607,0.1995891,1.175712,-0.2116696,0.004759178,0.7334589,0.09616523,2.498676200918762,0.21074421386847195,28.53114845261122
1,0.07226563,-0.09953308,0.9924011,0.8426421,0.07640076,-0.1015472,0.9918823,-30.80608,5.631821,-28.36101,5.289124,0.4532803,0.4095664,0.904999,0.04966736,-0.08850098,0.9948273,29.68069,7.025314,-27.14615,4.992554,0.5949348,0.3465607,0.1995891,1.175712,-0.2116696,0.004759178,0.7334589,0.09616523,2.498676200918762,0.21074421386847195,28.53114845261122
1,0.07226563,-0.09953308,0.9924011,0.8426421,0.07640076,-0.1015472,0.9918823,-30.80608,5.631821,-28.36101,5.289124,0.4532803,0.4095664,0.904999,0.04966736,-0.08850098,0.9948273,29.68069,7.025314,-27.14615,4.992554,0.5949348,0.3465607,0.1995891,1.175712,-0.2116696,0.004759178,0.7334589,0.09616523,2.498676200918762,0.21074421386847195,28.53114845261122
1,0.07226563,-0.09953308,0.9924011,0.8426421,0.07640076,-0.1015472,0.9918823,-30.80608,5.631821,-28.36101,5.289124,0.4532803,0.4095664,0.904999,0.04966736,-0.08850098,0.9948273,29.68069,7.025314,-27.14615,4.992554,0.5949348,0.3465607,0.1995891,1.175712,-0.2116696,0.004759178,0.7334589,0.09616523,2.498676200918762,0.21074421386847195,28.53114845261122
1,0.1545563,0.07319641,0.98526,1.0,0.1546173,0.07305908,0.98526,-30.02664,6.729324,-28.04448,5.556503,0.414019,0.3398627,1.0,0.1440277,0.0927124,0.9852142,30.35773,8.005997,-26.98123,5.400528,0.5566809,0.279687,0.2220292,1.162683,-0.2556196,-0.06214596,0.715414,-0.0155099,2.498676200918762,0.21074421386847195,28.53114845261122
1,0.1545563,0.07319641,0.98526,1.0,0.1546173,0.07305908,0.98526,-30.02664,6.729324,-28.04448,5.556503,0.414019,0.3398627,1.0,0.1440277,0.0927124,0.9852142,30.35773,8.005997,-26.98123,5.400528,0.5566809,0.279687,0.2220292,1.162683,-0.2556196,-0.06214596,0.715414,-0.0155099,2.498676200918762,0.21074421386847195,28.53114845261122
1,0.1545563,0.07319641,0.98526,1.0,0.1546173,0.07305908,0.98526,-30.02664,6.729324,-28.04448,5.556503,0.414019,0.3398627,1.0,0.1440277,0.0927124,0.9852142,30.35773,8.005997,-26.98123,5.400528,0.5566809,0.279687,0.2220292,1.162683,-0.2556196,-0.06214596,0.715414,-0.0155099,2.498676200918762,0.21074421386847195,28.53114845261122
1,0.1545563,0.07319641,0.98526,1.0,0.1546173,0.07305908,0.98526,-30.02664,6.729324,-28.04448,5.556503,0.414019,0.3398627,1.0,0.1440277,0.0927124,0.9852142,30.35773,8.005997,-26.98123,5.400528,0.5566809,0.279687,0.2220292,1.162683,-0.2556196,-0.06214596,0.715414,-0.0155099,2.498676200918762,0.21074421386847195,28.53114845261122
1,0.1545563,0.07319641,0.98526,1.0,0.1546173,0.07305908,0.98526,-30.02664,6.729324,-28.04448,5.556503,0.414019,0.3398627,1.0,0.1440277,0.0927124,0.9852142,30.35773,8.005997,-26.98123,5.400528,0.5566809,0.279687,0.2220292,1.162683,-0.2556196,-0.06214596,0.715414,-0.0155099,2.498676200918762,0.21074421386847195,28.53114845261122
1,0.1545563,0.07319641,0.98526,1.0,0.1546173,0.07305908,0.98526,-30.02664,6.729324,-28.04448,5.556503,0.414019,0.3398627,1.0,0.1440277,0.0927124,0.9852142,30.35773,8.005997,-26.98123,5.400528,0.5566809,0.279687,0.2220292,1.162683,-0.2556196,-0.06214596,0.715414,-0.0155099,2.498676200918762,0.21074421386847195,28.53114845261122
1,0.1545563,0.07319641,0.98526,1.0,0.1546173,0.07305908,0.98526,-30.02664,6.729324,-28.04448,5.556503,0.414019,0.3398627,1.0,0.1440277,0.0927124,0.9852142,30.35773,8.005997,-26.98123,5.400528,0.5566809,0.279687,0.2220292,1.162683,-0.2556196,-0.06214596,0.715414,-0.0155099,2.498676200918762,0.21074421386847195,28.53114845261122
1,0.1614838,0.06393433,0.984787,1.0,0.159317,0.05561829,0.9856567,-29.97144,6.430756,-27.82956,5.611252,0.4115697,0.3514296,1.0,0.1623383,0.06724548,0.984436,30.49789,7.602081,-26.87511,5.205338,0.5483863,0.2978858,0.2216668,1.163938,-0.2556577,-0.06426646,0.7184899,-0.01056631,2.498676200918762,0.21074421386847195,28.53114845261122
1,0.1614838,0.06393433,0.984787,1.0,0.159317,0.05561829,0.9856567,-29.97144,6.430756,-27.82956,5.611252,0.4115697,0.3514296,1.0,0.1623383,0.06724548,0.984436,30.49789,7.602081,-26.87511,5.205338,0.5483863,0.2978858,0.2216668,1.163938,-0.2556577,-0.06426646,0.7184899,-0.01056631,2.498676200918762,0.21074421386847195,28.53114845261122
1,0.1703339,0.05479431,0.9838562,1.0,0.1541138,0.07247925,0.9853821,-29.93512,6.327896,-27.87781,5.587585,0.4111477,0.3524942,1.0,0.1734314,0.0513916,0.98349,30.53142,7.538879,-26.89752,5.146057,0.5453138,0.3031129,0.2215506,1.164477,-0.2551745,-0.06474424,0.7202232,-0.0075269,2.498676200918762,0.21074421386847195,28.53114845261122
1,0.1596985,0.06025696,0.985321,1.0,0.1542053,0.05737305,0.9863586,-29.93114,6.290665,-27.8616,5.551224,0.4110418,0.3561684,1.0,0.1628723,0.06193542,0.9846954,30.54318,7.545303,-26.99542,5.252335,0.5468164,0.3017281,0.2215286,1.164742,-0.2548757,-0.06508403,0.7210973,-0.006368164,1.949304,0.21074421386847195,28.53114845261122
1,0.1596985,0.06025696,0.985321,1.0,0.1542053,0.05737305,0.9863586,-29.93114,6.290665,-27.8616,5.551224,0.4110418,0.3561684,1.0,0.1628723,0.06193542,0.9846954,30.54318,7.545303,-26.99542,5.252335,0.5468164,0.3017281,0.2215286,1.164742,-0.2548757,-0.06508403,0.7210973,-0.006368164,1.949304,0.21074421386847195,28.53114845261122
1,0.1622009,0.05574036,0.9851685,1.0,0.1548615,0.04890442,0.9867096,-29.9248,6.269669,-27.8671,5.545853,0.4107298,0.3583406,1.0,0.1707611,0.0637207,0.9832458,30.54794,7.542725,-27.01956,5.220978,0.5453138,0.3017281,0.2214472,1.165192,-0.2541077,-0.06538121,0.7229559,-0.003905296,1.949304,0.21074421386847195,28.53114845261122
1,0.1622009,0.05574036,0.9851685,1.0,0.1548615,0.04890442,0.9867096,-29.9248,6.269669,-27.8671,5.545853,0.4107298,0.3583406,1.0,0.1707611,0.0637207,0.9832458,30.54794,7.542725,-27.01956,5.220978,0.5453138,0.3017281,0.2214472,1.165192,-0.2541077,-0.06538121,0.7229559,-0.003905296,1.949304,0.21074421386847195,28.53114845261122
1,0.1747742,0.04696655,0.9834747,1.0,0.1590881,0.05172729,0.9859009,-29.87697,6.24823,-28.08231,5.524506,0.4082884,0.3602958,1.0,0.1797333,0.04545593,0.9826508,30.61528,7.478714,-26.98708,5.142944,0.5414065,0.3069711,0.2215116,1.165413,-0.253243,-0.06524844,0.7246503,-0.001749911,1.949304,15.4166,28.53114845261122
1,0.1828766,0.04777527,0.9819641,1.0,0.1646423,0.04716492,0.9852142,-29.86273,6.166428,-27.90382,5.554718,0.4069968,0.3624361,1.0,0.1884918,0.04795837,0.980896,30.62285,7.46524,-26.97627,5.147812,0.5396606,0.3069711,0.2215483,1.165492,-0.2527797,-0.06489126,0.725504,-0.0008188726,1.949304,15.4166,28.53114845261122
1,0.1828766,0.04777527,0.9819641,1.0,0.1646423,0.04716492,0.9852142,-29.86273,6.166428,-27.90382,5.554718,0.4069968,0.3624361,1.0,0.1884918,0.04795837,0.980896,30.62285,7.46524,-26.97627,5.147812,0.5396606,0.3069711,0.2215483,1.165492,-0.2527797,-0.06489126,0.725504,-0.0008188726,1.949304,15.4166,28.53114845261122
1,0.1445465,0.01937866,0.9893036,1.0,0.139389,0.0259552,0.9898834,-30.07188,5.948471,-27.47357,5.567215,0.4184837,0.3699936,1.0,0.1453705,0.01831055,0.9891968,30.35431,7.368851,-27.11852,5.12709,0.5561357,0.3163538,0.2217234,1.165511,-0.2516682,-0.06384838,0.7271207,0.0004048615,1.949304,15.4166,28.53114845261122
1,0.07418823,-0.0369873,0.9965515,1.0,0.05290222,-0.02496338,0.9982758,-30.48378,5.823608,-27.67154,5.42926,0.446443,0.3844256,1.0,0.07513428,-0.03752136,0.99646,29.75793,7.138824,-26.94472,5.031723,0.5880362,0.3321676,0.2217324,1.165466,-0.2510601,-0.06320508,0.7278767,0.0008970299,1.949304,15.4166,28.53114845261122
1,0.07418823,-0.0369873,0.9965515,1.0,0.05290222,-0.02496338,0.9982758,-30.48378,5.823608,-27.67154,5.42926,0.446443,0.3844256,1.0,0.07513428,-0.03752136,0.99646,29.75793,7.138824,-26.94472,5.031723,0.5880362,0.3321676,0.2217324,1.165466,-0.2510601,-0.06320508,0.7278767,0.0008970299,1.949304,15.4166,28.53114845261122
1,0.004669189,-0.05102539,0.9986725,1.0,0.0003814697,-0.05126953,0.9986725,-30.74472,5.625229,-27.47903,5.328979,0.4637179,0.3940108,1.0,0.02386475,-0.0499115,0.9984589,29.28687,6.765182,-25.77921,5.109146,0.6113831,0.3378541,0.2219131,1.165225,-0.2497177,-0.06147704,0.7291129,0.001353825,1.949304,15.4166,28.53114845261122
1,-0.008789063,-0.0599823,0.9981537,1.0,-0.00881958,-0.05999756,0.9981537,-30.78384,5.658691,-27.66446,5.355621,0.4665054,0.3959055,1.0,0.02967834,-0.04885864,0.9983521,29.29201,6.753143,-25.72266,5.094193,0.6100714,0.3379011,0.2219611,1.165,-0.2490497,-0.06071038,0.7296742,0.001482539,1.949304,15.4166,28.53114845261122
1,-0.008789063,-0.0599823,0.9981537,1.0,-0.00881958,-0.05999756,0.9981537,-30.78384,5.658691,-27.66446,5.355621,0.4665054,0.3959055,1.0,0.02967834,-0.04885864,0.9983521,29.29201,6.753143,-25.72266,5.094193,0.6100714,0.3379011,0.2219611,1.165,-0.2490497,-0.06071038,0.7296742,0.001482539,1.949304,15.4166,28.53114845261122
1,-0.002746582,-0.06199646,0.9980621,1.0,-0.002746582,-0.06199646,0.9980621,-30.79744,5.68399,-27.77881,5.22464,0.4659763,0.3962946,1.0,0.03837585,-0.0554657,0.9977112,29.4594,6.982697,-26.8055,4.920303,0.6039991,0.3397611,0.2221247,1.164523,-0.2475664,-0.05878069,0.7306693,0.001502507,1.949304,15.4166,28.53114845261122
1,-0.002746582,-0.06199646,0.9980621,1.0,-0.002746582,-0.06199646,0.9980621,-30.79744,5.68399,-27.77881,5.22464,0.4659763,0.3962946,1.0,0.03837585,-0.0554657,0.9977112,29.4594,6.982697,-26.8055,4.920303,0.6039991,0.3397611,0.2221247,1.164523,-0.2475664,-0.05878069,0.7306693,0.001502507,1.949304,15.4166,28.53114845261122
1,0.0006103516,-0.06211853,0.9980621,1.0,0.0006103516,-0.06211853,0.9980621,-30.79776,5.683945,-27.77599,5.240875,0.4654368,0.3962938,1.0,0.0395813,-0.05892944,0.997467,29.46695,6.980209,-26.79036,4.875656,0.6035758,0.3401376,0.2222511,1.163986,-0.2459714,-0.05654439,0.7315578,0.001262705,1.949304,15.4166,28.53114845261122
1,0.001190186,-0.06217957,0.9980621,1.0,0.001190186,-0.06217957,0.9980621,-30.79787,5.682663,-27.76947,5.218399,0.4653498,0.3962946,1.0,0.03814697,-0.05696106,0.9976349,29.47449,6.977737,-26.77522,4.913055,0.6035613,0.3397611,0.2223347,1.163423,-0.2444432,-0.05372141,0.7322522,0.0006741553,1.949304,15.4166,28.53114845261122
1,0.001190186,-0.06217957,0.9980621,1.0,0.001190186,-0.06217957,0.9980621,-30.79787,5.682663,-27.76947,5.218399,0.4653498,0.3962946,1.0,0.03814697,-0.05696106,0.9976349,29.47449,6.977737,-26.77522,4.913055,0.6035613,0.3397611,0.2223347,1.163423,-0.2444432,-0.05372141,0.7322522,0.0006741553,1.949304,15.4166,28.53114845261122
1,0.001190186,-0.06217957,0.9980621,1.0,0.001190186,-0.06217957,0.9980621,-30.79787,5.682663,-27.76947,5.218399,0.4653498,0.3962946,1.0,0.03814697,-0.05696106,0.9976349,29.47449,6.977737,-26.77522,4.913055,0.6035613,0.3397611,0.2223562,1.163097,-0.2436425,-0.05214053,0.7325768,0.0002862803,1.949304,-0.9733963,28.53114845261122
1,0.001190186,-0.06217957,0.9980621,1.0,0.001190186,-0.06217957,0.9980621,-30.79787,5.682663,-27.76947,5.218399,0.4653498,0.3962946,1.0,0.03814697,-0.05696106,0.9976349,29.47449,6.977737,-26.77522,4.913055,0.6035613,0.3397611,0.2223562,1.163097,-0.2436425,-0.05214053,0.7325768,0.0002862803,1.949304,-0.9733963,28.53114845261122
1,0.001190186,-0.06217957,0.9980621,1.0,0.001190186,-0.06217957,0.9980621,-30.79787,5.682663,-27.76947,5.218399,0.4653498,0.3962946,1.0,0.03814697,-0.05696106,0.9976349,29.47449,6.977737,-26.77522,4.913055,0.6035613,0.3397611,0.2223526,1.162483,-0.2419364,-0.04872678,0.7331932,-0.000376246,1.949304,-0.9733963,28.53114845261122
1,0.001754761,-0.06237793,0.9980469,1.0,0.001739502,-0.06237793,0.9980469,-30.79799,5.681396,-27.76297,5.19574,0.4652628,0.3962955,1.0,0.03823853,-0.05282593,0.9978638,29.47913,6.973175,-26.74562,4.900589,0.6033568,0.3389666,0.2222685,1.162235,-0.2411035,-0.04687818,0.7334831,-0.000690534,1.949304,-0.9733963,28.53114845261122
1,0.001754761,-0.06237793,0.9980469,1.0,0.001739502,-0.06237793,0.9980469,-30.79799,5.681396,-27.76297,5.19574,0.4652628,0.3962955,1.0,0.03823853,-0.05282593,0.9978638,29.47913,6.973175,-26.74562,4.900589,0.6033568,0.3389666,0.2222685,1.162235,-0.2411035,-0.04687818,0.7334831,-0.000690534,1.949304,-0.9733963,28.53114845261122
1,0.001754761,-0.06237793,0.9980469,1.0,0.001739502,-0.06237793,0.9980469,-30.79799,5.681396,-27.76297,5.19574,0.4652628,0.3962955,1.0,0.03823853,-0.05282593,0.9978638,29.47913,6.973175,-26.74562,4.900589,0.6033568,0.3389666,0.2221576,1.161821,-0.2393839,-0.04319159,0.7339133,-0.0009727403,1.949304,-0.9733963,28.53114845261122
1,0.001754761,-0.06237793,0.9980469,1.0,0.001739502,-0.06237793,0.9980469,-30.79799,5.681396,-27.76297,5.19574,0.4652628,0.3962955,1.0,0.03823853,-0.05282593,0.9978638,29.47913,6.973175,-26.74562,4.900589,0.6033568,0.3389666,0.2220498,1.161651,-0.2385337,-0.0413668,0.7340288,-0.001010312,1.949304,-0.9733963,28.53114845261122
1,0.001754761,-0.06237793,0.9980469,1.0,0.001739502,-0.06237793,0.9980469,-30.79799,5.681396,-27.76297,5.19574,0.4652628,0.3962955,1.0,0.03823853,-0.05282593,0.9978638,29.47913,6.973175,-26.74562,4.900589,0.6033568,0.3389666,0.2220498,1.161651,-0.2385337,-0.0413668,0.7340288,-0.001010312,1.949304,-0.9733963,28.53114845261122
1,0.001754761,-0.06237793,0.9980469,1.0,0.001739502,-0.06237793,0.9980469,-30.79799,5.681396,-27.76297,5.19574,0.4652628,0.3962955,1.0,0.03823853,-0.05282593,0.9978638,29.47913,6.973175,-26.74562,4.900589,0.6033568,0.3389666,0.221831,1.161492,-0.2367237,-0.03796936,0.73415,-0.0005033088,1.949304,-0.9733963,28.53114845261122
1,0.001754761,-0.06237793,0.9980469,1.0,0.001739502,-0.06237793,0.9980469,-30.79799,5.681396,-27.76297,5.19574,0.4652628,0.3962955,1.0,0.03823853,-0.05282593,0.9978638,29.47913,6.973175,-26.74562,4.900589,0.6033568,0.3389666,0.221831,1.161492,-0.2367237,-0.03796936,0.73415,-0.0005033088,1.949304,-0.9733963,28.53114845261122
1,0.00151062,-0.06515503,0.9978638,1.0,0.00151062,-0.06515503,0.9978638,-30.79941,5.674988,-27.72919,5.186401,0.4653498,0.3967045,1.0,0.03831482,-0.051651,0.9979248,29.48376,6.968613,-26.71602,4.895386,0.6031524,0.3386968,0.2215868,1.161547,-0.2348418,-0.03528698,0.7337652,0.0008097229,1.949304,-0.9733963,28.53114845261122
1,0.01416016,-0.04852295,0.9987183,1.0,0.0141449,-0.04852295,0.9987183,-30.84744,5.755157,-27.38773,4.822189,0.4649534,0.3883163,1.0,0.04376221,-0.03572083,0.9983978,29.56238,7.159973,-26.7863,4.458588,0.5995492,0.3299036,0.2214206,1.161565,-0.2338859,-0.03389798,0.7334165,0.001418329,1.949304,-0.9733963,28.53114845261122
1,0.01416016,-0.04852295,0.9987183,1.0,0.0141449,-0.04852295,0.9987183,-30.84744,5.755157,-27.38773,4.822189,0.4649534,0.3883163,1.0,0.04376221,-0.03572083,0.9983978,29.56238,7.159973,-26.7863,4.458588,0.5995492,0.3299036,0.2214206,1.161565,-0.2338859,-0.03389798,0.7334165,0.001418329,1.949304,-0.9733963,28.53114845261122
1,0.01416016,-0.04852295,0.9987183,1.0,0.0141449,-0.04852295,0.9987183,-30.84744,5.755157,-27.38773,4.822189,0.4649534,0.3883163,1.0,0.04376221,-0.03572083,0.9983978,29.56238,7.159973,-26.7863,4.458588,0.5995492,0.3299036,0.2209209,1.161793,-0.230847,-0.03044278,0.7319563,0.003947989,1.949304,-0.9733963,28.53114845261122
1,0.01416016,-0.04852295,0.9987183,1.0,0.0141449,-0.04852295,0.9987183,-30.84744,5.755157,-27.38773,4.822189,0.4649534,0.3883163,1.0,0.04376221,-0.03572083,0.9983978,29.56238,7.159973,-26.7863,4.458588,0.5995492,0.3299036,0.2209209,1.161793,-0.230847,-0.03044278,0.7319563,0.003947989,1.949304,-0.9733963,28.53114845261122
1,0.01416016,-0.04852295,0.9987183,1.0,0.0141449,-0.04852295,0.9987183,-30.84744,5.755157,-27.38773,4.822189,0.4649534,0.3883163,1.0,0.04376221,-0.03572083,0.9983978,29.56238,7.159973,-26.7863,4.458588,0.5995492,0.3299036,0.2209209,1.161793,-0.230847,-0.03044278,0.7319563,0.003947989,1.949304,-0.9733963,28.53114845261122
1,0.01416016,-0.04852295,0.9987183,1.0,0.0141449,-0.04852295,0.9987183,-30.84744,5.755157,-27.38773,4.822189,0.4649534,0.3883163,1.0,0.04376221,-0.03572083,0.9983978,29.56238,7.159973,-26.7863,4.458588,0.5995492,0.3299036,0.2204318,1.162206,-0.2286786,-0.02898804,0.7305428,0.005970224,1.949304,-0.9733963,28.53114845261122
1,0.04103088,-0.0307312,0.9986725,1.0,0.01956177,-0.04501343,0.9987946,-30.85149,5.778625,-27.38963,4.77211,0.4642065,0.3869377,1.0,0.04389954,-0.02882385,0.9986115,29.56238,7.176544,-26.7863,4.457779,0.5995492,0.3281328,0.2199789,1.162549,-0.226577,-0.02795943,0.7286848,0.008398047,1.949304,-0.9733963,28.53114845261122
1,0.04103088,-0.0307312,0.9986725,1.0,0.01956177,-0.04501343,0.9987946,-30.85149,5.778625,-27.38963,4.77211,0.4642065,0.3869377,1.0,0.04389954,-0.02882385,0.9986115,29.56238,7.176544,-26.7863,4.457779,0.5995492,0.3281328,0.2199789,1.162549,-0.226577,-0.02795943,0.7286848,0.008398047,1.949304,-0.9733963,28.53114845261122
1,0.04103088,-0.0307312,0.9986725,1.0,0.01956177,-0.04501343,0.9987946,-30.85149,5.778625,-27.38963,4.77211,0.4642065,0.3869377,1.0,0.04389954,-0.02882385,0.9986115,29.56238,7.176544,-26.7863,4.457779,0.5995492,0.3281328,0.2195491,1.162901,-0.2244383,-0.0267295,0.7266726,0.01056384,1.949304,-0.01026154,28.53114845261122
1,0.04103088,-0.0307312,0.9986725,1.0,0.01956177,-0.04501343,0.9987946,-30.85149,5.778625,-27.38963,4.77211,0.4642065,0.3869377,1.0,0.04389954,-0.02882385,0.9986115,29.56238,7.176544,-26.7863,4.457779,0.5995492,0.3281328,0.2190262,1.163216,-0.2222373,-0.0252036,0.7245513,0.01243261,1.949304,-0.01026154,28.53114845261122
1,0.04103088,-0.0307312,0.9986725,1.0,0.01956177,-0.04501343,0.9987946,-30.85149,5.778625,-27.38963,4.77211,0.4642065,0.3869377,1.0,0.04389954,-0.02882385,0.9986115,29.56238,7.176544,-26.7863,4.457779,0.5995492,0.3281328,0.2190262,1.163216,-0.2222373,-0.0252036,0.7245513,0.01243261,1.949304,-0.01026154,28.53114845261122
1,0.1127472,-0.1148529,0.9869537,1.0,0.09484863,-0.1428986,0.9851685,-30.31808,5.592896,-28.12776,4.647125,0.4337953,0.4157425,1.0,0.1134338,-0.1137848,0.9869995,29.90381,6.969101,-27.39407,4.285538,0.576389,0.3552761,0.2185768,1.163392,-0.2201085,-0.02349354,0.7222554,0.01398731,1.949304,-0.01026154,28.53114845261122
1,0.1127472,-0.1148529,0.9869537,1.0,0.09484863,-0.1428986,0.9851685,-30.31808,5.592896,-28.12776,4.647125,0.4337953,0.4157425,1.0,0.1134338,-0.1137848,0.9869995,29.90381,6.969101,-27.39407,4.285538,0.576389,0.3552761,0.2185768,1.163392,-0.2201085,-0.02349354,0.7222554,0.01398731,1.949304,-0.01026154,28.53114845261122
1,0.1064911,-0.1073914,0.9884796,1.0,0.07403564,-0.1218414,0.9897766,-30.49928,5.723877,-28.65079,4.28418,0.4431628,0.4121212,1.0,0.1065063,-0.1073914,0.9884796,29.83992,7.020264,-27.55656,4.131378,0.5798217,0.353621,0.2181993,1.163486,-0.2180657,-0.02170587,0.7198807,0.01562405,1.949304,-0.01026154,28.53114845261122
1,0.1064911,-0.1073914,0.9884796,1.0,0.07403564,-0.1218414,0.9897766,-30.49928,5.723877,-28.65079,4.28418,0.4431628,0.4121212,1.0,0.1065063,-0.1073914,0.9884796,29.83992,7.020264,-27.55656,4.131378,0.5798217,0.353621,0.2181993,1.163486,-0.2180657,-0.02170587,0.7198807,0.01562405,1.949304,-0.01026154,28.53114845261122
1,0.09492493,-0.1150513,0.9888,1.0,0.0690155,-0.1203613,0.9903259,-30.57553,5.69841,-28.51805,4.310257,0.4465959,0.4116267,1.0,0.09544373,-0.1149445,0.9887695,29.82579,7.063019,-27.72614,3.939865,0.5822425,0.3547725,0.2177743,1.163626,-0.2160896,-0.01989259,0.7177695,0.01715859,1.949304,-0.01026154,28.53114845261122
1,0.09492493,-0.1150513,0.9888,1.0,0.0690155,-0.1203613,0.9903259,-30.57553,5.69841,-28.51805,4.310257,0.4465959,0.4116267,1.0,0.09544373,-0.1149445,0.9887695,29.82579,7.063019,-27.72614,3.939865,0.5822425,0.3547725,0.2177743,1.163626,-0.2160896,-0.01989259,0.7177695,0.01715859,1.949304,-0.01026154,28.53114845261122
1,0.06437683,-0.1103058,0.991806,1.0,0.0615387,-0.1134644,0.9916229,-30.61194,5.769608,-28.77229,4.283295,0.4490167,0.410179,1.0,0.08764648,-0.08424377,0.992569,29.73138,6.99942,-27.2511,4.125229,0.5865011,0.3476845,0.2174793,1.163677,-0.2142053,-0.01816839,0.7155915,0.01839175,1.949304,-0.01026154,28.53114845261122
1,0.06437683,-0.1103058,0.991806,1.0,0.0615387,-0.1134644,0.9916229,-30.61194,5.769608,-28.77229,4.283295,0.4490167,0.410179,1.0,0.08764648,-0.08424377,0.992569,29.73138,6.99942,-27.2511,4.125229,0.5865011,0.3476845,0.2174793,1.163677,-0.2142053,-0.01816839,0.7155915,0.01839175,1.949304,-0.01026154,28.53114845261122
1,0.05895996,-0.1068115,0.9925232,1.0,0.05827332,-0.1079712,0.9924316,-30.69083,5.743652,-28.62079,4.241547,0.4522385,0.4088594,1.0,0.07208252,-0.08447266,0.9938049,29.70003,7.037415,-27.34358,4.030472,0.5902482,0.3471375,0.2170167,1.163681,-0.2124325,-0.01654852,0.7135601,0.01969611,1.949304,-11.2177,28.53114845261122
1,0.05895996,-0.1068115,0.9925232,1.0,0.05827332,-0.1079712,0.9924316,-30.69083,5.743652,-28.62079,4.241547,0.4522385,0.4088594,1.0,0.07208252,-0.08447266,0.9938049,29.70003,7.037415,-27.34358,4.030472,0.5902482,0.3471375,0.2170167,1.163681,-0.2124325,-0.01654852,0.7135601,0.01969611,1.949304,-11.2177,28.53114845261122
1,0.05363464,-0.1057587,0.9929352,1.0,0.0521698,-0.11026,0.9925232,-30.74597,5.718658,-28.48277,4.23555,0.4551258,0.4089354,1.0,0.06225586,-0.07904053,0.9949188,29.67273,7.0923,-27.54568,4.051773,0.5930731,0.3458466,0.2165304,1.163696,-0.2107217,-0.01495224,0.7114849,0.02087527,1.949304,-11.2177,28.53114845261122
1,0.05363464,-0.1057587,0.9929352,1.0,0.0521698,-0.11026,0.9925232,-30.74597,5.718658,-28.48277,4.23555,0.4551258,0.4089354,1.0,0.06225586,-0.07904053,0.9949188,29.67273,7.0923,-27.54568,4.051773,0.5930731,0.3458466,0.2165304,1.163696,-0.2107217,-0.01495224,0.7114849,0.02087527,1.949304,-11.2177,28.53114845261122
1,0.04541016,-0.1007385,0.993866,1.0,0.04248047,-0.1070862,0.9933319,-30.78275,5.752869,-28.60696,4.151215,0.4579533,0.4082816,1.0,0.05432129,-0.08132935,0.9951935,29.63333,7.149353,-27.70473,3.858185,0.5958622,0.3455027,0.2161045,1.163632,-0.2090802,-0.01350657,0.7094403,0.02215887,1.949304,-11.2177,28.53114845261122
1,0.04541016,-0.1007385,0.993866,1.0,0.04248047,-0.1070862,0.9933319,-30.78275,5.752869,-28.60696,4.151215,0.4579533,0.4082816,1.0,0.05432129,-0.08132935,0.9951935,29.63333,7.149353,-27.70473,3.858185,0.5958622,0.3455027,0.2161045,1.163632,-0.2090802,-0.01350657,0.7094403,0.02215887,1.949304,-11.2177,28.53114845261122
1,0.03884888,-0.09791565,0.9944305,1.0,0.03395081,-0.10289,0.9941101,-30.81511,5.762741,-28.51552,4.114136,0.4604691,0.4064622,1.0,0.05488586,-0.08158875,0.9951477,29.55972,7.09671,-27.33055,3.809494,0.5979081,0.3443571,0.2156488,1.163685,-0.2074223,-0.01252009,0.7073132,0.02370004,1.949304,-11.2177,29.05
1,0.03884888,-0.09791565,0.9944305,1.0,0.03395081,-0.10289,0.9941101,-30.81511,5.762741,-28.51552,4.114136,0.4604691,0.4064622,1.0,0.05488586,-0.08158875,0.9951477,29.55972,7.09671,-27.33055,3.809494,0.5979081,0.3443571,0.2156488,1.163685,-0.2074223,-0.01252009,0.7073132,0.02370004,1.949304,-11.2177,29.05
1,0.04273987,-0.09082031,0.9949341,1.0,0.03729248,-0.09683228,0.9945984,-30.86639,5.711227,-28.12975,4.021439,0.4616686,0.4039168,1.0,0.05444336,-0.0778656,0.9954681,29.53339,7.089447,-27.23155,3.82695,0.5987911,0.3431962,0.2151929,1.163669,-0.205804,-0.01142874,0.7050365,0.02531789,1.949304,-11.2177,29.05
1,0.04273987,-0.09082031,0.9949341,1.0,0.03729248,-0.09683228,0.9945984,-30.86639,5.711227,-28.12975,4.021439,0.4616686,0.4039168,1.0,0.05444336,-0.0778656,0.9954681,29.53339,7.089447,-27.23155,3.82695,0.5987911,0.3431962,0.2151929,1.163669,-0.205804,-0.01142874,0.7050365,0.02531789,1.949304,-11.2177,29.05
1,0.0327301,-0.08956909,0.9954376,1.0,0.02458191,-0.0940094,0.9952545,-30.91154,5.781372,-28.31203,4.066132,0.4652861,0.4026177,1.0,0.05126953,-0.07939148,0.9955139,29.43753,6.988403,-26.71611,3.642014,0.6020129,0.3427761,0.2147433,1.163673,-0.2043945,-0.0101722,0.7028064,0.026585,1.949304,-11.2177,29.05
1,0.0327301,-0.08956909,0.9954376,1.0,0.02458191,-0.0940094,0.9952545,-30.91154,5.781372,-28.31203,4.066132,0.4652861,0.4026177,1.0,0.05126953,-0.07939148,0.9955139,29.43753,6.988403,-26.71611,3.642014,0.6020129,0.3427761,0.2147433,1.163673,-0.2043945,-0.0101722,0.7028064,0.026585,1.949304,-11.2177,29.05
2,0.01779175,-0.09281921,0.9955139,1.0,0.01708984,-0.09344482,0.9954681,-30.98445,5.725769,-27.98923,3.98085,0.4689809,0.4017134,1.0,0.03651428,-0.07652283,0.9963837,29.37865,7.028351,-26.82095,3.651718,0.6066118,0.3417956,0.2142378,1.163769,-0.2029966,-0.009186551,0.7005938,0.02771951,1.949304,-11.2177,29.05
2,0.01779175,-0.09281921,0.9955139,1.0,0.01708984,-0.09344482,0.9954681,-30.98445,5.725769,-27.98923,3.98085,0.4689809,0.4017134,1.0,0.03651428,-0.07652283,0.9963837,29.37865,7.028351,-26.82095,3.651718,0.6066118,0.3417956,0.2142378,1.163769,-0.2029966,-0.009186551,0.7005938,0.02771951,1.949304,-11.2177,29.05
2,0.01429749,-0.09075928,0.9957581,1.0,0.01187134,-0.09382629,0.9955139,-31.02634,5.671249,-27.76059,3.962479,0.4712484,0.4017053,1.0,0.03578186,-0.06359863,0.9973297,29.33804,7.007935,-26.60451,3.664352,0.6079304,0.3384834,0.2137212,1.163924,-0.2016455,-0.008250364,0.6983414,0.02853418,1.949304,-11.2177,29.05
2,0.01429749,-0.09075928,0.9957581,1.0,0.01187134,-0.09382629,0.9955139,-31.02634,5.671249,-27.76059,3.962479,0.4712484,0.4017053,1.0,0.03578186,-0.06359863,0.9973297,29.33804,7.007935,-26.60451,3.664352,0.6079304,0.3384834,0.2137212,1.163924,-0.2016455,-0.008250364,0.6983414,0.02853418,1.949304,-11.2177,29.05
2,0.01264954,-0.07388306,0.9971771,1.0,0.003982544,-0.08831787,0.9960785,-31.08099,5.725037,-27.98775,3.96315,0.4743844,0.4008641,1.0,0.02754211,-0.04901123,0.9984131,29.26021,6.967651,-26.30779,3.746674,0.6116876,0.3350372,0.2130872,1.16399,-0.2004045,-0.007548152,0.6963058,0.02924711,1.949304,-11.2177,29.05
2,0.01264954,-0.07388306,0.9971771,1.0,0.003982544,-0.08831787,0.9960785,-31.08099,5.725037,-27.98775,3.96315,0.4743844,0.4008641,1.0,0.02754211,-0.04901123,0.9984131,29.26021,6.967651,-26.30779,3.746674,0.6116876,0.3350372,0.2130872,1.16399,-0.2004045,-0.007548152,0.6963058,0.02924711,1.949304,-11.2177,29.05
2,-0.001586914,-0.08839417,0.9960785,1.0,-0.002105713,-0.08898926,0.9960175,-31.11934,5.729492,-28.00217,3.925095,0.4766794,0.4009642,1.0,0.01966858,-0.06335449,0.9977875,29.20291,6.952438,-26.18391,3.583664,0.6147518,0.3370569,0.2123911,1.164099,-0.1993611,-0.006512769,0.6945487,0.02989041,1.949304,11.27204,29.05
2,-0.001586914,-0.08839417,0.9960785,1.0,-0.002105713,-0.08898926,0.9960175,-31.11934,5.729492,-28.00217,3.925095,0.4766794,0.4009642,1.0,0.01966858,-0.06335449,0.9977875,29.20291,6.952438,-26.18391,3.583664,0.6147518,0.3370569,0.2123911,1.164099,-0.1993611,-0.006512769,0.6945487,0.02989041,1.949304,11.27204,29.05
2,0.001174927,-0.09580994,0.9953918,1.0,-0.0004577637,-0.09967041,0.9950104,-31.15353,5.69516,-27.84346,3.946655,0.4775367,0.4026394,1.0,0.0168457,-0.05915833,0.9980927,29.17859,6.955963,-26.20612,3.631027,0.6160973,0.3363747,0.2116579,1.164255,-0.198451,-0.005659509,0.6929484,0.03050891,1.949304,11.27204,29.05
2,0.001174927,-0.09580994,0.9953918,1.0,-0.0004577637,-0.09967041,0.9950104,-31.15353,5.69516,-27.84346,3.946655,0.4775367,0.4026394,1.0,0.0168457,-0.05915833,0.9980927,29.17859,6.955963,-26.20612,3.631027,0.6160973,0.3363747,0.2116579,1.164255,-0.198451,-0.005659509,0.6929484,0.03050891,1.949304,11.27204,29.05
2,-0.0009460449,-0.07846069,0.9969025,1.0,-0.007247925,-0.0905304,0.9958649,-31.18599,5.705688,-27.85286,3.885406,0.4797545,0.4007922,1.0,0.007034302,-0.06312561,0.9979706,29.13211,7.040573,-26.38359,3.653488,0.6196076,0.3354777,0.2110432,1.164378,-0.1976638,-0.005135665,0.691475,0.03118269,1.949304,11.27204,29.05
2,-0.0009460449,-0.07846069,0.9969025,1.0,-0.007247925,-0.0905304,0.9958649,-31.18599,5.705688,-27.85286,3.885406,0.4797545,0.4007922,1.0,0.007034302,-0.06312561,0.9979706,29.13211,7.040573,-26.38359,3.653488,0.6196076,0.3354777,0.2110432,1.164378,-0.1976638,-0.005135665,0.691475,0.03118269,1.949304,11.27204,29.05
2,-0.003829956,-0.08308411,0.996521,1.0,-0.007949829,-0.08958435,0.9959412,-31.1964,5.702042,-27.84471,3.857803,0.4802194,0.4006844,1.0,0.007781982,-0.06474304,0.9978638,29.12239,7.049408,-26.38535,3.615738,0.6197886,0.33549,0.2103987,1.16452,-0.1970043,-0.004669887,0.6903631,0.03193498,1.949304,11.27204,29.05
2,-0.003829956,-0.08308411,0.996521,1.0,-0.007949829,-0.08958435,0.9959412,-31.1964,5.702042,-27.84471,3.857803,0.4802194,0.4006844,1.0,0.007781982,-0.06474304,0.9978638,29.12239,7.049408,-26.38535,3.615738,0.6197886,0.33549,0.2103987,1.16452,-0.1970043,-0.004669887,0.6903631,0.03193498,1.949304,11.27204,29.05
2,-0.003158569,-0.08007813,0.9967804,1.0,-0.007247925,-0.08987427,0.9959106,-31.20795,5.707382,-27.86188,3.845322,0.4804897,0.4006928,1.0,0.003128052,-0.06491089,0.997879,29.11172,7.056702,-26.3998,3.562256,0.6209466,0.3353688,0.2097688,1.164646,-0.196444,-0.004122472,0.6893815,0.03316844,1.949304,11.27204,29.05
2,-0.003158569,-0.08007813,0.9967804,1.0,-0.007247925,-0.08987427,0.9959106,-31.20795,5.707382,-27.86188,3.845322,0.4804897,0.4006928,1.0,0.003128052,-0.06491089,0.997879,29.11172,7.056702,-26.3998,3.562256,0.6209466,0.3353688,0.2097688,1.164646,-0.196444,-0.004122472,0.6893815,0.03316844,1.949304,11.27204,29.05
2,-0.002166748,-0.07615662,0.9970856,1.0,-0.008422852,-0.08964539,0.9959259,-31.21466,5.708969,-27.8721,3.828461,0.4809108,0.4006928,1.0,0.004776001,-0.06112671,0.9981079,29.10559,7.057541,-26.40504,3.561996,0.6208885,0.3347183,0.209196,1.164858,-0.1959584,-0.003709612,0.6881688,0.03455269,1.949304,11.27204,29.05
2,-0.002166748,-0.07615662,0.9970856,1.0,-0.008422852,-0.08964539,0.9959259,-31.21466,5.708969,-27.8721,3.828461,0.4809108,0.4006928,1.0,0.004776001,-0.06112671,0.9981079,29.10559,7.057541,-26.40504,3.561996,0.6208885,0.3347183,0.209196,1.164858,-0.1959584,-0.003709612,0.6881688,0.03455269,1.949304,11.27204,29.05
2,-0.0008850098,-0.0748291,0.9971924,1.0,-0.007019043,-0.08972168,0.9959259,-31.2164,5.714676,-27.89325,3.831635,0.4807358,0.4006844,1.0,0.004882813,-0.06077576,0.9981384,29.10434,7.057877,-26.40964,3.553131,0.6209176,0.3346812,0.2088817,1.164966,-0.195715,-0.003574597,0.6875825,0.03522538,1.949304,11.27204,29.05
2,-0.0008850098,-0.0748291,0.9971924,1.0,-0.007019043,-0.08972168,0.9959259,-31.2164,5.714676,-27.89325,3.831635,0.4807358,0.4006844,1.0,0.004882813,-0.06077576,0.9981384,29.10434,7.057877,-26.40964,3.553131,0.6209176,0.3346812,0.2088817,1.164966,-0.195715,-0.003574597,0.6875825,0.03522538,1.949304,11.27204,29.05
2,-0.0006103516,-0.07516479,0.9971619,1.0,-0.006240845,-0.09094238,0.9958344,-31.21149,5.7202,-27.89325,3.812836,0.4804456,0.4007013,1.0,0.004638672,-0.06039429,0.9981537,29.10582,7.06102,-26.41663,3.548645,0.6209176,0.3345607,0.2082067,1.165124,-0.1953416,-0.003404865,0.6861121,0.03661987,1.949304,7.986298,29.05
2,-0.000579834,-0.07579041,0.9971161,1.0,-0.006240845,-0.09159851,0.9957733,-31.21149,5.720673,-27.8988,3.7789,0.4804456,0.400836,1.0,0.004806519,-0.0606842,0.9981384,29.10606,7.067322,-26.4276,3.531738,0.6208885,0.3344773,0.2079301,1.165178,-0.1950961,-0.003378504,0.6852683,0.03728604,1.949304,7.986298,29.05
2,-0.000579834,-0.07579041,0.9971161,1.0,-0.006240845,-0.09159851,0.9957733,-31.21149,5.720673,-27.8988,3.7789,0.4804456,0.400836,1.0,0.004806519,-0.0606842,0.9981384,29.10606,7.067322,-26.4276,3.531738,0.6208885,0.3344773,0.2079301,1.165178,-0.1950961,-0.003378504,0.6852683,0.03728604,1.949304,7.986298,29.05
2,-0.0007171631,-0.07626343,0.9970856,1.0,-0.006240845,-0.09147644,0.9957733,-31.21149,5.720673,-27.90247,3.753052,0.4804456,0.400836,1.0,0.004898071,-0.06074524,0.9981384,29.10606,7.07135,-26.44316,3.520401,0.6208885,0.3344718,0.2077037,1.165236,-0.194931,-0.003245785,0.6844745,0.0379297,1.949304,7.986298,29.05
2,0.001083374,-0.07711792,0.9970093,1.0,-0.005935669,-0.09187317,0.9957428,-31.20241,5.720673,-27.90247,3.712723,0.4800937,0.4008827,1.0,0.00894165,-0.06063843,0.9981079,29.11485,7.076569,-26.4603,3.501877,0.6199177,0.3344091,0.2070864,1.165425,-0.1945807,-0.003137231,0.6826462,0.03896386,1.949304,7.986298,29.05
2,0.0008850098,-0.07859802,0.9969025,1.0,-0.006637573,-0.09355164,0.9955902,-31.19629,5.720673,-27.90247,3.710205,0.4800045,0.401184,1.0,0.009597778,-0.06129456,0.9980621,29.11902,7.081451,-26.46677,3.478333,0.619665,0.3344091,0.2068018,1.165467,-0.1944714,-0.003097797,0.6817777,0.03919579,1.949304,7.986298,29.05
2,0.001174927,-0.07978821,0.9967957,1.0,-0.004379272,-0.09498596,0.9954681,-31.18959,5.718201,-27.90176,3.707428,0.4794025,0.401497,1.0,0.007705688,-0.06193542,0.9980469,29.12866,7.081451,-26.4603,3.464264,0.6196476,0.3344718,0.2065724,1.165444,-0.1943562,-0.003056637,0.6808323,0.0395325,1.949304,7.986298,29.05
2,0.001174927,-0.07978821,0.9967957,1.0,-0.004379272,-0.09498596,0.9954681,-31.18959,5.718201,-27.90176,3.707428,0.4794025,0.401497,1.0,0.007705688,-0.06193542,0.9980469,29.12866,7.081451,-26.4603,3.464264,0.6196476,0.3344718,0.2065724,1.165444,-0.1943562,-0.003056637,0.6808323,0.0395325,1.949304,7.986298,29.05
2,0.002929688,-0.07887268,0.9968719,1.0,-0.003494263,-0.09413147,0.9955444,-31.17986,5.707733,-27.89597,3.697906,0.4789307,0.4016525,1.0,0.009979248,-0.06216431,0.9980011,29.13622,7.083099,-26.45416,3.453522,0.6189889,0.3344091,0.2060165,1.165547,-0.1941878,-0.002988854,0.679171,0.03984366,1.949304,7.986298,29.05
2,0.002929688,-0.07887268,0.9968719,1.0,-0.003494263,-0.09413147,0.9955444,-31.17986,5.707733,-27.89597,3.697906,0.4789307,0.4016525,1.0,0.009979248,-0.06216431,0.9980011,29.13622,7.083099,-26.45416,3.453522,0.6189889,0.3344091,0.2060165,1.165547,-0.1941878,-0.002988854,0.679171,0.03984366,1.949304,7.986298,29.05
2,0.003219604,-0.07814026,0.996933,1.0,-0.003463745,-0.09457397,0.9954987,-31.17986,5.700638,-27.88577,3.692947,0.4789238,0.4018738,1.0,0.009994507,-0.06147766,0.9980469,29.13622,7.083389,-26.45416,3.450836,0.6189889,0.3342837,0.2055875,1.165539,-0.1941625,-0.00290799,0.6776684,0.03987656,1.949304,7.986298,29.05
2,0.003295898,-0.07710266,0.9970093,1.0,-0.003463745,-0.09291077,0.9956665,-31.17986,5.691803,-27.88499,3.685699,0.4789238,0.4018738,1.0,0.009963989,-0.0615387,0.9980469,29.13622,7.083557,-26.45416,3.434906,0.6189889,0.3342837,0.2053691,1.16551,-0.1941757,-0.002836658,0.67701,0.0398675,1.949304,7.986298,29.05
2,0.003326416,-0.07597351,0.9971008,1.0,-0.003463745,-0.09092712,0.9958496,-31.17986,5.68158,-27.88499,3.68515,0.4789238,0.4018738,1.0,0.009918213,-0.06144714,0.9980469,29.13622,7.083389,-26.45271,3.420746,0.6189889,0.3342561,0.2051319,1.165413,-0.1941991,-0.002735029,0.676411,0.0396535,1.949304,7.986298,29.05
2,0.003326416,-0.07597351,0.9971008,1.0,-0.003463745,-0.09092712,0.9958496,-31.17986,5.68158,-27.88499,3.68515,0.4789238,0.4018738,1.0,0.009918213,-0.06144714,0.9980469,29.13622,7.083389,-26.45271,3.420746,0.6189889,0.3342561,0.2051319,1.165413,-0.1941991,-0.002735029,0.676411,0.0396535,1.949304,7.986298,29.05
2,0.002258301,-0.07644653,0.9970551,1.0,-0.003387451,-0.09213257,0.9957275,-31.18065,5.68158,-27.88499,3.675293,0.478936,0.4020849,1.0,0.007751465,-0.06118774,0.9980927,29.13306,7.083389,-26.44966,3.420532,0.6194631,0.3341917,0.2047414,1.16535,-0.1943796,-0.002444456,0.6753867,0.03934889,1.949304,7.986298,29.05
2,0.003509521,-0.07502747,0.9971619,1.0,-0.001754761,-0.09132385,0.9958038,-31.19046,5.68158,-27.90176,3.67511,0.4789953,0.4020849,1.0,0.008911133,-0.05841064,0.9982452,29.12352,7.083389,-26.44966,3.412109,0.6195937,0.3336955,0.2045901,1.165315,-0.1944866,-0.00235757,0.6748213,0.03930607,1.949304,23.3892,29.05
2,0.001815796,-0.07337952,0.9972992,1.0,-0.0009002686,-0.08963013,0.9959717,-31.19902,5.68158,-27.91197,3.672256,0.4791404,0.4018738,1.0,0.004440308,-0.05787659,0.9983063,29.12038,7.083389,-26.4496,3.399506,0.6204621,0.3335954,0.2042905,1.165209,-0.1947299,-0.002080574,0.674136,0.03909291,1.949304,23.3892,29.05
2,0.001815796,-0.07337952,0.9972992,1.0,-0.0009002686,-0.08963013,0.9959717,-31.19902,5.68158,-27.91197,3.672256,0.4791404,0.4018738,1.0,0.004440308,-0.05787659,0.9983063,29.12038,7.083389,-26.4496,3.399506,0.6204621,0.3335954,0.2042905,1.165209,-0.1947299,-0.002080574,0.674136,0.03909291,1.949304,23.3892,29.05
2,-0.001235962,-0.07244873,0.9973602,1.0,-0.002792358,-0.08955383,0.9959717,-31.21941,5.694244,-27.94792,3.646561,0.4801384,0.4017439,1.0,6.103516e-05,-0.05815125,0.9983063,29.11247,7.083389,-26.43785,3.396347,0.6214643,0.3335476,0.204132,1.165157,-0.1948712,-0.001937806,0.6737899,0.03902281,1.949304,23.3892,29.05
2,-0.001235962,-0.07244873,0.9973602,1.0,-0.002792358,-0.08955383,0.9959717,-31.21941,5.694244,-27.94792,3.646561,0.4801384,0.4017439,1.0,6.103516e-05,-0.05815125,0.9983063,29.11247,7.083389,-26.43785,3.396347,0.6214643,0.3335476,0.204132,1.165157,-0.1948712,-0.001937806,0.6737899,0.03902281,1.949304,23.3892,29.05
2,-0.004562378,-0.07299805,0.9973145,1.0,-0.005477905,-0.09260559,0.9956818,-31.22696,5.721558,-27.94792,3.630997,0.4808401,0.4013523,1.0,-0.003845215,-0.05743408,0.9983368,29.10806,7.082779,-26.43707,3.392014,0.6222828,0.3334273,0.2038727,1.165037,-0.1952071,-0.001871303,0.6733039,0.03881241,1.949304,23.3892,29.05
2,-0.005264282,-0.07260132,0.997345,1.0,-0.007232666,-0.09231567,0.995697,-31.23021,5.721573,-27.94792,3.623764,0.4812411,0.4013065,1.0,-0.003631592,-0.05628967,0.9983978,29.1035,7.082672,-26.4348,3.390808,0.6224002,0.3332137,0.2037795,1.165025,-0.1953394,-0.001879249,0.6731493,0.03874209,1.949304,23.3892,29.05
2,-0.005264282,-0.07260132,0.997345,1.0,-0.007232666,-0.09231567,0.995697,-31.23021,5.721573,-27.94792,3.623764,0.4812411,0.4013065,1.0,-0.003631592,-0.05628967,0.9983978,29.1035,7.082672,-26.4348,3.390808,0.6224002,0.3332137,0.2037795,1.165025,-0.1953394,-0.001879249,0.6731493,0.03874209,1.949304,23.3892,29.05
2,-0.005111694,-0.07383728,0.9972534,1.0,-0.007965088,-0.08576965,0.9962769,-31.24019,5.722076,-27.94792,3.624512,0.4817007,0.4001665,1.0,-0.001373291,-0.05813599,0.9983063,29.08716,7.079681,-26.3278,3.39061,0.6224474,0.3328072,0.2034894,1.164994,-0.195771,-0.001902888,0.6729931,0.03869244,1.949304,23.3892,29.05
2,-0.006134033,-0.0770874,0.996994,1.0,-0.00869751,-0.08538818,0.9963074,-31.2433,5.722809,-27.9337,3.619293,0.481927,0.3999546,1.0,-0.001037598,-0.0606842,0.9981537,29.08015,7.079681,-26.26569,3.392029,0.6225548,0.3327678,0.2033998,1.164946,-0.1960086,-0.001898968,0.6729043,0.03863443,1.949304,23.3892,29.05
2,-0.009262085,-0.07765198,0.996933,1.0,-0.01145935,-0.08261108,0.9965057,-31.25172,5.722992,-27.91466,3.625839,0.4826694,0.3993219,1.0,-0.0009765625,-0.05900574,0.9982452,29.06918,7.079681,-26.19971,3.375137,0.6228368,0.3319721,0.2031785,1.164996,-0.1964848,-0.001900929,0.6727406,0.03896654,1.949304,23.3892,29.05
2,-0.009262085,-0.07765198,0.996933,1.0,-0.01145935,-0.08261108,0.9965057,-31.25172,5.722992,-27.91466,3.625839,0.4826694,0.3993219,1.0,-0.0009765625,-0.05900574,0.9982452,29.06918,7.079681,-26.19971,3.375137,0.6228368,0.3319721,0.2031785,1.164996,-0.1964848,-0.001900929,0.6727406,0.03896654,1.949304,23.3892,29.05
2,-0.01043701,-0.07588196,0.9970551,1.0,-0.01237488,-0.07922363,0.9967651,-31.25867,5.723114,-27.87297,3.621872,0.4830517,0.3983982,1.0,-0.001052856,-0.05966187,0.9982147,29.06189,7.079681,-26.16701,3.382706,0.623057,0.3318449,0.203064,1.16502,-0.1967523,-0.002084152,0.6727219,0.0392012,1.949304,23.3892,29.05
2,-0.009170532,-0.07136536,0.997406,1.0,-0.0118866,-0.07505798,0.9971008,-31.26628,5.726379,-27.86815,3.622452,0.4832299,0.3975307,1.0,-7.629395e-05,-0.05900574,0.9982452,29.05417,7.079681,-26.11385,3.384705,0.6230934,0.3313121,0.2029754,1.165056,-0.1969797,-0.002209102,0.672656,0.03946715,1.949304,23.3892,29.05
2,-0.009170532,-0.07136536,0.997406,1.0,-0.0118866,-0.07505798,0.9971008,-31.26628,5.726379,-27.86815,3.622452,0.4832299,0.3975307,1.0,-7.629395e-05,-0.05900574,0.9982452,29.05417,7.079681,-26.11385,3.384705,0.6230934,0.3313121,0.2029754,1.165056,-0.1969797,-0.002209102,0.672656,0.03946715,1.949304,23.3892,29.05
2,-0.007217407,-0.06788635,0.9976654,1.0,-0.01145935,-0.07447815,0.9971466,-31.27435,5.731766,-27.8425,3.631821,0.4834267,0.3970462,1.0,0.000289917,-0.0561676,0.9984131,29.05017,7.083527,-26.11385,3.384659,0.6231693,0.3306896,0.2028817,1.165131,-0.1972142,-0.002371748,0.672553,0.03965209,1.949304,23.3892,29.05
2,-0.008377075,-0.06593323,0.9977875,1.0,-0.01467896,-0.07452393,0.9971008,-31.27985,5.739456,-27.8297,3.632141,0.4841457,0.3966938,1.0,-0.0003051758,-0.05491638,0.9984894,29.04938,7.085587,-26.11385,3.384567,0.6233042,0.3304013,0.2028413,1.165214,-0.1976062,-0.002807617,0.6723331,0.04005004,1.949304,-7.116287,29.05
2,-0.008377075,-0.06593323,0.9977875,1.0,-0.01467896,-0.07452393,0.9971008,-31.27985,5.739456,-27.8297,3.632141,0.4841457,0.3966938,1.0,-0.0003051758,-0.05491638,0.9984894,29.04938,7.085587,-26.11385,3.384567,0.6233042,0.3304013,0.2028413,1.165214,-0.1976062,-0.002807617,0.6723331,0.04005004,1.949304,-7.116287,29.05
2,-0.008560181,-0.06254578,0.9980011,1.0,-0.01579285,-0.07188416,0.9972839,-31.28252,5.74231,-27.8273,3.632858,0.4844238,0.3961239,1.0,-0.001403809,-0.05329895,0.9985657,29.04938,7.095169,-26.11385,3.385269,0.6235021,0.3297905,0.202782,1.16526,-0.1978192,-0.002918221,0.6721727,0.04022777,1.949304,-7.116287,29.05
2,-0.01019287,-0.06333923,0.9979248,1.0,-0.01896667,-0.07305908,0.9971313,-31.28294,5.752228,-27.8181,3.625595,0.4849645,0.3959266,1.0,-0.002548218,-0.05485535,0.9984894,29.04938,7.110687,-26.12015,3.383347,0.6237078,0.3295716,0.2026987,1.165296,-0.1981697,-0.003402676,0.671716,0.04065894,1.949304,-7.116287,29.05
2,-0.01019287,-0.06333923,0.9979248,1.0,-0.01896667,-0.07305908,0.9971313,-31.28294,5.752228,-27.8181,3.625595,0.4849645,0.3959266,1.0,-0.002548218,-0.05485535,0.9984894,29.04938,7.110687,-26.12015,3.383347,0.6237078,0.3295716,0.2026987,1.165296,-0.1981697,-0.003402676,0.671716,0.04065894,1.949304,-7.116287,29.05
2,-0.01080322,-0.0640564,0.997879,1.0,-0.01904297,-0.07409668,0.9970551,-31.28644,5.758652,-27.8181,3.633148,0.4850945,0.3958884,1.0,-0.002990723,-0.05451965,0.9985046,29.04881,7.117935,-26.13365,3.386139,0.6238251,0.3293678,0.2026218,1.16533,-0.198329,-0.003698549,0.6714289,0.04072285,1.949304,-7.116287,29.05
2,-0.01278687,-0.06443787,0.9978333,1.0,-0.02035522,-0.07336426,0.9970856,-31.28961,5.762161,-27.8181,3.638519,0.4854198,0.3956551,1.0,-0.004211426,-0.05432129,0.9985046,29.04881,7.124817,-26.16875,3.387787,0.6240784,0.3293678,0.202592,1.165416,-0.1985936,-0.003997686,0.6709516,0.04098609,1.949304,-7.116287,29.05
2,-0.01324463,-0.06687927,0.9976654,1.0,-0.01947021,-0.07487488,0.996994,-31.29488,5.764343,-27.82036,3.638489,0.4854479,0.395862,1.0,-0.005340576,-0.05674744,0.9983673,29.04881,7.124817,-26.16875,3.387268,0.6242669,0.3297905,0.202592,1.165416,-0.1985936,-0.003997686,0.6709516,0.04098609,1.949304,-7.116287,29.05
2,-0.01324463,-0.06687927,0.9976654,1.0,-0.01947021,-0.07487488,0.996994,-31.29488,5.764343,-27.82036,3.638489,0.4854479,0.395862,1.0,-0.005340576,-0.05674744,0.9983673,29.04881,7.124817,-26.16875,3.387268,0.6242669,0.3297905,0.202592,1.165416,-0.1985936,-0.003997686,0.6709516,0.04098609,1.949304,-7.116287,29.05
2,-0.01477051,-0.0670166,0.9976349,1.0,-0.02156067,-0.07484436,0.9969482,-31.29568,5.764343,-27.82036,3.639267,0.4858212,0.395862,1.0,-0.006027222,-0.0569458,0.9983521,29.04881,7.124817,-26.16875,3.384445,0.6243828,0.3298268,0.2024819,1.165543,-0.1988294,-0.004415673,0.6702784,0.04105802,1.949304,-7.116287,29.05
2,-0.01681519,-0.06690979,0.9976044,1.0,-0.02607727,-0.07499695,0.9968414,-31.29945,5.764343,-27.81915,3.67157,0.4866972,0.3958907,1.0,-0.005706787,-0.05717468,0.9983368,29.04468,7.124817,-26.16875,3.38736,0.6244675,0.3298644,0.2024761,1.165542,-0.1989778,-0.004805138,0.6693927,0.04105131,1.949304,-7.116287,29.05
2,-0.01690674,-0.06825256,0.9975128,1.0,-0.02687073,-0.07704163,0.9966583,-31.30719,5.764343,-27.81915,3.686569,0.487084,0.3962496,1.0,-0.006408691,-0.05897522,0.99823,29.03632,7.123367,-26.16458,3.386856,0.6248652,0.3301939,0.2025265,1.1655,-0.1990853,-0.004779486,0.668228,0.04118512,1.949304,-7.116287,29.05
2,-0.01690674,-0.06825256,0.9975128,1.0,-0.02687073,-0.07704163,0.9966583,-31.30719,5.764343,-27.81915,3.686569,0.487084,0.3962496,1.0,-0.006408691,-0.05897522,0.99823,29.03632,7.123367,-26.16458,3.386856,0.6248652,0.3301939,0.2025265,1.1655,-0.1990853,-0.004779486,0.668228,0.04118512,1.949304,-7.116287,29.05
2,-0.01870728,-0.06886292,0.9974365,1.0,-0.02784729,-0.07710266,0.9966278,-31.31592,5.765732,-27.83385,3.68605,0.4875404,0.3963408,1.0,-0.007797241,-0.05903625,0.9982147,29.0235,7.105408,-26.1042,3.398682,0.6254605,0.3303537,0.2026112,1.165533,-0.1991028,-0.004704065,0.666735,0.04129316,1.949304,-7.116287,29.05
2,-0.01870728,-0.06886292,0.9974365,1.0,-0.02784729,-0.07710266,0.9966278,-31.31592,5.765732,-27.83385,3.68605,0.4875404,0.3963408,1.0,-0.007797241,-0.05903625,0.9982147,29.0235,7.105408,-26.1042,3.398682,0.6254605,0.3303537,0.2026112,1.165533,-0.1991028,-0.004704065,0.666735,0.04129316,1.949304,-7.116287,29.05
2,0.07022095,-0.05780029,0.9958496,1.0,0.06985474,-0.05937195,0.9957733,-30.5927,6.016571,-28.4324,3.77449,0.4470272,0.389585,1.0,0.08146667,-0.008087158,0.9966278,29.70389,7.43898,-27.37798,3.661743,0.5885898,0.3202562,0.2027177,1.16551,-0.1988637,-0.00514074,0.6646748,0.04115608,1.949304,-7.605888,29.05
2,0.07022095,-0.05780029,0.9958496,1.0,0.06985474,-0.05937195,0.9957733,-30.5927,6.016571,-28.4324,3.77449,0.4470272,0.389585,1.0,0.08146667,-0.008087158,0.9966278,29.70389,7.43898,-27.37798,3.661743,0.5885898,0.3202562,0.2027177,1.16551,-0.1988637,-0.00514074,0.6646748,0.04115608,1.949304,-7.605888,29.05
2,0.1520691,-0.03578186,0.9877167,0.9895619,0.1519012,-0.03599548,0.9877319,-29.98129,6.10199,-28.17696,3.700119,0.4127269,0.3804668,0.9334627,0.1801147,-0.0002441406,0.9836426,30.14256,7.367447,-26.71411,3.45137,0.556196,0.316367,0.2026633,1.165549,-0.1985648,-0.005441379,0.6622565,0.04089829,1.949304,-7.605888,29.05
2,0.1520691,-0.03578186,0.9877167,0.9895619,0.1519012,-0.03599548,0.9877319,-29.98129,6.10199,-28.17696,3.700119,0.4127269,0.3804668,0.9334627,0.1801147,-0.0002441406,0.9836426,30.14256,7.367447,-26.71411,3.45137,0.556196,0.316367,0.2026633,1.165549,-0.1985648,-0.005441379,0.6622565,0.04089829,1.949304,-7.605888,29.05
2,0.2754669,-0.0176239,0.9611359,1.0,0.2753906,-0.01763916,0.9611664,-29.31075,6.130997,-28.21017,3.817062,0.3689767,0.3768799,1.0,0.2886658,-0.0151825,0.9573059,30.66089,7.331772,-26.5677,3.396149,0.5198392,0.3202041,0.2027994,1.165467,-0.1982071,-0.005528316,0.6599218,0.04045135,1.991583,-7.605888,29.05
2,0.2754669,-0.0176239,0.9611359,1.0,0.2753906,-0.01763916,0.9611664,-29.31075,6.130997,-28.21017,3.817062,0.3689767,0.3768799,1.0,0.2886658,-0.0151825,0.9573059,30.66089,7.331772,-26.5677,3.396149,0.5198392,0.3202041,0.2027994,1.165467,-0.1982071,-0.005528316,0.6599218,0.04045135,1.991583,-7.605888,29.05
2,0.3024139,-0.01629639,0.9530334,1.0,0.3023071,-0.01634216,0.953064,-29.20987,6.117294,-28.25406,3.91954,0.3608849,0.3776278,1.0,0.3197784,-0.00881958,0.9474335,30.86491,7.326599,-26.63387,3.464371,0.5076143,0.3200701,0.2028404,1.165384,-0.1978231,-0.005322322,0.6574461,0.04002659,1.991583,-7.605888,29.05
2,0.3024139,-0.01629639,0.9530334,1.0,0.3023071,-0.01634216,0.953064,-29.20987,6.117294,-28.25406,3.91954,0.3608849,0.3776278,1.0,0.3197784,-0.00881958,0.9474335,30.86491,7.326599,-26.63387,3.464371,0.5076143,0.3200701,0.2028404,1.165384,-0.1978231,-0.005322322,0.6574461,0.04002659,1.991583,-7.605888,29.05
2,0.298233,-0.00793457,0.9544525,1.0,0.2940063,-0.01300049,0.9557037,-29.30144,6.072952,-28.22714,3.85878,0.3654317,0.3783348,1.0,0.3016968,-0.003768921,0.9533844,30.85503,7.275574,-26.62984,3.493637,0.5110841,0.3207219,0.2028968,1.165285,-0.1974336,-0.005105108,0.6551587,0.03983628,1.991583,-7.605888,29.05
2,0.298233,-0.00793457,0.9544525,1.0,0.2940063,-0.01300049,0.9557037,-29.30144,6.072952,-28.22714,3.85878,0.3654317,0.3783348,1.0,0.3016968,-0.003768921,0.9533844,30.85503,7.275574,-26.62984,3.493637,0.5110841,0.3207219,0.2028968,1.165285,-0.1974336,-0.005105108,0.6551587,0.03983628,1.991583,-7.605888,29.05
2,0.2998047,-0.008483887,0.953949,1.0,0.2907715,-0.0176239,0.9566193,-29.37247,6.056,-28.21335,3.864807,0.368437,0.3796259,1.0,0.3092194,0.001052856,0.9509735,30.79915,7.261292,-26.63147,3.560333,0.511718,0.3204675,0.2029339,1.165287,-0.1969645,-0.004985493,0.6527615,0.03990411,1.991583,-7.605888,29.05
2,0.2998047,-0.008483887,0.953949,1.0,0.2907715,-0.0176239,0.9566193,-29.37247,6.056,-28.21335,3.864807,0.368437,0.3796259,1.0,0.3092194,0.001052856,0.9509735,30.79915,7.261292,-26.63147,3.560333,0.511718,0.3204675,0.2029339,1.165287,-0.1969645,-0.004985493,0.6527615,0.03990411,1.991583,-7.605888,29.05
2,0.2808228,-0.01425171,0.9596405,1.0,0.266983,-0.02264404,0.9634247,-29.44417,6.055115,-28.1837,3.866974,0.3750134,0.3801591,1.0,0.2924652,-0.007141113,0.9562378,30.8011,7.276627,-26.61893,3.445313,0.5144678,0.3210912,0.2029883,1.16531,-0.1965098,-0.005266736,0.6501988,0.04044499,1.991583,-7.605888,29.05
2,0.2808228,-0.01425171,0.9596405,1.0,0.266983,-0.02264404,0.9634247,-29.44417,6.055115,-28.1837,3.866974,0.3750134,0.3801591,1.0,0.2924652,-0.007141113,0.9562378,30.8011,7.276627,-26.61893,3.445313,0.5144678,0.3210912,0.2029883,1.16531,-0.1965098,-0.005266736,0.6501988,0.04044499,1.991583,-7.605888,29.05
2,0.2663727,-0.01075745,0.9638062,1.0,0.2451019,-0.01745605,0.9693298,-29.48775,6.0513,-28.16136,3.852661,0.3802489,0.3790796,1.0,0.2835693,-0.0052948,0.9589233,30.79466,7.270416,-26.61699,3.470535,0.516238,0.3208843,0.2031077,1.165368,-0.1960166,-0.005384256,0.6478951,0.04085117,1.991583,-7.605888,29.05
2,0.2663727,-0.01075745,0.9638062,1.0,0.2451019,-0.01745605,0.9693298,-29.48775,6.0513,-28.16136,3.852661,0.3802489,0.3790796,1.0,0.2835693,-0.0052948,0.9589233,30.79466,7.270416,-26.61699,3.470535,0.516238,0.3208843,0.2031077,1.165368,-0.1960166,-0.005384256,0.6478951,0.04085117,1.991583,-7.605888,29.05
2,0.2529755,-0.01296997,0.9673767,1.0,0.241272,-0.0206604,0.9702301,-29.61121,6.028183,-28.1432,3.845963,0.3851002,0.3803208,1.0,0.2619324,-0.007064819,0.9650574,30.72882,7.26622,-26.5899,3.496078,0.5222072,0.3209392,0.2032955,1.16542,-0.1955472,-0.005783866,0.6456834,0.04114711,1.991583,5.161667,29.05
2,0.2529755,-0.01296997,0.9673767,1.0,0.241272,-0.0206604,0.9702301,-29.61121,6.028183,-28.1432,3.845963,0.3851002,0.3803208,1.0,0.2619324,-0.007064819,0.9650574,30.72882,7.26622,-26.5899,3.496078,0.5222072,0.3209392,0.2032955,1.16542,-0.1955472,-0.005783866,0.6456834,0.04114711,1.991583,5.161667,29.05
2,0.2476807,-0.01823425,0.9686584,1.0,0.2342529,-0.02041626,0.9719543,-29.69325,6.019135,-28.12352,3.926346,0.3891219,0.3804527,1.0,0.2591553,-0.01635742,0.965683,30.65948,7.284164,-26.57837,3.517639,0.5250603,0.32186,0.2033849,1.165531,-0.1949546,-0.006210609,0.643528,0.04168116,1.991583,5.161667,29.05
2,0.2476807,-0.01823425,0.9686584,1.0,0.2342529,-0.02041626,0.9719543,-29.69325,6.019135,-28.12352,3.926346,0.3891219,0.3804527,1.0,0.2591553,-0.01635742,0.965683,30.65948,7.284164,-26.57837,3.517639,0.5250603,0.32186,0.2033849,1.165531,-0.1949546,-0.006210609,0.643528,0.04168116,1.991583,5.161667,29.05
2,0.2223358,-0.02111816,0.9747314,1.0,0.2090607,-0.03144836,0.9773865,-29.76808,6.002899,-28.10916,3.841461,0.3959354,0.382655,1.0,0.2353058,-0.01097107,0.9718475,30.60306,7.259949,-26.56227,3.631622,0.5311259,0.3214366,0.2034644,1.1657,-0.1943911,-0.006830486,0.6412828,0.04228622,1.991583,5.161667,29.05
2,0.2223358,-0.02111816,0.9747314,1.0,0.2090607,-0.03144836,0.9773865,-29.76808,6.002899,-28.10916,3.841461,0.3959354,0.382655,1.0,0.2353058,-0.01097107,0.9718475,30.60306,7.259949,-26.56227,3.631622,0.5311259,0.3214366,0.2034644,1.1657,-0.1943911,-0.006830486,0.6412828,0.04228622,1.991583,5.161667,29.05
2,0.2056427,-0.02459717,0.978302,1.0,0.1878815,-0.03497314,0.9815521,-29.81717,6.009537,-28.10378,3.796463,0.4011806,0.3829173,1.0,0.2227783,-0.01452637,0.9747467,30.57361,7.261078,-26.56297,3.579926,0.534233,0.3219257,0.2035716,1.165786,-0.1938059,-0.007587041,0.639156,0.04317512,1.991583,5.161667,29.05
2,0.2056427,-0.02459717,0.978302,1.0,0.1878815,-0.03497314,0.9815521,-29.81717,6.009537,-28.10378,3.796463,0.4011806,0.3829173,1.0,0.2227783,-0.01452637,0.9747467,30.57361,7.261078,-26.56297,3.579926,0.534233,0.3219257,0.2035716,1.165786,-0.1938059,-0.007587041,0.639156,0.04317512,1.991583,5.161667,29.05
3,0.2059174,-0.02774048,0.9781647,1.0,0.1870575,-0.03570557,0.9816895,-29.90065,5.983383,-28.0305,3.771164,0.4041645,0.3833526,1.0,0.2214508,-0.02114868,0.9749298,30.46564,7.243103,-26.56552,3.610535,0.5381357,0.3237211,0.2036666,1.165909,-0.1932494,-0.00839361,0.6370869,0.04406383,1.991583,5.161667,29.05
3,0.2059174,-0.02774048,0.9781647,1.0,0.1870575,-0.03570557,0.9816895,-29.90065,5.983383,-28.0305,3.771164,0.4041645,0.3833526,1.0,0.2214508,-0.02114868,0.9749298,30.46564,7.243103,-26.56552,3.610535,0.5381357,0.3237211,0.2036666,1.165909,-0.1932494,-0.00839361,0.6370869,0.04406383,1.991583,5.161667,29.05
3,0.2035217,-0.0292511,0.9786224,1.0,0.1847687,-0.04678345,0.9816589,-29.85551,5.992172,-28.06123,3.904022,0.4030764,0.3852196,1.0,0.2169647,-0.0165863,0.9760284,30.52121,7.256622,-26.5923,3.649033,0.5370612,0.3226365,0.2036854,1.166057,-0.1925629,-0.009216511,0.6347927,0.04535918,1.991583,5.161667,29.05
3,0.2035217,-0.0292511,0.9786224,1.0,0.1847687,-0.04678345,0.9816589,-29.85551,5.992172,-28.06123,3.904022,0.4030764,0.3852196,1.0,0.2169647,-0.0165863,0.9760284,30.52121,7.256622,-26.5923,3.649033,0.5370612,0.3226365,0.2036854,1.166057,-0.1925629,-0.009216511,0.6347927,0.04535918,1.991583,5.161667,29.05
3,0.3396606,0.007537842,0.940506,1.0,0.330658,0.02534485,0.9434052,-29.15839,6.217194,-28.26711,3.890045,0.3539765,0.3672842,1.0,0.3440094,-0.001190186,0.9389496,30.98096,7.483047,-26.69064,3.539688,0.4995628,0.3140384,0.2036444,1.166196,-0.1917813,-0.010095,0.6320267,0.04630264,1.991583,5.161667,29.05
3,0.3396606,0.007537842,0.940506,1.0,0.330658,0.02534485,0.9434052,-29.15839,6.217194,-28.26711,3.890045,0.3539765,0.3672842,1.0,0.3440094,-0.001190186,0.9389496,30.98096,7.483047,-26.69064,3.539688,0.4995628,0.3140384,0.2036444,1.166196,-0.1917813,-0.010095,0.6320267,0.04630264,1.991583,5.161667,29.05
3,0.4023743,0.02688599,0.9150696,1.0,0.4103088,0.03213501,0.911377,-28.69864,6.360275,-28.44467,4.085266,0.3238097,0.3629495,1.0,0.401123,0.02607727,0.9156494,31.32088,7.596741,-26.81946,3.563522,0.4779638,0.306874,0.2035297,1.1663,-0.1910597,-0.01086632,0.6293408,0.04690551,1.991583,5.177368,29.05
3,0.4023743,0.02688599,0.9150696,1.0,0.4103088,0.03213501,0.911377,-28.69864,6.360275,-28.44467,4.085266,0.3238097,0.3629495,1.0,0.401123,0.02607727,0.9156494,31.32088,7.596741,-26.81946,3.563522,0.4779638,0.306874,0.2035297,1.1663,-0.1910597,-0.01086632,0.6293408,0.04690551,1.991583,5.177368,29.05
3,0.3949432,0.04122925,0.9177704,1.0,0.3969727,0.03797913,0.917038,-28.85182,6.274826,-28.39876,4.027695,0.3315169,0.3645149,1.0,0.394455,0.04200745,0.9179382,31.32628,7.545853,-26.82886,3.683472,0.4790099,0.3058104,0.2034652,1.166394,-0.1902748,-0.011292,0.626927,0.04697234,1.991583,5.177368,29.05
3,0.3949432,0.04122925,0.9177704,1.0,0.3969727,0.03797913,0.917038,-28.85182,6.274826,-28.39876,4.027695,0.3315169,0.3645149,1.0,0.394455,0.04200745,0.9179382,31.32628,7.545853,-26.82886,3.683472,0.4790099,0.3058104,0.2034652,1.166394,-0.1902748,-0.011292,0.626927,0.04697234,1.991583,5.177368,29.05
3,0.3706207,0.03263855,0.9281921,1.0,0.3599548,0.0211792,0.932724,-28.9015,6.202362,-28.33946,3.968613,0.3399888,0.3691375,1.0,0.3789825,0.04168701,0.9244537,31.28133,7.472748,-26.80901,3.633987,0.4832107,0.3080667,0.2034351,1.166477,-0.1899122,-0.01147234,0.6258225,0.04702631,1.991583,5.177368,29.05
3,0.3706207,0.03263855,0.9281921,1.0,0.3599548,0.0211792,0.932724,-28.9015,6.202362,-28.33946,3.968613,0.3399888,0.3691375,1.0,0.3789825,0.04168701,0.9244537,31.28133,7.472748,-26.80901,3.633987,0.4832107,0.3080667,0.2034351,1.166477,-0.1899122,-0.01147234,0.6258225,0.04702631,1.991583,5.177368,29.05
3,0.354126,0.02806091,0.9347687,1.0,0.3522339,0.02127075,0.9356537,-28.98854,6.187683,-28.31483,3.957794,0.344368,0.3694387,1.0,0.3554077,0.03265381,0.9341278,31.20583,7.429337,-26.76514,3.665924,0.489966,0.3105633,0.2033993,1.166531,-0.1894302,-0.01181216,0.6238019,0.04725122,1.991583,5.177368,29.05
3,0.3597565,0.03259277,0.9324646,1.0,0.3527832,0.02552795,0.9353485,-29.09682,6.170731,-28.29996,4.004532,0.3480056,0.3692779,1.0,0.3654175,0.03834534,0.9300385,31.14413,7.41069,-26.77104,3.684967,0.4903042,0.3103979,0.2033614,1.166574,-0.1891441,-0.01179006,0.6228607,0.04734841,1.991583,5.177368,29.05
3,0.3597565,0.03259277,0.9324646,1.0,0.3527832,0.02552795,0.9353485,-29.09682,6.170731,-28.29996,4.004532,0.3480056,0.3692779,1.0,0.3654175,0.03834534,0.9300385,31.14413,7.41069,-26.77104,3.684967,0.4903042,0.3103979,0.2033614,1.166574,-0.1891441,-0.01179006,0.6228607,0.04734841,1.991583,5.177368,29.05
3,0.3464813,0.03132629,0.9375305,1.0,0.3482513,0.01872253,0.9372101,-29.14259,6.124329,-28.28822,3.959656,0.3504019,0.3719392,1.0,0.3447113,0.04354858,0.9376831,31.11887,7.378235,-26.75175,3.610855,0.4946944,0.3102055,0.2032627,1.166575,-0.1886569,-0.01167352,0.6212304,0.04754525,1.991583,5.177368,29.05
3,0.3284912,0.03074646,0.9440002,1.0,0.3123322,0.02192688,0.949707,-29.22488,6.063644,-28.24475,3.93512,0.3595359,0.372861,1.0,0.3425293,0.03843689,0.9387054,31.07408,7.324539,-26.74434,3.805176,0.4967746,0.3129361,0.2032595,1.166577,-0.1884284,-0.01134597,0.6204531,0.04756248,1.991583,5.177368,29.05
3,0.3284912,0.03074646,0.9440002,1.0,0.3123322,0.02192688,0.949707,-29.22488,6.063644,-28.24475,3.93512,0.3595359,0.372861,1.0,0.3425293,0.03843689,0.9387054,31.07408,7.324539,-26.74434,3.805176,0.4967746,0.3129361,0.2032595,1.166577,-0.1884284,-0.01134597,0.6204531,0.04756248,1.991583,5.177368,29.05
3,0.3195648,0.02210999,0.9472961,1.0,0.3039551,0.01106262,0.9526215,-29.22029,6.072845,-28.23911,4.013336,0.3609248,0.3743242,1.0,0.332428,0.03126526,0.9425964,31.03452,7.332336,-26.72238,3.753723,0.499849,0.3136399,0.2032443,1.166474,-0.1880439,-0.010598,0.6192881,0.04771786,1.991583,5.177368,29.05
3,0.318512,0.02729797,0.9475098,1.0,0.3002319,0.01937866,0.9536591,-29.25716,6.061447,-28.22902,4.064362,0.3628317,0.3732107,1.0,0.3325043,0.03340149,0.9425049,30.98387,7.322937,-26.71599,3.757538,0.5015463,0.3135587,0.2032566,1.166436,-0.1878358,-0.01025027,0.6188934,0.04790494,1.991583,5.177368,29.05
3,0.318512,0.02729797,0.9475098,1.0,0.3002319,0.01937866,0.9536591,-29.25716,6.061447,-28.22902,4.064362,0.3628317,0.3732107,1.0,0.3325043,0.03340149,0.9425049,30.98387,7.322937,-26.71599,3.757538,0.5015463,0.3135587,0.2032566,1.166436,-0.1878358,-0.01025027,0.6188934,0.04790494,1.991583,5.177368,29.05
3,0.3146667,0.02061462,0.9489746,1.0,0.3019104,0.009033203,0.9532776,-29.28616,6.060104,-28.22147,3.985336,0.3635339,0.3749967,1.0,0.3250275,0.03009033,0.9452209,30.96809,7.322891,-26.70395,3.735413,0.5033696,0.3139646,0.2034234,1.166387,-0.1873655,-0.009668631,0.618221,0.04823314,1.991583,5.177368,29.05
3,0.3146667,0.02061462,0.9489746,1.0,0.3019104,0.009033203,0.9532776,-29.28616,6.060104,-28.22147,3.985336,0.3635339,0.3749967,1.0,0.3250275,0.03009033,0.9452209,30.96809,7.322891,-26.70395,3.735413,0.5033696,0.3139646,0.2034706,1.166361,-0.1872237,-0.009674025,0.6180437,0.04849673,1.991583,5.177368,29.05
3,0.3146667,0.02061462,0.9489746,1.0,0.3019104,0.009033203,0.9532776,-29.28616,6.060104,-28.22147,3.985336,0.3635339,0.3749967,1.0,0.3250275,0.03009033,0.9452209,30.96809,7.322891,-26.70395,3.735413,0.5033696,0.3139646,0.2034706,1.166361,-0.1872237,-0.009674025,0.6180437,0.04849673,1.991583,5.177368,29.05
3,0.3146667,0.02061462,0.9489746,1.0,0.3019104,0.009033203,0.9532776,-29.28616,6.060104,-28.22147,3.985336,0.3635339,0.3749967,1.0,0.3250275,0.03009033,0.9452209,30.96809,7.322891,-26.70395,3.735413,0.5033696,0.3139646,0.2035604,1.166361,-0.1869367,-0.009670173,0.6176112,0.04868058,1.991583,5.177368,29.05
3,0.3146667,0.02061462,0.9489746,1.0,0.3019104,0.009033203,0.9532776,-29.28616,6.060104,-28.22147,3.985336,0.3635339,0.3749967,1.0,0.3250275,0.03009033,0.9452209,30.96809,7.322891,-26.70395,3.735413,0.5033696,0.3139646,0.2036051,1.166339,-0.1868174,-0.009754938,0.6174405,0.0488565,1.991583,-6.194092,29.05
3,0.3146667,0.02061462,0.9489746,1.0,0.3019104,0.009033203,0.9532776,-29.28616,6.060104,-28.22147,3.985336,0.3635339,0.3749967,1.0,0.3250275,0.03009033,0.9452209,30.96809,7.322891,-26.70395,3.735413,0.5033696,0.3139646,0.2036051,1.166339,-0.1868174,-0.009754938,0.6174405,0.0488565,1.991583,-6.194092,29.05
3,0.2808838,0.02915955,0.9592896,1.0,0.2670593,0.01477051,0.963562,-29.4671,6.039734,-28.17122,3.977737,0.3757324,0.3741692,1.0,0.2950287,0.04402161,0.9544678,30.78938,7.305206,-26.65878,3.764664,0.5146052,0.3115202,0.203606,1.16628,-0.186551,-0.009880912,0.6172869,0.04880279,1.991583,-6.194092,29.05
3,0.2698822,0.0206604,0.9626617,1.0,0.2428131,-0.002761841,0.9700623,-29.51979,6.028214,-28.13947,4.073364,0.3817957,0.3772239,1.0,0.2935638,0.04138184,0.9550323,30.77948,7.299011,-26.65974,3.709991,0.5151551,0.3121816,0.2035887,1.166218,-0.1864625,-0.009937303,0.6172175,0.04875926,1.991583,-6.194092,29.05
3,0.2698822,0.0206604,0.9626617,1.0,0.2428131,-0.002761841,0.9700623,-29.51979,6.028214,-28.13947,4.073364,0.3817957,0.3772239,1.0,0.2935638,0.04138184,0.9550323,30.77948,7.299011,-26.65974,3.709991,0.5151551,0.3121816,0.2035887,1.166218,-0.1864625,-0.009937303,0.6172175,0.04875926,1.991583,-6.194092,29.05
3,0.2639313,0.02206421,0.9642792,1.0,0.2418365,0.00819397,0.9702759,-29.59724,6.021484,-28.13812,3.957336,0.3845121,0.3755694,1.0,0.2834015,0.03437805,0.958374,30.76552,7.286942,-26.65878,3.716476,0.5174007,0.3137225,0.2036892,1.166202,-0.1863354,-0.009731615,0.6171656,0.04859111,1.991583,-6.194092,29.05
3,0.2663116,0.02095032,0.9636536,1.0,0.2462616,0.005081177,0.9691772,-29.61754,6.024796,-28.13857,3.98793,0.384461,0.3760395,1.0,0.2839203,0.03500366,0.9581909,30.75822,7.282883,-26.65794,3.711014,0.5175499,0.3137464,0.2037021,1.166117,-0.186244,-0.009681338,0.6173783,0.0485754,1.991583,-6.194092,29.05
3,0.2663116,0.02095032,0.9636536,1.0,0.2462616,0.005081177,0.9691772,-29.61754,6.024796,-28.13857,3.98793,0.384461,0.3760395,1.0,0.2839203,0.03500366,0.9581909,30.75822,7.282883,-26.65794,3.711014,0.5175499,0.3137464,0.2037021,1.166117,-0.186244,-0.009681338,0.6173783,0.0485754,1.991583,-6.194092,29.05
3,0.2620392,0.01812744,0.9648743,1.0,0.2431335,0.001846313,0.969986,-29.64677,6.019394,-28.13213,4.029373,0.3860173,0.3767399,1.0,0.2795105,0.03330994,0.959549,30.74063,7.280884,-26.6532,3.719986,0.5189161,0.3140471,0.2037019,1.166138,-0.1862031,-0.009515223,0.6174238,0.04846822,1.991583,-6.194092,29.05
3,0.2558746,0.01235962,0.9666138,1.0,0.2360992,-0.007034302,0.9716949,-29.68877,6.011093,-28.11522,4.025269,0.3886715,0.3783936,1.0,0.2746887,0.03100586,0.9610291,30.71904,7.281677,-26.6478,3.729996,0.5204891,0.3143367,0.2037599,1.166126,-0.1860886,-0.00943857,0.6176864,0.04867063,1.991583,-6.194092,29.05
3,0.2566071,0.01119995,0.9664459,1.0,0.2350769,-0.008850098,0.9719238,-29.72301,6.015472,-28.10431,4.074448,0.3900322,0.3785078,1.0,0.2765198,0.029953,0.9605255,30.68784,7.284561,-26.64349,3.735123,0.5212368,0.314408,0.2037648,1.166131,-0.1860728,-0.009447249,0.6177952,0.04883583,1.991583,-6.194092,29.05
3,0.2566071,0.01119995,0.9664459,1.0,0.2350769,-0.008850098,0.9719238,-29.72301,6.015472,-28.10431,4.074448,0.3900322,0.3785078,1.0,0.2765198,0.029953,0.9605255,30.68784,7.284561,-26.64349,3.735123,0.5212368,0.314408,0.2037648,1.166131,-0.1860728,-0.009447249,0.6177952,0.04883583,1.991583,-6.194092,29.05
3,0.2563477,0.007156372,0.9665527,1.0,0.230011,-0.01657104,0.9730377,-29.76199,6.013687,-28.09573,4.021271,0.3922144,0.3797913,1.0,0.2804565,0.02914429,0.9594116,30.65454,7.286942,-26.63689,3.739136,0.521688,0.3144665,0.2037724,1.166206,-0.1860785,-0.00941842,0.6181491,0.04910945,1.991583,-6.194092,29.05
3,0.2563477,0.007156372,0.9665527,1.0,0.230011,-0.01657104,0.9730377,-29.76199,6.013687,-28.09573,4.021271,0.3922144,0.3797913,1.0,0.2804565,0.02914429,0.9594116,30.65454,7.286942,-26.63689,3.739136,0.521688,0.3144665,0.2037724,1.166206,-0.1860785,-0.00941842,0.6181491,0.04910945,1.991583,-6.194092,29.05
3,0.2495728,0.01371765,0.9682465,1.0,0.223465,-0.002288818,0.9747009,-29.78574,6.010162,-28.09492,3.997772,0.3940935,0.3774305,1.0,0.2736511,0.02862549,0.9613953,30.64134,7.286942,-26.63475,3.737244,0.5233077,0.3144737,0.2037113,1.166322,-0.1861781,-0.009970238,0.6186194,0.04902351,1.991583,-6.194092,29.05
3,0.2495728,0.01371765,0.9682465,1.0,0.223465,-0.002288818,0.9747009,-29.78574,6.010162,-28.09492,3.997772,0.3940935,0.3774305,1.0,0.2736511,0.02862549,0.9613953,30.64134,7.286942,-26.63475,3.737244,0.5233077,0.3144737,0.2037113,1.166322,-0.1861781,-0.009970238,0.6186194,0.04902351,1.991583,-6.194092,29.05
3,0.2495728,0.01371765,0.9682465,1.0,0.223465,-0.002288818,0.9747009,-29.78574,6.010162,-28.09492,3.997772,0.3940935,0.3774305,1.0,0.2736511,0.02862549,0.9613953,30.64134,7.286942,-26.63475,3.737244,0.5233077,0.3144737,0.2037477,1.166407,-0.1862291,-0.01060256,0.6191348,0.04892782,1.991583,15.50273,29.05
3,0.2495728,0.01371765,0.9682465,1.0,0.223465,-0.002288818,0.9747009,-29.78574,6.010162,-28.09492,3.997772,0.3940935,0.3774305,1.0,0.2736511,0.02862549,0.9613953,30.64134,7.286942,-26.63475,3.737244,0.5233077,0.3144737,0.2037255,1.166498,-0.1864193,-0.01091728,0.6197439,0.04907553,1.991583,15.50273,29.05
3,0.2495728,0.01371765,0.9682465,1.0,0.223465,-0.002288818,0.9747009,-29.78574,6.010162,-28.09492,3.997772,0.3940935,0.3774305,1.0,0.2736511,0.02862549,0.9613953,30.64134,7.286942,-26.63475,3.737244,0.5233077,0.3144737,0.2037255,1.166498,-0.1864193,-0.01091728,0.6197439,0.04907553,1.991583,15.50273,29.05
3,0.2171783,-0.001174927,0.97612,1.0,0.2072144,-0.01817322,0.9781189,-29.8098,5.992493,-28.05992,3.982803,0.3977146,0.3803869,1.0,0.2275696,0.01670837,0.9736023,30.55243,7.313187,-26.58304,3.686661,0.5342024,0.3148638,0.2037266,1.166551,-0.1864737,-0.01100191,0.6200534,0.04913948,1.991583,15.50273,29.05
3,0.2123566,0.006988525,0.9771576,1.0,0.1860809,-0.01545715,0.9824066,-29.91479,5.937256,-27.88959,4.027054,0.4049364,0.3803671,1.0,0.2230988,0.01625061,0.9746552,30.47302,7.278992,-26.58871,3.709488,0.5376653,0.3161448,0.2036526,1.166532,-0.1866138,-0.01115759,0.6203661,0.04922197,1.991583,15.50273,29.05
3,0.2123566,0.006988525,0.9771576,1.0,0.1860809,-0.01545715,0.9824066,-29.91479,5.937256,-27.88959,4.027054,0.4049364,0.3803671,1.0,0.2230988,0.01625061,0.9746552,30.47302,7.278992,-26.58871,3.709488,0.5376653,0.3161448,0.2036526,1.166532,-0.1866138,-0.01115759,0.6203661,0.04922197,1.991583,15.50273,29.05
3,0.2116089,0.004425049,0.9773407,1.0,0.1844177,-0.02790833,0.9824371,-29.91745,5.96759,-27.98918,4.051498,0.4052831,0.3822921,1.0,0.2220764,0.01699829,0.9748688,30.46909,7.277756,-26.59016,3.719482,0.5379813,0.3160665,0.2035338,1.16662,-0.1868941,-0.01144014,0.6210445,0.04938842,1.991583,15.50273,29.05
3,0.2116089,0.004425049,0.9773407,1.0,0.1844177,-0.02790833,0.9824371,-29.91745,5.96759,-27.98918,4.051498,0.4052831,0.3822921,1.0,0.2220764,0.01699829,0.9748688,30.46909,7.277756,-26.59016,3.719482,0.5379813,0.3160665,0.2034645,1.166699,-0.1870906,-0.01185277,0.6218464,0.04932849,1.991583,15.50273,29.05
3,0.2116089,0.004425049,0.9773407,1.0,0.1844177,-0.02790833,0.9824371,-29.91745,5.96759,-27.98918,4.051498,0.4052831,0.3822921,1.0,0.2220764,0.01699829,0.9748688,30.46909,7.277756,-26.59016,3.719482,0.5379813,0.3160665,0.2034645,1.166699,-0.1870906,-0.01185277,0.6218464,0.04932849,1.991583,15.50273,29.05
3,0.2116089,0.004425049,0.9773407,1.0,0.1844177,-0.02790833,0.9824371,-29.91745,5.96759,-27.98918,4.051498,0.4052831,0.3822921,1.0,0.2220764,0.01699829,0.9748688,30.46909,7.277756,-26.59016,3.719482,0.5379813,0.3160665,0.2033756,1.166716,-0.1874088,-0.012178,0.6225191,0.04926585,1.991583,15.50273,29.05
3,0.2116089,0.004425049,0.9773407,1.0,0.1844177,-0.02790833,0.9824371,-29.91745,5.96759,-27.98918,4.051498,0.4052831,0.3822921,1.0,0.2220764,0.01699829,0.9748688,30.46909,7.277756,-26.59016,3.719482,0.5379813,0.3160665,0.2033756,1.166716,-0.1874088,-0.012178,0.6225191,0.04926585,1.991583,15.50273,29.05
3,0.1987305,0.007034302,0.9800262,1.0,0.174118,-0.02026367,0.9845123,-30.00919,5.820007,-27.63255,4.063644,0.4102658,0.3830498,1.0,0.2049255,0.01396179,0.9786682,30.36459,7.269348,-26.6628,3.804153,0.5445485,0.3173375,0.2033756,1.166716,-0.1874088,-0.012178,0.6225191,0.04926585,1.991583,15.50273,29.05
3,0.1987305,0.007034302,0.9800262,1.0,0.174118,-0.02026367,0.9845123,-30.00919,5.820007,-27.63255,4.063644,0.4102658,0.3830498,1.0,0.2049255,0.01396179,0.9786682,30.36459,7.269348,-26.6628,3.804153,0.5445485,0.3173375,0.2033756,1.166716,-0.1874088,-0.012178,0.6225191,0.04926585,1.991583,15.50273,29.05
3,0.1993561,0.009689331,0.9798737,1.0,0.1716461,-0.01777649,0.9849854,-30.0278,5.785385,-27.53152,4.085007,0.4113646,0.3829789,1.0,0.1998444,0.01017761,0.9797668,30.34616,7.265442,-26.68434,3.753357,0.546021,0.3182416,0.2033306,1.166801,-0.1878303,-0.01235747,0.6232768,0.04907895,1.991583,13.07771,29.05
3,0.1980743,0.009552002,0.9801331,1.0,0.1689911,-0.02009583,0.9853973,-30.02998,5.784256,-27.53198,4.082718,0.4118836,0.3834154,1.0,0.1984711,0.009963989,0.9800415,30.34261,7.26416,-26.68779,3.772018,0.5463913,0.3183431,0.2032694,1.166831,-0.1882269,-0.01261436,0.6241153,0.0488076,1.991583,13.07771,29.05
3,0.1980743,0.009552002,0.9801331,1.0,0.1689911,-0.02009583,0.9853973,-30.02998,5.784256,-27.53198,4.082718,0.4118836,0.3834154,1.0,0.1984711,0.009963989,0.9800415,30.34261,7.26416,-26.68779,3.772018,0.5463913,0.3183431,0.2032694,1.166831,-0.1882269,-0.01261436,0.6241153,0.0488076,1.991583,13.07771,29.05
3,0.1980743,0.009552002,0.9801331,1.0,0.1689911,-0.02009583,0.9853973,-30.02998,5.784256,-27.53198,4.082718,0.4118836,0.3834154,1.0,0.1984711,0.009963989,0.9800415,30.34261,7.26416,-26.68779,3.772018,0.5463913,0.3183431,0.2032217,1.166816,-0.1886388,-0.01285482,0.6249508,0.04834455,1.991583,13.07771,29.05
3,0.1980743,0.009552002,0.9801331,1.0,0.1689911,-0.02009583,0.9853973,-30.02998,5.784256,-27.53198,4.082718,0.4118836,0.3834154,1.0,0.1984711,0.009963989,0.9800415,30.34261,7.26416,-26.68779,3.772018,0.5463913,0.3183431,0.2032708,1.166733,-0.1891183,-0.0126055,0.6258935,0.04817874,1.991583,13.07771,29.05
3,0.1980743,0.009552002,0.9801331,1.0,0.1689911,-0.02009583,0.9853973,-30.02998,5.784256,-27.53198,4.082718,0.4118836,0.3834154,1.0,0.1984711,0.009963989,0.9800415,30.34261,7.26416,-26.68779,3.772018,0.5463913,0.3183431,0.2032708,1.166733,-0.1891183,-0.0126055,0.6258935,0.04817874,1.991583,13.07771,29.05
3,0.1962891,0.00668335,0.9805145,1.0,0.1607056,-0.03053284,0.9865265,-30.05083,5.872131,-27.90059,4.041901,0.4138068,0.3852077,1.0,0.1967926,0.007217407,0.9804077,30.33548,7.260834,-26.69556,3.771286,0.5469227,0.3189815,0.2033399,1.166713,-0.1896172,-0.01263236,0.6269065,0.04795654,1.991583,13.07771,29.05
3,0.1962891,0.00668335,0.9805145,1.0,0.1607056,-0.03053284,0.9865265,-30.05083,5.872131,-27.90059,4.041901,0.4138068,0.3852077,1.0,0.1967926,0.007217407,0.9804077,30.33548,7.260834,-26.69556,3.771286,0.5469227,0.3189815,0.2033399,1.166713,-0.1896172,-0.01263236,0.6269065,0.04795654,1.991583,13.07771,29.05
3,0.1833191,-0.0001983643,0.9830475,1.0,0.1622009,-0.02766418,0.9863586,-30.12207,5.809509,-27.69193,4.003937,0.41602,0.3851437,1.0,0.1856079,0.002792358,0.982605,30.25647,7.259903,-26.81659,3.707413,0.5515398,0.3206346,0.2034739,1.166613,-0.1901135,-0.01251623,0.6279075,0.04760006,1.991583,13.07771,29.05
3,0.1833191,-0.0001983643,0.9830475,1.0,0.1622009,-0.02766418,0.9863586,-30.12207,5.809509,-27.69193,4.003937,0.41602,0.3851437,1.0,0.1856079,0.002792358,0.982605,30.25647,7.259903,-26.81659,3.707413,0.5515398,0.3206346,0.2034739,1.166613,-0.1901135,-0.01251623,0.6279075,0.04760006,1.991583,13.07771,29.05
3,0.1833191,-0.0001983643,0.9830475,1.0,0.1622009,-0.02766418,0.9863586,-30.12207,5.809509,-27.69193,4.003937,0.41602,0.3851437,1.0,0.1856079,0.002792358,0.982605,30.25647,7.259903,-26.81659,3.707413,0.5515398,0.3206346,0.2034703,1.166534,-0.1905655,-0.01222746,0.6289034,0.04723041,1.991583,13.07771,29.05
3,0.1833191,-0.0001983643,0.9830475,1.0,0.1622009,-0.02766418,0.9863586,-30.12207,5.809509,-27.69193,4.003937,0.41602,0.3851437,1.0,0.1856079,0.002792358,0.982605,30.25647,7.259903,-26.81659,3.707413,0.5515398,0.3206346,0.2034703,1.166534,-0.1905655,-0.01222746,0.6289034,0.04723041,1.991583,13.07771,29.05
3,0.1833191,-0.0001983643,0.9830475,1.0,0.1622009,-0.02766418,0.9863586,-30.12207,5.809509,-27.69193,4.003937,0.41602,0.3851437,1.0,0.1856079,0.002792358,0.982605,30.25647,7.259903,-26.81659,3.707413,0.5515398,0.3206346,0.2034297,1.166431,-0.1911107,-0.01186377,0.6297993,0.04702932,1.991583,13.07771,29.05
3,0.1833191,-0.0001983643,0.9830475,1.0,0.1622009,-0.02766418,0.9863586,-30.12207,5.809509,-27.69193,4.003937,0.41602,0.3851437,1.0,0.1856079,0.002792358,0.982605,30.25647,7.259903,-26.81659,3.707413,0.5515398,0.3206346,0.2034297,1.166431,-0.1911107,-0.01186377,0.6297993,0.04702932,1.991583,13.07771,29.05
3,0.1682587,-0.01091003,0.985672,1.0,0.1499634,-0.03547668,0.9880524,-30.1539,5.819839,-27.75856,3.960464,0.4191048,0.3866208,1.0,0.1737061,-0.00352478,0.984787,30.23517,7.333298,-27.12961,3.737732,0.5545182,0.3215904,0.2034904,1.166294,-0.1915897,-0.01127946,0.6306483,0.04681807,1.991583,13.07771,29.05
3,0.1682587,-0.01091003,0.985672,1.0,0.1499634,-0.03547668,0.9880524,-30.1539,5.819839,-27.75856,3.960464,0.4191048,0.3866208,1.0,0.1737061,-0.00352478,0.984787,30.23517,7.333298,-27.12961,3.737732,0.5545182,0.3215904,0.2034904,1.166294,-0.1915897,-0.01127946,0.6306483,0.04681807,1.991583,13.07771,29.05
3,0.170578,-0.01756287,0.9851837,1.0,0.1434784,-0.04109192,0.9887848,-30.14478,5.897263,-28.05312,3.915787,0.4197609,0.3873499,1.0,0.1795654,-0.00970459,0.9836884,30.22443,7.300003,-27.03252,3.751099,0.5538315,0.3230535,0.2035598,1.166229,-0.1921563,-0.01099311,0.6315306,0.0463758,1.991583,-0.9822083,29.05
3,0.170578,-0.01756287,0.9851837,1.0,0.1434784,-0.04109192,0.9887848,-30.14478,5.897263,-28.05312,3.915787,0.4197609,0.3873499,1.0,0.1795654,-0.00970459,0.9836884,30.22443,7.300003,-27.03252,3.751099,0.5538315,0.3230535,0.2035598,1.166229,-0.1921563,-0.01099311,0.6315306,0.0463758,1.991583,-0.9822083,29.05
3,0.1697083,-0.01617432,0.9853516,1.0,0.1440125,-0.04147339,0.9886932,-30.14825,5.896667,-28.05455,3.919159,0.4197881,0.387455,1.0,0.1757813,-0.01016235,0.9843597,30.22198,7.304993,-27.05685,3.73378,0.5545671,0.3231328,0.2036787,1.166191,-0.1927171,-0.01107582,0.6324373,0.04564181,1.991583,-0.9822083,29.05
3,0.1697083,-0.01617432,0.9853516,1.0,0.1440125,-0.04147339,0.9886932,-30.14825,5.896667,-28.05455,3.919159,0.4197881,0.387455,1.0,0.1757813,-0.01016235,0.9843597,30.22198,7.304993,-27.05685,3.73378,0.5545671,0.3231328,0.2036787,1.166191,-0.1927171,-0.01107582,0.6324373,0.04564181,1.991583,-0.9822083,29.05
3,0.1647797,-0.02215576,0.9860687,1.0,0.1446533,-0.04139709,0.9886017,-30.15173,5.896667,-28.05574,3.919479,0.4197972,0.387455,1.0,0.1766815,-0.01072693,0.9842072,30.21777,7.310898,-27.0704,3.733383,0.5545671,0.3231328,0.203738,1.166134,-0.1933169,-0.01126954,0.6334425,0.0448008,1.991583,-0.9822083,29.05
3,0.1647797,-0.02215576,0.9860687,1.0,0.1446533,-0.04139709,0.9886017,-30.15173,5.896667,-28.05574,3.919479,0.4197972,0.387455,1.0,0.1766815,-0.01072693,0.9842072,30.21777,7.310898,-27.0704,3.733383,0.5545671,0.3231328,0.203738,1.166134,-0.1933169,-0.01126954,0.6334425,0.0448008,1.991583,-0.9822083,29.05
3,0.1580963,-0.02832031,0.9870148,1.0,0.144165,-0.04197693,0.9886475,-30.15674,5.897537,-28.05846,3.903366,0.4200419,0.3875472,1.0,0.1753693,-0.01130676,0.984436,30.21988,7.321533,-27.1002,3.72905,0.5547394,0.3230893,0.203972,1.166057,-0.1938888,-0.01155291,0.6344059,0.04386742,1.991583,-0.9822083,29.05
3,0.1580963,-0.02832031,0.9870148,1.0,0.144165,-0.04197693,0.9886475,-30.15674,5.897537,-28.05846,3.903366,0.4200419,0.3875472,1.0,0.1753693,-0.01130676,0.984436,30.21988,7.321533,-27.1002,3.72905,0.5547394,0.3230893,0.203972,1.166057,-0.1938888,-0.01155291,0.6344059,0.04386742,1.991583,-0.9822083,29.05
3,0.1568451,-0.02886963,0.9871979,1.0,0.1436615,-0.04191589,0.9887238,-30.15976,5.898392,-28.06367,3.888809,0.420224,0.3875472,1.0,0.1732635,-0.01254272,0.984787,30.22293,7.326431,-27.11066,3.718216,0.5549979,0.3231905,0.2041179,1.166111,-0.1944743,-0.01201199,0.6354553,0.04304273,1.991583,-0.9822083,29.05
3,0.1568451,-0.02886963,0.9871979,1.0,0.1436615,-0.04191589,0.9887238,-30.15976,5.898392,-28.06367,3.888809,0.420224,0.3875472,1.0,0.1732635,-0.01254272,0.984787,30.22293,7.326431,-27.11066,3.718216,0.5549979,0.3231905,0.2041179,1.166111,-0.1944743,-0.01201199,0.6354553,0.04304273,1.991583,-0.9822083,29.05
3,0.1560516,-0.03033447,0.9872742,1.0,0.1418457,-0.04380798,0.9889069,-30.16931,5.904587,-28.09515,3.87912,0.4208347,0.3879133,1.0,0.1713104,-0.01579285,0.9850769,30.22388,7.33577,-27.11952,3.70549,0.5552989,0.3235009,0.2041326,1.166127,-0.1950855,-0.01242392,0.6365914,0.0423715,1.991583,-0.9822083,29.05
3,0.1560516,-0.03033447,0.9872742,1.0,0.1418457,-0.04380798,0.9889069,-30.16931,5.904587,-28.09515,3.87912,0.4208347,0.3879133,1.0,0.1713104,-0.01579285,0.9850769,30.22388,7.33577,-27.11952,3.70549,0.5552989,0.3235009,0.2041326,1.166127,-0.1950855,-0.01242392,0.6365914,0.0423715,1.991583,-0.9822083,29.05
3,0.1416321,-0.04504395,0.9888916,1.0,0.1413727,-0.04533386,0.9889069,-30.18283,5.914963,-28.1394,3.859497,0.4213473,0.3881908,1.0,0.1675262,-0.01545715,0.985733,30.2309,7.441498,-27.6073,3.669174,0.5560186,0.3235111,0.2040998,1.166079,-0.1956309,-0.01301924,0.6377968,0.04188008,1.991583,-0.9822083,29.05
3,0.1416321,-0.04504395,0.9888916,1.0,0.1413727,-0.04533386,0.9889069,-30.18283,5.914963,-28.1394,3.859497,0.4213473,0.3881908,1.0,0.1675262,-0.01545715,0.985733,30.2309,7.441498,-27.6073,3.669174,0.5560186,0.3235111,0.2040998,1.166079,-0.1956309,-0.01301924,0.6377968,0.04188008,1.991583,-0.9822083,29.05
3,0.1393585,-0.04653931,0.9891357,1.0,0.1392975,-0.0466156,0.989151,-30.19301,5.922363,-28.17819,3.854431,0.4220223,0.3884798,1.0,0.1638489,-0.01603699,0.9863434,30.23381,7.457581,-27.69104,3.635727,0.5565875,0.3236696,0.2042725,1.166085,-0.1962519,-0.01343356,0.6390848,0.04161604,1.991583,-8.057831,29.05
3,0.1393585,-0.04653931,0.9891357,1.0,0.1392975,-0.0466156,0.989151,-30.19301,5.922363,-28.17819,3.854431,0.4220223,0.3884798,1.0,0.1638489,-0.01603699,0.9863434,30.23381,7.457581,-27.69104,3.635727,0.5565875,0.3236696,0.2042725,1.166085,-0.1962519,-0.01343356,0.6390848,0.04161604,1.991583,-8.057831,29.05
3,0.1406097,-0.0458374,0.9889984,1.0,0.140152,-0.04649353,0.9890289,-30.20027,5.922363,-28.18419,3.844421,0.4221176,0.3885067,1.0,0.1615448,-0.01591492,0.9867249,30.23511,7.460373,-27.71196,3.628067,0.5569502,0.3237016,0.204475,1.16617,-0.1967953,-0.01379557,0.640341,0.04168125,1.991583,-8.057831,29.05
3,0.1406097,-0.0458374,0.9889984,1.0,0.140152,-0.04649353,0.9890289,-30.20027,5.922363,-28.18419,3.844421,0.4221176,0.3885067,1.0,0.1615448,-0.01591492,0.9867249,30.23511,7.460373,-27.71196,3.628067,0.5569502,0.3237016,0.204475,1.16617,-0.1967953,-0.01379557,0.640341,0.04168125,1.991583,-8.057831,29.05
3,0.1465454,-0.03596497,0.9885406,1.0,0.1395111,-0.04673767,0.9891052,-30.20572,5.922363,-28.18456,3.841156,0.4224074,0.3885458,1.0,0.1603699,-0.01463318,0.9869385,30.23462,7.465088,-27.77834,3.604248,0.5571955,0.3238279,0.2045966,1.166247,-0.1974075,-0.01435456,0.6417707,0.04155773,1.991583,-8.057831,29.05
3,0.1465454,-0.03596497,0.9885406,1.0,0.1395111,-0.04673767,0.9891052,-30.20572,5.922363,-28.18456,3.841156,0.4224074,0.3885458,1.0,0.1603699,-0.01463318,0.9869385,30.23462,7.465088,-27.77834,3.604248,0.5571955,0.3238279,0.2045966,1.166247,-0.1974075,-0.01435456,0.6417707,0.04155773,1.991583,-8.057831,29.05
4,0.1465454,-0.03596497,0.9885406,1.0,0.1395111,-0.04673767,0.9891052,-30.20572,5.922363,-28.18456,3.841156,0.4224074,0.3885458,1.0,0.1603699,-0.01463318,0.9869385,30.23462,7.465088,-27.77834,3.604248,0.5571955,0.3238279,0.2047385,1.166321,-0.1980132,-0.01470656,0.6431147,0.04170868,1.991583,-8.057831,29.05
4,0.1465454,-0.03596497,0.9885406,1.0,0.1395111,-0.04673767,0.9891052,-30.20572,5.922363,-28.18456,3.841156,0.4224074,0.3885458,1.0,0.1603699,-0.01463318,0.9869385,30.23462,7.465088,-27.77834,3.604248,0.5571955,0.3238279,0.2047385,1.166321,-0.1980132,-0.01470656,0.6431147,0.04170868,1.991583,-8.057831,29.05
4,0.1465454,-0.03596497,0.9885406,1.0,0.1395111,-0.04673767,0.9891052,-30.20572,5.922363,-28.18456,3.841156,0.4224074,0.3885458,1.0,0.1603699,-0.01463318,0.9869385,30.23462,7.465088,-27.77834,3.604248,0.5571955,0.3238279,0.204893,1.166343,-0.1985232,-0.01513327,0.6444914,0.04163958,1.991583,-8.057831,29.05
4,0.1465454,-0.03596497,0.9885406,1.0,0.1395111,-0.04673767,0.9891052,-30.20572,5.922363,-28.18456,3.841156,0.4224074,0.3885458,1.0,0.1603699,-0.01463318,0.9869385,30.23462,7.465088,-27.77834,3.604248,0.5571955,0.3238279,0.204893,1.166343,-0.1985232,-0.01513327,0.6444914,0.04163958,1.991583,-8.057831,29.05
4,0.1426239,-0.0504303,0.9884796,1.0,0.1389923,-0.05513,0.9887543,-30.20772,5.88884,-28.26563,3.786224,0.4225202,0.3917768,1.0,0.1604309,-0.02728271,0.9866638,30.19344,7.31691,-27.31445,3.579865,0.5582609,0.3274512,0.2049772,1.16639,-0.198758,-0.0152324,0.6452206,0.04160091,1.991583,-8.057831,29.05
4,0.1384277,-0.05252075,0.9889679,1.0,0.1383514,-0.0526123,0.9889832,-30.20735,5.872314,-28.22809,3.799347,0.4226325,0.3915944,1.0,0.1652985,-0.02406311,0.9859467,30.19057,7.308365,-27.29866,3.594147,0.5574951,0.3272278,0.205157,1.16644,-0.1993046,-0.01570087,0.6465414,0.04153809,1.991583,-8.057831,29.05
4,0.1384277,-0.05252075,0.9889679,1.0,0.1383514,-0.0526123,0.9889832,-30.20735,5.872314,-28.22809,3.799347,0.4226325,0.3915944,1.0,0.1652985,-0.02406311,0.9859467,30.19057,7.308365,-27.29866,3.594147,0.5574951,0.3272278,0.205157,1.16644,-0.1993046,-0.01570087,0.6465414,0.04153809,1.991583,-8.057831,29.05
4,0.138443,-0.05378723,0.9889069,1.0,0.1383972,-0.05381775,0.9889069,-30.20717,5.860672,-28.19202,3.800522,0.4226325,0.3918972,1.0,0.1677856,-0.02633667,0.9854584,30.18924,7.302643,-27.28133,3.595566,0.5570995,0.3277217,0.2052426,1.166459,-0.1995581,-0.01585904,0.6472327,0.04154472,1.991583,-8.057831,29.05
4,0.138443,-0.05378723,0.9889069,1.0,0.1383972,-0.05381775,0.9889069,-30.20717,5.860672,-28.19202,3.800522,0.4226325,0.3918972,1.0,0.1677856,-0.02633667,0.9854584,30.18924,7.302643,-27.28133,3.595566,0.5570995,0.3277217,0.2052426,1.166459,-0.1995581,-0.01585904,0.6472327,0.04154472,1.991583,-8.057831,29.05
4,0.1395264,-0.05264282,0.9888153,1.0,0.1391296,-0.05296326,0.9888458,-30.20706,5.850128,-28.2021,3.800552,0.4225008,0.3921834,1.0,0.170639,-0.02761841,0.9849396,30.18776,7.29483,-27.2529,3.592194,0.5566408,0.3280104,0.2054038,1.166531,-0.2000507,-0.0162117,0.6485099,0.04142961,1.991583,-8.057831,29.05
4,0.1545715,-0.04031372,0.9871521,1.0,0.1392822,-0.05227661,0.9888611,-30.20599,5.84407,-28.21394,3.797134,0.4224336,0.392366,1.0,0.1710205,-0.02735901,0.9848785,30.18887,7.286377,-27.2258,3.572693,0.5565045,0.3280495,0.2054336,1.166505,-0.2003173,-0.01648673,0.6491107,0.04144445,1.991583,-8.057831,29.05
4,0.1545715,-0.04031372,0.9871521,1.0,0.1392822,-0.05227661,0.9888611,-30.20599,5.84407,-28.21394,3.797134,0.4224336,0.392366,1.0,0.1710205,-0.02735901,0.9848785,30.18887,7.286377,-27.2258,3.572693,0.5565045,0.3280495,0.2054336,1.166505,-0.2003173,-0.01648673,0.6491107,0.04144445,1.991583,-8.057831,29.05
4,0.1539154,-0.04234314,0.9871674,1.0,0.1400909,-0.05299377,0.9887085,-30.20313,5.840012,-28.2021,3.792755,0.4222032,0.3925321,1.0,0.1722412,-0.02813721,0.9846497,30.18924,7.279694,-27.20848,3.55069,0.5562564,0.3282878,0.2055422,1.166503,-0.2007499,-0.01683,0.6503605,0.04134014,1.991583,4.523376,29.05
4,0.1548309,-0.04592896,0.9868622,1.0,0.1414948,-0.05731201,0.988266,-30.20024,5.837952,-28.18208,3.783173,0.421879,0.3931773,1.0,0.1721954,-0.03103638,0.9845581,30.19057,7.26857,-27.19994,3.551407,0.5562092,0.3291208,0.2055548,1.166492,-0.2009139,-0.01700308,0.6508858,0.04129343,1.991583,4.523376,29.05
4,0.121109,-0.05305481,0.9912109,1.0,0.1211243,-0.05316162,0.9912109,-30.44214,5.871399,-28.0914,3.743134,0.4334474,0.3906061,1.0,0.1176605,-0.02510071,0.9927216,29.97765,7.445709,-27.77242,3.48761,0.5732915,0.3259504,0.2055939,1.166495,-0.2011191,-0.01698577,0.6514396,0.04134275,1.991583,4.523376,29.05
4,0.121109,-0.05305481,0.9912109,1.0,0.1211243,-0.05316162,0.9912109,-30.44214,5.871399,-28.0914,3.743134,0.4334474,0.3906061,1.0,0.1176605,-0.02510071,0.9927216,29.97765,7.445709,-27.77242,3.48761,0.5732915,0.3259504,0.2055939,1.166495,-0.2011191,-0.01698577,0.6514396,0.04134275,1.991583,4.523376,29.05
4,0.07685852,-0.04385376,0.9960632,1.0,0.07620239,-0.0463562,0.9960022,-30.58969,5.869003,-27.86153,3.796066,0.4459794,0.3876238,1.0,0.08869934,0.001190186,0.996048,29.71573,7.446152,-27.33694,3.568527,0.5869418,0.3178515,0.205649,1.166612,-0.2014526,-0.01726529,0.6525071,0.04135419,1.991583,4.523376,29.05
4,0.07745361,-0.03204346,0.9964752,1.0,0.07751465,-0.04141235,0.9961243,-30.60234,5.834976,-27.78767,3.784195,0.4461925,0.3873197,1.0,0.07727051,-0.006240845,0.9969788,29.71954,7.409927,-27.24194,3.5672,0.5886862,0.3195892,0.2056526,1.166697,-0.2016081,-0.01750698,0.6529068,0.04132319,1.991583,4.523376,29.05
4,0.07745361,-0.03204346,0.9964752,1.0,0.07751465,-0.04141235,0.9961243,-30.60234,5.834976,-27.78767,3.784195,0.4461925,0.3873197,1.0,0.07727051,-0.006240845,0.9969788,29.71954,7.409927,-27.24194,3.5672,0.5886862,0.3195892,0.2056526,1.166697,-0.2016081,-0.01750698,0.6529068,0.04132319,1.991583,4.523376,29.05
4,0.08073425,-0.0415802,0.9958649,1.0,0.08021545,-0.05233765,0.9953918,-30.60551,5.815857,-27.80577,3.804581,0.4458464,0.3899864,1.0,0.08224487,-0.007995605,0.9965668,29.74017,7.378647,-27.20009,3.568512,0.5870577,0.3207304,0.205847,1.166729,-0.2018659,-0.01800382,0.6538895,0.04089583,1.991583,4.523376,29.05
4,0.0838623,-0.04724121,0.9953461,1.0,0.0839386,-0.05302429,0.9950562,-30.60503,5.807877,-27.81635,3.784775,0.4452027,0.3904595,1.0,0.08314514,-0.006103516,0.9965057,29.7413,7.362106,-27.15649,3.589325,0.5868364,0.3206313,0.2058798,1.166797,-0.2019857,-0.01807898,0.6543255,0.04064474,1.991583,4.523376,29.05
4,0.08065796,-0.04107666,0.9958801,1.0,0.07972717,-0.04747009,0.9956818,-30.60434,5.785675,-27.77216,3.832809,0.4458974,0.3898949,1.0,0.08616638,-0.002685547,0.9962616,29.76631,7.338806,-27.19821,3.602325,0.5854925,0.3212046,0.2058992,1.1668,-0.2022206,-0.01814829,0.6551315,0.04053267,1.991583,4.523376,29.05
4,0.08065796,-0.04107666,0.9958801,1.0,0.07972717,-0.04747009,0.9956818,-30.60434,5.785675,-27.77216,3.832809,0.4458974,0.3898949,1.0,0.08616638,-0.002685547,0.9962616,29.76631,7.338806,-27.19821,3.602325,0.5854925,0.3212046,0.2058992,1.1668,-0.2022206,-0.01814829,0.6551315,0.04053267,1.991583,4.523376,29.05
4,0.09069824,-0.03843689,0.9951324,1.0,0.08570862,-0.05537415,0.9947662,-30.60275,5.783798,-27.78078,3.804794,0.444841,0.391376,1.0,0.09805298,-0.01332092,0.9950867,29.79243,7.313858,-27.25912,3.535233,0.582553,0.3244615,0.2058774,1.166752,-0.2023765,-0.01807795,0.6555442,0.04042979,1.991583,4.523376,29.05
4,0.09069824,-0.03843689,0.9951324,1.0,0.08570862,-0.05537415,0.9947662,-30.60275,5.783798,-27.78078,3.804794,0.444841,0.391376,1.0,0.09805298,-0.01332092,0.9950867,29.79243,7.313858,-27.25912,3.535233,0.582553,0.3244615,0.2058774,1.166752,-0.2023765,-0.01807795,0.6555442,0.04042979,1.991583,4.523376,29.05
4,0.09112549,-0.0493927,0.9945984,1.0,0.08660889,-0.05900574,0.9944916,-30.60188,5.786179,-27.79694,3.770599,0.4446542,0.3920458,1.0,0.1008606,-0.02851868,0.9944763,29.82335,7.334641,-27.39319,3.414581,0.5810552,0.3274619,0.2059551,1.166703,-0.2025328,-0.01782916,0.6562541,0.0404179,1.991583,8.796051,29.05
4,0.08851624,-0.05213928,0.9947052,1.0,0.08625793,-0.05636597,0.9946747,-30.59647,5.784271,-27.8259,3.716156,0.4445153,0.3918795,1.0,0.09934998,-0.03189087,0.9945374,29.83455,7.329559,-27.39035,3.428406,0.5809382,0.3281939,0.2059753,1.166687,-0.2026985,-0.01769935,0.6568992,0.04038462,2.095358,8.796051,29.05
4,0.08851624,-0.05213928,0.9947052,1.0,0.08625793,-0.05636597,0.9946747,-30.59647,5.784271,-27.8259,3.716156,0.4445153,0.3918795,1.0,0.09934998,-0.03189087,0.9945374,29.83455,7.329559,-27.39035,3.428406,0.5809382,0.3281939,0.2059753,1.166687,-0.2026985,-0.01769935,0.6568992,0.04038462,2.095358,8.796051,29.05
4,0.09140015,-0.04660034,0.9947205,1.0,0.08616638,-0.05432129,0.9947968,-30.59068,5.782303,-27.88501,3.701843,0.4443203,0.3920726,1.0,0.1013641,-0.03189087,0.9943237,29.83778,7.298172,-27.26636,3.445908,0.5803763,0.328329,0.2059139,1.166644,-0.2027825,-0.01740369,0.6572021,0.04035998,2.095358,8.796051,29.05
4,0.09140015,-0.04660034,0.9947205,1.0,0.08616638,-0.05432129,0.9947968,-30.59068,5.782303,-27.88501,3.701843,0.4443203,0.3920726,1.0,0.1013641,-0.03189087,0.9943237,29.83778,7.298172,-27.26636,3.445908,0.5803763,0.328329,0.2059139,1.166644,-0.2027825,-0.01740369,0.6572021,0.04035998,2.095358,8.796051,29.05
4,0.0922699,-0.04541016,0.9946899,1.0,0.08583069,-0.05383301,0.9948425,-30.58907,5.780792,-27.89267,3.703186,0.4443201,0.3920995,1.0,0.1020355,-0.03259277,0.9942322,29.84125,7.295792,-27.26512,3.436844,0.5801315,0.3285445,0.2059263,1.166571,-0.2028024,-0.01715446,0.6577165,0.04050739,2.095358,8.796051,29.05
4,0.09263611,-0.04649353,0.9945984,1.0,0.08508301,-0.05484009,0.9948578,-30.58344,5.783798,-27.89362,3.701904,0.4442582,0.3921809,1.0,0.1037903,-0.03413391,0.9940033,29.84656,7.286331,-27.23669,3.443863,0.5796279,0.3289201,0.205952,1.16654,-0.202813,-0.01699432,0.6579533,0.04049323,2.095358,8.796051,29.05
4,0.09475708,-0.05023193,0.9942169,1.0,0.0894928,-0.05751038,0.9943237,-30.57545,5.780792,-27.91911,3.688339,0.443245,0.3929504,1.0,0.105484,-0.03535461,0.9937897,29.8485,7.273987,-27.19034,3.436264,0.5792223,0.3292124,0.2059418,1.166502,-0.2028499,-0.01678522,0.6582332,0.04061522,2.095358,8.796051,29.05
4,0.09475708,-0.05023193,0.9942169,1.0,0.0894928,-0.05751038,0.9943237,-30.57545,5.780792,-27.91911,3.688339,0.443245,0.3929504,1.0,0.105484,-0.03535461,0.9937897,29.8485,7.273987,-27.19034,3.436264,0.5792223,0.3292124,0.2059418,1.166502,-0.2028499,-0.01678522,0.6582332,0.04061522,2.095358,8.796051,29.05
4,0.09584045,-0.04934692,0.9941711,1.0,0.08961487,-0.05845642,0.9942474,-30.57169,5.78064,-27.95869,3.686264,0.4430881,0.393441,1.0,0.1062317,-0.03408813,0.9937439,29.84879,7.261826,-27.14706,3.431183,0.5790435,0.3290792,0.2059487,1.166491,-0.2028954,-0.0163499,0.658672,0.04072074,2.095358,8.796051,29.05
4,0.09765625,-0.04811096,0.9940491,1.0,0.09107971,-0.05795288,0.9941406,-30.56862,5.77951,-27.98141,3.67485,0.4427331,0.3935761,1.0,0.1069183,-0.03422546,0.9936676,29.8493,7.252472,-27.11864,3.428925,0.5788795,0.3292124,0.205948,1.166488,-0.202906,-0.01625966,0.6588533,0.04079779,2.095358,8.796051,29.05
4,0.09825134,-0.04847717,0.9939728,1.0,0.09095764,-0.05889893,0.9940948,-30.56696,5.779068,-27.98463,3.662338,0.4426936,0.3937767,1.0,0.1076355,-0.03504944,0.9935608,29.84964,7.253708,-27.12196,3.426514,0.5787475,0.3293448,0.2059213,1.166466,-0.2029107,-0.01618847,0.6590682,0.0408633,2.095358,8.796051,29.05
4,0.09825134,-0.04847717,0.9939728,1.0,0.09095764,-0.05889893,0.9940948,-30.56696,5.779068,-27.98463,3.662338,0.4426936,0.3937767,1.0,0.1076355,-0.03504944,0.9935608,29.84964,7.253708,-27.12196,3.426514,0.5787475,0.3293448,0.2059213,1.166466,-0.2029107,-0.01618847,0.6590682,0.0408633,2.095358,8.796051,29.05
4,0.1005402,-0.04803467,0.9937592,1.0,0.09121704,-0.05961609,0.9940338,-30.56244,5.773865,-27.99417,3.656357,0.4424964,0.3941465,1.0,0.1100464,-0.03617859,0.9932556,29.85075,7.253708,-27.12196,3.416245,0.5782889,0.3295497,0.2059187,1.166582,-0.2029549,-0.01580657,0.6593657,0.04088772,2.095358,8.796051,29.05
4,0.1017303,-0.04759216,0.9936676,1.0,0.09051514,-0.05879211,0.9941559,-30.5583,5.765472,-27.99522,3.656204,0.4424755,0.3942975,1.0,0.1124878,-0.0368042,0.9929657,29.8557,7.253708,-27.12196,3.410492,0.5777008,0.3296758,0.2059144,1.166606,-0.2029675,-0.01573974,0.6595374,0.04106981,2.095358,8.796051,29.05
4,0.1016846,-0.04837036,0.9936371,1.0,0.09039307,-0.06051636,0.9940643,-30.55779,5.765472,-28.00259,3.65593,0.4424755,0.3946501,1.0,0.112381,-0.03681946,0.992981,29.85715,7.253708,-27.12196,3.400009,0.5776631,0.3296758,0.2059144,1.166606,-0.2029675,-0.01573974,0.6595374,0.04106981,2.095358,-7.26297,29.05
4,0.1016846,-0.04837036,0.9936371,1.0,0.09039307,-0.06051636,0.9940643,-30.55779,5.765472,-28.00259,3.65593,0.4424755,0.3946501,1.0,0.112381,-0.03681946,0.992981,29.85715,7.253708,-27.12196,3.400009,0.5776631,0.3296758,0.2059144,1.166606,-0.2029675,-0.01573974,0.6595374,0.04106981,2.095358,-7.26297,29.05
4,0.1016235,-0.04891968,0.9936066,1.0,0.09039307,-0.06103516,0.9940186,-30.55779,5.763931,-28.00259,3.655853,0.4424755,0.3947922,1.0,0.1121674,-0.0375061,0.9929657,29.85965,7.253708,-27.12196,3.400085,0.5776134,0.3298032,0.2059007,1.166661,-0.2028851,-0.01567166,0.6598893,0.04128612,2.095358,-7.26297,29.05
4,0.1013031,-0.04966736,0.9936066,1.0,0.09069824,-0.06159973,0.9939575,-30.55779,5.763931,-28.00327,3.655701,0.4424238,0.3948942,1.0,0.1121063,-0.03746033,0.992981,29.86165,7.260132,-27.15205,3.398346,0.57758,0.3298032,0.2058666,1.166722,-0.2028786,-0.01577166,0.6601224,0.04136094,2.095358,-7.26297,29.05
4,0.1002655,-0.05062866,0.9936676,1.0,0.09077454,-0.06164551,0.9939575,-30.55779,5.763931,-28.03769,3.657181,0.4424048,0.3951919,1.0,0.1125488,-0.03633118,0.992981,29.86432,7.269043,-27.22293,3.403168,0.5774756,0.329848,0.2058061,1.166786,-0.2028501,-0.01583342,0.6605011,0.04144643,2.095358,-7.26297,29.05
4,0.1002655,-0.05062866,0.9936676,1.0,0.09077454,-0.06164551,0.9939575,-30.55779,5.763931,-28.03769,3.657181,0.4424048,0.3951919,1.0,0.1125488,-0.03633118,0.992981,29.86432,7.269043,-27.22293,3.403168,0.5774756,0.329848,0.2058061,1.166786,-0.2028501,-0.01583342,0.6605011,0.04144643,2.095358,-7.26297,29.05
4,0.09983826,-0.05162048,0.9936523,1.0,0.090271,-0.06248474,0.9939423,-30.5583,5.767181,-28.07269,3.655975,0.4424964,0.3955121,1.0,0.1125488,-0.03713989,0.9929504,29.86432,7.269043,-27.22293,3.402817,0.5774756,0.3299856,0.2058111,1.166768,-0.2026962,-0.01584659,0.6607559,0.04153118,2.095358,-7.26297,29.05
4,0.09983826,-0.05162048,0.9936523,1.0,0.090271,-0.06248474,0.9939423,-30.5583,5.767181,-28.07269,3.655975,0.4424964,0.3955121,1.0,0.1125488,-0.03713989,0.9929504,29.86432,7.269043,-27.22293,3.402817,0.5774756,0.3299856,0.2058111,1.166768,-0.2026962,-0.01584659,0.6607559,0.04153118,2.095358,-7.26297,29.05
4,0.1010132,-0.05220032,0.9934998,1.0,0.08886719,-0.06713867,0.9937744,-30.56282,5.814529,-28.20351,3.665405,0.4428577,0.395804,1.0,0.1115417,-0.03918457,0.992981,29.86432,7.274017,-27.2419,3.401855,0.5776631,0.3303177,0.2056546,1.166874,-0.2027326,-0.01573263,0.6610882,0.04154365,2.095358,-7.26297,29.05
4,0.1010132,-0.05220032,0.9934998,1.0,0.08886719,-0.06713867,0.9937744,-30.56282,5.814529,-28.20351,3.665405,0.4428577,0.395804,1.0,0.1115417,-0.03918457,0.992981,29.86432,7.274017,-27.2419,3.401855,0.5776631,0.3303177,0.2056546,1.166874,-0.2027326,-0.01573263,0.6610882,0.04154365,2.095358,-7.26297,29.05
4,0.1051636,-0.0478363,0.9933014,1.0,0.0892334,-0.0693512,0.9935913,-30.56654,5.819992,-28.2115,3.656235,0.4429185,0.3960657,1.0,0.111496,-0.03921509,0.992981,29.86293,7.275208,-27.24638,3.401581,0.5777207,0.3303177,0.2054939,1.166909,-0.2027587,-0.01590783,0.6615511,0.0415397,2.095358,-7.26297,29.05
4,0.1051636,-0.0478363,0.9933014,1.0,0.0892334,-0.0693512,0.9935913,-30.56654,5.819992,-28.2115,3.656235,0.4429185,0.3960657,1.0,0.111496,-0.03921509,0.992981,29.86293,7.275208,-27.24638,3.401581,0.5777207,0.3303177,0.2054939,1.166909,-0.2027587,-0.01590783,0.6615511,0.0415397,2.095358,-7.26297,29.05
4,0.1062622,-0.04595947,0.9932709,1.0,0.08796692,-0.06558228,0.9939575,-30.5733,5.821381,-28.33159,3.647964,0.4433281,0.3963696,1.0,0.1100311,-0.04191589,0.993042,29.85977,7.275208,-27.26558,3.400467,0.5780942,0.3309433,0.2053633,1.166981,-0.2028122,-0.01602519,0.6620976,0.04151575,2.095358,-7.26297,29.05
4,0.1062622,-0.04595947,0.9932709,1.0,0.08796692,-0.06558228,0.9939575,-30.5733,5.821381,-28.33159,3.647964,0.4433281,0.3963696,1.0,0.1100311,-0.04191589,0.993042,29.85977,7.275208,-27.26558,3.400467,0.5780942,0.3309433,0.2053633,1.166981,-0.2028122,-0.01602519,0.6620976,0.04151575,2.095358,-7.26297,29.05
4,0.1031036,-0.04756165,0.9935303,1.0,0.08808899,-0.06889343,0.9937134,-30.58311,5.834763,-28.34399,3.647186,0.4436358,0.3966025,1.0,0.1066437,-0.04252625,0.9933777,29.85834,7.272568,-27.25104,3.399902,0.57871,0.3310058,0.2053659,1.166963,-0.2027974,-0.01616476,0.6626962,0.0416538,2.095358,-7.26297,29.05
4,0.1031036,-0.04756165,0.9935303,1.0,0.08808899,-0.06889343,0.9937134,-30.58311,5.834763,-28.34399,3.647186,0.4436358,0.3966025,1.0,0.1066437,-0.04252625,0.9933777,29.85834,7.272568,-27.25104,3.399902,0.57871,0.3310058,0.2053659,1.166963,-0.2027974,-0.01616476,0.6626962,0.0416538,2.095358,-7.26297,29.05
4,0.0944519,-0.05567932,0.9939575,1.0,0.08325195,-0.07426453,0.9937439,-30.60098,5.840332,-28.37834,3.607178,0.4450326,0.3976103,1.0,0.1015167,-0.04389954,0.9938507,29.85345,7.265167,-27.25104,3.398544,0.5797501,0.3314853,0.2052128,1.167104,-0.2028985,-0.01645891,0.6633029,0.04156534,2.095358,7.333374,29.05
4,0.0944519,-0.05567932,0.9939575,1.0,0.08325195,-0.07426453,0.9937439,-30.60098,5.840332,-28.37834,3.607178,0.4450326,0.3976103,1.0,0.1015167,-0.04389954,0.9938507,29.85345,7.265167,-27.25104,3.398544,0.5797501,0.3314853,0.2052128,1.167104,-0.2028985,-0.01645891,0.6633029,0.04156534,2.095358,7.333374,29.05
4,0.09268188,-0.05789185,0.9940033,1.0,0.08282471,-0.07513428,0.9937134,-30.60631,5.840103,-28.37834,3.612854,0.4452843,0.3977753,1.0,0.1008606,-0.04354858,0.9939423,29.8373,7.257172,-27.27664,3.398499,0.5804306,0.3319025,0.2050514,1.167183,-0.2029531,-0.01680009,0.6639898,0.04146386,2.095358,7.333374,29.05
4,0.09268188,-0.05789185,0.9940033,1.0,0.08282471,-0.07513428,0.9937134,-30.60631,5.840103,-28.37834,3.612854,0.4452843,0.3977753,1.0,0.1008606,-0.04354858,0.9939423,29.8373,7.257172,-27.27664,3.398499,0.5804306,0.3319025,0.2050514,1.167183,-0.2029531,-0.01680009,0.6639898,0.04146386,2.095358,7.333374,29.05
4,0.09208679,-0.06039429,0.9939117,1.0,0.08140564,-0.07878113,0.9935608,-30.6084,5.817139,-28.33972,3.612579,0.4455982,0.3988467,1.0,0.1025238,-0.04234314,0.9938202,29.82164,7.257172,-27.30779,3.3974,0.5807055,0.3319277,0.2048537,1.167254,-0.2030281,-0.01696711,0.6646584,0.04161371,2.095358,7.333374,29.05
4,0.09208679,-0.06039429,0.9939117,1.0,0.08140564,-0.07878113,0.9935608,-30.6084,5.817139,-28.33972,3.612579,0.4455982,0.3988467,1.0,0.1025238,-0.04234314,0.9938202,29.82164,7.257172,-27.30779,3.3974,0.5807055,0.3319277,0.2048537,1.167254,-0.2030281,-0.01696711,0.6646584,0.04161371,2.095358,7.333374,29.05
4,0.09210205,-0.06491089,0.9936218,0.9891434,0.08325195,-0.08456421,0.9929199,-30.6335,5.804749,-28.31352,3.614288,0.4461353,0.4000605,0.9001468,0.1002502,-0.04670715,0.9938507,29.81851,7.241302,-27.25104,3.398972,0.5811502,0.3327922,0.2048005,1.167325,-0.2031549,-0.01708505,0.6653123,0.04180209,2.095358,7.333374,29.05
4,0.09210205,-0.06491089,0.9936218,0.9891434,0.08325195,-0.08456421,0.9929199,-30.6335,5.804749,-28.31352,3.614288,0.4461353,0.4000605,0.9001468,0.1002502,-0.04670715,0.9938507,29.81851,7.241302,-27.25104,3.398972,0.5811502,0.3327922,0.2048005,1.167325,-0.2031549,-0.01708505,0.6653123,0.04180209,2.095358,7.333374,29.05
4,0.0899353,-0.0696106,0.9934998,0.9864816,0.08146667,-0.08546448,0.9929962,-30.6335,5.804749,-28.36275,3.620392,0.4464247,0.4006203,0.9026778,0.1000977,-0.05046082,0.9936829,29.81538,7.22261,-27.18407,3.402817,0.581219,0.3335737,0.2046417,1.167486,-0.2032342,-0.01740069,0.6659288,0.04212584,2.095358,7.333374,29.05
4,0.0899353,-0.0696106,0.9934998,0.9864816,0.08146667,-0.08546448,0.9929962,-30.6335,5.804749,-28.36275,3.620392,0.4464247,0.4006203,0.9026778,0.1000977,-0.05046082,0.9936829,29.81538,7.22261,-27.18407,3.402817,0.581219,0.3335737,0.2046417,1.167486,-0.2032342,-0.01740069,0.6659288,0.04212584,2.095358,7.333374,29.05
4,0.08825684,-0.0743866,0.9933014,0.9701998,0.08000183,-0.08856201,0.9928436,-30.6335,5.804749,-28.36275,3.616974,0.4466719,0.401156,0.8935845,0.1003418,-0.05352783,0.9934998,29.81215,7.221069,-27.18407,3.432678,0.5812974,0.3341818,0.204599,1.16758,-0.2031708,-0.01754695,0.6665493,0.04237959,2.095358,7.333374,29.05
4,0.08825684,-0.0743866,0.9933014,0.9701998,0.08000183,-0.08856201,0.9928436,-30.6335,5.804749,-28.36275,3.616974,0.4466719,0.401156,0.8935845,0.1003418,-0.05352783,0.9934998,29.81215,7.221069,-27.18407,3.432678,0.5812974,0.3341818,0.204599,1.16758,-0.2031708,-0.01754695,0.6665493,0.04237959,2.095358,7.333374,29.05
4,0.09368896,-0.06303406,0.9935913,0.9619663,0.07743835,-0.08676147,0.9932098,-30.62354,5.814484,-28.58003,3.60527,0.4467182,0.4023257,0.8817394,0.1004486,-0.05310059,0.993515,29.80875,7.209518,-27.18407,3.419754,0.5813819,0.334502,0.2044389,1.167631,-0.2032735,-0.01771661,0.6671528,0.04279884,2.095358,7.333374,29.05
4,0.09368896,-0.06303406,0.9935913,0.9619663,0.07743835,-0.08676147,0.9932098,-30.62354,5.814484,-28.58003,3.60527,0.4467182,0.4023257,0.8817394,0.1004486,-0.05310059,0.993515,29.80875,7.209518,-27.18407,3.419754,0.5813819,0.334502,0.2044389,1.167631,-0.2032735,-0.01771661,0.6671528,0.04279884,2.095358,7.333374,29.05
4,0.09750366,-0.06015015,0.9934082,0.9620724,0.07514954,-0.09004211,0.9930878,-30.62267,5.814484,-28.58003,3.576736,0.4470693,0.4028773,0.8909583,0.1003876,-0.05627441,0.9933472,29.80498,7.185867,-27.13043,3.434875,0.5814741,0.3354602,0.2042966,1.167638,-0.2032584,-0.01766796,0.6678424,0.04298115,2.095358,7.333374,29.05
4,0.09750366,-0.06015015,0.9934082,0.9620724,0.07514954,-0.09004211,0.9930878,-30.62267,5.814484,-28.58003,3.576736,0.4470693,0.4028773,0.8909583,0.1003876,-0.05627441,0.9933472,29.80498,7.185867,-27.13043,3.434875,0.5814741,0.3354602,0.2042966,1.167638,-0.2032584,-0.01766796,0.6678424,0.04298115,2.095358,7.333374,29.05
4,0.09468079,-0.06355286,0.9934692,0.9407832,0.07336426,-0.09136963,0.993103,-30.62267,5.814484,-28.58003,3.564529,0.447367,0.4031119,0.8850725,0.09963989,-0.05703735,0.9933777,29.80431,7.178452,-27.12407,3.423721,0.5816097,0.3358019,0.2041304,1.167739,-0.2034065,-0.01755416,0.6683255,0.04310526,2.095358,6.224823,29.05
4,0.09468079,-0.06355286,0.9934692,0.9407832,0.07336426,-0.09136963,0.993103,-30.62267,5.814484,-28.58003,3.564529,0.447367,0.4031119,0.8850725,0.09963989,-0.05703735,0.9933777,29.80431,7.178452,-27.12407,3.423721,0.5816097,0.3358019,0.2041304,1.167739,-0.2034065,-0.01755416,0.6683255,0.04310526,2.095358,6.224823,29.05
4,0.08236694,-0.08021545,0.9933624,0.9206546,0.07092285,-0.09396362,0.993042,-30.62354,5.798843,-28.55989,3.538422,0.4478066,0.4039002,0.87221,0.09742737,-0.06204224,0.9933014,29.804,7.172348,-27.0885,3.409393,0.5819571,0.3366077,0.2040378,1.167823,-0.203485,-0.0174426,0.6689116,0.04333247,2.095358,6.224823,29.05
4,0.08236694,-0.08021545,0.9933624,0.9206546,0.07092285,-0.09396362,0.993042,-30.62354,5.798843,-28.55989,3.538422,0.4478066,0.4039002,0.87221,0.09742737,-0.06204224,0.9933014,29.804,7.172348,-27.0885,3.409393,0.5819571,0.3366077,0.2040378,1.167823,-0.203485,-0.0174426,0.6689116,0.04333247,2.095358,6.224823,29.05
4,0.0836792,-0.07585144,0.9935913,0.9136164,0.07014465,-0.0881958,0.9936218,-30.62372,5.743835,-28.50989,3.529831,0.4479463,0.4043398,0.8625495,0.09654236,-0.06407166,0.9932556,29.804,7.137802,-27.06374,3.410721,0.5820732,0.3379602,0.2038416,1.167969,-0.2035966,-0.01740069,0.6694853,0.04357731,2.095358,6.224823,29.05
4,0.0836792,-0.07585144,0.9935913,0.9136164,0.07014465,-0.0881958,0.9936218,-30.62372,5.743835,-28.50989,3.529831,0.4479463,0.4043398,0.8625495,0.09654236,-0.06407166,0.9932556,29.804,7.137802,-27.06374,3.410721,0.5820732,0.3379602,0.2038416,1.167969,-0.2035966,-0.01740069,0.6694853,0.04357731,2.095358,6.224823,29.05
4,0.08352661,-0.07914734,0.9933472,0.8993601,0.07145691,-0.09339905,0.9930573,-30.63158,5.743835,-28.50989,3.524445,0.4479872,0.4052433,0.8623539,0.09509277,-0.06542969,0.9933014,29.80376,7.110275,-27.0191,3.37912,0.5822654,0.3387882,0.2038189,1.167965,-0.203666,-0.01735868,0.6701571,0.04382724,2.095358,6.224823,29.05
4,0.08352661,-0.07914734,0.9933472,0.8993601,0.07145691,-0.09339905,0.9930573,-30.63158,5.743835,-28.50989,3.524445,0.4479872,0.4052433,0.8623539,0.09509277,-0.06542969,0.9933014,29.80376,7.110275,-27.0191,3.37912,0.5822654,0.3387882,0.2038189,1.167965,-0.203666,-0.01735868,0.6701571,0.04382724,2.095358,6.224823,29.05
4,0.07255554,-0.1009369,0.9922333,0.8874079,0.05607605,-0.1166992,0.9915771,-30.77753,5.753311,-28.76129,3.472092,0.4554229,0.4110931,0.8610035,0.08543396,-0.08857727,0.9923859,29.67064,7.050461,-27.00511,3.334732,0.5883675,0.3447763,0.2037197,1.168006,-0.2037147,-0.01723981,0.6707432,0.04397285,2.095358,6.224823,29.05
4,0.07255554,-0.1009369,0.9922333,0.8874079,0.05607605,-0.1166992,0.9915771,-30.77753,5.753311,-28.76129,3.472092,0.4554229,0.4110931,0.8610035,0.08543396,-0.08857727,0.9923859,29.67064,7.050461,-27.00511,3.334732,0.5883675,0.3447763,0.2037197,1.168006,-0.2037147,-0.01723981,0.6707432,0.04397285,2.095358,6.224823,29.05
4,-0.0007781982,-0.1259155,0.9920349,0.8866767,-0.001327515,-0.1265411,0.9919586,-31.14046,5.637878,-28.2872,3.525375,0.4772319,0.4128259,0.8640186,0.02210999,-0.09957886,0.9947815,29.19437,6.90596,-26.32066,3.225067,0.6145924,0.3460042,0.2036391,1.168094,-0.2038459,-0.01698138,0.6713294,0.04418203,2.095358,6.224823,29.05
4,-0.0007781982,-0.1259155,0.9920349,0.8866767,-0.001327515,-0.1265411,0.9919586,-31.14046,5.637878,-28.2872,3.525375,0.4772319,0.4128259,0.8640186,0.02210999,-0.09957886,0.9947815,29.19437,6.90596,-26.32066,3.225067,0.6145924,0.3460042,0.2036391,1.168094,-0.2038459,-0.01698138,0.6713294,0.04418203,2.095358,6.224823,29.05
4,-0.0007781982,-0.1259155,0.9920349,0.8866767,-0.001327515,-0.1265411,0.9919586,-31.14046,5.637878,-28.2872,3.525375,0.4772319,0.4128259,0.8640186,0.02210999,-0.09957886,0.9947815,29.19437,6.90596,-26.32066,3.225067,0.6145924,0.3460042,0.2036391,1.168094,-0.2038459,-0.01698138,0.6713294,0.04418203,2.095358,6.224823,29.05
4,-0.0007781982,-0.1259155,0.9920349,0.8866767,-0.001327515,-0.1265411,0.9919586,-31.14046,5.637878,-28.2872,3.525375,0.4772319,0.4128259,0.8640186,0.02210999,-0.09957886,0.9947815,29.19437,6.90596,-26.32066,3.225067,0.6145924,0.3460042,0.2036411,1.168122,-0.2039171,-0.01669934,0.6720798,0.04439157,2.095358,6.224823,29.05
4,-0.0007781982,-0.1259155,0.9920349,0.8866767,-0.001327515,-0.1265411,0.9919586,-31.14046,5.637878,-28.2872,3.525375,0.4772319,0.4128259,0.8640186,0.02210999,-0.09957886,0.9947815,29.19437,6.90596,-26.32066,3.225067,0.6145924,0.3460042,0.2036411,1.168122,-0.2039171,-0.01669934,0.6720798,0.04439157,2.095358,6.224823,29.05
4,-0.0007781982,-0.1259155,0.9920349,0.8866767,-0.001327515,-0.1265411,0.9919586,-31.14046,5.637878,-28.2872,3.525375,0.4772319,0.4128259,0.8640186,0.02210999,-0.09957886,0.9947815,29.19437,6.90596,-26.32066,3.225067,0.6145924,0.3460042,0.2035614,1.16814,-0.2040412,-0.01631797,0.672662,0.04459937,2.095358,6.224823,29.05
4,-0.0395813,-0.1264496,0.9911804,0.8471135,-0.03961182,-0.1265106,0.9911652,-31.38686,5.698471,-28.52516,3.473785,0.4919168,0.4129005,0.8756046,-0.02946472,-0.1038666,0.9941406,28.9425,7.00972,-26.64209,3.294907,0.6323678,0.3457183,0.2035717,1.168145,-0.2041187,-0.01623627,0.6729588,0.04476686,2.095358,17.33337,29.05
4,-0.0395813,-0.1264496,0.9911804,0.8471135,-0.03961182,-0.1265106,0.9911652,-31.38686,5.698471,-28.52516,3.473785,0.4919168,0.4129005,0.8756046,-0.02946472,-0.1038666,0.9941406,28.9425,7.00972,-26.64209,3.294907,0.6323678,0.3457183,0.2035717,1.168145,-0.2041187,-0.01623627,0.6729588,0.04476686,2.095358,17.33337,29.05
5,-0.03919983,-0.1300964,0.9907227,0.8555239,-0.04006958,-0.1322784,0.990387,-31.45586,5.587204,-28.39766,3.456161,0.4942723,0.4165666,0.8821272,-0.03060913,-0.1082611,0.9936371,28.96574,6.9617,-26.69522,3.314941,0.6318387,0.348503,0.203511,1.168246,-0.2042671,-0.01624957,0.6736093,0.04458124,2.095358,17.33337,29.05
5,-0.03919983,-0.1300964,0.9907227,0.8555239,-0.04006958,-0.1322784,0.990387,-31.45586,5.587204,-28.39766,3.456161,0.4942723,0.4165666,0.8821272,-0.03060913,-0.1082611,0.9936371,28.96574,6.9617,-26.69522,3.314941,0.6318387,0.348503,0.203511,1.168246,-0.2042671,-0.01624957,0.6736093,0.04458124,2.095358,17.33337,29.05
5,-0.0370636,-0.1303864,0.9907684,0.8485951,-0.03845215,-0.134552,0.9901581,-31.45959,5.548065,-28.42358,3.516968,0.49412,0.4184999,0.8731748,-0.0295105,-0.1078033,0.9937286,28.96919,6.945404,-26.6395,3.308975,0.6314535,0.3485556,0.2034742,1.16828,-0.2044056,-0.01648175,0.6741872,0.04403169,2.095358,17.33337,29.05
5,-0.0370636,-0.1303864,0.9907684,0.8485951,-0.03845215,-0.134552,0.9901581,-31.45959,5.548065,-28.42358,3.516968,0.49412,0.4184999,0.8731748,-0.0295105,-0.1078033,0.9937286,28.96919,6.945404,-26.6395,3.308975,0.6314535,0.3485556,0.2034742,1.16828,-0.2044056,-0.01648175,0.6741872,0.04403169,2.095358,17.33337,29.05
5,-0.03645325,-0.1272583,0.9911957,0.8524884,-0.04092407,-0.137558,0.9896393,-31.46152,5.539276,-28.43951,3.465225,0.4946007,0.4194464,0.8665743,-0.02906799,-0.1102448,0.9934692,28.97116,6.926865,-26.55811,3.321228,0.631206,0.3489615,0.2034646,1.168298,-0.2045432,-0.01666092,0.6747614,0.04337148,2.095358,17.33337,29.05
5,-0.03645325,-0.1272583,0.9911957,0.8524884,-0.04092407,-0.137558,0.9896393,-31.46152,5.539276,-28.43951,3.465225,0.4946007,0.4194464,0.8665743,-0.02906799,-0.1102448,0.9934692,28.97116,6.926865,-26.55811,3.321228,0.631206,0.3489615,0.2034353,1.16827,-0.2046377,-0.01665466,0.6751438,0.04309022,2.095358,17.33337,29.05
5,-0.03645325,-0.1272583,0.9911957,0.8524884,-0.04092407,-0.137558,0.9896393,-31.46152,5.539276,-28.43951,3.465225,0.4946007,0.4194464,0.8665743,-0.02906799,-0.1102448,0.9934692,28.97116,6.926865,-26.55811,3.321228,0.631206,0.3489615,0.203427,1.168255,-0.2046989,-0.0165818,0.6755033,0.04277654,2.095358,17.33337,29.05
5,-0.03645325,-0.1272583,0.9911957,0.8524884,-0.04092407,-0.137558,0.9896393,-31.46152,5.539276,-28.43951,3.465225,0.4946007,0.4194464,0.8665743,-0.02906799,-0.1102448,0.9934692,28.97116,6.926865,-26.55811,3.321228,0.631206,0.3489615,0.203427,1.168255,-0.2046989,-0.0165818,0.6755033,0.04277654,2.095358,17.33337,29.05
5,-0.03645325,-0.1272583,0.9911957,0.8524884,-0.04092407,-0.137558,0.9896393,-31.46152,5.539276,-28.43951,3.465225,0.4946007,0.4194464,0.8665743,-0.02906799,-0.1102448,0.9934692,28.97116,6.926865,-26.55811,3.321228,0.631206,0.3489615,0.2034407,1.168183,-0.2049057,-0.01636016,0.6761358,0.04207798,2.095358,17.33337,29.05
5,-0.03642273,-0.1320343,0.9905701,0.8518737,-0.03900146,-0.1394196,0.9894562,-31.46158,5.537064,-28.44142,3.488037,0.4942762,0.4198602,0.8806421,-0.02964783,-0.1125793,0.9931946,28.97174,6.910919,-26.4807,3.325027,0.6311766,0.3493149,0.2034999,1.168086,-0.205062,-0.01624843,0.6767941,0.04133851,2.095358,17.33337,29.05
5,-0.03642273,-0.1320343,0.9905701,0.8518737,-0.03900146,-0.1394196,0.9894562,-31.46158,5.537064,-28.44142,3.488037,0.4942762,0.4198602,0.8806421,-0.02964783,-0.1125793,0.9931946,28.97174,6.910919,-26.4807,3.325027,0.6311766,0.3493149,0.2034999,1.168086,-0.205062,-0.01624843,0.6767941,0.04133851,2.095358,17.33337,29.05
5,-0.03642273,-0.1320343,0.9905701,0.8518737,-0.03900146,-0.1394196,0.9894562,-31.46158,5.537064,-28.44142,3.488037,0.4942762,0.4198602,0.8806421,-0.02964783,-0.1125793,0.9931946,28.97174,6.910919,-26.4807,3.325027,0.6311766,0.3493149,0.2035009,1.168061,-0.2051697,-0.01616867,0.6770855,0.0410621,2.095358,17.33337,29.05
5,-0.03642273,-0.1320343,0.9905701,0.8518737,-0.03900146,-0.1394196,0.9894562,-31.46158,5.537064,-28.44142,3.488037,0.4942762,0.4198602,0.8806421,-0.02964783,-0.1125793,0.9931946,28.97174,6.910919,-26.4807,3.325027,0.6311766,0.3493149,0.2035009,1.168061,-0.2051697,-0.01616867,0.6770855,0.0410621,2.095358,17.33337,29.05
5,-0.03642273,-0.1320343,0.9905701,0.8518737,-0.03900146,-0.1394196,0.9894562,-31.46158,5.537064,-28.44142,3.488037,0.4942762,0.4198602,0.8806421,-0.02964783,-0.1125793,0.9931946,28.97174,6.910919,-26.4807,3.325027,0.6311766,0.3493149,0.2035543,1.167959,-0.2053517,-0.01613292,0.6777678,0.04068615,2.095358,1.603058,29.05
5,-0.04164124,-0.1477356,0.9881439,0.8396717,-0.04286194,-0.1505585,0.9876556,-31.45857,5.500076,-28.46223,3.57663,0.4948031,0.4232479,0.8722461,-0.03346252,-0.1287994,0.9911041,29.00705,6.76178,-26.25945,3.406372,0.6302865,0.3555214,0.2035686,1.167907,-0.2054701,-0.01608181,0.6780859,0.04046774,2.095358,1.603058,29.05
5,-0.04164124,-0.1477356,0.9881439,0.8396717,-0.04286194,-0.1505585,0.9876556,-31.45857,5.500076,-28.46223,3.57663,0.4948031,0.4232479,0.8722461,-0.03346252,-0.1287994,0.9911041,29.00705,6.76178,-26.25945,3.406372,0.6302865,0.3555214,0.2035686,1.167907,-0.2054701,-0.01608181,0.6780859,0.04046774,2.095358,1.603058,29.05
5,-0.02790833,-0.1620483,0.9863739,0.8333932,-0.02780151,-0.1625977,0.9862976,-31.44412,5.476807,-28.47049,3.559006,0.4917929,0.4261518,0.8738434,-0.03184509,-0.142334,0.9893036,29.03328,6.749771,-26.28568,3.339005,0.6290856,0.3585802,0.203593,1.167834,-0.2056389,-0.01602449,0.6788499,0.04020573,2.095358,1.603058,29.05
5,-0.0275116,-0.1612854,0.9865112,0.8354688,-0.02763367,-0.1630707,0.9862213,-31.44003,5.469147,-28.47382,3.632904,0.4916219,0.4265265,0.8697284,-0.02619934,-0.1413879,0.9895935,29.04489,6.744232,-26.27533,3.359497,0.6277238,0.358522,0.2036601,1.167803,-0.2057215,-0.01604354,0.6791629,0.03995123,2.095358,1.603058,29.05
5,-0.0275116,-0.1612854,0.9865112,0.8354688,-0.02763367,-0.1630707,0.9862213,-31.44003,5.469147,-28.47382,3.632904,0.4916219,0.4265265,0.8697284,-0.02619934,-0.1413879,0.9895935,29.04489,6.744232,-26.27533,3.359497,0.6277238,0.358522,0.2036601,1.167803,-0.2057215,-0.01604354,0.6791629,0.03995123,2.095358,1.603058,29.05
5,-0.02784729,-0.1530457,0.9878235,0.8200192,-0.02763367,-0.1637268,0.9861145,-31.43288,5.459534,-28.47119,3.624146,0.4913816,0.426941,0.8550765,-0.02806091,-0.1411743,0.9895782,29.05736,6.749771,-26.31055,3.359024,0.6276596,0.3585802,0.2037345,1.167768,-0.2059158,-0.01600704,0.6797479,0.03957018,2.095358,1.603058,29.05
5,-0.02536011,-0.1546936,0.9876251,0.8249229,-0.02558899,-0.1662903,0.985733,-31.42958,5.454727,-28.47049,3.598846,0.490928,0.4275368,0.8630406,-0.02508545,-0.1409607,0.9896851,29.06535,6.75,-26.34386,3.3741,0.6269253,0.3587979,0.2038033,1.167707,-0.2060165,-0.01593053,0.6800504,0.03964542,2.095358,1.603058,29.05
5,-0.02536011,-0.1546936,0.9876251,0.8249229,-0.02558899,-0.1662903,0.985733,-31.42958,5.454727,-28.47049,3.598846,0.490928,0.4275368,0.8630406,-0.02508545,-0.1409607,0.9896851,29.06535,6.75,-26.34386,3.3741,0.6269253,0.3587979,0.2038033,1.167707,-0.2060165,-0.01593053,0.6800504,0.03964542,2.095358,1.603058,29.05
5,-0.02574158,-0.1557007,0.9874573,0.8156047,-0.02633667,-0.1667175,0.9856415,-31.42468,5.4534,-28.47005,3.598618,0.4908874,0.4276506,0.8410808,-0.02496338,-0.1410675,0.9896698,29.06888,6.751022,-26.35576,3.373718,0.6267995,0.3588715,0.2039968,1.167629,-0.2061714,-0.0158675,0.6806418,0.03938607,2.095358,1.603058,29.05
5,-0.0262146,-0.157486,0.9871674,0.8156047,-0.02693176,-0.1673737,0.9855194,-31.4212,5.452118,-28.46999,3.600906,0.4908698,0.4278083,0.8410808,-0.025177,-0.1433716,0.9893341,29.07138,6.753342,-26.37555,3.375854,0.6267721,0.3593655,0.2040405,1.167572,-0.206277,-0.0159581,0.6809278,0.03927061,2.095358,1.603058,29.05
5,-0.0262146,-0.157486,0.9871674,0.8156047,-0.02693176,-0.1673737,0.9855194,-31.4212,5.452118,-28.46999,3.600906,0.4908698,0.4278083,0.8410808,-0.025177,-0.1433716,0.9893341,29.07138,6.753342,-26.37555,3.375854,0.6267721,0.3593655,0.2040405,1.167572,-0.206277,-0.0159581,0.6809278,0.03927061,2.095358,1.603058,29.05
5,-0.02664185,-0.1590729,0.9868927,0.8180833,-0.02719116,-0.1675568,0.9854736,-31.41331,5.44371,-28.46944,3.588394,0.490647,0.4281138,0.8392506,-0.02575684,-0.1454315,0.9890289,29.07916,6.76268,-26.43959,3.383041,0.6266826,0.3599142,0.2042383,1.167476,-0.206381,-0.01579573,0.6814793,0.03919731,2.095358,1.603058,29.05
5,-0.02639771,-0.1604156,0.9866943,0.8128297,-0.02746582,-0.1694183,0.9851532,-31.40724,5.436462,-28.46539,3.588531,0.4904874,0.4286507,0.8297806,-0.02458191,-0.1450348,0.9891052,29.08397,6.762939,-26.45547,3.382904,0.6263404,0.3599596,0.2043458,1.167441,-0.2064459,-0.01571131,0.6818303,0.03912016,2.095358,1.603058,29.05
5,-0.02639771,-0.1604156,0.9866943,0.8128297,-0.02746582,-0.1694183,0.9851532,-31.40724,5.436462,-28.46539,3.588531,0.4904874,0.4286507,0.8297806,-0.02458191,-0.1450348,0.9891052,29.08397,6.762939,-26.45547,3.382904,0.6263404,0.3599596,0.2043458,1.167441,-0.2064459,-0.01571131,0.6818303,0.03912016,2.095358,1.603058,29.05
5,-0.02401733,-0.1624298,0.9864197,0.8128297,-0.02760315,-0.1700287,0.9850464,-31.39412,5.430008,-28.4521,3.570053,0.4900694,0.4288568,0.8297806,-0.01837158,-0.1504822,0.9884338,29.09221,6.762939,-26.4597,3.377426,0.6250027,0.3609601,0.204548,1.167361,-0.2066557,-0.0153287,0.6822326,0.03888692,2.095358,1.603058,29.05
5,-0.02401733,-0.1624298,0.9864197,0.8120751,-0.02760315,-0.1700287,0.9850464,-31.39412,5.430008,-28.4521,3.570053,0.4900694,0.4288568,0.8281901,-0.01837158,-0.1504822,0.9884338,29.09221,6.762939,-26.4597,3.377426,0.6250027,0.3609601,0.2047395,1.167225,-0.2067736,-0.0148733,0.6827146,0.03877467,2.095358,-6.290314,29.05
