Second,eye_comb_direction_x,eye_comb_direction_y,eye_comb_direction_z,eye_r_openness,eye_r_direction_x,eye_r_direction_y,eye_r_direction_z,eye_r_origin_x,eye_r_origin_y,eye_r_origin_z,eye_r_pupil_diameter,eye_r_pupil_position_x,eye_r_pupil_position_y,eye_l_openness,eye_l_direction_x,eye_l_direction_y,eye_l_direction_z,eye_l_origin_x,eye_l_origin_y,eye_l_origin_z,eye_l_pupil_diameter,eye_l_pupil_position_x,eye_l_pupil_position_y,head_position_x,head_position_y,head_position_z,head_rotation_roll,head_rotation_pitch,head_rotation_yaw,EDA,BVP,TMP
0,-0.3100433,-0.2603302,0.9143677,1.0,-0.3816375999999999,-0.2771149,0.8817749,-27.35153,0.8528441999999999,-19.10112,4.843475,0.4145197,0.5152085,1.0,-0.2383728,-0.2423553,0.9404296999999998,33.40999,-1.104645,-22.62228,4.298447,0.5016022,0.5921108,-1.129687,-47.92705,42.59343,-0.02157591,0.6320913,-0.04174403,1.808593,0.15004937653035288,33.384036068072135
0,-0.3100433,-0.2603302,0.9143677,1.0,-0.3816375999999999,-0.2771149,0.8817749,-27.35153,0.8528441999999999,-19.10112,4.843475,0.4145197,0.5152085,1.0,-0.2383728,-0.2423553,0.9404296999999998,33.40999,-1.104645,-22.62228,4.298447,0.5016022,0.5921108,-1.129687,-47.92705,42.59343,-0.02157591,0.6320913,-0.04174403,1.808593,0.15004937653035288,33.384036068072135
0,-0.3100433,-0.2603302,0.9143677,1.0,-0.3816375999999999,-0.2771149,0.8817749,-27.35153,0.8528441999999999,-19.10112,4.843475,0.4145197,0.5152085,1.0,-0.2383728,-0.2423553,0.9404296999999998,33.40999,-1.104645,-22.62228,4.298447,0.5016022,0.5921108,-1.129687,-47.92705,42.59343,-0.02157591,0.6320913,-0.04174403,1.808593,0.15004937653035288,33.384036068072135
0,-0.3100433,-0.2603302,0.9143677,1.0,-0.3816375999999999,-0.2771149,0.8817749,-27.35153,0.8528441999999999,-19.10112,4.843475,0.4145197,0.5152085,1.0,-0.2383728,-0.2423553,0.9404296999999998,33.40999,-1.104645,-22.62228,4.298447,0.5016022,0.5921108,-1.129687,-47.92705,42.59343,-0.02157591,0.6320913,-0.04174403,1.808593,0.15004937653035288,33.384036068072135
0,-0.1995392,-0.4774627999999999,0.8556824000000001,1.0,-0.2932892,-0.5072632,0.8103333,-26.98286,0.1608276,-19.29002,4.844528,0.3926392,0.5660299,1.0,-0.1712798999999999,-0.4675446,0.8672028,33.51126,-1.6838380000000002,-22.78676,4.258057,0.4905947,0.6400515999999999,-1.1270440000000002,-47.92868,42.59364,-0.01351071,0.6349467,-0.0466644,1.808593,0.15004937653035288,33.384036068072135
0,-0.1995392,-0.4774627999999999,0.8556824000000001,1.0,-0.2932892,-0.5072632,0.8103333,-26.98286,0.1608276,-19.29002,4.844528,0.3926392,0.5660299,1.0,-0.1712798999999999,-0.4675446,0.8672028,33.51126,-1.6838380000000002,-22.78676,4.258057,0.4905947,0.6400515999999999,-1.1270440000000002,-47.92868,42.59364,-0.01351071,0.6349467,-0.0466644,1.808593,0.15004937653035288,33.384036068072135
0,-0.1995392,-0.4774627999999999,0.8556824000000001,1.0,-0.2932892,-0.5072632,0.8103333,-26.98286,0.1608276,-19.29002,4.844528,0.3926392,0.5660299,1.0,-0.1712798999999999,-0.4675446,0.8672028,33.51126,-1.6838380000000002,-22.78676,4.258057,0.4905947,0.6400515999999999,-1.1270440000000002,-47.92868,42.59364,-0.01351071,0.6349467,-0.0466644,1.808593,0.15004937653035288,33.384036068072135
0,-0.2185516,-0.5095978,0.8321685999999999,0.7264393,-0.3078002999999999,-0.5236206,0.7943878000000001,-26.989290000000004,0.2056579999999999,-19.31364,4.728851000000001,0.3945405,0.5671968000000001,0.9373465,-0.1721497,-0.5005646,0.8484039000000001,33.58702,-1.652023,-22.78091,4.184737999999999,0.488332,0.6434026999999999,-1.126093,-47.92955,42.59381,-0.009978829,0.6362494000000001,-0.04912712,1.808593,0.15004937653035288,33.384036068072135
0,-0.2185516,-0.5095978,0.8321685999999999,0.7264393,-0.3078002999999999,-0.5236206,0.7943878000000001,-26.989290000000004,0.2056579999999999,-19.31364,4.728851000000001,0.3945405,0.5671968000000001,0.9373465,-0.1721497,-0.5005646,0.8484039000000001,33.58702,-1.652023,-22.78091,4.184737999999999,0.488332,0.6434026999999999,-1.126093,-47.92955,42.59381,-0.009978829,0.6362494000000001,-0.04912712,1.808593,0.15004937653035288,33.384036068072135
0,-0.2185516,-0.5095978,0.8321685999999999,0.7264393,-0.3078002999999999,-0.5236206,0.7943878000000001,-26.989290000000004,0.2056579999999999,-19.31364,4.728851000000001,0.3945405,0.5671968000000001,0.9373465,-0.1721497,-0.5005646,0.8484039000000001,33.58702,-1.652023,-22.78091,4.184737999999999,0.488332,0.6434026999999999,-1.126093,-47.92955,42.59381,-0.009978829,0.6362494000000001,-0.04912712,1.808593,0.15004937653035288,33.384036068072135
0,-0.2153931,-0.4869843,0.8464203000000001,0.712779,-0.3056640999999999,-0.4976196,0.8117371,-26.99365,0.2097473,-19.30827,4.739058999999999,0.3943950999999999,0.5635886,0.9216914,-0.1593933,-0.4782561999999999,0.8636169,33.60272,-1.6549220000000002,-22.76659,4.199203,0.4863614,0.6402106,-1.125026,-47.9305,42.59391,-0.0063438409999999,0.6376016,-0.05192787,1.808593,0.15004937653035288,33.384036068072135
0,-0.2153931,-0.4869843,0.8464203000000001,0.712779,-0.3056640999999999,-0.4976196,0.8117371,-26.99365,0.2097473,-19.30827,4.739058999999999,0.3943950999999999,0.5635886,0.9216914,-0.1593933,-0.4782561999999999,0.8636169,33.60272,-1.6549220000000002,-22.76659,4.199203,0.4863614,0.6402106,-1.125026,-47.9305,42.59391,-0.0063438409999999,0.6376016,-0.05192787,1.808593,0.15004937653035288,33.384036068072135
0,-0.2153931,-0.4869843,0.8464203000000001,0.712779,-0.3056640999999999,-0.4976196,0.8117371,-26.99365,0.2097473,-19.30827,4.739058999999999,0.3943950999999999,0.5635886,0.9216914,-0.1593933,-0.4782561999999999,0.8636169,33.60272,-1.6549220000000002,-22.76659,4.199203,0.4863614,0.6402106,-1.125026,-47.9305,42.59391,-0.0063438409999999,0.6376016,-0.05192787,1.808593,0.15004937653035288,33.384036068072135
0,-0.2145691,-0.4729766999999999,0.8545379999999999,0.7139718,-0.3050842,-0.4779053,0.8237152,-27.00072,0.2271576,-19.29845,4.710419,0.3945405,0.5604239000000001,0.917977,-0.1556091,-0.4675597999999999,0.8701476999999999,33.63077,-1.652023,-22.75301,4.178772,0.4850558,0.6385316,-1.122856,-47.93274,42.5942,0.002119599,0.6403806,-0.05810374,1.808593,0.15004937653035288,33.384036068072135
0,-0.2145691,-0.4729766999999999,0.8545379999999999,0.7139718,-0.3050842,-0.4779053,0.8237152,-27.00072,0.2271576,-19.29845,4.710419,0.3945405,0.5604239000000001,0.917977,-0.1556091,-0.4675597999999999,0.8701476999999999,33.63077,-1.652023,-22.75301,4.178772,0.4850558,0.6385316,-1.122856,-47.93274,42.5942,0.002119599,0.6403806,-0.05810374,1.808593,0.15004937653035288,33.384036068072135
0,-0.2145691,-0.4729766999999999,0.8545379999999999,0.7139718,-0.3050842,-0.4779053,0.8237152,-27.00072,0.2271576,-19.29845,4.710419,0.3945405,0.5604239000000001,0.917977,-0.1556091,-0.4675597999999999,0.8701476999999999,33.63077,-1.652023,-22.75301,4.178772,0.4850558,0.6385316,-1.122856,-47.93274,42.5942,0.002119599,0.6403806,-0.05810374,1.808593,0.15004937653035288,33.384036068072135
0,-0.2145691,-0.4729766999999999,0.8545379999999999,0.7139718,-0.3050842,-0.4779053,0.8237152,-27.00072,0.2271576,-19.29845,4.710419,0.3945405,0.5604239000000001,0.917977,-0.1556091,-0.4675597999999999,0.8701476999999999,33.63077,-1.652023,-22.75301,4.178772,0.4850558,0.6385316,-1.121898,-47.93388,42.59431,0.006541021,0.6417084,-0.06124363,1.808593,0.15004937653035288,33.384036068072135
0,-0.2145691,-0.4729766999999999,0.8545379999999999,0.7139718,-0.3050842,-0.4779053,0.8237152,-27.00072,0.2271576,-19.29845,4.710419,0.3945405,0.5604239000000001,0.917977,-0.1556091,-0.4675597999999999,0.8701476999999999,33.63077,-1.652023,-22.75301,4.178772,0.4850558,0.6385316,-1.121898,-47.93388,42.59431,0.006541021,0.6417084,-0.06124363,1.808593,0.15004937653035288,33.384036068072135
0,-0.2145691,-0.4729766999999999,0.8545379999999999,0.7139718,-0.3050842,-0.4779053,0.8237152,-27.00072,0.2271576,-19.29845,4.710419,0.3945405,0.5604239000000001,0.917977,-0.1556091,-0.4675597999999999,0.8701476999999999,33.63077,-1.652023,-22.75301,4.178772,0.4850558,0.6385316,-1.121898,-47.93388,42.59431,0.006541021,0.6417084,-0.06124363,1.808593,0.15004937653035288,33.384036068072135
0,-0.2155304,-0.4687653,0.8566132,0.7139718,-0.3046264999999999,-0.4677582,0.8296814,-26.99963,0.2319489,-19.29204,4.715881,0.3944480999999999,0.5589088000000001,0.917977,-0.1579437,-0.4672852,0.869873,33.63916,-1.651962,-22.74472,4.175735,0.485052,0.6384473,-1.120838,-47.93508,42.594440000000006,0.01078389,0.6429114,-0.06434435,1.808593,0.15004937653035288,33.384036068072135
0,-0.2155304,-0.4687653,0.8566132,0.7139718,-0.3046264999999999,-0.4677582,0.8296814,-26.99963,0.2319489,-19.29204,4.715881,0.3944480999999999,0.5589088000000001,0.917977,-0.1579437,-0.4672852,0.869873,33.63916,-1.651962,-22.74472,4.175735,0.485052,0.6384473,-1.120838,-47.93508,42.594440000000006,0.01078389,0.6429114,-0.06434435,1.808593,0.15004937653035288,33.384036068072135
0,-0.2155304,-0.4687653,0.8566132,0.7139718,-0.3046264999999999,-0.4677582,0.8296814,-26.99963,0.2319489,-19.29204,4.715881,0.3944480999999999,0.5589088000000001,0.917977,-0.1579437,-0.4672852,0.869873,33.63916,-1.651962,-22.74472,4.175735,0.485052,0.6384473,-1.120838,-47.93508,42.594440000000006,0.01078389,0.6429114,-0.06434435,1.808593,0.15004937653035288,33.384036068072135
0,-0.2155304,-0.4687653,0.8566132,0.7139718,-0.3046264999999999,-0.4677582,0.8296814,-26.99963,0.2319489,-19.29204,4.715881,0.3944480999999999,0.5589088000000001,0.917977,-0.1579437,-0.4672852,0.869873,33.63916,-1.651962,-22.74472,4.175735,0.485052,0.6384473,-1.119257,-47.93663,42.594640000000005,0.01706268,0.6447556999999999,-0.06871726,1.808593,0.15004937653035288,33.55
0,-0.2155304,-0.4687653,0.8566132,0.7139718,-0.3046264999999999,-0.4677582,0.8296814,-26.99963,0.2319489,-19.29204,4.715881,0.3944480999999999,0.5589088000000001,0.917977,-0.1579437,-0.4672852,0.869873,33.63916,-1.651962,-22.74472,4.175735,0.485052,0.6384473,-1.119257,-47.93663,42.594640000000005,0.01706268,0.6447556999999999,-0.06871726,1.808593,0.15004937653035288,33.55
0,-0.2155304,-0.4687653,0.8566132,0.7139718,-0.3046264999999999,-0.4677582,0.8296814,-26.99963,0.2319489,-19.29204,4.715881,0.3944480999999999,0.5589088000000001,0.917977,-0.1579437,-0.4672852,0.869873,33.63916,-1.651962,-22.74472,4.175735,0.485052,0.6384473,-1.119257,-47.93663,42.594640000000005,0.01706268,0.6447556999999999,-0.06871726,1.808593,0.15004937653035288,33.55
0,-0.2155304,-0.4687653,0.8566132,0.7139718,-0.3046264999999999,-0.4677582,0.8296814,-26.99963,0.2319489,-19.29204,4.715881,0.3944480999999999,0.5589088000000001,0.917977,-0.1579437,-0.4672852,0.869873,33.63916,-1.651962,-22.74472,4.175735,0.485052,0.6384473,-1.118263,-47.93752,42.59475,0.02032828,0.646027,-0.07063031,1.808593,8.101776,33.55
0,-0.2155304,-0.4687653,0.8566132,0.7139718,-0.3046264999999999,-0.4677582,0.8296814,-26.99963,0.2319489,-19.29204,4.715881,0.3944480999999999,0.5589088000000001,0.917977,-0.1579437,-0.4672852,0.869873,33.63916,-1.651962,-22.74472,4.175735,0.485052,0.6384473,-1.118263,-47.93752,42.59475,0.02032828,0.646027,-0.07063031,1.808593,8.101776,33.55
0,-0.2155304,-0.4687653,0.8566132,0.7139718,-0.3046264999999999,-0.4677582,0.8296814,-26.99963,0.2319489,-19.29204,4.715881,0.3944480999999999,0.5589088000000001,0.917977,-0.1579437,-0.4672852,0.869873,33.63916,-1.651962,-22.74472,4.175735,0.485052,0.6384473,-1.118263,-47.93752,42.59475,0.02032828,0.646027,-0.07063031,1.808593,8.101776,33.55
0,-0.2313385,-0.3744659,0.8979034,0.7657233,-0.2760468,-0.4093018,0.8696289,-26.88734,0.6703796,-19.04854,4.212372,0.3878352,0.5353606,0.9689721,-0.1428833,-0.30336,0.9420929,33.944,-1.2737120000000002,-22.47795,4.032898,0.4739294,0.6026286,-1.117402,-47.93818,42.59486,0.02273124,0.6473616,-0.07147489,1.808593,8.101776,33.55
0,-0.2313385,-0.3744659,0.8979034,0.7657233,-0.2760468,-0.4093018,0.8696289,-26.88734,0.6703796,-19.04854,4.212372,0.3878352,0.5353606,0.9689721,-0.1428833,-0.30336,0.9420929,33.944,-1.2737120000000002,-22.47795,4.032898,0.4739294,0.6026286,-1.117402,-47.93818,42.59486,0.02273124,0.6473616,-0.07147489,1.808593,8.101776,33.55
0,-0.2313385,-0.3744659,0.8979034,0.7657233,-0.2760468,-0.4093018,0.8696289,-26.88734,0.6703796,-19.04854,4.212372,0.3878352,0.5353606,0.9689721,-0.1428833,-0.30336,0.9420929,33.944,-1.2737120000000002,-22.47795,4.032898,0.4739294,0.6026286,-1.117402,-47.93818,42.59486,0.02273124,0.6473616,-0.07147489,1.808593,8.101776,33.55
0,-0.2233734,-0.3614502,0.9052277,0.7688163,-0.2740936,-0.3912811,0.8784943000000001,-26.87782,0.710434,-19.03247,4.339493,0.3873287,0.5316558000000001,0.9733075,-0.1315613,-0.30513,0.943161,33.96626,-1.261978,-22.4651,3.953247,0.4720479999999999,0.6022574,-1.115833,-47.93875,42.5951,0.02587308,0.6495901,-0.0724658,1.808593,8.101776,33.55
0,-0.2233734,-0.3614502,0.9052277,0.7688163,-0.2740936,-0.3912811,0.8784943000000001,-26.87782,0.710434,-19.03247,4.339493,0.3873287,0.5316558000000001,0.9733075,-0.1315613,-0.30513,0.943161,33.96626,-1.261978,-22.4651,3.953247,0.4720479999999999,0.6022574,-1.115833,-47.93875,42.5951,0.02587308,0.6495901,-0.0724658,1.808593,8.101776,33.55
0,-0.2233734,-0.3614502,0.9052277,0.7688163,-0.2740936,-0.3912811,0.8784943000000001,-26.87782,0.710434,-19.03247,4.339493,0.3873287,0.5316558000000001,0.9733075,-0.1315613,-0.30513,0.943161,33.96626,-1.261978,-22.4651,3.953247,0.4720479999999999,0.6022574,-1.115833,-47.93875,42.5951,0.02587308,0.6495901,-0.0724658,1.808593,8.101776,33.55
0,-0.1799316,-0.3594970999999999,0.9156189,1.0,-0.2733764999999999,-0.3793793,0.8839111,-26.79018,0.8057861,-18.95547,4.027893,0.3845232,0.5265843000000001,1.0,-0.09985352,-0.3399506,0.9351196,34.00563,-1.138382,-22.4184,3.826279,0.4673825,0.6019129,-1.115116,-47.93874,42.59513,0.02623681,0.6505069,-0.07250095,1.808593,8.101776,33.55
0,-0.1799316,-0.3594970999999999,0.9156189,1.0,-0.2733764999999999,-0.3793793,0.8839111,-26.79018,0.8057861,-18.95547,4.027893,0.3845232,0.5265843000000001,1.0,-0.09985352,-0.3399506,0.9351196,34.00563,-1.138382,-22.4184,3.826279,0.4673825,0.6019129,-1.115116,-47.93874,42.59513,0.02623681,0.6505069,-0.07250095,1.808593,8.101776,33.55
0,-0.1799316,-0.3594970999999999,0.9156189,1.0,-0.2733764999999999,-0.3793793,0.8839111,-26.79018,0.8057861,-18.95547,4.027893,0.3845232,0.5265843000000001,1.0,-0.09985352,-0.3399506,0.9351196,34.00563,-1.138382,-22.4184,3.826279,0.4673825,0.6019129,-1.115116,-47.93874,42.59513,0.02623681,0.6505069,-0.07250095,1.808593,8.101776,33.55
0,-1.0,-1.0,-1.0,1.0,0.0,0.0,0.0,-26.80507,1.655243,-18.79427,-1.0,0.3860049,0.4706808,1.0,0.0,0.0,0.0,33.819759999999995,-0.2941589,-22.3463,-1.0,0.4849257,0.5379248000000001,-1.114818,-47.93873,42.595290000000006,0.02597352,0.65165,-0.07184299,1.808593,8.101776,33.55
0,-1.0,-1.0,-1.0,1.0,0.0,0.0,0.0,-26.80507,1.655243,-18.79427,-1.0,0.3860049,0.4706808,1.0,0.0,0.0,0.0,33.819759999999995,-0.2941589,-22.3463,-1.0,0.4849257,0.5379248000000001,-1.114818,-47.93873,42.595290000000006,0.02597352,0.65165,-0.07184299,1.808593,8.101776,33.55
0,-1.0,-1.0,-1.0,1.0,0.0,0.0,0.0,-26.80507,1.655243,-18.79427,-1.0,0.3860049,0.4706808,1.0,0.0,0.0,0.0,33.819759999999995,-0.2941589,-22.3463,-1.0,0.4849257,0.5379248000000001,-1.114818,-47.93873,42.595290000000006,0.02597352,0.65165,-0.07184299,1.808593,8.101776,33.55
0,-1.0,-1.0,-1.0,1.0,0.0,0.0,0.0,-26.79196,1.816528,-18.83359,-1.0,0.3782933,0.4491577999999999,1.0,0.0,0.0,0.0,33.77882,-0.1140747,-22.3703,-1.0,0.4845508,0.5182321,-1.114317,-47.93858,42.59533,0.02521653,0.6531071999999999,-0.07133433,1.808593,8.101776,33.55
0,-1.0,-1.0,-1.0,1.0,0.0,0.0,0.0,-26.79196,1.816528,-18.83359,-1.0,0.3782933,0.4491577999999999,1.0,0.0,0.0,0.0,33.77882,-0.1140747,-22.3703,-1.0,0.4845508,0.5182321,-1.114317,-47.93858,42.59533,0.02521653,0.6531071999999999,-0.07133433,1.808593,8.101776,33.55
0,-1.0,-1.0,-1.0,1.0,0.0,0.0,0.0,-26.79196,1.816528,-18.83359,-1.0,0.3782933,0.4491577999999999,1.0,0.0,0.0,0.0,33.77882,-0.1140747,-22.3703,-1.0,0.4845508,0.5182321,-1.114317,-47.93858,42.59533,0.02521653,0.6531071999999999,-0.07133433,1.808593,8.101776,33.55
0,-1.0,-1.0,-1.0,1.0,0.0,0.0,0.0,-26.81874,1.9543,-18.80493,-1.0,0.3816863,0.4413379,1.0,0.0,0.0,0.0,33.75642,0.09283447,-22.35663,-1.0,0.4808234,0.507167,-1.114486,-47.93837,42.595290000000006,0.02385952,0.6542737,-0.07062108,1.808593,-4.956871,33.55
0,-1.0,-1.0,-1.0,1.0,0.0,0.0,0.0,-26.81874,1.9543,-18.80493,-1.0,0.3816863,0.4413379,1.0,0.0,0.0,0.0,33.75642,0.09283447,-22.35663,-1.0,0.4808234,0.507167,-1.114486,-47.93837,42.595290000000006,0.02385952,0.6542737,-0.07062108,1.808593,-4.956871,33.55
0,-1.0,-1.0,-1.0,1.0,0.0,0.0,0.0,-26.81874,1.9543,-18.80493,-1.0,0.3816863,0.4413379,1.0,0.0,0.0,0.0,33.75642,0.09283447,-22.35663,-1.0,0.4808234,0.507167,-1.114486,-47.93837,42.595290000000006,0.02385952,0.6542737,-0.07062108,1.808593,-4.956871,33.55
0,-0.1794281,0.08657837,0.97995,1.0,-0.2347717,0.03919983,0.9712524,-26.80191,1.864975,-18.80472,4.360687,0.3811479,0.4438492999999999,1.0,-0.1442108,0.1160736,0.9827118,33.80353,0.04222107,-22.34941,3.96109,0.4794760999999999,0.5104162999999999,-1.11497,-47.9382,42.59527,0.02303372,0.6549163,-0.07007977,1.808593,-4.956871,33.55
0,-0.1794281,0.08657837,0.97995,1.0,-0.2347717,0.03919983,0.9712524,-26.80191,1.864975,-18.80472,4.360687,0.3811479,0.4438492999999999,1.0,-0.1442108,0.1160736,0.9827118,33.80353,0.04222107,-22.34941,3.96109,0.4794760999999999,0.5104162999999999,-1.11497,-47.9382,42.59527,0.02303372,0.6549163,-0.07007977,1.808593,-4.956871,33.55
0,-0.1794281,0.08657837,0.97995,1.0,-0.2347717,0.03919983,0.9712524,-26.80191,1.864975,-18.80472,4.360687,0.3811479,0.4438492999999999,1.0,-0.1442108,0.1160736,0.9827118,33.80353,0.04222107,-22.34941,3.96109,0.4794760999999999,0.5104162999999999,-1.11497,-47.9382,42.59527,0.02303372,0.6549163,-0.07007977,1.808593,-4.956871,33.55
0,-0.1559752999999999,0.06011963,0.9859161,1.0,-0.2267913999999999,0.03112793,0.9734344,-26.83786,1.857849,-18.84329,4.308258,0.38137,0.4451765,1.0,-0.09384155,0.08496094,0.9919434,33.87943,-0.01765442,-22.41118,3.76384,0.4715398,0.5158335000000001,-1.115784,-47.93806,42.59528,0.02176055,0.6550298000000001,-0.06946246,1.808593,-4.956871,33.55
0,-0.1559752999999999,0.06011963,0.9859161,1.0,-0.2267913999999999,0.03112793,0.9734344,-26.83786,1.857849,-18.84329,4.308258,0.38137,0.4451765,1.0,-0.09384155,0.08496094,0.9919434,33.87943,-0.01765442,-22.41118,3.76384,0.4715398,0.5158335000000001,-1.115784,-47.93806,42.59528,0.02176055,0.6550298000000001,-0.06946246,1.808593,-4.956871,33.55
0,-0.1559752999999999,0.06011963,0.9859161,1.0,-0.2267913999999999,0.03112793,0.9734344,-26.83786,1.857849,-18.84329,4.308258,0.38137,0.4451765,1.0,-0.09384155,0.08496094,0.9919434,33.87943,-0.01765442,-22.41118,3.76384,0.4715398,0.5158335000000001,-1.115784,-47.93806,42.59528,0.02176055,0.6550298000000001,-0.06946246,1.808593,-4.956871,33.55
0,-0.1525879,0.05781555,0.9865875,1.0,-0.2293091,0.03744507,0.9726257,-26.82268,1.836212,-18.86551,4.299515,0.3811515,0.4453511999999999,1.0,-0.08930969,0.0741271999999999,0.9932251,33.88029,-0.02894592,-22.36374,3.768814,0.4709985,0.5169951,-1.115784,-47.93806,42.59528,0.02176055,0.6550298000000001,-0.06946246,1.808593,-4.956871,33.55
0,-0.1525879,0.05781555,0.9865875,1.0,-0.2293091,0.03744507,0.9726257,-26.82268,1.836212,-18.86551,4.299515,0.3811515,0.4453511999999999,1.0,-0.08930969,0.0741271999999999,0.9932251,33.88029,-0.02894592,-22.36374,3.768814,0.4709985,0.5169951,-1.115784,-47.93806,42.59528,0.02176055,0.6550298000000001,-0.06946246,1.808593,-4.956871,33.55
0,-0.1525879,0.05781555,0.9865875,1.0,-0.2293091,0.03744507,0.9726257,-26.82268,1.836212,-18.86551,4.299515,0.3811515,0.4453511999999999,1.0,-0.08930969,0.0741271999999999,0.9932251,33.88029,-0.02894592,-22.36374,3.768814,0.4709985,0.5169951,-1.115784,-47.93806,42.59528,0.02176055,0.6550298000000001,-0.06946246,1.808593,-4.956871,33.55
0,-0.1527862999999999,0.05574036,0.9866791,1.0,-0.2298737,0.04022217,0.9723815999999998,-26.82091,1.839737,-18.888,4.299926999999999,0.3811478,0.445114,1.0,-0.08410645,0.06910706,0.9940491,33.88217,-0.03927612,-22.33463,3.775055000000001,0.4703483,0.5176317,-1.11682,-47.93768,42.59518,0.0194572999999999,0.6546954,-0.06839572,1.808593,-4.956871,33.55
0,-0.1527862999999999,0.05574036,0.9866791,1.0,-0.2298737,0.04022217,0.9723815999999998,-26.82091,1.839737,-18.888,4.299926999999999,0.3811478,0.445114,1.0,-0.08410645,0.06910706,0.9940491,33.88217,-0.03927612,-22.33463,3.775055000000001,0.4703483,0.5176317,-1.11682,-47.93768,42.59518,0.0194572999999999,0.6546954,-0.06839572,1.808593,-4.956871,33.55
0,-0.1527862999999999,0.05574036,0.9866791,1.0,-0.2298737,0.04022217,0.9723815999999998,-26.82091,1.839737,-18.888,4.299926999999999,0.3811478,0.445114,1.0,-0.08410645,0.06910706,0.9940491,33.88217,-0.03927612,-22.33463,3.775055000000001,0.4703483,0.5176317,-1.11682,-47.93768,42.59518,0.0194572999999999,0.6546954,-0.06839572,1.808593,-4.956871,33.55
0,-0.1503905999999999,0.05369568,0.9871521,1.0,-0.2293549,0.03935242,0.9725342,-26.82111,1.843857,-18.89314,4.2991790000000005,0.3810929,0.4451134,1.0,-0.08447266,0.06524658,0.994278,33.88496,-0.04408264,-22.33597,3.790237,0.4702739999999999,0.518249,-1.118143,-47.93705,42.59504,0.0157648,0.6538622,-0.06648872,1.808593,-4.956871,33.55
0,-0.1503905999999999,0.05369568,0.9871521,1.0,-0.2293549,0.03935242,0.9725342,-26.82111,1.843857,-18.89314,4.2991790000000005,0.3810929,0.4451134,1.0,-0.08447266,0.06524658,0.994278,33.88496,-0.04408264,-22.33597,3.790237,0.4702739999999999,0.518249,-1.118143,-47.93705,42.59504,0.0157648,0.6538622,-0.06648872,1.808593,-4.956871,33.55
0,-0.1503905999999999,0.05369568,0.9871521,1.0,-0.2293549,0.03935242,0.9725342,-26.82111,1.843857,-18.89314,4.2991790000000005,0.3810929,0.4451134,1.0,-0.08447266,0.06524658,0.994278,33.88496,-0.04408264,-22.33597,3.790237,0.4702739999999999,0.518249,-1.118143,-47.93705,42.59504,0.0157648,0.6538622,-0.06648872,1.808593,-4.956871,33.55
1,-0.1383972,0.05075073,0.9890594,1.0,-0.2258606,0.03959656,0.9733429,-26.82341,1.845154,-18.90643,4.275314,0.3807693,0.445114,1.0,-0.08335876,0.05747986,0.9948578,33.88792,-0.04820251,-22.33096,3.777893,0.47006,0.519196,-1.119665,-47.93625,42.59489,0.01196865,0.6529941999999999,-0.06399079,1.808593,-20.06645,33.55
1,-0.1383972,0.05075073,0.9890594,1.0,-0.2258606,0.03959656,0.9733429,-26.82341,1.845154,-18.90643,4.275314,0.3807693,0.445114,1.0,-0.08335876,0.05747986,0.9948578,33.88792,-0.04820251,-22.33096,3.777893,0.47006,0.519196,-1.119665,-47.93625,42.59489,0.01196865,0.6529941999999999,-0.06399079,1.808593,-20.06645,33.55
1,-0.1383972,0.05075073,0.9890594,1.0,-0.2258606,0.03959656,0.9733429,-26.82341,1.845154,-18.90643,4.275314,0.3807693,0.445114,1.0,-0.08335876,0.05747986,0.9948578,33.88792,-0.04820251,-22.33096,3.777893,0.47006,0.519196,-1.119665,-47.93625,42.59489,0.01196865,0.6529941999999999,-0.06399079,1.808593,-20.06645,33.55
1,-0.1341552999999999,0.04425049,0.9899597,1.0,-0.2283936,0.03225708,0.9730225,-26.82826,1.843857,-18.96581,4.25,0.3811552,0.4463989,1.0,-0.08322144,0.05050659,0.9952393,33.8985,-0.070755,-22.32346,3.751068,0.4697234,0.5206125,-1.121436,-47.93546,42.59478,0.008064266,0.6518292,-0.06139636,1.808593,-20.06645,33.55
1,-0.1341552999999999,0.04425049,0.9899597,1.0,-0.2283936,0.03225708,0.9730225,-26.82826,1.843857,-18.96581,4.25,0.3811552,0.4463989,1.0,-0.08322144,0.05050659,0.9952393,33.8985,-0.070755,-22.32346,3.751068,0.4697234,0.5206125,-1.121436,-47.93546,42.59478,0.008064266,0.6518292,-0.06139636,1.808593,-20.06645,33.55
1,-0.1341552999999999,0.04425049,0.9899597,1.0,-0.2283936,0.03225708,0.9730225,-26.82826,1.843857,-18.96581,4.25,0.3811552,0.4463989,1.0,-0.08322144,0.05050659,0.9952393,33.8985,-0.070755,-22.32346,3.751068,0.4697234,0.5206125,-1.121436,-47.93546,42.59478,0.008064266,0.6518292,-0.06139636,1.808593,-20.06645,33.55
1,-0.1389312999999999,0.02886963,0.9898682,1.0,-0.233017,0.01225281,0.9723815999999998,-26.84415,1.827377,-19.00891,4.229369999999999,0.382119,0.4494402,1.0,-0.08879089,0.03753662,0.9953308,33.91214,-0.1019287,-22.27319,3.718536,0.4699445,0.5226428,-1.123092,-47.93452,42.5946,0.004190587,0.6504726,-0.05886669,1.808593,-20.06645,33.55
1,-0.1389312999999999,0.02886963,0.9898682,1.0,-0.233017,0.01225281,0.9723815999999998,-26.84415,1.827377,-19.00891,4.229369999999999,0.382119,0.4494402,1.0,-0.08879089,0.03753662,0.9953308,33.91214,-0.1019287,-22.27319,3.718536,0.4699445,0.5226428,-1.123092,-47.93452,42.5946,0.004190587,0.6504726,-0.05886669,1.808593,-20.06645,33.55
1,-0.1389312999999999,0.02886963,0.9898682,1.0,-0.233017,0.01225281,0.9723815999999998,-26.84415,1.827377,-19.00891,4.229369999999999,0.382119,0.4494402,1.0,-0.08879089,0.03753662,0.9953308,33.91214,-0.1019287,-22.27319,3.718536,0.4699445,0.5226428,-1.123092,-47.93452,42.5946,0.004190587,0.6504726,-0.05886669,1.808593,-20.06645,33.55
1,-0.1485443,0.0171814,0.9887543,1.0,-0.2449036,-0.01249695,0.9694519,-26.90216,1.7188720000000002,-19.031270000000003,4.236496,0.3852155,0.4558473,1.0,-0.09204102,0.03430176,0.995163,33.91638,-0.153717,-22.28423,3.713303,0.4701577999999999,0.5247734000000001,-1.124497,-47.9334,42.59429,0.0009533996,0.649393,-0.05671726,1.808593,-20.06645,33.55
1,-0.1485443,0.0171814,0.9887543,1.0,-0.2449036,-0.01249695,0.9694519,-26.90216,1.7188720000000002,-19.031270000000003,4.236496,0.3852155,0.4558473,1.0,-0.09204102,0.03430176,0.995163,33.91638,-0.153717,-22.28423,3.713303,0.4701577999999999,0.5247734000000001,-1.124497,-47.9334,42.59429,0.0009533996,0.649393,-0.05671726,1.808593,-20.06645,33.55
1,-0.1485443,0.0171814,0.9887543,1.0,-0.2449036,-0.01249695,0.9694519,-26.90216,1.7188720000000002,-19.031270000000003,4.236496,0.3852155,0.4558473,1.0,-0.09204102,0.03430176,0.995163,33.91638,-0.153717,-22.28423,3.713303,0.4701577999999999,0.5247734000000001,-1.124497,-47.9334,42.59429,0.0009533996,0.649393,-0.05671726,1.808593,-20.06645,33.55
1,-0.1610718,-0.009353638,0.9868927,1.0,-0.2554932,-0.03764343,0.9660645,-26.92523,1.693741,-19.02591,4.338776,0.3871031,0.4594792,1.0,-0.09718323,0.009567261,0.9952087,33.86206,-0.300705,-22.24944,3.712448,0.4724371,0.532043,-1.126056,-47.93283,42.59386,-0.0017198489999999,0.6488225999999999,-0.0558105,1.808593,-20.06645,33.55
1,-0.1610718,-0.009353638,0.9868927,1.0,-0.2554932,-0.03764343,0.9660645,-26.92523,1.693741,-19.02591,4.338776,0.3871031,0.4594792,1.0,-0.09718323,0.009567261,0.9952087,33.86206,-0.300705,-22.24944,3.712448,0.4724371,0.532043,-1.126056,-47.93283,42.59386,-0.0017198489999999,0.6488225999999999,-0.0558105,1.808593,-20.06645,33.55
1,-0.1610718,-0.009353638,0.9868927,1.0,-0.2554932,-0.03764343,0.9660645,-26.92523,1.693741,-19.02591,4.338776,0.3871031,0.4594792,1.0,-0.09718323,0.009567261,0.9952087,33.86206,-0.300705,-22.24944,3.712448,0.4724371,0.532043,-1.126056,-47.93283,42.59386,-0.0017198489999999,0.6488225999999999,-0.0558105,1.808593,-20.06645,33.55
1,-0.1902007999999999,-0.03112793,0.9812469,1.0,-0.2689667,-0.04624939,0.9620209,-26.98898,1.588776,-19.03694,4.2003330000000005,0.3905903,0.4638373999999999,1.0,-0.09675598,-0.01324463,0.9952087,33.77823,-0.3832703,-22.21223,3.632248,0.4751572,0.5369273,-1.127304,-47.93301,42.59297,-0.002520981,0.6498915,-0.0581395,1.808593,-20.06645,33.55
1,-0.1902007999999999,-0.03112793,0.9812469,1.0,-0.2689667,-0.04624939,0.9620209,-26.98898,1.588776,-19.03694,4.2003330000000005,0.3905903,0.4638373999999999,1.0,-0.09675598,-0.01324463,0.9952087,33.77823,-0.3832703,-22.21223,3.632248,0.4751572,0.5369273,-1.127304,-47.93301,42.59297,-0.002520981,0.6498915,-0.0581395,1.808593,-20.06645,33.55
1,-0.1902007999999999,-0.03112793,0.9812469,1.0,-0.2689667,-0.04624939,0.9620209,-26.98898,1.588776,-19.03694,4.2003330000000005,0.3905903,0.4638373999999999,1.0,-0.09675598,-0.01324463,0.9952087,33.77823,-0.3832703,-22.21223,3.632248,0.4751572,0.5369273,-1.127304,-47.93301,42.59297,-0.002520981,0.6498915,-0.0581395,1.808593,-20.06645,33.55
1,-0.262619,-0.1442413,0.9540405,1.0,-0.3409882,-0.1671295,0.9250793,-27.07664,1.187973,-19.11194,4.40567,0.4012617,0.4913634,1.0,-0.1815796,-0.1200714,0.9760132,33.41064,-0.7979126,-22.32678,3.684387,0.4962809,0.5643005,-1.128056,-47.93359,42.59172,-0.001474981,0.6524424,-0.06147692,1.808593,-29.33126,33.55
1,-0.262619,-0.1442413,0.9540405,1.0,-0.3409882,-0.1671295,0.9250793,-27.07664,1.187973,-19.11194,4.40567,0.4012617,0.4913634,1.0,-0.1815796,-0.1200714,0.9760132,33.41064,-0.7979126,-22.32678,3.684387,0.4962809,0.5643005,-1.128056,-47.93359,42.59172,-0.001474981,0.6524424,-0.06147692,1.808593,-29.33126,33.55
1,-0.262619,-0.1442413,0.9540405,1.0,-0.3409882,-0.1671295,0.9250793,-27.07664,1.187973,-19.11194,4.40567,0.4012617,0.4913634,1.0,-0.1815796,-0.1200714,0.9760132,33.41064,-0.7979126,-22.32678,3.684387,0.4962809,0.5643005,-1.128056,-47.93359,42.59172,-0.001474981,0.6524424,-0.06147692,1.808593,-29.33126,33.55
1,-0.3537291999999999,-0.4107361,0.8403168,1.0,-0.3749237,-0.4243164000000001,0.824234,-27.23143,0.5229187,-19.31796,3.953674,0.4101162999999999,0.5456269,1.0,-0.2754669,-0.3592377,0.8916473,33.00728,-1.410828,-22.56499,3.790497,0.5195867999999999,0.616676,-1.12842,-47.93481,42.59027,0.0009455526,0.6562511999999999,-0.06690188,1.808593,-29.33126,33.55
1,-0.3537291999999999,-0.4107361,0.8403168,1.0,-0.3749237,-0.4243164000000001,0.824234,-27.23143,0.5229187,-19.31796,3.953674,0.4101162999999999,0.5456269,1.0,-0.2754669,-0.3592377,0.8916473,33.00728,-1.410828,-22.56499,3.790497,0.5195867999999999,0.616676,-1.12842,-47.93481,42.59027,0.0009455526,0.6562511999999999,-0.06690188,1.808593,-29.33126,33.55
1,-0.3537291999999999,-0.4107361,0.8403168,1.0,-0.3749237,-0.4243164000000001,0.824234,-27.23143,0.5229187,-19.31796,3.953674,0.4101162999999999,0.5456269,1.0,-0.2754669,-0.3592377,0.8916473,33.00728,-1.410828,-22.56499,3.790497,0.5195867999999999,0.616676,-1.12842,-47.93481,42.59027,0.0009455526,0.6562511999999999,-0.06690188,1.808593,-29.33126,33.55
1,-0.385788,-0.4617157,0.7987213000000001,0.6635428000000001,-0.385788,-0.4617157,0.7987213000000001,-27.29031,0.3838348,-19.38702,4.045074,0.4132694999999999,0.555634,0.9331561,0.0,0.0,0.0,33.03378,-1.488281,-22.60115,-1.0,0.5205752,0.6264659,-1.127816,-47.93612,42.58831,0.004517633,0.6616804000000001,-0.07225433,1.808593,-29.33126,33.55
1,-0.385788,-0.4617157,0.7987213000000001,0.6635428000000001,-0.385788,-0.4617157,0.7987213000000001,-27.29031,0.3838348,-19.38702,4.045074,0.4132694999999999,0.555634,0.9331561,0.0,0.0,0.0,33.03378,-1.488281,-22.60115,-1.0,0.5205752,0.6264659,-1.127816,-47.93612,42.58831,0.004517633,0.6616804000000001,-0.07225433,1.808593,-29.33126,33.55
1,-0.385788,-0.4617157,0.7987213000000001,0.6635428000000001,-0.385788,-0.4617157,0.7987213000000001,-27.29031,0.3838348,-19.38702,4.045074,0.4132694999999999,0.555634,0.9331561,0.0,0.0,0.0,33.03378,-1.488281,-22.60115,-1.0,0.5205752,0.6264659,-1.127816,-47.93612,42.58831,0.004517633,0.6616804000000001,-0.07225433,1.808593,-29.33126,33.55
1,-0.3200684,-0.4110564999999999,0.8535613999999999,0.6999158000000001,-0.389389,-0.462738,0.7963715,-27.31166,0.4838409000000001,-19.37154,4.189682,0.4143779999999999,0.5524265,0.9228051,-0.2599487,-0.3648529,0.8940277,33.21629,-1.47821,-22.50777,4.047592,0.5106162000000001,0.6187108,-1.126765,-47.93764,42.58622,0.008994354,0.6675889,-0.07697586,1.808593,-29.33126,33.55
1,-0.3200684,-0.4110564999999999,0.8535613999999999,0.6999158000000001,-0.389389,-0.462738,0.7963715,-27.31166,0.4838409000000001,-19.37154,4.189682,0.4143779999999999,0.5524265,0.9228051,-0.2599487,-0.3648529,0.8940277,33.21629,-1.47821,-22.50777,4.047592,0.5106162000000001,0.6187108,-1.126765,-47.93764,42.58622,0.008994354,0.6675889,-0.07697586,1.808593,-29.33126,33.55
1,-0.3200684,-0.4110564999999999,0.8535613999999999,0.6999158000000001,-0.389389,-0.462738,0.7963715,-27.31166,0.4838409000000001,-19.37154,4.189682,0.4143779999999999,0.5524265,0.9228051,-0.2599487,-0.3648529,0.8940277,33.21629,-1.47821,-22.50777,4.047592,0.5106162000000001,0.6187108,-1.126765,-47.93764,42.58622,0.008994354,0.6675889,-0.07697586,1.808593,-29.33126,33.55
1,-0.2854156,-0.4435883,0.8495483,0.6966118,-0.3209991,-0.4996185,0.8045654000000001,-27.31317,0.5233154000000001,-19.3208,3.878265,0.4065357,0.5547243000000001,0.9267668,-0.2500458,-0.3879089,0.8871155000000001,33.275890000000004,-1.472672,-22.49179,3.927872,0.5077471,0.6212307,-1.125004,-47.9389,42.58419,0.01270924,0.6737238,-0.08252425,1.808593,19.37054,33.55
1,-0.2854156,-0.4435883,0.8495483,0.6966118,-0.3209991,-0.4996185,0.8045654000000001,-27.31317,0.5233154000000001,-19.3208,3.878265,0.4065357,0.5547243000000001,0.9267668,-0.2500458,-0.3879089,0.8871155000000001,33.275890000000004,-1.472672,-22.49179,3.927872,0.5077471,0.6212307,-1.125004,-47.9389,42.58419,0.01270924,0.6737238,-0.08252425,1.808593,19.37054,33.55
1,-0.2854156,-0.4435883,0.8495483,0.6966118,-0.3209991,-0.4996185,0.8045654000000001,-27.31317,0.5233154000000001,-19.3208,3.878265,0.4065357,0.5547243000000001,0.9267668,-0.2500458,-0.3879089,0.8871155000000001,33.275890000000004,-1.472672,-22.49179,3.927872,0.5077471,0.6212307,-1.125004,-47.9389,42.58419,0.01270924,0.6737238,-0.08252425,1.808593,19.37054,33.55
1,-0.2823639,-0.4024963,0.8707733,1.0,-0.3266907,-0.4692229999999999,0.8204193000000001,-27.253390000000003,0.5791168000000001,-19.29433,3.950912,0.4052625,0.5487436,1.0,-0.2417603,-0.3415222,0.9082336,33.38898,-1.435669,-22.44624,3.856796,0.5032683,0.6135651,-1.123338,-47.94017,42.58237,0.01677534,0.6798541,-0.0877451,1.808593,19.37054,33.55
1,-0.2823639,-0.4024963,0.8707733,1.0,-0.3266907,-0.4692229999999999,0.8204193000000001,-27.253390000000003,0.5791168000000001,-19.29433,3.950912,0.4052625,0.5487436,1.0,-0.2417603,-0.3415222,0.9082336,33.38898,-1.435669,-22.44624,3.856796,0.5032683,0.6135651,-1.123338,-47.94017,42.58237,0.01677534,0.6798541,-0.0877451,1.808593,19.37054,33.55
1,-0.2823639,-0.4024963,0.8707733,1.0,-0.3266907,-0.4692229999999999,0.8204193000000001,-27.253390000000003,0.5791168000000001,-19.29433,3.950912,0.4052625,0.5487436,1.0,-0.2417603,-0.3415222,0.9082336,33.38898,-1.435669,-22.44624,3.856796,0.5032683,0.6135651,-1.123338,-47.94017,42.58237,0.01677534,0.6798541,-0.0877451,1.808593,19.37054,33.55
1,-0.2823639,-0.4024963,0.8707733,1.0,-0.3266907,-0.4692229999999999,0.8204193000000001,-27.253390000000003,0.5791168000000001,-19.29433,3.950912,0.4052625,0.5487436,1.0,-0.2417603,-0.3415222,0.9082336,33.38898,-1.435669,-22.44624,3.856796,0.5032683,0.6135651,-1.121597,-47.94134,42.58059,0.02041295,0.6856177,-0.09229795,1.808593,19.37054,33.55
1,-0.2823639,-0.4024963,0.8707733,1.0,-0.3266907,-0.4692229999999999,0.8204193000000001,-27.253390000000003,0.5791168000000001,-19.29433,3.950912,0.4052625,0.5487436,1.0,-0.2417603,-0.3415222,0.9082336,33.38898,-1.435669,-22.44624,3.856796,0.5032683,0.6135651,-1.121597,-47.94134,42.58059,0.02041295,0.6856177,-0.09229795,1.808593,19.37054,33.55
1,-0.2823639,-0.4024963,0.8707733,1.0,-0.3266907,-0.4692229999999999,0.8204193000000001,-27.253390000000003,0.5791168000000001,-19.29433,3.950912,0.4052625,0.5487436,1.0,-0.2417603,-0.3415222,0.9082336,33.38898,-1.435669,-22.44624,3.856796,0.5032683,0.6135651,-1.121597,-47.94134,42.58059,0.02041295,0.6856177,-0.09229795,1.808593,19.37054,33.55
1,-0.2684784,-0.3818207,0.8843689,1.0,-0.3315582,-0.4562531,0.8257599,-27.24321,0.5968323,-19.294220000000003,4.022873000000001,0.405484,0.5465201,1.0,-0.2226257,-0.3272095,0.918335,33.37613,-1.4832459999999998,-22.45836,3.936768,0.5013920999999999,0.6131701,-1.119401,-47.94251,42.57898,0.02381075,0.6908449999999999,-0.09637005,1.808593,19.37054,33.55
1,-0.2684784,-0.3818207,0.8843689,1.0,-0.3315582,-0.4562531,0.8257599,-27.24321,0.5968323,-19.294220000000003,4.022873000000001,0.405484,0.5465201,1.0,-0.2226257,-0.3272095,0.918335,33.37613,-1.4832459999999998,-22.45836,3.936768,0.5013920999999999,0.6131701,-1.119401,-47.94251,42.57898,0.02381075,0.6908449999999999,-0.09637005,1.808593,19.37054,33.55
1,-0.2684784,-0.3818207,0.8843689,1.0,-0.3315582,-0.4562531,0.8257599,-27.24321,0.5968323,-19.294220000000003,4.022873000000001,0.405484,0.5465201,1.0,-0.2226257,-0.3272095,0.918335,33.37613,-1.4832459999999998,-22.45836,3.936768,0.5013920999999999,0.6131701,-1.119401,-47.94251,42.57898,0.02381075,0.6908449999999999,-0.09637005,1.808593,19.37054,33.55
1,-0.2684784,-0.3818207,0.8843689,1.0,-0.3315582,-0.4562531,0.8257599,-27.24321,0.5968323,-19.294220000000003,4.022873000000001,0.405484,0.5465201,1.0,-0.2226257,-0.3272095,0.918335,33.37613,-1.4832459999999998,-22.45836,3.936768,0.5013920999999999,0.6131701,-1.117077,-47.94372,42.57763,0.02767795,0.6952769,-0.1005775,1.79706,19.37054,33.55
1,-0.2684784,-0.3818207,0.8843689,1.0,-0.3315582,-0.4562531,0.8257599,-27.24321,0.5968323,-19.294220000000003,4.022873000000001,0.405484,0.5465201,1.0,-0.2226257,-0.3272095,0.918335,33.37613,-1.4832459999999998,-22.45836,3.936768,0.5013920999999999,0.6131701,-1.117077,-47.94372,42.57763,0.02767795,0.6952769,-0.1005775,1.79706,19.37054,33.55
1,-0.2684784,-0.3818207,0.8843689,1.0,-0.3315582,-0.4562531,0.8257599,-27.24321,0.5968323,-19.294220000000003,4.022873000000001,0.405484,0.5465201,1.0,-0.2226257,-0.3272095,0.918335,33.37613,-1.4832459999999998,-22.45836,3.936768,0.5013920999999999,0.6131701,-1.117077,-47.94372,42.57763,0.02767795,0.6952769,-0.1005775,1.79706,19.37054,33.55
1,-0.2100677,-0.3446808,0.9149017,1.0,-0.2683563,-0.3616486,0.8928375,-26.86662,0.7334137,-19.08281,4.348175,0.3862989,0.5276736999999999,1.0,-0.1353607,-0.321228,0.9372711,33.87981,-1.2742,-22.25116,4.000275,0.4752769,0.6027617,-1.115068,-47.94542,42.57658,0.03267343,0.6991696,-0.1053694999999999,1.79706,19.37054,33.55
1,-0.2100677,-0.3446808,0.9149017,1.0,-0.2683563,-0.3616486,0.8928375,-26.86662,0.7334137,-19.08281,4.348175,0.3862989,0.5276736999999999,1.0,-0.1353607,-0.321228,0.9372711,33.87981,-1.2742,-22.25116,4.000275,0.4752769,0.6027617,-1.115068,-47.94542,42.57658,0.03267343,0.6991696,-0.1053694999999999,1.79706,19.37054,33.55
1,-0.2100677,-0.3446808,0.9149017,1.0,-0.2683563,-0.3616486,0.8928375,-26.86662,0.7334137,-19.08281,4.348175,0.3862989,0.5276736999999999,1.0,-0.1353607,-0.321228,0.9372711,33.87981,-1.2742,-22.25116,4.000275,0.4752769,0.6027617,-1.115068,-47.94542,42.57658,0.03267343,0.6991696,-0.1053694999999999,1.79706,19.37054,33.55
1,-0.1737671,-0.3091583,0.9349823,1.0,-0.24823,-0.3337402,0.9093781,-26.762970000000003,0.7470398,-19.04416,4.482574,0.3807742,0.523355,1.0,-0.1224976,-0.2912598,0.948761,33.94312,-1.26091,-22.24355,3.901169,0.4719454,0.5984524,-1.112684,-47.94752,42.57582,0.03853702,0.7017779000000001,-0.1114567,1.79706,10.08462,33.55
1,-0.1737671,-0.3091583,0.9349823,1.0,-0.24823,-0.3337402,0.9093781,-26.762970000000003,0.7470398,-19.04416,4.482574,0.3807742,0.523355,1.0,-0.1224976,-0.2912598,0.948761,33.94312,-1.26091,-22.24355,3.901169,0.4719454,0.5984524,-1.112684,-47.94752,42.57582,0.03853702,0.7017779000000001,-0.1114567,1.79706,10.08462,33.55
1,-0.1737671,-0.3091583,0.9349823,1.0,-0.24823,-0.3337402,0.9093781,-26.762970000000003,0.7470398,-19.04416,4.482574,0.3807742,0.523355,1.0,-0.1224976,-0.2912598,0.948761,33.94312,-1.26091,-22.24355,3.901169,0.4719454,0.5984524,-1.112684,-47.94752,42.57582,0.03853702,0.7017779000000001,-0.1114567,1.79706,10.08462,33.55
1,-0.1577759,-0.308197,0.9381409,1.0,-0.2566681,-0.3355408,0.9063721,-26.68138,0.8031921,-19.02812,4.4805150000000005,0.3791409,0.5217039000000001,1.0,-0.05368042,-0.2761841,0.9595947,33.898509999999995,-1.106461,-22.20889,3.906219,0.4657305999999999,0.5908795,-1.110635,-47.95016,42.57522,0.04688648,0.7036908000000001,-0.119376,1.79706,10.08462,33.55
1,-0.1577759,-0.308197,0.9381409,1.0,-0.2566681,-0.3355408,0.9063721,-26.68138,0.8031921,-19.02812,4.4805150000000005,0.3791409,0.5217039000000001,1.0,-0.05368042,-0.2761841,0.9595947,33.898509999999995,-1.106461,-22.20889,3.906219,0.4657305999999999,0.5908795,-1.110635,-47.95016,42.57522,0.04688648,0.7036908000000001,-0.119376,1.79706,10.08462,33.55
1,-0.1577759,-0.308197,0.9381409,1.0,-0.2566681,-0.3355408,0.9063721,-26.68138,0.8031921,-19.02812,4.4805150000000005,0.3791409,0.5217039000000001,1.0,-0.05368042,-0.2761841,0.9595947,33.898509999999995,-1.106461,-22.20889,3.906219,0.4657305999999999,0.5908795,-1.110635,-47.95016,42.57522,0.04688648,0.7036908000000001,-0.119376,1.79706,10.08462,33.55
1,-0.05274963,-0.4353333,0.8987122,1.0,0.0,0.0,0.0,-26.36456,0.2347107,-19.19769,-1.0,0.361172,0.5547223000000001,1.0,-0.05274963,-0.4353333,0.8987122,33.87144,-1.719437,-22.37589,4.01738,0.4659699,0.632119,-1.108645,-47.95333,42.574670000000005,0.05681058,0.7048882,-0.1283095,1.79706,10.08462,33.55
1,-0.05274963,-0.4353333,0.8987122,1.0,0.0,0.0,0.0,-26.36456,0.2347107,-19.19769,-1.0,0.361172,0.5547223000000001,1.0,-0.05274963,-0.4353333,0.8987122,33.87144,-1.719437,-22.37589,4.01738,0.4659699,0.632119,-1.108645,-47.95333,42.574670000000005,0.05681058,0.7048882,-0.1283095,1.79706,10.08462,33.55
1,-0.05274963,-0.4353333,0.8987122,1.0,0.0,0.0,0.0,-26.36456,0.2347107,-19.19769,-1.0,0.361172,0.5547223000000001,1.0,-0.05274963,-0.4353333,0.8987122,33.87144,-1.719437,-22.37589,4.01738,0.4659699,0.632119,-1.108645,-47.95333,42.574670000000005,0.05681058,0.7048882,-0.1283095,1.79706,10.08462,33.55
1,-0.1359862999999999,-0.6123352,0.7788086,0.5912603,-0.1359862999999999,-0.6123352,0.7788086,-26.0869,-0.7369385,-19.66248,4.550278,0.3452245,0.6108346,0.7801831,0.0,0.0,0.0,33.949870000000004,-2.2635650000000003,-22.71193,-1.0,0.4573566,0.6854479,-1.106317,-47.95687,42.57427,0.0665947,0.7051465,-0.137186,1.79706,10.08462,33.55
1,-0.1359862999999999,-0.6123352,0.7788086,0.5912603,-0.1359862999999999,-0.6123352,0.7788086,-26.0869,-0.7369385,-19.66248,4.550278,0.3452245,0.6108346,0.7801831,0.0,0.0,0.0,33.949870000000004,-2.2635650000000003,-22.71193,-1.0,0.4573566,0.6854479,-1.106317,-47.95687,42.57427,0.0665947,0.7051465,-0.137186,1.79706,10.08462,33.55
1,-0.1359862999999999,-0.6123352,0.7788086,0.5912603,-0.1359862999999999,-0.6123352,0.7788086,-26.0869,-0.7369385,-19.66248,4.550278,0.3452245,0.6108346,0.7801831,0.0,0.0,0.0,33.949870000000004,-2.2635650000000003,-22.71193,-1.0,0.4573566,0.6854479,-1.106317,-47.95687,42.57427,0.0665947,0.7051465,-0.137186,1.79706,10.08462,33.55
1,-1.0,-1.0,-1.0,0.581742,0.0,0.0,0.0,-25.84085,-0.5629578000000001,-19.73351,-1.0,0.3344803,0.6272858,0.6832414000000001,0.0,0.0,0.0,34.03877,-2.464539,-22.77084,-1.0,0.456438,0.6898224000000001,-1.104327,-47.96082,42.574090000000005,0.0797776,0.7052443,-0.1473275,1.79706,-18.93213,33.55
1,-1.0,-1.0,-1.0,0.581742,0.0,0.0,0.0,-25.84085,-0.5629578000000001,-19.73351,-1.0,0.3344803,0.6272858,0.6832414000000001,0.0,0.0,0.0,34.03877,-2.464539,-22.77084,-1.0,0.456438,0.6898224000000001,-1.104327,-47.96082,42.574090000000005,0.0797776,0.7052443,-0.1473275,1.79706,-18.93213,33.55
1,-1.0,-1.0,-1.0,0.581742,0.0,0.0,0.0,-25.84085,-0.5629578000000001,-19.73351,-1.0,0.3344803,0.6272858,0.6832414000000001,0.0,0.0,0.0,34.03877,-2.464539,-22.77084,-1.0,0.456438,0.6898224000000001,-1.104327,-47.96082,42.574090000000005,0.0797776,0.7052443,-0.1473275,1.79706,-18.93213,33.55
1,0.04405212,-0.6311646,0.7743835,0.5667355,0.0,0.0,0.0,-25.79411,-0.5256958,-19.69189,-1.0,0.3213859,0.6256701,0.6095236999999999,0.04405212,-0.6311646,0.7743835,34.428709999999995,-2.4848790000000003,-22.6864,4.346176,0.4357975,0.6859589,-1.099638,-47.96927,42.57471,0.1054357,0.7013891,-0.169182,1.79706,-18.93213,33.55
1,0.04405212,-0.6311646,0.7743835,0.5667355,0.0,0.0,0.0,-25.79411,-0.5256958,-19.69189,-1.0,0.3213859,0.6256701,0.6095236999999999,0.04405212,-0.6311646,0.7743835,34.428709999999995,-2.4848790000000003,-22.6864,4.346176,0.4357975,0.6859589,-1.099638,-47.96927,42.57471,0.1054357,0.7013891,-0.169182,1.79706,-18.93213,33.55
1,0.04405212,-0.6311646,0.7743835,0.5667355,0.0,0.0,0.0,-25.79411,-0.5256958,-19.69189,-1.0,0.3213859,0.6256701,0.6095236999999999,0.04405212,-0.6311646,0.7743835,34.428709999999995,-2.4848790000000003,-22.6864,4.346176,0.4357975,0.6859589,-1.099638,-47.96927,42.57471,0.1054357,0.7013891,-0.169182,1.79706,-18.93213,33.55
1,0.01173401,-0.6088409,0.7931824000000001,0.600871,-0.07121277,-0.6194611,0.7817688,-25.71696,-0.7776642,-19.65771,4.524001999999999,0.325794,0.6127693000000001,0.6189386,0.05274963,-0.6019897,0.7967529000000001,34.49942,-2.373856,-22.61482,4.200165,0.4327705,0.6775042,-1.096688,-47.9734,42.57563,0.1174521999999999,0.6974838000000001,-0.1787752,1.79706,-18.93213,33.55
1,0.01173401,-0.6088409,0.7931824000000001,0.600871,-0.07121277,-0.6194611,0.7817688,-25.71696,-0.7776642,-19.65771,4.524001999999999,0.325794,0.6127693000000001,0.6189386,0.05274963,-0.6019897,0.7967529000000001,34.49942,-2.373856,-22.61482,4.200165,0.4327705,0.6775042,-1.096688,-47.9734,42.57563,0.1174521999999999,0.6974838000000001,-0.1787752,1.79706,-18.93213,33.55
1,0.01173401,-0.6088409,0.7931824000000001,0.600871,-0.07121277,-0.6194611,0.7817688,-25.71696,-0.7776642,-19.65771,4.524001999999999,0.325794,0.6127693000000001,0.6189386,0.05274963,-0.6019897,0.7967529000000001,34.49942,-2.373856,-22.61482,4.200165,0.4327705,0.6775042,-1.096688,-47.9734,42.57563,0.1174521999999999,0.6974838000000001,-0.1787752,1.79706,-18.93213,33.55
1,-0.07484436,-0.6169891,0.7834015000000001,0.6186658,-0.07484436,-0.6169891,0.7834015000000001,-25.73157,-0.7754059,-19.65683,4.238022,0.3265703,0.6126326,0.6959031,0.0,0.0,0.0,34.5287,-2.332886,-22.65004,-1.0,0.4314849,0.6846699,-1.093359,-47.97733,42.57687,0.1285597,0.6924014000000001,-0.1870083,1.79706,-18.93213,33.55
1,-0.07484436,-0.6169891,0.7834015000000001,0.6186658,-0.07484436,-0.6169891,0.7834015000000001,-25.73157,-0.7754059,-19.65683,4.238022,0.3265703,0.6126326,0.6959031,0.0,0.0,0.0,34.5287,-2.332886,-22.65004,-1.0,0.4314849,0.6846699,-1.093359,-47.97733,42.57687,0.1285597,0.6924014000000001,-0.1870083,1.79706,-18.93213,33.55
1,-0.07484436,-0.6169891,0.7834015000000001,0.6186658,-0.07484436,-0.6169891,0.7834015000000001,-25.73157,-0.7754059,-19.65683,4.238022,0.3265703,0.6126326,0.6959031,0.0,0.0,0.0,34.5287,-2.332886,-22.65004,-1.0,0.4314849,0.6846699,-1.093359,-47.97733,42.57687,0.1285597,0.6924014000000001,-0.1870083,1.79706,-18.93213,33.55
1,-0.07484436,-0.6169891,0.7834015000000001,0.6186658,-0.07484436,-0.6169891,0.7834015000000001,-25.73157,-0.7754059,-19.65683,4.238022,0.3265703,0.6126326,0.6959031,0.0,0.0,0.0,34.5287,-2.332886,-22.65004,-1.0,0.4314849,0.6846699,-1.0897,-47.98149,42.57843,0.1396364,0.6870316,-0.1944345,1.79706,-18.93213,33.55
1,-0.07484436,-0.6169891,0.7834015000000001,0.6186658,-0.07484436,-0.6169891,0.7834015000000001,-25.73157,-0.7754059,-19.65683,4.238022,0.3265703,0.6126326,0.6959031,0.0,0.0,0.0,34.5287,-2.332886,-22.65004,-1.0,0.4314849,0.6846699,-1.0897,-47.98149,42.57843,0.1396364,0.6870316,-0.1944345,1.79706,-18.93213,33.55
1,-0.07484436,-0.6169891,0.7834015000000001,0.6186658,-0.07484436,-0.6169891,0.7834015000000001,-25.73157,-0.7754059,-19.65683,4.238022,0.3265703,0.6126326,0.6959031,0.0,0.0,0.0,34.5287,-2.332886,-22.65004,-1.0,0.4314849,0.6846699,-1.0897,-47.98149,42.57843,0.1396364,0.6870316,-0.1944345,1.79706,-18.93213,33.55
1,0.06747437,-0.5639038000000001,0.8230743,0.6703060000000001,0.0,0.0,0.0,-25.82234,-0.2712097,-19.35338,-1.0,0.3319234,0.5865545,0.8296027,0.06747437,-0.5639038000000001,0.8230743,34.569309999999994,-2.109741,-22.48528,4.250076,0.4290489999999999,0.6621464,-1.086387,-47.98619,42.58023,0.1535374,0.6802725000000001,-0.2049696,1.79706,-17.2536,33.55
1,0.06747437,-0.5639038000000001,0.8230743,0.6703060000000001,0.0,0.0,0.0,-25.82234,-0.2712097,-19.35338,-1.0,0.3319234,0.5865545,0.8296027,0.06747437,-0.5639038000000001,0.8230743,34.569309999999994,-2.109741,-22.48528,4.250076,0.4290489999999999,0.6621464,-1.086387,-47.98619,42.58023,0.1535374,0.6802725000000001,-0.2049696,1.79706,-17.2536,33.55
1,0.06747437,-0.5639038000000001,0.8230743,0.6703060000000001,0.0,0.0,0.0,-25.82234,-0.2712097,-19.35338,-1.0,0.3319234,0.5865545,0.8296027,0.06747437,-0.5639038000000001,0.8230743,34.569309999999994,-2.109741,-22.48528,4.250076,0.4290489999999999,0.6621464,-1.086387,-47.98619,42.58023,0.1535374,0.6802725000000001,-0.2049696,1.79706,-17.2536,33.55
1,0.06747437,-0.5639038000000001,0.8230743,0.6703060000000001,0.0,0.0,0.0,-25.82234,-0.2712097,-19.35338,-1.0,0.3319234,0.5865545,0.8296027,0.06747437,-0.5639038000000001,0.8230743,34.569309999999994,-2.109741,-22.48528,4.250076,0.4290489999999999,0.6621464,-1.0827719999999998,-47.99108,42.58239,0.1683786,0.6730924,-0.2132942999999999,1.79706,-17.2536,33.55
1,0.06747437,-0.5639038000000001,0.8230743,0.6703060000000001,0.0,0.0,0.0,-25.82234,-0.2712097,-19.35338,-1.0,0.3319234,0.5865545,0.8296027,0.06747437,-0.5639038000000001,0.8230743,34.569309999999994,-2.109741,-22.48528,4.250076,0.4290489999999999,0.6621464,-1.0827719999999998,-47.99108,42.58239,0.1683786,0.6730924,-0.2132942999999999,1.79706,-17.2536,33.55
1,0.06747437,-0.5639038000000001,0.8230743,0.6703060000000001,0.0,0.0,0.0,-25.82234,-0.2712097,-19.35338,-1.0,0.3319234,0.5865545,0.8296027,0.06747437,-0.5639038000000001,0.8230743,34.569309999999994,-2.109741,-22.48528,4.250076,0.4290489999999999,0.6621464,-1.0827719999999998,-47.99108,42.58239,0.1683786,0.6730924,-0.2132942999999999,1.79706,-17.2536,33.55
1,-1.0,-1.0,-1.0,0.6703060000000001,0.0,0.0,0.0,-25.95618,0.07713318,-19.15544,-1.0,0.332885,0.5651245,0.8296027,0.0,0.0,0.0,34.51534,-1.860733,-22.340670000000003,-1.0,0.4380251,0.6335179,-1.078688,-47.996190000000006,42.5848,0.1824602,0.6653157,-0.2210630999999999,1.79706,-17.2536,33.55
1,-1.0,-1.0,-1.0,0.6703060000000001,0.0,0.0,0.0,-25.95618,0.07713318,-19.15544,-1.0,0.332885,0.5651245,0.8296027,0.0,0.0,0.0,34.51534,-1.860733,-22.340670000000003,-1.0,0.4380251,0.6335179,-1.078688,-47.996190000000006,42.5848,0.1824602,0.6653157,-0.2210630999999999,1.79706,-17.2536,33.55
1,-1.0,-1.0,-1.0,0.6703060000000001,0.0,0.0,0.0,-25.95618,0.07713318,-19.15544,-1.0,0.332885,0.5651245,0.8296027,0.0,0.0,0.0,34.51534,-1.860733,-22.340670000000003,-1.0,0.4380251,0.6335179,-1.078688,-47.996190000000006,42.5848,0.1824602,0.6653157,-0.2210630999999999,1.79706,-17.2536,33.55
1,-0.008041382,-0.3450928,0.9385223,0.7484328,-0.02630615,-0.4025879,0.9149933,-26.00502,0.04153442,-19.16666,4.925781,0.3317637,0.5538712,0.8993030000000001,-0.0008239746,-0.3219909999999999,0.9467316,34.49222,-1.807404,-22.29356,4.524094,0.4397037,0.6195185000000001,-1.075071,-48.00134,42.58753,0.1972245,0.6562412,-0.2309214,1.79706,-17.2536,33.55
1,-0.008041382,-0.3450928,0.9385223,0.7484328,-0.02630615,-0.4025879,0.9149933,-26.00502,0.04153442,-19.16666,4.925781,0.3317637,0.5538712,0.8993030000000001,-0.0008239746,-0.3219909999999999,0.9467316,34.49222,-1.807404,-22.29356,4.524094,0.4397037,0.6195185000000001,-1.075071,-48.00134,42.58753,0.1972245,0.6562412,-0.2309214,1.79706,-17.2536,33.55
1,-0.008041382,-0.3450928,0.9385223,0.7484328,-0.02630615,-0.4025879,0.9149933,-26.00502,0.04153442,-19.16666,4.925781,0.3317637,0.5538712,0.8993030000000001,-0.0008239746,-0.3219909999999999,0.9467316,34.49222,-1.807404,-22.29356,4.524094,0.4397037,0.6195185000000001,-1.075071,-48.00134,42.58753,0.1972245,0.6562412,-0.2309214,1.79706,-17.2536,33.55
2,-0.008041382,-0.3450928,0.9385223,0.7484328,-0.02630615,-0.4025879,0.9149933,-26.00502,0.04153442,-19.16666,4.925781,0.3317637,0.5538712,0.8993030000000001,-0.0008239746,-0.3219909999999999,0.9467316,34.49222,-1.807404,-22.29356,4.524094,0.4397037,0.6195185000000001,-1.071664,-48.00618,42.59031,0.2104412,0.6468055,-0.2394958,1.79706,33.99354,33.55
2,-0.008041382,-0.3450928,0.9385223,0.7484328,-0.02630615,-0.4025879,0.9149933,-26.00502,0.04153442,-19.16666,4.925781,0.3317637,0.5538712,0.8993030000000001,-0.0008239746,-0.3219909999999999,0.9467316,34.49222,-1.807404,-22.29356,4.524094,0.4397037,0.6195185000000001,-1.071664,-48.00618,42.59031,0.2104412,0.6468055,-0.2394958,1.79706,33.99354,33.55
2,-0.008041382,-0.3450928,0.9385223,0.7484328,-0.02630615,-0.4025879,0.9149933,-26.00502,0.04153442,-19.16666,4.925781,0.3317637,0.5538712,0.8993030000000001,-0.0008239746,-0.3219909999999999,0.9467316,34.49222,-1.807404,-22.29356,4.524094,0.4397037,0.6195185000000001,-1.071664,-48.00618,42.59031,0.2104412,0.6468055,-0.2394958,1.79706,33.99354,33.55
2,-0.008041382,-0.3450928,0.9385223,0.7484328,-0.02630615,-0.4025879,0.9149933,-26.00502,0.04153442,-19.16666,4.925781,0.3317637,0.5538712,0.8993030000000001,-0.0008239746,-0.3219909999999999,0.9467316,34.49222,-1.807404,-22.29356,4.524094,0.4397037,0.6195185000000001,-1.068306,-48.01078,42.59336,0.2216237999999999,0.6369312,-0.2471972,1.79706,33.99354,33.55
2,-0.008041382,-0.3450928,0.9385223,0.7484328,-0.02630615,-0.4025879,0.9149933,-26.00502,0.04153442,-19.16666,4.925781,0.3317637,0.5538712,0.8993030000000001,-0.0008239746,-0.3219909999999999,0.9467316,34.49222,-1.807404,-22.29356,4.524094,0.4397037,0.6195185000000001,-1.068306,-48.01078,42.59336,0.2216237999999999,0.6369312,-0.2471972,1.79706,33.99354,33.55
2,-0.008041382,-0.3450928,0.9385223,0.7484328,-0.02630615,-0.4025879,0.9149933,-26.00502,0.04153442,-19.16666,4.925781,0.3317637,0.5538712,0.8993030000000001,-0.0008239746,-0.3219909999999999,0.9467316,34.49222,-1.807404,-22.29356,4.524094,0.4397037,0.6195185000000001,-1.068306,-48.01078,42.59336,0.2216237999999999,0.6369312,-0.2471972,1.79706,33.99354,33.55
2,-1.0,-1.0,-1.0,0.7038666,0.0,0.0,0.0,-25.15564,-1.086716,-19.86719,-1.0,0.2897055,0.6268855,0.6646243000000001,0.0,0.0,0.0,35.1312,-3.274734,-23.15154,-1.0,0.4039638,0.7182404,-1.065716,-48.01463,42.59653,0.2313179,0.6267334,-0.2539791,1.79706,33.99354,33.55
2,-1.0,-1.0,-1.0,0.7038666,0.0,0.0,0.0,-25.15564,-1.086716,-19.86719,-1.0,0.2897055,0.6268855,0.6646243000000001,0.0,0.0,0.0,35.1312,-3.274734,-23.15154,-1.0,0.4039638,0.7182404,-1.065716,-48.01463,42.59653,0.2313179,0.6267334,-0.2539791,1.79706,33.99354,33.55
2,-1.0,-1.0,-1.0,0.7038666,0.0,0.0,0.0,-25.15564,-1.086716,-19.86719,-1.0,0.2897055,0.6268855,0.6646243000000001,0.0,0.0,0.0,35.1312,-3.274734,-23.15154,-1.0,0.4039638,0.7182404,-1.065716,-48.01463,42.59653,0.2313179,0.6267334,-0.2539791,1.79706,33.99354,33.55
2,0.1165313999999999,-0.5934143,0.796402,0.7466941,0.0,0.0,0.0,-25.28889,-0.9988403,-19.84879,-1.0,0.2958272999999999,0.6280743000000001,0.6916358,0.1165313999999999,-0.5934143,0.796402,35.14325,-2.999878,-22.943620000000003,4.190475,0.4038051,0.699982,-1.063042,-48.01724,42.599790000000006,0.2373602,0.6174059000000001,-0.2574677,1.79706,33.99354,33.55
2,0.1165313999999999,-0.5934143,0.796402,0.7466941,0.0,0.0,0.0,-25.28889,-0.9988403,-19.84879,-1.0,0.2958272999999999,0.6280743000000001,0.6916358,0.1165313999999999,-0.5934143,0.796402,35.14325,-2.999878,-22.943620000000003,4.190475,0.4038051,0.699982,-1.063042,-48.01724,42.599790000000006,0.2373602,0.6174059000000001,-0.2574677,1.79706,33.99354,33.55
2,0.1165313999999999,-0.5934143,0.796402,0.7466941,0.0,0.0,0.0,-25.28889,-0.9988403,-19.84879,-1.0,0.2958272999999999,0.6280743000000001,0.6916358,0.1165313999999999,-0.5934143,0.796402,35.14325,-2.999878,-22.943620000000003,4.190475,0.4038051,0.699982,-1.063042,-48.01724,42.599790000000006,0.2373602,0.6174059000000001,-0.2574677,1.79706,33.99354,33.55
2,0.05592346,-0.5578156,0.8280639999999999,0.7840560000000001,0.04647827,-0.5587006,0.8280487,-25.48607,-1.006973,-19.72554,5.047134,0.3053394,0.6120505999999999,0.7754945,0.1063231999999999,-0.5522766,0.8268433000000001,35.09576,-2.760239,-22.78082,4.494278,0.4067482999999999,0.6844615,-1.060922,-48.01885,42.60323,0.2400684,0.6091781,-0.2584699,1.79706,33.99354,33.55
2,0.05592346,-0.5578156,0.8280639999999999,0.7840560000000001,0.04647827,-0.5587006,0.8280487,-25.48607,-1.006973,-19.72554,5.047134,0.3053394,0.6120505999999999,0.7754945,0.1063231999999999,-0.5522766,0.8268433000000001,35.09576,-2.760239,-22.78082,4.494278,0.4067482999999999,0.6844615,-1.060922,-48.01885,42.60323,0.2400684,0.6091781,-0.2584699,1.79706,33.99354,33.55
2,0.05592346,-0.5578156,0.8280639999999999,0.7840560000000001,0.04647827,-0.5587006,0.8280487,-25.48607,-1.006973,-19.72554,5.047134,0.3053394,0.6120505999999999,0.7754945,0.1063231999999999,-0.5522766,0.8268433000000001,35.09576,-2.760239,-22.78082,4.494278,0.4067482999999999,0.6844615,-1.060922,-48.01885,42.60323,0.2400684,0.6091781,-0.2584699,1.79706,33.99354,33.55
2,0.09263611,-0.5840607,0.8063965,0.8198597,0.03063965,-0.5765839,0.8164520000000001,-25.61108,-0.9867554,-19.74487,4.884079,0.3109660999999999,0.6140772,0.8290146999999999,0.168457,-0.5900420999999999,0.7895813,34.8107,-2.572098,-22.67769,4.188568,0.4091277,0.6829147,-1.059298,-48.01961,42.60631,0.2418917,0.6018977,-0.2595912,1.79706,33.99354,33.55
2,0.09263611,-0.5840607,0.8063965,0.8198597,0.03063965,-0.5765839,0.8164520000000001,-25.61108,-0.9867554,-19.74487,4.884079,0.3109660999999999,0.6140772,0.8290146999999999,0.168457,-0.5900420999999999,0.7895813,34.8107,-2.572098,-22.67769,4.188568,0.4091277,0.6829147,-1.059298,-48.01961,42.60631,0.2418917,0.6018977,-0.2595912,1.79706,33.99354,33.55
2,0.09263611,-0.5840607,0.8063965,0.8198597,0.03063965,-0.5765839,0.8164520000000001,-25.61108,-0.9867554,-19.74487,4.884079,0.3109660999999999,0.6140772,0.8290146999999999,0.168457,-0.5900420999999999,0.7895813,34.8107,-2.572098,-22.67769,4.188568,0.4091277,0.6829147,-1.059298,-48.01961,42.60631,0.2418917,0.6018977,-0.2595912,1.79706,33.99354,33.55
2,0.07131958,-0.5448456,0.8354796999999998,0.8406696,0.01939392,-0.5434723000000001,0.8391876,-25.73756,-0.9429321,-19.68567,5.007523,0.3166748,0.6076273,0.8696516,0.1452332,-0.5442352,0.8262482,34.743790000000004,-2.552917,-22.65367,4.213196,0.4142207,0.6755843,-1.058273,-48.02028,42.60915,0.2432679999999999,0.5965281,-0.259111,1.79706,21.3856,33.55
2,0.07131958,-0.5448456,0.8354796999999998,0.8406696,0.01939392,-0.5434723000000001,0.8391876,-25.73756,-0.9429321,-19.68567,5.007523,0.3166748,0.6076273,0.8696516,0.1452332,-0.5442352,0.8262482,34.743790000000004,-2.552917,-22.65367,4.213196,0.4142207,0.6755843,-1.058273,-48.02028,42.60915,0.2432679999999999,0.5965281,-0.259111,1.79706,21.3856,33.55
2,0.07131958,-0.5448456,0.8354796999999998,0.8406696,0.01939392,-0.5434723000000001,0.8391876,-25.73756,-0.9429321,-19.68567,5.007523,0.3166748,0.6076273,0.8696516,0.1452332,-0.5442352,0.8262482,34.743790000000004,-2.552917,-22.65367,4.213196,0.4142207,0.6755843,-1.058273,-48.02028,42.60915,0.2432679999999999,0.5965281,-0.259111,1.79706,21.3856,33.55
2,0.09257507,-0.5549927,0.8266754000000001,0.8618701999999999,0.04374695,-0.5437622,0.838089,-25.81313,-0.9415436,-19.6911,4.782318,0.3162507,0.6078730999999999,0.9001718000000001,0.1301575,-0.5626831,0.8163451999999999,34.73155,-2.550598,-22.64729,4.11412,0.4163673,0.6780456,-1.057584,-48.020790000000005,42.6116,0.2444316,0.5922455,-0.2587596,1.79706,21.3856,33.55
2,0.09257507,-0.5549927,0.8266754000000001,0.8618701999999999,0.04374695,-0.5437622,0.838089,-25.81313,-0.9415436,-19.6911,4.782318,0.3162507,0.6078730999999999,0.9001718000000001,0.1301575,-0.5626831,0.8163451999999999,34.73155,-2.550598,-22.64729,4.11412,0.4163673,0.6780456,-1.057584,-48.020790000000005,42.6116,0.2444316,0.5922455,-0.2587596,1.79706,21.3856,33.55
2,0.09257507,-0.5549927,0.8266754000000001,0.8618701999999999,0.04374695,-0.5437622,0.838089,-25.81313,-0.9415436,-19.6911,4.782318,0.3162507,0.6078730999999999,0.9001718000000001,0.1301575,-0.5626831,0.8163451999999999,34.73155,-2.550598,-22.64729,4.11412,0.4163673,0.6780456,-1.057584,-48.020790000000005,42.6116,0.2444316,0.5922455,-0.2587596,1.79706,21.3856,33.55
2,0.06115723,-0.5426178,0.8377379999999999,0.8750641,0.01635742,-0.5335388000000001,0.8455963,-25.82043,-0.9312591999999998,-19.6804,4.92453,0.3197046,0.6059645,0.9130092,0.1155548,-0.5521088000000001,0.8257141,34.71451,-2.525482,-22.63889,4.216019,0.4185940999999999,0.6755843,-1.057631,-48.02105,42.61378,0.2457696,0.5888460999999999,-0.2581036,1.79706,21.3856,33.55
2,0.06115723,-0.5426178,0.8377379999999999,0.8750641,0.01635742,-0.5335388000000001,0.8455963,-25.82043,-0.9312591999999998,-19.6804,4.92453,0.3197046,0.6059645,0.9130092,0.1155548,-0.5521088000000001,0.8257141,34.71451,-2.525482,-22.63889,4.216019,0.4185940999999999,0.6755843,-1.057631,-48.02105,42.61378,0.2457696,0.5888460999999999,-0.2581036,1.79706,21.3856,33.55
2,0.06115723,-0.5426178,0.8377379999999999,0.8750641,0.01635742,-0.5335388000000001,0.8455963,-25.82043,-0.9312591999999998,-19.6804,4.92453,0.3197046,0.6059645,0.9130092,0.1155548,-0.5521088000000001,0.8257141,34.71451,-2.525482,-22.63889,4.216019,0.4185940999999999,0.6755843,-1.057631,-48.02105,42.61378,0.2457696,0.5888460999999999,-0.2581036,1.79706,21.3856,33.55
2,0.06115723,-0.5426178,0.8377379999999999,0.8750641,0.01635742,-0.5335388000000001,0.8455963,-25.82043,-0.9312591999999998,-19.6804,4.92453,0.3197046,0.6059645,0.9130092,0.1155548,-0.5521088000000001,0.8257141,34.71451,-2.525482,-22.63889,4.216019,0.4185940999999999,0.6755843,-1.05789,-48.02118,42.61573,0.246885,0.5861729,-0.2561271,1.79706,21.3856,33.55
2,0.06115723,-0.5426178,0.8377379999999999,0.8750641,0.01635742,-0.5335388000000001,0.8455963,-25.82043,-0.9312591999999998,-19.6804,4.92453,0.3197046,0.6059645,0.9130092,0.1155548,-0.5521088000000001,0.8257141,34.71451,-2.525482,-22.63889,4.216019,0.4185940999999999,0.6755843,-1.05789,-48.02118,42.61573,0.246885,0.5861729,-0.2561271,1.79706,21.3856,33.55
2,0.06115723,-0.5426178,0.8377379999999999,0.8750641,0.01635742,-0.5335388000000001,0.8455963,-25.82043,-0.9312591999999998,-19.6804,4.92453,0.3197046,0.6059645,0.9130092,0.1155548,-0.5521088000000001,0.8257141,34.71451,-2.525482,-22.63889,4.216019,0.4185940999999999,0.6755843,-1.05789,-48.02118,42.61573,0.246885,0.5861729,-0.2561271,1.79706,21.3856,33.55
2,0.05686951,-0.5061798,0.8605347,0.8750641,0.005981445,-0.473053,0.8809966999999999,-25.84741,-0.899231,-19.6093,5.245392,0.3222268,0.5964143,0.9130092,0.1164703,-0.542511,0.8319244,34.70905,-2.519577,-22.63838,4.2405550000000005,0.4186845,0.6740576,-1.058808,-48.02131,42.6174,0.2469509,0.584227,-0.2536962,1.79706,21.3856,33.55
2,0.05686951,-0.5061798,0.8605347,0.8750641,0.005981445,-0.473053,0.8809966999999999,-25.84741,-0.899231,-19.6093,5.245392,0.3222268,0.5964143,0.9130092,0.1164703,-0.542511,0.8319244,34.70905,-2.519577,-22.63838,4.2405550000000005,0.4186845,0.6740576,-1.058808,-48.02131,42.6174,0.2469509,0.584227,-0.2536962,1.79706,21.3856,33.55
2,0.05686951,-0.5061798,0.8605347,0.8750641,0.005981445,-0.473053,0.8809966999999999,-25.84741,-0.899231,-19.6093,5.245392,0.3222268,0.5964143,0.9130092,0.1164703,-0.542511,0.8319244,34.70905,-2.519577,-22.63838,4.2405550000000005,0.4186845,0.6740576,-1.058808,-48.02131,42.6174,0.2469509,0.584227,-0.2536962,1.79706,21.3856,33.55
2,0.05686951,-0.5061798,0.8605347,0.8750641,0.005981445,-0.473053,0.8809966999999999,-25.84741,-0.899231,-19.6093,5.245392,0.3222268,0.5964143,0.9130092,0.1164703,-0.542511,0.8319244,34.70905,-2.519577,-22.63838,4.2405550000000005,0.4186845,0.6740576,-1.059642,-48.02074,42.61893,0.2466942,0.5825746999999999,-0.2505386,1.79706,-19.2598,33.55
2,0.05686951,-0.5061798,0.8605347,0.8750641,0.005981445,-0.473053,0.8809966999999999,-25.84741,-0.899231,-19.6093,5.245392,0.3222268,0.5964143,0.9130092,0.1164703,-0.542511,0.8319244,34.70905,-2.519577,-22.63838,4.2405550000000005,0.4186845,0.6740576,-1.059642,-48.02074,42.61893,0.2466942,0.5825746999999999,-0.2505386,1.79706,-19.2598,33.55
2,0.05686951,-0.5061798,0.8605347,0.8750641,0.005981445,-0.473053,0.8809966999999999,-25.84741,-0.899231,-19.6093,5.245392,0.3222268,0.5964143,0.9130092,0.1164703,-0.542511,0.8319244,34.70905,-2.519577,-22.63838,4.2405550000000005,0.4186845,0.6740576,-1.059642,-48.02074,42.61893,0.2466942,0.5825746999999999,-0.2505386,1.79706,-19.2598,33.55
2,0.01145935,-0.4799194,0.8772278,1.0,-0.05223083,-0.5158234,0.8550873,-25.89745,-0.6784668,-19.54546,4.57428,0.3299969,0.5945715,1.0,0.08566284,-0.4345093,0.8965759,34.759890000000006,-2.366943,-22.49083,4.306503,0.4209640999999999,0.6533095999999999,-1.060822,-48.01952,42.62012,0.2463967999999999,0.5819941,-0.2464094999999999,1.79706,-19.2598,33.55
2,0.01145935,-0.4799194,0.8772278,1.0,-0.05223083,-0.5158234,0.8550873,-25.89745,-0.6784668,-19.54546,4.57428,0.3299969,0.5945715,1.0,0.08566284,-0.4345093,0.8965759,34.759890000000006,-2.366943,-22.49083,4.306503,0.4209640999999999,0.6533095999999999,-1.060822,-48.01952,42.62012,0.2463967999999999,0.5819941,-0.2464094999999999,1.79706,-19.2598,33.55
2,0.01145935,-0.4799194,0.8772278,1.0,-0.05223083,-0.5158234,0.8550873,-25.89745,-0.6784668,-19.54546,4.57428,0.3299969,0.5945715,1.0,0.08566284,-0.4345093,0.8965759,34.759890000000006,-2.366943,-22.49083,4.306503,0.4209640999999999,0.6533095999999999,-1.060822,-48.01952,42.62012,0.2463967999999999,0.5819941,-0.2464094999999999,1.79706,-19.2598,33.55
2,-1.0,-1.0,-1.0,1.0,0.0,0.0,0.0,-26.51906,0.2805634,-19.21051,-1.0,0.3627242,0.5247873000000001,1.0,0.0,0.0,0.0,33.75513,-1.411942,-22.25429,-1.0,0.4732729,0.5877695,-1.062735,-48.01733,42.62117,0.2434502999999999,0.5825374,-0.2413510999999999,1.79706,-19.2598,33.55
2,-1.0,-1.0,-1.0,1.0,0.0,0.0,0.0,-26.51906,0.2805634,-19.21051,-1.0,0.3627242,0.5247873000000001,1.0,0.0,0.0,0.0,33.75513,-1.411942,-22.25429,-1.0,0.4732729,0.5877695,-1.062735,-48.01733,42.62117,0.2434502999999999,0.5825374,-0.2413510999999999,1.79706,-19.2598,33.55
2,-1.0,-1.0,-1.0,1.0,0.0,0.0,0.0,-26.51906,0.2805634,-19.21051,-1.0,0.3627242,0.5247873000000001,1.0,0.0,0.0,0.0,33.75513,-1.411942,-22.25429,-1.0,0.4732729,0.5877695,-1.062735,-48.01733,42.62117,0.2434502999999999,0.5825374,-0.2413510999999999,1.79706,-19.2598,33.55
2,-1.0,-1.0,-1.0,1.0,0.0,0.0,0.0,-27.07538,1.425369,-19.1516,-1.0,0.3989018,0.4626893,1.0,0.0,0.0,0.0,33.10832,-0.2304534999999999,-22.38855,-1.0,0.5163221,0.5159163,-1.064267,-48.01399,42.62199,0.2377693,0.5859569,-0.2335655,1.79706,-19.2598,33.55
2,-1.0,-1.0,-1.0,1.0,0.0,0.0,0.0,-27.07538,1.425369,-19.1516,-1.0,0.3989018,0.4626893,1.0,0.0,0.0,0.0,33.10832,-0.2304534999999999,-22.38855,-1.0,0.5163221,0.5159163,-1.064267,-48.01399,42.62199,0.2377693,0.5859569,-0.2335655,1.79706,-19.2598,33.55
2,-1.0,-1.0,-1.0,1.0,0.0,0.0,0.0,-27.07538,1.425369,-19.1516,-1.0,0.3989018,0.4626893,1.0,0.0,0.0,0.0,33.10832,-0.2304534999999999,-22.38855,-1.0,0.5163221,0.5159163,-1.064267,-48.01399,42.62199,0.2377693,0.5859569,-0.2335655,1.79706,-19.2598,33.55
2,-1.0,-1.0,-1.0,1.0,0.0,0.0,0.0,-27.14774,1.6418150000000002,-19.1954,-1.0,0.407869,0.4411457,1.0,0.0,0.0,0.0,32.96352,0.06283569,-22.48669,-1.0,0.5294359000000001,0.5042693,-1.066282,-48.00998,42.62252,0.2308835,0.5919485999999999,-0.2245332,1.79706,-19.2598,33.55
2,-1.0,-1.0,-1.0,1.0,0.0,0.0,0.0,-27.14774,1.6418150000000002,-19.1954,-1.0,0.407869,0.4411457,1.0,0.0,0.0,0.0,32.96352,0.06283569,-22.48669,-1.0,0.5294359000000001,0.5042693,-1.066282,-48.00998,42.62252,0.2308835,0.5919485999999999,-0.2245332,1.79706,-19.2598,33.55
2,-1.0,-1.0,-1.0,1.0,0.0,0.0,0.0,-27.14774,1.6418150000000002,-19.1954,-1.0,0.407869,0.4411457,1.0,0.0,0.0,0.0,32.96352,0.06283569,-22.48669,-1.0,0.5294359000000001,0.5042693,-1.066282,-48.00998,42.62252,0.2308835,0.5919485999999999,-0.2245332,1.79706,-19.2598,33.55
2,-1.0,-1.0,-1.0,1.0,0.0,0.0,0.0,-27.14774,1.6418150000000002,-19.1954,-1.0,0.407869,0.4411457,1.0,0.0,0.0,0.0,32.96352,0.06283569,-22.48669,-1.0,0.5294359000000001,0.5042693,-1.069008,-48.00582,42.62281,0.2231715,0.5986478,-0.2143362999999999,1.79706,-22.75097,33.55
2,-1.0,-1.0,-1.0,1.0,0.0,0.0,0.0,-27.14774,1.6418150000000002,-19.1954,-1.0,0.407869,0.4411457,1.0,0.0,0.0,0.0,32.96352,0.06283569,-22.48669,-1.0,0.5294359000000001,0.5042693,-1.069008,-48.00582,42.62281,0.2231715,0.5986478,-0.2143362999999999,1.79706,-22.75097,33.55
2,-1.0,-1.0,-1.0,1.0,0.0,0.0,0.0,-27.14774,1.6418150000000002,-19.1954,-1.0,0.407869,0.4411457,1.0,0.0,0.0,0.0,32.96352,0.06283569,-22.48669,-1.0,0.5294359000000001,0.5042693,-1.069008,-48.00582,42.62281,0.2231715,0.5986478,-0.2143362999999999,1.79706,-22.75097,33.55
2,-1.0,-1.0,-1.0,1.0,0.0,0.0,0.0,-27.19395,1.360214,-19.28798,-1.0,0.4132289,0.4493147,1.0,0.0,0.0,0.0,33.13893,-0.3457642,-22.51199,-1.0,0.5217614,0.5092657,-1.070937,-48.00097,42.62303,0.2138594,0.6060736,-0.2020477999999999,1.79706,-22.75097,33.55
2,-1.0,-1.0,-1.0,1.0,0.0,0.0,0.0,-27.19395,1.360214,-19.28798,-1.0,0.4132289,0.4493147,1.0,0.0,0.0,0.0,33.13893,-0.3457642,-22.51199,-1.0,0.5217614,0.5092657,-1.070937,-48.00097,42.62303,0.2138594,0.6060736,-0.2020477999999999,1.79706,-22.75097,33.55
2,-1.0,-1.0,-1.0,1.0,0.0,0.0,0.0,-27.19395,1.360214,-19.28798,-1.0,0.4132289,0.4493147,1.0,0.0,0.0,0.0,33.13893,-0.3457642,-22.51199,-1.0,0.5217614,0.5092657,-1.070937,-48.00097,42.62303,0.2138594,0.6060736,-0.2020477999999999,1.79706,-22.75097,33.55
2,-0.3654022,0.1877289,0.9117126,1.0,-0.3648987,0.131073,0.9217682,-27.11816,1.194275,-19.19086,5.253448000000001,0.4053998,0.4599303,1.0,-0.3651733,0.2182007,0.9049988,33.27129,-0.6117706,-22.4469,4.868271,0.5204231,0.5238162000000001,-1.073327,-47.99627,42.62294,0.2050085,0.6132333999999999,-0.1886414,1.79706,-22.75097,33.55
2,-0.3654022,0.1877289,0.9117126,1.0,-0.3648987,0.131073,0.9217682,-27.11816,1.194275,-19.19086,5.253448000000001,0.4053998,0.4599303,1.0,-0.3651733,0.2182007,0.9049988,33.27129,-0.6117706,-22.4469,4.868271,0.5204231,0.5238162000000001,-1.073327,-47.99627,42.62294,0.2050085,0.6132333999999999,-0.1886414,1.79706,-22.75097,33.55
2,-0.3654022,0.1877289,0.9117126,1.0,-0.3648987,0.131073,0.9217682,-27.11816,1.194275,-19.19086,5.253448000000001,0.4053998,0.4599303,1.0,-0.3651733,0.2182007,0.9049988,33.27129,-0.6117706,-22.4469,4.868271,0.5204231,0.5238162000000001,-1.073327,-47.99627,42.62294,0.2050085,0.6132333999999999,-0.1886414,1.79706,-22.75097,33.55
2,-0.3234252999999999,0.1599579,0.9326324,1.0,-0.3566132,0.1155548,0.927063,-27.07999,1.076981,-19.1768,5.20108,0.4032058,0.4650859999999999,1.0,-0.3022003,0.1874083999999999,0.9346313,33.30699,-0.729599,-22.36229,4.451645,0.5125995,0.5292667,-1.075928,-47.99203,42.62261,0.1958719,0.6199733000000001,-0.1757594,1.79706,-22.75097,33.57
2,-0.3234252999999999,0.1599579,0.9326324,1.0,-0.3566132,0.1155548,0.927063,-27.07999,1.076981,-19.1768,5.20108,0.4032058,0.4650859999999999,1.0,-0.3022003,0.1874083999999999,0.9346313,33.30699,-0.729599,-22.36229,4.451645,0.5125995,0.5292667,-1.075928,-47.99203,42.62261,0.1958719,0.6199733000000001,-0.1757594,1.79706,-22.75097,33.57
2,-0.3234252999999999,0.1599579,0.9326324,1.0,-0.3566132,0.1155548,0.927063,-27.07999,1.076981,-19.1768,5.20108,0.4032058,0.4650859999999999,1.0,-0.3022003,0.1874083999999999,0.9346313,33.30699,-0.729599,-22.36229,4.451645,0.5125995,0.5292667,-1.075928,-47.99203,42.62261,0.1958719,0.6199733000000001,-0.1757594,1.79706,-22.75097,33.57
2,-0.3208770999999999,0.06871033,0.9446106,1.0,-0.3407288,0.03044128,0.9396515,-27.01141,0.9176788,-19.12492,5.061142,0.3991080999999999,0.4786032999999999,1.0,-0.2892151,0.127182,0.948761,33.38771,-0.8785248,-22.2885,4.727737,0.5079159000000001,0.5402759,-1.078285,-47.98775,42.62183,0.1867533999999999,0.6261979999999999,-0.1644989,1.79706,-22.75097,33.57
2,-0.3208770999999999,0.06871033,0.9446106,1.0,-0.3407288,0.03044128,0.9396515,-27.01141,0.9176788,-19.12492,5.061142,0.3991080999999999,0.4786032999999999,1.0,-0.2892151,0.127182,0.948761,33.38771,-0.8785248,-22.2885,4.727737,0.5079159000000001,0.5402759,-1.078285,-47.98775,42.62183,0.1867533999999999,0.6261979999999999,-0.1644989,1.79706,-22.75097,33.57
2,-0.3208770999999999,0.06871033,0.9446106,1.0,-0.3407288,0.03044128,0.9396515,-27.01141,0.9176788,-19.12492,5.061142,0.3991080999999999,0.4786032999999999,1.0,-0.2892151,0.127182,0.948761,33.38771,-0.8785248,-22.2885,4.727737,0.5079159000000001,0.5402759,-1.078285,-47.98775,42.62183,0.1867533999999999,0.6261979999999999,-0.1644989,1.79706,-22.75097,33.57
2,-0.3209686,0.07827759,0.9438324,1.0,-0.3519744999999999,0.01490784,0.9358826,-26.95543,0.8612061,-19.12022,5.086777,0.3985439,0.4821303,1.0,-0.2873535,0.1431274,0.947052,33.41185,-0.9584045,-22.29402,4.763657,0.5069011,0.5411421,-1.081042,-47.98409,42.62083,0.1794263999999999,0.6310843,-0.1561806,1.79706,-22.75097,33.57
2,-0.3209686,0.07827759,0.9438324,1.0,-0.3519744999999999,0.01490784,0.9358826,-26.95543,0.8612061,-19.12022,5.086777,0.3985439,0.4821303,1.0,-0.2873535,0.1431274,0.947052,33.41185,-0.9584045,-22.29402,4.763657,0.5069011,0.5411421,-1.081042,-47.98409,42.62083,0.1794263999999999,0.6310843,-0.1561806,1.79706,-22.75097,33.57
2,-0.3209686,0.07827759,0.9438324,1.0,-0.3519744999999999,0.01490784,0.9358826,-26.95543,0.8612061,-19.12022,5.086777,0.3985439,0.4821303,1.0,-0.2873535,0.1431274,0.947052,33.41185,-0.9584045,-22.29402,4.763657,0.5069011,0.5411421,-1.081042,-47.98409,42.62083,0.1794263999999999,0.6310843,-0.1561806,1.79706,-22.75097,33.57
2,-0.2483215,-0.001327515,0.9686737,1.0,-0.3124084,-0.05813599,0.9481506,-26.88019,0.7804260000000001,-19.06279,5.027634,0.3916959,0.4918124,1.0,-0.196701,0.04321289,0.9794921999999998,33.52789,-1.114182,-22.1429,4.513977,0.493172,0.5549636,-1.084222,-47.98145,42.61967,0.1719165,0.6350963000000001,-0.1490475,1.79706,14.21193,33.57
2,-0.2483215,-0.001327515,0.9686737,1.0,-0.3124084,-0.05813599,0.9481506,-26.88019,0.7804260000000001,-19.06279,5.027634,0.3916959,0.4918124,1.0,-0.196701,0.04321289,0.9794921999999998,33.52789,-1.114182,-22.1429,4.513977,0.493172,0.5549636,-1.084222,-47.98145,42.61967,0.1719165,0.6350963000000001,-0.1490475,1.79706,14.21193,33.57
2,-0.2483215,-0.001327515,0.9686737,1.0,-0.3124084,-0.05813599,0.9481506,-26.88019,0.7804260000000001,-19.06279,5.027634,0.3916959,0.4918124,1.0,-0.196701,0.04321289,0.9794921999999998,33.52789,-1.114182,-22.1429,4.513977,0.493172,0.5549636,-1.084222,-47.98145,42.61967,0.1719165,0.6350963000000001,-0.1490475,1.79706,14.21193,33.57
2,-0.3006897,0.09086609,0.9493713,1.0,-0.3725585999999999,0.06118774,0.9259796,-27.058940000000003,1.189484,-19.16353,5.079544,0.4042754,0.4672409999999999,1.0,-0.2366637999999999,0.1161499,0.9646149,33.26099,-0.6765594,-22.24744,4.486877,0.5064817,0.5340014,-1.086904,-47.97856,42.61805,0.1641146,0.6389779000000001,-0.1442756,1.79706,14.21193,33.57
2,-0.3006897,0.09086609,0.9493713,1.0,-0.3725585999999999,0.06118774,0.9259796,-27.058940000000003,1.189484,-19.16353,5.079544,0.4042754,0.4672409999999999,1.0,-0.2366637999999999,0.1161499,0.9646149,33.26099,-0.6765594,-22.24744,4.486877,0.5064817,0.5340014,-1.086904,-47.97856,42.61805,0.1641146,0.6389779000000001,-0.1442756,1.79706,14.21193,33.57
2,-0.3006897,0.09086609,0.9493713,1.0,-0.3725585999999999,0.06118774,0.9259796,-27.058940000000003,1.189484,-19.16353,5.079544,0.4042754,0.4672409999999999,1.0,-0.2366637999999999,0.1161499,0.9646149,33.26099,-0.6765594,-22.24744,4.486877,0.5064817,0.5340014,-1.086904,-47.97856,42.61805,0.1641146,0.6389779000000001,-0.1442756,1.79706,14.21193,33.57
2,-0.4315491,0.1441193,0.8904877,1.0,-0.4315491,0.1441193,0.8904877,-27.198940000000004,1.559647,-19.299670000000003,4.944656,0.4156770999999999,0.4480149,1.0,0.0,0.0,0.0,33.105290000000004,-0.09895325,-22.46533,-1.0,0.525091,0.5113702,-1.089389,-47.97598,42.61641,0.1555765,0.642968,-0.1403078,1.79706,14.21193,33.57
2,-0.4315491,0.1441193,0.8904877,1.0,-0.4315491,0.1441193,0.8904877,-27.198940000000004,1.559647,-19.299670000000003,4.944656,0.4156770999999999,0.4480149,1.0,0.0,0.0,0.0,33.105290000000004,-0.09895325,-22.46533,-1.0,0.525091,0.5113702,-1.089389,-47.97598,42.61641,0.1555765,0.642968,-0.1403078,1.79706,14.21193,33.57
2,-0.4315491,0.1441193,0.8904877,1.0,-0.4315491,0.1441193,0.8904877,-27.198940000000004,1.559647,-19.299670000000003,4.944656,0.4156770999999999,0.4480149,1.0,0.0,0.0,0.0,33.105290000000004,-0.09895325,-22.46533,-1.0,0.525091,0.5113702,-1.089389,-47.97598,42.61641,0.1555765,0.642968,-0.1403078,1.79706,14.21193,33.57
2,-0.3720550999999999,0.138092,0.9178772,1.0,-0.4018097,0.1262207,0.9069672,-27.23521,1.452499,-19.26334,5.004852,0.4133585,0.4528806999999999,1.0,-0.3439026,0.1490326,0.9270935,33.08252,-0.338028,-22.41643,4.75766,0.5240612,0.522137,-1.091677,-47.97367,42.61429,0.1473746,0.6469331,-0.1374448999999999,1.79706,14.21193,33.57
2,-0.3720550999999999,0.138092,0.9178772,1.0,-0.4018097,0.1262207,0.9069672,-27.23521,1.452499,-19.26334,5.004852,0.4133585,0.4528806999999999,1.0,-0.3439026,0.1490326,0.9270935,33.08252,-0.338028,-22.41643,4.75766,0.5240612,0.522137,-1.091677,-47.97367,42.61429,0.1473746,0.6469331,-0.1374448999999999,1.79706,14.21193,33.57
2,-0.3720550999999999,0.138092,0.9178772,1.0,-0.4018097,0.1262207,0.9069672,-27.23521,1.452499,-19.26334,5.004852,0.4133585,0.4528806999999999,1.0,-0.3439026,0.1490326,0.9270935,33.08252,-0.338028,-22.41643,4.75766,0.5240612,0.522137,-1.091677,-47.97367,42.61429,0.1473746,0.6469331,-0.1374448999999999,1.79706,14.21193,33.57
2,-0.3690796,0.1469727,0.9176940999999998,1.0,-0.4083252,0.1094666,0.9062347,-27.23514,1.416031,-19.25441,4.970688,0.4140632999999999,0.4557893,1.0,-0.3357849,0.1776428,0.9250183,33.08975,-0.3447571,-22.43777,4.585327,0.5232622,0.5190975999999999,-1.093373,-47.97152,42.61169,0.1392678,0.6511098000000001,-0.1351641,1.79706,37.95641,33.57
2,-0.3690796,0.1469727,0.9176940999999998,1.0,-0.4083252,0.1094666,0.9062347,-27.23514,1.416031,-19.25441,4.970688,0.4140632999999999,0.4557893,1.0,-0.3357849,0.1776428,0.9250183,33.08975,-0.3447571,-22.43777,4.585327,0.5232622,0.5190975999999999,-1.093373,-47.97152,42.61169,0.1392678,0.6511098000000001,-0.1351641,1.79706,37.95641,33.57
2,-0.3690796,0.1469727,0.9176940999999998,1.0,-0.4083252,0.1094666,0.9062347,-27.23514,1.416031,-19.25441,4.970688,0.4140632999999999,0.4557893,1.0,-0.3357849,0.1776428,0.9250183,33.08975,-0.3447571,-22.43777,4.585327,0.5232622,0.5190975999999999,-1.093373,-47.97152,42.61169,0.1392678,0.6511098000000001,-0.1351641,1.79706,37.95641,33.57
2,-0.3690796,0.1469727,0.9176940999999998,1.0,-0.4083252,0.1094666,0.9062347,-27.23514,1.416031,-19.25441,4.970688,0.4140632999999999,0.4557893,1.0,-0.3357849,0.1776428,0.9250183,33.08975,-0.3447571,-22.43777,4.585327,0.5232622,0.5190975999999999,-1.094546,-47.96974,42.60888,0.1322267999999999,0.6550959,-0.1334081,1.79706,37.95641,33.57
2,-0.3690796,0.1469727,0.9176940999999998,1.0,-0.4083252,0.1094666,0.9062347,-27.23514,1.416031,-19.25441,4.970688,0.4140632999999999,0.4557893,1.0,-0.3357849,0.1776428,0.9250183,33.08975,-0.3447571,-22.43777,4.585327,0.5232622,0.5190975999999999,-1.094546,-47.96974,42.60888,0.1322267999999999,0.6550959,-0.1334081,1.79706,37.95641,33.57
2,-0.3690796,0.1469727,0.9176940999999998,1.0,-0.4083252,0.1094666,0.9062347,-27.23514,1.416031,-19.25441,4.970688,0.4140632999999999,0.4557893,1.0,-0.3357849,0.1776428,0.9250183,33.08975,-0.3447571,-22.43777,4.585327,0.5232622,0.5190975999999999,-1.094546,-47.96974,42.60888,0.1322267999999999,0.6550959,-0.1334081,1.79706,37.95641,33.57
2,-0.3055877999999999,0.06236267,0.9501038,1.0,-0.3593445,0.04573059,0.9320679,-27.18242,1.156708,-19.16521,4.992141999999999,0.4067047,0.4698114,1.0,-0.2463531,0.08007813,0.9658508,33.317640000000004,-0.7236481,-22.21368,4.434372,0.5057358000000001,0.5392445,-1.094965,-47.96804,42.60271,0.1229482,0.6628724,-0.1352457,1.782966,37.95641,33.57
2,-0.3055877999999999,0.06236267,0.9501038,1.0,-0.3593445,0.04573059,0.9320679,-27.18242,1.156708,-19.16521,4.992141999999999,0.4067047,0.4698114,1.0,-0.2463531,0.08007813,0.9658508,33.317640000000004,-0.7236481,-22.21368,4.434372,0.5057358000000001,0.5392445,-1.094965,-47.96804,42.60271,0.1229482,0.6628724,-0.1352457,1.782966,37.95641,33.57
2,-0.3055877999999999,0.06236267,0.9501038,1.0,-0.3593445,0.04573059,0.9320679,-27.18242,1.156708,-19.16521,4.992141999999999,0.4067047,0.4698114,1.0,-0.2463531,0.08007813,0.9658508,33.317640000000004,-0.7236481,-22.21368,4.434372,0.5057358000000001,0.5392445,-1.094965,-47.96804,42.60271,0.1229482,0.6628724,-0.1352457,1.782966,37.95641,33.57
3,-0.3026276,0.03236389,0.9525452,1.0,-0.341629,0.02728271,0.9394226,-27.149490000000004,1.134186,-19.14014,5.081955000000001,0.4036442999999999,0.4722425999999999,1.0,-0.2066498,0.04434204,0.9774017,33.37698,-0.8120116999999999,-22.12614,4.38414,0.4993919,0.54495,-1.094292,-47.96824,42.5994,0.1214991,0.6667451,-0.1391811,1.782966,37.95641,33.57
3,-0.3026276,0.03236389,0.9525452,1.0,-0.341629,0.02728271,0.9394226,-27.149490000000004,1.134186,-19.14014,5.081955000000001,0.4036442999999999,0.4722425999999999,1.0,-0.2066498,0.04434204,0.9774017,33.37698,-0.8120116999999999,-22.12614,4.38414,0.4993919,0.54495,-1.094292,-47.96824,42.5994,0.1214991,0.6667451,-0.1391811,1.782966,37.95641,33.57
3,-0.3026276,0.03236389,0.9525452,1.0,-0.341629,0.02728271,0.9394226,-27.149490000000004,1.134186,-19.14014,5.081955000000001,0.4036442999999999,0.4722425999999999,1.0,-0.2066498,0.04434204,0.9774017,33.37698,-0.8120116999999999,-22.12614,4.38414,0.4993919,0.54495,-1.094292,-47.96824,42.5994,0.1214991,0.6667451,-0.1391811,1.782966,37.95641,33.57
3,-0.2901917,0.02952576,0.9564972,1.0,-0.3468933,0.01741028,0.9377289,-27.10291,1.113144,-19.13527,5.044678,0.4027366,0.4739424,1.0,-0.2086334,0.04637146,0.9768829,33.40276,-0.8149566999999999,-22.14034,4.465424,0.498668,0.5450246,-1.093363,-47.9691,42.59638,0.1232202,0.6701604,-0.1455624,1.782966,37.95641,33.57
3,-0.2901917,0.02952576,0.9564972,1.0,-0.3468933,0.01741028,0.9377289,-27.10291,1.113144,-19.13527,5.044678,0.4027366,0.4739424,1.0,-0.2086334,0.04637146,0.9768829,33.40276,-0.8149566999999999,-22.14034,4.465424,0.498668,0.5450246,-1.093363,-47.9691,42.59638,0.1232202,0.6701604,-0.1455624,1.782966,37.95641,33.57
3,-0.2901917,0.02952576,0.9564972,1.0,-0.3468933,0.01741028,0.9377289,-27.10291,1.113144,-19.13527,5.044678,0.4027366,0.4739424,1.0,-0.2086334,0.04637146,0.9768829,33.40276,-0.8149566999999999,-22.14034,4.465424,0.498668,0.5450246,-1.093363,-47.9691,42.59638,0.1232202,0.6701604,-0.1455624,1.782966,37.95641,33.57
3,-0.2414093,0.03181458,0.9698944,1.0,-0.3329315,0.0202179,0.9427185,-27.04041,1.162415,-19.11209,5.069901,0.3992128,0.4717951,1.0,-0.1505432,0.04277039,0.9876709,33.50029,-0.8106995,-22.07364,4.440872,0.4891167999999999,0.5442845000000001,-1.091654,-47.97018,42.59354,0.1250787,0.6736071,-0.151822,1.782966,7.559856,33.57
3,-0.2414093,0.03181458,0.9698944,1.0,-0.3329315,0.0202179,0.9427185,-27.04041,1.162415,-19.11209,5.069901,0.3992128,0.4717951,1.0,-0.1505432,0.04277039,0.9876709,33.50029,-0.8106995,-22.07364,4.440872,0.4891167999999999,0.5442845000000001,-1.091654,-47.97018,42.59354,0.1250787,0.6736071,-0.151822,1.782966,7.559856,33.57
3,-0.2414093,0.03181458,0.9698944,1.0,-0.3329315,0.0202179,0.9427185,-27.04041,1.162415,-19.11209,5.069901,0.3992128,0.4717951,1.0,-0.1505432,0.04277039,0.9876709,33.50029,-0.8106995,-22.07364,4.440872,0.4891167999999999,0.5442845000000001,-1.091654,-47.97018,42.59354,0.1250787,0.6736071,-0.151822,1.782966,7.559856,33.57
3,-0.2474212999999999,0.06112671,0.9669647,1.0,-0.3079071,0.01959229,0.9512024,-26.965670000000003,1.2457120000000002,-19.08064,5.008926,0.3940967999999999,0.468735,1.0,-0.1980438,0.09408569,0.9756622,33.59938,-0.7325286999999999,-22.11987,4.568588,0.4911122999999999,0.5368873000000001,-1.089658,-47.97139,42.59114,0.1270398,0.6766699,-0.1574231,1.782966,7.559856,33.57
3,-0.2474212999999999,0.06112671,0.9669647,1.0,-0.3079071,0.01959229,0.9512024,-26.965670000000003,1.2457120000000002,-19.08064,5.008926,0.3940967999999999,0.468735,1.0,-0.1980438,0.09408569,0.9756622,33.59938,-0.7325286999999999,-22.11987,4.568588,0.4911122999999999,0.5368873000000001,-1.089658,-47.97139,42.59114,0.1270398,0.6766699,-0.1574231,1.782966,7.559856,33.57
3,-0.2474212999999999,0.06112671,0.9669647,1.0,-0.3079071,0.01959229,0.9512024,-26.965670000000003,1.2457120000000002,-19.08064,5.008926,0.3940967999999999,0.468735,1.0,-0.1980438,0.09408569,0.9756622,33.59938,-0.7325286999999999,-22.11987,4.568588,0.4911122999999999,0.5368873000000001,-1.089658,-47.97139,42.59114,0.1270398,0.6766699,-0.1574231,1.782966,7.559856,33.57
3,-0.2676239,0.07380676,0.9606781,1.0,-0.3070374,0.02043152,0.9514771,-26.93555,1.279816,-19.07671,5.065201,0.393048,0.467559,1.0,-0.2316895,0.1208344,0.9652405,33.60434,-0.7307739000000001,-22.13818,4.683472,0.4945866,0.5343816,-1.087366,-47.97231,42.58918,0.1287925,0.6792648,-0.1615795,1.782966,7.559856,33.57
3,-0.2676239,0.07380676,0.9606781,1.0,-0.3070374,0.02043152,0.9514771,-26.93555,1.279816,-19.07671,5.065201,0.393048,0.467559,1.0,-0.2316895,0.1208344,0.9652405,33.60434,-0.7307739000000001,-22.13818,4.683472,0.4945866,0.5343816,-1.087366,-47.97231,42.58918,0.1287925,0.6792648,-0.1615795,1.782966,7.559856,33.57
3,-0.2676239,0.07380676,0.9606781,1.0,-0.3070374,0.02043152,0.9514771,-26.93555,1.279816,-19.07671,5.065201,0.393048,0.467559,1.0,-0.2316895,0.1208344,0.9652405,33.60434,-0.7307739000000001,-22.13818,4.683472,0.4945866,0.5343816,-1.087366,-47.97231,42.58918,0.1287925,0.6792648,-0.1615795,1.782966,7.559856,33.57
3,-0.2676239,0.07380676,0.9606781,1.0,-0.3070374,0.02043152,0.9514771,-26.93555,1.279816,-19.07671,5.065201,0.393048,0.467559,1.0,-0.2316895,0.1208344,0.9652405,33.60434,-0.7307739000000001,-22.13818,4.683472,0.4945866,0.5343816,-1.085217,-47.97298,42.58762,0.1294112,0.6814925000000001,-0.1648773999999999,1.782966,7.559856,33.57
3,-0.2676239,0.07380676,0.9606781,1.0,-0.3070374,0.02043152,0.9514771,-26.93555,1.279816,-19.07671,5.065201,0.393048,0.467559,1.0,-0.2316895,0.1208344,0.9652405,33.60434,-0.7307739000000001,-22.13818,4.683472,0.4945866,0.5343816,-1.085217,-47.97298,42.58762,0.1294112,0.6814925000000001,-0.1648773999999999,1.782966,7.559856,33.57
3,-0.2676239,0.07380676,0.9606781,1.0,-0.3070374,0.02043152,0.9514771,-26.93555,1.279816,-19.07671,5.065201,0.393048,0.467559,1.0,-0.2316895,0.1208344,0.9652405,33.60434,-0.7307739000000001,-22.13818,4.683472,0.4945866,0.5343816,-1.085217,-47.97298,42.58762,0.1294112,0.6814925000000001,-0.1648773999999999,1.782966,7.559856,33.57
3,-0.1865997,0.07519531,0.979538,1.0,-0.254364,0.05429077,0.9655762,-26.78932,1.43985,-19.03995,5.179459,0.3827100999999999,0.4583397,1.0,-0.1164093,0.09613037,0.9885254,33.79985,-0.5654144,-22.04236,4.547958,0.475704,0.5300953,-1.082922,-47.9733,42.58671,0.1303434,0.6830685999999999,-0.1675562,1.782966,7.559856,33.57
3,-0.1865997,0.07519531,0.979538,1.0,-0.254364,0.05429077,0.9655762,-26.78932,1.43985,-19.03995,5.179459,0.3827100999999999,0.4583397,1.0,-0.1164093,0.09613037,0.9885254,33.79985,-0.5654144,-22.04236,4.547958,0.475704,0.5300953,-1.082922,-47.9733,42.58671,0.1303434,0.6830685999999999,-0.1675562,1.782966,7.559856,33.57
3,-0.1865997,0.07519531,0.979538,1.0,-0.254364,0.05429077,0.9655762,-26.78932,1.43985,-19.03995,5.179459,0.3827100999999999,0.4583397,1.0,-0.1164093,0.09613037,0.9885254,33.79985,-0.5654144,-22.04236,4.547958,0.475704,0.5300953,-1.082922,-47.9733,42.58671,0.1303434,0.6830685999999999,-0.1675562,1.782966,7.559856,33.57
3,-0.1569672,0.07707214,0.9845886,1.0,-0.2405396,0.05480957,0.9690857,-26.7451,1.449692,-19.03595,5.203949,0.3798026,0.457884,1.0,-0.09254456,0.09362793,0.9912872,33.82967,-0.5845795,-22.05598,4.526398,0.4721192,0.5309621,-1.0809959999999998,-47.97374,42.5862,0.1319401,0.683712,-0.1699164,1.782966,7.559856,33.57
3,-0.1569672,0.07707214,0.9845886,1.0,-0.2405396,0.05480957,0.9690857,-26.7451,1.449692,-19.03595,5.203949,0.3798026,0.457884,1.0,-0.09254456,0.09362793,0.9912872,33.82967,-0.5845795,-22.05598,4.526398,0.4721192,0.5309621,-1.0809959999999998,-47.97374,42.5862,0.1319401,0.683712,-0.1699164,1.782966,7.559856,33.57
3,-0.1569672,0.07707214,0.9845886,1.0,-0.2405396,0.05480957,0.9690857,-26.7451,1.449692,-19.03595,5.203949,0.3798026,0.457884,1.0,-0.09254456,0.09362793,0.9912872,33.82967,-0.5845795,-22.05598,4.526398,0.4721192,0.5309621,-1.0809959999999998,-47.97374,42.5862,0.1319401,0.683712,-0.1699164,1.782966,7.559856,33.57
3,-0.1506652999999999,0.07571411,0.985672,1.0,-0.23349,0.05117798,0.9710083,-26.71556,1.43103,-19.03856,5.271118,0.378091,0.4588975999999999,1.0,-0.09153748,0.09266663,0.9914703,33.84526,-0.5848846,-22.05954,4.526184,0.4715047,0.5310953,-1.079365,-47.97445,42.58614,0.134011,0.6836399000000001,-0.1725059,1.782966,-19.86411,33.57
3,-0.1506652999999999,0.07571411,0.985672,1.0,-0.23349,0.05117798,0.9710083,-26.71556,1.43103,-19.03856,5.271118,0.378091,0.4588975999999999,1.0,-0.09153748,0.09266663,0.9914703,33.84526,-0.5848846,-22.05954,4.526184,0.4715047,0.5310953,-1.079365,-47.97445,42.58614,0.134011,0.6836399000000001,-0.1725059,1.782966,-19.86411,33.57
3,-0.1506652999999999,0.07571411,0.985672,1.0,-0.23349,0.05117798,0.9710083,-26.71556,1.43103,-19.03856,5.271118,0.378091,0.4588975999999999,1.0,-0.09153748,0.09266663,0.9914703,33.84526,-0.5848846,-22.05954,4.526184,0.4715047,0.5310953,-1.079365,-47.97445,42.58614,0.134011,0.6836399000000001,-0.1725059,1.782966,-19.86411,33.57
3,-0.1382141,0.07197571,0.9877777,1.0,-0.2304534999999999,0.0561675999999999,0.9714508,-26.68608,1.43013,-19.05453,5.191986,0.3768075999999999,0.4584333,1.0,-0.07617188,0.08213806,0.9936981,33.871990000000004,-0.5881348000000001,-22.07318,4.495483,0.4689607,0.5323753000000001,-1.078153,-47.97552,42.58628,0.1370476,0.6827294,-0.1755041,1.782966,-19.86411,33.57
3,-0.1382141,0.07197571,0.9877777,1.0,-0.2304534999999999,0.0561675999999999,0.9714508,-26.68608,1.43013,-19.05453,5.191986,0.3768075999999999,0.4584333,1.0,-0.07617188,0.08213806,0.9936981,33.871990000000004,-0.5881348000000001,-22.07318,4.495483,0.4689607,0.5323753000000001,-1.078153,-47.97552,42.58628,0.1370476,0.6827294,-0.1755041,1.782966,-19.86411,33.57
3,-0.1382141,0.07197571,0.9877777,1.0,-0.2304534999999999,0.0561675999999999,0.9714508,-26.68608,1.43013,-19.05453,5.191986,0.3768075999999999,0.4584333,1.0,-0.07617188,0.08213806,0.9936981,33.871990000000004,-0.5881348000000001,-22.07318,4.495483,0.4689607,0.5323753000000001,-1.078153,-47.97552,42.58628,0.1370476,0.6827294,-0.1755041,1.782966,-19.86411,33.57
3,-0.1370544,0.0725708,0.9878845,1.0,-0.2315369,0.05683899,0.9711609,-26.68356,1.430222,-19.05457,5.174805,0.3768449,0.4583523,1.0,-0.07461548,0.08248901,0.9937897,33.87833,-0.5881348000000001,-22.07834,4.495285,0.4685838,0.5323753000000001,-1.077276,-47.9771,42.58684,0.1416105,0.6810198000000001,-0.179429,1.782966,-19.86411,33.57
3,-0.1370544,0.0725708,0.9878845,1.0,-0.2315369,0.05683899,0.9711609,-26.68356,1.430222,-19.05457,5.174805,0.3768449,0.4583523,1.0,-0.07461548,0.08248901,0.9937897,33.87833,-0.5881348000000001,-22.07834,4.495285,0.4685838,0.5323753000000001,-1.077276,-47.9771,42.58684,0.1416105,0.6810198000000001,-0.179429,1.782966,-19.86411,33.57
3,-0.1370544,0.0725708,0.9878845,1.0,-0.2315369,0.05683899,0.9711609,-26.68356,1.430222,-19.05457,5.174805,0.3768449,0.4583523,1.0,-0.07461548,0.08248901,0.9937897,33.87833,-0.5881348000000001,-22.07834,4.495285,0.4685838,0.5323753000000001,-1.077276,-47.9771,42.58684,0.1416105,0.6810198000000001,-0.179429,1.782966,-19.86411,33.57
3,-0.1349792,0.07441711,0.9880371,1.0,-0.2299042,0.06239319,0.9712067,-26.68658,1.434662,-19.05508,5.178024,0.3767703,0.4576205,1.0,-0.0700531,0.08215332,0.9941406,33.893390000000004,-0.5848541,-22.08879,4.499786,0.4675862,0.5323753000000001,-1.076553,-47.97941,42.58744,0.1477026,0.67853,-0.1842805,1.782966,-19.86411,33.57
3,-0.1349792,0.07441711,0.9880371,1.0,-0.2299042,0.06239319,0.9712067,-26.68658,1.434662,-19.05508,5.178024,0.3767703,0.4576205,1.0,-0.0700531,0.08215332,0.9941406,33.893390000000004,-0.5848541,-22.08879,4.499786,0.4675862,0.5323753000000001,-1.076553,-47.97941,42.58744,0.1477026,0.67853,-0.1842805,1.782966,-19.86411,33.57
3,-0.1349792,0.07441711,0.9880371,1.0,-0.2299042,0.06239319,0.9712067,-26.68658,1.434662,-19.05508,5.178024,0.3767703,0.4576205,1.0,-0.0700531,0.08215332,0.9941406,33.893390000000004,-0.5848541,-22.08879,4.499786,0.4675862,0.5323753000000001,-1.076553,-47.97941,42.58744,0.1477026,0.67853,-0.1842805,1.782966,-19.86411,33.57
3,-0.1349792,0.07441711,0.9880371,1.0,-0.2299042,0.06239319,0.9712067,-26.68658,1.434662,-19.05508,5.178024,0.3767703,0.4576205,1.0,-0.0700531,0.08215332,0.9941406,33.893390000000004,-0.5848541,-22.08879,4.499786,0.4675862,0.5323753000000001,-1.075988,-47.9818,42.58829,0.1549924,0.6754814,-0.188943,1.782966,27.23215,33.57
3,-0.1349792,0.07441711,0.9880371,1.0,-0.2299042,0.06239319,0.9712067,-26.68658,1.434662,-19.05508,5.178024,0.3767703,0.4576205,1.0,-0.0700531,0.08215332,0.9941406,33.893390000000004,-0.5848541,-22.08879,4.499786,0.4675862,0.5323753000000001,-1.075988,-47.9818,42.58829,0.1549924,0.6754814,-0.188943,1.782966,27.23215,33.57
3,-0.1349792,0.07441711,0.9880371,1.0,-0.2299042,0.06239319,0.9712067,-26.68658,1.434662,-19.05508,5.178024,0.3767703,0.4576205,1.0,-0.0700531,0.08215332,0.9941406,33.893390000000004,-0.5848541,-22.08879,4.499786,0.4675862,0.5323753000000001,-1.075988,-47.9818,42.58829,0.1549924,0.6754814,-0.188943,1.782966,27.23215,33.57
3,-0.1402892999999999,0.1134491,0.9835815,1.0,-0.1983947999999999,0.1090088,0.9740295,-26.7473,1.517944,-19.09859,5.240067,0.3753468,0.4503219,1.0,-0.07803345,0.1177216,0.9899597,33.91599,-0.4943848,-22.18848,4.622849,0.4676345999999999,0.5265599,-1.075218,-47.98421,42.58931,0.1620935,0.6716723000000001,-0.1920966,1.782966,27.23215,33.57
3,-0.1402892999999999,0.1134491,0.9835815,1.0,-0.1983947999999999,0.1090088,0.9740295,-26.7473,1.517944,-19.09859,5.240067,0.3753468,0.4503219,1.0,-0.07803345,0.1177216,0.9899597,33.91599,-0.4943848,-22.18848,4.622849,0.4676345999999999,0.5265599,-1.075218,-47.98421,42.58931,0.1620935,0.6716723000000001,-0.1920966,1.782966,27.23215,33.57
3,-0.1402892999999999,0.1134491,0.9835815,1.0,-0.1983947999999999,0.1090088,0.9740295,-26.7473,1.517944,-19.09859,5.240067,0.3753468,0.4503219,1.0,-0.07803345,0.1177216,0.9899597,33.91599,-0.4943848,-22.18848,4.622849,0.4676345999999999,0.5265599,-1.075218,-47.98421,42.58931,0.1620935,0.6716723000000001,-0.1920966,1.782966,27.23215,33.57
3,-0.1594848999999999,0.1335297,0.9781189,1.0,-0.2015991,0.1359862999999999,0.9699707,-26.7632,1.669601,-19.117420000000003,5.299469,0.376271,0.4428854,1.0,-0.1220702999999999,0.1311646,0.9838104,33.93698,-0.3144531,-22.15398,4.68512,0.4718210999999999,0.5192736,-1.074202,-47.98685,42.59062,0.1698641,0.666762,-0.195443,1.782966,27.23215,33.57
3,-0.1594848999999999,0.1335297,0.9781189,1.0,-0.2015991,0.1359862999999999,0.9699707,-26.7632,1.669601,-19.117420000000003,5.299469,0.376271,0.4428854,1.0,-0.1220702999999999,0.1311646,0.9838104,33.93698,-0.3144531,-22.15398,4.68512,0.4718210999999999,0.5192736,-1.074202,-47.98685,42.59062,0.1698641,0.666762,-0.195443,1.782966,27.23215,33.57
3,-0.1594848999999999,0.1335297,0.9781189,1.0,-0.2015991,0.1359862999999999,0.9699707,-26.7632,1.669601,-19.117420000000003,5.299469,0.376271,0.4428854,1.0,-0.1220702999999999,0.1311646,0.9838104,33.93698,-0.3144531,-22.15398,4.68512,0.4718210999999999,0.5192736,-1.074202,-47.98685,42.59062,0.1698641,0.666762,-0.195443,1.782966,27.23215,33.57
3,-1.0,-1.0,-1.0,0.5641484999999999,0.0,0.0,0.0,-26.14789,0.243515,-19.19302,-1.0,0.348412,0.5410959,0.5273982,0.0,0.0,0.0,34.22433,-1.23288,-22.02185,-1.0,0.4211853,0.6136224,-1.073371,-47.99038,42.59233,0.1788125,0.6605601,-0.1999766,1.782966,27.23215,33.57
3,-1.0,-1.0,-1.0,0.5641484999999999,0.0,0.0,0.0,-26.14789,0.243515,-19.19302,-1.0,0.348412,0.5410959,0.5273982,0.0,0.0,0.0,34.22433,-1.23288,-22.02185,-1.0,0.4211853,0.6136224,-1.073371,-47.99038,42.59233,0.1788125,0.6605601,-0.1999766,1.782966,27.23215,33.57
3,-1.0,-1.0,-1.0,0.5641484999999999,0.0,0.0,0.0,-26.14789,0.243515,-19.19302,-1.0,0.348412,0.5410959,0.5273982,0.0,0.0,0.0,34.22433,-1.23288,-22.02185,-1.0,0.4211853,0.6136224,-1.073371,-47.99038,42.59233,0.1788125,0.6605601,-0.1999766,1.782966,27.23215,33.57
3,-1.0,-1.0,-1.0,0.2357382,0.0,0.0,0.0,-26.14789,0.243515,-19.19302,-1.0,0.3337102,0.5839595000000001,0.3310775,0.0,0.0,0.0,34.22433,-1.23288,-22.02185,-1.0,0.4417859,0.6718586999999999,-1.07216,-47.9948,42.59471,0.1907907999999999,0.6517603,-0.2064612,1.782966,27.23215,33.57
3,-1.0,-1.0,-1.0,0.2357382,0.0,0.0,0.0,-26.14789,0.243515,-19.19302,-1.0,0.3337102,0.5839595000000001,0.3310775,0.0,0.0,0.0,34.22433,-1.23288,-22.02185,-1.0,0.4417859,0.6718586999999999,-1.07216,-47.9948,42.59471,0.1907907999999999,0.6517603,-0.2064612,1.782966,27.23215,33.57
3,-1.0,-1.0,-1.0,0.2357382,0.0,0.0,0.0,-26.14789,0.243515,-19.19302,-1.0,0.3337102,0.5839595000000001,0.3310775,0.0,0.0,0.0,34.22433,-1.23288,-22.02185,-1.0,0.4417859,0.6718586999999999,-1.07216,-47.9948,42.59471,0.1907907999999999,0.6517603,-0.2064612,1.782966,27.23215,33.57
3,-1.0,-1.0,-1.0,0.3356265999999999,0.0,0.0,0.0,-26.14789,0.243515,-19.19302,-1.0,0.2792593,0.5942659,0.2737845,0.0,0.0,0.0,34.29971,-3.114914,-22.34798,-1.0,0.4427151,0.6732292,-1.070804,-48.00056,42.59795,0.2063037,0.639038,-0.2148445,1.782966,9.114672,33.57
3,-1.0,-1.0,-1.0,0.3356265999999999,0.0,0.0,0.0,-26.14789,0.243515,-19.19302,-1.0,0.2792593,0.5942659,0.2737845,0.0,0.0,0.0,34.29971,-3.114914,-22.34798,-1.0,0.4427151,0.6732292,-1.070804,-48.00056,42.59795,0.2063037,0.639038,-0.2148445,1.782966,9.114672,33.57
3,-1.0,-1.0,-1.0,0.3356265999999999,0.0,0.0,0.0,-26.14789,0.243515,-19.19302,-1.0,0.2792593,0.5942659,0.2737845,0.0,0.0,0.0,34.29971,-3.114914,-22.34798,-1.0,0.4427151,0.6732292,-1.070804,-48.00056,42.59795,0.2063037,0.639038,-0.2148445,1.782966,9.114672,33.57
3,-1.0,-1.0,-1.0,0.3356265999999999,0.0,0.0,0.0,-26.14789,0.243515,-19.19302,-1.0,0.2660923,0.5936134,0.2737845,0.0,0.0,0.0,34.29971,-3.114914,-22.34798,-1.0,0.4389345999999999,0.6909828,-1.069384,-48.00818,42.60249,0.2276647,0.6204899,-0.2255665,1.782966,9.114672,33.57
3,-1.0,-1.0,-1.0,0.3356265999999999,0.0,0.0,0.0,-26.14789,0.243515,-19.19302,-1.0,0.2660923,0.5936134,0.2737845,0.0,0.0,0.0,34.29971,-3.114914,-22.34798,-1.0,0.4389345999999999,0.6909828,-1.069384,-48.00818,42.60249,0.2276647,0.6204899,-0.2255665,1.782966,9.114672,33.57
3,-1.0,-1.0,-1.0,0.3356265999999999,0.0,0.0,0.0,-26.14789,0.243515,-19.19302,-1.0,0.2660923,0.5936134,0.2737845,0.0,0.0,0.0,34.29971,-3.114914,-22.34798,-1.0,0.4389345999999999,0.6909828,-1.069384,-48.00818,42.60249,0.2276647,0.6204899,-0.2255665,1.782966,9.114672,33.57
3,-1.0,-1.0,-1.0,0.325667,0.0,0.0,0.0,-26.14789,0.243515,-19.19302,-1.0,0.260267,0.599901,0.2276831,0.0,0.0,0.0,34.29971,-3.114914,-22.34798,-1.0,0.4169029,0.7151903000000001,-1.067541,-48.01764,42.60813,0.2496154,0.5970131,-0.239695,1.782966,9.114672,33.57
3,-1.0,-1.0,-1.0,0.325667,0.0,0.0,0.0,-26.14789,0.243515,-19.19302,-1.0,0.260267,0.599901,0.2276831,0.0,0.0,0.0,34.29971,-3.114914,-22.34798,-1.0,0.4169029,0.7151903000000001,-1.067541,-48.01764,42.60813,0.2496154,0.5970131,-0.239695,1.782966,9.114672,33.57
3,-1.0,-1.0,-1.0,0.325667,0.0,0.0,0.0,-26.14789,0.243515,-19.19302,-1.0,0.260267,0.599901,0.2276831,0.0,0.0,0.0,34.29971,-3.114914,-22.34798,-1.0,0.4169029,0.7151903000000001,-1.067541,-48.01764,42.60813,0.2496154,0.5970131,-0.239695,1.782966,9.114672,33.57
3,-1.0,-1.0,-1.0,0.3576723,0.0,0.0,0.0,-24.10985,-1.774155,-19.79918,-1.0,0.2394541,0.6320259,0.2773932,0.0,0.0,0.0,34.29971,-3.114914,-22.34798,-1.0,0.3730214,0.7326361,-1.066131,-48.02642,42.614540000000005,0.2725535999999999,0.5716963,-0.2600439,1.782966,9.114672,33.57
3,-1.0,-1.0,-1.0,0.3576723,0.0,0.0,0.0,-24.10985,-1.774155,-19.79918,-1.0,0.2394541,0.6320259,0.2773932,0.0,0.0,0.0,34.29971,-3.114914,-22.34798,-1.0,0.3730214,0.7326361,-1.066131,-48.02642,42.614540000000005,0.2725535999999999,0.5716963,-0.2600439,1.782966,9.114672,33.57
3,-1.0,-1.0,-1.0,0.3576723,0.0,0.0,0.0,-24.10985,-1.774155,-19.79918,-1.0,0.2394541,0.6320259,0.2773932,0.0,0.0,0.0,34.29971,-3.114914,-22.34798,-1.0,0.3730214,0.7326361,-1.066131,-48.02642,42.614540000000005,0.2725535999999999,0.5716963,-0.2600439,1.782966,9.114672,33.57
3,-1.0,-1.0,-1.0,0.4205089,0.0,0.0,0.0,-24.43016,-1.317093,-19.74821,-1.0,0.2423545,0.6444880999999999,0.3380344999999999,0.0,0.0,0.0,34.29971,-3.114914,-22.34798,-1.0,0.3815341,0.7314821,-1.062811,-48.03315,42.62115,0.2869256,0.5490158,-0.2709627,1.782966,9.114672,33.57
3,-1.0,-1.0,-1.0,0.4205089,0.0,0.0,0.0,-24.43016,-1.317093,-19.74821,-1.0,0.2423545,0.6444880999999999,0.3380344999999999,0.0,0.0,0.0,34.29971,-3.114914,-22.34798,-1.0,0.3815341,0.7314821,-1.062811,-48.03315,42.62115,0.2869256,0.5490158,-0.2709627,1.782966,9.114672,33.57
3,-1.0,-1.0,-1.0,0.4205089,0.0,0.0,0.0,-24.43016,-1.317093,-19.74821,-1.0,0.2423545,0.6444880999999999,0.3380344999999999,0.0,0.0,0.0,34.29971,-3.114914,-22.34798,-1.0,0.3815341,0.7314821,-1.062811,-48.03315,42.62115,0.2869256,0.5490158,-0.2709627,1.782966,9.114672,33.57
3,-1.0,-1.0,-1.0,0.4483537999999999,0.0,0.0,0.0,-24.48488,-1.234009,-19.65265,-1.0,0.2465804,0.6339798000000001,0.3646242,0.0,0.0,0.0,34.29971,-3.114914,-22.34798,-1.0,0.3799398,0.7174592,-1.058155,-48.03889,42.62848,0.2942103,0.5275076999999999,-0.2756318,1.782966,9.114672,33.57
3,-1.0,-1.0,-1.0,0.4483537999999999,0.0,0.0,0.0,-24.48488,-1.234009,-19.65265,-1.0,0.2465804,0.6339798000000001,0.3646242,0.0,0.0,0.0,34.29971,-3.114914,-22.34798,-1.0,0.3799398,0.7174592,-1.058155,-48.03889,42.62848,0.2942103,0.5275076999999999,-0.2756318,1.782966,9.114672,33.57
3,-1.0,-1.0,-1.0,0.4483537999999999,0.0,0.0,0.0,-24.48488,-1.234009,-19.65265,-1.0,0.2465804,0.6339798000000001,0.3646242,0.0,0.0,0.0,34.29971,-3.114914,-22.34798,-1.0,0.3799398,0.7174592,-1.058155,-48.03889,42.62848,0.2942103,0.5275076999999999,-0.2756318,1.782966,9.114672,33.57
3,-1.0,-1.0,-1.0,0.4483537999999999,0.0,0.0,0.0,-24.48488,-1.234009,-19.65265,-1.0,0.2465804,0.6339798000000001,0.3646242,0.0,0.0,0.0,34.29971,-3.114914,-22.34798,-1.0,0.3799398,0.7174592,-1.054281,-48.0442,42.6359,0.3032137,0.5074721,-0.2812792,1.782966,2.54818,33.57
3,-1.0,-1.0,-1.0,0.4483537999999999,0.0,0.0,0.0,-24.48488,-1.234009,-19.65265,-1.0,0.2465804,0.6339798000000001,0.3646242,0.0,0.0,0.0,34.29971,-3.114914,-22.34798,-1.0,0.3799398,0.7174592,-1.054281,-48.0442,42.6359,0.3032137,0.5074721,-0.2812792,1.782966,2.54818,33.57
3,-1.0,-1.0,-1.0,0.4483537999999999,0.0,0.0,0.0,-24.48488,-1.234009,-19.65265,-1.0,0.2465804,0.6339798000000001,0.3646242,0.0,0.0,0.0,34.29971,-3.114914,-22.34798,-1.0,0.3799398,0.7174592,-1.054281,-48.0442,42.6359,0.3032137,0.5074721,-0.2812792,1.782966,2.54818,33.57
3,-1.0,-1.0,-1.0,0.6397845,0.0,0.0,0.0,-25.32704,-7.801773,-22.06142,-1.0,0.2801040999999999,0.6328661999999999,0.6470286,0.0,0.0,0.0,35.26991,-3.315735,-22.5685,-1.0,0.3924460999999999,0.7195174,-1.051691,-48.0495,42.64293,0.3174028,0.4864637,-0.2844581,1.782966,2.54818,33.57
3,-1.0,-1.0,-1.0,0.6397845,0.0,0.0,0.0,-25.32704,-7.801773,-22.06142,-1.0,0.2801040999999999,0.6328661999999999,0.6470286,0.0,0.0,0.0,35.26991,-3.315735,-22.5685,-1.0,0.3924460999999999,0.7195174,-1.051691,-48.0495,42.64293,0.3174028,0.4864637,-0.2844581,1.782966,2.54818,33.57
3,-1.0,-1.0,-1.0,0.6397845,0.0,0.0,0.0,-25.32704,-7.801773,-22.06142,-1.0,0.2801040999999999,0.6328661999999999,0.6470286,0.0,0.0,0.0,35.26991,-3.315735,-22.5685,-1.0,0.3924460999999999,0.7195174,-1.051691,-48.0495,42.64293,0.3174028,0.4864637,-0.2844581,1.782966,2.54818,33.57
3,0.1877594,-0.553009,0.8117371,0.7964332,0.0809021,-0.5304260000000001,0.8438416,-25.43478,-1.547302,-19.49873,5.564712999999999,0.3003694,0.6235242,0.8425915,0.1877594,-0.553009,0.8117371,34.95615,-3.234787,-22.40807,4.584335,0.4020805999999999,0.6966576999999999,-1.049104,-48.05403,42.64969,0.3294198,0.4684526,-0.2868651,1.782966,2.54818,33.57
3,0.1877594,-0.553009,0.8117371,0.7964332,0.0809021,-0.5304260000000001,0.8438416,-25.43478,-1.547302,-19.49873,5.564712999999999,0.3003694,0.6235242,0.8425915,0.1877594,-0.553009,0.8117371,34.95615,-3.234787,-22.40807,4.584335,0.4020805999999999,0.6966576999999999,-1.049104,-48.05403,42.64969,0.3294198,0.4684526,-0.2868651,1.782966,2.54818,33.57
3,0.1877594,-0.553009,0.8117371,0.7964332,0.0809021,-0.5304260000000001,0.8438416,-25.43478,-1.547302,-19.49873,5.564712999999999,0.3003694,0.6235242,0.8425915,0.1877594,-0.553009,0.8117371,34.95615,-3.234787,-22.40807,4.584335,0.4020805999999999,0.6966576999999999,-1.049104,-48.05403,42.64969,0.3294198,0.4684526,-0.2868651,1.782966,2.54818,33.57
3,0.1472931,-0.5230713,0.8394469999999999,0.8441046,0.06689453,-0.4589233,0.8859405999999999,-25.4566,-1.600723,-19.487170000000003,5.500290000000001,0.3029154,0.6161340999999999,0.9052082,0.1472931,-0.5230713,0.8394469999999999,34.89218,-3.166779,-22.35536,4.686356,0.4089677,0.6896380999999999,-1.046524,-48.0587,42.65661,0.3394072,0.4532180999999999,-0.2897624,1.782966,2.54818,33.57
3,0.1472931,-0.5230713,0.8394469999999999,0.8441046,0.06689453,-0.4589233,0.8859405999999999,-25.4566,-1.600723,-19.487170000000003,5.500290000000001,0.3029154,0.6161340999999999,0.9052082,0.1472931,-0.5230713,0.8394469999999999,34.89218,-3.166779,-22.35536,4.686356,0.4089677,0.6896380999999999,-1.046524,-48.0587,42.65661,0.3394072,0.4532180999999999,-0.2897624,1.782966,2.54818,33.57
3,0.1472931,-0.5230713,0.8394469999999999,0.8441046,0.06689453,-0.4589233,0.8859405999999999,-25.4566,-1.600723,-19.487170000000003,5.500290000000001,0.3029154,0.6161340999999999,0.9052082,0.1472931,-0.5230713,0.8394469999999999,34.89218,-3.166779,-22.35536,4.686356,0.4089677,0.6896380999999999,-1.046524,-48.0587,42.65661,0.3394072,0.4532180999999999,-0.2897624,1.782966,2.54818,33.57
3,0.0480957,-0.47995,0.8759613000000002,0.8441046,0.02719116,-0.4704742,0.8819885000000001,-25.55031,-1.5597530000000002,-19.4736,5.445343,0.3102874,0.6160482,0.9052082,0.1306152,-0.5147858000000001,0.84729,34.85663,-3.194992,-22.36844,4.449188,0.4121938,0.6896625,-1.044534,-48.06314,42.66256,0.3550986,0.4368236,-0.28986,1.782966,2.54818,33.57
3,0.0480957,-0.47995,0.8759613000000002,0.8441046,0.02719116,-0.4704742,0.8819885000000001,-25.55031,-1.5597530000000002,-19.4736,5.445343,0.3102874,0.6160482,0.9052082,0.1306152,-0.5147858000000001,0.84729,34.85663,-3.194992,-22.36844,4.449188,0.4121938,0.6896625,-1.044534,-48.06314,42.66256,0.3550986,0.4368236,-0.28986,1.782966,2.54818,33.57
3,0.0480957,-0.47995,0.8759613000000002,0.8441046,0.02719116,-0.4704742,0.8819885000000001,-25.55031,-1.5597530000000002,-19.4736,5.445343,0.3102874,0.6160482,0.9052082,0.1306152,-0.5147858000000001,0.84729,34.85663,-3.194992,-22.36844,4.449188,0.4121938,0.6896625,-1.044534,-48.06314,42.66256,0.3550986,0.4368236,-0.28986,1.782966,2.54818,33.57
3,0.0480957,-0.47995,0.8759613000000002,0.8441046,0.02719116,-0.4704742,0.8819885000000001,-25.55031,-1.5597530000000002,-19.4736,5.445343,0.3102874,0.6160482,0.9052082,0.1306152,-0.5147858000000001,0.84729,34.85663,-3.194992,-22.36844,4.449188,0.4121938,0.6896625,-1.042363,-48.06766,42.66806,0.372355,0.4219849,-0.2881216,1.782966,-41.24887,33.57
3,0.0480957,-0.47995,0.8759613000000002,0.8441046,0.02719116,-0.4704742,0.8819885000000001,-25.55031,-1.5597530000000002,-19.4736,5.445343,0.3102874,0.6160482,0.9052082,0.1306152,-0.5147858000000001,0.84729,34.85663,-3.194992,-22.36844,4.449188,0.4121938,0.6896625,-1.042363,-48.06766,42.66806,0.372355,0.4219849,-0.2881216,1.782966,-41.24887,33.57
3,0.0480957,-0.47995,0.8759613000000002,0.8441046,0.02719116,-0.4704742,0.8819885000000001,-25.55031,-1.5597530000000002,-19.4736,5.445343,0.3102874,0.6160482,0.9052082,0.1306152,-0.5147858000000001,0.84729,34.85663,-3.194992,-22.36844,4.449188,0.4121938,0.6896625,-1.042363,-48.06766,42.66806,0.372355,0.4219849,-0.2881216,1.782966,-41.24887,33.57
3,0.0541687,-0.4652252,0.8835296999999999,0.8678266,0.007232666,-0.4810944,0.8766174000000001,-25.65273,-1.442947,-19.41991,5.471954,0.3158937,0.613084,0.9501572,0.09706116,-0.449646,0.8879089,34.893570000000004,-3.2896120000000004,-22.3992,4.652083999999999,0.4147775999999999,0.6844011,-1.040323,-48.07203,42.67375,0.3868446,0.4100541,-0.2883698,1.782966,-41.24887,33.57
3,0.0541687,-0.4652252,0.8835296999999999,0.8678266,0.007232666,-0.4810944,0.8766174000000001,-25.65273,-1.442947,-19.41991,5.471954,0.3158937,0.613084,0.9501572,0.09706116,-0.449646,0.8879089,34.893570000000004,-3.2896120000000004,-22.3992,4.652083999999999,0.4147775999999999,0.6844011,-1.040323,-48.07203,42.67375,0.3868446,0.4100541,-0.2883698,1.782966,-41.24887,33.57
3,0.0541687,-0.4652252,0.8835296999999999,0.8678266,0.007232666,-0.4810944,0.8766174000000001,-25.65273,-1.442947,-19.41991,5.471954,0.3158937,0.613084,0.9501572,0.09706116,-0.449646,0.8879089,34.893570000000004,-3.2896120000000004,-22.3992,4.652083999999999,0.4147775999999999,0.6844011,-1.040323,-48.07203,42.67375,0.3868446,0.4100541,-0.2883698,1.782966,-41.24887,33.57
4,0.02894592,-0.3897552,0.9204559,1.0,-0.0406189,-0.4026794,0.9144287,-25.87213,-1.358795,-19.38853,5.388382,0.3284989,0.6005936,1.0,0.07778931,-0.3794861,0.9219055,34.5927,-3.034836,-22.28172,4.619476000000001,0.4271125,0.6661369,-1.038339,-48.0765,42.67925,0.4012288,0.3999055999999999,-0.2888196,1.782966,-41.24887,33.57
4,0.02894592,-0.3897552,0.9204559,1.0,-0.0406189,-0.4026794,0.9144287,-25.87213,-1.358795,-19.38853,5.388382,0.3284989,0.6005936,1.0,0.07778931,-0.3794861,0.9219055,34.5927,-3.034836,-22.28172,4.619476000000001,0.4271125,0.6661369,-1.038339,-48.0765,42.67925,0.4012288,0.3999055999999999,-0.2888196,1.782966,-41.24887,33.57
4,0.02894592,-0.3897552,0.9204559,1.0,-0.0406189,-0.4026794,0.9144287,-25.87213,-1.358795,-19.38853,5.388382,0.3284989,0.6005936,1.0,0.07778931,-0.3794861,0.9219055,34.5927,-3.034836,-22.28172,4.619476000000001,0.4271125,0.6661369,-1.038339,-48.0765,42.67925,0.4012288,0.3999055999999999,-0.2888196,1.782966,-41.24887,33.57
4,0.02894592,-0.3897552,0.9204559,1.0,-0.0406189,-0.4026794,0.9144287,-25.87213,-1.358795,-19.38853,5.388382,0.3284989,0.6005936,1.0,0.07778931,-0.3794861,0.9219055,34.5927,-3.034836,-22.28172,4.619476000000001,0.4271125,0.6661369,-1.036518,-48.08067,42.68514,0.4149524999999999,0.3884107,-0.2865281,1.782966,-41.24887,33.57
4,0.02894592,-0.3897552,0.9204559,1.0,-0.0406189,-0.4026794,0.9144287,-25.87213,-1.358795,-19.38853,5.388382,0.3284989,0.6005936,1.0,0.07778931,-0.3794861,0.9219055,34.5927,-3.034836,-22.28172,4.619476000000001,0.4271125,0.6661369,-1.036518,-48.08067,42.68514,0.4149524999999999,0.3884107,-0.2865281,1.782966,-41.24887,33.57
4,0.02894592,-0.3897552,0.9204559,1.0,-0.0406189,-0.4026794,0.9144287,-25.87213,-1.358795,-19.38853,5.388382,0.3284989,0.6005936,1.0,0.07778931,-0.3794861,0.9219055,34.5927,-3.034836,-22.28172,4.619476000000001,0.4271125,0.6661369,-1.036518,-48.08067,42.68514,0.4149524999999999,0.3884107,-0.2865281,1.782966,-41.24887,33.57
4,0.02894592,-0.3897552,0.9204559,1.0,-0.0406189,-0.4026794,0.9144287,-25.87213,-1.358795,-19.38853,5.388382,0.3284989,0.6005936,1.0,0.07778931,-0.3794861,0.9219055,34.5927,-3.034836,-22.28172,4.619476000000001,0.4271125,0.6661369,-1.03524,-48.08488,42.6914,0.4278532999999999,0.3758319,-0.2854109,1.782966,-41.24887,33.57
4,0.02894592,-0.3897552,0.9204559,1.0,-0.0406189,-0.4026794,0.9144287,-25.87213,-1.358795,-19.38853,5.388382,0.3284989,0.6005936,1.0,0.07778931,-0.3794861,0.9219055,34.5927,-3.034836,-22.28172,4.619476000000001,0.4271125,0.6661369,-1.03524,-48.08488,42.6914,0.4278532999999999,0.3758319,-0.2854109,1.782966,-41.24887,33.57
4,0.02894592,-0.3897552,0.9204559,1.0,-0.0406189,-0.4026794,0.9144287,-25.87213,-1.358795,-19.38853,5.388382,0.3284989,0.6005936,1.0,0.07778931,-0.3794861,0.9219055,34.5927,-3.034836,-22.28172,4.619476000000001,0.4271125,0.6661369,-1.03524,-48.08488,42.6914,0.4278532999999999,0.3758319,-0.2854109,1.782966,-41.24887,33.57
4,0.1208648999999999,-0.4781189,0.8699341,1.0,0.02476501,-0.4649963,0.8849486999999999,-25.16534,-1.612427,-19.51469,5.5037080000000005,0.2979913,0.6174069000000001,1.0,0.1878662,-0.4845885999999999,0.8543091,34.89203,-3.3576660000000005,-22.423,4.519577,0.4044337,0.691658,-1.034529,-48.08934,42.69803,0.4398448,0.3623847,-0.2843865,1.782966,0.6848907,33.57
4,0.1208648999999999,-0.4781189,0.8699341,1.0,0.02476501,-0.4649963,0.8849486999999999,-25.16534,-1.612427,-19.51469,5.5037080000000005,0.2979913,0.6174069000000001,1.0,0.1878662,-0.4845885999999999,0.8543091,34.89203,-3.3576660000000005,-22.423,4.519577,0.4044337,0.691658,-1.034529,-48.08934,42.69803,0.4398448,0.3623847,-0.2843865,1.782966,0.6848907,33.57
4,0.1208648999999999,-0.4781189,0.8699341,1.0,0.02476501,-0.4649963,0.8849486999999999,-25.16534,-1.612427,-19.51469,5.5037080000000005,0.2979913,0.6174069000000001,1.0,0.1878662,-0.4845885999999999,0.8543091,34.89203,-3.3576660000000005,-22.423,4.519577,0.4044337,0.691658,-1.034529,-48.08934,42.69803,0.4398448,0.3623847,-0.2843865,1.782966,0.6848907,33.57
4,0.1208648999999999,-0.4781189,0.8699341,1.0,0.02476501,-0.4649963,0.8849486999999999,-25.16534,-1.612427,-19.51469,5.5037080000000005,0.2979913,0.6174069000000001,1.0,0.1878662,-0.4845885999999999,0.8543091,34.89203,-3.3576660000000005,-22.423,4.519577,0.4044337,0.691658,-1.034564,-48.09378,42.70498,0.4503911,0.3478845999999999,-0.2849897,1.782966,0.6848907,33.57
4,0.1208648999999999,-0.4781189,0.8699341,1.0,0.02476501,-0.4649963,0.8849486999999999,-25.16534,-1.612427,-19.51469,5.5037080000000005,0.2979913,0.6174069000000001,1.0,0.1878662,-0.4845885999999999,0.8543091,34.89203,-3.3576660000000005,-22.423,4.519577,0.4044337,0.691658,-1.034564,-48.09378,42.70498,0.4503911,0.3478845999999999,-0.2849897,1.782966,0.6848907,33.57
4,0.1208648999999999,-0.4781189,0.8699341,1.0,0.02476501,-0.4649963,0.8849486999999999,-25.16534,-1.612427,-19.51469,5.5037080000000005,0.2979913,0.6174069000000001,1.0,0.1878662,-0.4845885999999999,0.8543091,34.89203,-3.3576660000000005,-22.423,4.519577,0.4044337,0.691658,-1.034564,-48.09378,42.70498,0.4503911,0.3478845999999999,-0.2849897,1.782966,0.6848907,33.57
4,0.1811217999999999,-0.4193573,0.8895569,1.0,0.1208496,-0.420166,0.8993530000000001,-24.63867,-1.828934,-19.65511,5.368423,0.2698410999999999,0.6205811999999999,1.0,0.2563782,-0.4161072,0.8724213,35.73825,-3.630844,-22.65569,4.674469,0.3685553,0.6943429,-1.0352,-48.09785,42.71169,0.4602832999999999,0.3314607,-0.2872455,1.782966,0.6848907,33.57
4,0.1811217999999999,-0.4193573,0.8895569,1.0,0.1208496,-0.420166,0.8993530000000001,-24.63867,-1.828934,-19.65511,5.368423,0.2698410999999999,0.6205811999999999,1.0,0.2563782,-0.4161072,0.8724213,35.73825,-3.630844,-22.65569,4.674469,0.3685553,0.6943429,-1.0352,-48.09785,42.71169,0.4602832999999999,0.3314607,-0.2872455,1.782966,0.6848907,33.57
4,0.1811217999999999,-0.4193573,0.8895569,1.0,0.1208496,-0.420166,0.8993530000000001,-24.63867,-1.828934,-19.65511,5.368423,0.2698410999999999,0.6205811999999999,1.0,0.2563782,-0.4161072,0.8724213,35.73825,-3.630844,-22.65569,4.674469,0.3685553,0.6943429,-1.0352,-48.09785,42.71169,0.4602832999999999,0.3314607,-0.2872455,1.782966,0.6848907,33.57
4,0.1579132,-0.3554382,0.9212494,1.0,0.08874512,-0.3449249,0.9344177,-24.76097,-1.794327,-19.58868,5.542786,0.2779764,0.6096883000000001,1.0,0.2297516,-0.3645477,0.9023895,35.68185,-3.58902,-22.59137,4.677414,0.3738059,0.6856268,-1.036524,-48.10136,42.71846,0.4687229999999999,0.3142475,-0.2880986,1.782966,0.6848907,33.57
4,0.1579132,-0.3554382,0.9212494,1.0,0.08874512,-0.3449249,0.9344177,-24.76097,-1.794327,-19.58868,5.542786,0.2779764,0.6096883000000001,1.0,0.2297516,-0.3645477,0.9023895,35.68185,-3.58902,-22.59137,4.677414,0.3738059,0.6856268,-1.036524,-48.10136,42.71846,0.4687229999999999,0.3142475,-0.2880986,1.782966,0.6848907,33.57
4,0.1579132,-0.3554382,0.9212494,1.0,0.08874512,-0.3449249,0.9344177,-24.76097,-1.794327,-19.58868,5.542786,0.2779764,0.6096883000000001,1.0,0.2297516,-0.3645477,0.9023895,35.68185,-3.58902,-22.59137,4.677414,0.3738059,0.6856268,-1.036524,-48.10136,42.71846,0.4687229999999999,0.3142475,-0.2880986,1.782966,0.6848907,33.57
4,0.124527,-0.3042755,0.944397,1.0,0.05056763,-0.334198,0.9411315999999998,-24.95293,-1.634598,-19.50943,5.486098999999999,0.2886794,0.6024425999999999,1.0,0.1938934,-0.2741241,0.9419403,35.55368,-3.444092,-22.47838,4.858154,0.3824798,0.6685566999999999,-1.037765,-48.10386,42.7248,0.474921,0.2972929,-0.2874261,1.782966,0.6848907,33.57
4,0.124527,-0.3042755,0.944397,1.0,0.05056763,-0.334198,0.9411315999999998,-24.95293,-1.634598,-19.50943,5.486098999999999,0.2886794,0.6024425999999999,1.0,0.1938934,-0.2741241,0.9419403,35.55368,-3.444092,-22.47838,4.858154,0.3824798,0.6685566999999999,-1.037765,-48.10386,42.7248,0.474921,0.2972929,-0.2874261,1.782966,0.6848907,33.57
4,0.124527,-0.3042755,0.944397,1.0,0.05056763,-0.334198,0.9411315999999998,-24.95293,-1.634598,-19.50943,5.486098999999999,0.2886794,0.6024425999999999,1.0,0.1938934,-0.2741241,0.9419403,35.55368,-3.444092,-22.47838,4.858154,0.3824798,0.6685566999999999,-1.037765,-48.10386,42.7248,0.474921,0.2972929,-0.2874261,1.782966,0.6848907,33.57
4,0.1112671,-0.2810974,0.9532013,1.0,0.03034973,-0.3106994999999999,0.9500122,-25.00317,-1.635086,-19.48631,5.304504,0.2925504,0.5994672,1.0,0.1815947999999999,-0.2534027,0.9501495,35.50607,-3.402557,-22.45386,4.9255830000000005,0.385501,0.6644707,-1.039466,-48.10555,42.730540000000005,0.4790854,0.2814939,-0.2873257,1.782966,30.0087,33.57
4,0.1112671,-0.2810974,0.9532013,1.0,0.03034973,-0.3106994999999999,0.9500122,-25.00317,-1.635086,-19.48631,5.304504,0.2925504,0.5994672,1.0,0.1815947999999999,-0.2534027,0.9501495,35.50607,-3.402557,-22.45386,4.9255830000000005,0.385501,0.6644707,-1.039466,-48.10555,42.730540000000005,0.4790854,0.2814939,-0.2873257,1.782966,30.0087,33.57
4,0.1112671,-0.2810974,0.9532013,1.0,0.03034973,-0.3106994999999999,0.9500122,-25.00317,-1.635086,-19.48631,5.304504,0.2925504,0.5994672,1.0,0.1815947999999999,-0.2534027,0.9501495,35.50607,-3.402557,-22.45386,4.9255830000000005,0.385501,0.6644707,-1.039466,-48.10555,42.730540000000005,0.4790854,0.2814939,-0.2873257,1.782966,30.0087,33.57
4,0.02435303,-0.2283325,0.9732666,1.0,-0.05381775,-0.2582397,0.9645690999999998,-25.33591,-1.512192,-19.39363,5.445282,0.312878,0.5887028,1.0,0.08520508,-0.2038727,0.9752655,35.14938,-3.270752,-22.36958,4.771347,0.4082628,0.6534618000000001,-1.042216,-48.1055,42.73948,0.4860877,0.2554111,-0.282886,1.782966,30.0087,33.57
4,0.02435303,-0.2283325,0.9732666,1.0,-0.05381775,-0.2582397,0.9645690999999998,-25.33591,-1.512192,-19.39363,5.445282,0.312878,0.5887028,1.0,0.08520508,-0.2038727,0.9752655,35.14938,-3.270752,-22.36958,4.771347,0.4082628,0.6534618000000001,-1.042216,-48.1055,42.73948,0.4860877,0.2554111,-0.282886,1.782966,30.0087,33.57
4,0.02435303,-0.2283325,0.9732666,1.0,-0.05381775,-0.2582397,0.9645690999999998,-25.33591,-1.512192,-19.39363,5.445282,0.312878,0.5887028,1.0,0.08520508,-0.2038727,0.9752655,35.14938,-3.270752,-22.36958,4.771347,0.4082628,0.6534618000000001,-1.042216,-48.1055,42.73948,0.4860877,0.2554111,-0.282886,1.782966,30.0087,33.57
4,0.02810669,-0.2225952,0.9745026,1.0,-0.06156921,-0.2348938,0.9700623,-25.33337,-1.522461,-19.38803,5.595123,0.3137235,0.5864020999999999,1.0,0.08047485,-0.2145538,0.9733734,35.13377,-3.261429,-22.37334,4.6489720000000005,0.4093759,0.6543806999999999,-1.044813,-48.10536,42.7431,0.4874944,0.2450379,-0.2802668,1.782966,30.0087,33.57
4,0.02810669,-0.2225952,0.9745026,1.0,-0.06156921,-0.2348938,0.9700623,-25.33337,-1.522461,-19.38803,5.595123,0.3137235,0.5864020999999999,1.0,0.08047485,-0.2145538,0.9733734,35.13377,-3.261429,-22.37334,4.6489720000000005,0.4093759,0.6543806999999999,-1.044813,-48.10536,42.7431,0.4874944,0.2450379,-0.2802668,1.782966,30.0087,33.57
4,0.02810669,-0.2225952,0.9745026,1.0,-0.06156921,-0.2348938,0.9700623,-25.33337,-1.522461,-19.38803,5.595123,0.3137235,0.5864020999999999,1.0,0.08047485,-0.2145538,0.9733734,35.13377,-3.261429,-22.37334,4.6489720000000005,0.4093759,0.6543806999999999,-1.044813,-48.10536,42.7431,0.4874944,0.2450379,-0.2802668,1.782966,30.0087,33.57
4,0.1726378999999999,-0.2557678,0.9511871,1.0,0.0952301,-0.2830505,0.9543457,-24.77774,-1.717178,-19.53214,5.488754,0.2781549,0.5994768,1.0,0.2104797,-0.2416534,0.9472504,35.51254,-3.431625,-22.48282,4.954498,0.3819917,0.664395,-1.04598,-48.10405,42.74546,0.4890044,0.2351325,-0.2768179,1.782966,30.0087,33.57
4,0.1726378999999999,-0.2557678,0.9511871,1.0,0.0952301,-0.2830505,0.9543457,-24.77774,-1.717178,-19.53214,5.488754,0.2781549,0.5994768,1.0,0.2104797,-0.2416534,0.9472504,35.51254,-3.431625,-22.48282,4.954498,0.3819917,0.664395,-1.04598,-48.10405,42.74546,0.4890044,0.2351325,-0.2768179,1.782966,30.0087,33.57
