Second,eye_comb_direction_x,eye_comb_direction_y,eye_comb_direction_z,eye_r_openness,eye_r_direction_x,eye_r_direction_y,eye_r_direction_z,eye_r_origin_x,eye_r_origin_y,eye_r_origin_z,eye_r_pupil_diameter,eye_r_pupil_position_x,eye_r_pupil_position_y,eye_l_openness,eye_l_direction_x,eye_l_direction_y,eye_l_direction_z,eye_l_origin_x,eye_l_origin_y,eye_l_origin_z,eye_l_pupil_diameter,eye_l_pupil_position_x,eye_l_pupil_position_y,head_position_x,head_position_y,head_position_z,head_rotation_roll,head_rotation_pitch,head_rotation_yaw,EDA,BVP,TMP
0,-1.0,-1.0,-1.0,0.3449834,0.0,0.0,0.0,-28.01741,5.904433999999999,-17.57797,-1.0,0.3525542,0.3403519,0.3156742,0.0,0.0,0.0,34.71216,5.793472,-18.03418,-1.0,0.5375533,0.3585975,-1.171436,-47.93706,42.55287,-0.08770368,0.6469294,-0.03828048,0.9254013,0.1701519796840286,33.16331523080721
0,-1.0,-1.0,-1.0,0.3449834,0.0,0.0,0.0,-28.01741,5.904433999999999,-17.57797,-1.0,0.3525542,0.3403519,0.3156742,0.0,0.0,0.0,34.71216,5.793472,-18.03418,-1.0,0.5375533,0.3585975,-1.171436,-47.93706,42.55287,-0.08770368,0.6469294,-0.03828048,0.9254013,0.1701519796840286,33.16331523080721
0,-1.0,-1.0,-1.0,0.3449834,0.0,0.0,0.0,-28.01741,5.904433999999999,-17.57797,-1.0,0.3525542,0.3403519,0.3156742,0.0,0.0,0.0,34.71216,5.793472,-18.03418,-1.0,0.5375533,0.3585975,-1.171436,-47.93706,42.55287,-0.08770368,0.6469294,-0.03828048,0.9254013,0.1701519796840286,33.16331523080721
0,-1.0,-1.0,-1.0,0.3449834,0.0,0.0,0.0,-28.01741,5.904433999999999,-17.57797,-1.0,0.3525542,0.3403519,0.3156742,0.0,0.0,0.0,34.71216,5.793472,-18.03418,-1.0,0.5375533,0.3585975,-1.171436,-47.93706,42.55287,-0.08770368,0.6469294,-0.03828048,0.9254013,0.1701519796840286,33.16331523080721
0,-1.0,-1.0,-1.0,0.3748072,0.0,0.0,0.0,-26.957,6.439728,-17.59846,-1.0,0.3274975999999999,0.3357067999999999,0.3786485,0.0,0.0,0.0,34.71216,5.793472,-18.03418,-1.0,0.5695351,0.3454575,-1.171532,-47.93706,42.55299,-0.08762179,0.6468475,-0.03815405,0.9254013,0.1701519796840286,33.16331523080721
0,-1.0,-1.0,-1.0,0.3748072,0.0,0.0,0.0,-26.957,6.439728,-17.59846,-1.0,0.3274975999999999,0.3357067999999999,0.3786485,0.0,0.0,0.0,34.71216,5.793472,-18.03418,-1.0,0.5695351,0.3454575,-1.171532,-47.93706,42.55299,-0.08762179,0.6468475,-0.03815405,0.9254013,0.1701519796840286,33.16331523080721
0,-1.0,-1.0,-1.0,0.3748072,0.0,0.0,0.0,-26.957,6.439728,-17.59846,-1.0,0.3274975999999999,0.3357067999999999,0.3786485,0.0,0.0,0.0,34.71216,5.793472,-18.03418,-1.0,0.5695351,0.3454575,-1.171532,-47.93706,42.55299,-0.08762179,0.6468475,-0.03815405,0.9254013,0.1701519796840286,33.16331523080721
0,-1.0,-1.0,-1.0,0.3748072,0.0,0.0,0.0,-26.957,6.439728,-17.59846,-1.0,0.3274975999999999,0.3357067999999999,0.3786485,0.0,0.0,0.0,34.71216,5.793472,-18.03418,-1.0,0.5695351,0.3454575,-1.171522,-47.93703,42.55299,-0.08764105,0.6467672,-0.03812778,0.9254013,37.10581,33.16331523080721
0,-1.0,-1.0,-1.0,0.3748072,0.0,0.0,0.0,-26.957,6.439728,-17.59846,-1.0,0.3274975999999999,0.3357067999999999,0.3786485,0.0,0.0,0.0,34.71216,5.793472,-18.03418,-1.0,0.5695351,0.3454575,-1.171522,-47.93703,42.55299,-0.08764105,0.6467672,-0.03812778,0.9254013,37.10581,33.16331523080721
0,-1.0,-1.0,-1.0,0.3748072,0.0,0.0,0.0,-26.957,6.439728,-17.59846,-1.0,0.3274975999999999,0.3357067999999999,0.3786485,0.0,0.0,0.0,34.71216,5.793472,-18.03418,-1.0,0.5695351,0.3454575,-1.171522,-47.93703,42.55299,-0.08764105,0.6467672,-0.03812778,0.9254013,37.10581,33.16331523080721
0,-1.0,-1.0,-1.0,0.3748072,0.0,0.0,0.0,-27.83302,4.251801,-17.78548,-1.0,0.3757331,0.3391977,0.3786485,0.0,0.0,0.0,34.71216,5.793472,-18.03418,-1.0,0.5783585,0.3396451,-1.171564,-47.93702,42.55303,-0.08757292,0.6466510999999999,-0.03802466,0.9254013,37.10581,33.16331523080721
0,-1.0,-1.0,-1.0,0.3748072,0.0,0.0,0.0,-27.83302,4.251801,-17.78548,-1.0,0.3757331,0.3391977,0.3786485,0.0,0.0,0.0,34.71216,5.793472,-18.03418,-1.0,0.5783585,0.3396451,-1.171564,-47.93702,42.55303,-0.08757292,0.6466510999999999,-0.03802466,0.9254013,37.10581,33.16331523080721
0,-1.0,-1.0,-1.0,0.3748072,0.0,0.0,0.0,-27.83302,4.251801,-17.78548,-1.0,0.3757331,0.3391977,0.3786485,0.0,0.0,0.0,34.71216,5.793472,-18.03418,-1.0,0.5783585,0.3396451,-1.171564,-47.93702,42.55303,-0.08757292,0.6466510999999999,-0.03802466,0.9254013,37.10581,33.16331523080721
0,-1.0,-1.0,-1.0,0.4395157999999999,0.0,0.0,0.0,-27.80978,6.613144,-17.32703,-1.0,0.28939,0.330805,0.4012034,0.0,0.0,0.0,31.86325,5.83725,-17.80385,-1.0,0.5448729999999999,0.3383199,-1.171594,-47.93706,42.55313,-0.08747201,0.6465753000000001,-0.03800574,0.9254013,37.10581,33.16331523080721
0,-1.0,-1.0,-1.0,0.4395157999999999,0.0,0.0,0.0,-27.80978,6.613144,-17.32703,-1.0,0.28939,0.330805,0.4012034,0.0,0.0,0.0,31.86325,5.83725,-17.80385,-1.0,0.5448729999999999,0.3383199,-1.171594,-47.93706,42.55313,-0.08747201,0.6465753000000001,-0.03800574,0.9254013,37.10581,33.16331523080721
0,-1.0,-1.0,-1.0,0.4395157999999999,0.0,0.0,0.0,-27.80978,6.613144,-17.32703,-1.0,0.28939,0.330805,0.4012034,0.0,0.0,0.0,31.86325,5.83725,-17.80385,-1.0,0.5448729999999999,0.3383199,-1.171594,-47.93706,42.55313,-0.08747201,0.6465753000000001,-0.03800574,0.9254013,37.10581,33.16331523080721
0,-1.0,-1.0,-1.0,0.4395157999999999,0.0,0.0,0.0,-27.80978,6.613144,-17.32703,-1.0,0.28939,0.330805,0.4012034,0.0,0.0,0.0,31.86325,5.83725,-17.80385,-1.0,0.5448729999999999,0.3383199,-1.171741,-47.93714,42.55326,-0.08747963,0.6465133000000001,-0.03792853,0.9254013,37.10581,33.16331523080721
0,-1.0,-1.0,-1.0,0.4395157999999999,0.0,0.0,0.0,-27.80978,6.613144,-17.32703,-1.0,0.28939,0.330805,0.4012034,0.0,0.0,0.0,31.86325,5.83725,-17.80385,-1.0,0.5448729999999999,0.3383199,-1.171741,-47.93714,42.55326,-0.08747963,0.6465133000000001,-0.03792853,0.9254013,37.10581,33.16331523080721
0,-1.0,-1.0,-1.0,0.4395157999999999,0.0,0.0,0.0,-27.80978,6.613144,-17.32703,-1.0,0.28939,0.330805,0.4012034,0.0,0.0,0.0,31.86325,5.83725,-17.80385,-1.0,0.5448729999999999,0.3383199,-1.171741,-47.93714,42.55326,-0.08747963,0.6465133000000001,-0.03792853,0.9254013,37.10581,33.16331523080721
0,-1.0,-1.0,-1.0,0.4395157999999999,0.0,0.0,0.0,-26.16763,6.588608,-17.88431,-1.0,0.2906440999999999,0.3316908,0.4012034,0.0,0.0,0.0,32.68503,6.009384,-17.66936,-1.0,0.4957470999999999,0.3271419,-1.1718959999999998,-47.93721,42.5533,-0.08727035,0.6464177,-0.03780698,0.9254013,37.10581,33.16331523080721
0,-1.0,-1.0,-1.0,0.4395157999999999,0.0,0.0,0.0,-26.16763,6.588608,-17.88431,-1.0,0.2906440999999999,0.3316908,0.4012034,0.0,0.0,0.0,32.68503,6.009384,-17.66936,-1.0,0.4957470999999999,0.3271419,-1.1718959999999998,-47.93721,42.5533,-0.08727035,0.6464177,-0.03780698,0.9254013,37.10581,33.16331523080721
0,-1.0,-1.0,-1.0,0.4395157999999999,0.0,0.0,0.0,-26.16763,6.588608,-17.88431,-1.0,0.2906440999999999,0.3316908,0.4012034,0.0,0.0,0.0,32.68503,6.009384,-17.66936,-1.0,0.4957470999999999,0.3271419,-1.1718959999999998,-47.93721,42.5533,-0.08727035,0.6464177,-0.03780698,0.9254013,37.10581,33.16331523080721
0,-1.0,-1.0,-1.0,0.4812095999999999,0.0,0.0,0.0,-27.87912,7.92775,-17.191670000000002,-1.0,0.3626198,0.3208807,0.4762079000000001,0.0,0.0,0.0,32.515,7.008483999999999,-17.65436,-1.0,0.5401097,0.3288237,-1.171973,-47.93726,42.5533,-0.08724732,0.6464001,-0.03783569,0.9254013,37.10581,33.16331523080721
0,-1.0,-1.0,-1.0,0.4812095999999999,0.0,0.0,0.0,-27.87912,7.92775,-17.191670000000002,-1.0,0.3626198,0.3208807,0.4762079000000001,0.0,0.0,0.0,32.515,7.008483999999999,-17.65436,-1.0,0.5401097,0.3288237,-1.171973,-47.93726,42.5533,-0.08724732,0.6464001,-0.03783569,0.9254013,37.10581,33.16331523080721
0,-1.0,-1.0,-1.0,0.4812095999999999,0.0,0.0,0.0,-27.87912,7.92775,-17.191670000000002,-1.0,0.3626198,0.3208807,0.4762079000000001,0.0,0.0,0.0,32.515,7.008483999999999,-17.65436,-1.0,0.5401097,0.3288237,-1.171973,-47.93726,42.5533,-0.08724732,0.6464001,-0.03783569,0.9254013,37.10581,33.16331523080721
0,-1.0,-1.0,-1.0,0.4899621,0.0,0.0,0.0,-27.93745,7.8974,-17.071579999999997,-1.0,0.3785449,0.2973194,0.5228205,0.0,0.0,0.0,32.59918,6.90007,-17.57454,-1.0,0.50259,0.3188302,-1.1720549999999998,-47.93737,42.55326,-0.08737255,0.646359,-0.03787161,0.9254013,37.10581,33.16331523080721
0,-1.0,-1.0,-1.0,0.4899621,0.0,0.0,0.0,-27.93745,7.8974,-17.071579999999997,-1.0,0.3785449,0.2973194,0.5228205,0.0,0.0,0.0,32.59918,6.90007,-17.57454,-1.0,0.50259,0.3188302,-1.1720549999999998,-47.93737,42.55326,-0.08737255,0.646359,-0.03787161,0.9254013,37.10581,33.16331523080721
0,-1.0,-1.0,-1.0,0.4899621,0.0,0.0,0.0,-27.93745,7.8974,-17.071579999999997,-1.0,0.3785449,0.2973194,0.5228205,0.0,0.0,0.0,32.59918,6.90007,-17.57454,-1.0,0.50259,0.3188302,-1.1720549999999998,-47.93737,42.55326,-0.08737255,0.646359,-0.03787161,0.9254013,37.10581,33.16331523080721
0,-1.0,-1.0,-1.0,0.4899621,0.0,0.0,0.0,-27.93745,7.8974,-17.071579999999997,-1.0,0.3785449,0.2973194,0.5228205,0.0,0.0,0.0,32.59918,6.90007,-17.57454,-1.0,0.50259,0.3188302,-1.172188,-47.93741,42.55324,-0.08737932,0.6464877,-0.03808828,0.9254013,21.17361,33.16331523080721
0,-1.0,-1.0,-1.0,0.4899621,0.0,0.0,0.0,-27.93745,7.8974,-17.071579999999997,-1.0,0.3785449,0.2973194,0.5228205,0.0,0.0,0.0,32.59918,6.90007,-17.57454,-1.0,0.50259,0.3188302,-1.172188,-47.93741,42.55324,-0.08737932,0.6464877,-0.03808828,0.9254013,21.17361,33.16331523080721
0,-1.0,-1.0,-1.0,0.4899621,0.0,0.0,0.0,-27.93745,7.8974,-17.071579999999997,-1.0,0.3785449,0.2973194,0.5228205,0.0,0.0,0.0,32.59918,6.90007,-17.57454,-1.0,0.50259,0.3188302,-1.172188,-47.93741,42.55324,-0.08737932,0.6464877,-0.03808828,0.9254013,21.17361,33.16331523080721
0,-1.0,-1.0,-1.0,0.4899621,0.0,0.0,0.0,-27.93745,7.8974,-17.071579999999997,-1.0,0.3785449,0.2973194,0.5228205,0.0,0.0,0.0,32.59918,6.90007,-17.57454,-1.0,0.50259,0.3188302,-1.172235,-47.93744,42.55323,-0.08742823,0.6465171999999999,-0.03800138,0.9254013,21.17361,33.16331523080721
0,-1.0,-1.0,-1.0,0.4899621,0.0,0.0,0.0,-27.93745,7.8974,-17.071579999999997,-1.0,0.3785449,0.2973194,0.5228205,0.0,0.0,0.0,32.59918,6.90007,-17.57454,-1.0,0.50259,0.3188302,-1.172235,-47.93744,42.55323,-0.08742823,0.6465171999999999,-0.03800138,0.9254013,21.17361,33.16331523080721
0,-1.0,-1.0,-1.0,0.4899621,0.0,0.0,0.0,-27.93745,7.8974,-17.071579999999997,-1.0,0.3785449,0.2973194,0.5228205,0.0,0.0,0.0,32.59918,6.90007,-17.57454,-1.0,0.50259,0.3188302,-1.172235,-47.93744,42.55323,-0.08742823,0.6465171999999999,-0.03800138,0.9254013,21.17361,33.16331523080721
0,-1.0,-1.0,-1.0,0.5547486,0.0,0.0,0.0,-27.721940000000004,7.394547,-17.155260000000002,-1.0,0.3719769,0.2833315,0.5546605,0.0,0.0,0.0,32.57274,6.970825,-18.0869,-1.0,0.5090991,0.3101264999999999,-1.172186,-47.93735,42.55333,-0.08720172,0.64631,-0.03749621,0.9254013,21.17361,33.16331523080721
0,-1.0,-1.0,-1.0,0.5547486,0.0,0.0,0.0,-27.721940000000004,7.394547,-17.155260000000002,-1.0,0.3719769,0.2833315,0.5546605,0.0,0.0,0.0,32.57274,6.970825,-18.0869,-1.0,0.5090991,0.3101264999999999,-1.172186,-47.93735,42.55333,-0.08720172,0.64631,-0.03749621,0.9254013,21.17361,33.16331523080721
0,-1.0,-1.0,-1.0,0.5547486,0.0,0.0,0.0,-27.721940000000004,7.394547,-17.155260000000002,-1.0,0.3719769,0.2833315,0.5546605,0.0,0.0,0.0,32.57274,6.970825,-18.0869,-1.0,0.5090991,0.3101264999999999,-1.172186,-47.93735,42.55333,-0.08720172,0.64631,-0.03749621,0.9254013,21.17361,33.16331523080721
0,0.04692078,-0.03533936,0.9982605,0.7918794,0.04692078,-0.03533936,0.9982605,-28.41232,7.481934,-16.76744,5.005417,0.4037335,0.2603601,0.8465915,0.08122253,-0.1237488,0.9889679,32.6402,6.656464,-17.60718,4.211441000000001,0.4937873,0.2940364,-1.172345,-47.93738,42.5534,-0.0872001,0.6461726999999999,-0.03758373,0.9254013,21.17361,33.16331523080721
0,0.04692078,-0.03533936,0.9982605,0.7918794,0.04692078,-0.03533936,0.9982605,-28.41232,7.481934,-16.76744,5.005417,0.4037335,0.2603601,0.8465915,0.08122253,-0.1237488,0.9889679,32.6402,6.656464,-17.60718,4.211441000000001,0.4937873,0.2940364,-1.172345,-47.93738,42.5534,-0.0872001,0.6461726999999999,-0.03758373,0.9254013,21.17361,33.16331523080721
0,0.04692078,-0.03533936,0.9982605,0.7918794,0.04692078,-0.03533936,0.9982605,-28.41232,7.481934,-16.76744,5.005417,0.4037335,0.2603601,0.8465915,0.08122253,-0.1237488,0.9889679,32.6402,6.656464,-17.60718,4.211441000000001,0.4937873,0.2940364,-1.172345,-47.93738,42.5534,-0.0872001,0.6461726999999999,-0.03758373,0.9254013,21.17361,33.16331523080721
0,0.01849365,-0.08198547,0.99646,0.7918794,0.01849365,-0.08198547,0.99646,-28.43893,7.416367,-16.56709,4.871262000000001,0.4075541,0.266189,0.8465915,0.07394409,-0.03549194,0.9966278,32.64986,6.755447,-17.96809,4.565765,0.4940337,0.2838022,-1.172406,-47.93748,42.55352,-0.08711943,0.6459535,-0.03765577,0.9254013,21.17361,33.16331523080721
0,0.01849365,-0.08198547,0.99646,0.7918794,0.01849365,-0.08198547,0.99646,-28.43893,7.416367,-16.56709,4.871262000000001,0.4075541,0.266189,0.8465915,0.07394409,-0.03549194,0.9966278,32.64986,6.755447,-17.96809,4.565765,0.4940337,0.2838022,-1.172406,-47.93748,42.55352,-0.08711943,0.6459535,-0.03765577,0.9254013,21.17361,33.16331523080721
0,0.01849365,-0.08198547,0.99646,0.7918794,0.01849365,-0.08198547,0.99646,-28.43893,7.416367,-16.56709,4.871262000000001,0.4075541,0.266189,0.8465915,0.07394409,-0.03549194,0.9966278,32.64986,6.755447,-17.96809,4.565765,0.4940337,0.2838022,-1.172406,-47.93748,42.55352,-0.08711943,0.6459535,-0.03765577,0.9254013,21.17361,33.16331523080721
0,-0.004608154,-0.09959412,0.9950104,0.7918794,-0.004608154,-0.09959412,0.9950104,-28.47047,7.40654,-16.526229999999998,4.762192,0.4109313,0.2681781,0.8465915,0.05995178,-0.01725769,0.9980469,32.63742,6.775696000000001,-18.03711,4.7015080000000005,0.4958135,0.2817194,-1.172406,-47.93748,42.55352,-0.08711943,0.6459535,-0.03765577,0.9254013,21.17361,33.16331523080721
0,-0.004608154,-0.09959412,0.9950104,0.7918794,-0.004608154,-0.09959412,0.9950104,-28.47047,7.40654,-16.526229999999998,4.762192,0.4109313,0.2681781,0.8465915,0.05995178,-0.01725769,0.9980469,32.63742,6.775696000000001,-18.03711,4.7015080000000005,0.4958135,0.2817194,-1.172406,-47.93748,42.55352,-0.08711943,0.6459535,-0.03765577,0.9254013,21.17361,33.16331523080721
0,-0.004608154,-0.09959412,0.9950104,0.7918794,-0.004608154,-0.09959412,0.9950104,-28.47047,7.40654,-16.526229999999998,4.762192,0.4109313,0.2681781,0.8465915,0.05995178,-0.01725769,0.9980469,32.63742,6.775696000000001,-18.03711,4.7015080000000005,0.4958135,0.2817194,-1.172406,-47.93748,42.55352,-0.08711943,0.6459535,-0.03765577,0.9254013,21.17361,33.16331523080721
0,-0.004608154,-0.09959412,0.9950104,0.7918794,-0.004608154,-0.09959412,0.9950104,-28.47047,7.40654,-16.526229999999998,4.762192,0.4109313,0.2681781,0.8465915,0.05995178,-0.01725769,0.9980469,32.63742,6.775696000000001,-18.03711,4.7015080000000005,0.4958135,0.2817194,-1.172538,-47.9375,42.553540000000005,-0.0869788,0.6459863,-0.03732768,0.9254013,21.17361,33.16331523080721
0,-0.004608154,-0.09959412,0.9950104,0.7918794,-0.004608154,-0.09959412,0.9950104,-28.47047,7.40654,-16.526229999999998,4.762192,0.4109313,0.2681781,0.8465915,0.05995178,-0.01725769,0.9980469,32.63742,6.775696000000001,-18.03711,4.7015080000000005,0.4958135,0.2817194,-1.172538,-47.9375,42.553540000000005,-0.0869788,0.6459863,-0.03732768,0.9254013,21.17361,33.16331523080721
0,-0.004608154,-0.09959412,0.9950104,0.7918794,-0.004608154,-0.09959412,0.9950104,-28.47047,7.40654,-16.526229999999998,4.762192,0.4109313,0.2681781,0.8465915,0.05995178,-0.01725769,0.9980469,32.63742,6.775696000000001,-18.03711,4.7015080000000005,0.4958135,0.2817194,-1.172538,-47.9375,42.553540000000005,-0.0869788,0.6459863,-0.03732768,0.9254013,21.17361,33.16331523080721
0,-0.004608154,-0.09959412,0.9950104,0.7918794,-0.004608154,-0.09959412,0.9950104,-28.47047,7.40654,-16.526229999999998,4.762192,0.4109313,0.2681781,0.8465915,0.05995178,-0.01725769,0.9980469,32.63742,6.775696000000001,-18.03711,4.7015080000000005,0.4958135,0.2817194,-1.1726299999999998,-47.93744,42.55355,-0.08690472,0.6459059,-0.03721423,0.9254013,-18.39157,33.16331523080721
0,-0.004608154,-0.09959412,0.9950104,0.7918794,-0.004608154,-0.09959412,0.9950104,-28.47047,7.40654,-16.526229999999998,4.762192,0.4109313,0.2681781,0.8465915,0.05995178,-0.01725769,0.9980469,32.63742,6.775696000000001,-18.03711,4.7015080000000005,0.4958135,0.2817194,-1.1726299999999998,-47.93744,42.55355,-0.08690472,0.6459059,-0.03721423,0.9254013,-18.39157,33.16331523080721
0,-0.004608154,-0.09959412,0.9950104,0.7918794,-0.004608154,-0.09959412,0.9950104,-28.47047,7.40654,-16.526229999999998,4.762192,0.4109313,0.2681781,0.8465915,0.05995178,-0.01725769,0.9980469,32.63742,6.775696000000001,-18.03711,4.7015080000000005,0.4958135,0.2817194,-1.1726299999999998,-47.93744,42.55355,-0.08690472,0.6459059,-0.03721423,0.9254013,-18.39157,33.16331523080721
0,0.0790863,-0.006210327,0.9968414,0.9679501,-0.008880615,-0.002670288,0.9999542,-28.65491,7.508911,-17.37831,4.827744,0.4169609,0.2600828,0.9693618,0.08248901,-0.006347656,0.9965668,32.80556,6.7943880000000005,-18.27641,4.207825,0.4884797,0.2811941,-1.172494,-47.93737,42.55351,-0.08702986,0.6458291,-0.03722169,0.9254013,-18.39157,33.16331523080721
0,0.0790863,-0.006210327,0.9968414,0.9679501,-0.008880615,-0.002670288,0.9999542,-28.65491,7.508911,-17.37831,4.827744,0.4169609,0.2600828,0.9693618,0.08248901,-0.006347656,0.9965668,32.80556,6.7943880000000005,-18.27641,4.207825,0.4884797,0.2811941,-1.172494,-47.93737,42.55351,-0.08702986,0.6458291,-0.03722169,0.9254013,-18.39157,33.16331523080721
0,0.0790863,-0.006210327,0.9968414,0.9679501,-0.008880615,-0.002670288,0.9999542,-28.65491,7.508911,-17.37831,4.827744,0.4169609,0.2600828,0.9693618,0.08248901,-0.006347656,0.9965668,32.80556,6.7943880000000005,-18.27641,4.207825,0.4884797,0.2811941,-1.172494,-47.93737,42.55351,-0.08702986,0.6458291,-0.03722169,0.9254013,-18.39157,33.16331523080721
0,0.08468628,-0.008392334,0.9963684000000002,1.0,-0.01502991,0.02656555,0.999527,-28.70171,7.615311,-17.89017,4.748642,0.4188978,0.2568542,1.0,0.08468628,-0.008392334,0.9963684000000002,32.8177,6.766724000000001,-18.17043,4.137009,0.4879338,0.2815725,-1.17256,-47.9374,42.55352,-0.08699173,0.6457935,-0.03722994,0.9254013,-18.39157,33.16331523080721
0,0.08468628,-0.008392334,0.9963684000000002,1.0,-0.01502991,0.02656555,0.999527,-28.70171,7.615311,-17.89017,4.748642,0.4188978,0.2568542,1.0,0.08468628,-0.008392334,0.9963684000000002,32.8177,6.766724000000001,-18.17043,4.137009,0.4879338,0.2815725,-1.17256,-47.9374,42.55352,-0.08699173,0.6457935,-0.03722994,0.9254013,-18.39157,33.16331523080721
0,0.08468628,-0.008392334,0.9963684000000002,1.0,-0.01502991,0.02656555,0.999527,-28.70171,7.615311,-17.89017,4.748642,0.4188978,0.2568542,1.0,0.08468628,-0.008392334,0.9963684000000002,32.8177,6.766724000000001,-18.17043,4.137009,0.4879338,0.2815725,-1.17256,-47.9374,42.55352,-0.08699173,0.6457935,-0.03722994,0.9254013,-18.39157,33.16331523080721
0,0.0843811,-0.008666992,0.9963837,1.0,-0.0123290999999999,0.02705383,0.9995575,-28.71034,7.604202000000001,-17.84233,4.750381,0.4188978,0.2568542,1.0,0.08442688,-0.008682251,0.9963837,32.81863,6.773331,-18.17043,4.136948,0.4879338,0.2813954999999999,-1.172428,-47.93741,42.55344,-0.08691934,0.6458651999999999,-0.03716044,0.9254013,-18.39157,33.16331523080721
0,0.0843811,-0.008666992,0.9963837,1.0,-0.0123290999999999,0.02705383,0.9995575,-28.71034,7.604202000000001,-17.84233,4.750381,0.4188978,0.2568542,1.0,0.08442688,-0.008682251,0.9963837,32.81863,6.773331,-18.17043,4.136948,0.4879338,0.2813954999999999,-1.172428,-47.93741,42.55344,-0.08691934,0.6458651999999999,-0.03716044,0.9254013,-18.39157,33.16331523080721
0,0.0843811,-0.008666992,0.9963837,1.0,-0.0123290999999999,0.02705383,0.9995575,-28.71034,7.604202000000001,-17.84233,4.750381,0.4188978,0.2568542,1.0,0.08442688,-0.008682251,0.9963837,32.81863,6.773331,-18.17043,4.136948,0.4879338,0.2813954999999999,-1.172428,-47.93741,42.55344,-0.08691934,0.6458651999999999,-0.03716044,0.9254013,-18.39157,33.16331523080721
0,0.0843811,-0.008666992,0.9963837,1.0,-0.0123290999999999,0.02705383,0.9995575,-28.71034,7.604202000000001,-17.84233,4.750381,0.4188978,0.2568542,1.0,0.08442688,-0.008682251,0.9963837,32.81863,6.773331,-18.17043,4.136948,0.4879338,0.2813954999999999,-1.172279,-47.93741,42.55347,-0.08691297,0.6459756999999999,-0.03767896,0.9254013,-18.39157,33.16331523080721
0,0.0843811,-0.008666992,0.9963837,1.0,-0.0123290999999999,0.02705383,0.9995575,-28.71034,7.604202000000001,-17.84233,4.750381,0.4188978,0.2568542,1.0,0.08442688,-0.008682251,0.9963837,32.81863,6.773331,-18.17043,4.136948,0.4879338,0.2813954999999999,-1.172279,-47.93741,42.55347,-0.08691297,0.6459756999999999,-0.03767896,0.9254013,-18.39157,33.16331523080721
0,0.0843811,-0.008666992,0.9963837,1.0,-0.0123290999999999,0.02705383,0.9995575,-28.71034,7.604202000000001,-17.84233,4.750381,0.4188978,0.2568542,1.0,0.08442688,-0.008682251,0.9963837,32.81863,6.773331,-18.17043,4.136948,0.4879338,0.2813954999999999,-1.172279,-47.93741,42.55347,-0.08691297,0.6459756999999999,-0.03767896,0.9254013,-18.39157,33.16331523080721
0,0.08348083,-0.006286621,0.9964752,1.0,-0.01260376,0.02787781,0.999527,-28.718770000000003,7.610489,-17.89017,4.671112,0.4191345999999999,0.2568542,1.0,0.08506775,-0.0068511959999999,0.9963379,32.8177,6.780624,-18.18022,4.077042,0.4879338,0.2810005,-1.172137,-47.93729,42.55346,-0.0868323999999999,0.6459760999999999,-0.03739583,0.9254013,-69.5535,33.16331523080721
0,0.08348083,-0.006286621,0.9964752,1.0,-0.01260376,0.02787781,0.999527,-28.718770000000003,7.610489,-17.89017,4.671112,0.4191345999999999,0.2568542,1.0,0.08506775,-0.0068511959999999,0.9963379,32.8177,6.780624,-18.18022,4.077042,0.4879338,0.2810005,-1.172137,-47.93729,42.55346,-0.0868323999999999,0.6459760999999999,-0.03739583,0.9254013,-69.5535,33.16331523080721
0,0.08348083,-0.006286621,0.9964752,1.0,-0.01260376,0.02787781,0.999527,-28.718770000000003,7.610489,-17.89017,4.671112,0.4191345999999999,0.2568542,1.0,0.08506775,-0.0068511959999999,0.9963379,32.8177,6.780624,-18.18022,4.077042,0.4879338,0.2810005,-1.172137,-47.93729,42.55346,-0.0868323999999999,0.6459760999999999,-0.03739583,0.9254013,-69.5535,33.16331523080721
0,0.003814697,0.03181458,0.9994812,1.0,-0.005844116,0.03318787,0.9994202,-28.81053,7.608673,-17.97931,4.210526,0.421008,0.2567927,1.0,0.07572937,0.02159119,0.9968872,32.7897,6.868850999999999,-18.62067,3.714615,0.4900053,0.2777677,-1.1719469999999998,-47.93719,42.55348,-0.08694308,0.6458958,-0.03734145,0.9254013,-69.5535,33.16331523080721
0,0.003814697,0.03181458,0.9994812,1.0,-0.005844116,0.03318787,0.9994202,-28.81053,7.608673,-17.97931,4.210526,0.421008,0.2567927,1.0,0.07572937,0.02159119,0.9968872,32.7897,6.868850999999999,-18.62067,3.714615,0.4900053,0.2777677,-1.1719469999999998,-47.93719,42.55348,-0.08694308,0.6458958,-0.03734145,0.9254013,-69.5535,33.16331523080721
0,0.003814697,0.03181458,0.9994812,1.0,-0.005844116,0.03318787,0.9994202,-28.81053,7.608673,-17.97931,4.210526,0.421008,0.2567927,1.0,0.07572937,0.02159119,0.9968872,32.7897,6.868850999999999,-18.62067,3.714615,0.4900053,0.2777677,-1.1719469999999998,-47.93719,42.55348,-0.08694308,0.6458958,-0.03734145,0.9254013,-69.5535,33.16331523080721
0,0.05134583,0.0201416,0.9984741,1.0,-0.01005554,0.007568359,0.9999084,-28.83122,7.758698,-18.34436,4.063873,0.4219274,0.2571118,1.0,0.05786133,0.02146912,0.9980927,32.78773,6.877441,-18.6515,3.716782,0.4920079,0.2777323,-1.171863,-47.93721,42.55353,-0.0867526,0.645848,-0.03742998,0.9254013,-69.5535,33.16331523080721
0,0.05134583,0.0201416,0.9984741,1.0,-0.01005554,0.007568359,0.9999084,-28.83122,7.758698,-18.34436,4.063873,0.4219274,0.2571118,1.0,0.05786133,0.02146912,0.9980927,32.78773,6.877441,-18.6515,3.716782,0.4920079,0.2777323,-1.171863,-47.93721,42.55353,-0.0867526,0.645848,-0.03742998,0.9254013,-69.5535,33.16331523080721
0,0.05134583,0.0201416,0.9984741,1.0,-0.01005554,0.007568359,0.9999084,-28.83122,7.758698,-18.34436,4.063873,0.4219274,0.2571118,1.0,0.05786133,0.02146912,0.9980927,32.78773,6.877441,-18.6515,3.716782,0.4920079,0.2777323,-1.171863,-47.93721,42.55353,-0.0867526,0.645848,-0.03742998,0.9254013,-69.5535,33.16331523080721
0,0.02746582,0.05838013,0.9979095,1.0,-0.06666565,0.1341248,0.9887085,-29.13655,8.437103,-19.67372,3.891495,0.4373952999999999,0.2293371,1.0,0.02885437,0.05725098,0.9979401,32.42007,7.644409,-19.89362,3.646423,0.5067708,0.2571246,-1.171982,-47.93743,42.55348,-0.08682154,0.6459973000000001,-0.03781634,0.9254013,-69.5535,33.16331523080721
0,0.02746582,0.05838013,0.9979095,1.0,-0.06666565,0.1341248,0.9887085,-29.13655,8.437103,-19.67372,3.891495,0.4373952999999999,0.2293371,1.0,0.02885437,0.05725098,0.9979401,32.42007,7.644409,-19.89362,3.646423,0.5067708,0.2571246,-1.171982,-47.93743,42.55348,-0.08682154,0.6459973000000001,-0.03781634,0.9254013,-69.5535,33.16331523080721
0,0.02746582,0.05838013,0.9979095,1.0,-0.06666565,0.1341248,0.9887085,-29.13655,8.437103,-19.67372,3.891495,0.4373952999999999,0.2293371,1.0,0.02885437,0.05725098,0.9979401,32.42007,7.644409,-19.89362,3.646423,0.5067708,0.2571246,-1.171982,-47.93743,42.55348,-0.08682154,0.6459973000000001,-0.03781634,0.9254013,-69.5535,33.16331523080721
1,0.01834106,0.08656311,0.9960632,1.0,-0.04785156,0.1270599,0.9907379,-29.19315,8.412369,-19.51985,3.905823,0.4371502,0.2298996,1.0,0.02088928,0.08499146,0.9961548,32.419270000000004,7.627853,-19.61011,3.49913,0.5078467999999999,0.2528728999999999,-1.172075,-47.93753,42.55348,-0.08689687,0.6462073,-0.03792293,0.9254013,-69.5535,33.16331523080721
1,0.01834106,0.08656311,0.9960632,1.0,-0.04785156,0.1270599,0.9907379,-29.19315,8.412369,-19.51985,3.905823,0.4371502,0.2298996,1.0,0.02088928,0.08499146,0.9961548,32.419270000000004,7.627853,-19.61011,3.49913,0.5078467999999999,0.2528728999999999,-1.172075,-47.93753,42.55348,-0.08689687,0.6462073,-0.03792293,0.9254013,-69.5535,33.16331523080721
1,0.01834106,0.08656311,0.9960632,1.0,-0.04785156,0.1270599,0.9907379,-29.19315,8.412369,-19.51985,3.905823,0.4371502,0.2298996,1.0,0.02088928,0.08499146,0.9961548,32.419270000000004,7.627853,-19.61011,3.49913,0.5078467999999999,0.2528728999999999,-1.172075,-47.93753,42.55348,-0.08689687,0.6462073,-0.03792293,0.9254013,-69.5535,33.16331523080721
1,-0.01277161,0.09945679,0.9949493,1.0,-0.05732727,0.1217041,0.9909058,-29.17563,8.41008,-19.48294,3.838211,0.4376130999999999,0.2303498999999999,1.0,0.01495361,0.08551025,0.9962158,32.41733,7.622619999999999,-19.62759,3.524628,0.5085394,0.2531058,-1.17206,-47.93746,42.55344,-0.08705287,0.6462629,-0.03790268,0.9254013,-73.34637,33.16331523080721
1,-0.01277161,0.09945679,0.9949493,1.0,-0.05732727,0.1217041,0.9909058,-29.17563,8.41008,-19.48294,3.838211,0.4376130999999999,0.2303498999999999,1.0,0.01495361,0.08551025,0.9962158,32.41733,7.622619999999999,-19.62759,3.524628,0.5085394,0.2531058,-1.17206,-47.93746,42.55344,-0.08705287,0.6462629,-0.03790268,0.9254013,-73.75594,33.16331523080721
1,-0.01277161,0.09945679,0.9949493,1.0,-0.05732727,0.1217041,0.9909058,-29.17563,8.41008,-19.48294,3.838211,0.4376130999999999,0.2303498999999999,1.0,0.01495361,0.08551025,0.9962158,32.41733,7.622619999999999,-19.62759,3.524628,0.5085394,0.2531058,-1.17206,-47.93746,42.55344,-0.08705287,0.6462629,-0.03790268,0.9254013,-70.13097,33.16331523080721
1,-0.01486206,0.103775,0.9944763,1.0,-0.06219482,0.1285248,0.9897461,-29.173340000000003,8.404221000000001,-19.47386,3.807999,0.4380643,0.2296965,1.0,0.01254272,0.08929443,0.9959106,32.41898,7.613235,-19.61116,3.526993,0.5087533,0.2528936,-1.171973,-47.93739,42.55344,-0.08705188,0.6461585,-0.03777144,0.9254013,8.285564,33.16331523080721
1,-0.01486206,0.103775,0.9944763,1.0,-0.06219482,0.1285248,0.9897461,-29.173340000000003,8.404221000000001,-19.47386,3.807999,0.4380643,0.2296965,1.0,0.01254272,0.08929443,0.9959106,32.41898,7.613235,-19.61116,3.526993,0.5087533,0.2528936,-1.171973,-47.93739,42.55344,-0.08705188,0.6461585,-0.03777144,0.9254013,8.285564,33.16331523080721
1,-0.01486206,0.103775,0.9944763,1.0,-0.06219482,0.1285248,0.9897461,-29.173340000000003,8.404221000000001,-19.47386,3.807999,0.4380643,0.2296965,1.0,0.01254272,0.08929443,0.9959106,32.41898,7.613235,-19.61116,3.526993,0.5087533,0.2528936,-1.171973,-47.93739,42.55344,-0.08705188,0.6461585,-0.03777144,0.9254013,8.285564,33.16331523080721
1,-1.0,-1.0,-1.0,0.3711335999999999,0.0,0.0,0.0,-28.30615,6.223648000000001,-18.91013,-1.0,0.3947047999999999,0.3408786,0.3998897,0.0,0.0,0.0,31.31169,5.979202,-19.22624,-1.0,0.5331714,0.349355,-1.171818,-47.93738,42.55345,-0.0870021999999999,0.6461989,-0.03789123,0.9254013,8.285564,33.16331523080721
1,-1.0,-1.0,-1.0,0.3711335999999999,0.0,0.0,0.0,-28.30615,6.223648000000001,-18.91013,-1.0,0.3947047999999999,0.3408786,0.3998897,0.0,0.0,0.0,31.31169,5.979202,-19.22624,-1.0,0.5331714,0.349355,-1.171818,-47.93738,42.55345,-0.0870021999999999,0.6461989,-0.03789123,0.9254013,8.285564,33.16331523080721
1,-1.0,-1.0,-1.0,0.3711335999999999,0.0,0.0,0.0,-28.30615,6.223648000000001,-18.91013,-1.0,0.3947047999999999,0.3408786,0.3998897,0.0,0.0,0.0,31.31169,5.979202,-19.22624,-1.0,0.5331714,0.349355,-1.171818,-47.93738,42.55345,-0.0870021999999999,0.6461989,-0.03789123,0.9254013,8.285564,33.16331523080721
1,-1.0,-1.0,-1.0,0.1881648,0.0,0.0,0.0,-28.992490000000004,5.813141000000001,-18.99002,-1.0,0.4603191,0.4146769,0.1724029,0.0,0.0,0.0,31.90295,5.035004,-19.34195,-1.0,0.512266,0.4231385,-1.171884,-47.9374,42.55328,-0.0869486,0.6462954000000001,-0.03794581,0.9254013,8.285564,33.16331523080721
1,-1.0,-1.0,-1.0,0.1881648,0.0,0.0,0.0,-28.992490000000004,5.813141000000001,-18.99002,-1.0,0.4603191,0.4146769,0.1724029,0.0,0.0,0.0,31.90295,5.035004,-19.34195,-1.0,0.512266,0.4231385,-1.171884,-47.9374,42.55328,-0.0869486,0.6462954000000001,-0.03794581,0.9254013,8.285564,33.16331523080721
1,-1.0,-1.0,-1.0,0.1881648,0.0,0.0,0.0,-28.992490000000004,5.813141000000001,-18.99002,-1.0,0.4603191,0.4146769,0.1724029,0.0,0.0,0.0,31.90295,5.035004,-19.34195,-1.0,0.512266,0.4231385,-1.171884,-47.9374,42.55328,-0.0869486,0.6462954000000001,-0.03794581,0.9254013,8.285564,33.16331523080721
1,-1.0,-1.0,-1.0,0.1882385,0.0,0.0,0.0,-30.5807,4.751494999999999,-19.75928,-1.0,0.7956394,0.4970271,0.1502326,0.0,0.0,0.0,31.90295,5.035004,-19.34195,-1.0,0.5797374,0.3876476,-1.171834,-47.9374,42.55321,-0.0869104,0.6462614999999999,-0.03808843,0.9254013,8.285564,33.16331523080721
1,-1.0,-1.0,-1.0,0.1882385,0.0,0.0,0.0,-30.5807,4.751494999999999,-19.75928,-1.0,0.7956394,0.4970271,0.1502326,0.0,0.0,0.0,31.90295,5.035004,-19.34195,-1.0,0.5797374,0.3876476,-1.171834,-47.9374,42.55321,-0.0869104,0.6462614999999999,-0.03808843,0.9254013,8.285564,33.16331523080721
1,-1.0,-1.0,-1.0,0.1882385,0.0,0.0,0.0,-30.5807,4.751494999999999,-19.75928,-1.0,0.7956394,0.4970271,0.1502326,0.0,0.0,0.0,31.90295,5.035004,-19.34195,-1.0,0.5797374,0.3876476,-1.171834,-47.9374,42.55321,-0.0869104,0.6462614999999999,-0.03808843,0.9254013,8.285564,33.16331523080721
1,-1.0,-1.0,-1.0,0.1755987,0.0,0.0,0.0,-27.91188,6.425507,-19.80051,-1.0,0.4078448,0.3266932,0.2305663999999999,0.0,0.0,0.0,32.503170000000004,5.546921,-19.11371,-1.0,0.5086752,0.3394640999999999,-1.171409,-47.93714,42.5532,-0.08700773,0.6462855,-0.03809195,0.9254013,45.90142,33.16331523080721
1,-1.0,-1.0,-1.0,0.1755987,0.0,0.0,0.0,-27.91188,6.425507,-19.80051,-1.0,0.4078448,0.3266932,0.2305663999999999,0.0,0.0,0.0,32.503170000000004,5.546921,-19.11371,-1.0,0.5086752,0.3394640999999999,-1.171409,-47.93714,42.5532,-0.08700773,0.6462855,-0.03809195,0.9254013,45.90142,33.16331523080721
1,-1.0,-1.0,-1.0,0.1755987,0.0,0.0,0.0,-27.91188,6.425507,-19.80051,-1.0,0.4078448,0.3266932,0.2305663999999999,0.0,0.0,0.0,32.503170000000004,5.546921,-19.11371,-1.0,0.5086752,0.3394640999999999,-1.171409,-47.93714,42.5532,-0.08700773,0.6462855,-0.03809195,0.9254013,45.90142,33.16331523080721
1,-1.0,-1.0,-1.0,0.3477446,0.0,0.0,0.0,-27.26135,7.007308999999999,-17.71872,-1.0,0.3874505,0.3056264999999999,0.390715,0.0,0.0,0.0,31.74451,6.030075,-22.54324,-1.0,0.4996617,0.3220054,-1.171409,-47.93714,42.5532,-0.08700773,0.6462855,-0.03809195,0.9254013,45.90142,33.16331523080721
1,-1.0,-1.0,-1.0,0.3477446,0.0,0.0,0.0,-27.26135,7.007308999999999,-17.71872,-1.0,0.3874505,0.3056264999999999,0.390715,0.0,0.0,0.0,31.74451,6.030075,-22.54324,-1.0,0.4996617,0.3220054,-1.171409,-47.93714,42.5532,-0.08700773,0.6462855,-0.03809195,0.9254013,45.90142,33.16331523080721
1,-1.0,-1.0,-1.0,0.3477446,0.0,0.0,0.0,-27.26135,7.007308999999999,-17.71872,-1.0,0.3874505,0.3056264999999999,0.390715,0.0,0.0,0.0,31.74451,6.030075,-22.54324,-1.0,0.4996617,0.3220054,-1.171409,-47.93714,42.5532,-0.08700773,0.6462855,-0.03809195,0.9254013,45.90142,33.16331523080721
1,-1.0,-1.0,-1.0,0.4497976999999999,0.0,0.0,0.0,-26.9301,6.388808999999999,-19.02019,-1.0,0.3537283,0.3008032,0.4305044,0.0,0.0,0.0,34.65372,6.154099,-19.30624,-1.0,0.392726,0.3241464,-1.171319,-47.937090000000005,42.55325,-0.08694638,0.6463675,-0.03807048,0.9254013,45.90142,33.16331523080721
1,-1.0,-1.0,-1.0,0.4497976999999999,0.0,0.0,0.0,-26.9301,6.388808999999999,-19.02019,-1.0,0.3537283,0.3008032,0.4305044,0.0,0.0,0.0,34.65372,6.154099,-19.30624,-1.0,0.392726,0.3241464,-1.171319,-47.937090000000005,42.55325,-0.08694638,0.6463675,-0.03807048,0.9254013,45.90142,33.16331523080721
1,-1.0,-1.0,-1.0,0.4497976999999999,0.0,0.0,0.0,-26.9301,6.388808999999999,-19.02019,-1.0,0.3537283,0.3008032,0.4305044,0.0,0.0,0.0,34.65372,6.154099,-19.30624,-1.0,0.392726,0.3241464,-1.171319,-47.937090000000005,42.55325,-0.08694638,0.6463675,-0.03807048,0.9254013,45.90142,33.16331523080721
1,-1.0,-1.0,-1.0,0.6175969,0.0,0.0,0.0,-28.17227,6.521271,-19.34135,-1.0,0.3183279,0.2928975,0.6121816999999999,0.0,0.0,0.0,33.07045,8.06073,-24.41211,-1.0,0.4813297,0.3253719,-1.171191,-47.93706,42.55318,-0.08690774,0.6464784,-0.0381745999999999,0.9254013,45.90142,33.16331523080721
1,-1.0,-1.0,-1.0,0.6175969,0.0,0.0,0.0,-28.17227,6.521271,-19.34135,-1.0,0.3183279,0.2928975,0.6121816999999999,0.0,0.0,0.0,33.07045,8.06073,-24.41211,-1.0,0.4813297,0.3253719,-1.171191,-47.93706,42.55318,-0.08690774,0.6464784,-0.0381745999999999,0.9254013,45.90142,33.16331523080721
1,-1.0,-1.0,-1.0,0.6175969,0.0,0.0,0.0,-28.17227,6.521271,-19.34135,-1.0,0.3183279,0.2928975,0.6121816999999999,0.0,0.0,0.0,33.07045,8.06073,-24.41211,-1.0,0.4813297,0.3253719,-1.171191,-47.93706,42.55318,-0.08690774,0.6464784,-0.0381745999999999,0.9254013,45.90142,33.16331523080721
1,0.2086487,0.1086121,0.9719391,0.8299504000000001,0.0,0.0,0.0,-28.03337,9.011215,-18.90535,-1.0,0.3798767,0.2075712,0.8020035,0.2086487,0.1086121,0.9719391,33.385670000000005,7.998016000000001,-18.6906,2.761703,0.4573424,0.2321411,-1.171069,-47.9371,42.55316,-0.08696342,0.6464877,-0.03823705,0.9254013,45.90142,33.16331523080721
1,0.2086487,0.1086121,0.9719391,0.8299504000000001,0.0,0.0,0.0,-28.03337,9.011215,-18.90535,-1.0,0.3798767,0.2075712,0.8020035,0.2086487,0.1086121,0.9719391,33.385670000000005,7.998016000000001,-18.6906,2.761703,0.4573424,0.2321411,-1.171069,-47.9371,42.55316,-0.08696342,0.6464877,-0.03823705,0.9254013,45.90142,33.16331523080721
1,0.2086487,0.1086121,0.9719391,0.8299504000000001,0.0,0.0,0.0,-28.03337,9.011215,-18.90535,-1.0,0.3798767,0.2075712,0.8020035,0.2086487,0.1086121,0.9719391,33.385670000000005,7.998016000000001,-18.6906,2.761703,0.4573424,0.2321411,-1.171069,-47.9371,42.55316,-0.08696342,0.6464877,-0.03823705,0.9254013,45.90142,33.16331523080721
1,0.1274719,0.219223,0.9673004,0.9515319,0.1274719,0.219223,0.9673004,-28.011470000000003,9.017609,-18.99533,3.5900730000000003,0.3794535,0.1953499,0.9438847,0.2277679,0.1507262999999999,0.9619751,33.40965,7.991287,-18.88504,2.966812,0.4542195,0.2288895,-1.170948,-47.93705,42.55327,-0.08686356,0.6464785,-0.03826763,0.9254013,30.27142,33.16331523080721
1,0.1274719,0.219223,0.9673004,0.9515319,0.1274719,0.219223,0.9673004,-28.011470000000003,9.017609,-18.99533,3.5900730000000003,0.3794535,0.1953499,0.9438847,0.2277679,0.1507262999999999,0.9619751,33.40965,7.991287,-18.88504,2.966812,0.4542195,0.2288895,-1.170948,-47.93705,42.55327,-0.08686356,0.6464785,-0.03826763,0.9254013,30.27142,33.16331523080721
1,0.1274719,0.219223,0.9673004,0.9515319,0.1274719,0.219223,0.9673004,-28.011470000000003,9.017609,-18.99533,3.5900730000000003,0.3794535,0.1953499,0.9438847,0.2277679,0.1507262999999999,0.9619751,33.40965,7.991287,-18.88504,2.966812,0.4542195,0.2288895,-1.170948,-47.93705,42.55327,-0.08686356,0.6464785,-0.03826763,0.9254013,30.27142,33.16331523080721
1,0.2044677999999999,0.1995392,0.958313,1.0,0.1378174,0.1808929,0.9737854,-27.74316,8.860046,-18.97829,3.279633,0.3694609,0.2044426,1.0,0.293457,0.2232971,0.9295197,33.63753,7.899947999999999,-19.006,3.103928,0.4393375,0.2244794,-1.170884,-47.93704,42.5533,-0.08700377,0.6465034000000001,-0.03849708,0.9254013,30.27142,33.16331523080721
1,0.2044677999999999,0.1995392,0.958313,1.0,0.1378174,0.1808929,0.9737854,-27.74316,8.860046,-18.97829,3.279633,0.3694609,0.2044426,1.0,0.293457,0.2232971,0.9295197,33.63753,7.899947999999999,-19.006,3.103928,0.4393375,0.2244794,-1.170884,-47.93704,42.5533,-0.08700377,0.6465034000000001,-0.03849708,0.9254013,30.27142,33.16331523080721
1,0.2044677999999999,0.1995392,0.958313,1.0,0.1378174,0.1808929,0.9737854,-27.74316,8.860046,-18.97829,3.279633,0.3694609,0.2044426,1.0,0.293457,0.2232971,0.9295197,33.63753,7.899947999999999,-19.006,3.103928,0.4393375,0.2244794,-1.170884,-47.93704,42.5533,-0.08700377,0.6465034000000001,-0.03849708,0.9254013,30.27142,33.16331523080721
1,0.2185058999999999,0.2004395,0.9550171,1.0,0.163208,0.1464844,0.975647,-27.61108,8.830627,-18.9772,3.115784,0.362215,0.2091467,1.0,0.2594604,0.2404327,0.9353333,33.75946,7.878067,-19.01463,3.100357,0.4394119000000001,0.2232031,-1.170841,-47.93692,42.55329,-0.08690257,0.6465816,-0.0384751999999999,0.9164325,30.27142,33.16331523080721
1,0.2185058999999999,0.2004395,0.9550171,1.0,0.163208,0.1464844,0.975647,-27.61108,8.830627,-18.9772,3.115784,0.362215,0.2091467,1.0,0.2594604,0.2404327,0.9353333,33.75946,7.878067,-19.01463,3.100357,0.4394119000000001,0.2232031,-1.170841,-47.93692,42.55329,-0.08690257,0.6465816,-0.0384751999999999,0.9164325,30.27142,33.16331523080721
1,0.2185058999999999,0.2004395,0.9550171,1.0,0.163208,0.1464844,0.975647,-27.61108,8.830627,-18.9772,3.115784,0.362215,0.2091467,1.0,0.2594604,0.2404327,0.9353333,33.75946,7.878067,-19.01463,3.100357,0.4394119000000001,0.2232031,-1.170841,-47.93692,42.55329,-0.08690257,0.6465816,-0.0384751999999999,0.9164325,30.27142,33.16331523080721
1,0.25354,0.2166748,0.9427338,1.0,0.1772461,0.1917419,0.9653015,-27.58121,8.786743,-19.01707,3.211777,0.3596281,0.2056516,1.0,0.2945251,0.2296752999999999,0.9276276,33.6694,7.800858,-19.00238,2.990082,0.4382196,0.2267813,-1.1708040000000002,-47.93707,42.55328,-0.08692161,0.6463698,-0.03823822,0.9164325,30.27142,33.16331523080721
1,0.25354,0.2166748,0.9427338,1.0,0.1772461,0.1917419,0.9653015,-27.58121,8.786743,-19.01707,3.211777,0.3596281,0.2056516,1.0,0.2945251,0.2296752999999999,0.9276276,33.6694,7.800858,-19.00238,2.990082,0.4382196,0.2267813,-1.1708040000000002,-47.93707,42.55328,-0.08692161,0.6463698,-0.03823822,0.9164325,30.27142,33.16331523080721
1,0.25354,0.2166748,0.9427338,1.0,0.1772461,0.1917419,0.9653015,-27.58121,8.786743,-19.01707,3.211777,0.3596281,0.2056516,1.0,0.2945251,0.2296752999999999,0.9276276,33.6694,7.800858,-19.00238,2.990082,0.4382196,0.2267813,-1.1708040000000002,-47.93707,42.55328,-0.08692161,0.6463698,-0.03823822,0.9164325,30.27142,33.16331523080721
1,-1.0,-1.0,-1.0,1.0,0.0,0.0,0.0,-27.53957,8.799636999999999,-18.92783,-1.0,0.3582317,0.2198396,1.0,0.0,0.0,0.0,33.75656,7.909683,-18.93199,-1.0,0.4336354,0.2363481,-1.170683,-47.93713,42.55333,-0.0869603,0.6463064000000001,-0.03847646,0.9164325,-3.418793,33.16331523080721
1,-1.0,-1.0,-1.0,1.0,0.0,0.0,0.0,-27.53957,8.799636999999999,-18.92783,-1.0,0.3582317,0.2198396,1.0,0.0,0.0,0.0,33.75656,7.909683,-18.93199,-1.0,0.4336354,0.2363481,-1.170683,-47.93713,42.55333,-0.0869603,0.6463064000000001,-0.03847646,0.9164325,-3.418793,33.16331523080721
1,-1.0,-1.0,-1.0,1.0,0.0,0.0,0.0,-27.53957,8.799636999999999,-18.92783,-1.0,0.3582317,0.2198396,1.0,0.0,0.0,0.0,33.75656,7.909683,-18.93199,-1.0,0.4336354,0.2363481,-1.170683,-47.93713,42.55333,-0.0869603,0.6463064000000001,-0.03847646,0.9164325,-3.418793,33.16331523080721
1,-1.0,-1.0,-1.0,0.451196,0.0,0.0,0.0,-28.30602,7.206955000000001,-18.93262,-1.0,0.37205,0.3352997,0.465708,0.0,0.0,0.0,33.96161,5.741867,-18.99631,-1.0,0.4263744,0.3404225999999999,-1.170718,-47.93718,42.55321,-0.08684104,0.6463247,-0.03844062,0.9164325,-3.418793,33.16331523080721
1,-1.0,-1.0,-1.0,0.451196,0.0,0.0,0.0,-28.30602,7.206955000000001,-18.93262,-1.0,0.37205,0.3352997,0.465708,0.0,0.0,0.0,33.96161,5.741867,-18.99631,-1.0,0.4263744,0.3404225999999999,-1.170718,-47.93718,42.55321,-0.08684104,0.6463247,-0.03844062,0.9164325,-3.418793,33.16331523080721
1,-1.0,-1.0,-1.0,0.451196,0.0,0.0,0.0,-28.30602,7.206955000000001,-18.93262,-1.0,0.37205,0.3352997,0.465708,0.0,0.0,0.0,33.96161,5.741867,-18.99631,-1.0,0.4263744,0.3404225999999999,-1.170718,-47.93718,42.55321,-0.08684104,0.6463247,-0.03844062,0.9164325,-3.418793,33.16331523080721
1,-1.0,-1.0,-1.0,0.1219442999999999,0.0,0.0,0.0,-28.30602,7.206955000000001,-18.93262,-1.0,0.4950391999999999,0.4621133,0.2015637,0.0,0.0,0.0,33.96161,5.741867,-18.99631,-1.0,-1.0,-1.0,-1.170711,-47.93717,42.55321,-0.08699261,0.646399,-0.03824431,0.9164325,-3.418793,33.16331523080721
1,-1.0,-1.0,-1.0,0.1219442999999999,0.0,0.0,0.0,-28.30602,7.206955000000001,-18.93262,-1.0,0.4950391999999999,0.4621133,0.2015637,0.0,0.0,0.0,33.96161,5.741867,-18.99631,-1.0,-1.0,-1.0,-1.170711,-47.93717,42.55321,-0.08699261,0.646399,-0.03824431,0.9164325,-3.418793,33.16331523080721
1,-1.0,-1.0,-1.0,0.1219442999999999,0.0,0.0,0.0,-28.30602,7.206955000000001,-18.93262,-1.0,0.4950391999999999,0.4621133,0.2015637,0.0,0.0,0.0,33.96161,5.741867,-18.99631,-1.0,-1.0,-1.0,-1.170711,-47.93717,42.55321,-0.08699261,0.646399,-0.03824431,0.9164325,-3.418793,33.16331523080721
1,-1.0,-1.0,-1.0,0.05346071,0.0,0.0,0.0,-28.30602,7.206955000000001,-18.93262,-1.0,0.4894167,0.4546163,0.1583062,0.0,0.0,0.0,33.96161,5.741867,-18.99631,-1.0,0.5764142,0.415498,-1.170968,-47.9372,42.55329,-0.08707747,0.6464300999999999,-0.03815591,0.9164325,-3.418793,34.27
1,-1.0,-1.0,-1.0,0.05346071,0.0,0.0,0.0,-28.30602,7.206955000000001,-18.93262,-1.0,0.4894167,0.4546163,0.1583062,0.0,0.0,0.0,33.96161,5.741867,-18.99631,-1.0,0.5764142,0.415498,-1.170968,-47.9372,42.55329,-0.08707747,0.6464300999999999,-0.03815591,0.9164325,-3.418793,34.27
1,-1.0,-1.0,-1.0,0.05346071,0.0,0.0,0.0,-28.30602,7.206955000000001,-18.93262,-1.0,0.4894167,0.4546163,0.1583062,0.0,0.0,0.0,33.96161,5.741867,-18.99631,-1.0,0.5764142,0.415498,-1.170968,-47.9372,42.55329,-0.08707747,0.6464300999999999,-0.03815591,0.9164325,-3.418793,34.27
1,-1.0,-1.0,-1.0,0.131463,0.0,0.0,0.0,-28.30602,7.206955000000001,-18.93262,-1.0,-1.0,-1.0,0.143139,0.0,0.0,0.0,33.96161,5.741867,-18.99631,-1.0,0.6036887,0.3993447,-1.171104,-47.93725,42.55322,-0.0870574,0.6463856,-0.03819543,0.9164325,-3.418793,34.27
1,-1.0,-1.0,-1.0,0.131463,0.0,0.0,0.0,-28.30602,7.206955000000001,-18.93262,-1.0,-1.0,-1.0,0.143139,0.0,0.0,0.0,33.96161,5.741867,-18.99631,-1.0,0.6036887,0.3993447,-1.171104,-47.93725,42.55322,-0.0870574,0.6463856,-0.03819543,0.9164325,-3.418793,34.27
1,-1.0,-1.0,-1.0,0.131463,0.0,0.0,0.0,-28.30602,7.206955000000001,-18.93262,-1.0,-1.0,-1.0,0.143139,0.0,0.0,0.0,33.96161,5.741867,-18.99631,-1.0,0.6036887,0.3993447,-1.171104,-47.93725,42.55322,-0.0870574,0.6463856,-0.03819543,0.9164325,-3.418793,34.27
1,-1.0,-1.0,-1.0,0.1347655,0.0,0.0,0.0,-28.13614,5.334656,-19.29619,-1.0,0.3872375,0.3942813,0.128856,0.0,0.0,0.0,33.96161,5.741867,-18.99631,-1.0,0.5001866,0.4130872999999999,-1.170875,-47.9372,42.55311,-0.0872205,0.6465052,-0.03829215,0.9164325,-44.95749,34.27
1,-1.0,-1.0,-1.0,0.1347655,0.0,0.0,0.0,-28.13614,5.334656,-19.29619,-1.0,0.3872375,0.3942813,0.128856,0.0,0.0,0.0,33.96161,5.741867,-18.99631,-1.0,0.5001866,0.4130872999999999,-1.170875,-47.9372,42.55311,-0.0872205,0.6465052,-0.03829215,0.9164325,-44.95749,34.27
1,-1.0,-1.0,-1.0,0.1347655,0.0,0.0,0.0,-28.13614,5.334656,-19.29619,-1.0,0.3872375,0.3942813,0.128856,0.0,0.0,0.0,33.96161,5.741867,-18.99631,-1.0,0.5001866,0.4130872999999999,-1.170875,-47.9372,42.55311,-0.0872205,0.6465052,-0.03829215,0.9164325,-44.95749,34.27
1,-1.0,-1.0,-1.0,0.2025786,0.0,0.0,0.0,-27.91937,5.406905999999999,-19.29753,-1.0,0.381372,0.3852928,0.1456246,0.0,0.0,0.0,33.96161,5.741867,-18.99631,-1.0,0.4787189,0.3926717,-1.170962,-47.9373,42.55313,-0.08732896,0.6466479,-0.03869812,0.9164325,-44.95749,34.27
1,-1.0,-1.0,-1.0,0.2025786,0.0,0.0,0.0,-27.91937,5.406905999999999,-19.29753,-1.0,0.381372,0.3852928,0.1456246,0.0,0.0,0.0,33.96161,5.741867,-18.99631,-1.0,0.4787189,0.3926717,-1.170962,-47.9373,42.55313,-0.08732896,0.6466479,-0.03869812,0.9164325,-44.95749,34.27
1,-1.0,-1.0,-1.0,0.2025786,0.0,0.0,0.0,-27.91937,5.406905999999999,-19.29753,-1.0,0.381372,0.3852928,0.1456246,0.0,0.0,0.0,33.96161,5.741867,-18.99631,-1.0,0.4787189,0.3926717,-1.170962,-47.9373,42.55313,-0.08732896,0.6466479,-0.03869812,0.9164325,-44.95749,34.27
1,-1.0,-1.0,-1.0,0.2790950999999999,0.0,0.0,0.0,-27.91937,5.406905999999999,-19.29753,-1.0,0.4168309,0.3790489,0.2253971,0.0,0.0,0.0,33.96161,5.741867,-18.99631,-1.0,0.4997455,0.3885548,-1.170941,-47.93731,42.55302,-0.08718713,0.6467778000000001,-0.03844101,0.9164325,-44.95749,34.27
1,-1.0,-1.0,-1.0,0.2790950999999999,0.0,0.0,0.0,-27.91937,5.406905999999999,-19.29753,-1.0,0.4168309,0.3790489,0.2253971,0.0,0.0,0.0,33.96161,5.741867,-18.99631,-1.0,0.4997455,0.3885548,-1.170941,-47.93731,42.55302,-0.08718713,0.6467778000000001,-0.03844101,0.9164325,-44.95749,34.27
1,-1.0,-1.0,-1.0,0.2790950999999999,0.0,0.0,0.0,-27.91937,5.406905999999999,-19.29753,-1.0,0.4168309,0.3790489,0.2253971,0.0,0.0,0.0,33.96161,5.741867,-18.99631,-1.0,0.4997455,0.3885548,-1.170941,-47.93731,42.55302,-0.08718713,0.6467778000000001,-0.03844101,0.9164325,-44.95749,34.27
1,-1.0,-1.0,-1.0,0.3687788,0.0,0.0,0.0,-28.6048,5.983185,-19.00389,-1.0,0.4122918,0.3571338,0.2578244,0.0,0.0,0.0,32.077220000000004,5.027618,-19.07321,-1.0,0.4963683,0.3585335,-1.170974,-47.93726,42.55297,-0.08722357,0.6469635,-0.03844711,0.9164325,-44.95749,34.27
1,-1.0,-1.0,-1.0,0.3687788,0.0,0.0,0.0,-28.6048,5.983185,-19.00389,-1.0,0.4122918,0.3571338,0.2578244,0.0,0.0,0.0,32.077220000000004,5.027618,-19.07321,-1.0,0.4963683,0.3585335,-1.170974,-47.93726,42.55297,-0.08722357,0.6469635,-0.03844711,0.9164325,-44.95749,34.27
1,-1.0,-1.0,-1.0,0.3687788,0.0,0.0,0.0,-28.6048,5.983185,-19.00389,-1.0,0.4122918,0.3571338,0.2578244,0.0,0.0,0.0,32.077220000000004,5.027618,-19.07321,-1.0,0.4963683,0.3585335,-1.170974,-47.93726,42.55297,-0.08722357,0.6469635,-0.03844711,0.9164325,-44.95749,34.27
1,-1.0,-1.0,-1.0,0.3815045,0.0,0.0,0.0,-28.3261,6.0793,-18.99298,-1.0,0.3977602,0.3519202,0.2850629,0.0,0.0,0.0,32.077220000000004,5.027618,-19.07321,-1.0,0.5035037,0.3707632,-1.171041,-47.93728,42.552890000000005,-0.08742787,0.6469404000000001,-0.03851981,0.9164325,-44.95749,34.27
1,-1.0,-1.0,-1.0,0.3815045,0.0,0.0,0.0,-28.3261,6.0793,-18.99298,-1.0,0.3977602,0.3519202,0.2850629,0.0,0.0,0.0,32.077220000000004,5.027618,-19.07321,-1.0,0.5035037,0.3707632,-1.171041,-47.93728,42.552890000000005,-0.08742787,0.6469404000000001,-0.03851981,0.9164325,-44.95749,34.27
1,-1.0,-1.0,-1.0,0.3815045,0.0,0.0,0.0,-28.3261,6.0793,-18.99298,-1.0,0.3977602,0.3519202,0.2850629,0.0,0.0,0.0,32.077220000000004,5.027618,-19.07321,-1.0,0.5035037,0.3707632,-1.171041,-47.93728,42.552890000000005,-0.08742787,0.6469404000000001,-0.03851981,0.9164325,-44.95749,34.27
1,-1.0,-1.0,-1.0,0.4179522,0.0,0.0,0.0,-26.818590000000004,6.448486,-19.25952,-1.0,0.3182897,0.3349185999999999,0.3991454,0.0,0.0,0.0,32.37724,6.03627,-18.81119,-1.0,0.5084835999999999,0.324033,-1.170932,-47.93728,42.55276,-0.08752924,0.6471566999999999,-0.03903393,0.9164325,-44.95749,34.27
1,-1.0,-1.0,-1.0,0.4179522,0.0,0.0,0.0,-26.818590000000004,6.448486,-19.25952,-1.0,0.3182897,0.3349185999999999,0.3991454,0.0,0.0,0.0,32.37724,6.03627,-18.81119,-1.0,0.5084835999999999,0.324033,-1.170932,-47.93728,42.55276,-0.08752924,0.6471566999999999,-0.03903393,0.9164325,-44.95749,34.27
1,-1.0,-1.0,-1.0,0.4179522,0.0,0.0,0.0,-26.818590000000004,6.448486,-19.25952,-1.0,0.3182897,0.3349185999999999,0.3991454,0.0,0.0,0.0,32.37724,6.03627,-18.81119,-1.0,0.5084835999999999,0.324033,-1.170932,-47.93728,42.55276,-0.08752924,0.6471566999999999,-0.03903393,0.9164325,-44.95749,34.27
1,-1.0,-1.0,-1.0,0.4662397,0.0,0.0,0.0,-27.95541,8.201538000000001,-18.7473,-1.0,0.3569176,0.3053699,0.4215707,0.0,0.0,0.0,31.61302,4.164566000000001,-19.27216,-1.0,0.5351729000000001,0.3431964,-1.17083,-47.9373,42.552690000000005,-0.0875712,0.6472677,-0.03910773,0.9164325,-25.21266,34.27
1,-1.0,-1.0,-1.0,0.4662397,0.0,0.0,0.0,-27.95541,8.201538000000001,-18.7473,-1.0,0.3569176,0.3053699,0.4215707,0.0,0.0,0.0,31.61302,4.164566000000001,-19.27216,-1.0,0.5351729000000001,0.3431964,-1.17083,-47.9373,42.552690000000005,-0.0875712,0.6472677,-0.03910773,0.9164325,-25.21266,34.27
1,-1.0,-1.0,-1.0,0.4662397,0.0,0.0,0.0,-27.95541,8.201538000000001,-18.7473,-1.0,0.3569176,0.3053699,0.4215707,0.0,0.0,0.0,31.61302,4.164566000000001,-19.27216,-1.0,0.5351729000000001,0.3431964,-1.17083,-47.9373,42.552690000000005,-0.0875712,0.6472677,-0.03910773,0.9164325,-25.21266,34.27
1,-1.0,-1.0,-1.0,0.644629,0.0,0.0,0.0,-28.05341,8.114197,-18.78755,-1.0,0.3707437,0.258701,0.540098,0.0,0.0,0.0,33.5045,7.140411,-17.79805,-1.0,0.5024698000000001,0.3262017,-1.1708459999999998,-47.93729,42.55261,-0.0875605,0.6474621,-0.03932237,0.9164325,-25.21266,34.27
1,-1.0,-1.0,-1.0,0.644629,0.0,0.0,0.0,-28.05341,8.114197,-18.78755,-1.0,0.3707437,0.258701,0.540098,0.0,0.0,0.0,33.5045,7.140411,-17.79805,-1.0,0.5024698000000001,0.3262017,-1.1708459999999998,-47.93729,42.55261,-0.0875605,0.6474621,-0.03932237,0.9164325,-25.21266,34.27
1,-1.0,-1.0,-1.0,0.644629,0.0,0.0,0.0,-28.05341,8.114197,-18.78755,-1.0,0.3707437,0.258701,0.540098,0.0,0.0,0.0,33.5045,7.140411,-17.79805,-1.0,0.5024698000000001,0.3262017,-1.1708459999999998,-47.93729,42.55261,-0.0875605,0.6474621,-0.03932237,0.9164325,-25.21266,34.27
2,0.1504059,0.009490967,0.9885712,0.775687,0.1494293,0.009628296,0.9887238000000002,-27.98816,8.034271,-18.28719,3.132034,0.3767118,0.2468882999999999,0.6909142,0.2530365,-0.00553894,0.9674377,33.64458,7.334396000000001,-19.02921,2.724426,0.4438632,0.2679844999999999,-1.170658,-47.93704,42.55267,-0.08763903,0.6474265,-0.03924057,0.9164325,-25.21266,34.27
2,0.1504059,0.009490967,0.9885712,0.775687,0.1494293,0.009628296,0.9887238000000002,-27.98816,8.034271,-18.28719,3.132034,0.3767118,0.2468882999999999,0.6909142,0.2530365,-0.00553894,0.9674377,33.64458,7.334396000000001,-19.02921,2.724426,0.4438632,0.2679844999999999,-1.170658,-47.93704,42.55267,-0.08763903,0.6474265,-0.03924057,0.9164325,-25.21266,34.27
2,0.1504059,0.009490967,0.9885712,0.775687,0.1494293,0.009628296,0.9887238000000002,-27.98816,8.034271,-18.28719,3.132034,0.3767118,0.2468882999999999,0.6909142,0.2530365,-0.00553894,0.9674377,33.64458,7.334396000000001,-19.02921,2.724426,0.4438632,0.2679844999999999,-1.170658,-47.93704,42.55267,-0.08763903,0.6474265,-0.03924057,0.9164325,-25.21266,34.27
2,0.3542633,0.014328,0.9350281,0.9485515,0.3543700999999999,0.01419067,0.9349823,-27.87527,8.059128,-18.83711,2.549271,0.3483722,0.2496147999999999,0.903233,0.2264404,0.1724243,0.9586334,33.60283,7.330489999999999,-18.8956,3.480896,0.4480344,0.2479338999999999,-1.170539,-47.93694,42.55264,-0.08764793,0.647412,-0.03910577,0.9164325,-25.21266,34.27
2,0.3542633,0.014328,0.9350281,0.9485515,0.3543700999999999,0.01419067,0.9349823,-27.87527,8.059128,-18.83711,2.549271,0.3483722,0.2496147999999999,0.903233,0.2264404,0.1724243,0.9586334,33.60283,7.330489999999999,-18.8956,3.480896,0.4480344,0.2479338999999999,-1.170539,-47.93694,42.55264,-0.08764793,0.647412,-0.03910577,0.9164325,-25.21266,34.27
2,0.3542633,0.014328,0.9350281,0.9485515,0.3543700999999999,0.01419067,0.9349823,-27.87527,8.059128,-18.83711,2.549271,0.3483722,0.2496147999999999,0.903233,0.2264404,0.1724243,0.9586334,33.60283,7.330489999999999,-18.8956,3.480896,0.4480344,0.2479338999999999,-1.170539,-47.93694,42.55264,-0.08764793,0.647412,-0.03910577,0.9164325,-25.21266,34.27
2,0.2268372,0.08927917,0.9698181,1.0,0.2268523999999999,0.08921814,0.9698181,-27.92802,8.038055,-18.76611,3.193176,0.3657563,0.2409294,1.0,0.220932,0.1204071,0.9678192,33.53461,7.394058,-19.04984,3.105423,0.4508707,0.2522907,-1.170578,-47.9369,42.55271,-0.08753461,0.6473568000000001,-0.0390093,0.9164325,43.7958,34.27
2,0.2268372,0.08927917,0.9698181,1.0,0.2268523999999999,0.08921814,0.9698181,-27.92802,8.038055,-18.76611,3.193176,0.3657563,0.2409294,1.0,0.220932,0.1204071,0.9678192,33.53461,7.394058,-19.04984,3.105423,0.4508707,0.2522907,-1.170578,-47.9369,42.55271,-0.08753461,0.6473568000000001,-0.0390093,0.9164325,43.7958,34.27
2,0.2268372,0.08927917,0.9698181,1.0,0.2268523999999999,0.08921814,0.9698181,-27.92802,8.038055,-18.76611,3.193176,0.3657563,0.2409294,1.0,0.220932,0.1204071,0.9678192,33.53461,7.394058,-19.04984,3.105423,0.4508707,0.2522907,-1.170578,-47.9369,42.55271,-0.08753461,0.6473568000000001,-0.0390093,0.9164325,43.7958,34.27
2,0.2309417999999999,0.1058807,0.9671783000000002,1.0,0.230957,0.1057892,0.9671783000000002,-27.92891,8.042618,-18.77621,3.309021,0.3654788,0.2391323,1.0,0.2203063999999999,0.1526642,0.9633942,33.52211,7.358703999999999,-18.91931,3.110901,0.4513892,0.2490259,-1.1706530000000002,-47.93691,42.5527,-0.08744694,0.6474023,-0.03895951,0.9164325,43.7958,34.27
2,0.2309417999999999,0.1058807,0.9671783000000002,1.0,0.230957,0.1057892,0.9671783000000002,-27.92891,8.042618,-18.77621,3.309021,0.3654788,0.2391323,1.0,0.2203063999999999,0.1526642,0.9633942,33.52211,7.358703999999999,-18.91931,3.110901,0.4513892,0.2490259,-1.1706530000000002,-47.93691,42.5527,-0.08744694,0.6474023,-0.03895951,0.9164325,43.7958,34.27
2,0.2309417999999999,0.1058807,0.9671783000000002,1.0,0.230957,0.1057892,0.9671783000000002,-27.92891,8.042618,-18.77621,3.309021,0.3654788,0.2391323,1.0,0.2203063999999999,0.1526642,0.9633942,33.52211,7.358703999999999,-18.91931,3.110901,0.4513892,0.2490259,-1.1706530000000002,-47.93691,42.5527,-0.08744694,0.6474023,-0.03895951,0.9164325,43.7958,34.27
2,0.2309417999999999,0.1058807,0.9671783000000002,1.0,0.230957,0.1057892,0.9671783000000002,-27.92891,8.042618,-18.77621,3.309021,0.3654788,0.2391323,1.0,0.2203063999999999,0.1526642,0.9633942,33.52211,7.358703999999999,-18.91931,3.110901,0.4513892,0.2490259,-1.170428,-47.93683,42.5527,-0.08757547,0.6472619000000001,-0.03898021,0.9164325,43.7958,34.27
2,0.2309417999999999,0.1058807,0.9671783000000002,1.0,0.230957,0.1057892,0.9671783000000002,-27.92891,8.042618,-18.77621,3.309021,0.3654788,0.2391323,1.0,0.2203063999999999,0.1526642,0.9633942,33.52211,7.358703999999999,-18.91931,3.110901,0.4513892,0.2490259,-1.170428,-47.93683,42.5527,-0.08757547,0.6472619000000001,-0.03898021,0.9164325,43.7958,34.27
2,0.2309417999999999,0.1058807,0.9671783000000002,1.0,0.230957,0.1057892,0.9671783000000002,-27.92891,8.042618,-18.77621,3.309021,0.3654788,0.2391323,1.0,0.2203063999999999,0.1526642,0.9633942,33.52211,7.358703999999999,-18.91931,3.110901,0.4513892,0.2490259,-1.170428,-47.93683,42.5527,-0.08757547,0.6472619000000001,-0.03898021,0.9164325,43.7958,34.27
2,0.2497101,0.1822967999999999,0.951004,1.0,0.1851196,0.07476807,0.9798584,-27.95195,7.992447,-18.72543,3.022247,0.3711313,0.2437055,1.0,0.2498627,0.1825408999999999,0.9509125,33.57578,7.261765,-18.91565,2.94812,0.4463684,0.24863,-1.170433,-47.93686,42.55272,-0.08774305,0.6473656,-0.03898298,0.9164325,43.7958,34.27
2,0.2497101,0.1822967999999999,0.951004,1.0,0.1851196,0.07476807,0.9798584,-27.95195,7.992447,-18.72543,3.022247,0.3711313,0.2437055,1.0,0.2498627,0.1825408999999999,0.9509125,33.57578,7.261765,-18.91565,2.94812,0.4463684,0.24863,-1.170433,-47.93686,42.55272,-0.08774305,0.6473656,-0.03898298,0.9164325,43.7958,34.27
2,0.2497101,0.1822967999999999,0.951004,1.0,0.1851196,0.07476807,0.9798584,-27.95195,7.992447,-18.72543,3.022247,0.3711313,0.2437055,1.0,0.2498627,0.1825408999999999,0.9509125,33.57578,7.261765,-18.91565,2.94812,0.4463684,0.24863,-1.170433,-47.93686,42.55272,-0.08774305,0.6473656,-0.03898298,0.9164325,43.7958,34.27
2,0.1362915,0.09272766,0.9863129,1.0,0.04615784,0.07783508,0.9958954,-28.16924,7.889862,-17.75366,3.406311,0.3945053,0.2406608999999999,1.0,0.1362915,0.09272766,0.9863129,33.41913,7.273438,-18.96014,2.906921,0.4641737,0.2584849999999999,-1.170488,-47.9369,42.55264,-0.08745697,0.6472996999999999,-0.03879052,0.9164325,43.7958,34.27
2,0.1362915,0.09272766,0.9863129,1.0,0.04615784,0.07783508,0.9958954,-28.16924,7.889862,-17.75366,3.406311,0.3945053,0.2406608999999999,1.0,0.1362915,0.09272766,0.9863129,33.41913,7.273438,-18.96014,2.906921,0.4641737,0.2584849999999999,-1.170488,-47.9369,42.55264,-0.08745697,0.6472996999999999,-0.03879052,0.9164325,43.7958,34.27
2,0.1362915,0.09272766,0.9863129,1.0,0.04615784,0.07783508,0.9958954,-28.16924,7.889862,-17.75366,3.406311,0.3945053,0.2406608999999999,1.0,0.1362915,0.09272766,0.9863129,33.41913,7.273438,-18.96014,2.906921,0.4641737,0.2584849999999999,-1.170488,-47.9369,42.55264,-0.08745697,0.6472996999999999,-0.03879052,0.9164325,43.7958,34.27
2,0.146698,0.1032714999999999,0.9837646,1.0,0.05903625,0.05601501,0.9966736,-28.2299,7.75415,-17.149060000000002,3.310608,0.3952097,0.2435594,1.0,0.1467437999999999,0.103302,0.9837494,33.41148,7.191864,-18.709670000000003,2.919312,0.4633304,0.2583798,-1.170451,-47.93698,42.5526,-0.08757015,0.6473908,-0.03904605,0.9164325,43.7958,34.27
2,0.146698,0.1032714999999999,0.9837646,1.0,0.05903625,0.05601501,0.9966736,-28.2299,7.75415,-17.149060000000002,3.310608,0.3952097,0.2435594,1.0,0.1467437999999999,0.103302,0.9837494,33.41148,7.191864,-18.709670000000003,2.919312,0.4633304,0.2583798,-1.170451,-47.93698,42.5526,-0.08757015,0.6473908,-0.03904605,0.9164325,43.7958,34.27
2,0.146698,0.1032714999999999,0.9837646,1.0,0.05903625,0.05601501,0.9966736,-28.2299,7.75415,-17.149060000000002,3.310608,0.3952097,0.2435594,1.0,0.1467437999999999,0.103302,0.9837494,33.41148,7.191864,-18.709670000000003,2.919312,0.4633304,0.2583798,-1.170451,-47.93698,42.5526,-0.08757015,0.6473908,-0.03904605,0.9164325,43.7958,34.27
2,0.1495972,0.1074982,0.9828796,1.0,0.06022644,0.04179382,0.9972992,-28.23972,7.724457000000001,-17.03943,3.2391970000000003,0.3953815,0.2453589,1.0,0.1500549,0.1078186,0.9827728,33.398509999999995,7.200424000000001,-18.78304,2.965408,0.4633100999999999,0.2580987999999999,-1.170266,-47.93695,42.5526,-0.08773264,0.6474062,-0.03923227,0.9164325,40.87754,34.27
2,0.1495972,0.1074982,0.9828796,1.0,0.06022644,0.04179382,0.9972992,-28.23972,7.724457000000001,-17.03943,3.2391970000000003,0.3953815,0.2453589,1.0,0.1500549,0.1078186,0.9827728,33.398509999999995,7.200424000000001,-18.78304,2.965408,0.4633100999999999,0.2580987999999999,-1.170266,-47.93695,42.5526,-0.08773264,0.6474062,-0.03923227,0.9164325,40.87754,34.27
2,0.1495972,0.1074982,0.9828796,1.0,0.06022644,0.04179382,0.9972992,-28.23972,7.724457000000001,-17.03943,3.2391970000000003,0.3953815,0.2453589,1.0,0.1500549,0.1078186,0.9827728,33.398509999999995,7.200424000000001,-18.78304,2.965408,0.4633100999999999,0.2580987999999999,-1.170266,-47.93695,42.5526,-0.08773264,0.6474062,-0.03923227,0.9164325,40.87754,34.27
2,0.1316071,0.09188843,0.98703,1.0,0.061203,0.03128052,0.9976196,-28.23546,7.712616000000001,-17.05885,3.217026,0.3951159,0.2470317,1.0,0.1533966,0.1106873,0.9819336,33.38882,7.196869,-18.78142,3.003845,0.4632159999999999,0.2579228999999999,-1.170313,-47.93685,42.5527,-0.08770148,0.6475959,-0.03927379,0.9164325,40.87754,34.27
2,0.1316071,0.09188843,0.98703,1.0,0.061203,0.03128052,0.9976196,-28.23546,7.712616000000001,-17.05885,3.217026,0.3951159,0.2470317,1.0,0.1533966,0.1106873,0.9819336,33.38882,7.196869,-18.78142,3.003845,0.4632159999999999,0.2579228999999999,-1.170313,-47.93685,42.5527,-0.08770148,0.6475959,-0.03927379,0.9164325,40.87754,34.27
2,0.1316071,0.09188843,0.98703,1.0,0.061203,0.03128052,0.9976196,-28.23546,7.712616000000001,-17.05885,3.217026,0.3951159,0.2470317,1.0,0.1533966,0.1106873,0.9819336,33.38882,7.196869,-18.78142,3.003845,0.4632159999999999,0.2579228999999999,-1.170313,-47.93685,42.5527,-0.08770148,0.6475959,-0.03927379,0.9164325,40.87754,34.27
2,0.1188507,0.08119202,0.9895782,1.0,0.05888367,0.03395081,0.9976807,-28.23071,7.709274000000001,-17.05359,3.180359,0.3951929999999999,0.2467806,1.0,0.1546021,0.1093903,0.9818878,33.37352,7.207642,-18.79164,3.003494,0.4635548,0.2577993,-1.17036,-47.93683,42.55276,-0.08773937,0.6475310999999999,-0.03878317,0.9164325,40.87754,34.27
2,0.1188507,0.08119202,0.9895782,1.0,0.05888367,0.03395081,0.9976807,-28.23071,7.709274000000001,-17.05359,3.180359,0.3951929999999999,0.2467806,1.0,0.1546021,0.1093903,0.9818878,33.37352,7.207642,-18.79164,3.003494,0.4635548,0.2577993,-1.17036,-47.93683,42.55276,-0.08773937,0.6475310999999999,-0.03878317,0.9164325,40.87754,34.27
2,0.1188507,0.08119202,0.9895782,1.0,0.05888367,0.03395081,0.9976807,-28.23071,7.709274000000001,-17.05359,3.180359,0.3951929999999999,0.2467806,1.0,0.1546021,0.1093903,0.9818878,33.37352,7.207642,-18.79164,3.003494,0.4635548,0.2577993,-1.17036,-47.93683,42.55276,-0.08773937,0.6475310999999999,-0.03878317,0.9164325,40.87754,34.27
2,0.1223755,0.07730103,0.9894562,1.0,0.05784607,0.03570557,0.9976807,-28.227190000000004,7.69548,-17.040789999999998,3.166199,0.3951929999999999,0.2469361,1.0,0.17099,0.1086426,0.9792633,33.31009,7.228867,-18.84796,3.005096,0.4636704,0.2575746,-1.170412,-47.93687,42.55278,-0.08776618,0.6473747,-0.0388849,0.9164325,40.87754,34.27
2,0.1223755,0.07730103,0.9894562,1.0,0.05784607,0.03570557,0.9976807,-28.227190000000004,7.69548,-17.040789999999998,3.166199,0.3951929999999999,0.2469361,1.0,0.17099,0.1086426,0.9792633,33.31009,7.228867,-18.84796,3.005096,0.4636704,0.2575746,-1.170412,-47.93687,42.55278,-0.08776618,0.6473747,-0.0388849,0.9164325,40.87754,34.27
2,0.1223755,0.07730103,0.9894562,1.0,0.05784607,0.03570557,0.9976807,-28.227190000000004,7.69548,-17.040789999999998,3.166199,0.3951929999999999,0.2469361,1.0,0.17099,0.1086426,0.9792633,33.31009,7.228867,-18.84796,3.005096,0.4636704,0.2575746,-1.170412,-47.93687,42.55278,-0.08776618,0.6473747,-0.0388849,0.9164325,40.87754,34.27
2,0.1139374,0.07049561,0.9909668,1.0,0.05627441,0.03422546,0.997818,-28.21513,7.693175999999999,-17.05939,3.16507,0.3949778,0.2472828999999999,1.0,0.1680907999999999,0.104538,0.9801940999999998,33.30481,7.253937,-18.90382,2.9742580000000003,0.4641548,0.2575471,-1.1704290000000002,-47.93704,42.55266,-0.0877381999999999,0.6473850999999999,-0.03909653,0.9164325,40.87754,34.27
2,0.1139374,0.07049561,0.9909668,1.0,0.05627441,0.03422546,0.997818,-28.21513,7.693175999999999,-17.05939,3.16507,0.3949778,0.2472828999999999,1.0,0.1680907999999999,0.104538,0.9801940999999998,33.30481,7.253937,-18.90382,2.9742580000000003,0.4641548,0.2575471,-1.1704290000000002,-47.93704,42.55266,-0.0877381999999999,0.6473850999999999,-0.03909653,0.9164325,40.87754,34.27
2,0.1139374,0.07049561,0.9909668,1.0,0.05627441,0.03422546,0.997818,-28.21513,7.693175999999999,-17.05939,3.16507,0.3949778,0.2472828999999999,1.0,0.1680907999999999,0.104538,0.9801940999999998,33.30481,7.253937,-18.90382,2.9742580000000003,0.4641548,0.2575471,-1.1704290000000002,-47.93704,42.55266,-0.0877381999999999,0.6473850999999999,-0.03909653,0.9164325,40.87754,34.27
2,0.1093445,0.07275391,0.991333,1.0,0.05317688,0.03318787,0.9980316,-28.20387,7.690628,-17.085279999999997,3.097595,0.3948983,0.2476132,1.0,0.1652679,0.1121674,0.9798431,33.3013,7.260895,-18.990170000000003,2.964005,0.4645542,0.2569937,-1.170379,-47.93701,42.55258,-0.08761618,0.6476557,-0.0389954,0.9164325,12.84805,34.27
2,0.1093445,0.07275391,0.991333,1.0,0.05317688,0.03318787,0.9980316,-28.20387,7.690628,-17.085279999999997,3.097595,0.3948983,0.2476132,1.0,0.1652679,0.1121674,0.9798431,33.3013,7.260895,-18.990170000000003,2.964005,0.4645542,0.2569937,-1.170379,-47.93701,42.55258,-0.08761618,0.6476557,-0.0389954,0.9164325,12.84805,34.27
2,0.1093445,0.07275391,0.991333,1.0,0.05317688,0.03318787,0.9980316,-28.20387,7.690628,-17.085279999999997,3.097595,0.3948983,0.2476132,1.0,0.1652679,0.1121674,0.9798431,33.3013,7.260895,-18.990170000000003,2.964005,0.4645542,0.2569937,-1.170379,-47.93701,42.55258,-0.08761618,0.6476557,-0.0389954,0.9164325,12.84805,34.27
2,0.1252289,0.07748413,0.98909,1.0,0.05566406,0.0275115999999999,0.9980621,-28.2,7.695342999999999,-17.12041,3.095963,0.3944849,0.2483188,1.0,0.1600037,0.1024933,0.9817657,33.29741,7.264816000000001,-19.02391,2.969559,0.4652489000000001,0.2581522,-1.170388,-47.93699,42.55251,-0.08785124,0.6476279,-0.03894684,0.9164325,12.84805,34.27
2,0.1252289,0.07748413,0.98909,1.0,0.05566406,0.0275115999999999,0.9980621,-28.2,7.695342999999999,-17.12041,3.095963,0.3944849,0.2483188,1.0,0.1600037,0.1024933,0.9817657,33.29741,7.264816000000001,-19.02391,2.969559,0.4652489000000001,0.2581522,-1.170388,-47.93699,42.55251,-0.08785124,0.6476279,-0.03894684,0.9164325,12.84805,34.27
2,0.1252289,0.07748413,0.98909,1.0,0.05566406,0.0275115999999999,0.9980621,-28.2,7.695342999999999,-17.12041,3.095963,0.3944849,0.2483188,1.0,0.1600037,0.1024933,0.9817657,33.29741,7.264816000000001,-19.02391,2.969559,0.4652489000000001,0.2581522,-1.170388,-47.93699,42.55251,-0.08785124,0.6476279,-0.03894684,0.9164325,12.84805,34.27
2,0.1491852,0.08757019,0.9849091,1.0,0.05513,0.0299529999999999,0.9980164,-28.1929,7.740539999999999,-17.3864,2.986267,0.3941044,0.248253,1.0,0.1600952,0.09425354,0.9825745,33.29741,7.270889,-19.048920000000003,2.924805,0.4652489000000001,0.2589937,-1.170516,-47.937090000000005,42.55249,-0.08796248,0.6476267,-0.03915242,0.9164325,12.84805,34.27
2,0.1491852,0.08757019,0.9849091,1.0,0.05513,0.0299529999999999,0.9980164,-28.1929,7.740539999999999,-17.3864,2.986267,0.3941044,0.248253,1.0,0.1600952,0.09425354,0.9825745,33.29741,7.270889,-19.048920000000003,2.924805,0.4652489000000001,0.2589937,-1.170516,-47.937090000000005,42.55249,-0.08796248,0.6476267,-0.03915242,0.9164325,12.84805,34.27
2,0.1491852,0.08757019,0.9849091,1.0,0.05513,0.0299529999999999,0.9980164,-28.1929,7.740539999999999,-17.3864,2.986267,0.3941044,0.248253,1.0,0.1600952,0.09425354,0.9825745,33.29741,7.270889,-19.048920000000003,2.924805,0.4652489000000001,0.2589937,-1.170516,-47.937090000000005,42.55249,-0.08796248,0.6476267,-0.03915242,0.9164325,12.84805,34.27
2,0.1621094,0.1140594,0.9801483,1.0,0.06152344,0.02685547,0.9977417,-28.15479,7.801315,-17.74043,2.998749,0.3920329,0.2489228,1.0,0.1644287,0.1160583,0.9795227,33.305890000000005,7.248092999999999,-18.92252,2.973495,0.4645245,0.2565224,-1.170557,-47.93711,42.55237,-0.08807933,0.6475838,-0.03893058,0.9164325,12.84805,34.27
2,0.1621094,0.1140594,0.9801483,1.0,0.06152344,0.02685547,0.9977417,-28.15479,7.801315,-17.74043,2.998749,0.3920329,0.2489228,1.0,0.1644287,0.1160583,0.9795227,33.305890000000005,7.248092999999999,-18.92252,2.973495,0.4645245,0.2565224,-1.170557,-47.93711,42.55237,-0.08807933,0.6475838,-0.03893058,0.9164325,12.84805,34.27
2,0.1621094,0.1140594,0.9801483,1.0,0.06152344,0.02685547,0.9977417,-28.15479,7.801315,-17.74043,2.998749,0.3920329,0.2489228,1.0,0.1644287,0.1160583,0.9795227,33.305890000000005,7.248092999999999,-18.92252,2.973495,0.4645245,0.2565224,-1.170557,-47.93711,42.55237,-0.08807933,0.6475838,-0.03893058,0.9164325,12.84805,34.27
2,-1.0,-1.0,-1.0,0.7008437,0.0,0.0,0.0,-28.04332,7.770645,-17.29887,-1.0,0.3928124,0.3284917,0.6462288,0.0,0.0,0.0,32.39703,5.913574,-19.57584,-1.0,0.5167029000000001,0.3317792,-1.170524,-47.93719,42.55231,-0.0881183,0.6477904000000001,-0.03924532,0.9164325,12.84805,34.27
2,-1.0,-1.0,-1.0,0.7008437,0.0,0.0,0.0,-28.04332,7.770645,-17.29887,-1.0,0.3928124,0.3284917,0.6462288,0.0,0.0,0.0,32.39703,5.913574,-19.57584,-1.0,0.5167029000000001,0.3317792,-1.170524,-47.93719,42.55231,-0.0881183,0.6477904000000001,-0.03924532,0.9164325,12.84805,34.27
2,-1.0,-1.0,-1.0,0.7008437,0.0,0.0,0.0,-28.04332,7.770645,-17.29887,-1.0,0.3928124,0.3284917,0.6462288,0.0,0.0,0.0,32.39703,5.913574,-19.57584,-1.0,0.5167029000000001,0.3317792,-1.170524,-47.93719,42.55231,-0.0881183,0.6477904000000001,-0.03924532,0.9164325,12.84805,34.27
2,-1.0,-1.0,-1.0,0.4942665,0.0,0.0,0.0,-26.42636,6.037018,-18.12686,-1.0,0.2993500999999999,0.3446422999999999,0.4086631,0.0,0.0,0.0,32.41109,5.223679,-19.108320000000003,-1.0,0.5107659000000001,0.3650123,-1.170708,-47.93726,42.55235,-0.08799864,0.6479245,-0.03933298,0.9164325,-30.93456,34.27
2,-1.0,-1.0,-1.0,0.4942665,0.0,0.0,0.0,-26.42636,6.037018,-18.12686,-1.0,0.2993500999999999,0.3446422999999999,0.4086631,0.0,0.0,0.0,32.41109,5.223679,-19.108320000000003,-1.0,0.5107659000000001,0.3650123,-1.170708,-47.93726,42.55235,-0.08799864,0.6479245,-0.03933298,0.9164325,-30.93456,34.27
2,-1.0,-1.0,-1.0,0.4942665,0.0,0.0,0.0,-26.42636,6.037018,-18.12686,-1.0,0.2993500999999999,0.3446422999999999,0.4086631,0.0,0.0,0.0,32.41109,5.223679,-19.108320000000003,-1.0,0.5107659000000001,0.3650123,-1.170708,-47.93726,42.55235,-0.08799864,0.6479245,-0.03933298,0.9164325,-30.93456,34.27
2,-1.0,-1.0,-1.0,0.3157182,0.0,0.0,0.0,-26.42636,6.037018,-18.12686,-1.0,0.3913420999999999,0.4092232999999999,0.2034084,0.0,0.0,0.0,32.67358,4.682739,-19.26031,-1.0,0.5048292000000001,0.4556441,-1.170774,-47.93722,42.55249,-0.08785232,0.6478670999999999,-0.0390696999999999,0.9164325,-30.93456,34.27
2,-1.0,-1.0,-1.0,0.3157182,0.0,0.0,0.0,-26.42636,6.037018,-18.12686,-1.0,0.3913420999999999,0.4092232999999999,0.2034084,0.0,0.0,0.0,32.67358,4.682739,-19.26031,-1.0,0.5048292000000001,0.4556441,-1.170774,-47.93722,42.55249,-0.08785232,0.6478670999999999,-0.0390696999999999,0.9164325,-30.93456,34.27
2,-1.0,-1.0,-1.0,0.3157182,0.0,0.0,0.0,-26.42636,6.037018,-18.12686,-1.0,0.3913420999999999,0.4092232999999999,0.2034084,0.0,0.0,0.0,32.67358,4.682739,-19.26031,-1.0,0.5048292000000001,0.4556441,-1.170774,-47.93722,42.55249,-0.08785232,0.6478670999999999,-0.0390696999999999,0.9164325,-30.93456,34.27
2,-1.0,-1.0,-1.0,0.1965618999999999,0.0,0.0,0.0,-26.42636,6.037018,-18.12686,-1.0,0.4617876,0.4247545,0.1713451,0.0,0.0,0.0,32.67358,4.682739,-19.26031,-1.0,0.4866495,0.4623272,-1.17077,-47.93718,42.55255,-0.08776525,0.6475503,-0.03879571,0.9164325,-30.93456,34.27
2,-1.0,-1.0,-1.0,0.1965618999999999,0.0,0.0,0.0,-26.42636,6.037018,-18.12686,-1.0,0.4617876,0.4247545,0.1713451,0.0,0.0,0.0,32.67358,4.682739,-19.26031,-1.0,0.4866495,0.4623272,-1.17077,-47.93718,42.55255,-0.08776525,0.6475503,-0.03879571,0.9164325,-30.93456,34.27
2,-1.0,-1.0,-1.0,0.1965618999999999,0.0,0.0,0.0,-26.42636,6.037018,-18.12686,-1.0,0.4617876,0.4247545,0.1713451,0.0,0.0,0.0,32.67358,4.682739,-19.26031,-1.0,0.4866495,0.4623272,-1.17077,-47.93718,42.55255,-0.08776525,0.6475503,-0.03879571,0.9164325,-30.93456,34.27
2,-1.0,-1.0,-1.0,0.2271034,0.0,0.0,0.0,-26.42636,6.037018,-18.12686,-1.0,0.9409849,0.520983,0.1388354,0.0,0.0,0.0,32.67358,4.682739,-19.26031,-1.0,0.4726532,0.4223295999999999,-1.1710040000000002,-47.93705,42.55293,-0.08706389,0.6469246999999999,-0.03753831,0.9164325,-30.93456,34.27
2,-1.0,-1.0,-1.0,0.2271034,0.0,0.0,0.0,-26.42636,6.037018,-18.12686,-1.0,0.9409849,0.520983,0.1388354,0.0,0.0,0.0,32.67358,4.682739,-19.26031,-1.0,0.4726532,0.4223295999999999,-1.1710040000000002,-47.93705,42.55293,-0.08706389,0.6469246999999999,-0.03753831,0.9164325,-30.93456,34.27
2,-1.0,-1.0,-1.0,0.2271034,0.0,0.0,0.0,-26.42636,6.037018,-18.12686,-1.0,0.9409849,0.520983,0.1388354,0.0,0.0,0.0,32.67358,4.682739,-19.26031,-1.0,0.4726532,0.4223295999999999,-1.1710040000000002,-47.93705,42.55293,-0.08706389,0.6469246999999999,-0.03753831,0.9164325,-30.93456,34.27
2,-1.0,-1.0,-1.0,0.2481705,0.0,0.0,0.0,-26.42636,6.037018,-18.12686,-1.0,0.4119125,0.4082986,0.1465864,0.0,0.0,0.0,32.67358,4.682739,-19.26031,-1.0,0.4494664,0.413833,-1.171312,-47.93682,42.55368,-0.08614251,0.6450453,-0.03468527,0.9164325,-68.5684,34.27
2,-1.0,-1.0,-1.0,0.2481705,0.0,0.0,0.0,-26.42636,6.037018,-18.12686,-1.0,0.4119125,0.4082986,0.1465864,0.0,0.0,0.0,32.67358,4.682739,-19.26031,-1.0,0.4494664,0.413833,-1.171312,-47.93682,42.55368,-0.08614251,0.6450453,-0.03468527,0.9164325,-68.5684,34.27
2,-1.0,-1.0,-1.0,0.2481705,0.0,0.0,0.0,-26.42636,6.037018,-18.12686,-1.0,0.4119125,0.4082986,0.1465864,0.0,0.0,0.0,32.67358,4.682739,-19.26031,-1.0,0.4494664,0.413833,-1.171312,-47.93682,42.55368,-0.08614251,0.6450453,-0.03468527,0.9164325,-68.5684,34.27
2,-1.0,-1.0,-1.0,0.4117311999999999,0.0,0.0,0.0,-27.87381,5.168991,-17.96881,-1.0,0.3751655,0.3887067,0.2229689,0.0,0.0,0.0,34.86165,4.521057,-19.70314,-1.0,0.4133185,0.3870407,-1.172162,-47.93667,42.55669,-0.08377782,0.639062,-0.0302743,0.9164325,-68.5684,34.27
2,-1.0,-1.0,-1.0,0.4117311999999999,0.0,0.0,0.0,-27.87381,5.168991,-17.96881,-1.0,0.3751655,0.3887067,0.2229689,0.0,0.0,0.0,34.86165,4.521057,-19.70314,-1.0,0.4133185,0.3870407,-1.172162,-47.93667,42.55669,-0.08377782,0.639062,-0.0302743,0.9164325,-68.5684,34.27
2,-1.0,-1.0,-1.0,0.4117311999999999,0.0,0.0,0.0,-27.87381,5.168991,-17.96881,-1.0,0.3751655,0.3887067,0.2229689,0.0,0.0,0.0,34.86165,4.521057,-19.70314,-1.0,0.4133185,0.3870407,-1.172162,-47.93667,42.55669,-0.08377782,0.639062,-0.0302743,0.9164325,-68.5684,34.27
2,-1.0,-1.0,-1.0,0.5068045999999999,0.0,0.0,0.0,-27.24529,5.645401000000001,-17.99452,-1.0,0.1611944,0.3908882999999999,0.308529,0.0,0.0,0.0,33.84642,5.085297,-19.20396,-1.0,0.4362333,0.3725924,-1.172682,-47.93658,42.55904,-0.0818768,0.6327339,-0.02735601,0.9164325,-68.5684,34.27
2,-1.0,-1.0,-1.0,0.5068045999999999,0.0,0.0,0.0,-27.24529,5.645401000000001,-17.99452,-1.0,0.1611944,0.3908882999999999,0.308529,0.0,0.0,0.0,33.84642,5.085297,-19.20396,-1.0,0.4362333,0.3725924,-1.172682,-47.93658,42.55904,-0.0818768,0.6327339,-0.02735601,0.9164325,-68.5684,34.27
2,-1.0,-1.0,-1.0,0.5068045999999999,0.0,0.0,0.0,-27.24529,5.645401000000001,-17.99452,-1.0,0.1611944,0.3908882999999999,0.308529,0.0,0.0,0.0,33.84642,5.085297,-19.20396,-1.0,0.4362333,0.3725924,-1.172682,-47.93658,42.55904,-0.0818768,0.6327339,-0.02735601,0.9164325,-68.5684,34.27
2,-1.0,-1.0,-1.0,0.728246,0.0,0.0,0.0,-25.82208,7.16539,-17.83012,-1.0,0.3044507999999999,0.311284,0.5959626,0.0,0.0,0.0,35.30144,6.496735,-19.49028,-1.0,0.3529524,0.3209814,-1.1739620000000002,-47.93681,42.56496,-0.07421825,0.6168633000000001,-0.02100283,0.9164325,-68.5684,34.27
2,-1.0,-1.0,-1.0,0.728246,0.0,0.0,0.0,-25.82208,7.16539,-17.83012,-1.0,0.3044507999999999,0.311284,0.5959626,0.0,0.0,0.0,35.30144,6.496735,-19.49028,-1.0,0.3529524,0.3209814,-1.1739620000000002,-47.93681,42.56496,-0.07421825,0.6168633000000001,-0.02100283,0.9164325,-68.5684,34.27
2,-1.0,-1.0,-1.0,0.728246,0.0,0.0,0.0,-25.82208,7.16539,-17.83012,-1.0,0.3044507999999999,0.311284,0.5959626,0.0,0.0,0.0,35.30144,6.496735,-19.49028,-1.0,0.3529524,0.3209814,-1.1739620000000002,-47.93681,42.56496,-0.07421825,0.6168633000000001,-0.02100283,0.9164325,-68.5684,34.27
2,-1.0,-1.0,-1.0,0.8321039000000001,0.0,0.0,0.0,-25.83853,7.225769,-18.18803,-1.0,0.2703444,0.3069336,0.7549139,0.0,0.0,0.0,35.234190000000005,6.521973,-19.45218,-1.0,0.3571685,0.3169431,-1.174934,-47.93691,42.568540000000006,-0.07128499,0.6053841,-0.01899008,0.9164325,27.42516,34.27
2,-1.0,-1.0,-1.0,0.8321039000000001,0.0,0.0,0.0,-25.83853,7.225769,-18.18803,-1.0,0.2703444,0.3069336,0.7549139,0.0,0.0,0.0,35.234190000000005,6.521973,-19.45218,-1.0,0.3571685,0.3169431,-1.174934,-47.93691,42.568540000000006,-0.07128499,0.6053841,-0.01899008,0.9164325,27.42516,34.27
2,-1.0,-1.0,-1.0,0.8321039000000001,0.0,0.0,0.0,-25.83853,7.225769,-18.18803,-1.0,0.2703444,0.3069336,0.7549139,0.0,0.0,0.0,35.234190000000005,6.521973,-19.45218,-1.0,0.3571685,0.3169431,-1.174934,-47.93691,42.568540000000006,-0.07128499,0.6053841,-0.01899008,0.9164325,27.42516,34.27
2,0.5520172,-0.09335327,0.8285828000000002,0.8897847,0.502243,-0.218277,0.8367004000000001,-25.89503,7.225372,-18.23228,2.651077,0.2675767,0.3002405999999999,0.8608380999999999,0.5525055,-0.09196472,0.8283997,35.2594,6.511139,-19.47693,2.8878630000000003,0.356471,0.3077124,-1.175856,-47.936890000000005,42.57224,-0.06898285,0.5925530999999999,-0.01713404,0.9164325,27.42516,34.27
2,0.5520172,-0.09335327,0.8285828000000002,0.8897847,0.502243,-0.218277,0.8367004000000001,-25.89503,7.225372,-18.23228,2.651077,0.2675767,0.3002405999999999,0.8608380999999999,0.5525055,-0.09196472,0.8283997,35.2594,6.511139,-19.47693,2.8878630000000003,0.356471,0.3077124,-1.175856,-47.936890000000005,42.57224,-0.06898285,0.5925530999999999,-0.01713404,0.9164325,27.42516,34.27
2,0.5520172,-0.09335327,0.8285828000000002,0.8897847,0.502243,-0.218277,0.8367004000000001,-25.89503,7.225372,-18.23228,2.651077,0.2675767,0.3002405999999999,0.8608380999999999,0.5525055,-0.09196472,0.8283997,35.2594,6.511139,-19.47693,2.8878630000000003,0.356471,0.3077124,-1.175856,-47.936890000000005,42.57224,-0.06898285,0.5925530999999999,-0.01713404,0.9164325,27.42516,34.27
3,0.5561066,-0.09492493,0.8256683000000001,0.9655756,0.4972229,-0.1708221,0.8506165000000001,-25.77728,7.242905,-18.26685,2.774384,0.2646378,0.2938547,0.9007207,0.5884094,-0.04949951,0.8070374,35.27676,6.547134,-19.535870000000003,2.8684540000000003,0.351267,0.3023696,-1.177118,-47.9371,42.57628,-0.06679311,0.5777438,-0.01512884,0.9164325,27.42516,34.27
3,0.5561066,-0.09492493,0.8256683000000001,0.9655756,0.4972229,-0.1708221,0.8506165000000001,-25.77728,7.242905,-18.26685,2.774384,0.2646378,0.2938547,0.9007207,0.5884094,-0.04949951,0.8070374,35.27676,6.547134,-19.535870000000003,2.8684540000000003,0.351267,0.3023696,-1.177118,-47.9371,42.57628,-0.06679311,0.5777438,-0.01512884,0.9164325,27.42516,34.27
3,0.5561066,-0.09492493,0.8256683000000001,0.9655756,0.4972229,-0.1708221,0.8506165000000001,-25.77728,7.242905,-18.26685,2.774384,0.2646378,0.2938547,0.9007207,0.5884094,-0.04949951,0.8070374,35.27676,6.547134,-19.535870000000003,2.8684540000000003,0.351267,0.3023696,-1.177118,-47.9371,42.57628,-0.06679311,0.5777438,-0.01512884,0.9061825,27.42516,34.27
3,0.4990082,-0.1087341,0.8597412,0.9966013,0.4893646,-0.1292419,0.862442,-26.18724,7.209853999999999,-18.12335,2.914734,0.2794435,0.2891763,0.9113191,0.5057068,-0.09410095,0.8575439,35.07439,6.509491000000001,-19.35214,2.673874,0.3682703,0.3067606,-1.178125,-47.93721,42.58024,-0.06440184,0.5612233,-0.01297022,0.9061825,27.42516,34.27
3,0.4990082,-0.1087341,0.8597412,0.9966013,0.4893646,-0.1292419,0.862442,-26.18724,7.209853999999999,-18.12335,2.914734,0.2794435,0.2891763,0.9113191,0.5057068,-0.09410095,0.8575439,35.07439,6.509491000000001,-19.35214,2.673874,0.3682703,0.3067606,-1.178125,-47.93721,42.58024,-0.06440184,0.5612233,-0.01297022,0.9061825,27.42516,34.27
3,0.4990082,-0.1087341,0.8597412,0.9966013,0.4893646,-0.1292419,0.862442,-26.18724,7.209853999999999,-18.12335,2.914734,0.2794435,0.2891763,0.9113191,0.5057068,-0.09410095,0.8575439,35.07439,6.509491000000001,-19.35214,2.673874,0.3682703,0.3067606,-1.178125,-47.93721,42.58024,-0.06440184,0.5612233,-0.01297022,0.9061825,27.42516,34.27
3,0.4843292,-0.07733154,0.8714447,1.0,0.5168762,-0.09382629,0.8508911,-26.435240000000004,7.24321,-18.07881,3.146912,0.2846285999999999,0.2840687,1.0,0.4720764,-0.07119751,0.8786620999999999,34.82365,6.51532,-19.25261,2.668915,0.3804850999999999,0.3030972,-1.179233,-47.93741,42.58419,-0.06213847,0.5440186,-0.01130453,0.9061825,27.42516,34.27
3,0.4843292,-0.07733154,0.8714447,1.0,0.5168762,-0.09382629,0.8508911,-26.435240000000004,7.24321,-18.07881,3.146912,0.2846285999999999,0.2840687,1.0,0.4720764,-0.07119751,0.8786620999999999,34.82365,6.51532,-19.25261,2.668915,0.3804850999999999,0.3030972,-1.179233,-47.93741,42.58419,-0.06213847,0.5440186,-0.01130453,0.9061825,27.42516,34.27
3,0.4843292,-0.07733154,0.8714447,1.0,0.5168762,-0.09382629,0.8508911,-26.435240000000004,7.24321,-18.07881,3.146912,0.2846285999999999,0.2840687,1.0,0.4720764,-0.07119751,0.8786620999999999,34.82365,6.51532,-19.25261,2.668915,0.3804850999999999,0.3030972,-1.179233,-47.93741,42.58419,-0.06213847,0.5440186,-0.01130453,0.9061825,27.42516,34.27
3,0.4549561,-0.07046509,0.8877106,1.0,0.4275208,-0.07356262,0.901001,-26.6458,7.235564999999999,-17.9124,2.840332,0.3018228,0.2801141,1.0,0.4600983,-0.06988525,0.8851013000000001,34.6291,6.523041,-19.20287,2.371658,0.3880389,0.3022512,-1.180469,-47.93766,42.58787,-0.05985617,0.526504,-0.0102908999999999,0.9061825,27.42516,34.27
3,0.4549561,-0.07046509,0.8877106,1.0,0.4275208,-0.07356262,0.901001,-26.6458,7.235564999999999,-17.9124,2.840332,0.3018228,0.2801141,1.0,0.4600983,-0.06988525,0.8851013000000001,34.6291,6.523041,-19.20287,2.371658,0.3880389,0.3022512,-1.180469,-47.93766,42.58787,-0.05985617,0.526504,-0.0102908999999999,0.9061825,27.42516,34.27
3,0.4549561,-0.07046509,0.8877106,1.0,0.4275208,-0.07356262,0.901001,-26.6458,7.235564999999999,-17.9124,2.840332,0.3018228,0.2801141,1.0,0.4600983,-0.06988525,0.8851013000000001,34.6291,6.523041,-19.20287,2.371658,0.3880389,0.3022512,-1.180469,-47.93766,42.58787,-0.05985617,0.526504,-0.0102908999999999,0.9061825,27.42516,34.27
3,0.4366301999999999,-0.07249451,0.896698,1.0,0.3986815999999999,-0.08724976,0.9129181,-26.74159,7.21524,-17.84509,3.253357,0.309085,0.2817766,1.0,0.4452819999999999,-0.06906128,0.8927155000000001,34.54128,6.511703,-19.17033,2.534943,0.3926995,0.3023028,-1.181798,-47.93816,42.59118,-0.05667869,0.5092439000000001,-0.008649351,0.9061825,30.88243,34.27
3,0.4366301999999999,-0.07249451,0.896698,1.0,0.3986815999999999,-0.08724976,0.9129181,-26.74159,7.21524,-17.84509,3.253357,0.309085,0.2817766,1.0,0.4452819999999999,-0.06906128,0.8927155000000001,34.54128,6.511703,-19.17033,2.534943,0.3926995,0.3023028,-1.181798,-47.93816,42.59118,-0.05667869,0.5092439000000001,-0.008649351,0.9061825,30.88243,34.27
3,0.4366301999999999,-0.07249451,0.896698,1.0,0.3986815999999999,-0.08724976,0.9129181,-26.74159,7.21524,-17.84509,3.253357,0.309085,0.2817766,1.0,0.4452819999999999,-0.06906128,0.8927155000000001,34.54128,6.511703,-19.17033,2.534943,0.3926995,0.3023028,-1.181798,-47.93816,42.59118,-0.05667869,0.5092439000000001,-0.008649351,0.9061825,30.88243,34.27
3,0.5143738,-0.04936218,0.8561401,1.0,0.5060272,-0.0277709999999999,0.8620605,-26.42513,7.271636999999999,-18.07909,3.436295,0.2861402,0.2752686,1.0,0.516571,-0.05517578,0.8544463999999999,34.79187,6.521698000000001,-19.30061,2.70636,0.3759552,0.3017695,-1.18317,-47.93886,42.59412,-0.05332419,0.4917835999999999,-0.007435275,0.9061825,30.88243,34.27
3,0.5143738,-0.04936218,0.8561401,1.0,0.5060272,-0.0277709999999999,0.8620605,-26.42513,7.271636999999999,-18.07909,3.436295,0.2861402,0.2752686,1.0,0.516571,-0.05517578,0.8544463999999999,34.79187,6.521698000000001,-19.30061,2.70636,0.3759552,0.3017695,-1.18317,-47.93886,42.59412,-0.05332419,0.4917835999999999,-0.007435275,0.9061825,30.88243,34.27
3,0.5143738,-0.04936218,0.8561401,1.0,0.5060272,-0.0277709999999999,0.8620605,-26.42513,7.271636999999999,-18.07909,3.436295,0.2861402,0.2752686,1.0,0.516571,-0.05517578,0.8544463999999999,34.79187,6.521698000000001,-19.30061,2.70636,0.3759552,0.3017695,-1.18317,-47.93886,42.59412,-0.05332419,0.4917835999999999,-0.007435275,0.9061825,30.88243,34.27
3,0.5143738,-0.04936218,0.8561401,1.0,0.5060272,-0.0277709999999999,0.8620605,-26.42513,7.271636999999999,-18.07909,3.436295,0.2861402,0.2752686,1.0,0.516571,-0.05517578,0.8544463999999999,34.79187,6.521698000000001,-19.30061,2.70636,0.3759552,0.3017695,-1.184398,-47.93963,42.59705,-0.05026274,0.474108,-0.00716169,0.9061825,30.88243,34.27
3,0.5143738,-0.04936218,0.8561401,1.0,0.5060272,-0.0277709999999999,0.8620605,-26.42513,7.271636999999999,-18.07909,3.436295,0.2861402,0.2752686,1.0,0.516571,-0.05517578,0.8544463999999999,34.79187,6.521698000000001,-19.30061,2.70636,0.3759552,0.3017695,-1.184398,-47.93963,42.59705,-0.05026274,0.474108,-0.00716169,0.9061825,30.88243,34.27
3,0.5143738,-0.04936218,0.8561401,1.0,0.5060272,-0.0277709999999999,0.8620605,-26.42513,7.271636999999999,-18.07909,3.436295,0.2861402,0.2752686,1.0,0.516571,-0.05517578,0.8544463999999999,34.79187,6.521698000000001,-19.30061,2.70636,0.3759552,0.3017695,-1.184398,-47.93963,42.59705,-0.05026274,0.474108,-0.00716169,0.9061825,30.88243,34.27
3,0.466095,-0.05847168,0.8827972,1.0,0.4287109,-0.1068877999999999,0.8970795,-26.61861,7.245621000000001,-17.90065,3.216888,0.3014593,0.2836105,1.0,0.4756622,-0.04563904,0.8784332,34.6041,6.561462,-19.20287,2.73143,0.3870595999999999,0.2985256,-1.185662,-47.94061,42.59984,-0.04665115,0.4565399,-0.008367829,0.9061825,30.88243,34.27
3,0.466095,-0.05847168,0.8827972,1.0,0.4287109,-0.1068877999999999,0.8970795,-26.61861,7.245621000000001,-17.90065,3.216888,0.3014593,0.2836105,1.0,0.4756622,-0.04563904,0.8784332,34.6041,6.561462,-19.20287,2.73143,0.3870595999999999,0.2985256,-1.185662,-47.94061,42.59984,-0.04665115,0.4565399,-0.008367829,0.9061825,30.88243,34.27
3,0.466095,-0.05847168,0.8827972,1.0,0.4287109,-0.1068877999999999,0.8970795,-26.61861,7.245621000000001,-17.90065,3.216888,0.3014593,0.2836105,1.0,0.4756622,-0.04563904,0.8784332,34.6041,6.561462,-19.20287,2.73143,0.3870595999999999,0.2985256,-1.185662,-47.94061,42.59984,-0.04665115,0.4565399,-0.008367829,0.9061825,30.88243,34.27
3,0.4066162,-0.04031372,0.9126892,1.0,0.3856812,-0.09649658,0.9175568,-27.05666,7.213744999999999,-17.74536,2.9823,0.3203316,0.2823572,1.0,0.4113617,-0.02700806,0.9110565,34.21935,6.554442999999999,-19.08894,2.798691,0.4070834,0.2956354,-1.186852,-47.94185,42.60249,-0.04230225,0.4393465999999999,-0.01039391,0.9061825,30.88243,34.27
3,0.4066162,-0.04031372,0.9126892,1.0,0.3856812,-0.09649658,0.9175568,-27.05666,7.213744999999999,-17.74536,2.9823,0.3203316,0.2823572,1.0,0.4113617,-0.02700806,0.9110565,34.21935,6.554442999999999,-19.08894,2.798691,0.4070834,0.2956354,-1.186852,-47.94185,42.60249,-0.04230225,0.4393465999999999,-0.01039391,0.9061825,30.88243,34.27
3,0.4066162,-0.04031372,0.9126892,1.0,0.3856812,-0.09649658,0.9175568,-27.05666,7.213744999999999,-17.74536,2.9823,0.3203316,0.2823572,1.0,0.4113617,-0.02700806,0.9110565,34.21935,6.554442999999999,-19.08894,2.798691,0.4070834,0.2956354,-1.186852,-47.94185,42.60249,-0.04230225,0.4393465999999999,-0.01039391,0.9061825,30.88243,34.27
3,0.3573456,-0.02833557,0.9335327,1.0,0.3385772999999999,-0.09477234,0.936142,-27.2523,7.290131,-17.64505,3.040955,0.3322179999999999,0.2788491,1.0,0.3618164,-0.0115509,0.9321747,34.10027,6.593124,-19.00485,2.9881290000000003,0.4167935,0.2920294,-1.187959,-47.94308,42.60502,-0.03718299,0.4224344,-0.01302611,0.9061825,9.872185,34.27
3,0.3573456,-0.02833557,0.9335327,1.0,0.3385772999999999,-0.09477234,0.936142,-27.2523,7.290131,-17.64505,3.040955,0.3322179999999999,0.2788491,1.0,0.3618164,-0.0115509,0.9321747,34.10027,6.593124,-19.00485,2.9881290000000003,0.4167935,0.2920294,-1.187959,-47.94308,42.60502,-0.03718299,0.4224344,-0.01302611,0.9061825,9.872185,34.27
3,0.3573456,-0.02833557,0.9335327,1.0,0.3385772999999999,-0.09477234,0.936142,-27.2523,7.290131,-17.64505,3.040955,0.3322179999999999,0.2788491,1.0,0.3618164,-0.0115509,0.9321747,34.10027,6.593124,-19.00485,2.9881290000000003,0.4167935,0.2920294,-1.187959,-47.94308,42.60502,-0.03718299,0.4224344,-0.01302611,0.9061825,9.872185,34.27
3,0.2911072,0.02587891,0.9563293,1.0,0.2737732,-0.08062744,0.9584045,-27.52945,7.323958999999999,-17.534589999999998,2.791306,0.3481847,0.2751774,1.0,0.2961273,0.06135559,0.9531708,33.875029999999995,6.673477,-18.9622,2.929825,0.4315744000000001,0.2808852,-1.18934,-47.94453,42.60757,-0.03097894,0.4055248,-0.01572671,0.9061825,9.872185,34.27
3,0.2911072,0.02587891,0.9563293,1.0,0.2737732,-0.08062744,0.9584045,-27.52945,7.323958999999999,-17.534589999999998,2.791306,0.3481847,0.2751774,1.0,0.2961273,0.06135559,0.9531708,33.875029999999995,6.673477,-18.9622,2.929825,0.4315744000000001,0.2808852,-1.18934,-47.94453,42.60757,-0.03097894,0.4055248,-0.01572671,0.9061825,9.872185,34.27
3,0.2911072,0.02587891,0.9563293,1.0,0.2737732,-0.08062744,0.9584045,-27.52945,7.323958999999999,-17.534589999999998,2.791306,0.3481847,0.2751774,1.0,0.2961273,0.06135559,0.9531708,33.875029999999995,6.673477,-18.9622,2.929825,0.4315744000000001,0.2808852,-1.18934,-47.94453,42.60757,-0.03097894,0.4055248,-0.01572671,0.9061825,9.872185,34.27
3,0.2241821,-0.03302002,0.9739838,1.0,0.2086639,-0.04330444,0.9770203000000002,-27.75307,7.390213,-17.45457,3.075928,0.3631174,0.2681875,1.0,0.2408751999999999,-0.0218810999999999,0.9702911,33.64218,6.661652,-18.46501,2.656464,0.445531,0.2872027,-1.190621,-47.94612,42.61023,-0.02360885,0.3889373,-0.01726292,0.9061825,9.872185,34.27
3,0.2241821,-0.03302002,0.9739838,1.0,0.2086639,-0.04330444,0.9770203000000002,-27.75307,7.390213,-17.45457,3.075928,0.3631174,0.2681875,1.0,0.2408751999999999,-0.0218810999999999,0.9702911,33.64218,6.661652,-18.46501,2.656464,0.445531,0.2872027,-1.190621,-47.94612,42.61023,-0.02360885,0.3889373,-0.01726292,0.9061825,9.872185,34.27
3,0.2241821,-0.03302002,0.9739838,1.0,0.2086639,-0.04330444,0.9770203000000002,-27.75307,7.390213,-17.45457,3.075928,0.3631174,0.2681875,1.0,0.2408751999999999,-0.0218810999999999,0.9702911,33.64218,6.661652,-18.46501,2.656464,0.445531,0.2872027,-1.190621,-47.94612,42.61023,-0.02360885,0.3889373,-0.01726292,0.9061825,9.872185,34.27
3,0.2152862999999999,-0.1144408999999999,0.9698181,1.0,0.2137299,-0.1166229,0.9698944,-27.60796,7.142929,-17.47942,3.116028,0.3579665,0.2845315,1.0,0.2692565999999999,-0.03663635,0.9623566,33.64815,6.482742,-18.75665,2.946259,0.4418144,0.2965481,-1.192115,-47.94799,42.61311,-0.01492007,0.3718257,-0.0189783,0.9061825,9.872185,34.27
3,0.2152862999999999,-0.1144408999999999,0.9698181,1.0,0.2137299,-0.1166229,0.9698944,-27.60796,7.142929,-17.47942,3.116028,0.3579665,0.2845315,1.0,0.2692565999999999,-0.03663635,0.9623566,33.64815,6.482742,-18.75665,2.946259,0.4418144,0.2965481,-1.192115,-47.94799,42.61311,-0.01492007,0.3718257,-0.0189783,0.9061825,9.872185,34.27
3,0.2152862999999999,-0.1144408999999999,0.9698181,1.0,0.2137299,-0.1166229,0.9698944,-27.60796,7.142929,-17.47942,3.116028,0.3579665,0.2845315,1.0,0.2692565999999999,-0.03663635,0.9623566,33.64815,6.482742,-18.75665,2.946259,0.4418144,0.2965481,-1.192115,-47.94799,42.61311,-0.01492007,0.3718257,-0.0189783,0.9061825,9.872185,34.27
3,0.3287659,-0.2115478999999999,0.9203949,1.0,0.3267975,-0.2154236,0.9202118,-27.17432,6.7854,-17.69203,2.976379,0.3308370999999999,0.3092705999999999,1.0,0.3594208,-0.149231,0.9211578,33.89168,6.111496,-18.9166,2.716873,0.4234122999999999,0.3221857,-1.193582,-47.94999,42.61625,-0.004549474,0.3543884,-0.01958116,0.9061825,9.872185,34.27
3,0.3287659,-0.2115478999999999,0.9203949,1.0,0.3267975,-0.2154236,0.9202118,-27.17432,6.7854,-17.69203,2.976379,0.3308370999999999,0.3092705999999999,1.0,0.3594208,-0.149231,0.9211578,33.89168,6.111496,-18.9166,2.716873,0.4234122999999999,0.3221857,-1.193582,-47.94999,42.61625,-0.004549474,0.3543884,-0.01958116,0.9061825,9.872185,34.27
3,0.3287659,-0.2115478999999999,0.9203949,1.0,0.3267975,-0.2154236,0.9202118,-27.17432,6.7854,-17.69203,2.976379,0.3308370999999999,0.3092705999999999,1.0,0.3594208,-0.149231,0.9211578,33.89168,6.111496,-18.9166,2.716873,0.4234122999999999,0.3221857,-1.193582,-47.94999,42.61625,-0.004549474,0.3543884,-0.01958116,0.9061825,9.872185,34.27
3,0.3287659,-0.2115478999999999,0.9203949,1.0,0.3267975,-0.2154236,0.9202118,-27.17432,6.7854,-17.69203,2.976379,0.3308370999999999,0.3092705999999999,1.0,0.3594208,-0.149231,0.9211578,33.89168,6.111496,-18.9166,2.716873,0.4234122999999999,0.3221857,-1.194717,-47.95198,42.61962,0.0068315769999999,0.3356348,-0.01992328,0.9061825,-29.41048,34.27
3,0.3287659,-0.2115478999999999,0.9203949,1.0,0.3267975,-0.2154236,0.9202118,-27.17432,6.7854,-17.69203,2.976379,0.3308370999999999,0.3092705999999999,1.0,0.3594208,-0.149231,0.9211578,33.89168,6.111496,-18.9166,2.716873,0.4234122999999999,0.3221857,-1.194717,-47.95198,42.61962,0.0068315769999999,0.3356348,-0.01992328,0.9061825,-29.41048,34.27
3,0.3287659,-0.2115478999999999,0.9203949,1.0,0.3267975,-0.2154236,0.9202118,-27.17432,6.7854,-17.69203,2.976379,0.3308370999999999,0.3092705999999999,1.0,0.3594208,-0.149231,0.9211578,33.89168,6.111496,-18.9166,2.716873,0.4234122999999999,0.3221857,-1.194717,-47.95198,42.61962,0.0068315769999999,0.3356348,-0.01992328,0.9061825,-29.41048,34.27
3,0.5305328,-0.3311005,0.7803191999999999,1.0,0.0,0.0,0.0,-26.36754,6.346893,-18.320970000000003,-1.0,0.2790043,0.3498399,1.0,0.5305328,-0.3311005,0.7803191999999999,34.50302,5.589447,-19.29245,2.859161,0.3823279,0.3642277,-1.196327,-47.95437,42.62316,0.01818397,0.3169566,-0.02087438,0.9061825,-29.41048,34.27
3,0.5305328,-0.3311005,0.7803191999999999,1.0,0.0,0.0,0.0,-26.36754,6.346893,-18.320970000000003,-1.0,0.2790043,0.3498399,1.0,0.5305328,-0.3311005,0.7803191999999999,34.50302,5.589447,-19.29245,2.859161,0.3823279,0.3642277,-1.196327,-47.95437,42.62316,0.01818397,0.3169566,-0.02087438,0.9061825,-29.41048,34.27
3,0.5305328,-0.3311005,0.7803191999999999,1.0,0.0,0.0,0.0,-26.36754,6.346893,-18.320970000000003,-1.0,0.2790043,0.3498399,1.0,0.5305328,-0.3311005,0.7803191999999999,34.50302,5.589447,-19.29245,2.859161,0.3823279,0.3642277,-1.196327,-47.95437,42.62316,0.01818397,0.3169566,-0.02087438,0.9061825,-29.41048,34.27
3,0.516037,-0.3067322,0.7997588999999999,1.0,0.4356842000000001,-0.3775635,0.8170624,-26.50943,6.375763,-18.11153,2.856125,0.2956182,0.3460032,1.0,0.5182952999999999,-0.3045959,0.7991028,34.41937,5.6399230000000005,-19.238570000000003,2.715439,0.3866467,0.3588772999999999,-1.197963,-47.956790000000005,42.62691,0.03049682,0.2978735999999999,-0.02228343,0.9061825,-29.41048,34.27
3,0.516037,-0.3067322,0.7997588999999999,1.0,0.4356842000000001,-0.3775635,0.8170624,-26.50943,6.375763,-18.11153,2.856125,0.2956182,0.3460032,1.0,0.5182952999999999,-0.3045959,0.7991028,34.41937,5.6399230000000005,-19.238570000000003,2.715439,0.3866467,0.3588772999999999,-1.197963,-47.956790000000005,42.62691,0.03049682,0.2978735999999999,-0.02228343,0.9061825,-29.41048,34.27
3,0.516037,-0.3067322,0.7997588999999999,1.0,0.4356842000000001,-0.3775635,0.8170624,-26.50943,6.375763,-18.11153,2.856125,0.2956182,0.3460032,1.0,0.5182952999999999,-0.3045959,0.7991028,34.41937,5.6399230000000005,-19.238570000000003,2.715439,0.3866467,0.3588772999999999,-1.197963,-47.956790000000005,42.62691,0.03049682,0.2978735999999999,-0.02228343,0.9061825,-29.41048,34.27
3,0.4592133,-0.2858582,0.8410492,1.0,0.4102782999999999,-0.3517303,0.8413849,-26.732740000000003,6.438324,-17.98109,2.937912,0.3062253,0.3395314,1.0,0.4630432,-0.2804565,0.8407745000000001,34.30382,5.689758,-19.12236,2.706482,0.3974002,0.3529499,-1.199544,-47.95937,42.63063,0.04334063,0.2779992,-0.0236344,0.9061825,-29.41048,34.27
3,0.4592133,-0.2858582,0.8410492,1.0,0.4102782999999999,-0.3517303,0.8413849,-26.732740000000003,6.438324,-17.98109,2.937912,0.3062253,0.3395314,1.0,0.4630432,-0.2804565,0.8407745000000001,34.30382,5.689758,-19.12236,2.706482,0.3974002,0.3529499,-1.199544,-47.95937,42.63063,0.04334063,0.2779992,-0.0236344,0.9061825,-29.41048,34.27
3,0.4592133,-0.2858582,0.8410492,1.0,0.4102782999999999,-0.3517303,0.8413849,-26.732740000000003,6.438324,-17.98109,2.937912,0.3062253,0.3395314,1.0,0.4630432,-0.2804565,0.8407745000000001,34.30382,5.689758,-19.12236,2.706482,0.3974002,0.3529499,-1.199544,-47.95937,42.63063,0.04334063,0.2779992,-0.0236344,0.9061825,-29.41048,34.27
3,0.4592133,-0.2858582,0.8410492,1.0,0.4102782999999999,-0.3517303,0.8413849,-26.732740000000003,6.438324,-17.98109,2.937912,0.3062253,0.3395314,1.0,0.4630432,-0.2804565,0.8407745000000001,34.30382,5.689758,-19.12236,2.706482,0.3974002,0.3529499,-1.201547,-47.96197,42.63419,0.05531429,0.2599735,-0.0252939,0.9061825,-29.41048,34.27
3,0.4592133,-0.2858582,0.8410492,1.0,0.4102782999999999,-0.3517303,0.8413849,-26.732740000000003,6.438324,-17.98109,2.937912,0.3062253,0.3395314,1.0,0.4630432,-0.2804565,0.8407745000000001,34.30382,5.689758,-19.12236,2.706482,0.3974002,0.3529499,-1.201547,-47.96197,42.63419,0.05531429,0.2599735,-0.0252939,0.9061825,-29.41048,34.27
3,0.4592133,-0.2858582,0.8410492,1.0,0.4102782999999999,-0.3517303,0.8413849,-26.732740000000003,6.438324,-17.98109,2.937912,0.3062253,0.3395314,1.0,0.4630432,-0.2804565,0.8407745000000001,34.30382,5.689758,-19.12236,2.706482,0.3974002,0.3529499,-1.201547,-47.96197,42.63419,0.05531429,0.2599735,-0.0252939,0.9061825,-29.41048,34.27
3,0.4443054,-0.279007,0.8513030999999999,1.0,0.3876038,-0.3484497,0.8534241,-26.90436,6.458435,-17.899,3.008972,0.314615,0.3376633,1.0,0.4481964,-0.2739716,0.8508911,34.23033,5.768875,-19.07335,2.7586060000000003,0.4016347,0.3492235999999999,-1.203525,-47.96461,42.6376,0.06735616,0.2421017,-0.02620193,0.9061825,-41.30452,34.27
3,0.4443054,-0.279007,0.8513030999999999,1.0,0.3876038,-0.3484497,0.8534241,-26.90436,6.458435,-17.899,3.008972,0.314615,0.3376633,1.0,0.4481964,-0.2739716,0.8508911,34.23033,5.768875,-19.07335,2.7586060000000003,0.4016347,0.3492235999999999,-1.203525,-47.96461,42.6376,0.06735616,0.2421017,-0.02620193,0.9061825,-41.30452,34.27
3,0.4443054,-0.279007,0.8513030999999999,1.0,0.3876038,-0.3484497,0.8534241,-26.90436,6.458435,-17.899,3.008972,0.314615,0.3376633,1.0,0.4481964,-0.2739716,0.8508911,34.23033,5.768875,-19.07335,2.7586060000000003,0.4016347,0.3492235999999999,-1.203525,-47.96461,42.6376,0.06735616,0.2421017,-0.02620193,0.9061825,-41.30452,34.27
3,0.4443054,-0.279007,0.8513030999999999,1.0,0.3876038,-0.3484497,0.8534241,-26.90436,6.458435,-17.899,3.008972,0.314615,0.3376633,1.0,0.4481964,-0.2739716,0.8508911,34.23033,5.768875,-19.07335,2.7586060000000003,0.4016347,0.3492235999999999,-1.2056209999999998,-47.967,42.641000000000005,0.07827344,0.2243202,-0.02610764,0.9061825,-41.30452,34.27
3,0.4443054,-0.279007,0.8513030999999999,1.0,0.3876038,-0.3484497,0.8534241,-26.90436,6.458435,-17.899,3.008972,0.314615,0.3376633,1.0,0.4481964,-0.2739716,0.8508911,34.23033,5.768875,-19.07335,2.7586060000000003,0.4016347,0.3492235999999999,-1.2056209999999998,-47.967,42.641000000000005,0.07827344,0.2243202,-0.02610764,0.9061825,-41.30452,34.27
3,0.4443054,-0.279007,0.8513030999999999,1.0,0.3876038,-0.3484497,0.8534241,-26.90436,6.458435,-17.899,3.008972,0.314615,0.3376633,1.0,0.4481964,-0.2739716,0.8508911,34.23033,5.768875,-19.07335,2.7586060000000003,0.4016347,0.3492235999999999,-1.2056209999999998,-47.967,42.641000000000005,0.07827344,0.2243202,-0.02610764,0.9061825,-41.30452,34.27
3,0.3359833,-0.2328338999999999,0.9126282,1.0,0.2773895,-0.3257751,0.9038239,-27.28415,6.561752,-17.65073,2.804291,0.3395109,0.3290972,1.0,0.3457947,-0.2163239,0.9130249,33.72632,5.898193,-18.87105,2.67952,0.4300435999999999,0.336323,-1.207406,-47.96913,42.64394,0.08781268,0.2082565,-0.0253874,0.9061825,-41.30452,34.27
3,0.3359833,-0.2328338999999999,0.9126282,1.0,0.2773895,-0.3257751,0.9038239,-27.28415,6.561752,-17.65073,2.804291,0.3395109,0.3290972,1.0,0.3457947,-0.2163239,0.9130249,33.72632,5.898193,-18.87105,2.67952,0.4300435999999999,0.336323,-1.207406,-47.96913,42.64394,0.08781268,0.2082565,-0.0253874,0.9061825,-41.30452,34.27
3,0.3359833,-0.2328338999999999,0.9126282,1.0,0.2773895,-0.3257751,0.9038239,-27.28415,6.561752,-17.65073,2.804291,0.3395109,0.3290972,1.0,0.3457947,-0.2163239,0.9130249,33.72632,5.898193,-18.87105,2.67952,0.4300435999999999,0.336323,-1.207406,-47.96913,42.64394,0.08781268,0.2082565,-0.0253874,0.9061825,-41.30452,34.27
3,0.3818359,-0.3114624,0.8701476999999999,1.0,0.3114777,-0.3692932,0.8755493000000001,-27.22391,6.389969000000001,-17.75221,2.747177,0.333314,0.3409158,1.0,0.3931122,-0.301712,0.868576,33.80278,5.722626,-18.96089,2.696793,0.4216861,0.3528850999999999,-1.209454,-47.97135,42.64692,0.09732258,0.1928789,-0.02465941,0.9061825,-41.30452,34.27
3,0.3818359,-0.3114624,0.8701476999999999,1.0,0.3114777,-0.3692932,0.8755493000000001,-27.22391,6.389969000000001,-17.75221,2.747177,0.333314,0.3409158,1.0,0.3931122,-0.301712,0.868576,33.80278,5.722626,-18.96089,2.696793,0.4216861,0.3528850999999999,-1.209454,-47.97135,42.64692,0.09732258,0.1928789,-0.02465941,0.9061825,-41.30452,34.27
3,0.3818359,-0.3114624,0.8701476999999999,1.0,0.3114777,-0.3692932,0.8755493000000001,-27.22391,6.389969000000001,-17.75221,2.747177,0.333314,0.3409158,1.0,0.3931122,-0.301712,0.868576,33.80278,5.722626,-18.96089,2.696793,0.4216861,0.3528850999999999,-1.209454,-47.97135,42.64692,0.09732258,0.1928789,-0.02465941,0.9061825,-41.30452,34.27
3,0.3412476,-0.2701416,0.9002991,1.0,0.2948761,-0.3308258,0.8964233,-27.40619,6.466187000000001,-17.65997,2.865616,0.34142,0.3329489,1.0,0.3520508,-0.2553864,0.9004517,33.6971,5.796219000000001,-18.89003,2.786896,0.4300967,0.3442884,-1.211385,-47.97334,42.64951,0.1061308,0.1785791,-0.02392485,0.9061825,-41.30452,34.27
3,0.3412476,-0.2701416,0.9002991,1.0,0.2948761,-0.3308258,0.8964233,-27.40619,6.466187000000001,-17.65997,2.865616,0.34142,0.3329489,1.0,0.3520508,-0.2553864,0.9004517,33.6971,5.796219000000001,-18.89003,2.786896,0.4300967,0.3442884,-1.211385,-47.97334,42.64951,0.1061308,0.1785791,-0.02392485,0.9061825,-41.30452,34.27
3,0.3412476,-0.2701416,0.9002991,1.0,0.2948761,-0.3308258,0.8964233,-27.40619,6.466187000000001,-17.65997,2.865616,0.34142,0.3329489,1.0,0.3520508,-0.2553864,0.9004517,33.6971,5.796219000000001,-18.89003,2.786896,0.4300967,0.3442884,-1.211385,-47.97334,42.64951,0.1061308,0.1785791,-0.02392485,0.9061825,-41.30452,34.27
3,0.3265991,-0.2348632999999999,0.9155121,1.0,0.2716369999999999,-0.2946014,0.9161835,-27.641240000000003,6.517258,-17.570220000000003,3.001999,0.351909,0.3261640999999999,1.0,0.3410492,-0.2184906,0.9142914,33.53754,5.91362,-18.8382,2.772614,0.4365282,0.3359140999999999,-1.213445,-47.97562,42.65178,0.1143892,0.1658237,-0.02282682,0.9061825,35.47344,34.27
3,0.3265991,-0.2348632999999999,0.9155121,1.0,0.2716369999999999,-0.2946014,0.9161835,-27.641240000000003,6.517258,-17.570220000000003,3.001999,0.351909,0.3261640999999999,1.0,0.3410492,-0.2184906,0.9142914,33.53754,5.91362,-18.8382,2.772614,0.4365282,0.3359140999999999,-1.213445,-47.97562,42.65178,0.1143892,0.1658237,-0.02282682,0.9061825,35.47344,34.27
3,0.3265991,-0.2348632999999999,0.9155121,1.0,0.2716369999999999,-0.2946014,0.9161835,-27.641240000000003,6.517258,-17.570220000000003,3.001999,0.351909,0.3261640999999999,1.0,0.3410492,-0.2184906,0.9142914,33.53754,5.91362,-18.8382,2.772614,0.4365282,0.3359140999999999,-1.213445,-47.97562,42.65178,0.1143892,0.1658237,-0.02282682,0.9061825,35.47344,34.27
3,0.2651825,-0.2405701,0.9337006,1.0,0.2135925,-0.2856902999999999,0.9342041,-27.74509,6.527267,-17.506420000000002,2.737793,0.3615050999999999,0.324113,1.0,0.2841949,-0.2233582,0.932373,33.431490000000004,5.947144000000001,-18.78957,2.66246,0.4465170999999999,0.3348645999999999,-1.215282,-47.97768,42.65385,0.1224491,0.1542917999999999,-0.02209608,0.9061825,35.47344,34.27
3,0.2651825,-0.2405701,0.9337006,1.0,0.2135925,-0.2856902999999999,0.9342041,-27.74509,6.527267,-17.506420000000002,2.737793,0.3615050999999999,0.324113,1.0,0.2841949,-0.2233582,0.932373,33.431490000000004,5.947144000000001,-18.78957,2.66246,0.4465170999999999,0.3348645999999999,-1.215282,-47.97768,42.65385,0.1224491,0.1542917999999999,-0.02209608,0.9061825,35.47344,34.27
3,0.2651825,-0.2405701,0.9337006,1.0,0.2135925,-0.2856902999999999,0.9342041,-27.74509,6.527267,-17.506420000000002,2.737793,0.3615050999999999,0.324113,1.0,0.2841949,-0.2233582,0.932373,33.431490000000004,5.947144000000001,-18.78957,2.66246,0.4465170999999999,0.3348645999999999,-1.215282,-47.97768,42.65385,0.1224491,0.1542917999999999,-0.02209608,0.9061825,35.47344,34.27
3,0.2651825,-0.2405701,0.9337006,1.0,0.2135925,-0.2856902999999999,0.9342041,-27.74509,6.527267,-17.506420000000002,2.737793,0.3615050999999999,0.324113,1.0,0.2841949,-0.2233582,0.932373,33.431490000000004,5.947144000000001,-18.78957,2.66246,0.4465170999999999,0.3348645999999999,-1.216958,-47.97976,42.65554,0.1299258,0.1435616,-0.02132251,0.9061825,35.47344,34.27
3,0.2651825,-0.2405701,0.9337006,1.0,0.2135925,-0.2856902999999999,0.9342041,-27.74509,6.527267,-17.506420000000002,2.737793,0.3615050999999999,0.324113,1.0,0.2841949,-0.2233582,0.932373,33.431490000000004,5.947144000000001,-18.78957,2.66246,0.4465170999999999,0.3348645999999999,-1.216958,-47.97976,42.65554,0.1299258,0.1435616,-0.02132251,0.9061825,35.47344,34.27
3,0.2651825,-0.2405701,0.9337006,1.0,0.2135925,-0.2856902999999999,0.9342041,-27.74509,6.527267,-17.506420000000002,2.737793,0.3615050999999999,0.324113,1.0,0.2841949,-0.2233582,0.932373,33.431490000000004,5.947144000000001,-18.78957,2.66246,0.4465170999999999,0.3348645999999999,-1.216958,-47.97976,42.65554,0.1299258,0.1435616,-0.02132251,0.9061825,35.47344,34.27
3,0.1726532,-0.1761322,0.969101,1.0,0.1325226,-0.1878815,0.9732056,-28.08521,6.728714,-17.36121,2.8847810000000003,0.3818484,0.3049989,1.0,0.186264,-0.1720428,0.9673157,33.133790000000005,6.14946,-18.759220000000003,2.742203,0.4671816,0.3222554,-1.218379,-47.9817,42.65678,0.1372747,0.1340338,-0.02090434,0.9061825,35.47344,34.27
3,0.1726532,-0.1761322,0.969101,1.0,0.1325226,-0.1878815,0.9732056,-28.08521,6.728714,-17.36121,2.8847810000000003,0.3818484,0.3049989,1.0,0.186264,-0.1720428,0.9673157,33.133790000000005,6.14946,-18.759220000000003,2.742203,0.4671816,0.3222554,-1.218379,-47.9817,42.65678,0.1372747,0.1340338,-0.02090434,0.9061825,35.47344,34.27
3,0.1726532,-0.1761322,0.969101,1.0,0.1325226,-0.1878815,0.9732056,-28.08521,6.728714,-17.36121,2.8847810000000003,0.3818484,0.3049989,1.0,0.186264,-0.1720428,0.9673157,33.133790000000005,6.14946,-18.759220000000003,2.742203,0.4671816,0.3222554,-1.218379,-47.9817,42.65678,0.1372747,0.1340338,-0.02090434,0.9061825,35.47344,34.27
3,0.08251953,-0.1530457,0.9847565,1.0,0.07937622,-0.1543732,0.9848021999999998,-28.26698,6.793671000000001,-17.36469,3.020416,0.3936947,0.2990637,1.0,0.156189,-0.1211853,0.9802551,32.95633,6.239685,-18.85088,2.733047,0.4761789,0.3142375999999999,-1.216569,-47.98146,42.65718,0.1436059999999999,0.1253464,-0.02090719,0.9061825,35.47344,34.27
3,0.08251953,-0.1530457,0.9847565,1.0,0.07937622,-0.1543732,0.9848021999999998,-28.26698,6.793671000000001,-17.36469,3.020416,0.3936947,0.2990637,1.0,0.156189,-0.1211853,0.9802551,32.95633,6.239685,-18.85088,2.733047,0.4761789,0.3142375999999999,-1.216569,-47.98146,42.65718,0.1436059999999999,0.1253464,-0.02090719,0.9061825,35.47344,34.27
3,0.08251953,-0.1530457,0.9847565,1.0,0.07937622,-0.1543732,0.9848021999999998,-28.26698,6.793671000000001,-17.36469,3.020416,0.3936947,0.2990637,1.0,0.156189,-0.1211853,0.9802551,32.95633,6.239685,-18.85088,2.733047,0.4761789,0.3142375999999999,-1.216569,-47.98146,42.65718,0.1436059999999999,0.1253464,-0.02090719,0.9061825,35.47344,34.27
3,0.1132965,-0.07550049,0.9906769,1.0,0.04838562,-0.1132965,0.9923706,-28.4718,6.938019000000001,-17.71619,3.116425,0.4035677,0.2922243,1.0,0.1152039,-0.0743866,0.9905396,32.72592,6.37294,-18.90138,2.873184,0.4879617999999999,0.3052354,-1.214929,-47.98108,42.65744,0.1478058,0.1173333,-0.02090149,0.9061825,25.19345,34.27
3,0.1132965,-0.07550049,0.9906769,1.0,0.04838562,-0.1132965,0.9923706,-28.4718,6.938019000000001,-17.71619,3.116425,0.4035677,0.2922243,1.0,0.1152039,-0.0743866,0.9905396,32.72592,6.37294,-18.90138,2.873184,0.4879617999999999,0.3052354,-1.214929,-47.98108,42.65744,0.1478058,0.1173333,-0.02090149,0.9061825,25.19345,34.27
3,0.1132965,-0.07550049,0.9906769,1.0,0.04838562,-0.1132965,0.9923706,-28.4718,6.938019000000001,-17.71619,3.116425,0.4035677,0.2922243,1.0,0.1152039,-0.0743866,0.9905396,32.72592,6.37294,-18.90138,2.873184,0.4879617999999999,0.3052354,-1.214929,-47.98108,42.65744,0.1478058,0.1173333,-0.02090149,0.9061825,25.19345,34.27
4,0.1047516,-0.06175232,0.992569,1.0,0.03413391,-0.1114655,0.9931793,-28.54956,6.905807000000001,-17.564320000000002,2.981842,0.4075429,0.2920167,1.0,0.1053009,-0.06135559,0.9925385,32.697340000000004,6.306671,-18.69716,2.662476,0.4901465,0.3044116,-1.213571,-47.98061,42.65732,0.1516652,0.1096378,-0.02062988,0.9061825,25.19345,34.27
4,0.1047516,-0.06175232,0.992569,1.0,0.03413391,-0.1114655,0.9931793,-28.54956,6.905807000000001,-17.564320000000002,2.981842,0.4075429,0.2920167,1.0,0.1053009,-0.06135559,0.9925385,32.697340000000004,6.306671,-18.69716,2.662476,0.4901465,0.3044116,-1.213571,-47.98061,42.65732,0.1516652,0.1096378,-0.02062988,0.9061825,25.19345,34.27
4,0.1047516,-0.06175232,0.992569,1.0,0.03413391,-0.1114655,0.9931793,-28.54956,6.905807000000001,-17.564320000000002,2.981842,0.4075429,0.2920167,1.0,0.1053009,-0.06135559,0.9925385,32.697340000000004,6.306671,-18.69716,2.662476,0.4901465,0.3044116,-1.213571,-47.98061,42.65732,0.1516652,0.1096378,-0.02062988,0.9061825,25.19345,34.27
4,0.05511475,-0.08752441,0.9946289,1.0,-0.01182556,-0.09915161,0.9949951,-28.67978,6.891571000000001,-17.242,2.937775,0.4168275999999999,0.2889799,1.0,0.09417725,-0.08052063,0.9922791,32.56606,6.283569,-18.38324,2.571899,0.4955936999999999,0.3052831,-1.213734,-47.98095,42.65731,0.1539971,0.1023655,-0.02060314,0.9061825,25.19345,34.27
4,0.05511475,-0.08752441,0.9946289,1.0,-0.01182556,-0.09915161,0.9949951,-28.67978,6.891571000000001,-17.242,2.937775,0.4168275999999999,0.2889799,1.0,0.09417725,-0.08052063,0.9922791,32.56606,6.283569,-18.38324,2.571899,0.4955936999999999,0.3052831,-1.213734,-47.98095,42.65731,0.1539971,0.1023655,-0.02060314,0.9061825,25.19345,34.27
4,0.05511475,-0.08752441,0.9946289,1.0,-0.01182556,-0.09915161,0.9949951,-28.67978,6.891571000000001,-17.242,2.937775,0.4168275999999999,0.2889799,1.0,0.09417725,-0.08052063,0.9922791,32.56606,6.283569,-18.38324,2.571899,0.4955936999999999,0.3052831,-1.213734,-47.98095,42.65731,0.1539971,0.1023655,-0.02060314,0.9061825,25.19345,34.27
4,0.08131409,-0.04284668,0.9957581,1.0,0.07116699,-0.0484314,0.9962769,-28.46846,7.092377000000001,-17.86482,3.023422,0.4008265,0.2809665,1.0,0.1273193,-0.0174408,0.9916992,32.82571,6.541504,-19.32594,2.4725650000000003,0.4836884,0.2960519,-1.214643,-47.98149,42.65702,0.1551289,0.09537239,-0.02063205,0.9061825,25.19345,34.27
4,0.08131409,-0.04284668,0.9957581,1.0,0.07116699,-0.0484314,0.9962769,-28.46846,7.092377000000001,-17.86482,3.023422,0.4008265,0.2809665,1.0,0.1273193,-0.0174408,0.9916992,32.82571,6.541504,-19.32594,2.4725650000000003,0.4836884,0.2960519,-1.214643,-47.98149,42.65702,0.1551289,0.09537239,-0.02063205,0.9061825,25.19345,34.27
4,0.08131409,-0.04284668,0.9957581,1.0,0.07116699,-0.0484314,0.9962769,-28.46846,7.092377000000001,-17.86482,3.023422,0.4008265,0.2809665,1.0,0.1273193,-0.0174408,0.9916992,32.82571,6.541504,-19.32594,2.4725650000000003,0.4836884,0.2960519,-1.214643,-47.98149,42.65702,0.1551289,0.09537239,-0.02063205,0.9061825,25.19345,34.27
4,0.2530212,-0.04286194,0.966507,1.0,0.2528534,-0.04299927,0.9665375,-27.77048,7.063782000000001,-17.56615,3.03096,0.3585637,0.2794445,1.0,0.317627,0.01019287,0.9481506,33.399,6.384918,-18.89565,2.871796,0.4439498999999999,0.2953949999999999,-1.214748,-47.98149,42.65615,0.1562733999999999,0.08808166,-0.01983708,0.9061825,25.19345,34.27
4,0.2530212,-0.04286194,0.966507,1.0,0.2528534,-0.04299927,0.9665375,-27.77048,7.063782000000001,-17.56615,3.03096,0.3585637,0.2794445,1.0,0.317627,0.01019287,0.9481506,33.399,6.384918,-18.89565,2.871796,0.4439498999999999,0.2953949999999999,-1.214748,-47.98149,42.65615,0.1562733999999999,0.08808166,-0.01983708,0.9061825,25.19345,34.27
4,0.2530212,-0.04286194,0.966507,1.0,0.2528534,-0.04299927,0.9665375,-27.77048,7.063782000000001,-17.56615,3.03096,0.3585637,0.2794445,1.0,0.317627,0.01019287,0.9481506,33.399,6.384918,-18.89565,2.871796,0.4439498999999999,0.2953949999999999,-1.214748,-47.98149,42.65615,0.1562733999999999,0.08808166,-0.01983708,0.9061825,25.19345,34.27
4,0.4198914000000001,-0.07284546,0.9046326,1.0,0.4076385,-0.08300781,0.9093475,-27.05106,7.010513,-17.831120000000002,3.185944,0.3178975999999999,0.2880509,1.0,0.4561768,-0.04205322,0.8888855,34.02373,6.264419999999999,-19.00986,2.7798,0.4078193,0.3062954,-1.214697,-47.98131,42.65505,0.1573252,0.07981551,-0.01784399,0.9061825,-3.548454,34.27
4,0.4198914000000001,-0.07284546,0.9046326,1.0,0.4076385,-0.08300781,0.9093475,-27.05106,7.010513,-17.831120000000002,3.185944,0.3178975999999999,0.2880509,1.0,0.4561768,-0.04205322,0.8888855,34.02373,6.264419999999999,-19.00986,2.7798,0.4078193,0.3062954,-1.214697,-47.98131,42.65505,0.1573252,0.07981551,-0.01784399,0.9061825,-3.548454,34.27
4,0.4198914000000001,-0.07284546,0.9046326,1.0,0.4076385,-0.08300781,0.9093475,-27.05106,7.010513,-17.831120000000002,3.185944,0.3178975999999999,0.2880509,1.0,0.4561768,-0.04205322,0.8888855,34.02373,6.264419999999999,-19.00986,2.7798,0.4078193,0.3062954,-1.214697,-47.98131,42.65505,0.1573252,0.07981551,-0.01784399,0.9061825,-3.548454,34.27
4,0.4198914000000001,-0.07284546,0.9046326,1.0,0.4076385,-0.08300781,0.9093475,-27.05106,7.010513,-17.831120000000002,3.185944,0.3178975999999999,0.2880509,1.0,0.4561768,-0.04205322,0.8888855,34.02373,6.264419999999999,-19.00986,2.7798,0.4078193,0.3062954,-1.216694,-47.98155,42.65249,0.1588757999999999,0.06406203,-0.0170833,0.9061825,-3.548454,34.27
4,0.4198914000000001,-0.07284546,0.9046326,1.0,0.4076385,-0.08300781,0.9093475,-27.05106,7.010513,-17.831120000000002,3.185944,0.3178975999999999,0.2880509,1.0,0.4561768,-0.04205322,0.8888855,34.02373,6.264419999999999,-19.00986,2.7798,0.4078193,0.3062954,-1.216694,-47.98155,42.65249,0.1588757999999999,0.06406203,-0.0170833,0.9061825,-3.548454,34.27
4,0.4198914000000001,-0.07284546,0.9046326,1.0,0.4076385,-0.08300781,0.9093475,-27.05106,7.010513,-17.831120000000002,3.185944,0.3178975999999999,0.2880509,1.0,0.4561768,-0.04205322,0.8888855,34.02373,6.264419999999999,-19.00986,2.7798,0.4078193,0.3062954,-1.216694,-47.98155,42.65249,0.1588757999999999,0.06406203,-0.0170833,0.9061825,-3.548454,34.27
4,0.4336242999999999,-0.06828308,0.8984833000000001,1.0,0.4051819,-0.101181,0.9086151,-27.098540000000003,7.0053410000000005,-17.816270000000003,3.040619,0.3194515999999999,0.2902444,1.0,0.458847,-0.03811646,0.8876801,34.0127,6.275833,-19.00967,2.885834,0.4078825,0.3055676,-1.216569,-47.98129,42.65088,0.1596496,0.0563091,-0.01765215,0.9061825,-3.548454,34.27
4,0.4336242999999999,-0.06828308,0.8984833000000001,1.0,0.4051819,-0.101181,0.9086151,-27.098540000000003,7.0053410000000005,-17.816270000000003,3.040619,0.3194515999999999,0.2902444,1.0,0.458847,-0.03811646,0.8876801,34.0127,6.275833,-19.00967,2.885834,0.4078825,0.3055676,-1.216569,-47.98129,42.65088,0.1596496,0.0563091,-0.01765215,0.9061825,-3.548454,34.27
4,0.4336242999999999,-0.06828308,0.8984833000000001,1.0,0.4051819,-0.101181,0.9086151,-27.098540000000003,7.0053410000000005,-17.816270000000003,3.040619,0.3194515999999999,0.2902444,1.0,0.458847,-0.03811646,0.8876801,34.0127,6.275833,-19.00967,2.885834,0.4078825,0.3055676,-1.216569,-47.98129,42.65088,0.1596496,0.0563091,-0.01765215,0.9061825,-3.548454,34.27
4,0.3540649,-0.04666138,0.9340515,1.0,0.3186188,-0.07723999,0.9447174,-27.340770000000003,7.052567,-17.67258,3.032669,0.3373383,0.2845202,1.0,0.3687285999999999,-0.03375244,0.9289093,33.86978,6.341583,-18.89627,2.725754,0.4232093,0.301695,-1.217174,-47.98151,42.6493,0.1610917999999999,0.04922008,-0.01868713,0.9061825,-3.548454,34.27
4,0.3540649,-0.04666138,0.9340515,1.0,0.3186188,-0.07723999,0.9447174,-27.340770000000003,7.052567,-17.67258,3.032669,0.3373383,0.2845202,1.0,0.3687285999999999,-0.03375244,0.9289093,33.86978,6.341583,-18.89627,2.725754,0.4232093,0.301695,-1.217174,-47.98151,42.6493,0.1610917999999999,0.04922008,-0.01868713,0.9061825,-3.548454,34.27
4,0.3540649,-0.04666138,0.9340515,1.0,0.3186188,-0.07723999,0.9447174,-27.340770000000003,7.052567,-17.67258,3.032669,0.3373383,0.2845202,1.0,0.3687285999999999,-0.03375244,0.9289093,33.86978,6.341583,-18.89627,2.725754,0.4232093,0.301695,-1.217174,-47.98151,42.6493,0.1610917999999999,0.04922008,-0.01868713,0.9061825,-3.548454,34.27
4,0.3357390999999999,-0.04258728,0.940979,1.0,0.3185272,-0.07263184,0.9451141,-27.44386,7.06279,-17.65373,2.901123,0.3404368,0.2835869,1.0,0.3443297999999999,-0.02731323,0.938446,33.79015,6.359909,-18.86511,2.698227,0.4286047,0.3000879,-1.2183959999999998,-47.98228,42.64783,0.1633331,0.04257385,-0.01875637,0.9061825,-3.548454,34.27
4,0.3357390999999999,-0.04258728,0.940979,1.0,0.3185272,-0.07263184,0.9451141,-27.44386,7.06279,-17.65373,2.901123,0.3404368,0.2835869,1.0,0.3443297999999999,-0.02731323,0.938446,33.79015,6.359909,-18.86511,2.698227,0.4286047,0.3000879,-1.2183959999999998,-47.98228,42.64783,0.1633331,0.04257385,-0.01875637,0.9061825,-3.548454,34.27
4,0.3357390999999999,-0.04258728,0.940979,1.0,0.3185272,-0.07263184,0.9451141,-27.44386,7.06279,-17.65373,2.901123,0.3404368,0.2835869,1.0,0.3443297999999999,-0.02731323,0.938446,33.79015,6.359909,-18.86511,2.698227,0.4286047,0.3000879,-1.2183959999999998,-47.98228,42.64783,0.1633331,0.04257385,-0.01875637,0.9061825,-3.548454,34.27
4,0.420517,-0.2944489,0.8581696,1.0,0.3831482,-0.342926,0.8576507999999999,-27.05092,6.132782,-17.965770000000003,2.941757,0.3196332,0.3478202999999999,1.0,0.4264984,-0.286377,0.8579406999999999,33.65863,5.464798,-19.01015,2.8281560000000003,0.4221587,0.3597137,-1.2169450000000002,-47.98197,42.64584,0.1665851,0.03592457,-0.01842534,0.9061825,-3.548454,34.27
4,0.420517,-0.2944489,0.8581696,1.0,0.3831482,-0.342926,0.8576507999999999,-27.05092,6.132782,-17.965770000000003,2.941757,0.3196332,0.3478202999999999,1.0,0.4264984,-0.286377,0.8579406999999999,33.65863,5.464798,-19.01015,2.8281560000000003,0.4221587,0.3597137,-1.2169450000000002,-47.98197,42.64584,0.1665851,0.03592457,-0.01842534,0.9061825,-3.548454,34.27
4,0.420517,-0.2944489,0.8581696,1.0,0.3831482,-0.342926,0.8576507999999999,-27.05092,6.132782,-17.965770000000003,2.941757,0.3196332,0.3478202999999999,1.0,0.4264984,-0.286377,0.8579406999999999,33.65863,5.464798,-19.01015,2.8281560000000003,0.4221587,0.3597137,-1.2169450000000002,-47.98197,42.64584,0.1665851,0.03592457,-0.01842534,0.9061825,-3.548454,34.27
4,-1.0,-1.0,-1.0,1.0,0.0,0.0,0.0,-26.78696,5.495132,-18.4357,-1.0,0.3077548,0.4059505,1.0,0.0,0.0,0.0,33.68008,4.79689,-19.34761,-1.0,0.4195608,0.4185096,-1.216007,-47.98194,42.64414,0.1705392,0.02964198,-0.01736362,0.9061825,-55.40383,34.27
4,-1.0,-1.0,-1.0,1.0,0.0,0.0,0.0,-26.78696,5.495132,-18.4357,-1.0,0.3077548,0.4059505,1.0,0.0,0.0,0.0,33.68008,4.79689,-19.34761,-1.0,0.4195608,0.4185096,-1.216007,-47.98194,42.64414,0.1705392,0.02964198,-0.01736362,0.9061825,-55.40383,34.27
4,-1.0,-1.0,-1.0,1.0,0.0,0.0,0.0,-26.78696,5.495132,-18.4357,-1.0,0.3077548,0.4059505,1.0,0.0,0.0,0.0,33.68008,4.79689,-19.34761,-1.0,0.4195608,0.4185096,-1.216007,-47.98194,42.64414,0.1705392,0.02964198,-0.01736362,0.9061825,-55.40383,34.27
4,-1.0,-1.0,-1.0,0.9492168,0.0,0.0,0.0,-26.65585,5.344254,-18.68199,-1.0,0.2966442,0.4204896999999999,0.5622694,0.0,0.0,0.0,33.8389,4.69339,-19.46497,-1.0,0.4131427,0.4294636999999999,-1.216104,-47.98247,42.64294,0.1746646,0.02341937,-0.01604703,0.9061825,-55.40383,34.27
4,-1.0,-1.0,-1.0,0.9492168,0.0,0.0,0.0,-26.65585,5.344254,-18.68199,-1.0,0.2966442,0.4204896999999999,0.5622694,0.0,0.0,0.0,33.8389,4.69339,-19.46497,-1.0,0.4131427,0.4294636999999999,-1.216104,-47.98247,42.64294,0.1746646,0.02341937,-0.01604703,0.9061825,-55.40383,34.27
4,-1.0,-1.0,-1.0,0.9492168,0.0,0.0,0.0,-26.65585,5.344254,-18.68199,-1.0,0.2966442,0.4204896999999999,0.5622694,0.0,0.0,0.0,33.8389,4.69339,-19.46497,-1.0,0.4131427,0.4294636999999999,-1.216104,-47.98247,42.64294,0.1746646,0.02341937,-0.01604703,0.9061825,-55.40383,34.27
4,-1.0,-1.0,-1.0,0.9324166,0.0,0.0,0.0,-26.65007,5.319808999999999,-18.70624,-1.0,0.2960845,0.4221187,0.551847,0.0,0.0,0.0,33.85086,4.609192,-19.51627,-1.0,0.4130844,0.4343734,-1.2154790000000002,-47.98286,42.64187,0.178767,0.01651472,-0.01439654,0.9061825,-55.40383,34.27
4,-1.0,-1.0,-1.0,0.9324166,0.0,0.0,0.0,-26.65007,5.319808999999999,-18.70624,-1.0,0.2960845,0.4221187,0.551847,0.0,0.0,0.0,33.85086,4.609192,-19.51627,-1.0,0.4130844,0.4343734,-1.2154790000000002,-47.98286,42.64187,0.178767,0.01651472,-0.01439654,0.9061825,-55.40383,34.27
