Second,eye_comb_direction_x,eye_comb_direction_y,eye_comb_direction_z,eye_r_openness,eye_r_direction_x,eye_r_direction_y,eye_r_direction_z,eye_r_origin_x,eye_r_origin_y,eye_r_origin_z,eye_r_pupil_diameter,eye_r_pupil_position_x,eye_r_pupil_position_y,eye_l_openness,eye_l_direction_x,eye_l_direction_y,eye_l_direction_z,eye_l_origin_x,eye_l_origin_y,eye_l_origin_z,eye_l_pupil_diameter,eye_l_pupil_position_x,eye_l_pupil_position_y,head_position_x,head_position_y,head_position_z,head_rotation_roll,head_rotation_pitch,head_rotation_yaw,EDA,BVP,TMP
0,-0.2717133,-0.3015289,0.9139099,0.87476,-0.3527069,-0.306076,0.8842468000000001,-31.70015,1.688705,-21.44307,4.14035,0.5517404,0.5119667,0.911442,-0.2225494,-0.2977599999999999,0.9283295,34.14761,1.792038,-20.22302,4.252838,0.4774017,0.4852992,0.4031032,0.691814,0.1820952,-0.06611998,0.8076502,0.02274442,10.7380943329862,0.41402700868706066,32.235902108825826
0,-0.2717133,-0.3015289,0.9139099,0.87476,-0.3527069,-0.306076,0.8842468000000001,-31.70015,1.688705,-21.44307,4.14035,0.5517404,0.5119667,0.911442,-0.2225494,-0.2977599999999999,0.9283295,34.14761,1.792038,-20.22302,4.252838,0.4774017,0.4852992,0.4031032,0.691814,0.1820952,-0.06611998,0.8076502,0.02274442,10.7380943329862,0.41402700868706066,32.235902108825826
0,-0.2717133,-0.3015289,0.9139099,0.87476,-0.3527069,-0.306076,0.8842468000000001,-31.70015,1.688705,-21.44307,4.14035,0.5517404,0.5119667,0.911442,-0.2225494,-0.2977599999999999,0.9283295,34.14761,1.792038,-20.22302,4.252838,0.4774017,0.4852992,0.4031032,0.691814,0.1820952,-0.06611998,0.8076502,0.02274442,10.7380943329862,0.41402700868706066,32.235902108825826
0,-0.2717133,-0.3015289,0.9139099,0.87476,-0.3527069,-0.306076,0.8842468000000001,-31.70015,1.688705,-21.44307,4.14035,0.5517404,0.5119667,0.911442,-0.2225494,-0.2977599999999999,0.9283295,34.14761,1.792038,-20.22302,4.252838,0.4774017,0.4852992,0.4031032,0.691814,0.1820952,-0.06611998,0.8076502,0.02274442,10.7380943329862,0.41402700868706066,32.235902108825826
0,-0.2632904,-0.3052672999999999,0.9151306,0.8927655000000001,-0.3475189,-0.3083344,0.8855133,-31.70818,1.702789,-21.42722,4.11348,0.5513899,0.5115913,0.9162196,-0.2101897999999999,-0.3021545,0.9297791,34.16022,1.815689,-20.2195,4.199294999999999,0.4757295,0.4849274999999999,0.4031836,0.6918350000000001,0.1819431,-0.06654338,0.8076956999999999,0.02305368,10.7380943329862,0.41402700868706066,32.235902108825826
0,-0.2632904,-0.3052672999999999,0.9151306,0.8927655000000001,-0.3475189,-0.3083344,0.8855133,-31.70818,1.702789,-21.42722,4.11348,0.5513899,0.5115913,0.9162196,-0.2101897999999999,-0.3021545,0.9297791,34.16022,1.815689,-20.2195,4.199294999999999,0.4757295,0.4849274999999999,0.4031836,0.6918350000000001,0.1819431,-0.06654338,0.8076956999999999,0.02305368,10.7380943329862,0.41402700868706066,32.235902108825826
0,-0.2632904,-0.3052672999999999,0.9151306,0.8927655000000001,-0.3475189,-0.3083344,0.8855133,-31.70818,1.702789,-21.42722,4.11348,0.5513899,0.5115913,0.9162196,-0.2101897999999999,-0.3021545,0.9297791,34.16022,1.815689,-20.2195,4.199294999999999,0.4757295,0.4849274999999999,0.4031836,0.6918350000000001,0.1819431,-0.06654338,0.8076956999999999,0.02305368,10.7380943329862,0.41402700868706066,32.235902108825826
0,-0.2626800999999999,-0.3058167,0.9151154,0.8423110999999999,-0.3470154,-0.3076477,0.8859558000000001,-31.70898,1.7027439999999998,-21.42421,4.11499,0.5513531,0.5114784000000001,0.9357904,-0.2097931,-0.3034821,0.9294434,34.16168,1.821442,-20.21965,4.191284,0.4756515999999999,0.4849004,0.4031249,0.6918346,0.1817904,-0.06681496,0.8079161,0.02304512,10.7380943329862,0.41402700868706066,32.235902108825826
0,-0.2626800999999999,-0.3058167,0.9151154,0.8423110999999999,-0.3470154,-0.3076477,0.8859558000000001,-31.70898,1.7027439999999998,-21.42421,4.11499,0.5513531,0.5114784000000001,0.9357904,-0.2097931,-0.3034821,0.9294434,34.16168,1.821442,-20.21965,4.191284,0.4756515999999999,0.4849004,0.4031249,0.6918346,0.1817904,-0.06681496,0.8079161,0.02304512,10.7380943329862,0.41402700868706066,32.235902108825826
0,-0.2626800999999999,-0.3058167,0.9151154,0.8423110999999999,-0.3470154,-0.3076477,0.8859558000000001,-31.70898,1.7027439999999998,-21.42421,4.11499,0.5513531,0.5114784000000001,0.9357904,-0.2097931,-0.3034821,0.9294434,34.16168,1.821442,-20.21965,4.191284,0.4756515999999999,0.4849004,0.4031249,0.6918346,0.1817904,-0.06681496,0.8079161,0.02304512,10.7380943329862,0.41402700868706066,32.235902108825826
0,-0.2612762,-0.302536,0.9166107,0.8581396000000001,-0.3455048,-0.3057250999999999,0.887207,-31.71581,1.703537,-21.41701,4.105835,0.5513899,0.5111462,0.9285544,-0.2085266,-0.2993927,0.9310455,34.16621,1.825638,-20.22302,4.109238,0.4754890999999999,0.4842894,0.403132,0.6917439000000001,0.1816553,-0.0662771,0.8081519,0.02264331,10.7380943329862,0.41402700868706066,32.235902108825826
0,-0.2612762,-0.302536,0.9166107,0.8581396000000001,-0.3455048,-0.3057250999999999,0.887207,-31.71581,1.703537,-21.41701,4.105835,0.5513899,0.5111462,0.9285544,-0.2085266,-0.2993927,0.9310455,34.16621,1.825638,-20.22302,4.109238,0.4754890999999999,0.4842894,0.403132,0.6917439000000001,0.1816553,-0.0662771,0.8081519,0.02264331,10.7380943329862,0.41402700868706066,32.235902108825826
0,-0.2612762,-0.302536,0.9166107,0.8581396000000001,-0.3455048,-0.3057250999999999,0.887207,-31.71581,1.703537,-21.41701,4.105835,0.5513899,0.5111462,0.9285544,-0.2085266,-0.2993927,0.9310455,34.16621,1.825638,-20.22302,4.109238,0.4754890999999999,0.4842894,0.403132,0.6917439000000001,0.1816553,-0.0662771,0.8081519,0.02264331,10.7380943329862,0.41402700868706066,32.235902108825826
0,-0.2606659,-0.303421,0.9165039,0.8581396000000001,-0.3448180999999999,-0.3077393,0.8867798000000001,-31.71936,1.703537,-21.41484,4.076767,0.5514306,0.5113655,0.9285544,-0.2068024,-0.299469,0.9314117,34.1702,1.825638,-20.2236,4.096176,0.4751907999999999,0.4842894,0.4032000999999999,0.6916981,0.181645,-0.06587319,0.808218,0.022549,10.7380943329862,0.41402700868706066,32.235902108825826
0,-0.2606659,-0.303421,0.9165039,0.8581396000000001,-0.3448180999999999,-0.3077393,0.8867798000000001,-31.71936,1.703537,-21.41484,4.076767,0.5514306,0.5113655,0.9285544,-0.2068024,-0.299469,0.9314117,34.1702,1.825638,-20.2236,4.096176,0.4751907999999999,0.4842894,0.4032000999999999,0.6916981,0.181645,-0.06587319,0.808218,0.022549,10.7380943329862,0.41402700868706066,32.235902108825826
0,-0.2606659,-0.303421,0.9165039,0.8581396000000001,-0.3448180999999999,-0.3077393,0.8867798000000001,-31.71936,1.703537,-21.41484,4.076767,0.5514306,0.5113655,0.9285544,-0.2068024,-0.299469,0.9314117,34.1702,1.825638,-20.2236,4.096176,0.4751907999999999,0.4842894,0.4032000999999999,0.6916981,0.181645,-0.06587319,0.808218,0.022549,10.7380943329862,0.41402700868706066,32.235902108825826
0,-0.2600555,-0.3043518,0.9163666,0.8319353,-0.3434143,-0.3121337999999999,0.8857879999999999,-31.71936,1.702896,-21.413120000000003,4.046448000000001,0.5512766,0.5118967999999999,0.9289672,-0.2051086,-0.2980499,0.9322357,34.174820000000004,1.820129,-20.23186,4.092209,0.4748604,0.4843482,0.4032823,0.6917177,0.1815821,-0.06548934,0.8082001,0.02241379,10.7380943329862,0.41402700868706066,32.235902108825826
0,-0.2600555,-0.3043518,0.9163666,0.8319353,-0.3434143,-0.3121337999999999,0.8857879999999999,-31.71936,1.702896,-21.413120000000003,4.046448000000001,0.5512766,0.5118967999999999,0.9289672,-0.2051086,-0.2980499,0.9322357,34.174820000000004,1.820129,-20.23186,4.092209,0.4748604,0.4843482,0.4032823,0.6917177,0.1815821,-0.06548934,0.8082001,0.02241379,10.7380943329862,0.41402700868706066,32.235902108825826
0,-0.2600555,-0.3043518,0.9163666,0.8319353,-0.3434143,-0.3121337999999999,0.8857879999999999,-31.71936,1.702896,-21.413120000000003,4.046448000000001,0.5512766,0.5118967999999999,0.9289672,-0.2051086,-0.2980499,0.9322357,34.174820000000004,1.820129,-20.23186,4.092209,0.4748604,0.4843482,0.4032823,0.6917177,0.1815821,-0.06548934,0.8082001,0.02241379,10.7380943329862,0.41402700868706066,32.235902108825826
0,-0.2616119,-0.3045959,0.9158325,0.8296036,-0.3448180999999999,-0.3130645999999999,0.8849181999999999,-31.715390000000003,1.702896,-21.41174,4.047301999999999,0.5513132,0.5120155,0.9205922,-0.2053222999999999,-0.2976379,0.9323273,34.17935,1.820129,-20.23816,4.085022,0.4747485999999999,0.4843482,0.4033464,0.6915749,0.1815628,-0.06513798,0.8080443,0.02187819,10.7380943329862,3.327305,32.235902108825826
0,-0.2616119,-0.3045959,0.9158325,0.8296036,-0.3448180999999999,-0.3130645999999999,0.8849181999999999,-31.715390000000003,1.702896,-21.41174,4.047301999999999,0.5513132,0.5120155,0.9205922,-0.2053222999999999,-0.2976379,0.9323273,34.17935,1.820129,-20.23816,4.085022,0.4747485999999999,0.4843482,0.4033464,0.6915749,0.1815628,-0.06513798,0.8080443,0.02187819,10.7380943329862,3.327305,32.235902108825826
0,-0.2616119,-0.3045959,0.9158325,0.8296036,-0.3448180999999999,-0.3130645999999999,0.8849181999999999,-31.715390000000003,1.702896,-21.41174,4.047301999999999,0.5513132,0.5120155,0.9205922,-0.2053222999999999,-0.2976379,0.9323273,34.17935,1.820129,-20.23816,4.085022,0.4747485999999999,0.4843482,0.4033464,0.6915749,0.1815628,-0.06513798,0.8080443,0.02187819,10.7380943329862,3.327305,32.235902108825826
0,-0.2646179,-0.3029022,0.9155426,0.7973541999999999,-0.3472137,-0.3154449,0.8831177,-31.70438,1.703873,-21.4059,4.041061,0.5512403,0.512252,0.915458,-0.2075195,-0.2930145,0.9333038,34.194,1.820129,-20.24782,4.082123,0.4745284000000001,0.4838963,0.4034001,0.6914296,0.18151,-0.06489825,0.8079329000000001,0.02126618,10.7380943329862,3.327305,32.235902108825826
0,-0.2646179,-0.3029022,0.9155426,0.7973541999999999,-0.3472137,-0.3154449,0.8831177,-31.70438,1.703873,-21.4059,4.041061,0.5512403,0.512252,0.915458,-0.2075195,-0.2930145,0.9333038,34.194,1.820129,-20.24782,4.082123,0.4745284000000001,0.4838963,0.4034001,0.6914296,0.18151,-0.06489825,0.8079329000000001,0.02126618,10.7380943329862,3.327305,32.235902108825826
0,-0.2646179,-0.3029022,0.9155426,0.7973541999999999,-0.3472137,-0.3154449,0.8831177,-31.70438,1.703873,-21.4059,4.041061,0.5512403,0.512252,0.915458,-0.2075195,-0.2930145,0.9333038,34.194,1.820129,-20.24782,4.082123,0.4745284000000001,0.4838963,0.4034001,0.6914296,0.18151,-0.06489825,0.8079329000000001,0.02126618,10.7380943329862,3.327305,32.235902108825826
0,-0.2626495,-0.3027495999999999,0.916153,0.782486,-0.3457642,-0.3173828,0.8829956,-31.70229,1.704178,-21.40045,4.030304,0.5510033000000001,0.5124184,0.8972462,-0.2087402,-0.2921448,0.9333038,34.201,1.824936,-20.25323,4.070221,0.4744568,0.4836882,0.4034172,0.6912048000000001,0.1815372999999999,-0.0643299,0.8077133000000001,0.02054085,10.7380943329862,3.327305,32.235902108825826
0,-0.2626495,-0.3027495999999999,0.916153,0.782486,-0.3457642,-0.3173828,0.8829956,-31.70229,1.704178,-21.40045,4.030304,0.5510033000000001,0.5124184,0.8972462,-0.2087402,-0.2921448,0.9333038,34.201,1.824936,-20.25323,4.070221,0.4744568,0.4836882,0.4034172,0.6912048000000001,0.1815372999999999,-0.0643299,0.8077133000000001,0.02054085,10.7380943329862,3.327305,32.235902108825826
0,-0.2626495,-0.3027495999999999,0.916153,0.782486,-0.3457642,-0.3173828,0.8829956,-31.70229,1.704178,-21.40045,4.030304,0.5510033000000001,0.5124184,0.8972462,-0.2087402,-0.2921448,0.9333038,34.201,1.824936,-20.25323,4.070221,0.4744568,0.4836882,0.4034172,0.6912048000000001,0.1815372999999999,-0.0643299,0.8077133000000001,0.02054085,10.7380943329862,3.327305,32.235902108825826
0,-0.2619781,-0.3024445,0.9164429,0.8044783000000001,-0.3449249,-0.317215,0.8833923,-31.702040000000004,1.7077790000000002,-21.39871,4.047119,0.5508938,0.512252,0.8946447,-0.2080536,-0.2917633,0.9335785,34.201,1.827744,-20.25731,4.06926,0.4743825,0.4835805999999999,0.4034902,0.6910736,0.1815271,-0.06398645,0.8075294,0.02030573,10.7380943329862,3.327305,32.235902108825826
0,-0.2619781,-0.3024445,0.9164429,0.8044783000000001,-0.3449249,-0.317215,0.8833923,-31.702040000000004,1.7077790000000002,-21.39871,4.047119,0.5508938,0.512252,0.8946447,-0.2080536,-0.2917633,0.9335785,34.201,1.827744,-20.25731,4.06926,0.4743825,0.4835805999999999,0.4034902,0.6910736,0.1815271,-0.06398645,0.8075294,0.02030573,10.7380943329862,3.327305,32.235902108825826
0,-0.2619781,-0.3024445,0.9164429,0.8044783000000001,-0.3449249,-0.317215,0.8833923,-31.702040000000004,1.7077790000000002,-21.39871,4.047119,0.5508938,0.512252,0.8946447,-0.2080536,-0.2917633,0.9335785,34.201,1.827744,-20.25731,4.06926,0.4743825,0.4835805999999999,0.4034902,0.6910736,0.1815271,-0.06398645,0.8075294,0.02030573,10.7380943329862,3.327305,32.235902108825826
1,-0.2648773,-0.3015594,0.9158936,0.7978466,-0.3451691,-0.3172455,0.8832855,-31.7009,1.709564,-21.39388,4.042603,0.5508831,0.5121618,0.8971643,-0.2104797,-0.2898712,0.9336243,34.201,1.831863,-20.26286,4.060532,0.4746607,0.4832979,0.4036265,0.6910831000000001,0.1816137,-0.06336631,0.8072467,0.01992048,10.7380943329862,3.327305,32.235902108825826
1,-0.2648773,-0.3015594,0.9158936,0.7978466,-0.3451691,-0.3172455,0.8832855,-31.7009,1.709564,-21.39388,4.042603,0.5508831,0.5121618,0.8971643,-0.2104797,-0.2898712,0.9336243,34.201,1.831863,-20.26286,4.060532,0.4746607,0.4832979,0.4036265,0.6910831000000001,0.1816137,-0.06336631,0.8072467,0.01992048,10.7380943329862,3.327305,32.235902108825826
1,-0.2648773,-0.3015594,0.9158936,0.7978466,-0.3451691,-0.3172455,0.8832855,-31.7009,1.709564,-21.39388,4.042603,0.5508831,0.5121618,0.8971643,-0.2104797,-0.2898712,0.9336243,34.201,1.831863,-20.26286,4.060532,0.4746607,0.4832979,0.4036265,0.6910831000000001,0.1816137,-0.06336631,0.8072467,0.01992048,10.7380943329862,3.327305,32.235902108825826
1,-0.2648773,-0.3015594,0.9158936,0.7978466,-0.3451691,-0.3172455,0.8832855,-31.7009,1.709564,-21.39388,4.042603,0.5508831,0.5121618,0.8971643,-0.2104797,-0.2898712,0.9336243,34.201,1.831863,-20.26286,4.060532,0.4746607,0.4832979,0.4036679,0.6909939,0.1818092,-0.06301796,0.8069677,0.01976672,10.7380943329862,-6.114624,32.235902108825826
1,-0.2648773,-0.3015594,0.9158936,0.7978466,-0.3451691,-0.3172455,0.8832855,-31.7009,1.709564,-21.39388,4.042603,0.5508831,0.5121618,0.8971643,-0.2104797,-0.2898712,0.9336243,34.201,1.831863,-20.26286,4.060532,0.4746607,0.4832979,0.4036679,0.6909939,0.1818092,-0.06301796,0.8069677,0.01976672,10.7380943329862,-6.114624,32.235902108825826
1,-0.2648773,-0.3015594,0.9158936,0.7978466,-0.3451691,-0.3172455,0.8832855,-31.7009,1.709564,-21.39388,4.042603,0.5508831,0.5121618,0.8971643,-0.2104797,-0.2898712,0.9336243,34.201,1.831863,-20.26286,4.060532,0.4746607,0.4832979,0.4036679,0.6909939,0.1818092,-0.06301796,0.8069677,0.01976672,10.7380943329862,-6.114624,32.235902108825826
1,-0.2648773,-0.3015594,0.9158936,0.7978466,-0.3451691,-0.3172455,0.8832855,-31.7009,1.709564,-21.39388,4.042603,0.5508831,0.5121618,0.8971643,-0.2104797,-0.2898712,0.9336243,34.201,1.831863,-20.26286,4.060532,0.4746607,0.4832979,0.4037768,0.6910275,0.1820375,-0.06251711,0.8065124,0.01985454,10.7380943329862,-6.114624,32.235902108825826
1,-0.2648773,-0.3015594,0.9158936,0.7978466,-0.3451691,-0.3172455,0.8832855,-31.7009,1.709564,-21.39388,4.042603,0.5508831,0.5121618,0.8971643,-0.2104797,-0.2898712,0.9336243,34.201,1.831863,-20.26286,4.060532,0.4746607,0.4832979,0.4037768,0.6910275,0.1820375,-0.06251711,0.8065124,0.01985454,10.7380943329862,-6.114624,32.235902108825826
1,-0.2648773,-0.3015594,0.9158936,0.7978466,-0.3451691,-0.3172455,0.8832855,-31.7009,1.709564,-21.39388,4.042603,0.5508831,0.5121618,0.8971643,-0.2104797,-0.2898712,0.9336243,34.201,1.831863,-20.26286,4.060532,0.4746607,0.4832979,0.4037768,0.6910275,0.1820375,-0.06251711,0.8065124,0.01985454,10.7380943329862,-6.114624,32.235902108825826
1,-0.2648773,-0.3015594,0.9158936,0.7978466,-0.3451691,-0.3172455,0.8832855,-31.7009,1.709564,-21.39388,4.042603,0.5508831,0.5121618,0.8971643,-0.2104797,-0.2898712,0.9336243,34.201,1.831863,-20.26286,4.060532,0.4746607,0.4832979,0.4038556,0.691058,0.1823023999999999,-0.06245158,0.8061278000000001,0.01989035,10.7380943329862,-6.114624,32.235902108825826
1,-0.2648773,-0.3015594,0.9158936,0.7978466,-0.3451691,-0.3172455,0.8832855,-31.7009,1.709564,-21.39388,4.042603,0.5508831,0.5121618,0.8971643,-0.2104797,-0.2898712,0.9336243,34.201,1.831863,-20.26286,4.060532,0.4746607,0.4832979,0.4038556,0.691058,0.1823023999999999,-0.06245158,0.8061278000000001,0.01989035,10.7380943329862,-6.114624,32.235902108825826
1,-0.2648773,-0.3015594,0.9158936,0.7978466,-0.3451691,-0.3172455,0.8832855,-31.7009,1.709564,-21.39388,4.042603,0.5508831,0.5121618,0.8971643,-0.2104797,-0.2898712,0.9336243,34.201,1.831863,-20.26286,4.060532,0.4746607,0.4832979,0.4038556,0.691058,0.1823023999999999,-0.06245158,0.8061278000000001,0.01989035,10.7380943329862,-6.114624,32.235902108825826
1,-0.2649077999999999,-0.3006439,0.9161987,0.841258,-0.3455353,-0.3170013,0.8832245000000001,-31.69965,1.709564,-21.39104,4.042938,0.5508831,0.5121053,0.9144858,-0.2100067,-0.2884369,0.9341736,34.19896,1.834366,-20.26857,4.05809,0.4746770999999999,0.4830897,0.4039499,0.6910569000000001,0.1825167,-0.06237584,0.8055066,0.01958705,10.7380943329862,-6.114624,32.235902108825826
1,-0.2649077999999999,-0.3006439,0.9161987,0.841258,-0.3455353,-0.3170013,0.8832245000000001,-31.69965,1.709564,-21.39104,4.042938,0.5508831,0.5121053,0.9144858,-0.2100067,-0.2884369,0.9341736,34.19896,1.834366,-20.26857,4.05809,0.4746770999999999,0.4830897,0.4039499,0.6910569000000001,0.1825167,-0.06237584,0.8055066,0.01958705,10.7380943329862,-6.114624,32.235902108825826
1,-0.2649077999999999,-0.3006439,0.9161987,0.841258,-0.3455353,-0.3170013,0.8832245000000001,-31.69965,1.709564,-21.39104,4.042938,0.5508831,0.5121053,0.9144858,-0.2100067,-0.2884369,0.9341736,34.19896,1.834366,-20.26857,4.05809,0.4746770999999999,0.4830897,0.4039499,0.6910569000000001,0.1825167,-0.06237584,0.8055066,0.01958705,10.7380943329862,-6.114624,32.235902108825826
1,0.08174133,-0.2935027999999999,0.9524384,0.7295555,-0.009277344,-0.3083801,0.9512177,-30.50748,1.782959,-21.13615,3.900116,0.4736497,0.5045103,0.7235716999999999,0.1558227999999999,-0.2794647,0.9474182,35.2386,1.981064,-19.94753,3.983948,0.4018036,0.4730729,0.4041039,0.6910331999999999,0.1829574,-0.06168308,0.8041446999999999,0.01914831,10.7380943329862,-6.114624,32.235902108825826
1,0.08174133,-0.2935027999999999,0.9524384,0.7295555,-0.009277344,-0.3083801,0.9512177,-30.50748,1.782959,-21.13615,3.900116,0.4736497,0.5045103,0.7235716999999999,0.1558227999999999,-0.2794647,0.9474182,35.2386,1.981064,-19.94753,3.983948,0.4018036,0.4730729,0.4041039,0.6910331999999999,0.1829574,-0.06168308,0.8041446999999999,0.01914831,10.7380943329862,-6.114624,32.235902108825826
1,0.08174133,-0.2935027999999999,0.9524384,0.7295555,-0.009277344,-0.3083801,0.9512177,-30.50748,1.782959,-21.13615,3.900116,0.4736497,0.5045103,0.7235716999999999,0.1558227999999999,-0.2794647,0.9474182,35.2386,1.981064,-19.94753,3.983948,0.4018036,0.4730729,0.4041039,0.6910331999999999,0.1829574,-0.06168308,0.8041446999999999,0.01914831,10.7380943329862,-6.114624,32.235902108825826
1,0.08653259,-0.2852325,0.9545288,0.7471475999999999,0.008087158,-0.3083801,0.9512177,-30.52953,1.7892,-21.14087,3.904755,0.4724082999999999,0.5043539,0.7445689,0.1196594,-0.274826,0.95401,35.32506,1.948044,-20.01329,4.018967,0.4030071,0.4740354999999999,0.40428,0.6909879,0.1833683,-0.06115229,0.8030598000000001,0.018973,8.785028,-6.114624,32.235902108825826
1,0.08653259,-0.2852325,0.9545288,0.7471475999999999,0.008087158,-0.3083801,0.9512177,-30.52953,1.7892,-21.14087,3.904755,0.4724082999999999,0.5043539,0.7445689,0.1196594,-0.274826,0.95401,35.32506,1.948044,-20.01329,4.018967,0.4030071,0.4740354999999999,0.40428,0.6909879,0.1833683,-0.06115229,0.8030598000000001,0.018973,8.785028,-6.114624,32.235902108825826
1,0.08653259,-0.2852325,0.9545288,0.7471475999999999,0.008087158,-0.3083801,0.9512177,-30.52953,1.7892,-21.14087,3.904755,0.4724082999999999,0.5043539,0.7445689,0.1196594,-0.274826,0.95401,35.32506,1.948044,-20.01329,4.018967,0.4030071,0.4740354999999999,0.40428,0.6909879,0.1833683,-0.06115229,0.8030598000000001,0.018973,8.785028,-6.114624,32.235902108825826
1,0.08726501,-0.2863007,0.9541473,0.7234868,0.00769043,-0.3094482,0.9508667,-30.53123,1.792618,-21.14351,3.864655,0.4724742,0.5044042000000001,0.7797099000000001,0.1218414,-0.2755737,0.9535217,35.33,1.945816,-20.01495,3.994019,0.4026214,0.4742087,0.4044406,0.6909301999999999,0.1838175,-0.06088158,0.8017375,0.01886154,8.785028,-6.114624,32.235902108825826
1,0.08726501,-0.2863007,0.9541473,0.7234868,0.00769043,-0.3094482,0.9508667,-30.53123,1.792618,-21.14351,3.864655,0.4724742,0.5044042000000001,0.7797099000000001,0.1218414,-0.2755737,0.9535217,35.33,1.945816,-20.01495,3.994019,0.4026214,0.4742087,0.4044406,0.6909301999999999,0.1838175,-0.06088158,0.8017375,0.01886154,8.785028,-6.114624,32.235902108825826
1,0.08726501,-0.2863007,0.9541473,0.7234868,0.00769043,-0.3094482,0.9508667,-30.53123,1.792618,-21.14351,3.864655,0.4724742,0.5044042000000001,0.7797099000000001,0.1218414,-0.2755737,0.9535217,35.33,1.945816,-20.01495,3.994019,0.4026214,0.4742087,0.4044406,0.6909301999999999,0.1838175,-0.06088158,0.8017375,0.01886154,8.785028,-6.114624,32.235902108825826
1,0.08726501,-0.2863007,0.9541473,0.7234868,0.00769043,-0.3094482,0.9508667,-30.53123,1.792618,-21.14351,3.864655,0.4724742,0.5044042000000001,0.7797099000000001,0.1218414,-0.2755737,0.9535217,35.33,1.945816,-20.01495,3.994019,0.4026214,0.4742087,0.4047984,0.6909618000000001,0.1846336,-0.06065353,0.7991498,0.01866938,8.785028,-17.80437,32.235902108825826
1,0.08726501,-0.2863007,0.9541473,0.7234868,0.00769043,-0.3094482,0.9508667,-30.53123,1.792618,-21.14351,3.864655,0.4724742,0.5044042000000001,0.7797099000000001,0.1218414,-0.2755737,0.9535217,35.33,1.945816,-20.01495,3.994019,0.4026214,0.4742087,0.4047984,0.6909618000000001,0.1846336,-0.06065353,0.7991498,0.01866938,8.785028,-17.80437,32.235902108825826
1,0.08726501,-0.2863007,0.9541473,0.7234868,0.00769043,-0.3094482,0.9508667,-30.53123,1.792618,-21.14351,3.864655,0.4724742,0.5044042000000001,0.7797099000000001,0.1218414,-0.2755737,0.9535217,35.33,1.945816,-20.01495,3.994019,0.4026214,0.4742087,0.4047984,0.6909618000000001,0.1846336,-0.06065353,0.7991498,0.01866938,8.785028,-17.80437,32.235902108825826
1,0.07221985,-0.2900543,0.9542694,0.7182808,0.006378174,-0.3098145,0.9507599,-30.53603,1.797302,-21.14948,3.858582,0.4727727,0.5043429,0.7670848000000001,0.1187897,-0.2751923,0.95401,35.32666,1.941223,-20.01559,3.961075,0.4030857,0.4743069,0.4051419,0.6910253000000001,0.1853712,-0.06067957,0.7966974,0.01830994,8.785028,-17.80437,32.235902108825826
1,0.07221985,-0.2900543,0.9542694,0.7182808,0.006378174,-0.3098145,0.9507599,-30.53603,1.797302,-21.14948,3.858582,0.4727727,0.5043429,0.7670848000000001,0.1187897,-0.2751923,0.95401,35.32666,1.941223,-20.01559,3.961075,0.4030857,0.4743069,0.4051419,0.6910253000000001,0.1853712,-0.06067957,0.7966974,0.01830994,8.785028,-17.80437,32.235902108825826
1,0.07221985,-0.2900543,0.9542694,0.7182808,0.006378174,-0.3098145,0.9507599,-30.53603,1.797302,-21.14948,3.858582,0.4727727,0.5043429,0.7670848000000001,0.1187897,-0.2751923,0.95401,35.32666,1.941223,-20.01559,3.961075,0.4030857,0.4743069,0.4051419,0.6910253000000001,0.1853712,-0.06067957,0.7966974,0.01830994,8.785028,-17.80437,32.235902108825826
1,0.07221985,-0.2900543,0.9542694,0.7182808,0.006378174,-0.3098145,0.9507599,-30.53603,1.797302,-21.14948,3.858582,0.4727727,0.5043429,0.7670848000000001,0.1187897,-0.2751923,0.95401,35.32666,1.941223,-20.01559,3.961075,0.4030857,0.4743069,0.4055437,0.6911135,0.1865124,-0.06081001,0.7932543000000001,0.01770356,8.785028,-17.80437,32.235902108825826
1,0.07221985,-0.2900543,0.9542694,0.7182808,0.006378174,-0.3098145,0.9507599,-30.53603,1.797302,-21.14948,3.858582,0.4727727,0.5043429,0.7670848000000001,0.1187897,-0.2751923,0.95401,35.32666,1.941223,-20.01559,3.961075,0.4030857,0.4743069,0.4055437,0.6911135,0.1865124,-0.06081001,0.7932543000000001,0.01770356,8.785028,-17.80437,32.235902108825826
1,0.07221985,-0.2900543,0.9542694,0.7182808,0.006378174,-0.3098145,0.9507599,-30.53603,1.797302,-21.14948,3.858582,0.4727727,0.5043429,0.7670848000000001,0.1187897,-0.2751923,0.95401,35.32666,1.941223,-20.01559,3.961075,0.4030857,0.4743069,0.4055437,0.6911135,0.1865124,-0.06081001,0.7932543000000001,0.01770356,8.785028,-17.80437,32.235902108825826
1,0.07221985,-0.2900543,0.9542694,0.7182808,0.006378174,-0.3098145,0.9507599,-30.53603,1.797302,-21.14948,3.858582,0.4727727,0.5043429,0.7670848000000001,0.1187897,-0.2751923,0.95401,35.32666,1.941223,-20.01559,3.961075,0.4030857,0.4743069,0.4061475,0.6912246,0.1885821,-0.06127699,0.7862766,0.01630953,8.785028,-17.80437,32.235902108825826
1,0.07221985,-0.2900543,0.9542694,0.7182808,0.006378174,-0.3098145,0.9507599,-30.53603,1.797302,-21.14948,3.858582,0.4727727,0.5043429,0.7670848000000001,0.1187897,-0.2751923,0.95401,35.32666,1.941223,-20.01559,3.961075,0.4030857,0.4743069,0.4061475,0.6912246,0.1885821,-0.06127699,0.7862766,0.01630953,8.785028,-17.80437,32.235902108825826
1,0.07221985,-0.2900543,0.9542694,0.7182808,0.006378174,-0.3098145,0.9507599,-30.53603,1.797302,-21.14948,3.858582,0.4727727,0.5043429,0.7670848000000001,0.1187897,-0.2751923,0.95401,35.32666,1.941223,-20.01559,3.961075,0.4030857,0.4743069,0.4061475,0.6912246,0.1885821,-0.06127699,0.7862766,0.01630953,8.785028,-17.80437,32.235902108825826
1,0.3383026,-0.1998596,0.9195557,0.7889513000000001,0.2455444,-0.2166748,0.9448546999999998,-29.45862,2.054504,-21.23138,3.829865,0.4110339,0.4863502,0.7212923000000001,0.3793488,-0.1915894,0.9051819,36.28136,2.22612,-20.03671,3.909943,0.3434683,0.4564852,0.4075014,0.6912824000000001,0.194313,-0.0632949,0.7659712,0.01100767,8.785028,-17.80437,32.235902108825826
1,0.3383026,-0.1998596,0.9195557,0.7889513000000001,0.2455444,-0.2166748,0.9448546999999998,-29.45862,2.054504,-21.23138,3.829865,0.4110339,0.4863502,0.7212923000000001,0.3793488,-0.1915894,0.9051819,36.28136,2.22612,-20.03671,3.909943,0.3434683,0.4564852,0.4075014,0.6912824000000001,0.194313,-0.0632949,0.7659712,0.01100767,8.785028,-17.80437,32.235902108825826
1,0.3383026,-0.1998596,0.9195557,0.7889513000000001,0.2455444,-0.2166748,0.9448546999999998,-29.45862,2.054504,-21.23138,3.829865,0.4110339,0.4863502,0.7212923000000001,0.3793488,-0.1915894,0.9051819,36.28136,2.22612,-20.03671,3.909943,0.3434683,0.4564852,0.4075014,0.6912824000000001,0.194313,-0.0632949,0.7659712,0.01100767,8.785028,-17.80437,32.235902108825826
1,0.2837067,-0.2040862999999999,0.9369354,0.8198701999999999,0.1984862999999999,-0.2223663,0.9545288,-29.645570000000003,2.048141,-21.19527,3.88179,0.4225036,0.4866643,0.7321837,0.3273468,-0.1938934,0.9247894,36.10703,2.200775,-19.99663,3.786621,0.3551094999999999,0.456909,0.4081890999999999,0.6913694,0.1978464,-0.06466132,0.753207,0.008322295,8.785028,-17.80437,32.235902108825826
1,0.2837067,-0.2040862999999999,0.9369354,0.8198701999999999,0.1984862999999999,-0.2223663,0.9545288,-29.645570000000003,2.048141,-21.19527,3.88179,0.4225036,0.4866643,0.7321837,0.3273468,-0.1938934,0.9247894,36.10703,2.200775,-19.99663,3.786621,0.3551094999999999,0.456909,0.4081890999999999,0.6913694,0.1978464,-0.06466132,0.753207,0.008322295,8.785028,-17.80437,32.235902108825826
1,0.2837067,-0.2040862999999999,0.9369354,0.8198701999999999,0.1984862999999999,-0.2223663,0.9545288,-29.645570000000003,2.048141,-21.19527,3.88179,0.4225036,0.4866643,0.7321837,0.3273468,-0.1938934,0.9247894,36.10703,2.200775,-19.99663,3.786621,0.3551094999999999,0.456909,0.4081890999999999,0.6913694,0.1978464,-0.06466132,0.753207,0.008322295,8.785028,-17.80437,32.235902108825826
1,0.2329407,-0.2076569,0.9500427,0.8304822000000001,0.158844,-0.2297974,0.9601746,-29.78313,2.079422,-21.17014,3.736725,0.4312498999999999,0.4861327,0.7951373,0.2977142,-0.1868896,0.9361725,35.93022,2.184769,-19.90581,3.793106,0.3642539,0.4557883,0.4088598,0.6915066,0.2015562,-0.06564151,0.7397354,0.006136083,8.785028,23.69979,32.235902108825826
1,0.2329407,-0.2076569,0.9500427,0.8304822000000001,0.158844,-0.2297974,0.9601746,-29.78313,2.079422,-21.17014,3.736725,0.4312498999999999,0.4861327,0.7951373,0.2977142,-0.1868896,0.9361725,35.93022,2.184769,-19.90581,3.793106,0.3642539,0.4557883,0.4088598,0.6915066,0.2015562,-0.06564151,0.7397354,0.006136083,8.785028,23.69979,32.235902108825826
1,0.2329407,-0.2076569,0.9500427,0.8304822000000001,0.158844,-0.2297974,0.9601746,-29.78313,2.079422,-21.17014,3.736725,0.4312498999999999,0.4861327,0.7951373,0.2977142,-0.1868896,0.9361725,35.93022,2.184769,-19.90581,3.793106,0.3642539,0.4557883,0.4088598,0.6915066,0.2015562,-0.06564151,0.7397354,0.006136083,8.785028,23.69979,32.235902108825826
1,0.08947754,-0.1994629,0.9757996,0.8646558000000001,0.03877258,-0.1987152,0.9792786,-30.144240000000003,2.135544,-21.37363,3.652145,0.4564412999999999,0.482037,0.8191991,0.2403259,-0.1986237,0.9501495,35.46519,2.141678,-19.5687,3.849182,0.3858057,0.4558082999999999,0.4091238,0.6916694,0.2051998,-0.06646653,0.7260589,0.004668292,8.785028,23.69979,32.235902108825826
1,0.08947754,-0.1994629,0.9757996,0.8646558000000001,0.03877258,-0.1987152,0.9792786,-30.144240000000003,2.135544,-21.37363,3.652145,0.4564412999999999,0.482037,0.8191991,0.2403259,-0.1986237,0.9501495,35.46519,2.141678,-19.5687,3.849182,0.3858057,0.4558082999999999,0.4091238,0.6916694,0.2051998,-0.06646653,0.7260589,0.004668292,8.785028,23.69979,32.235902108825826
1,0.08947754,-0.1994629,0.9757996,0.8646558000000001,0.03877258,-0.1987152,0.9792786,-30.144240000000003,2.135544,-21.37363,3.652145,0.4564412999999999,0.482037,0.8191991,0.2403259,-0.1986237,0.9501495,35.46519,2.141678,-19.5687,3.849182,0.3858057,0.4558082999999999,0.4091238,0.6916694,0.2051998,-0.06646653,0.7260589,0.004668292,8.785028,23.69979,32.235902108825826
1,0.04884338,-0.2079926,0.9768982,0.8612675999999999,0.008911133,-0.2128296,0.9770355,-30.26381,2.208527,-21.55373,3.685669,0.4637114,0.4828287999999999,0.8430632,0.2170715,-0.1837769,0.9586945,35.2968,2.0302580000000003,-19.32298,3.744827,0.3940122,0.4556604,0.4092984,0.6919576,0.2090349,-0.06779682,0.712208,0.004140056,8.785028,23.69979,32.235902108825826
1,0.04884338,-0.2079926,0.9768982,0.8612675999999999,0.008911133,-0.2128296,0.9770355,-30.26381,2.208527,-21.55373,3.685669,0.4637114,0.4828287999999999,0.8430632,0.2170715,-0.1837769,0.9586945,35.2968,2.0302580000000003,-19.32298,3.744827,0.3940122,0.4556604,0.4092984,0.6919576,0.2090349,-0.06779682,0.712208,0.004140056,8.785028,23.69979,32.235902108825826
1,0.04884338,-0.2079926,0.9768982,0.8612675999999999,0.008911133,-0.2128296,0.9770355,-30.26381,2.208527,-21.55373,3.685669,0.4637114,0.4828287999999999,0.8430632,0.2170715,-0.1837769,0.9586945,35.2968,2.0302580000000003,-19.32298,3.744827,0.3940122,0.4556604,0.4092984,0.6919576,0.2090349,-0.06779682,0.712208,0.004140056,8.785028,23.69979,32.235902108825826
1,-0.06620789,-0.2336731,0.970047,0.8373115,-0.06622314,-0.2336884,0.970047,-30.60458,2.32695,-21.75104,3.614761,0.4832342,0.4831891,0.862749,0.05603027,-0.1943359,0.9793243,35.17604,2.436783,-20.7356,3.702774,0.4146798,0.4548635,0.4092585,0.6926281999999999,0.214004,-0.06940182,0.694333,0.003767654,8.785028,23.69979,32.235902108825826
1,-0.06620789,-0.2336731,0.970047,0.8373115,-0.06622314,-0.2336884,0.970047,-30.60458,2.32695,-21.75104,3.614761,0.4832342,0.4831891,0.862749,0.05603027,-0.1943359,0.9793243,35.17604,2.436783,-20.7356,3.702774,0.4146798,0.4548635,0.4092585,0.6926281999999999,0.214004,-0.06940182,0.694333,0.003767654,8.785028,23.69979,32.235902108825826
1,-0.06620789,-0.2336731,0.970047,0.8373115,-0.06622314,-0.2336884,0.970047,-30.60458,2.32695,-21.75104,3.614761,0.4832342,0.4831891,0.862749,0.05603027,-0.1943359,0.9793243,35.17604,2.436783,-20.7356,3.702774,0.4146798,0.4548635,0.4092585,0.6926281999999999,0.214004,-0.06940182,0.694333,0.003767654,8.785028,23.69979,32.235902108825826
1,-0.05722046,-0.2223357999999999,0.9732819,0.8589777,-0.05722046,-0.2223357999999999,0.9732819,-30.56558,2.479019,-22.24188,3.65184,0.4810648,0.4809185,0.8873405000000001,0.08937073,-0.1804352,0.9795074,35.16234,2.353424,-20.20604,3.687714,0.4118521,0.4518481,0.4091869999999999,0.6929428000000001,0.2163978999999999,-0.06982546,0.6861184,0.003982515,8.785028,20.08692,32.235902108825826
1,-0.05722046,-0.2223357999999999,0.9732819,0.8589777,-0.05722046,-0.2223357999999999,0.9732819,-30.56558,2.479019,-22.24188,3.65184,0.4810648,0.4809185,0.8873405000000001,0.08937073,-0.1804352,0.9795074,35.16234,2.353424,-20.20604,3.687714,0.4118521,0.4518481,0.4091869999999999,0.6929428000000001,0.2163978999999999,-0.06982546,0.6861184,0.003982515,8.785028,20.08692,32.235902108825826
1,-0.05722046,-0.2223357999999999,0.9732819,0.8589777,-0.05722046,-0.2223357999999999,0.9732819,-30.56558,2.479019,-22.24188,3.65184,0.4810648,0.4809185,0.8873405000000001,0.08937073,-0.1804352,0.9795074,35.16234,2.353424,-20.20604,3.687714,0.4118521,0.4518481,0.4091869999999999,0.6929428000000001,0.2163978999999999,-0.06982546,0.6861184,0.003982515,8.785028,20.08692,32.235902108825826
1,-0.01287842,-0.1343384,0.9908447,0.8780716000000001,-0.01287842,-0.1343384,0.9908447,-30.35837,2.552948,-21.8786,3.471542,0.4692067,0.4651379,0.8391579,0.2189788999999999,-0.09565735,0.9710236,35.14352,1.925507,-17.59995,3.793259,0.4003,0.4361037,0.4088896999999999,0.6937448,0.2209736,-0.07001492,0.6715720000000001,0.00482506,8.785028,20.08692,32.235902108825826
1,-0.01287842,-0.1343384,0.9908447,0.8780716000000001,-0.01287842,-0.1343384,0.9908447,-30.35837,2.552948,-21.8786,3.471542,0.4692067,0.4651379,0.8391579,0.2189788999999999,-0.09565735,0.9710236,35.14352,1.925507,-17.59995,3.793259,0.4003,0.4361037,0.4088896999999999,0.6937448,0.2209736,-0.07001492,0.6715720000000001,0.00482506,8.785028,20.08692,32.235902108825826
1,-0.01287842,-0.1343384,0.9908447,0.8780716000000001,-0.01287842,-0.1343384,0.9908447,-30.35837,2.552948,-21.8786,3.471542,0.4692067,0.4651379,0.8391579,0.2189788999999999,-0.09565735,0.9710236,35.14352,1.925507,-17.59995,3.793259,0.4003,0.4361037,0.4088896999999999,0.6937448,0.2209736,-0.07001492,0.6715720000000001,0.00482506,8.785028,20.08692,32.235902108825826
1,-0.04878235,-0.1495056,0.9875488,0.9545548,-0.04878235,-0.1495056,0.9875488,-30.5919,2.644058,-22.30319,3.616165,0.481021,0.4675138,0.9147271,0.0814208999999999,-0.1133117999999999,0.9902039,35.14774,2.64325,-20.58727,3.5339660000000004,0.4131795999999999,0.4378964,0.4086324,0.6943099,0.2246862999999999,-0.06937971,0.6612462,0.00583708,8.785028,20.08692,32.235902108825826
1,-0.04878235,-0.1495056,0.9875488,0.9545548,-0.04878235,-0.1495056,0.9875488,-30.5919,2.644058,-22.30319,3.616165,0.481021,0.4675138,0.9147271,0.0814208999999999,-0.1133117999999999,0.9902039,35.14774,2.64325,-20.58727,3.5339660000000004,0.4131795999999999,0.4378964,0.4086324,0.6943099,0.2246862999999999,-0.06937971,0.6612462,0.00583708,8.785028,20.08692,32.235902108825826
1,-0.04878235,-0.1495056,0.9875488,0.9545548,-0.04878235,-0.1495056,0.9875488,-30.5919,2.644058,-22.30319,3.616165,0.481021,0.4675138,0.9147271,0.0814208999999999,-0.1133117999999999,0.9902039,35.14774,2.64325,-20.58727,3.5339660000000004,0.4131795999999999,0.4378964,0.4086324,0.6943099,0.2246862999999999,-0.06937971,0.6612462,0.00583708,8.785028,20.08692,32.235902108825826
1,-0.08184814,-0.1489105,0.9854431,1.0,-0.08184814,-0.1489105,0.9854431,-30.968190000000003,2.662292,-22.51648,3.587418,0.4970630999999999,0.4687104,1.0,0.02278137,-0.133194,0.9908142,34.81422,2.778091,-21.47408,3.55484,0.4296667,0.4428495,0.4082955,0.6938418000000001,0.2281984,-0.06399632,0.6529448,0.006641062,8.785028,20.08692,32.235902108825826
1,-0.08184814,-0.1489105,0.9854431,1.0,-0.08184814,-0.1489105,0.9854431,-30.968190000000003,2.662292,-22.51648,3.587418,0.4970630999999999,0.4687104,1.0,0.02278137,-0.133194,0.9908142,34.81422,2.778091,-21.47408,3.55484,0.4296667,0.4428495,0.4082955,0.6938418000000001,0.2281984,-0.06399632,0.6529448,0.006641062,8.785028,20.08692,32.235902108825826
1,-0.08184814,-0.1489105,0.9854431,1.0,-0.08184814,-0.1489105,0.9854431,-30.968190000000003,2.662292,-22.51648,3.587418,0.4970630999999999,0.4687104,1.0,0.02278137,-0.133194,0.9908142,34.81422,2.778091,-21.47408,3.55484,0.4296667,0.4428495,0.4082955,0.6938418000000001,0.2281984,-0.06399632,0.6529448,0.006641062,8.785028,20.08692,32.235902108825826
1,0.01307678,-0.1197051999999999,0.9927216,1.0,-0.214859,-0.1466217,0.9655609,-30.78644,1.709763,-18.77998,3.572571,0.5051373,0.4694242,1.0,0.0151062,-0.1194305,0.9927216,34.65108,2.849457,-21.8447,3.467514,0.4356149,0.4418986,0.4082589,0.6933714,0.2290962999999999,-0.05935389,0.6526309,0.006981792,8.785028,6.179148,32.235902108825826
1,0.01307678,-0.1197051999999999,0.9927216,1.0,-0.214859,-0.1466217,0.9655609,-30.78644,1.709763,-18.77998,3.572571,0.5051373,0.4694242,1.0,0.0151062,-0.1194305,0.9927216,34.65108,2.849457,-21.8447,3.467514,0.4356149,0.4418986,0.4082589,0.6933714,0.2290962999999999,-0.05935389,0.6526309,0.006981792,8.785028,6.179148,32.235902108825826
1,0.01307678,-0.1197051999999999,0.9927216,1.0,-0.214859,-0.1466217,0.9655609,-30.78644,1.709763,-18.77998,3.572571,0.5051373,0.4694242,1.0,0.0151062,-0.1194305,0.9927216,34.65108,2.849457,-21.8447,3.467514,0.4356149,0.4418986,0.4082589,0.6933714,0.2290962999999999,-0.05935389,0.6526309,0.006981792,8.785028,6.179148,32.235902108825826
1,-0.01274109,-0.1231842,0.9922943,1.0,-0.2181244,-0.147522,0.9646912,-30.95908,1.818192,-19.21223,3.548599,0.5111632,0.4694213,1.0,-0.01274109,-0.1231842,0.9922943,34.54181,2.905151,-21.95691,3.5929260000000003,0.4420557,0.4415891999999999,0.4081868,0.6929927,0.2297214,-0.05650771,0.6532696,0.007616689,8.785028,6.179148,32.235902108825826
1,-0.01274109,-0.1231842,0.9922943,1.0,-0.2181244,-0.147522,0.9646912,-30.95908,1.818192,-19.21223,3.548599,0.5111632,0.4694213,1.0,-0.01274109,-0.1231842,0.9922943,34.54181,2.905151,-21.95691,3.5929260000000003,0.4420557,0.4415891999999999,0.4081868,0.6929927,0.2297214,-0.05650771,0.6532696,0.007616689,8.785028,6.179148,32.235902108825826
1,-0.01274109,-0.1231842,0.9922943,1.0,-0.2181244,-0.147522,0.9646912,-30.95908,1.818192,-19.21223,3.548599,0.5111632,0.4694213,1.0,-0.01274109,-0.1231842,0.9922943,34.54181,2.905151,-21.95691,3.5929260000000003,0.4420557,0.4415891999999999,0.4081868,0.6929927,0.2297214,-0.05650771,0.6532696,0.007616689,8.785028,6.179148,32.235902108825826
1,-0.02662659,-0.1235809,0.9919739,1.0,-0.2202759,-0.1487579,0.9640198,-30.97607,1.901154,-19.50716,3.540985,0.5120604999999999,0.4693055999999999,1.0,-0.02662659,-0.1235809,0.9919739,34.531859999999995,2.915756,-21.91949,3.520935,0.4440325,0.4410204000000001,0.4083013,0.692867,0.23041,-0.05435276,0.6544184000000001,0.007406661,8.785028,6.179148,32.235902108825826
1,-0.02662659,-0.1235809,0.9919739,1.0,-0.2202759,-0.1487579,0.9640198,-30.97607,1.901154,-19.50716,3.540985,0.5120604999999999,0.4693055999999999,1.0,-0.02662659,-0.1235809,0.9919739,34.531859999999995,2.915756,-21.91949,3.520935,0.4440325,0.4410204000000001,0.4083013,0.692867,0.23041,-0.05435276,0.6544184000000001,0.007406661,8.785028,6.179148,32.235902108825826
1,-0.02662659,-0.1235809,0.9919739,1.0,-0.2202759,-0.1487579,0.9640198,-30.97607,1.901154,-19.50716,3.540985,0.5120604999999999,0.4693055999999999,1.0,-0.02662659,-0.1235809,0.9919739,34.531859999999995,2.915756,-21.91949,3.520935,0.4440325,0.4410204000000001,0.4083013,0.692867,0.23041,-0.05435276,0.6544184000000001,0.007406661,8.785028,6.179148,32.235902108825826
1,-0.02746582,-0.1214293999999999,0.9922028,1.0,-0.2270203,-0.1410674999999999,0.9636078,-31.02734,2.049225,-20.15715,3.537689,0.5147176,0.4689598,1.0,-0.02746582,-0.1214293999999999,0.992218,34.53389,2.925232,-21.96478,3.492935,0.4440696,0.4408129,0.4083418,0.6924001999999999,0.2307767,-0.0508394999999999,0.6554946999999999,0.00684329,8.785028,6.179148,32.235902108825826
1,-0.02746582,-0.1214293999999999,0.9922028,1.0,-0.2270203,-0.1410674999999999,0.9636078,-31.02734,2.049225,-20.15715,3.537689,0.5147176,0.4689598,1.0,-0.02746582,-0.1214293999999999,0.992218,34.53389,2.925232,-21.96478,3.492935,0.4440696,0.4408129,0.4083418,0.6924001999999999,0.2307767,-0.0508394999999999,0.6554946999999999,0.00684329,8.785028,6.179148,32.235902108825826
1,-0.02746582,-0.1214293999999999,0.9922028,1.0,-0.2270203,-0.1410674999999999,0.9636078,-31.02734,2.049225,-20.15715,3.537689,0.5147176,0.4689598,1.0,-0.02746582,-0.1214293999999999,0.992218,34.53389,2.925232,-21.96478,3.492935,0.4440696,0.4408129,0.4083418,0.6924001999999999,0.2307767,-0.0508394999999999,0.6554946999999999,0.00684329,8.785028,6.179148,32.235902108825826
1,-0.03024292,-0.1230621,0.9919281,1.0,-0.2249603,-0.1403502999999999,0.9641876,-31.04359,2.059555,-20.24297,3.50766,0.5150315,0.4692225,1.0,-0.02978516,-0.1230164,0.9919434,34.537490000000005,2.9105830000000004,-21.96123,3.506714,0.4441959,0.4414431,0.4083173,0.6916962,0.2311253999999999,-0.04674827,0.6560355999999999,0.005707684,8.785028,6.179148,32.235902108825826
1,-0.03024292,-0.1230621,0.9919281,1.0,-0.2249603,-0.1403502999999999,0.9641876,-31.04359,2.059555,-20.24297,3.50766,0.5150315,0.4692225,1.0,-0.02978516,-0.1230164,0.9919434,34.537490000000005,2.9105830000000004,-21.96123,3.506714,0.4441959,0.4414431,0.4083173,0.6916962,0.2311253999999999,-0.04674827,0.6560355999999999,0.005707684,8.785028,6.179148,32.235902108825826
1,-0.03024292,-0.1230621,0.9919281,1.0,-0.2249603,-0.1403502999999999,0.9641876,-31.04359,2.059555,-20.24297,3.50766,0.5150315,0.4692225,1.0,-0.02978516,-0.1230164,0.9919434,34.537490000000005,2.9105830000000004,-21.96123,3.506714,0.4441959,0.4414431,0.4083173,0.6916962,0.2311253999999999,-0.04674827,0.6560355999999999,0.005707684,8.785028,6.179148,32.235902108825826
1,-0.08453369,-0.128891,0.9880371,1.0,-0.2225342,-0.1418915,0.9645386,-31.04742,2.0657810000000003,-20.30891,3.505325,0.5148999,0.469708,1.0,-0.03619385,-0.1237793,0.9916382,34.54672,2.899139,-21.96425,3.507446,0.4446127,0.4419462999999999,0.4082229,0.6906433000000001,0.2312498999999999,-0.0422212,0.6566979000000001,0.003219858,8.785028,-13.40633,32.235902108825826
1,-0.08453369,-0.128891,0.9880371,1.0,-0.2225342,-0.1418915,0.9645386,-31.04742,2.0657810000000003,-20.30891,3.505325,0.5148999,0.469708,1.0,-0.03619385,-0.1237793,0.9916382,34.54672,2.899139,-21.96425,3.507446,0.4446127,0.4419462999999999,0.4082229,0.6906433000000001,0.2312498999999999,-0.0422212,0.6566979000000001,0.003219858,8.785028,-13.40633,32.235902108825826
1,-0.08453369,-0.128891,0.9880371,1.0,-0.2225342,-0.1418915,0.9645386,-31.04742,2.0657810000000003,-20.30891,3.505325,0.5148999,0.469708,1.0,-0.03619385,-0.1237793,0.9916382,34.54672,2.899139,-21.96425,3.507446,0.4446127,0.4419462999999999,0.4082229,0.6906433000000001,0.2312498999999999,-0.0422212,0.6566979000000001,0.003219858,8.785028,-13.40633,32.235902108825826
1,-0.08453369,-0.128891,0.9880371,1.0,-0.2225342,-0.1418915,0.9645386,-31.04742,2.0657810000000003,-20.30891,3.505325,0.5148999,0.469708,1.0,-0.03619385,-0.1237793,0.9916382,34.54672,2.899139,-21.96425,3.507446,0.4446127,0.4419462999999999,0.4084842,0.690082,0.2315607,-0.03944298,0.6571338000000001,0.001512392,8.785028,-13.40633,32.235902108825826
1,-0.08453369,-0.128891,0.9880371,1.0,-0.2225342,-0.1418915,0.9645386,-31.04742,2.0657810000000003,-20.30891,3.505325,0.5148999,0.469708,1.0,-0.03619385,-0.1237793,0.9916382,34.54672,2.899139,-21.96425,3.507446,0.4446127,0.4419462999999999,0.4084842,0.690082,0.2315607,-0.03944298,0.6571338000000001,0.001512392,8.785028,-13.40633,32.235902108825826
1,-0.08453369,-0.128891,0.9880371,1.0,-0.2225342,-0.1418915,0.9645386,-31.04742,2.0657810000000003,-20.30891,3.505325,0.5148999,0.469708,1.0,-0.03619385,-0.1237793,0.9916382,34.54672,2.899139,-21.96425,3.507446,0.4446127,0.4419462999999999,0.4084842,0.690082,0.2315607,-0.03944298,0.6571338000000001,0.001512392,8.785028,-13.40633,32.235902108825826
2,-0.1054535,-0.1267242,0.9863129,1.0,-0.2288512999999999,-0.1337585,0.9642181,-31.06369,2.129196,-20.32755,3.57991,0.5161749,0.4669733,1.0,-0.04064941,-0.1222839,0.9916534,34.5515,2.891525,-21.96036,3.51358,0.4449535,0.4419975,0.4086132999999999,0.689652,0.2320304,-0.03765439,0.656896,0.001141863,8.785028,-13.40633,32.235902108825826
2,-0.1054535,-0.1267242,0.9863129,1.0,-0.2288512999999999,-0.1337585,0.9642181,-31.06369,2.129196,-20.32755,3.57991,0.5161749,0.4669733,1.0,-0.04064941,-0.1222839,0.9916534,34.5515,2.891525,-21.96036,3.51358,0.4449535,0.4419975,0.4086132999999999,0.689652,0.2320304,-0.03765439,0.656896,0.001141863,8.785028,-13.40633,32.235902108825826
2,-0.1054535,-0.1267242,0.9863129,1.0,-0.2288512999999999,-0.1337585,0.9642181,-31.06369,2.129196,-20.32755,3.57991,0.5161749,0.4669733,1.0,-0.04064941,-0.1222839,0.9916534,34.5515,2.891525,-21.96036,3.51358,0.4449535,0.4419975,0.4086132999999999,0.689652,0.2320304,-0.03765439,0.656896,0.001141863,8.785028,-13.40633,32.235902108825826
2,-0.1276703,-0.1215363,0.9843292,0.9952292,-0.2239074999999999,-0.1339264,0.9653625,-31.09258,2.154907,-20.33234,3.649811,0.516556,0.4662119,0.9280093,-0.04138184,-0.1095581,0.993103,34.51007,2.921204,-21.84375,3.613602,0.4463399,0.4387602,0.4085877,0.6896396,0.2320585,-0.03762014,0.6566125,0.002109027,8.785028,-13.40633,32.235902108825826
2,-0.1276703,-0.1215363,0.9843292,0.9952292,-0.2239074999999999,-0.1339264,0.9653625,-31.09258,2.154907,-20.33234,3.649811,0.516556,0.4662119,0.9280093,-0.04138184,-0.1095581,0.993103,34.51007,2.921204,-21.84375,3.613602,0.4463399,0.4387602,0.4085877,0.6896396,0.2320585,-0.03762014,0.6566125,0.002109027,8.785028,-13.40633,32.235902108825826
2,-0.1276703,-0.1215363,0.9843292,0.9952292,-0.2239074999999999,-0.1339264,0.9653625,-31.09258,2.154907,-20.33234,3.649811,0.516556,0.4662119,0.9280093,-0.04138184,-0.1095581,0.993103,34.51007,2.921204,-21.84375,3.613602,0.4463399,0.4387602,0.4085877,0.6896396,0.2320585,-0.03762014,0.6566125,0.002109027,8.785028,-13.40633,32.235902108825826
2,-0.1508484,-0.1240081999999999,0.9807434000000002,0.9952292,-0.2215576,-0.1327515,0.9660645,-31.1067,2.150864,-20.33389,3.649139,0.5167415,0.4662119,0.9280093,-0.04057312,-0.1092987,0.9931641,34.50793,2.904388,-21.79945,3.614639,0.4463399,0.4389237,0.4086139,0.6899418,0.2320527,-0.037526,0.6562653,0.002689013,8.785028,-38.54701,32.235902108825826
2,-0.1508484,-0.1240081999999999,0.9807434000000002,0.9952292,-0.2215576,-0.1327515,0.9660645,-31.1067,2.150864,-20.33389,3.649139,0.5167415,0.4662119,0.9280093,-0.04057312,-0.1092987,0.9931641,34.50793,2.904388,-21.79945,3.614639,0.4463399,0.4389237,0.4086139,0.6899418,0.2320527,-0.037526,0.6562653,0.002689013,8.785028,-38.54701,32.235902108825826
2,-0.1508484,-0.1240081999999999,0.9807434000000002,0.9952292,-0.2215576,-0.1327515,0.9660645,-31.1067,2.150864,-20.33389,3.649139,0.5167415,0.4662119,0.9280093,-0.04057312,-0.1092987,0.9931641,34.50793,2.904388,-21.79945,3.614639,0.4463399,0.4389237,0.4086139,0.6899418,0.2320527,-0.037526,0.6562653,0.002689013,8.785028,-38.54701,32.235902108825826
2,-0.1607208,-0.1214446999999999,0.9794921999999998,1.0,-0.228714,-0.1304168999999999,0.9647064,-31.12135,2.140961,-20.33469,3.661423000000001,0.5180298,0.466317,1.0,-0.04508972,-0.1050873,0.9934387,34.50894,2.87085,-21.76871,3.626526,0.4468109999999999,0.4392958999999999,0.4084099,0.6905536999999999,0.23192,-0.03676252,0.6565751999999999,0.005292139,8.785028,-38.54701,32.235902108825826
2,-0.1607208,-0.1214446999999999,0.9794921999999998,1.0,-0.228714,-0.1304168999999999,0.9647064,-31.12135,2.140961,-20.33469,3.661423000000001,0.5180298,0.466317,1.0,-0.04508972,-0.1050873,0.9934387,34.50894,2.87085,-21.76871,3.626526,0.4468109999999999,0.4392958999999999,0.4084099,0.6905536999999999,0.23192,-0.03676252,0.6565751999999999,0.005292139,8.785028,-38.54701,32.235902108825826
2,-0.1607208,-0.1214446999999999,0.9794921999999998,1.0,-0.228714,-0.1304168999999999,0.9647064,-31.12135,2.140961,-20.33469,3.661423000000001,0.5180298,0.466317,1.0,-0.04508972,-0.1050873,0.9934387,34.50894,2.87085,-21.76871,3.626526,0.4468109999999999,0.4392958999999999,0.4084099,0.6905536999999999,0.23192,-0.03676252,0.6565751999999999,0.005292139,8.785028,-38.54701,32.235902108825826
2,-0.1369019,-0.1247559,0.9826813,1.0,-0.2265777999999999,-0.1304016,0.96521,-31.1299,2.140961,-20.33615,3.664001,0.5180612,0.4663201,1.0,-0.04510498,-0.1179962,0.9919739,34.50894,2.867325,-21.7417,3.624802,0.4468161,0.4406792999999999,0.4083804,0.6907293000000001,0.2317421,-0.03587824,0.6579732,0.0069443419999999,8.785028,-38.54701,32.235902108825826
2,-0.1369019,-0.1247559,0.9826813,1.0,-0.2265777999999999,-0.1304016,0.96521,-31.1299,2.140961,-20.33615,3.664001,0.5180612,0.4663201,1.0,-0.04510498,-0.1179962,0.9919739,34.50894,2.867325,-21.7417,3.624802,0.4468161,0.4406792999999999,0.4083804,0.6907293000000001,0.2317421,-0.03587824,0.6579732,0.0069443419999999,8.785028,-38.54701,32.235902108825826
2,-0.1369019,-0.1247559,0.9826813,1.0,-0.2265777999999999,-0.1304016,0.96521,-31.1299,2.140961,-20.33615,3.664001,0.5180612,0.4663201,1.0,-0.04510498,-0.1179962,0.9919739,34.50894,2.867325,-21.7417,3.624802,0.4468161,0.4406792999999999,0.4083804,0.6907293000000001,0.2317421,-0.03587824,0.6579732,0.0069443419999999,8.785028,-38.54701,32.235902108825826
2,-0.1075134,-0.1629639,0.9807434000000002,1.0,-0.2118377999999999,-0.1760406,0.9613037,-31.33185,2.057327,-20.49536,3.823212,0.5229714,0.4755451,1.0,-0.05497742,-0.1557464999999999,0.9862518,34.44875,2.813461,-21.89088,3.699829,0.4496279999999999,0.4479854,0.4083439,0.6905265,0.2313961,-0.03397976,0.6599374,0.007871879,8.785028,-38.54701,32.235902108825826
2,-0.1075134,-0.1629639,0.9807434000000002,1.0,-0.2118377999999999,-0.1760406,0.9613037,-31.33185,2.057327,-20.49536,3.823212,0.5229714,0.4755451,1.0,-0.05497742,-0.1557464999999999,0.9862518,34.44875,2.813461,-21.89088,3.699829,0.4496279999999999,0.4479854,0.4083439,0.6905265,0.2313961,-0.03397976,0.6599374,0.007871879,8.785028,-38.54701,32.235902108825826
2,-0.1075134,-0.1629639,0.9807434000000002,1.0,-0.2118377999999999,-0.1760406,0.9613037,-31.33185,2.057327,-20.49536,3.823212,0.5229714,0.4755451,1.0,-0.05497742,-0.1557464999999999,0.9862518,34.44875,2.813461,-21.89088,3.699829,0.4496279999999999,0.4479854,0.4083439,0.6905265,0.2313961,-0.03397976,0.6599374,0.007871879,8.785028,-38.54701,32.235902108825826
2,-0.1885071,-0.1648865,0.9681244,1.0,-0.2462311,-0.1702727999999999,0.9541321,-31.20242,1.97139,-20.4218,3.791321,0.5226763,0.4772139,1.0,-0.05989075,-0.1510467999999999,0.9866943,34.449009999999994,2.661575,-21.42374,3.772232,0.4503066,0.4487204000000001,0.4083179,0.6895708,0.2308224,-0.028839,0.6622939,0.007726554,8.785028,-38.54701,32.235902108825826
2,-0.1885071,-0.1648865,0.9681244,1.0,-0.2462311,-0.1702727999999999,0.9541321,-31.20242,1.97139,-20.4218,3.791321,0.5226763,0.4772139,1.0,-0.05989075,-0.1510467999999999,0.9866943,34.449009999999994,2.661575,-21.42374,3.772232,0.4503066,0.4487204000000001,0.4083179,0.6895708,0.2308224,-0.028839,0.6622939,0.007726554,8.785028,-38.54701,32.235902108825826
2,-0.1885071,-0.1648865,0.9681244,1.0,-0.2462311,-0.1702727999999999,0.9541321,-31.20242,1.97139,-20.4218,3.791321,0.5226763,0.4772139,1.0,-0.05989075,-0.1510467999999999,0.9866943,34.449009999999994,2.661575,-21.42374,3.772232,0.4503066,0.4487204000000001,0.4083179,0.6895708,0.2308224,-0.028839,0.6622939,0.007726554,8.785028,-38.54701,32.235902108825826
2,-0.1218108999999999,-0.3947295999999999,0.910675,0.7996085999999999,-0.1538239,-0.3983459,0.9042358,-30.87,1.265366,-20.59932,3.774292,0.5014584,0.5281168,0.7659219,0.001358032,-0.3770447,0.926178,34.56113,1.957916,-21.82347,3.633102,0.4393185999999999,0.5010029,0.4082768,0.68801,0.2302341,-0.0209949,0.6643081999999999,0.0061876219999999,8.785028,14.56414,32.235902108825826
2,-0.1218108999999999,-0.3947295999999999,0.910675,0.7996085999999999,-0.1538239,-0.3983459,0.9042358,-30.87,1.265366,-20.59932,3.774292,0.5014584,0.5281168,0.7659219,0.001358032,-0.3770447,0.926178,34.56113,1.957916,-21.82347,3.633102,0.4393185999999999,0.5010029,0.4082768,0.68801,0.2302341,-0.0209949,0.6643081999999999,0.0061876219999999,8.785028,14.56414,32.235902108825826
2,-0.1218108999999999,-0.3947295999999999,0.910675,0.7996085999999999,-0.1538239,-0.3983459,0.9042358,-30.87,1.265366,-20.59932,3.774292,0.5014584,0.5281168,0.7659219,0.001358032,-0.3770447,0.926178,34.56113,1.957916,-21.82347,3.633102,0.4393185999999999,0.5010029,0.4082768,0.68801,0.2302341,-0.0209949,0.6643081999999999,0.0061876219999999,8.785028,14.56414,32.235902108825826
2,-0.1084747,-0.4621124,0.8801421999999999,0.5348717,-0.1500244,-0.4633789000000001,0.8733521000000001,-30.70811,0.9708099,-20.67065,3.817612,0.4958137999999999,0.5464001,0.6792739999999999,0.004821777,-0.4545593,0.8907013,34.62593,1.803314,-21.89786,3.659973,0.4366037,0.5163222,0.4086811999999999,0.68639,0.2299181,-0.01268555,0.6662553000000001,0.0008335266,8.785028,14.56414,32.235902108825826
2,-0.1084747,-0.4621124,0.8801421999999999,0.5348717,-0.1500244,-0.4633789000000001,0.8733521000000001,-30.70811,0.9708099,-20.67065,3.817612,0.4958137999999999,0.5464001,0.6792739999999999,0.004821777,-0.4545593,0.8907013,34.62593,1.803314,-21.89786,3.659973,0.4366037,0.5163222,0.4086811999999999,0.68639,0.2299181,-0.01268555,0.6662553000000001,0.0008335266,8.785028,14.56414,32.235902108825826
2,-0.1084747,-0.4621124,0.8801421999999999,0.5348717,-0.1500244,-0.4633789000000001,0.8733521000000001,-30.70811,0.9708099,-20.67065,3.817612,0.4958137999999999,0.5464001,0.6792739999999999,0.004821777,-0.4545593,0.8907013,34.62593,1.803314,-21.89786,3.659973,0.4366037,0.5163222,0.4086811999999999,0.68639,0.2299181,-0.01268555,0.6662553000000001,0.0008335266,8.785028,14.56414,32.235902108825826
2,-0.0355071999999999,-0.4992523,0.8657226999999998,0.330989,-0.1229401,-0.4987183,0.8579865,-30.70645,0.8793030000000001,-20.711,3.737335,0.4926207,0.5542175,0.6196384,0.01579285,-0.4977875,0.8671416999999999,34.71049,1.7160799999999998,-21.93858,3.689896,0.4324815999999999,0.5249937,0.4093430999999999,0.6845207,0.2297536,-0.004685815,0.6680949,-0.008980676,8.785028,14.56414,32.235902108825826
2,-0.0355071999999999,-0.4992523,0.8657226999999998,0.330989,-0.1229401,-0.4987183,0.8579865,-30.70645,0.8793030000000001,-20.711,3.737335,0.4926207,0.5542175,0.6196384,0.01579285,-0.4977875,0.8671416999999999,34.71049,1.7160799999999998,-21.93858,3.689896,0.4324815999999999,0.5249937,0.4093430999999999,0.6845207,0.2297536,-0.004685815,0.6680949,-0.008980676,8.785028,14.56414,32.235902108825826
2,-0.0355071999999999,-0.4992523,0.8657226999999998,0.330989,-0.1229401,-0.4987183,0.8579865,-30.70645,0.8793030000000001,-20.711,3.737335,0.4926207,0.5542175,0.6196384,0.01579285,-0.4977875,0.8671416999999999,34.71049,1.7160799999999998,-21.93858,3.689896,0.4324815999999999,0.5249937,0.4093430999999999,0.6845207,0.2297536,-0.004685815,0.6680949,-0.008980676,8.785028,14.56414,32.235902108825826
2,-0.03831482,-0.4750519,0.8791046,0.3098738,-0.131134,-0.4934845,0.8598021999999998,-30.7336,0.9595337,-20.71977,3.677734,0.4944287,0.5510958,0.6012175999999999,0.02095032,-0.4610138,0.8871306999999999,34.75313,1.69751,-21.942120000000003,3.703079,0.4305685,0.5208013,0.4101062,0.6821659999999999,0.2295232999999999,0.0047574159999999,0.6691633000000001,-0.02065808,8.785028,14.56414,32.235902108825826
2,-0.03831482,-0.4750519,0.8791046,0.3098738,-0.131134,-0.4934845,0.8598021999999998,-30.7336,0.9595337,-20.71977,3.677734,0.4944287,0.5510958,0.6012175999999999,0.02095032,-0.4610138,0.8871306999999999,34.75313,1.69751,-21.942120000000003,3.703079,0.4305685,0.5208013,0.4101062,0.6821659999999999,0.2295232999999999,0.0047574159999999,0.6691633000000001,-0.02065808,8.785028,14.56414,32.235902108825826
2,-0.03831482,-0.4750519,0.8791046,0.3098738,-0.131134,-0.4934845,0.8598021999999998,-30.7336,0.9595337,-20.71977,3.677734,0.4944287,0.5510958,0.6012175999999999,0.02095032,-0.4610138,0.8871306999999999,34.75313,1.69751,-21.942120000000003,3.703079,0.4305685,0.5208013,0.4101062,0.6821659999999999,0.2295232999999999,0.0047574159999999,0.6691633000000001,-0.02065808,8.785028,14.56414,32.235902108825826
2,-0.03933716,-0.4798889,0.8764343000000001,0.3249424,-0.1223755,-0.4794922,0.8689575,-30.75648,0.9595337,-20.70879,3.711807,0.4941634,0.5491281,0.5870166,0.02206421,-0.4780425999999999,0.8780518,34.76924,1.821136,-21.88823,3.745834,0.4299262,0.5185447,0.410889,0.6792611999999999,0.2291746,0.01483462,0.6700528,-0.03320573,8.785028,14.56414,32.235902108825826
2,-0.03933716,-0.4798889,0.8764343000000001,0.3249424,-0.1223755,-0.4794922,0.8689575,-30.75648,0.9595337,-20.70879,3.711807,0.4941634,0.5491281,0.5870166,0.02206421,-0.4780425999999999,0.8780518,34.76924,1.821136,-21.88823,3.745834,0.4299262,0.5185447,0.410889,0.6792611999999999,0.2291746,0.01483462,0.6700528,-0.03320573,8.785028,14.56414,32.235902108825826
2,-0.03933716,-0.4798889,0.8764343000000001,0.3249424,-0.1223755,-0.4794922,0.8689575,-30.75648,0.9595337,-20.70879,3.711807,0.4941634,0.5491281,0.5870166,0.02206421,-0.4780425999999999,0.8780518,34.76924,1.821136,-21.88823,3.745834,0.4299262,0.5185447,0.410889,0.6792611999999999,0.2291746,0.01483462,0.6700528,-0.03320573,8.785028,14.56414,32.235902108825826
2,-0.03933716,-0.4798889,0.8764343000000001,0.3249424,-0.1223755,-0.4794922,0.8689575,-30.75648,0.9595337,-20.70879,3.711807,0.4941634,0.5491281,0.5870166,0.02206421,-0.4780425999999999,0.8780518,34.76924,1.821136,-21.88823,3.745834,0.4299262,0.5185447,0.410889,0.6792611999999999,0.2291746,0.01483462,0.6700528,-0.03320573,8.785028,18.62272,32.235902108825826
2,-0.03933716,-0.4798889,0.8764343000000001,0.3249424,-0.1223755,-0.4794922,0.8689575,-30.75648,0.9595337,-20.70879,3.711807,0.4941634,0.5491281,0.5870166,0.02206421,-0.4780425999999999,0.8780518,34.76924,1.821136,-21.88823,3.745834,0.4299262,0.5185447,0.410889,0.6792611999999999,0.2291746,0.01483462,0.6700528,-0.03320573,8.785028,18.62272,32.235902108825826
2,-0.03933716,-0.4798889,0.8764343000000001,0.3249424,-0.1223755,-0.4794922,0.8689575,-30.75648,0.9595337,-20.70879,3.711807,0.4941634,0.5491281,0.5870166,0.02206421,-0.4780425999999999,0.8780518,34.76924,1.821136,-21.88823,3.745834,0.4299262,0.5185447,0.410889,0.6792611999999999,0.2291746,0.01483462,0.6700528,-0.03320573,8.785028,18.62272,32.235902108825826
2,-0.02622986,-0.4193268,0.9074402,0.3678272,-0.09918213,-0.4154816,0.9041748,-30.788590000000003,1.140579,-20.63991,3.772507,0.4925785,0.5343836,0.6020279000000001,0.03924561,-0.4208527,0.9062653,34.854490000000006,2.011185,-21.77638,3.768921,0.4254622999999999,0.5041356,0.4125854,0.6738858,0.2283535,0.02967467,0.6717565,-0.05427983,8.785028,18.62272,32.235902108825826
2,-0.02622986,-0.4193268,0.9074402,0.3678272,-0.09918213,-0.4154816,0.9041748,-30.788590000000003,1.140579,-20.63991,3.772507,0.4925785,0.5343836,0.6020279000000001,0.03924561,-0.4208527,0.9062653,34.854490000000006,2.011185,-21.77638,3.768921,0.4254622999999999,0.5041356,0.4125854,0.6738858,0.2283535,0.02967467,0.6717565,-0.05427983,8.785028,18.62272,32.235902108825826
2,-0.02622986,-0.4193268,0.9074402,0.3678272,-0.09918213,-0.4154816,0.9041748,-30.788590000000003,1.140579,-20.63991,3.772507,0.4925785,0.5343836,0.6020279000000001,0.03924561,-0.4208527,0.9062653,34.854490000000006,2.011185,-21.77638,3.768921,0.4254622999999999,0.5041356,0.4125854,0.6738858,0.2283535,0.02967467,0.6717565,-0.05427983,8.785028,18.62272,32.235902108825826
2,-0.03996277,-0.4064484,0.9127808,0.3471704,-0.1064758,-0.4185332999999999,0.9019318,-30.77707,1.313782,-20.60139,3.754898,0.4930532999999999,0.5288844,0.6131291,0.02661133,-0.3924866,0.9193573,34.87958,2.073425,-21.737820000000003,3.675308,0.4262626,0.4983484999999999,0.4139502,0.6729804,0.2277429,0.03001025,0.6723621,-0.05710344,8.785028,18.62272,32.235902108825826
2,-0.03996277,-0.4064484,0.9127808,0.3471704,-0.1064758,-0.4185332999999999,0.9019318,-30.77707,1.313782,-20.60139,3.754898,0.4930532999999999,0.5288844,0.6131291,0.02661133,-0.3924866,0.9193573,34.87958,2.073425,-21.737820000000003,3.675308,0.4262626,0.4983484999999999,0.4139502,0.6729804,0.2277429,0.03001025,0.6723621,-0.05710344,8.785028,18.62272,32.235902108825826
2,-0.03996277,-0.4064484,0.9127808,0.3471704,-0.1064758,-0.4185332999999999,0.9019318,-30.77707,1.313782,-20.60139,3.754898,0.4930532999999999,0.5288844,0.6131291,0.02661133,-0.3924866,0.9193573,34.87958,2.073425,-21.737820000000003,3.675308,0.4262626,0.4983484999999999,0.4139502,0.6729804,0.2277429,0.03001025,0.6723621,-0.05710344,8.785028,18.62272,32.235902108825826
2,-0.03302002,-0.3844452,0.9225464,0.3926144,-0.1050567999999999,-0.4006041999999999,0.910202,-30.78217,1.491348,-20.54193,3.807526,0.4931045,0.5203960999999999,0.6294294,0.03840637,-0.3663482999999999,0.9296722,34.900209999999994,2.245377,-21.6593,3.619308,0.4244751,0.4889479999999999,0.4151025,0.6722568,0.2273092,0.02975365,0.672499,-0.05973142,8.785028,18.62272,32.235902108825826
2,-0.03302002,-0.3844452,0.9225464,0.3926144,-0.1050567999999999,-0.4006041999999999,0.910202,-30.78217,1.491348,-20.54193,3.807526,0.4931045,0.5203960999999999,0.6294294,0.03840637,-0.3663482999999999,0.9296722,34.900209999999994,2.245377,-21.6593,3.619308,0.4244751,0.4889479999999999,0.4151025,0.6722568,0.2273092,0.02975365,0.672499,-0.05973142,8.785028,18.62272,32.235902108825826
2,-0.03302002,-0.3844452,0.9225464,0.3926144,-0.1050567999999999,-0.4006041999999999,0.910202,-30.78217,1.491348,-20.54193,3.807526,0.4931045,0.5203960999999999,0.6294294,0.03840637,-0.3663482999999999,0.9296722,34.900209999999994,2.245377,-21.6593,3.619308,0.4244751,0.4889479999999999,0.4151025,0.6722568,0.2273092,0.02975365,0.672499,-0.05973142,8.785028,18.62272,32.235902108825826
2,-0.03060913,-0.3816680999999999,0.9237823,0.3926144,-0.09829712,-0.3981781,0.9120178,-30.77972,1.5234219999999998,-20.52844,3.806854,0.4922616,0.518932,0.6294294,0.03614807,-0.3635559,0.9308624,34.90141,2.280853,-21.64536,3.65834,0.4246819999999999,0.4873505999999999,0.4159057,0.6718481,0.226989,0.02957801,0.6722411,-0.06178197,8.785028,18.62272,32.235902108825826
2,-0.03060913,-0.3816680999999999,0.9237823,0.3926144,-0.09829712,-0.3981781,0.9120178,-30.77972,1.5234219999999998,-20.52844,3.806854,0.4922616,0.518932,0.6294294,0.03614807,-0.3635559,0.9308624,34.90141,2.280853,-21.64536,3.65834,0.4246819999999999,0.4873505999999999,0.4159057,0.6718481,0.226989,0.02957801,0.6722411,-0.06178197,8.785028,18.62272,32.235902108825826
2,-0.03060913,-0.3816680999999999,0.9237823,0.3926144,-0.09829712,-0.3981781,0.9120178,-30.77972,1.5234219999999998,-20.52844,3.806854,0.4922616,0.518932,0.6294294,0.03614807,-0.3635559,0.9308624,34.90141,2.280853,-21.64536,3.65834,0.4246819999999999,0.4873505999999999,0.4159057,0.6718481,0.226989,0.02957801,0.6722411,-0.06178197,8.785028,18.62272,32.235902108825826
2,-0.03060913,-0.3816680999999999,0.9237823,0.3926144,-0.09829712,-0.3981781,0.9120178,-30.77972,1.5234219999999998,-20.52844,3.806854,0.4922616,0.518932,0.6294294,0.03614807,-0.3635559,0.9308624,34.90141,2.280853,-21.64536,3.65834,0.4246819999999999,0.4873505999999999,0.4167584,0.6719031999999999,0.2270139,0.03002893,0.6715959,-0.06325169,8.785028,17.05063,32.235902108825826
2,-0.03060913,-0.3816680999999999,0.9237823,0.3926144,-0.09829712,-0.3981781,0.9120178,-30.77972,1.5234219999999998,-20.52844,3.806854,0.4922616,0.518932,0.6294294,0.03614807,-0.3635559,0.9308624,34.90141,2.280853,-21.64536,3.65834,0.4246819999999999,0.4873505999999999,0.4167584,0.6719031999999999,0.2270139,0.03002893,0.6715959,-0.06325169,8.785028,17.05063,32.235902108825826
2,-0.03060913,-0.3816680999999999,0.9237823,0.3926144,-0.09829712,-0.3981781,0.9120178,-30.77972,1.5234219999999998,-20.52844,3.806854,0.4922616,0.518932,0.6294294,0.03614807,-0.3635559,0.9308624,34.90141,2.280853,-21.64536,3.65834,0.4246819999999999,0.4873505999999999,0.4167584,0.6719031999999999,0.2270139,0.03002893,0.6715959,-0.06325169,8.785028,17.05063,32.235902108825826
2,-0.1027984999999999,-0.4607849,0.8815308000000001,0.383791,-0.1721954,-0.4709473,0.8651733,-30.928590000000003,1.117905,-20.69974,3.744263,0.5055127,0.5430951,0.6246629,-0.01733398,-0.4451140999999999,0.8952941999999999,34.65759,1.860001,-21.88937,3.667877,0.4381186999999999,0.51331,0.4175991,0.6716006,0.2267929,0.03112984,0.6708637,-0.06432063,8.897758,17.05063,32.235902108825826
2,-0.1027984999999999,-0.4607849,0.8815308000000001,0.383791,-0.1721954,-0.4709473,0.8651733,-30.928590000000003,1.117905,-20.69974,3.744263,0.5055127,0.5430951,0.6246629,-0.01733398,-0.4451140999999999,0.8952941999999999,34.65759,1.860001,-21.88937,3.667877,0.4381186999999999,0.51331,0.4175991,0.6716006,0.2267929,0.03112984,0.6708637,-0.06432063,8.897758,17.05063,32.235902108825826
2,-0.1027984999999999,-0.4607849,0.8815308000000001,0.383791,-0.1721954,-0.4709473,0.8651733,-30.928590000000003,1.117905,-20.69974,3.744263,0.5055127,0.5430951,0.6246629,-0.01733398,-0.4451140999999999,0.8952941999999999,34.65759,1.860001,-21.88937,3.667877,0.4381186999999999,0.51331,0.4175991,0.6716006,0.2267929,0.03112984,0.6708637,-0.06432063,8.897758,17.05063,32.235902108825826
2,-0.08657837,-0.4549561,0.8862761999999998,0.4634354,-0.1751251,-0.4642639,0.8681946,-30.95113,1.1080020000000002,-20.71472,3.805328,0.5065965,0.5426649,0.7219616999999999,-0.01551819,-0.4448547,0.8954468000000001,34.65688,1.8517,-21.89561,3.641327,0.4379567,0.5136077,0.4184234999999999,0.6710176,0.2268597,0.03334224,0.670272,-0.06537965,8.897758,17.05063,32.235902108825826
2,-0.08657837,-0.4549561,0.8862761999999998,0.4634354,-0.1751251,-0.4642639,0.8681946,-30.95113,1.1080020000000002,-20.71472,3.805328,0.5065965,0.5426649,0.7219616999999999,-0.01551819,-0.4448547,0.8954468000000001,34.65688,1.8517,-21.89561,3.641327,0.4379567,0.5136077,0.4184234999999999,0.6710176,0.2268597,0.03334224,0.670272,-0.06537965,8.897758,17.05063,32.235902108825826
2,-0.08657837,-0.4549561,0.8862761999999998,0.4634354,-0.1751251,-0.4642639,0.8681946,-30.95113,1.1080020000000002,-20.71472,3.805328,0.5065965,0.5426649,0.7219616999999999,-0.01551819,-0.4448547,0.8954468000000001,34.65688,1.8517,-21.89561,3.641327,0.4379567,0.5136077,0.4184234999999999,0.6710176,0.2268597,0.03334224,0.670272,-0.06537965,8.897758,17.05063,32.235902108825826
2,-0.07566833,-0.4537354,0.8879089,0.4787154,-0.1737822999999999,-0.4643707,0.8684082000000001,-30.95845,1.100739,-20.72072,3.785507,0.5066719,0.5429714,0.7172849,-0.0144043,-0.4448242,0.8954926,34.65724,1.848221,-21.89893,3.640961,0.4378164,0.5137349,0.4195875,0.6700935,0.226881,0.03663122,0.6695482,-0.06689634,8.897758,17.05063,32.235902108825826
2,-0.07566833,-0.4537354,0.8879089,0.4787154,-0.1737822999999999,-0.4643707,0.8684082000000001,-30.95845,1.100739,-20.72072,3.785507,0.5066719,0.5429714,0.7172849,-0.0144043,-0.4448242,0.8954926,34.65724,1.848221,-21.89893,3.640961,0.4378164,0.5137349,0.4195875,0.6700935,0.226881,0.03663122,0.6695482,-0.06689634,8.897758,17.05063,32.235902108825826
2,-0.07566833,-0.4537354,0.8879089,0.4787154,-0.1737822999999999,-0.4643707,0.8684082000000001,-30.95845,1.100739,-20.72072,3.785507,0.5066719,0.5429714,0.7172849,-0.0144043,-0.4448242,0.8954926,34.65724,1.848221,-21.89893,3.640961,0.4378164,0.5137349,0.4195875,0.6700935,0.226881,0.03663122,0.6695482,-0.06689634,8.897758,17.05063,32.235902108825826
2,-0.07719421,-0.4514770999999999,0.888916,0.4609795999999999,-0.1763611,-0.4597778,0.8703308000000001,-30.96602,1.080444,-20.73141,3.784698,0.507209,0.5431495,0.7244745,-0.01559448,-0.444046,0.8958588,34.66003,1.844482,-21.90207,3.641022,0.4378606,0.5137801,0.4209945,0.6689132,0.2269921,0.04153764,0.6687555000000001,-0.06914871,8.897758,17.05063,32.235902108825826
2,-0.07719421,-0.4514770999999999,0.888916,0.4609795999999999,-0.1763611,-0.4597778,0.8703308000000001,-30.96602,1.080444,-20.73141,3.784698,0.507209,0.5431495,0.7244745,-0.01559448,-0.444046,0.8958588,34.66003,1.844482,-21.90207,3.641022,0.4378606,0.5137801,0.4209945,0.6689132,0.2269921,0.04153764,0.6687555000000001,-0.06914871,8.897758,17.05063,32.235902108825826
2,-0.07719421,-0.4514770999999999,0.888916,0.4609795999999999,-0.1763611,-0.4597778,0.8703308000000001,-30.96602,1.080444,-20.73141,3.784698,0.507209,0.5431495,0.7244745,-0.01559448,-0.444046,0.8958588,34.66003,1.844482,-21.90207,3.641022,0.4378606,0.5137801,0.4209945,0.6689132,0.2269921,0.04153764,0.6687555000000001,-0.06914871,8.897758,17.05063,32.235902108825826
2,-0.07876587,-0.4502411,0.8894196,0.4972135,-0.1781006,-0.4571075,0.8713837,-30.973740000000003,1.071823,-20.73753,3.779724,0.5076569000000001,0.5431499,0.7181014,-0.01724243,-0.4437103,0.8959961,34.66162,1.843872,-21.90312,3.641144,0.4379938,0.5137741,0.4225027,0.6672306,0.22724,0.04814018,0.6677225999999999,-0.07294238,8.897758,-3.205368,32.235902108825826
2,-0.07876587,-0.4502411,0.8894196,0.4972135,-0.1781006,-0.4571075,0.8713837,-30.973740000000003,1.071823,-20.73753,3.779724,0.5076569000000001,0.5431499,0.7181014,-0.01724243,-0.4437103,0.8959961,34.66162,1.843872,-21.90312,3.641144,0.4379938,0.5137741,0.4225027,0.6672306,0.22724,0.04814018,0.6677225999999999,-0.07294238,8.897758,-3.205368,32.235902108825826
2,-0.07876587,-0.4502411,0.8894196,0.4972135,-0.1781006,-0.4571075,0.8713837,-30.973740000000003,1.071823,-20.73753,3.779724,0.5076569000000001,0.5431499,0.7181014,-0.01724243,-0.4437103,0.8959961,34.66162,1.843872,-21.90312,3.641144,0.4379938,0.5137741,0.4225027,0.6672306,0.22724,0.04814018,0.6677225999999999,-0.07294238,8.897758,-3.205368,32.235902108825826
2,-0.07876587,-0.4502411,0.8894196,0.4972135,-0.1781006,-0.4571075,0.8713837,-30.973740000000003,1.071823,-20.73753,3.779724,0.5076569000000001,0.5431499,0.7181014,-0.01724243,-0.4437103,0.8959961,34.66162,1.843872,-21.90312,3.641144,0.4379938,0.5137741,0.4243824,0.6649554,0.2274961,0.05766794,0.6664725,-0.07789917,8.897758,-3.205368,33.87
2,-0.07876587,-0.4502411,0.8894196,0.4972135,-0.1781006,-0.4571075,0.8713837,-30.973740000000003,1.071823,-20.73753,3.779724,0.5076569000000001,0.5431499,0.7181014,-0.01724243,-0.4437103,0.8959961,34.66162,1.843872,-21.90312,3.641144,0.4379938,0.5137741,0.4243824,0.6649554,0.2274961,0.05766794,0.6664725,-0.07789917,8.897758,-3.205368,33.87
2,-0.07876587,-0.4502411,0.8894196,0.4972135,-0.1781006,-0.4571075,0.8713837,-30.973740000000003,1.071823,-20.73753,3.779724,0.5076569000000001,0.5431499,0.7181014,-0.01724243,-0.4437103,0.8959961,34.66162,1.843872,-21.90312,3.641144,0.4379938,0.5137741,0.4243824,0.6649554,0.2274961,0.05766794,0.6664725,-0.07789917,8.897758,-3.205368,33.87
2,-0.07865906,-0.4499207,0.8895874,0.4591425,-0.1777039,-0.4569244,0.8715668,-30.980220000000003,1.071747,-20.74049,3.78334,0.5078212999999999,0.5431499,0.7096883,-0.01734924,-0.4433440999999999,0.8961792,34.662,1.842667,-21.9037,3.640961,0.4379938,0.5137741,0.4264043999999999,0.6616789000000001,0.2277525999999999,0.07000811,0.6653237,-0.08425899,8.897758,-3.205368,33.87
2,-0.07865906,-0.4499207,0.8895874,0.4591425,-0.1777039,-0.4569244,0.8715668,-30.980220000000003,1.071747,-20.74049,3.78334,0.5078212999999999,0.5431499,0.7096883,-0.01734924,-0.4433440999999999,0.8961792,34.662,1.842667,-21.9037,3.640961,0.4379938,0.5137741,0.4264043999999999,0.6616789000000001,0.2277525999999999,0.07000811,0.6653237,-0.08425899,8.897758,-3.205368,33.87
2,-0.07865906,-0.4499207,0.8895874,0.4591425,-0.1777039,-0.4569244,0.8715668,-30.980220000000003,1.071747,-20.74049,3.78334,0.5078212999999999,0.5431499,0.7096883,-0.01734924,-0.4433440999999999,0.8961792,34.662,1.842667,-21.9037,3.640961,0.4379938,0.5137741,0.4264043999999999,0.6616789000000001,0.2277525999999999,0.07000811,0.6653237,-0.08425899,8.897758,-3.205368,33.87
2,-0.07621765,-0.4475098,0.8910216999999999,0.4759084,-0.1792755,-0.4558104999999999,0.8718261999999999,-30.99672,1.070511,-20.75072,3.779434,0.508537,0.5431491,0.6908875,-0.01945496,-0.4408569,0.8973540999999999,34.66466,1.840454,-21.90422,3.677582,0.4381114,0.5135198000000001,0.4278781,0.6572148,0.2279869,0.08482327,0.6641799,-0.09413329,8.897758,-3.205368,33.87
2,-0.07621765,-0.4475098,0.8910216999999999,0.4759084,-0.1792755,-0.4558104999999999,0.8718261999999999,-30.99672,1.070511,-20.75072,3.779434,0.508537,0.5431491,0.6908875,-0.01945496,-0.4408569,0.8973540999999999,34.66466,1.840454,-21.90422,3.677582,0.4381114,0.5135198000000001,0.4278781,0.6572148,0.2279869,0.08482327,0.6641799,-0.09413329,8.897758,-3.205368,33.87
2,-0.07621765,-0.4475098,0.8910216999999999,0.4759084,-0.1792755,-0.4558104999999999,0.8718261999999999,-30.99672,1.070511,-20.75072,3.779434,0.508537,0.5431491,0.6908875,-0.01945496,-0.4408569,0.8973540999999999,34.66466,1.840454,-21.90422,3.677582,0.4381114,0.5135198000000001,0.4278781,0.6572148,0.2279869,0.08482327,0.6641799,-0.09413329,8.897758,-3.205368,33.87
2,-0.1043854,-0.3475037,0.931839,0.5018559,-0.1806487999999999,-0.3564148,0.916687,-31.0273,1.3582610000000002,-20.62035,3.703827,0.5095891,0.5203047000000001,0.6776641,-0.02201843,-0.3356171,0.9417267,34.65495,2.185532,-21.71262,3.746109,0.439017,0.4877776,0.4317589,0.6508901,0.2286027999999999,0.1021929999999999,0.6637043,-0.1076280999999999,8.897758,-3.205368,33.87
2,-0.1043854,-0.3475037,0.931839,0.5018559,-0.1806487999999999,-0.3564148,0.916687,-31.0273,1.3582610000000002,-20.62035,3.703827,0.5095891,0.5203047000000001,0.6776641,-0.02201843,-0.3356171,0.9417267,34.65495,2.185532,-21.71262,3.746109,0.439017,0.4877776,0.4317589,0.6508901,0.2286027999999999,0.1021929999999999,0.6637043,-0.1076280999999999,8.897758,-3.205368,33.87
2,-0.1043854,-0.3475037,0.931839,0.5018559,-0.1806487999999999,-0.3564148,0.916687,-31.0273,1.3582610000000002,-20.62035,3.703827,0.5095891,0.5203047000000001,0.6776641,-0.02201843,-0.3356171,0.9417267,34.65495,2.185532,-21.71262,3.746109,0.439017,0.4877776,0.4317589,0.6508901,0.2286027999999999,0.1021929999999999,0.6637043,-0.1076280999999999,8.897758,-3.205368,33.87
2,-0.07919312,-0.2941895,0.9524536,0.5217338,-0.1519775,-0.3000793,0.9417114,-31.10086,1.490799,-20.63199,3.737106,0.5087079000000001,0.5091429,0.7230231,-0.01451111,-0.2876434,0.9576111,34.666920000000005,2.321869,-21.65022,3.611099,0.4380801,0.4770912999999999,0.4338412999999999,0.6494824,0.2289993,0.1057646,0.6637144,-0.1094721,8.897758,-25.64402,33.87
2,-0.07919312,-0.2941895,0.9524536,0.5217338,-0.1519775,-0.3000793,0.9417114,-31.10086,1.490799,-20.63199,3.737106,0.5087079000000001,0.5091429,0.7230231,-0.01451111,-0.2876434,0.9576111,34.666920000000005,2.321869,-21.65022,3.611099,0.4380801,0.4770912999999999,0.4338412999999999,0.6494824,0.2289993,0.1057646,0.6637144,-0.1094721,8.897758,-25.64402,33.87
2,-0.07919312,-0.2941895,0.9524536,0.5217338,-0.1519775,-0.3000793,0.9417114,-31.10086,1.490799,-20.63199,3.737106,0.5087079000000001,0.5091429,0.7230231,-0.01451111,-0.2876434,0.9576111,34.666920000000005,2.321869,-21.65022,3.611099,0.4380801,0.4770912999999999,0.4338412999999999,0.6494824,0.2289993,0.1057646,0.6637144,-0.1094721,8.897758,-25.64402,33.87
2,-0.08183289,-0.2886505,0.9539185,0.5805594000000001,-0.1678009,-0.3105315999999999,0.9356232,-31.06367,1.575287,-20.60022,3.777359,0.5093325,0.5074834,0.7150539,-0.00869751,-0.2683258,0.9632874,34.67256,2.368805,-21.63107,3.5594019999999995,0.4373498999999999,0.4730952999999999,0.4361202,0.6482788,0.229388,0.1091198999999999,0.6632084,-0.1107744999999999,8.897758,-25.64402,33.87
2,-0.08183289,-0.2886505,0.9539185,0.5805594000000001,-0.1678009,-0.3105315999999999,0.9356232,-31.06367,1.575287,-20.60022,3.777359,0.5093325,0.5074834,0.7150539,-0.00869751,-0.2683258,0.9632874,34.67256,2.368805,-21.63107,3.5594019999999995,0.4373498999999999,0.4730952999999999,0.4361202,0.6482788,0.229388,0.1091198999999999,0.6632084,-0.1107744999999999,8.897758,-25.64402,33.87
3,-0.08183289,-0.2886505,0.9539185,0.5805594000000001,-0.1678009,-0.3105315999999999,0.9356232,-31.06367,1.575287,-20.60022,3.777359,0.5093325,0.5074834,0.7150539,-0.00869751,-0.2683258,0.9632874,34.67256,2.368805,-21.63107,3.5594019999999995,0.4373498999999999,0.4730952999999999,0.4361202,0.6482788,0.229388,0.1091198999999999,0.6632084,-0.1107744999999999,8.897758,-25.64402,33.87
3,-0.07662964,-0.2770538,0.9577789,0.5793815,-0.1805115,-0.3023224,0.9359436,-30.97333,1.6315309999999998,-20.53825,3.787369,0.5078597,0.504214,0.723783,-0.006256104,-0.2582092,0.9660645,34.67552,2.385864,-21.627270000000003,3.625519,0.4369362,0.4713105999999999,0.4382265,0.646827,0.2298895,0.1138658999999999,0.6621007,-0.1135331,8.897758,-25.64402,33.87
3,-0.07662964,-0.2770538,0.9577789,0.5793815,-0.1805115,-0.3023224,0.9359436,-30.97333,1.6315309999999998,-20.53825,3.787369,0.5078597,0.504214,0.723783,-0.006256104,-0.2582092,0.9660645,34.67552,2.385864,-21.627270000000003,3.625519,0.4369362,0.4713105999999999,0.4382265,0.646827,0.2298895,0.1138658999999999,0.6621007,-0.1135331,8.897758,-25.64402,33.87
3,-0.07662964,-0.2770538,0.9577789,0.5793815,-0.1805115,-0.3023224,0.9359436,-30.97333,1.6315309999999998,-20.53825,3.787369,0.5078597,0.504214,0.723783,-0.006256104,-0.2582092,0.9660645,34.67552,2.385864,-21.627270000000003,3.625519,0.4369362,0.4713105999999999,0.4382265,0.646827,0.2298895,0.1138658999999999,0.6621007,-0.1135331,8.897758,-25.64402,33.87
3,-0.05194092,-0.3350525,0.9407501,0.4443136,-0.1554412999999999,-0.3488617,0.9241791,-30.84747,1.317383,-20.6541,3.822433,0.5009458,0.5207845999999999,0.6498182,0.004623413,-0.3259735,0.9453583,34.73151,2.1378630000000003,-21.70271,3.740997,0.4335859,0.4879249,0.4402172,0.6443295,0.2304527999999999,0.1211926,0.660412,-0.1191,8.897758,-25.64402,33.87
3,-0.05194092,-0.3350525,0.9407501,0.4443136,-0.1554412999999999,-0.3488617,0.9241791,-30.84747,1.317383,-20.6541,3.822433,0.5009458,0.5207845999999999,0.6498182,0.004623413,-0.3259735,0.9453583,34.73151,2.1378630000000003,-21.70271,3.740997,0.4335859,0.4879249,0.4402172,0.6443295,0.2304527999999999,0.1211926,0.660412,-0.1191,8.897758,-25.64402,33.87
3,-0.05194092,-0.3350525,0.9407501,0.4443136,-0.1554412999999999,-0.3488617,0.9241791,-30.84747,1.317383,-20.6541,3.822433,0.5009458,0.5207845999999999,0.6498182,0.004623413,-0.3259735,0.9453583,34.73151,2.1378630000000003,-21.70271,3.740997,0.4335859,0.4879249,0.4402172,0.6443295,0.2304527999999999,0.1211926,0.660412,-0.1191,8.897758,-25.64402,33.87
3,0.007797241,-0.4980164000000001,0.8671264999999999,0.4090609,-0.09312439,-0.5116425,0.854126,-30.59088,0.7097321,-20.9626,3.664688,0.4854135,0.5635352,0.6187347,0.04669189,-0.4913635,0.8696898999999999,34.74673,1.581833,-21.965670000000003,3.70433,0.4277432,0.5285687,0.4423264,0.64118,0.2314036,0.1307728,0.65788,-0.1263038,8.897758,-22.02619,33.87
3,0.007797241,-0.4980164000000001,0.8671264999999999,0.4090609,-0.09312439,-0.5116425,0.854126,-30.59088,0.7097321,-20.9626,3.664688,0.4854135,0.5635352,0.6187347,0.04669189,-0.4913635,0.8696898999999999,34.74673,1.581833,-21.965670000000003,3.70433,0.4277432,0.5285687,0.4423264,0.64118,0.2314036,0.1307728,0.65788,-0.1263038,8.897758,-22.02619,33.87
3,0.007797241,-0.4980164000000001,0.8671264999999999,0.4090609,-0.09312439,-0.5116425,0.854126,-30.59088,0.7097321,-20.9626,3.664688,0.4854135,0.5635352,0.6187347,0.04669189,-0.4913635,0.8696898999999999,34.74673,1.581833,-21.965670000000003,3.70433,0.4277432,0.5285687,0.4423264,0.64118,0.2314036,0.1307728,0.65788,-0.1263038,8.897758,-22.02619,33.87
3,-1.0,-1.0,-1.0,0.1852479,0.0,0.0,0.0,-30.475890000000003,0.0410614,-21.42766,-1.0,0.4757291,0.6106776999999999,0.522781,0.0,0.0,0.0,34.72659,0.9125671,-22.41989,-1.0,0.4223813,0.5768478,0.4463791,0.6335909000000001,0.2332063999999999,0.1507503999999999,0.6519081999999999,-0.1443773,8.897758,-22.02619,33.87
3,-1.0,-1.0,-1.0,0.1852479,0.0,0.0,0.0,-30.475890000000003,0.0410614,-21.42766,-1.0,0.4757291,0.6106776999999999,0.522781,0.0,0.0,0.0,34.72659,0.9125671,-22.41989,-1.0,0.4223813,0.5768478,0.4463791,0.6335909000000001,0.2332063999999999,0.1507503999999999,0.6519081999999999,-0.1443773,8.897758,-22.02619,33.87
3,-1.0,-1.0,-1.0,0.1852479,0.0,0.0,0.0,-30.475890000000003,0.0410614,-21.42766,-1.0,0.4757291,0.6106776999999999,0.522781,0.0,0.0,0.0,34.72659,0.9125671,-22.41989,-1.0,0.4223813,0.5768478,0.4463791,0.6335909000000001,0.2332063999999999,0.1507503999999999,0.6519081999999999,-0.1443773,8.897758,-22.02619,33.87
3,-1.0,-1.0,-1.0,0.2226904,0.0,0.0,0.0,-30.475890000000003,0.0410614,-21.42766,-1.0,0.4757291,0.6106776999999999,0.5202447,0.0,0.0,0.0,34.72659,0.9125671,-22.41989,-1.0,0.4223813,0.5768478,0.4489702999999999,0.6306775,0.2343063,0.1562496,0.6491285,-0.1509951,8.897758,-22.02619,33.87
3,-1.0,-1.0,-1.0,0.2226904,0.0,0.0,0.0,-30.475890000000003,0.0410614,-21.42766,-1.0,0.4757291,0.6106776999999999,0.5202447,0.0,0.0,0.0,34.72659,0.9125671,-22.41989,-1.0,0.4223813,0.5768478,0.4489702999999999,0.6306775,0.2343063,0.1562496,0.6491285,-0.1509951,8.897758,-22.02619,33.87
3,-1.0,-1.0,-1.0,0.2226904,0.0,0.0,0.0,-30.475890000000003,0.0410614,-21.42766,-1.0,0.4757291,0.6106776999999999,0.5202447,0.0,0.0,0.0,34.72659,0.9125671,-22.41989,-1.0,0.4223813,0.5768478,0.4489702999999999,0.6306775,0.2343063,0.1562496,0.6491285,-0.1509951,8.897758,-22.02619,33.87
3,-1.0,-1.0,-1.0,0.2226904,0.0,0.0,0.0,-30.53326,0.1614227,-21.35194,-1.0,0.4783180999999999,0.603709,0.5202447,0.0,0.0,0.0,34.76025,1.021515,-22.34103,-1.0,0.4211497999999999,0.5711941999999999,0.450996,0.6283857,0.235526,0.1595857,0.6457316,-0.1574607999999999,8.897758,-22.02619,33.87
3,-1.0,-1.0,-1.0,0.2226904,0.0,0.0,0.0,-30.53326,0.1614227,-21.35194,-1.0,0.4783180999999999,0.603709,0.5202447,0.0,0.0,0.0,34.76025,1.021515,-22.34103,-1.0,0.4211497999999999,0.5711941999999999,0.450996,0.6283857,0.235526,0.1595857,0.6457316,-0.1574607999999999,8.897758,-22.02619,33.87
3,-1.0,-1.0,-1.0,0.2226904,0.0,0.0,0.0,-30.53326,0.1614227,-21.35194,-1.0,0.4783180999999999,0.603709,0.5202447,0.0,0.0,0.0,34.76025,1.021515,-22.34103,-1.0,0.4211497999999999,0.5711941999999999,0.450996,0.6283857,0.235526,0.1595857,0.6457316,-0.1574607999999999,8.897758,-22.02619,33.87
3,0.006607056,-0.6056213,0.7957153,0.2154014,-0.05171204,-0.6092377,0.791275,-30.647920000000003,0.4433746,-21.21803,3.626022,0.4824155,0.5878111,0.5587651,0.07525635,-0.5986938,0.7974243000000001,34.90875,1.29306,-22.14212,3.645004,0.4188015999999999,0.5538535,0.4527782999999999,0.6264964,0.2365745,0.1614958999999999,0.6421114,-0.1638483,8.897758,-22.02619,33.87
3,0.006607056,-0.6056213,0.7957153,0.2154014,-0.05171204,-0.6092377,0.791275,-30.647920000000003,0.4433746,-21.21803,3.626022,0.4824155,0.5878111,0.5587651,0.07525635,-0.5986938,0.7974243000000001,34.90875,1.29306,-22.14212,3.645004,0.4188015999999999,0.5538535,0.4527782999999999,0.6264964,0.2365745,0.1614958999999999,0.6421114,-0.1638483,8.897758,-22.02619,33.87
3,0.006607056,-0.6056213,0.7957153,0.2154014,-0.05171204,-0.6092377,0.791275,-30.647920000000003,0.4433746,-21.21803,3.626022,0.4824155,0.5878111,0.5587651,0.07525635,-0.5986938,0.7974243000000001,34.90875,1.29306,-22.14212,3.645004,0.4188015999999999,0.5538535,0.4527782999999999,0.6264964,0.2365745,0.1614958999999999,0.6421114,-0.1638483,8.897758,-22.02619,33.87
3,-0.02940369,-0.5641022,0.8251648000000001,0.2363006,-0.100647,-0.5591583000000001,0.8229218,-30.75024,0.497345,-21.17644,3.583679,0.4914265999999999,0.5788743000000001,0.5932701,0.01078796,-0.5656128,0.824585,34.98048,1.305176,-22.14973,3.587311,0.4240277,0.5491676,0.4544542,0.6246503999999999,0.2375379,0.1640302,0.6380978,-0.1702029,8.897758,14.77466,33.87
3,-0.02940369,-0.5641022,0.8251648000000001,0.2363006,-0.100647,-0.5591583000000001,0.8229218,-30.75024,0.497345,-21.17644,3.583679,0.4914265999999999,0.5788743000000001,0.5932701,0.01078796,-0.5656128,0.824585,34.98048,1.305176,-22.14973,3.587311,0.4240277,0.5491676,0.4544542,0.6246503999999999,0.2375379,0.1640302,0.6380978,-0.1702029,8.897758,14.77466,33.87
3,-0.02940369,-0.5641022,0.8251648000000001,0.2363006,-0.100647,-0.5591583000000001,0.8229218,-30.75024,0.497345,-21.17644,3.583679,0.4914265999999999,0.5788743000000001,0.5932701,0.01078796,-0.5656128,0.824585,34.98048,1.305176,-22.14973,3.587311,0.4240277,0.5491676,0.4544542,0.6246503999999999,0.2375379,0.1640302,0.6380978,-0.1702029,8.897758,14.77466,33.87
3,-0.0267334,-0.5466614000000001,0.8369141,0.210522,-0.09544373,-0.5472107,0.8315277,-30.85786,0.5097656,-21.18169,3.719345,0.4943973,0.5767602,0.6086813,0.01506042,-0.5450592,0.8382568000000001,34.84346,1.304916,-22.12807,3.568359,0.4280448,0.5462191999999999,0.4556152,0.6221386999999999,0.2383696,0.1688446,0.6339775,-0.1775879,8.897758,14.77466,33.87
3,-0.0267334,-0.5466614000000001,0.8369141,0.210522,-0.09544373,-0.5472107,0.8315277,-30.85786,0.5097656,-21.18169,3.719345,0.4943973,0.5767602,0.6086813,0.01506042,-0.5450592,0.8382568000000001,34.84346,1.304916,-22.12807,3.568359,0.4280448,0.5462191999999999,0.4556152,0.6221386999999999,0.2383696,0.1688446,0.6339775,-0.1775879,8.897758,14.77466,33.87
3,-0.0267334,-0.5466614000000001,0.8369141,0.210522,-0.09544373,-0.5472107,0.8315277,-30.85786,0.5097656,-21.18169,3.719345,0.4943973,0.5767602,0.6086813,0.01506042,-0.5450592,0.8382568000000001,34.84346,1.304916,-22.12807,3.568359,0.4280448,0.5462191999999999,0.4556152,0.6221386999999999,0.2383696,0.1688446,0.6339775,-0.1775879,8.897758,14.77466,33.87
3,-0.04789734,-0.5251465,0.8496551999999999,0.2319447999999999,-0.1230621,-0.5259857,0.8415375,-30.86774,0.5614624,-21.14738,3.750229,0.4979275999999999,0.5719962,0.6093753000000001,0.0052642819999999,-0.5227509,0.8524628000000001,34.8102,1.362778,-22.08723,3.665115,0.4302345999999999,0.5409619999999999,0.4564326,0.6195301999999999,0.2388208,0.1749802999999999,0.629674,-0.1855165,8.897758,14.77466,33.87
3,-0.04789734,-0.5251465,0.8496551999999999,0.2319447999999999,-0.1230621,-0.5259857,0.8415375,-30.86774,0.5614624,-21.14738,3.750229,0.4979275999999999,0.5719962,0.6093753000000001,0.0052642819999999,-0.5227509,0.8524628000000001,34.8102,1.362778,-22.08723,3.665115,0.4302345999999999,0.5409619999999999,0.4564326,0.6195301999999999,0.2388208,0.1749802999999999,0.629674,-0.1855165,8.897758,14.77466,33.87
3,-0.04789734,-0.5251465,0.8496551999999999,0.2319447999999999,-0.1230621,-0.5259857,0.8415375,-30.86774,0.5614624,-21.14738,3.750229,0.4979275999999999,0.5719962,0.6093753000000001,0.0052642819999999,-0.5227509,0.8524628000000001,34.8102,1.362778,-22.08723,3.665115,0.4302345999999999,0.5409619999999999,0.4564326,0.6195301999999999,0.2388208,0.1749802999999999,0.629674,-0.1855165,8.897758,14.77466,33.87
3,-0.05375671,-0.4997559,0.8644867,0.2763674,-0.1438141,-0.5144196,0.8453826999999999,-30.92546,0.6542816,-21.12172,3.746933,0.5022095,0.567327,0.6185103,0.002075195,-0.4885406,0.8725280999999999,34.7534,1.400726,-22.06572,3.71109,0.4324715999999999,0.5350305000000001,0.4573982,0.6167491999999999,0.2392186,0.1812377,0.6264535,-0.1921202,8.897758,14.77466,33.87
3,-0.05375671,-0.4997559,0.8644867,0.2763674,-0.1438141,-0.5144196,0.8453826999999999,-30.92546,0.6542816,-21.12172,3.746933,0.5022095,0.567327,0.6185103,0.002075195,-0.4885406,0.8725280999999999,34.7534,1.400726,-22.06572,3.71109,0.4324715999999999,0.5350305000000001,0.4573982,0.6167491999999999,0.2392186,0.1812377,0.6264535,-0.1921202,8.897758,14.77466,33.87
3,-0.05375671,-0.4997559,0.8644867,0.2763674,-0.1438141,-0.5144196,0.8453826999999999,-30.92546,0.6542816,-21.12172,3.746933,0.5022095,0.567327,0.6185103,0.002075195,-0.4885406,0.8725280999999999,34.7534,1.400726,-22.06572,3.71109,0.4324715999999999,0.5350305000000001,0.4573982,0.6167491999999999,0.2392186,0.1812377,0.6264535,-0.1921202,8.897758,14.77466,33.87
3,0.04122925,-0.5550841999999999,0.8307648000000001,0.3393367,-0.06288147,-0.5745239000000001,0.8160553,-30.57542,0.2853545999999999,-21.353,3.790436,0.4814616,0.5891325,0.6272211999999999,0.09268188,-0.5430756,0.8345336999999999,34.82915,1.099167,-22.21443,3.663391,0.4193955,0.5530593,0.4579237,0.6141646,0.2394735,0.188424,0.6238785,-0.1985842,8.897758,14.77466,33.87
3,0.04122925,-0.5550841999999999,0.8307648000000001,0.3393367,-0.06288147,-0.5745239000000001,0.8160553,-30.57542,0.2853545999999999,-21.353,3.790436,0.4814616,0.5891325,0.6272211999999999,0.09268188,-0.5430756,0.8345336999999999,34.82915,1.099167,-22.21443,3.663391,0.4193955,0.5530593,0.4579237,0.6141646,0.2394735,0.188424,0.6238785,-0.1985842,8.897758,14.77466,33.87
3,0.04122925,-0.5550841999999999,0.8307648000000001,0.3393367,-0.06288147,-0.5745239000000001,0.8160553,-30.57542,0.2853545999999999,-21.353,3.790436,0.4814616,0.5891325,0.6272211999999999,0.09268188,-0.5430756,0.8345336999999999,34.82915,1.099167,-22.21443,3.663391,0.4193955,0.5530593,0.4579237,0.6141646,0.2394735,0.188424,0.6238785,-0.1985842,8.897758,14.77466,33.87
3,0.1182708999999999,-0.6098022,0.7836609,0.2623604,-0.02220154,-0.6154326999999999,0.7878571,-30.41272,0.1071777,-21.48766,3.674194,0.4712785,0.6019694,0.5948504,0.1514282,-0.6066741999999999,0.7803802,34.8912,0.9764709,-22.34122,3.697922,0.4101707999999999,0.5669158000000001,0.4588346,0.6119534000000001,0.2396965,0.1943402,0.6219441,-0.2027882999999999,8.897758,21.85098,33.87
3,0.1182708999999999,-0.6098022,0.7836609,0.2623604,-0.02220154,-0.6154326999999999,0.7878571,-30.41272,0.1071777,-21.48766,3.674194,0.4712785,0.6019694,0.5948504,0.1514282,-0.6066741999999999,0.7803802,34.8912,0.9764709,-22.34122,3.697922,0.4101707999999999,0.5669158000000001,0.4588346,0.6119534000000001,0.2396965,0.1943402,0.6219441,-0.2027882999999999,8.897758,21.85098,33.87
3,0.1182708999999999,-0.6098022,0.7836609,0.2623604,-0.02220154,-0.6154326999999999,0.7878571,-30.41272,0.1071777,-21.48766,3.674194,0.4712785,0.6019694,0.5948504,0.1514282,-0.6066741999999999,0.7803802,34.8912,0.9764709,-22.34122,3.697922,0.4101707999999999,0.5669158000000001,0.4588346,0.6119534000000001,0.2396965,0.1943402,0.6219441,-0.2027882999999999,8.897758,21.85098,33.87
3,0.1182708999999999,-0.6098022,0.7836609,0.2623604,-0.02220154,-0.6154326999999999,0.7878571,-30.41272,0.1071777,-21.48766,3.674194,0.4712785,0.6019694,0.5948504,0.1514282,-0.6066741999999999,0.7803802,34.8912,0.9764709,-22.34122,3.697922,0.4101707999999999,0.5669158000000001,0.4595867999999999,0.6096517,0.2398771999999999,0.2004945,0.6209083000000001,-0.2061502,8.897758,21.85098,33.87
3,0.1182708999999999,-0.6098022,0.7836609,0.2623604,-0.02220154,-0.6154326999999999,0.7878571,-30.41272,0.1071777,-21.48766,3.674194,0.4712785,0.6019694,0.5948504,0.1514282,-0.6066741999999999,0.7803802,34.8912,0.9764709,-22.34122,3.697922,0.4101707999999999,0.5669158000000001,0.4595867999999999,0.6096517,0.2398771999999999,0.2004945,0.6209083000000001,-0.2061502,8.897758,21.85098,33.87
3,0.1182708999999999,-0.6098022,0.7836609,0.2623604,-0.02220154,-0.6154326999999999,0.7878571,-30.41272,0.1071777,-21.48766,3.674194,0.4712785,0.6019694,0.5948504,0.1514282,-0.6066741999999999,0.7803802,34.8912,0.9764709,-22.34122,3.697922,0.4101707999999999,0.5669158000000001,0.4595867999999999,0.6096517,0.2398771999999999,0.2004945,0.6209083000000001,-0.2061502,8.897758,21.85098,33.87
3,0.08407593,-0.592865,0.8008881,0.2888984,-0.01785278,-0.5930175999999999,0.8049774000000001,-30.52917,0.2194672,-21.42659,3.652771,0.4745928,0.5946111999999999,0.5856865,0.1192473999999999,-0.5913849,0.7975159,34.9794,1.054337,-22.28984,3.703445,0.4111941,0.5617141,0.4603077,0.6077685,0.2401906,0.2053467,0.6196325,-0.2100058,8.897758,21.85098,33.87
3,0.08407593,-0.592865,0.8008881,0.2888984,-0.01785278,-0.5930175999999999,0.8049774000000001,-30.52917,0.2194672,-21.42659,3.652771,0.4745928,0.5946111999999999,0.5856865,0.1192473999999999,-0.5913849,0.7975159,34.9794,1.054337,-22.28984,3.703445,0.4111941,0.5617141,0.4603077,0.6077685,0.2401906,0.2053467,0.6196325,-0.2100058,8.897758,21.85098,33.87
3,0.08407593,-0.592865,0.8008881,0.2888984,-0.01785278,-0.5930175999999999,0.8049774000000001,-30.52917,0.2194672,-21.42659,3.652771,0.4745928,0.5946111999999999,0.5856865,0.1192473999999999,-0.5913849,0.7975159,34.9794,1.054337,-22.28984,3.703445,0.4111941,0.5617141,0.4603077,0.6077685,0.2401906,0.2053467,0.6196325,-0.2100058,8.897758,21.85098,33.87
3,0.06199646,-0.5689086999999999,0.8200530999999999,0.3404135,-0.0249939,-0.5836486999999999,0.8115996999999999,-30.52229,0.3542328,-21.37488,3.758728,0.4753194,0.5883265000000001,0.6101428000000001,0.1102448,-0.5587463,0.8219603999999999,35.02921,1.0900729999999998,-22.24159,3.659622,0.4108189,0.5556646,0.461391,0.6063015,0.2405163999999999,0.2078961,0.6182989000000001,-0.2113614,8.897758,21.85098,33.87
3,0.06199646,-0.5689086999999999,0.8200530999999999,0.3404135,-0.0249939,-0.5836486999999999,0.8115996999999999,-30.52229,0.3542328,-21.37488,3.758728,0.4753194,0.5883265000000001,0.6101428000000001,0.1102448,-0.5587463,0.8219603999999999,35.02921,1.0900729999999998,-22.24159,3.659622,0.4108189,0.5556646,0.461391,0.6063015,0.2405163999999999,0.2078961,0.6182989000000001,-0.2113614,8.897758,21.85098,33.87
3,0.06199646,-0.5689086999999999,0.8200530999999999,0.3404135,-0.0249939,-0.5836486999999999,0.8115996999999999,-30.52229,0.3542328,-21.37488,3.758728,0.4753194,0.5883265000000001,0.6101428000000001,0.1102448,-0.5587463,0.8219603999999999,35.02921,1.0900729999999998,-22.24159,3.659622,0.4108189,0.5556646,0.461391,0.6063015,0.2405163999999999,0.2078961,0.6182989000000001,-0.2113614,8.897758,21.85098,33.87
3,0.05981445,-0.5627441,0.8244476000000001,0.2680649,-0.0176239,-0.5722046,0.8199158000000001,-30.51724,0.400589,-21.352870000000003,3.74678,0.4743059,0.5850390999999999,0.6329846,0.1195526,-0.5530548000000001,0.8245087,35.08463,1.181198,-22.17194,3.594894,0.4080973,0.5513788000000001,0.4628933,0.6053081,0.2414421,0.2080177,0.6161043,-0.2109912,8.897758,11.5426,33.87
3,0.05981445,-0.5627441,0.8244476000000001,0.2680649,-0.0176239,-0.5722046,0.8199158000000001,-30.51724,0.400589,-21.352870000000003,3.74678,0.4743059,0.5850390999999999,0.6329846,0.1195526,-0.5530548000000001,0.8245087,35.08463,1.181198,-22.17194,3.594894,0.4080973,0.5513788000000001,0.4628933,0.6053081,0.2414421,0.2080177,0.6161043,-0.2109912,8.897758,11.5426,33.87
3,0.05981445,-0.5627441,0.8244476000000001,0.2680649,-0.0176239,-0.5722046,0.8199158000000001,-30.51724,0.400589,-21.352870000000003,3.74678,0.4743059,0.5850390999999999,0.6329846,0.1195526,-0.5530548000000001,0.8245087,35.08463,1.181198,-22.17194,3.594894,0.4080973,0.5513788000000001,0.4628933,0.6053081,0.2414421,0.2080177,0.6161043,-0.2109912,8.897758,11.5426,33.87
3,0.05636597,-0.5572357,0.8284302,0.3117900999999999,-0.02088928,-0.5618286,0.8269806000000001,-30.5144,0.3830261,-21.372770000000003,3.719635,0.4745772,0.5843941,0.6497326999999999,0.1130981,-0.5517273,0.8263091999999999,35.08682,1.175964,-22.17332,3.594528,0.408775,0.5513788000000001,0.4649574000000001,0.6034549,0.2438132,0.2082244,0.6104134,-0.2149942999999999,8.897758,11.5426,33.87
3,0.05636597,-0.5572357,0.8284302,0.3117900999999999,-0.02088928,-0.5618286,0.8269806000000001,-30.5144,0.3830261,-21.372770000000003,3.719635,0.4745772,0.5843941,0.6497326999999999,0.1130981,-0.5517273,0.8263091999999999,35.08682,1.175964,-22.17332,3.594528,0.408775,0.5513788000000001,0.4649574000000001,0.6034549,0.2438132,0.2082244,0.6104134,-0.2149942999999999,8.897758,11.5426,33.87
3,0.05636597,-0.5572357,0.8284302,0.3117900999999999,-0.02088928,-0.5618286,0.8269806000000001,-30.5144,0.3830261,-21.372770000000003,3.719635,0.4745772,0.5843941,0.6497326999999999,0.1130981,-0.5517273,0.8263091999999999,35.08682,1.175964,-22.17332,3.594528,0.408775,0.5513788000000001,0.4649574000000001,0.6034549,0.2438132,0.2082244,0.6104134,-0.2149942999999999,8.897758,11.5426,33.87
3,0.05938721,-0.5582275,0.8275452,0.3603772,-0.01907349,-0.5623322,0.8266754000000001,-30.52136,0.3761139,-21.37527,3.720047,0.4745907,0.5847102,0.6573045999999999,0.1120299999999999,-0.5535278,0.8252563,35.08905,1.174576,-22.17339,3.602982,0.4088143,0.551667,0.4649574000000001,0.6034549,0.2438132,0.2082244,0.6104134,-0.2149942999999999,8.897758,11.5426,33.87
3,0.05938721,-0.5582275,0.8275452,0.3603772,-0.01907349,-0.5623322,0.8266754000000001,-30.52136,0.3761139,-21.37527,3.720047,0.4745907,0.5847102,0.6573045999999999,0.1120299999999999,-0.5535278,0.8252563,35.08905,1.174576,-22.17339,3.602982,0.4088143,0.551667,0.4649574000000001,0.6034549,0.2438132,0.2082244,0.6104134,-0.2149942999999999,8.897758,11.5426,33.87
3,0.05938721,-0.5582275,0.8275452,0.3603772,-0.01907349,-0.5623322,0.8266754000000001,-30.52136,0.3761139,-21.37527,3.720047,0.4745907,0.5847102,0.6573045999999999,0.1120299999999999,-0.5535278,0.8252563,35.08905,1.174576,-22.17339,3.602982,0.4088143,0.551667,0.4649574000000001,0.6034549,0.2438132,0.2082244,0.6104134,-0.2149942999999999,8.897758,11.5426,33.87
3,0.05938721,-0.5582275,0.8275452,0.3603772,-0.01907349,-0.5623322,0.8266754000000001,-30.52136,0.3761139,-21.37527,3.720047,0.4745907,0.5847102,0.6573045999999999,0.1120299999999999,-0.5535278,0.8252563,35.08905,1.174576,-22.17339,3.602982,0.4088143,0.551667,0.4652375,0.6020653,0.2449806,0.2115346,0.6055691,-0.2181049,8.897758,11.5426,33.87
3,0.05938721,-0.5582275,0.8275452,0.3603772,-0.01907349,-0.5623322,0.8266754000000001,-30.52136,0.3761139,-21.37527,3.720047,0.4745907,0.5847102,0.6573045999999999,0.1120299999999999,-0.5535278,0.8252563,35.08905,1.174576,-22.17339,3.602982,0.4088143,0.551667,0.4652375,0.6020653,0.2449806,0.2115346,0.6055691,-0.2181049,8.897758,11.5426,33.87
3,0.05938721,-0.5582275,0.8275452,0.3603772,-0.01907349,-0.5623322,0.8266754000000001,-30.52136,0.3761139,-21.37527,3.720047,0.4745907,0.5847102,0.6573045999999999,0.1120299999999999,-0.5535278,0.8252563,35.08905,1.174576,-22.17339,3.602982,0.4088143,0.551667,0.4652375,0.6020653,0.2449806,0.2115346,0.6055691,-0.2181049,8.897758,11.5426,33.87
3,0.04101563,-0.5439453000000001,0.8381042,0.375165,-0.03796387,-0.5511931999999999,0.8334961,-30.55762,0.323822,-21.41327,3.685867,0.4779342,0.58527,0.6802959,0.08956909,-0.5377655,0.8383026,35.1024,1.042557,-22.2318,3.663055,0.4108935999999999,0.554248,0.466257,0.5982814999999999,0.2476587999999999,0.2206152,0.5957908000000001,-0.2256868,8.897758,11.5426,33.87
3,0.04101563,-0.5439453000000001,0.8381042,0.375165,-0.03796387,-0.5511931999999999,0.8334961,-30.55762,0.323822,-21.41327,3.685867,0.4779342,0.58527,0.6802959,0.08956909,-0.5377655,0.8383026,35.1024,1.042557,-22.2318,3.663055,0.4108935999999999,0.554248,0.466257,0.5982814999999999,0.2476587999999999,0.2206152,0.5957908000000001,-0.2256868,8.897758,11.5426,33.87
3,0.04101563,-0.5439453000000001,0.8381042,0.375165,-0.03796387,-0.5511931999999999,0.8334961,-30.55762,0.323822,-21.41327,3.685867,0.4779342,0.58527,0.6802959,0.08956909,-0.5377655,0.8383026,35.1024,1.042557,-22.2318,3.663055,0.4108935999999999,0.554248,0.466257,0.5982814999999999,0.2476587999999999,0.2206152,0.5957908000000001,-0.2256868,8.897758,11.5426,33.87
3,0.01217651,-0.5117645000000001,0.859024,0.3855172999999999,-0.06016541,-0.5245819,0.8492279,-30.67075,0.348526,-21.41663,3.740402,0.4842432,0.5808925,0.6648384,0.05612183,-0.5026093,0.8626709000000001,35.029920000000004,1.098221,-22.20566,3.724258,0.4171554,0.5475535,0.466257,0.5982814999999999,0.2476587999999999,0.2206152,0.5957908000000001,-0.2256868,8.897758,11.5426,33.87
3,0.01217651,-0.5117645000000001,0.859024,0.3855172999999999,-0.06016541,-0.5245819,0.8492279,-30.67075,0.348526,-21.41663,3.740402,0.4842432,0.5808925,0.6648384,0.05612183,-0.5026093,0.8626709000000001,35.029920000000004,1.098221,-22.20566,3.724258,0.4171554,0.5475535,0.466257,0.5982814999999999,0.2476587999999999,0.2206152,0.5957908000000001,-0.2256868,8.897758,11.5426,33.87
3,0.01217651,-0.5117645000000001,0.859024,0.3855172999999999,-0.06016541,-0.5245819,0.8492279,-30.67075,0.348526,-21.41663,3.740402,0.4842432,0.5808925,0.6648384,0.05612183,-0.5026093,0.8626709000000001,35.029920000000004,1.098221,-22.20566,3.724258,0.4171554,0.5475535,0.466257,0.5982814999999999,0.2476587999999999,0.2206152,0.5957908000000001,-0.2256868,8.897758,11.5426,33.87
3,-0.001785278,-0.5022278,0.8647155999999999,0.4010626,-0.08349609,-0.500351,0.8617859,-30.70645,0.4545287999999999,-21.36151,3.582809,0.4880107,0.5739026999999999,0.6722555,0.04077148,-0.5018768,0.8639679,35.01306,1.1697540000000002,-22.17764,3.757217,0.4194668,0.5449321999999999,0.4664023,0.595813,0.2495202,0.2264941,0.5892069000000001,-0.231363,8.897758,-6.901983,33.87
3,-0.001785278,-0.5022278,0.8647155999999999,0.4010626,-0.08349609,-0.500351,0.8617859,-30.70645,0.4545287999999999,-21.36151,3.582809,0.4880107,0.5739026999999999,0.6722555,0.04077148,-0.5018768,0.8639679,35.01306,1.1697540000000002,-22.17764,3.757217,0.4194668,0.5449321999999999,0.4664023,0.595813,0.2495202,0.2264941,0.5892069000000001,-0.231363,8.897758,-6.901983,33.87
3,-0.001785278,-0.5022278,0.8647155999999999,0.4010626,-0.08349609,-0.500351,0.8617859,-30.70645,0.4545287999999999,-21.36151,3.582809,0.4880107,0.5739026999999999,0.6722555,0.04077148,-0.5018768,0.8639679,35.01306,1.1697540000000002,-22.17764,3.757217,0.4194668,0.5449321999999999,0.4664023,0.595813,0.2495202,0.2264941,0.5892069000000001,-0.231363,8.897758,-6.901983,33.87
3,-0.02142334,-0.4776001,0.8783112,0.3869952,-0.08842468,-0.4860077,0.8694610999999999,-30.734240000000003,0.5304260000000001,-21.32368,3.713593,0.489573,0.569128,0.7096885,0.01927185,-0.471405,0.8816985999999999,34.98193,1.246231,-22.1407,3.63208,0.4231472,0.5383220000000001,0.4665007,0.5935183,0.2518962999999999,0.2308123,0.5819818,-0.2366767,8.897758,-6.901983,33.87
3,-0.02142334,-0.4776001,0.8783112,0.3869952,-0.08842468,-0.4860077,0.8694610999999999,-30.734240000000003,0.5304260000000001,-21.32368,3.713593,0.489573,0.569128,0.7096885,0.01927185,-0.471405,0.8816985999999999,34.98193,1.246231,-22.1407,3.63208,0.4231472,0.5383220000000001,0.4665007,0.5935183,0.2518962999999999,0.2308123,0.5819818,-0.2366767,8.897758,-6.901983,33.87
3,-0.02142334,-0.4776001,0.8783112,0.3869952,-0.08842468,-0.4860077,0.8694610999999999,-30.734240000000003,0.5304260000000001,-21.32368,3.713593,0.489573,0.569128,0.7096885,0.01927185,-0.471405,0.8816985999999999,34.98193,1.246231,-22.1407,3.63208,0.4231472,0.5383220000000001,0.4665007,0.5935183,0.2518962999999999,0.2308123,0.5819818,-0.2366767,8.897758,-6.901983,33.87
3,-0.04841614,-0.4669037,0.8829651,0.3877315999999999,-0.1166382,-0.4875335999999999,0.8652648999999999,-30.74907,0.6189574999999999,-21.32248,3.806168,0.4933795,0.5664876999999999,0.7053986,0.001693726,-0.4502105999999999,0.8929138000000001,34.95618,1.268097,-22.130370000000003,3.672272,0.4259891999999999,0.5348460999999999,0.4667117,0.5916630999999999,0.2544949,0.2340524,0.574385,-0.240823,8.897758,-6.901983,33.87
3,-0.04841614,-0.4669037,0.8829651,0.3877315999999999,-0.1166382,-0.4875335999999999,0.8652648999999999,-30.74907,0.6189574999999999,-21.32248,3.806168,0.4933795,0.5664876999999999,0.7053986,0.001693726,-0.4502105999999999,0.8929138000000001,34.95618,1.268097,-22.130370000000003,3.672272,0.4259891999999999,0.5348460999999999,0.4667117,0.5916630999999999,0.2544949,0.2340524,0.574385,-0.240823,8.897758,-6.901983,33.87
3,-0.04841614,-0.4669037,0.8829651,0.3877315999999999,-0.1166382,-0.4875335999999999,0.8652648999999999,-30.74907,0.6189574999999999,-21.32248,3.806168,0.4933795,0.5664876999999999,0.7053986,0.001693726,-0.4502105999999999,0.8929138000000001,34.95618,1.268097,-22.130370000000003,3.672272,0.4259891999999999,0.5348460999999999,0.4667117,0.5916630999999999,0.2544949,0.2340524,0.574385,-0.240823,8.897758,-6.901983,33.87
3,-0.0607605,-0.4412842,0.8952941999999999,0.3684748,-0.1380157,-0.4597321,0.8772583,-30.82333,0.6302032,-21.29819,3.810394,0.4982412999999999,0.562403,0.6844344,-0.00881958,-0.4272919,0.9040527,34.87555,1.300751,-22.11775,3.700577,0.4298127,0.5308050999999999,0.4669077,0.5887238,0.259716,0.2398127999999999,0.5581116999999999,-0.2465037,8.897758,-6.901983,33.87
3,-0.0607605,-0.4412842,0.8952941999999999,0.3684748,-0.1380157,-0.4597321,0.8772583,-30.82333,0.6302032,-21.29819,3.810394,0.4982412999999999,0.562403,0.6844344,-0.00881958,-0.4272919,0.9040527,34.87555,1.300751,-22.11775,3.700577,0.4298127,0.5308050999999999,0.4669077,0.5887238,0.259716,0.2398127999999999,0.5581116999999999,-0.2465037,8.897758,-6.901983,33.87
3,-0.0607605,-0.4412842,0.8952941999999999,0.3684748,-0.1380157,-0.4597321,0.8772583,-30.82333,0.6302032,-21.29819,3.810394,0.4982412999999999,0.562403,0.6844344,-0.00881958,-0.4272919,0.9040527,34.87555,1.300751,-22.11775,3.700577,0.4298127,0.5308050999999999,0.4669077,0.5887238,0.259716,0.2398127999999999,0.5581116999999999,-0.2465037,8.897758,-6.901983,33.87
3,-0.04078674,-0.4420166,0.8960724,0.4102437,-0.1212311,-0.4597626,0.8797149999999999,-30.71408,0.609848,-21.31439,3.727203,0.4927139,0.5631608,0.693971,0.006958008,-0.4300385,0.902771,34.96133,1.251556,-22.138720000000003,3.72464,0.4251996,0.5328102,0.4668452999999999,0.5874951999999999,0.2626268,0.2417882,0.5490164000000001,-0.2491255,8.897758,-6.901983,33.87
3,-0.04078674,-0.4420166,0.8960724,0.4102437,-0.1212311,-0.4597626,0.8797149999999999,-30.71408,0.609848,-21.31439,3.727203,0.4927139,0.5631608,0.693971,0.006958008,-0.4300385,0.902771,34.96133,1.251556,-22.138720000000003,3.72464,0.4251996,0.5328102,0.4668452999999999,0.5874951999999999,0.2626268,0.2417882,0.5490164000000001,-0.2491255,8.897758,-6.901983,33.87
3,-0.04078674,-0.4420166,0.8960724,0.4102437,-0.1212311,-0.4597626,0.8797149999999999,-30.71408,0.609848,-21.31439,3.727203,0.4927139,0.5631608,0.693971,0.006958008,-0.4300385,0.902771,34.96133,1.251556,-22.138720000000003,3.72464,0.4251996,0.5328102,0.4668452999999999,0.5874951999999999,0.2626268,0.2417882,0.5490164000000001,-0.2491255,8.897758,-6.901983,33.87
3,-0.04078674,-0.4420166,0.8960724,0.4102437,-0.1212311,-0.4597626,0.8797149999999999,-30.71408,0.609848,-21.31439,3.727203,0.4927139,0.5631608,0.693971,0.006958008,-0.4300385,0.902771,34.96133,1.251556,-22.138720000000003,3.72464,0.4251996,0.5328102,0.4668451,0.5861128000000001,0.2659019999999999,0.2433864999999999,0.5388826999999999,-0.2522972,8.897758,-33.43636,33.87
3,-0.04078674,-0.4420166,0.8960724,0.4102437,-0.1212311,-0.4597626,0.8797149999999999,-30.71408,0.609848,-21.31439,3.727203,0.4927139,0.5631608,0.693971,0.006958008,-0.4300385,0.902771,34.96133,1.251556,-22.138720000000003,3.72464,0.4251996,0.5328102,0.4668451,0.5861128000000001,0.2659019999999999,0.2433864999999999,0.5388826999999999,-0.2522972,8.897758,-33.43636,33.87
3,-0.04078674,-0.4420166,0.8960724,0.4102437,-0.1212311,-0.4597626,0.8797149999999999,-30.71408,0.609848,-21.31439,3.727203,0.4927139,0.5631608,0.693971,0.006958008,-0.4300385,0.902771,34.96133,1.251556,-22.138720000000003,3.72464,0.4251996,0.5328102,0.4668451,0.5861128000000001,0.2659019999999999,0.2433864999999999,0.5388826999999999,-0.2522972,8.897758,-33.43636,33.87
4,0.02186584,-0.480545,0.8766937,0.4102437,-0.07078552,-0.4913176999999999,0.8680878000000001,-30.50082,0.5419769,-21.36772,3.810547,0.4800215999999999,0.5696751999999999,0.693971,0.07476807,-0.4724884,0.8781433000000001,35.16089,1.181366,-22.15912,3.841751,0.4108401,0.5403840999999999,0.4663051,0.5845842,0.2692202,0.2462315,0.5280089,-0.256394,8.897758,-33.43636,33.87
4,0.02186584,-0.480545,0.8766937,0.4102437,-0.07078552,-0.4913176999999999,0.8680878000000001,-30.50082,0.5419769,-21.36772,3.810547,0.4800215999999999,0.5696751999999999,0.693971,0.07476807,-0.4724884,0.8781433000000001,35.16089,1.181366,-22.15912,3.841751,0.4108401,0.5403840999999999,0.4663051,0.5845842,0.2692202,0.2462315,0.5280089,-0.256394,8.897758,-33.43636,33.87
4,0.02186584,-0.480545,0.8766937,0.4102437,-0.07078552,-0.4913176999999999,0.8680878000000001,-30.50082,0.5419769,-21.36772,3.810547,0.4800215999999999,0.5696751999999999,0.693971,0.07476807,-0.4724884,0.8781433000000001,35.16089,1.181366,-22.15912,3.841751,0.4108401,0.5403840999999999,0.4663051,0.5845842,0.2692202,0.2462315,0.5280089,-0.256394,8.897758,-33.43636,33.87
4,0.1719055,-0.5047607,0.8459625,0.3385264,0.1004028,-0.5389709,0.8363037,-30.05157,0.3860474,-21.52699,3.874756,0.4456645,0.5826445,0.6500800999999999,0.1946259,-0.4930877999999999,0.8479155999999999,35.66594,0.9897766,-22.25803,3.918686,0.3804696,0.5500298,0.4659842,0.5833775999999999,0.2727928,0.2481476,0.5176769,-0.2594028,8.897758,-33.43636,33.87
4,0.1719055,-0.5047607,0.8459625,0.3385264,0.1004028,-0.5389709,0.8363037,-30.05157,0.3860474,-21.52699,3.874756,0.4456645,0.5826445,0.6500800999999999,0.1946259,-0.4930877999999999,0.8479155999999999,35.66594,0.9897766,-22.25803,3.918686,0.3804696,0.5500298,0.4659842,0.5833775999999999,0.2727928,0.2481476,0.5176769,-0.2594028,8.897758,-33.43636,33.87
4,0.1719055,-0.5047607,0.8459625,0.3385264,0.1004028,-0.5389709,0.8363037,-30.05157,0.3860474,-21.52699,3.874756,0.4456645,0.5826445,0.6500800999999999,0.1946259,-0.4930877999999999,0.8479155999999999,35.66594,0.9897766,-22.25803,3.918686,0.3804696,0.5500298,0.4659842,0.5833775999999999,0.2727928,0.2481476,0.5176769,-0.2594028,8.897758,-33.43636,33.87
4,0.1275635,-0.4777679,0.8691559000000001,0.3499446,0.06484985,-0.495697,0.8660583000000001,-30.21123,0.4192505,-21.47989,3.91153,0.4551098,0.5751963000000001,0.6518974000000001,0.1631012,-0.466629,0.8692780000000001,35.59277,1.050079,-22.23824,3.861191,0.3866573,0.5444340999999999,0.4657751,0.5821821,0.2766284,0.2492189,0.5072132,-0.2613921,8.897758,-33.43636,33.87
4,0.1275635,-0.4777679,0.8691559000000001,0.3499446,0.06484985,-0.495697,0.8660583000000001,-30.21123,0.4192505,-21.47989,3.91153,0.4551098,0.5751963000000001,0.6518974000000001,0.1631012,-0.466629,0.8692780000000001,35.59277,1.050079,-22.23824,3.861191,0.3866573,0.5444340999999999,0.4657751,0.5821821,0.2766284,0.2492189,0.5072132,-0.2613921,8.897758,-33.43636,33.87
4,0.1275635,-0.4777679,0.8691559000000001,0.3499446,0.06484985,-0.495697,0.8660583000000001,-30.21123,0.4192505,-21.47989,3.91153,0.4551098,0.5751963000000001,0.6518974000000001,0.1631012,-0.466629,0.8692780000000001,35.59277,1.050079,-22.23824,3.861191,0.3866573,0.5444340999999999,0.4657751,0.5821821,0.2766284,0.2492189,0.5072132,-0.2613921,8.897758,-33.43636,33.87
4,0.1275635,-0.4777679,0.8691559000000001,0.3499446,0.06484985,-0.495697,0.8660583000000001,-30.21123,0.4192505,-21.47989,3.91153,0.4551098,0.5751963000000001,0.6518974000000001,0.1631012,-0.466629,0.8692780000000001,35.59277,1.050079,-22.23824,3.861191,0.3866573,0.5444340999999999,0.4652077999999999,0.5808821,0.2835745999999999,0.250317,0.4882361,-0.2620432,9.009207,-10.11369,33.87
4,0.1275635,-0.4777679,0.8691559000000001,0.3499446,0.06484985,-0.495697,0.8660583000000001,-30.21123,0.4192505,-21.47989,3.91153,0.4551098,0.5751963000000001,0.6518974000000001,0.1631012,-0.466629,0.8692780000000001,35.59277,1.050079,-22.23824,3.861191,0.3866573,0.5444340999999999,0.4652077999999999,0.5808821,0.2835745999999999,0.250317,0.4882361,-0.2620432,9.009207,-10.11369,33.87
4,0.1275635,-0.4777679,0.8691559000000001,0.3499446,0.06484985,-0.495697,0.8660583000000001,-30.21123,0.4192505,-21.47989,3.91153,0.4551098,0.5751963000000001,0.6518974000000001,0.1631012,-0.466629,0.8692780000000001,35.59277,1.050079,-22.23824,3.861191,0.3866573,0.5444340999999999,0.4652077999999999,0.5808821,0.2835745999999999,0.250317,0.4882361,-0.2620432,9.009207,-10.11369,33.87
4,0.121521,-0.4657135,0.8765411,0.3520473,0.05952454,-0.4833221,0.8734130999999999,-30.24277,0.4079132,-21.44896,3.864853,0.4567199,0.5736896,0.6661443,0.1525726,-0.4561157,0.8767395,35.57164,1.049423,-22.21741,3.913422,0.3885804,0.54288,0.4652077999999999,0.5808821,0.2835745999999999,0.250317,0.4882361,-0.2620432,9.009207,-10.11369,33.87
4,0.121521,-0.4657135,0.8765411,0.3520473,0.05952454,-0.4833221,0.8734130999999999,-30.24277,0.4079132,-21.44896,3.864853,0.4567199,0.5736896,0.6661443,0.1525726,-0.4561157,0.8767395,35.57164,1.049423,-22.21741,3.913422,0.3885804,0.54288,0.4652077999999999,0.5808821,0.2835745999999999,0.250317,0.4882361,-0.2620432,9.009207,-10.11369,33.87
4,0.121521,-0.4657135,0.8765411,0.3520473,0.05952454,-0.4833221,0.8734130999999999,-30.24277,0.4079132,-21.44896,3.864853,0.4567199,0.5736896,0.6661443,0.1525726,-0.4561157,0.8767395,35.57164,1.049423,-22.21741,3.913422,0.3885804,0.54288,0.4652077999999999,0.5808821,0.2835745999999999,0.250317,0.4882361,-0.2620432,9.009207,-10.11369,33.87
4,0.121521,-0.4657135,0.8765411,0.3520473,0.05952454,-0.4833221,0.8734130999999999,-30.24277,0.4079132,-21.44896,3.864853,0.4567199,0.5736896,0.6661443,0.1525726,-0.4561157,0.8767395,35.57164,1.049423,-22.21741,3.913422,0.3885804,0.54288,0.4643238,0.5795925000000001,0.2874407,0.2532567999999999,0.4772687,-0.2630429,9.009207,-10.11369,33.87
4,0.121521,-0.4657135,0.8765411,0.3520473,0.05952454,-0.4833221,0.8734130999999999,-30.24277,0.4079132,-21.44896,3.864853,0.4567199,0.5736896,0.6661443,0.1525726,-0.4561157,0.8767395,35.57164,1.049423,-22.21741,3.913422,0.3885804,0.54288,0.4643238,0.5795925000000001,0.2874407,0.2532567999999999,0.4772687,-0.2630429,9.009207,-10.11369,33.87
4,0.121521,-0.4657135,0.8765411,0.3520473,0.05952454,-0.4833221,0.8734130999999999,-30.24277,0.4079132,-21.44896,3.864853,0.4567199,0.5736896,0.6661443,0.1525726,-0.4561157,0.8767395,35.57164,1.049423,-22.21741,3.913422,0.3885804,0.54288,0.4643238,0.5795925000000001,0.2874407,0.2532567999999999,0.4772687,-0.2630429,9.009207,-10.11369,33.87
4,-0.02380371,-0.4488372999999999,0.8932953000000001,0.3764540999999999,-0.07717896,-0.4500122,0.8896636999999998,-30.50336,0.3569031,-21.47772,3.870346,0.4808550999999999,0.5712919,0.686855,0.0340271,-0.446106,0.8943175999999999,35.257459999999995,1.075867,-22.1722,4.024155,0.4121955,0.540478,0.4630448,0.5779954,0.2911646,0.2573687,0.465814,-0.265161,9.009207,-10.11369,33.87
4,-0.02380371,-0.4488372999999999,0.8932953000000001,0.3764540999999999,-0.07717896,-0.4500122,0.8896636999999998,-30.50336,0.3569031,-21.47772,3.870346,0.4808550999999999,0.5712919,0.686855,0.0340271,-0.446106,0.8943175999999999,35.257459999999995,1.075867,-22.1722,4.024155,0.4121955,0.540478,0.4630448,0.5779954,0.2911646,0.2573687,0.465814,-0.265161,9.009207,-10.11369,33.87
4,-0.02380371,-0.4488372999999999,0.8932953000000001,0.3764540999999999,-0.07717896,-0.4500122,0.8896636999999998,-30.50336,0.3569031,-21.47772,3.870346,0.4808550999999999,0.5712919,0.686855,0.0340271,-0.446106,0.8943175999999999,35.257459999999995,1.075867,-22.1722,4.024155,0.4121955,0.540478,0.4630448,0.5779954,0.2911646,0.2573687,0.465814,-0.265161,9.009207,-10.11369,33.87
4,-0.02380371,-0.4488372999999999,0.8932953000000001,0.3764540999999999,-0.07717896,-0.4500122,0.8896636999999998,-30.50336,0.3569031,-21.47772,3.870346,0.4808550999999999,0.5712919,0.686855,0.0340271,-0.446106,0.8943175999999999,35.257459999999995,1.075867,-22.1722,4.024155,0.4121955,0.540478,0.4618602,0.5763533000000001,0.294722,0.2618841,0.4549611,-0.2678577,9.009207,-10.11369,33.87
4,-0.02380371,-0.4488372999999999,0.8932953000000001,0.3764540999999999,-0.07717896,-0.4500122,0.8896636999999998,-30.50336,0.3569031,-21.47772,3.870346,0.4808550999999999,0.5712919,0.686855,0.0340271,-0.446106,0.8943175999999999,35.257459999999995,1.075867,-22.1722,4.024155,0.4121955,0.540478,0.4618602,0.5763533000000001,0.294722,0.2618841,0.4549611,-0.2678577,9.009207,-10.11369,33.87
4,-0.02380371,-0.4488372999999999,0.8932953000000001,0.3764540999999999,-0.07717896,-0.4500122,0.8896636999999998,-30.50336,0.3569031,-21.47772,3.870346,0.4808550999999999,0.5712919,0.686855,0.0340271,-0.446106,0.8943175999999999,35.257459999999995,1.075867,-22.1722,4.024155,0.4121955,0.540478,0.4618602,0.5763533000000001,0.294722,0.2618841,0.4549611,-0.2678577,9.009207,-10.11369,33.87
4,-0.02380371,-0.4488372999999999,0.8932953000000001,0.3764540999999999,-0.07717896,-0.4500122,0.8896636999999998,-30.50336,0.3569031,-21.47772,3.870346,0.4808550999999999,0.5712919,0.686855,0.0340271,-0.446106,0.8943175999999999,35.257459999999995,1.075867,-22.1722,4.024155,0.4121955,0.540478,0.4610026,0.5750111,0.2978573,0.2650552,0.4456185,-0.2694966,9.009207,14.35244,33.87
4,-0.02380371,-0.4488372999999999,0.8932953000000001,0.3764540999999999,-0.07717896,-0.4500122,0.8896636999999998,-30.50336,0.3569031,-21.47772,3.870346,0.4808550999999999,0.5712919,0.686855,0.0340271,-0.446106,0.8943175999999999,35.257459999999995,1.075867,-22.1722,4.024155,0.4121955,0.540478,0.4610026,0.5750111,0.2978573,0.2650552,0.4456185,-0.2694966,9.009207,14.35244,33.87
4,-0.02380371,-0.4488372999999999,0.8932953000000001,0.3764540999999999,-0.07717896,-0.4500122,0.8896636999999998,-30.50336,0.3569031,-21.47772,3.870346,0.4808550999999999,0.5712919,0.686855,0.0340271,-0.446106,0.8943175999999999,35.257459999999995,1.075867,-22.1722,4.024155,0.4121955,0.540478,0.4610026,0.5750111,0.2978573,0.2650552,0.4456185,-0.2694966,9.009207,14.35244,33.87
4,-0.03462219,-0.4384308,0.8980865,0.4024647,-0.092453,-0.4410095,0.8927155000000001,-30.550890000000003,0.3742676,-21.46584,3.934433,0.4841905999999999,0.5694812,0.7128954000000001,0.009750366,-0.4354553,0.9001465,35.20859,1.116806,-22.16249,4.014175,0.4165581,0.5378278000000001,0.4601929,0.5746366,0.3012878,0.2664216,0.4373747999999999,-0.269604,9.009207,14.35244,33.87
4,-0.03462219,-0.4384308,0.8980865,0.4024647,-0.092453,-0.4410095,0.8927155000000001,-30.550890000000003,0.3742676,-21.46584,3.934433,0.4841905999999999,0.5694812,0.7128954000000001,0.009750366,-0.4354553,0.9001465,35.20859,1.116806,-22.16249,4.014175,0.4165581,0.5378278000000001,0.4601929,0.5746366,0.3012878,0.2664216,0.4373747999999999,-0.269604,9.009207,14.35244,33.87
4,-0.03462219,-0.4384308,0.8980865,0.4024647,-0.092453,-0.4410095,0.8927155000000001,-30.550890000000003,0.3742676,-21.46584,3.934433,0.4841905999999999,0.5694812,0.7128954000000001,0.009750366,-0.4354553,0.9001465,35.20859,1.116806,-22.16249,4.014175,0.4165581,0.5378278000000001,0.4601929,0.5746366,0.3012878,0.2664216,0.4373747999999999,-0.269604,9.009207,14.35244,33.87
4,-0.03462219,-0.4384308,0.8980865,0.4024647,-0.092453,-0.4410095,0.8927155000000001,-30.550890000000003,0.3742676,-21.46584,3.934433,0.4841905999999999,0.5694812,0.7128954000000001,0.009750366,-0.4354553,0.9001465,35.20859,1.116806,-22.16249,4.014175,0.4165581,0.5378278000000001,0.4590439999999999,0.5737814,0.3041036,0.2690697999999999,0.4292077,-0.2703084,9.009207,14.35244,33.87
4,-0.03462219,-0.4384308,0.8980865,0.4024647,-0.092453,-0.4410095,0.8927155000000001,-30.550890000000003,0.3742676,-21.46584,3.934433,0.4841905999999999,0.5694812,0.7128954000000001,0.009750366,-0.4354553,0.9001465,35.20859,1.116806,-22.16249,4.014175,0.4165581,0.5378278000000001,0.4590439999999999,0.5737814,0.3041036,0.2690697999999999,0.4292077,-0.2703084,9.009207,14.35244,33.87
4,-0.03462219,-0.4384308,0.8980865,0.4024647,-0.092453,-0.4410095,0.8927155000000001,-30.550890000000003,0.3742676,-21.46584,3.934433,0.4841905999999999,0.5694812,0.7128954000000001,0.009750366,-0.4354553,0.9001465,35.20859,1.116806,-22.16249,4.014175,0.4165581,0.5378278000000001,0.4590439999999999,0.5737814,0.3041036,0.2690697999999999,0.4292077,-0.2703084,9.009207,14.35244,33.87
4,0.290802,-0.3952942,0.8712921,0.2776692999999999,0.2107697,-0.4011383,0.8914337,-29.50931,0.5070038,-21.5571,4.072891,0.4159782999999999,0.5614793,0.5664619000000001,0.3212127999999999,-0.3923034999999999,0.861908,36.16121,1.226685,-22.12758,4.233505,0.3501955,0.5288762,0.4579313,0.5726741999999999,0.3067214,0.2717199,0.4215135999999999,-0.2711377,9.009207,14.35244,33.87
4,0.290802,-0.3952942,0.8712921,0.2776692999999999,0.2107697,-0.4011383,0.8914337,-29.50931,0.5070038,-21.5571,4.072891,0.4159782999999999,0.5614793,0.5664619000000001,0.3212127999999999,-0.3923034999999999,0.861908,36.16121,1.226685,-22.12758,4.233505,0.3501955,0.5288762,0.4579313,0.5726741999999999,0.3067214,0.2717199,0.4215135999999999,-0.2711377,9.009207,14.35244,33.87
4,0.290802,-0.3952942,0.8712921,0.2776692999999999,0.2107697,-0.4011383,0.8914337,-29.50931,0.5070038,-21.5571,4.072891,0.4159782999999999,0.5614793,0.5664619000000001,0.3212127999999999,-0.3923034999999999,0.861908,36.16121,1.226685,-22.12758,4.233505,0.3501955,0.5288762,0.4579313,0.5726741999999999,0.3067214,0.2717199,0.4215135999999999,-0.2711377,9.009207,14.35244,33.87
