Second,eye_comb_direction_x,eye_comb_direction_y,eye_comb_direction_z,eye_r_openness,eye_r_direction_x,eye_r_direction_y,eye_r_direction_z,eye_r_origin_x,eye_r_origin_y,eye_r_origin_z,eye_r_pupil_diameter,eye_r_pupil_position_x,eye_r_pupil_position_y,eye_l_openness,eye_l_direction_x,eye_l_direction_y,eye_l_direction_z,eye_l_origin_x,eye_l_origin_y,eye_l_origin_z,eye_l_pupil_diameter,eye_l_pupil_position_x,eye_l_pupil_position_y,head_position_x,head_position_y,head_position_z,head_rotation_roll,head_rotation_pitch,head_rotation_yaw,EDA,BVP,TMP
0,0.03773499,-0.01623535,0.9991455,1.0,-0.02444458,-0.03726196,0.9989929,-32.433170000000004,-5.24826,-22.85173,3.488464,0.5374371,0.7185505999999999,1.0,0.08628845,0.0002441406,0.9962616,33.50725,-6.954559,-20.33823,3.45491,0.4626696,0.7285005,0.3893468,0.6763496,0.3334155,-0.06161238,0.7412890000000001,0.07251994,4.690233,-0.4235640105889852,33.49817950025497
0,0.03773499,-0.01623535,0.9991455,1.0,-0.02444458,-0.03726196,0.9989929,-32.433170000000004,-5.24826,-22.85173,3.488464,0.5374371,0.7185505999999999,1.0,0.08628845,0.0002441406,0.9962616,33.50725,-6.954559,-20.33823,3.45491,0.4626696,0.7285005,0.3893468,0.6763496,0.3334155,-0.06161238,0.7412890000000001,0.07251994,4.690233,-0.4235640105889852,33.49817950025497
0,0.03773499,-0.01623535,0.9991455,1.0,-0.02444458,-0.03726196,0.9989929,-32.433170000000004,-5.24826,-22.85173,3.488464,0.5374371,0.7185505999999999,1.0,0.08628845,0.0002441406,0.9962616,33.50725,-6.954559,-20.33823,3.45491,0.4626696,0.7285005,0.3893468,0.6763496,0.3334155,-0.06161238,0.7412890000000001,0.07251994,4.690233,-0.4235640105889852,33.49817950025497
0,0.03773499,-0.01623535,0.9991455,1.0,-0.02444458,-0.03726196,0.9989929,-32.433170000000004,-5.24826,-22.85173,3.488464,0.5374371,0.7185505999999999,1.0,0.08628845,0.0002441406,0.9962616,33.50725,-6.954559,-20.33823,3.45491,0.4626696,0.7285005,0.3893468,0.6763496,0.3334155,-0.06161238,0.7412890000000001,0.07251994,4.690233,-0.4235640105889852,33.49817950025497
0,0.01623535,-0.07502747,0.9970398,1.0,-0.005783081,-0.08300781,0.996521,-32.39555,-5.452454,-22.7925,3.319153,0.5338194,0.7300214,1.0,0.1179047,-0.03761292,0.9923096,33.38753,-7.33255,-19.73141,3.442413,0.4630679,0.7390211,0.3895327,0.676318,0.3336892,-0.06142503,0.7411185,0.07257879,4.690233,-0.4235640105889852,33.49817950025497
0,0.01623535,-0.07502747,0.9970398,1.0,-0.005783081,-0.08300781,0.996521,-32.39555,-5.452454,-22.7925,3.319153,0.5338194,0.7300214,1.0,0.1179047,-0.03761292,0.9923096,33.38753,-7.33255,-19.73141,3.442413,0.4630679,0.7390211,0.3895327,0.676318,0.3336892,-0.06142503,0.7411185,0.07257879,4.690233,-0.4235640105889852,33.49817950025497
0,0.01623535,-0.07502747,0.9970398,1.0,-0.005783081,-0.08300781,0.996521,-32.39555,-5.452454,-22.7925,3.319153,0.5338194,0.7300214,1.0,0.1179047,-0.03761292,0.9923096,33.38753,-7.33255,-19.73141,3.442413,0.4630679,0.7390211,0.3895327,0.676318,0.3336892,-0.06142503,0.7411185,0.07257879,4.690233,-0.4235640105889852,33.49817950025497
0,-0.003250122,-0.08792114,0.996109,1.0,-0.003311157,-0.08795166,0.996109,-32.41713,-5.4398040000000005,-22.87138,3.347427,0.5343156,0.7310305,1.0,0.1175385,-0.0504303,0.9917755,33.40207,-7.371291999999999,-19.72614,3.442566,0.4626469,0.7415436,0.3896297,0.6762895000000001,0.3339258,-0.06122642,0.7409916999999999,0.0725382,4.690233,6.266584,33.49817950025497
0,-0.003250122,-0.08792114,0.996109,1.0,-0.003311157,-0.08795166,0.996109,-32.41713,-5.4398040000000005,-22.87138,3.347427,0.5343156,0.7310305,1.0,0.1175385,-0.0504303,0.9917755,33.40207,-7.371291999999999,-19.72614,3.442566,0.4626469,0.7415436,0.3896297,0.6762895000000001,0.3339258,-0.06122642,0.7409916999999999,0.0725382,4.690233,6.266584,33.49817950025497
0,-0.003250122,-0.08792114,0.996109,1.0,-0.003311157,-0.08795166,0.996109,-32.41713,-5.4398040000000005,-22.87138,3.347427,0.5343156,0.7310305,1.0,0.1175385,-0.0504303,0.9917755,33.40207,-7.371291999999999,-19.72614,3.442566,0.4626469,0.7415436,0.3896297,0.6762895000000001,0.3339258,-0.06122642,0.7409916999999999,0.0725382,4.690233,6.266584,33.49817950025497
0,-0.004516602,-0.0856781,0.9963074,1.0,-0.006072998,-0.08610535,0.9962616,-32.42067,-5.423218,-22.90335,3.3470760000000004,0.5347744000000001,0.730603,1.0,0.1160126,-0.05143738,0.9919128,33.41174,-7.372192,-19.71609,3.410828,0.4625356,0.7415436,0.3897782999999999,0.6761901,0.3340023,-0.06110037,0.7408335,0.07247312,4.690233,6.266584,33.49817950025497
0,-0.004516602,-0.0856781,0.9963074,1.0,-0.006072998,-0.08610535,0.9962616,-32.42067,-5.423218,-22.90335,3.3470760000000004,0.5347744000000001,0.730603,1.0,0.1160126,-0.05143738,0.9919128,33.41174,-7.372192,-19.71609,3.410828,0.4625356,0.7415436,0.3897782999999999,0.6761901,0.3340023,-0.06110037,0.7408335,0.07247312,4.690233,6.266584,33.49817950025497
0,-0.004516602,-0.0856781,0.9963074,1.0,-0.006072998,-0.08610535,0.9962616,-32.42067,-5.423218,-22.90335,3.3470760000000004,0.5347744000000001,0.730603,1.0,0.1160126,-0.05143738,0.9919128,33.41174,-7.372192,-19.71609,3.410828,0.4625356,0.7415436,0.3897782999999999,0.6761901,0.3340023,-0.06110037,0.7408335,0.07247312,4.690233,6.266584,33.49817950025497
0,0.06942749,-0.06629944,0.9953766,1.0,-0.0048370359999999,-0.08720398,0.99617,-32.424820000000004,-5.410202,-22.91776,3.346542,0.5347776,0.7304425,1.0,0.1160736,-0.05291748,0.9918213,33.41293,-7.376022,-19.68781,3.4021760000000003,0.4625085999999999,0.7415436,0.3898427,0.676003,0.3340872,-0.06087531,0.740594,0.07262104,4.690233,6.266584,33.49817950025497
0,0.06942749,-0.06629944,0.9953766,1.0,-0.0048370359999999,-0.08720398,0.99617,-32.424820000000004,-5.410202,-22.91776,3.346542,0.5347776,0.7304425,1.0,0.1160736,-0.05291748,0.9918213,33.41293,-7.376022,-19.68781,3.4021760000000003,0.4625085999999999,0.7415436,0.3898427,0.676003,0.3340872,-0.06087531,0.740594,0.07262104,4.690233,6.266584,33.49817950025497
0,0.06942749,-0.06629944,0.9953766,1.0,-0.0048370359999999,-0.08720398,0.99617,-32.424820000000004,-5.410202,-22.91776,3.346542,0.5347776,0.7304425,1.0,0.1160736,-0.05291748,0.9918213,33.41293,-7.376022,-19.68781,3.4021760000000003,0.4625085999999999,0.7415436,0.3898427,0.676003,0.3340872,-0.06087531,0.740594,0.07262104,4.690233,6.266584,33.49817950025497
0,0.06619263,-0.06828308,0.9954529,1.0,-0.0040588379999999,-0.08850098,0.9960632,-32.427440000000004,-5.403107,-22.91811,3.347168,0.534776,0.7303710999999999,1.0,0.1162567,-0.05361938,0.9917603000000002,33.41447,-7.376282000000001,-19.67017,3.385254,0.4624582,0.7414311,0.389884,0.6760801,0.3342321,-0.06063492,0.7403138000000001,0.07284765,4.690233,6.266584,33.49817950025497
0,0.06619263,-0.06828308,0.9954529,1.0,-0.0040588379999999,-0.08850098,0.9960632,-32.427440000000004,-5.403107,-22.91811,3.347168,0.534776,0.7303710999999999,1.0,0.1162567,-0.05361938,0.9917603000000002,33.41447,-7.376282000000001,-19.67017,3.385254,0.4624582,0.7414311,0.389884,0.6760801,0.3342321,-0.06063492,0.7403138000000001,0.07284765,4.690233,6.266584,33.49817950025497
0,0.06619263,-0.06828308,0.9954529,1.0,-0.0040588379999999,-0.08850098,0.9960632,-32.427440000000004,-5.403107,-22.91811,3.347168,0.534776,0.7303710999999999,1.0,0.1162567,-0.05361938,0.9917603000000002,33.41447,-7.376282000000001,-19.67017,3.385254,0.4624582,0.7414311,0.389884,0.6760801,0.3342321,-0.06063492,0.7403138000000001,0.07284765,4.690233,6.266584,33.49817950025497
0,0.06604004,-0.06748962,0.9955292,1.0,-0.003936768,-0.08827209,0.9960785,-32.42856,-5.399124,-22.91856,3.3477330000000003,0.5347982,0.73022,1.0,0.1153259,-0.05256653,0.9919281,33.41721,-7.376465,-19.66833,3.402695,0.4624666,0.7413188,0.389839,0.6760805999999999,0.3342370999999999,-0.0606651999999999,0.7402138,0.07266819,4.690233,6.266584,33.49817950025497
0,0.06604004,-0.06748962,0.9955292,1.0,-0.003936768,-0.08827209,0.9960785,-32.42856,-5.399124,-22.91856,3.3477330000000003,0.5347982,0.73022,1.0,0.1153259,-0.05256653,0.9919281,33.41721,-7.376465,-19.66833,3.402695,0.4624666,0.7413188,0.389839,0.6760805999999999,0.3342370999999999,-0.0606651999999999,0.7402138,0.07266819,4.690233,6.266584,33.49817950025497
0,0.06604004,-0.06748962,0.9955292,1.0,-0.003936768,-0.08827209,0.9960785,-32.42856,-5.399124,-22.91856,3.3477330000000003,0.5347982,0.73022,1.0,0.1153259,-0.05256653,0.9919281,33.41721,-7.376465,-19.66833,3.402695,0.4624666,0.7413188,0.389839,0.6760805999999999,0.3342370999999999,-0.0606651999999999,0.7402138,0.07266819,4.690233,6.266584,33.49817950025497
0,0.06604004,-0.06748962,0.9955292,1.0,-0.003936768,-0.08827209,0.9960785,-32.42856,-5.399124,-22.91856,3.3477330000000003,0.5347982,0.73022,1.0,0.1153259,-0.05256653,0.9919281,33.41721,-7.376465,-19.66833,3.402695,0.4624666,0.7413188,0.3898534999999999,0.6762311,0.334223,-0.06071587,0.7400651999999999,0.07260761,4.690233,6.266584,33.49817950025497
0,0.06604004,-0.06748962,0.9955292,1.0,-0.003936768,-0.08827209,0.9960785,-32.42856,-5.399124,-22.91856,3.3477330000000003,0.5347982,0.73022,1.0,0.1153259,-0.05256653,0.9919281,33.41721,-7.376465,-19.66833,3.402695,0.4624666,0.7413188,0.3898534999999999,0.6762311,0.334223,-0.06071587,0.7400651999999999,0.07260761,4.690233,6.266584,33.49817950025497
0,0.06604004,-0.06748962,0.9955292,1.0,-0.003936768,-0.08827209,0.9960785,-32.42856,-5.399124,-22.91856,3.3477330000000003,0.5347982,0.73022,1.0,0.1153259,-0.05256653,0.9919281,33.41721,-7.376465,-19.66833,3.402695,0.4624666,0.7413188,0.3898534999999999,0.6762311,0.334223,-0.06071587,0.7400651999999999,0.07260761,4.690233,6.266584,33.49817950025497
0,0.06661987,-0.06524658,0.995636,1.0,-0.004135132,-0.08647156,0.9962311,-32.43121,-5.398773,-22.91916,3.3482510000000003,0.5349102,0.729995,1.0,0.1156769,-0.05024719,0.9920044,33.41783,-7.376465,-19.66833,3.403763,0.4624077999999999,0.7410554,0.3897320999999999,0.6761928,0.3341638,-0.06069878,0.7400644000000001,0.07264178,4.690233,-3.549612,33.49817950025497
0,0.06661987,-0.06524658,0.995636,1.0,-0.004135132,-0.08647156,0.9962311,-32.43121,-5.398773,-22.91916,3.3482510000000003,0.5349102,0.729995,1.0,0.1156769,-0.05024719,0.9920044,33.41783,-7.376465,-19.66833,3.403763,0.4624077999999999,0.7410554,0.3897320999999999,0.6761928,0.3341638,-0.06069878,0.7400644000000001,0.07264178,4.690233,-3.549612,33.49817950025497
0,0.06661987,-0.06524658,0.995636,1.0,-0.004135132,-0.08647156,0.9962311,-32.43121,-5.398773,-22.91916,3.3482510000000003,0.5349102,0.729995,1.0,0.1156769,-0.05024719,0.9920044,33.41783,-7.376465,-19.66833,3.403763,0.4624077999999999,0.7410554,0.3897320999999999,0.6761928,0.3341638,-0.06069878,0.7400644000000001,0.07264178,4.690233,-3.549612,33.49817950025497
0,0.06661987,-0.06524658,0.995636,1.0,-0.004135132,-0.08647156,0.9962311,-32.43121,-5.398773,-22.91916,3.3482510000000003,0.5349102,0.729995,1.0,0.1156769,-0.05024719,0.9920044,33.41783,-7.376465,-19.66833,3.403763,0.4624077999999999,0.7410554,0.3896091,0.6760988,0.3341227,-0.06081761,0.7400966999999999,0.07249137,4.690233,-3.549612,33.69
0,0.06661987,-0.06524658,0.995636,1.0,-0.004135132,-0.08647156,0.9962311,-32.43121,-5.398773,-22.91916,3.3482510000000003,0.5349102,0.729995,1.0,0.1156769,-0.05024719,0.9920044,33.41783,-7.376465,-19.66833,3.403763,0.4624077999999999,0.7410554,0.3896091,0.6760988,0.3341227,-0.06081761,0.7400966999999999,0.07249137,4.690233,-3.549612,33.69
0,0.06661987,-0.06524658,0.995636,1.0,-0.004135132,-0.08647156,0.9962311,-32.43121,-5.398773,-22.91916,3.3482510000000003,0.5349102,0.729995,1.0,0.1156769,-0.05024719,0.9920044,33.41783,-7.376465,-19.66833,3.403763,0.4624077999999999,0.7410554,0.3896091,0.6760988,0.3341227,-0.06081761,0.7400966999999999,0.07249137,4.690233,-3.549612,33.69
0,0.06715393,-0.06295776,0.9957428,1.0,-0.004150391,-0.08560181,0.9963074,-32.43266,-5.397324,-22.92084,3.353928,0.534968,0.7298677,1.0,0.1155853,-0.0473175,0.992157,33.41803,-7.376465,-19.66833,3.4136050000000004,0.4624077999999999,0.7407201999999999,0.3895379,0.6761644,0.3340647,-0.06098524,0.7401123000000001,0.07232733,4.690233,-3.549612,33.69
0,0.06715393,-0.06295776,0.9957428,1.0,-0.004150391,-0.08560181,0.9963074,-32.43266,-5.397324,-22.92084,3.353928,0.534968,0.7298677,1.0,0.1155853,-0.0473175,0.992157,33.41803,-7.376465,-19.66833,3.4136050000000004,0.4624077999999999,0.7407201999999999,0.3895379,0.6761644,0.3340647,-0.06098524,0.7401123000000001,0.07232733,4.690233,-3.549612,33.69
0,0.06715393,-0.06295776,0.9957428,1.0,-0.004150391,-0.08560181,0.9963074,-32.43266,-5.397324,-22.92084,3.353928,0.534968,0.7298677,1.0,0.1155853,-0.0473175,0.992157,33.41803,-7.376465,-19.66833,3.4136050000000004,0.4624077999999999,0.7407201999999999,0.3895379,0.6761644,0.3340647,-0.06098524,0.7401123000000001,0.07232733,4.690233,-3.549612,33.69
0,0.06715393,-0.06295776,0.9957428,1.0,-0.004150391,-0.08560181,0.9963074,-32.43266,-5.397324,-22.92084,3.353928,0.534968,0.7298677,1.0,0.1155853,-0.0473175,0.992157,33.41803,-7.376465,-19.66833,3.4136050000000004,0.4624077999999999,0.7407201999999999,0.3893038,0.6761395,0.3340898,-0.06120591,0.7402002,0.07225957,4.690233,-3.549612,33.69
0,0.06715393,-0.06295776,0.9957428,1.0,-0.004150391,-0.08560181,0.9963074,-32.43266,-5.397324,-22.92084,3.353928,0.534968,0.7298677,1.0,0.1155853,-0.0473175,0.992157,33.41803,-7.376465,-19.66833,3.4136050000000004,0.4624077999999999,0.7407201999999999,0.3893038,0.6761395,0.3340898,-0.06120591,0.7402002,0.07225957,4.690233,-3.549612,33.69
0,0.06715393,-0.06295776,0.9957428,1.0,-0.004150391,-0.08560181,0.9963074,-32.43266,-5.397324,-22.92084,3.353928,0.534968,0.7298677,1.0,0.1155853,-0.0473175,0.992157,33.41803,-7.376465,-19.66833,3.4136050000000004,0.4624077999999999,0.7407201999999999,0.3893038,0.6761395,0.3340898,-0.06120591,0.7402002,0.07225957,4.690233,-3.549612,33.69
0,-0.1384735,-0.08468628,0.9867249,1.0,-0.3312531,-0.03205872,0.9429932,-33.34236,-5.681046,-22.33292,3.73735,0.6025674,0.7281804000000001,1.0,-0.1384735,-0.08468628,0.9867249,32.28615,-7.059067,-20.05615,3.402771,0.5269465999999999,0.7401071,0.3891737999999999,0.6761793,0.3338829,-0.06126428,0.7405473000000001,0.07193656,4.690233,-3.549612,33.69
0,-0.1384735,-0.08468628,0.9867249,1.0,-0.3312531,-0.03205872,0.9429932,-33.34236,-5.681046,-22.33292,3.73735,0.6025674,0.7281804000000001,1.0,-0.1384735,-0.08468628,0.9867249,32.28615,-7.059067,-20.05615,3.402771,0.5269465999999999,0.7401071,0.3891737999999999,0.6761793,0.3338829,-0.06126428,0.7405473000000001,0.07193656,4.690233,-3.549612,33.69
0,-0.1384735,-0.08468628,0.9867249,1.0,-0.3312531,-0.03205872,0.9429932,-33.34236,-5.681046,-22.33292,3.73735,0.6025674,0.7281804000000001,1.0,-0.1384735,-0.08468628,0.9867249,32.28615,-7.059067,-20.05615,3.402771,0.5269465999999999,0.7401071,0.3891737999999999,0.6761793,0.3338829,-0.06126428,0.7405473000000001,0.07193656,4.690233,-3.549612,33.69
0,-0.1761627,-0.06477356,0.9822235,1.0,-0.3507996,-0.03819275,0.9356537,-33.40404,-5.5708470000000005,-22.49594,3.683609,0.607733,0.7280382,1.0,-0.1761627,-0.06477356,0.9822235,32.16621,-7.038147,-20.08974,3.657104,0.5346738,0.7379265,0.3890411,0.6763158,0.3336975,-0.06158689,0.7409353,0.07198193,4.690233,-3.549612,33.69
0,-0.1761627,-0.06477356,0.9822235,1.0,-0.3507996,-0.03819275,0.9356537,-33.40404,-5.5708470000000005,-22.49594,3.683609,0.607733,0.7280382,1.0,-0.1761627,-0.06477356,0.9822235,32.16621,-7.038147,-20.08974,3.657104,0.5346738,0.7379265,0.3890411,0.6763158,0.3336975,-0.06158689,0.7409353,0.07198193,4.690233,-3.549612,33.69
0,-0.1761627,-0.06477356,0.9822235,1.0,-0.3507996,-0.03819275,0.9356537,-33.40404,-5.5708470000000005,-22.49594,3.683609,0.607733,0.7280382,1.0,-0.1761627,-0.06477356,0.9822235,32.16621,-7.038147,-20.08974,3.657104,0.5346738,0.7379265,0.3890411,0.6763158,0.3336975,-0.06158689,0.7409353,0.07198193,4.690233,-3.549612,33.69
0,-0.1493378,-0.07702637,0.9857788,1.0,-0.3206482,-0.05644226,0.9455109,-33.32901,-5.630753,-22.39911,3.4468690000000004,0.6014916,0.7306176999999999,1.0,-0.1493378,-0.07702637,0.9857788,32.28801,-7.064774000000001,-20.06451,3.403793,0.5280976,0.7394611999999999,0.3888,0.6763521,0.3336182,-0.0618684,0.7412279,0.07171395,4.690233,-3.549612,33.69
0,-0.1493378,-0.07702637,0.9857788,1.0,-0.3206482,-0.05644226,0.9455109,-33.32901,-5.630753,-22.39911,3.4468690000000004,0.6014916,0.7306176999999999,1.0,-0.1493378,-0.07702637,0.9857788,32.28801,-7.064774000000001,-20.06451,3.403793,0.5280976,0.7394611999999999,0.3888,0.6763521,0.3336182,-0.0618684,0.7412279,0.07171395,4.690233,-3.549612,33.69
0,-0.1493378,-0.07702637,0.9857788,1.0,-0.3206482,-0.05644226,0.9455109,-33.32901,-5.630753,-22.39911,3.4468690000000004,0.6014916,0.7306176999999999,1.0,-0.1493378,-0.07702637,0.9857788,32.28801,-7.064774000000001,-20.06451,3.403793,0.5280976,0.7394611999999999,0.3888,0.6763521,0.3336182,-0.0618684,0.7412279,0.07171395,4.690233,-3.549612,33.69
0,-0.1493378,-0.07702637,0.9857788,1.0,-0.3206482,-0.05644226,0.9455109,-33.32901,-5.630753,-22.39911,3.4468690000000004,0.6014916,0.7306176999999999,1.0,-0.1493378,-0.07702637,0.9857788,32.28801,-7.064774000000001,-20.06451,3.403793,0.5280976,0.7394611999999999,0.3887156,0.6764074000000001,0.3334006,-0.0622636999999999,0.741402,0.07193708,4.690233,-26.68363,33.69
0,-0.1493378,-0.07702637,0.9857788,1.0,-0.3206482,-0.05644226,0.9455109,-33.32901,-5.630753,-22.39911,3.4468690000000004,0.6014916,0.7306176999999999,1.0,-0.1493378,-0.07702637,0.9857788,32.28801,-7.064774000000001,-20.06451,3.403793,0.5280976,0.7394611999999999,0.3887156,0.6764074000000001,0.3334006,-0.0622636999999999,0.741402,0.07193708,4.690233,-26.68363,33.69
0,-0.1493378,-0.07702637,0.9857788,1.0,-0.3206482,-0.05644226,0.9455109,-33.32901,-5.630753,-22.39911,3.4468690000000004,0.6014916,0.7306176999999999,1.0,-0.1493378,-0.07702637,0.9857788,32.28801,-7.064774000000001,-20.06451,3.403793,0.5280976,0.7394611999999999,0.3887156,0.6764074000000001,0.3334006,-0.0622636999999999,0.741402,0.07193708,4.690233,-26.68363,33.69
0,-0.1493378,-0.07702637,0.9857788,1.0,-0.3206482,-0.05644226,0.9455109,-33.32901,-5.630753,-22.39911,3.4468690000000004,0.6014916,0.7306176999999999,1.0,-0.1493378,-0.07702637,0.9857788,32.28801,-7.064774000000001,-20.06451,3.403793,0.5280976,0.7394611999999999,0.3885857,0.6764023,0.3332684,-0.06287513,0.7415875,0.07197427,4.690233,-26.68363,33.69
0,-0.1493378,-0.07702637,0.9857788,1.0,-0.3206482,-0.05644226,0.9455109,-33.32901,-5.630753,-22.39911,3.4468690000000004,0.6014916,0.7306176999999999,1.0,-0.1493378,-0.07702637,0.9857788,32.28801,-7.064774000000001,-20.06451,3.403793,0.5280976,0.7394611999999999,0.3885857,0.6764023,0.3332684,-0.06287513,0.7415875,0.07197427,4.690233,-26.68363,33.69
0,-0.1493378,-0.07702637,0.9857788,1.0,-0.3206482,-0.05644226,0.9455109,-33.32901,-5.630753,-22.39911,3.4468690000000004,0.6014916,0.7306176999999999,1.0,-0.1493378,-0.07702637,0.9857788,32.28801,-7.064774000000001,-20.06451,3.403793,0.5280976,0.7394611999999999,0.3885857,0.6764023,0.3332684,-0.06287513,0.7415875,0.07197427,4.690233,-26.68363,33.69
0,-0.1583862,-0.06442261,0.98526,1.0,-0.2987366,-0.04716492,0.9531555,-33.1987,-5.694839,-22.25447,2.877869,0.5942885,0.7292491999999999,1.0,-0.1118622,-0.06976318,0.9912567,32.39371,-7.080231,-20.08719,3.051788,0.5209531,0.73869,0.3885446,0.6765479999999999,0.3331967,-0.06318831,0.741731,0.07224131,4.690233,-26.68363,33.69
0,-0.1583862,-0.06442261,0.98526,1.0,-0.2987366,-0.04716492,0.9531555,-33.1987,-5.694839,-22.25447,2.877869,0.5942885,0.7292491999999999,1.0,-0.1118622,-0.06976318,0.9912567,32.39371,-7.080231,-20.08719,3.051788,0.5209531,0.73869,0.3885446,0.6765479999999999,0.3331967,-0.06318831,0.741731,0.07224131,4.690233,-26.68363,33.69
0,-0.1583862,-0.06442261,0.98526,1.0,-0.2987366,-0.04716492,0.9531555,-33.1987,-5.694839,-22.25447,2.877869,0.5942885,0.7292491999999999,1.0,-0.1118622,-0.06976318,0.9912567,32.39371,-7.080231,-20.08719,3.051788,0.5209531,0.73869,0.3885446,0.6765479999999999,0.3331967,-0.06318831,0.741731,0.07224131,4.690233,-26.68363,33.69
0,-0.1589661,-0.06033325,0.9854279,1.0,-0.280426,-0.06655884,0.95755,-33.16324,-5.674194,-22.16534,2.85791,0.5907993,0.7297746999999999,1.0,-0.1115417,-0.05767822,0.9920807,32.45798,-7.059372,-20.1443,2.986588,0.5189630000000001,0.7370943,0.3885446,0.6765479999999999,0.3331967,-0.06318831,0.741731,0.07224131,4.690233,-26.68363,33.69
0,-0.1589661,-0.06033325,0.9854279,1.0,-0.280426,-0.06655884,0.95755,-33.16324,-5.674194,-22.16534,2.85791,0.5907993,0.7297746999999999,1.0,-0.1115417,-0.05767822,0.9920807,32.45798,-7.059372,-20.1443,2.986588,0.5189630000000001,0.7370943,0.3885446,0.6765479999999999,0.3331967,-0.06318831,0.741731,0.07224131,4.690233,-26.68363,33.69
0,-0.1589661,-0.06033325,0.9854279,1.0,-0.280426,-0.06655884,0.95755,-33.16324,-5.674194,-22.16534,2.85791,0.5907993,0.7297746999999999,1.0,-0.1115417,-0.05767822,0.9920807,32.45798,-7.059372,-20.1443,2.986588,0.5189630000000001,0.7370943,0.3885446,0.6765479999999999,0.3331967,-0.06318831,0.741731,0.07224131,4.690233,-26.68363,33.69
0,-0.1661987,-0.06036377,0.9842377,1.0,-0.276825,-0.06723022,0.9585571,-33.15872,-5.674988,-22.16147,2.83345,0.5902048000000001,0.7297779999999999,1.0,-0.1112671,-0.05673218,0.992157,32.46286,-7.059539999999999,-20.146320000000003,2.980209,0.5187848,0.7370015999999999,0.3884757,0.6766576,0.3331383,-0.06325533,0.7418369,0.0722966999999999,4.690233,-26.68363,33.69
0,-0.1661987,-0.06036377,0.9842377,1.0,-0.276825,-0.06723022,0.9585571,-33.15872,-5.674988,-22.16147,2.83345,0.5902048000000001,0.7297779999999999,1.0,-0.1112671,-0.05673218,0.992157,32.46286,-7.059539999999999,-20.146320000000003,2.980209,0.5187848,0.7370015999999999,0.3884757,0.6766576,0.3331383,-0.06325533,0.7418369,0.0722966999999999,4.690233,-26.68363,33.69
0,-0.1661987,-0.06036377,0.9842377,1.0,-0.276825,-0.06723022,0.9585571,-33.15872,-5.674988,-22.16147,2.83345,0.5902048000000001,0.7297779999999999,1.0,-0.1112671,-0.05673218,0.992157,32.46286,-7.059539999999999,-20.146320000000003,2.980209,0.5187848,0.7370015999999999,0.3884757,0.6766576,0.3331383,-0.06325533,0.7418369,0.0722966999999999,4.690233,-26.68363,33.69
1,-0.1661987,-0.06036377,0.9842377,1.0,-0.276825,-0.06723022,0.9585571,-33.15872,-5.674988,-22.16147,2.83345,0.5902048000000001,0.7297779999999999,1.0,-0.1112671,-0.05673218,0.992157,32.46286,-7.059539999999999,-20.146320000000003,2.980209,0.5187848,0.7370015999999999,0.388502,0.6767204000000001,0.3330444,-0.06350356,0.7419603,0.07212176,4.690233,-26.68363,33.69
1,-0.1661987,-0.06036377,0.9842377,1.0,-0.276825,-0.06723022,0.9585571,-33.15872,-5.674988,-22.16147,2.83345,0.5902048000000001,0.7297779999999999,1.0,-0.1112671,-0.05673218,0.992157,32.46286,-7.059539999999999,-20.146320000000003,2.980209,0.5187848,0.7370015999999999,0.388502,0.6767204000000001,0.3330444,-0.06350356,0.7419603,0.07212176,4.690233,-26.68363,33.69
1,-0.1661987,-0.06036377,0.9842377,1.0,-0.276825,-0.06723022,0.9585571,-33.15872,-5.674988,-22.16147,2.83345,0.5902048000000001,0.7297779999999999,1.0,-0.1112671,-0.05673218,0.992157,32.46286,-7.059539999999999,-20.146320000000003,2.980209,0.5187848,0.7370015999999999,0.388502,0.6767204000000001,0.3330444,-0.06350356,0.7419603,0.07212176,4.690233,-26.68363,33.69
1,-0.1669464,-0.06007385,0.9841309,1.0,-0.2731476,-0.06755066,0.9595795,-33.15419,-5.675766,-22.15761,2.856461,0.5896103,0.7297814,1.0,-0.1109923999999999,-0.0559082,0.9922333,32.46774,-7.059372,-20.14833,2.973923,0.5186065,0.7369089,0.3884591,0.6767603,0.3329841,-0.06367567,0.7420288,0.07205551,4.690233,21.36665,33.69
1,-0.1669464,-0.06007385,0.9841309,1.0,-0.2731476,-0.06755066,0.9595795,-33.15419,-5.675766,-22.15761,2.856461,0.5896103,0.7297814,1.0,-0.1109923999999999,-0.0559082,0.9922333,32.46774,-7.059372,-20.14833,2.973923,0.5186065,0.7369089,0.3884591,0.6767603,0.3329841,-0.06367567,0.7420288,0.07205551,4.690233,21.36665,33.69
1,-0.1669464,-0.06007385,0.9841309,1.0,-0.2731476,-0.06755066,0.9595795,-33.15419,-5.675766,-22.15761,2.856461,0.5896103,0.7297814,1.0,-0.1109923999999999,-0.0559082,0.9922333,32.46774,-7.059372,-20.14833,2.973923,0.5186065,0.7369089,0.3884591,0.6767603,0.3329841,-0.06367567,0.7420288,0.07205551,4.690233,21.36665,33.69
1,-0.1136017,-0.05632019,0.9919128,1.0,-0.2474518,-0.05941772,0.9670715,-33.08742,-5.791016,-21.88589,2.892822,0.5840206,0.7295858000000001,1.0,-0.07112122,-0.05513,0.9959412,32.539629999999995,-6.965363000000001,-20.39066,2.723602,0.5120918,0.735733,0.3884995999999999,0.6767828,0.332911,-0.06372523,0.7421253000000001,0.07199015,4.678704,21.36665,33.69
1,-0.1136017,-0.05632019,0.9919128,1.0,-0.2474518,-0.05941772,0.9670715,-33.08742,-5.791016,-21.88589,2.892822,0.5840206,0.7295858000000001,1.0,-0.07112122,-0.05513,0.9959412,32.539629999999995,-6.965363000000001,-20.39066,2.723602,0.5120918,0.735733,0.3884995999999999,0.6767828,0.332911,-0.06372523,0.7421253000000001,0.07199015,4.678704,21.36665,33.69
1,-0.1136017,-0.05632019,0.9919128,1.0,-0.2474518,-0.05941772,0.9670715,-33.08742,-5.791016,-21.88589,2.892822,0.5840206,0.7295858000000001,1.0,-0.07112122,-0.05513,0.9959412,32.539629999999995,-6.965363000000001,-20.39066,2.723602,0.5120918,0.735733,0.3884995999999999,0.6767828,0.332911,-0.06372523,0.7421253000000001,0.07199015,4.678704,21.36665,33.69
1,-0.1446991,-0.05889893,0.9877167,1.0,-0.2409514999999999,-0.05943298,0.9687042,-33.048770000000005,-5.8257900000000005,-21.58723,2.805801,0.5816691999999999,0.7275358000000001,1.0,-0.06130981,-0.05799866,0.9964294,32.55862,-6.906342,-20.53882,2.707321,0.5103809,0.7355998,0.3884616,0.6767310000000001,0.3329175,-0.06363678,0.7422433,0.07190628,4.678704,21.36665,33.69
1,-0.1446991,-0.05889893,0.9877167,1.0,-0.2409514999999999,-0.05943298,0.9687042,-33.048770000000005,-5.8257900000000005,-21.58723,2.805801,0.5816691999999999,0.7275358000000001,1.0,-0.06130981,-0.05799866,0.9964294,32.55862,-6.906342,-20.53882,2.707321,0.5103809,0.7355998,0.3884616,0.6767310000000001,0.3329175,-0.06363678,0.7422433,0.07190628,4.678704,21.36665,33.69
1,-0.1446991,-0.05889893,0.9877167,1.0,-0.2409514999999999,-0.05943298,0.9687042,-33.048770000000005,-5.8257900000000005,-21.58723,2.805801,0.5816691999999999,0.7275358000000001,1.0,-0.06130981,-0.05799866,0.9964294,32.55862,-6.906342,-20.53882,2.707321,0.5103809,0.7355998,0.3884616,0.6767310000000001,0.3329175,-0.06363678,0.7422433,0.07190628,4.678704,21.36665,33.69
1,-0.1184845,0.03164673,0.9924469,1.0,-0.2695465,0.02726746,0.9625854,-33.07249,-5.258926,-22.01003,2.787048,0.5862881,0.702995,1.0,-0.09667969,0.0322113,0.9947815,32.31958,-6.529205,-20.47264,2.725693,0.5221992,0.7125045999999999,0.3885345999999999,0.676818,0.332964,-0.06367643,0.7421359000000001,0.07192899,4.678704,21.36665,33.69
1,-0.1184845,0.03164673,0.9924469,1.0,-0.2695465,0.02726746,0.9625854,-33.07249,-5.258926,-22.01003,2.787048,0.5862881,0.702995,1.0,-0.09667969,0.0322113,0.9947815,32.31958,-6.529205,-20.47264,2.725693,0.5221992,0.7125045999999999,0.3885345999999999,0.676818,0.332964,-0.06367643,0.7421359000000001,0.07192899,4.678704,21.36665,33.69
1,-0.1184845,0.03164673,0.9924469,1.0,-0.2695465,0.02726746,0.9625854,-33.07249,-5.258926,-22.01003,2.787048,0.5862881,0.702995,1.0,-0.09667969,0.0322113,0.9947815,32.31958,-6.529205,-20.47264,2.725693,0.5221992,0.7125045999999999,0.3885345999999999,0.676818,0.332964,-0.06367643,0.7421359000000001,0.07192899,4.678704,21.36665,33.69
1,-0.1232758,0.03782654,0.9916382,1.0,-0.2720642,0.04490662,0.9612274,-33.064820000000005,-5.282654,-22.03914,2.693634,0.5863569000000001,0.7018827,1.0,-0.09251404,0.03627014,0.9950409,32.33177,-6.52829,-20.49586,2.746521,0.5213122,0.7122411,0.3885967,0.6766946,0.3330391,-0.063669,0.7420576,0.07158172,4.678704,21.36665,33.69
1,-0.1232758,0.03782654,0.9916382,1.0,-0.2720642,0.04490662,0.9612274,-33.064820000000005,-5.282654,-22.03914,2.693634,0.5863569000000001,0.7018827,1.0,-0.09251404,0.03627014,0.9950409,32.33177,-6.52829,-20.49586,2.746521,0.5213122,0.7122411,0.3885967,0.6766946,0.3330391,-0.063669,0.7420576,0.07158172,4.678704,21.36665,33.69
1,-0.1232758,0.03782654,0.9916382,1.0,-0.2720642,0.04490662,0.9612274,-33.064820000000005,-5.282654,-22.03914,2.693634,0.5863569000000001,0.7018827,1.0,-0.09251404,0.03627014,0.9950409,32.33177,-6.52829,-20.49586,2.746521,0.5213122,0.7122411,0.3885967,0.6766946,0.3330391,-0.063669,0.7420576,0.07158172,4.678704,19.34931,33.69
1,-0.1730957,0.04380798,0.9839171999999998,1.0,-0.2677155,0.05099487,0.9621429,-33.04712,-5.302521,-22.04321,2.737701,0.5852638000000001,0.7018827,1.0,-0.09394836,0.0375824,0.9948578,32.3392,-6.524811,-20.5222,2.74649,0.5212405999999999,0.7122411,0.3887262,0.6764975999999999,0.3330944,-0.06323255,0.7418483,0.07138547,4.678704,19.34931,33.69
1,-0.1730957,0.04380798,0.9839171999999998,1.0,-0.2677155,0.05099487,0.9621429,-33.04712,-5.302521,-22.04321,2.737701,0.5852638000000001,0.7018827,1.0,-0.09394836,0.0375824,0.9948578,32.3392,-6.524811,-20.5222,2.74649,0.5212405999999999,0.7122411,0.3887262,0.6764975999999999,0.3330944,-0.06323255,0.7418483,0.07138547,4.678704,19.34931,33.69
1,-0.1730957,0.04380798,0.9839171999999998,1.0,-0.2677155,0.05099487,0.9621429,-33.04712,-5.302521,-22.04321,2.737701,0.5852638000000001,0.7018827,1.0,-0.09394836,0.0375824,0.9948578,32.3392,-6.524811,-20.5222,2.74649,0.5212405999999999,0.7122411,0.3887262,0.6764975999999999,0.3330944,-0.06323255,0.7418483,0.07138547,4.678704,19.34931,33.69
1,-0.167923,0.04556274,0.9847412,1.0,-0.2665252999999999,0.05839539,0.9620514,-33.03654,-5.315933,-22.04541,2.745834,0.5847803,0.7014795,1.0,-0.09370422,0.03573608,0.9949493,32.345290000000006,-6.523376,-20.52879,2.729507,0.5210384,0.7124497,0.3887353,0.6765378000000001,0.3330602,-0.06316699,0.7417948000000001,0.07136834,4.678704,19.34931,33.69
1,-0.167923,0.04556274,0.9847412,1.0,-0.2665252999999999,0.05839539,0.9620514,-33.03654,-5.315933,-22.04541,2.745834,0.5847803,0.7014795,1.0,-0.09370422,0.03573608,0.9949493,32.345290000000006,-6.523376,-20.52879,2.729507,0.5210384,0.7124497,0.3887353,0.6765378000000001,0.3330602,-0.06316699,0.7417948000000001,0.07136834,4.678704,19.34931,33.69
1,-0.167923,0.04556274,0.9847412,1.0,-0.2665252999999999,0.05839539,0.9620514,-33.03654,-5.315933,-22.04541,2.745834,0.5847803,0.7014795,1.0,-0.09370422,0.03573608,0.9949493,32.345290000000006,-6.523376,-20.52879,2.729507,0.5210384,0.7124497,0.3887353,0.6765378000000001,0.3330602,-0.06316699,0.7417948000000001,0.07136834,4.678704,19.34931,33.69
1,-0.1322632,0.03999329,0.9904022,1.0,-0.2237091,0.05421448,0.9731293,-33.00368,-5.3312230000000005,-21.888720000000003,2.764664,0.5784154,0.7006215,1.0,-0.08604431,0.03274536,0.9957428,32.35941,-6.522202,-20.5222,2.743408,0.5196907000000001,0.7126581999999999,0.3888377999999999,0.6765154999999999,0.3330684,-0.06332708,0.7418239000000001,0.07105247,4.678704,19.34931,33.69
1,-0.1322632,0.03999329,0.9904022,1.0,-0.2237091,0.05421448,0.9731293,-33.00368,-5.3312230000000005,-21.888720000000003,2.764664,0.5784154,0.7006215,1.0,-0.08604431,0.03274536,0.9957428,32.35941,-6.522202,-20.5222,2.743408,0.5196907000000001,0.7126581999999999,0.3888377999999999,0.6765154999999999,0.3330684,-0.06332708,0.7418239000000001,0.07105247,4.678704,19.34931,33.69
1,-0.1322632,0.03999329,0.9904022,1.0,-0.2237091,0.05421448,0.9731293,-33.00368,-5.3312230000000005,-21.888720000000003,2.764664,0.5784154,0.7006215,1.0,-0.08604431,0.03274536,0.9957428,32.35941,-6.522202,-20.5222,2.743408,0.5196907000000001,0.7126581999999999,0.3888377999999999,0.6765154999999999,0.3330684,-0.06332708,0.7418239000000001,0.07105247,4.678704,19.34931,33.69
1,-0.1265411,0.04563904,0.9909058,1.0,-0.219162,0.06182861,0.9737244,-32.968309999999995,-5.336868,-21.86162,2.80722,0.5766971,0.6996484000000001,1.0,-0.0644989,0.03466797,0.9973145,32.515840000000004,-6.533966,-20.46657,2.748032,0.5122265,0.7121119,0.388795,0.6765359999999999,0.3330545,-0.06345456,0.7418353,0.07093824,4.678704,5.261955,33.69
1,-0.1265411,0.04563904,0.9909058,1.0,-0.219162,0.06182861,0.9737244,-32.968309999999995,-5.336868,-21.86162,2.80722,0.5766971,0.6996484000000001,1.0,-0.0644989,0.03466797,0.9973145,32.515840000000004,-6.533966,-20.46657,2.748032,0.5122265,0.7121119,0.388795,0.6765359999999999,0.3330545,-0.06345456,0.7418353,0.07093824,4.678704,5.261955,33.69
1,-0.1265411,0.04563904,0.9909058,1.0,-0.219162,0.06182861,0.9737244,-32.968309999999995,-5.336868,-21.86162,2.80722,0.5766971,0.6996484000000001,1.0,-0.0644989,0.03466797,0.9973145,32.515840000000004,-6.533966,-20.46657,2.748032,0.5122265,0.7121119,0.388795,0.6765359999999999,0.3330545,-0.06345456,0.7418353,0.07093824,4.678704,5.261955,33.69
1,-0.1265411,0.04563904,0.9909058,1.0,-0.219162,0.06182861,0.9737244,-32.968309999999995,-5.336868,-21.86162,2.80722,0.5766971,0.6996484000000001,1.0,-0.0644989,0.03466797,0.9973145,32.515840000000004,-6.533966,-20.46657,2.748032,0.5122265,0.7121119,0.3887890999999999,0.676719,0.3329492,-0.06371152,0.7419111999999999,0.07105693,4.678704,5.261955,33.69
1,-0.1265411,0.04563904,0.9909058,1.0,-0.219162,0.06182861,0.9737244,-32.968309999999995,-5.336868,-21.86162,2.80722,0.5766971,0.6996484000000001,1.0,-0.0644989,0.03466797,0.9973145,32.515840000000004,-6.533966,-20.46657,2.748032,0.5122265,0.7121119,0.3887890999999999,0.676719,0.3329492,-0.06371152,0.7419111999999999,0.07105693,4.678704,5.261955,33.69
1,-0.1265411,0.04563904,0.9909058,1.0,-0.219162,0.06182861,0.9737244,-32.968309999999995,-5.336868,-21.86162,2.80722,0.5766971,0.6996484000000001,1.0,-0.0644989,0.03466797,0.9973145,32.515840000000004,-6.533966,-20.46657,2.748032,0.5122265,0.7121119,0.3887890999999999,0.676719,0.3329492,-0.06371152,0.7419111999999999,0.07105693,4.678704,5.261955,33.69
1,-0.1265411,0.04563904,0.9909058,1.0,-0.219162,0.06182861,0.9737244,-32.968309999999995,-5.336868,-21.86162,2.80722,0.5766971,0.6996484000000001,1.0,-0.0644989,0.03466797,0.9973145,32.515840000000004,-6.533966,-20.46657,2.748032,0.5122265,0.7121119,0.3887659,0.6767675999999999,0.3329204,-0.06389652,0.7421767,0.07106151,4.678704,5.261955,33.69
1,-0.1265411,0.04563904,0.9909058,1.0,-0.219162,0.06182861,0.9737244,-32.968309999999995,-5.336868,-21.86162,2.80722,0.5766971,0.6996484000000001,1.0,-0.0644989,0.03466797,0.9973145,32.515840000000004,-6.533966,-20.46657,2.748032,0.5122265,0.7121119,0.3887659,0.6767675999999999,0.3329204,-0.06389652,0.7421767,0.07106151,4.678704,5.261955,33.69
1,-0.1265411,0.04563904,0.9909058,1.0,-0.219162,0.06182861,0.9737244,-32.968309999999995,-5.336868,-21.86162,2.80722,0.5766971,0.6996484000000001,1.0,-0.0644989,0.03466797,0.9973145,32.515840000000004,-6.533966,-20.46657,2.748032,0.5122265,0.7121119,0.3887659,0.6767675999999999,0.3329204,-0.06389652,0.7421767,0.07106151,4.678704,5.261955,33.69
1,-0.1035156,0.04623413,0.9935455,1.0,-0.1802216,0.05789185,0.9819183,-32.90781,-5.318314,-21.76544,2.940674,0.5700748999999999,0.698515,1.0,-0.04664612,0.03747559,0.9981995,32.57045,-6.55307,-20.3734,2.777206,0.5084177,0.7114146,0.3887523,0.6767901,0.3328699,-0.06391276,0.7424513,0.07072782,4.678704,5.261955,33.69
1,-0.1035156,0.04623413,0.9935455,1.0,-0.1802216,0.05789185,0.9819183,-32.90781,-5.318314,-21.76544,2.940674,0.5700748999999999,0.698515,1.0,-0.04664612,0.03747559,0.9981995,32.57045,-6.55307,-20.3734,2.777206,0.5084177,0.7114146,0.3887523,0.6767901,0.3328699,-0.06391276,0.7424513,0.07072782,4.678704,5.261955,33.69
1,-0.1035156,0.04623413,0.9935455,1.0,-0.1802216,0.05789185,0.9819183,-32.90781,-5.318314,-21.76544,2.940674,0.5700748999999999,0.698515,1.0,-0.04664612,0.03747559,0.9981995,32.57045,-6.55307,-20.3734,2.777206,0.5084177,0.7114146,0.3887523,0.6767901,0.3328699,-0.06391276,0.7424513,0.07072782,4.678704,5.261955,33.69
1,-0.2077332,0.1013488999999999,0.9729156,1.0,-0.3357085999999999,0.1054077,0.9360351999999998,-33.45706,-5.086716,-22.10144,3.133362,0.6071143,0.6902670999999999,1.0,-0.1708832,0.09986877,0.9802094,31.99973,-6.340591000000001,-20.52798,3.179398,0.5403988000000001,0.70043,0.38879,0.6767462,0.3328167999999999,-0.06382787,0.7426128000000001,0.07034861,4.678704,5.261955,33.69
1,-0.2077332,0.1013488999999999,0.9729156,1.0,-0.3357085999999999,0.1054077,0.9360351999999998,-33.45706,-5.086716,-22.10144,3.133362,0.6071143,0.6902670999999999,1.0,-0.1708832,0.09986877,0.9802094,31.99973,-6.340591000000001,-20.52798,3.179398,0.5403988000000001,0.70043,0.38879,0.6767462,0.3328167999999999,-0.06382787,0.7426128000000001,0.07034861,4.678704,5.261955,33.69
1,-0.2077332,0.1013488999999999,0.9729156,1.0,-0.3357085999999999,0.1054077,0.9360351999999998,-33.45706,-5.086716,-22.10144,3.133362,0.6071143,0.6902670999999999,1.0,-0.1708832,0.09986877,0.9802094,31.99973,-6.340591000000001,-20.52798,3.179398,0.5403988000000001,0.70043,0.38879,0.6767462,0.3328167999999999,-0.06382787,0.7426128000000001,0.07034861,4.678704,5.261955,33.69
1,-0.2047577,0.09300232,0.9743805,1.0,-0.3376311999999999,0.1055756,0.9353333,-33.45,-5.085556,-22.09938,3.1864470000000003,0.6071143,0.6902821,1.0,-0.170517,0.08953857,0.9812622,32.01675,-6.343369,-20.52101,3.174286,0.5398010999999999,0.7016079000000001,0.3888134,0.6767550999999999,0.3328024,-0.0641932,0.7427653000000001,0.07027137,4.678704,5.261955,33.69
1,-0.2047577,0.09300232,0.9743805,1.0,-0.3376311999999999,0.1055756,0.9353333,-33.45,-5.085556,-22.09938,3.1864470000000003,0.6071143,0.6902821,1.0,-0.170517,0.08953857,0.9812622,32.01675,-6.343369,-20.52101,3.174286,0.5398010999999999,0.7016079000000001,0.3888134,0.6767550999999999,0.3328024,-0.0641932,0.7427653000000001,0.07027137,4.678704,5.261955,33.69
1,-0.2047577,0.09300232,0.9743805,1.0,-0.3376311999999999,0.1055756,0.9353333,-33.45,-5.085556,-22.09938,3.1864470000000003,0.6071143,0.6902821,1.0,-0.170517,0.08953857,0.9812622,32.01675,-6.343369,-20.52101,3.174286,0.5398010999999999,0.7016079000000001,0.3888134,0.6767550999999999,0.3328024,-0.0641932,0.7427653000000001,0.07027137,4.678704,5.261955,33.69
1,-0.2516327,0.09872437,0.9627686,1.0,-0.320282,0.1043091,0.9415436,-33.3821,-5.080582,-22.0717,3.230392,0.6027435,0.6898569,1.0,-0.2076416,0.09494019,0.9735718,32.17838,-6.360306,-20.48915,3.203201,0.5388137,0.7015209,0.3887779,0.6766795999999999,0.3326734,-0.064171,0.7427590999999999,0.07027808,4.678704,0.3896884,33.69
1,-0.2516327,0.09872437,0.9627686,1.0,-0.320282,0.1043091,0.9415436,-33.3821,-5.080582,-22.0717,3.230392,0.6027435,0.6898569,1.0,-0.2076416,0.09494019,0.9735718,32.17838,-6.360306,-20.48915,3.203201,0.5388137,0.7015209,0.3887779,0.6766795999999999,0.3326734,-0.064171,0.7427590999999999,0.07027808,4.678704,0.3896884,33.69
1,-0.2516327,0.09872437,0.9627686,1.0,-0.320282,0.1043091,0.9415436,-33.3821,-5.080582,-22.0717,3.230392,0.6027435,0.6898569,1.0,-0.2076416,0.09494019,0.9735718,32.17838,-6.360306,-20.48915,3.203201,0.5388137,0.7015209,0.3887779,0.6766795999999999,0.3326734,-0.064171,0.7427590999999999,0.07027808,4.678704,0.3896884,33.69
1,-0.2342377,0.09803772,0.9672089,1.0,-0.3203735,0.1059722999999999,0.94133,-33.31187,-5.093903,-22.05672,3.2570650000000003,0.6004319,0.6899715999999999,1.0,-0.1815796,0.09289551,0.9789734,32.136109999999995,-6.351563,-20.4964,3.249634,0.537136,0.7013994,0.3888522,0.6766025,0.3324751999999999,-0.06429163,0.7428973000000001,0.07047034,4.678704,0.3896884,33.69
1,-0.2342377,0.09803772,0.9672089,1.0,-0.3203735,0.1059722999999999,0.94133,-33.31187,-5.093903,-22.05672,3.2570650000000003,0.6004319,0.6899715999999999,1.0,-0.1815796,0.09289551,0.9789734,32.136109999999995,-6.351563,-20.4964,3.249634,0.537136,0.7013994,0.3888522,0.6766025,0.3324751999999999,-0.06429163,0.7428973000000001,0.07047034,4.678704,0.3896884,33.69
1,-0.2342377,0.09803772,0.9672089,1.0,-0.3203735,0.1059722999999999,0.94133,-33.31187,-5.093903,-22.05672,3.2570650000000003,0.6004319,0.6899715999999999,1.0,-0.1815796,0.09289551,0.9789734,32.136109999999995,-6.351563,-20.4964,3.249634,0.537136,0.7013994,0.3888522,0.6766025,0.3324751999999999,-0.06429163,0.7428973000000001,0.07047034,4.678704,0.3896884,33.69
1,-0.2371674,0.09716797,0.9665833,1.0,-0.3161774,0.1065368999999999,0.942688,-33.297709999999995,-5.093903,-22.05635,3.289963,0.5994623,0.6899078000000001,1.0,-0.1781006,0.08984375,0.9798889,32.15735,-6.343964,-20.50044,3.261292,0.5360431,0.7015209,0.3889405,0.6766989000000001,0.3323392,-0.06465308,0.7429869,0.07015715,4.678704,0.3896884,33.69
1,-0.2371674,0.09716797,0.9665833,1.0,-0.3161774,0.1065368999999999,0.942688,-33.297709999999995,-5.093903,-22.05635,3.289963,0.5994623,0.6899078000000001,1.0,-0.1781006,0.08984375,0.9798889,32.15735,-6.343964,-20.50044,3.261292,0.5360431,0.7015209,0.3889405,0.6766989000000001,0.3323392,-0.06465308,0.7429869,0.07015715,4.678704,0.3896884,33.69
1,-0.2371674,0.09716797,0.9665833,1.0,-0.3161774,0.1065368999999999,0.942688,-33.297709999999995,-5.093903,-22.05635,3.289963,0.5994623,0.6899078000000001,1.0,-0.1781006,0.08984375,0.9798889,32.15735,-6.343964,-20.50044,3.261292,0.5360431,0.7015209,0.3889405,0.6766989000000001,0.3323392,-0.06465308,0.7429869,0.07015715,4.678704,0.3896884,33.69
1,-0.2371674,0.09716797,0.9665833,1.0,-0.3161774,0.1065368999999999,0.942688,-33.297709999999995,-5.093903,-22.05635,3.289963,0.5994623,0.6899078000000001,1.0,-0.1781006,0.08984375,0.9798889,32.15735,-6.343964,-20.50044,3.261292,0.5360431,0.7015209,0.38897,0.6767386,0.3322,-0.06476422,0.7430182,0.06986883,4.678704,0.3896884,33.69
1,-0.2371674,0.09716797,0.9665833,1.0,-0.3161774,0.1065368999999999,0.942688,-33.297709999999995,-5.093903,-22.05635,3.289963,0.5994623,0.6899078000000001,1.0,-0.1781006,0.08984375,0.9798889,32.15735,-6.343964,-20.50044,3.261292,0.5360431,0.7015209,0.38897,0.6767386,0.3322,-0.06476422,0.7430182,0.06986883,4.678704,0.3896884,33.69
1,-0.2371674,0.09716797,0.9665833,1.0,-0.3161774,0.1065368999999999,0.942688,-33.297709999999995,-5.093903,-22.05635,3.289963,0.5994623,0.6899078000000001,1.0,-0.1781006,0.08984375,0.9798889,32.15735,-6.343964,-20.50044,3.261292,0.5360431,0.7015209,0.38897,0.6767386,0.3322,-0.06476422,0.7430182,0.06986883,4.678704,0.3896884,33.69
1,-0.2371674,0.09716797,0.9665833,1.0,-0.3161774,0.1065368999999999,0.942688,-33.297709999999995,-5.093903,-22.05635,3.289963,0.5994623,0.6899078000000001,1.0,-0.1781006,0.08984375,0.9798889,32.15735,-6.343964,-20.50044,3.261292,0.5360431,0.7015209,0.388962,0.6767955,0.332086,-0.06471031,0.7430998000000001,0.06978673,4.678704,0.3896884,33.69
1,-0.2371674,0.09716797,0.9665833,1.0,-0.3161774,0.1065368999999999,0.942688,-33.297709999999995,-5.093903,-22.05635,3.289963,0.5994623,0.6899078000000001,1.0,-0.1781006,0.08984375,0.9798889,32.15735,-6.343964,-20.50044,3.261292,0.5360431,0.7015209,0.388962,0.6767955,0.332086,-0.06471031,0.7430998000000001,0.06978673,4.678704,0.3896884,33.69
1,-0.2371674,0.09716797,0.9665833,1.0,-0.3161774,0.1065368999999999,0.942688,-33.297709999999995,-5.093903,-22.05635,3.289963,0.5994623,0.6899078000000001,1.0,-0.1781006,0.08984375,0.9798889,32.15735,-6.343964,-20.50044,3.261292,0.5360431,0.7015209,0.388962,0.6767955,0.332086,-0.06471031,0.7430998000000001,0.06978673,4.678704,0.3896884,33.69
1,-0.2371674,0.09716797,0.9665833,1.0,-0.3161774,0.1065368999999999,0.942688,-33.297709999999995,-5.093903,-22.05635,3.289963,0.5994623,0.6899078000000001,1.0,-0.1781006,0.08984375,0.9798889,32.15735,-6.343964,-20.50044,3.261292,0.5360431,0.7015209,0.3889075999999999,0.6766840999999999,0.3319762,-0.06499339,0.7432278,0.06988488,4.678704,-17.56577,33.69
1,-0.2371674,0.09716797,0.9665833,1.0,-0.3161774,0.1065368999999999,0.942688,-33.297709999999995,-5.093903,-22.05635,3.289963,0.5994623,0.6899078000000001,1.0,-0.1781006,0.08984375,0.9798889,32.15735,-6.343964,-20.50044,3.261292,0.5360431,0.7015209,0.3889075999999999,0.6766840999999999,0.3319762,-0.06499339,0.7432278,0.06988488,4.678704,-17.56577,33.69
1,-0.2371674,0.09716797,0.9665833,1.0,-0.3161774,0.1065368999999999,0.942688,-33.297709999999995,-5.093903,-22.05635,3.289963,0.5994623,0.6899078000000001,1.0,-0.1781006,0.08984375,0.9798889,32.15735,-6.343964,-20.50044,3.261292,0.5360431,0.7015209,0.3889075999999999,0.6766840999999999,0.3319762,-0.06499339,0.7432278,0.06988488,4.678704,-17.56577,33.69
1,-0.1462707999999999,0.08999634,0.9851379,1.0,-0.2787781,0.09532166,0.9555969,-33.03865,-5.17807,-21.95323,3.44957,0.5863729999999999,0.6927839,1.0,-0.08016968,0.08676147,0.9929962,32.32553,-6.353363,-20.49475,3.385956,0.5194324,0.7015913,0.3886259,0.6767594,0.3317015,-0.06558976,0.7437166999999999,0.07009584,4.678704,-17.56577,33.69
1,-0.1462707999999999,0.08999634,0.9851379,1.0,-0.2787781,0.09532166,0.9555969,-33.03865,-5.17807,-21.95323,3.44957,0.5863729999999999,0.6927839,1.0,-0.08016968,0.08676147,0.9929962,32.32553,-6.353363,-20.49475,3.385956,0.5194324,0.7015913,0.3886259,0.6767594,0.3317015,-0.06558976,0.7437166999999999,0.07009584,4.678704,-17.56577,33.69
1,-0.1462707999999999,0.08999634,0.9851379,1.0,-0.2787781,0.09532166,0.9555969,-33.03865,-5.17807,-21.95323,3.44957,0.5863729999999999,0.6927839,1.0,-0.08016968,0.08676147,0.9929962,32.32553,-6.353363,-20.49475,3.385956,0.5194324,0.7015913,0.3886259,0.6767594,0.3317015,-0.06558976,0.7437166999999999,0.07009584,4.678704,-17.56577,33.69
1,-0.1549835,0.09417725,0.9834136999999998,1.0,-0.2732239,0.09844971,0.9568939,-32.99918,-5.176254,-21.9425,3.542389,0.5844268,0.6923431,1.0,-0.07963562,0.09077454,0.9926758,32.37433,-6.3887480000000005,-20.45723,3.397629,0.5177984,0.7019023,0.3885677999999999,0.6768071,0.3316987999999999,-0.06560348,0.7438308000000001,0.0699878999999999,4.678704,-17.56577,33.69
1,-0.1549835,0.09417725,0.9834136999999998,1.0,-0.2732239,0.09844971,0.9568939,-32.99918,-5.176254,-21.9425,3.542389,0.5844268,0.6923431,1.0,-0.07963562,0.09077454,0.9926758,32.37433,-6.3887480000000005,-20.45723,3.397629,0.5177984,0.7019023,0.3885677999999999,0.6768071,0.3316987999999999,-0.06560348,0.7438308000000001,0.0699878999999999,4.678704,-17.56577,33.69
1,-0.1549835,0.09417725,0.9834136999999998,1.0,-0.2732239,0.09844971,0.9568939,-32.99918,-5.176254,-21.9425,3.542389,0.5844268,0.6923431,1.0,-0.07963562,0.09077454,0.9926758,32.37433,-6.3887480000000005,-20.45723,3.397629,0.5177984,0.7019023,0.3885677999999999,0.6768071,0.3316987999999999,-0.06560348,0.7438308000000001,0.0699878999999999,4.678704,-17.56577,33.69
1,-0.1578979,0.09408569,0.9829559,1.0,-0.2695465,0.09797668,0.9579773,-32.98291,-5.176254,-21.94229,3.541153,0.5834552,0.6923431,1.0,-0.08097839,0.09074402,0.992569,32.39072,-6.39003,-20.45692,3.3976589999999995,0.5174270999999999,0.7019519000000001,0.3885299,0.6767318,0.3316,-0.06549957,0.7439805,0.0701111,4.678704,-17.56577,33.69
1,-0.1578979,0.09408569,0.9829559,1.0,-0.2695465,0.09797668,0.9579773,-32.98291,-5.176254,-21.94229,3.541153,0.5834552,0.6923431,1.0,-0.08097839,0.09074402,0.992569,32.39072,-6.39003,-20.45692,3.3976589999999995,0.5174270999999999,0.7019519000000001,0.3885299,0.6767318,0.3316,-0.06549957,0.7439805,0.0701111,4.678704,-17.56577,33.69
1,-0.1578979,0.09408569,0.9829559,1.0,-0.2695465,0.09797668,0.9579773,-32.98291,-5.176254,-21.94229,3.541153,0.5834552,0.6923431,1.0,-0.08097839,0.09074402,0.992569,32.39072,-6.39003,-20.45692,3.3976589999999995,0.5174270999999999,0.7019519000000001,0.3885299,0.6767318,0.3316,-0.06549957,0.7439805,0.0701111,4.678704,-17.56577,33.69
1,-0.1578979,0.09408569,0.9829559,1.0,-0.2695465,0.09797668,0.9579773,-32.98291,-5.176254,-21.94229,3.541153,0.5834552,0.6923431,1.0,-0.08097839,0.09074402,0.992569,32.39072,-6.39003,-20.45692,3.3976589999999995,0.5174270999999999,0.7019519000000001,0.3884627,0.6767529,0.3315848,-0.0658345,0.7440760999999999,0.07032924,4.678704,-17.56577,33.69
1,-0.1578979,0.09408569,0.9829559,1.0,-0.2695465,0.09797668,0.9579773,-32.98291,-5.176254,-21.94229,3.541153,0.5834552,0.6923431,1.0,-0.08097839,0.09074402,0.992569,32.39072,-6.39003,-20.45692,3.3976589999999995,0.5174270999999999,0.7019519000000001,0.3884627,0.6767529,0.3315848,-0.0658345,0.7440760999999999,0.07032924,4.678704,-17.56577,33.69
1,-0.1578979,0.09408569,0.9829559,1.0,-0.2695465,0.09797668,0.9579773,-32.98291,-5.176254,-21.94229,3.541153,0.5834552,0.6923431,1.0,-0.08097839,0.09074402,0.992569,32.39072,-6.39003,-20.45692,3.3976589999999995,0.5174270999999999,0.7019519000000001,0.3884627,0.6767529,0.3315848,-0.0658345,0.7440760999999999,0.07032924,4.678704,-18.19735,33.69
1,-0.1524353,0.09196472,0.984024,1.0,-0.2279052999999999,0.08815002,0.9696808,-32.97852,-5.164246,-21.90498,3.660583,0.5783981,0.6925929,1.0,-0.06190491,0.09577942,0.9934692,32.54651,-6.4942470000000005,-20.20255,3.5784,0.5101089,0.7023801,0.3883614,0.6768875,0.3316909999999999,-0.06603389,0.7440806999999999,0.07045324,4.678704,-35.57661,33.69
1,-0.1524353,0.09196472,0.984024,1.0,-0.2279052999999999,0.08815002,0.9696808,-32.97852,-5.164246,-21.90498,3.660583,0.5783981,0.6925929,1.0,-0.06190491,0.09577942,0.9934692,32.54651,-6.4942470000000005,-20.20255,3.5784,0.5101089,0.7023801,0.3883614,0.6768875,0.3316909999999999,-0.06603389,0.7440806999999999,0.07045324,4.678704,-35.57661,33.69
1,-0.1524353,0.09196472,0.984024,1.0,-0.2279052999999999,0.08815002,0.9696808,-32.97852,-5.164246,-21.90498,3.660583,0.5783981,0.6925929,1.0,-0.06190491,0.09577942,0.9934692,32.54651,-6.4942470000000005,-20.20255,3.5784,0.5101089,0.7023801,0.3883614,0.6768875,0.3316909999999999,-0.06603389,0.7440806999999999,0.07045324,4.678704,-35.57661,33.69
1,-0.2127837999999999,0.09156799,0.9727936,1.0,-0.2213135,0.09170532,0.970871,-32.970490000000005,-5.171799,-21.899520000000003,3.713776,0.5773778,0.6924227,1.0,-0.06059265,0.08804321,0.9942627,32.56538,-6.520615,-20.12897,3.462234,0.5094751000000001,0.7031546999999999,0.3883094,0.6769379,0.331829,-0.06579711,0.7441727,0.07091521,4.678704,-35.57661,33.69
1,-0.2127837999999999,0.09156799,0.9727936,1.0,-0.2213135,0.09170532,0.970871,-32.970490000000005,-5.171799,-21.899520000000003,3.713776,0.5773778,0.6924227,1.0,-0.06059265,0.08804321,0.9942627,32.56538,-6.520615,-20.12897,3.462234,0.5094751000000001,0.7031546999999999,0.3883094,0.6769379,0.331829,-0.06579711,0.7441727,0.07091521,4.678704,-35.57661,33.69
1,-0.2127837999999999,0.09156799,0.9727936,1.0,-0.2213135,0.09170532,0.970871,-32.970490000000005,-5.171799,-21.899520000000003,3.713776,0.5773778,0.6924227,1.0,-0.06059265,0.08804321,0.9942627,32.56538,-6.520615,-20.12897,3.462234,0.5094751000000001,0.7031546999999999,0.3883094,0.6769379,0.331829,-0.06579711,0.7441727,0.07091521,4.678704,-35.57661,33.69
1,-0.2127837999999999,0.09156799,0.9727936,1.0,-0.2213135,0.09170532,0.970871,-32.970490000000005,-5.171799,-21.899520000000003,3.713776,0.5773778,0.6924227,1.0,-0.06059265,0.08804321,0.9942627,32.56538,-6.520615,-20.12897,3.462234,0.5094751000000001,0.7031546999999999,0.3882897999999999,0.6770054,0.3318375,-0.06565037,0.7440062,0.07107016,4.678704,-35.57661,33.69
1,-0.2127837999999999,0.09156799,0.9727936,1.0,-0.2213135,0.09170532,0.970871,-32.970490000000005,-5.171799,-21.899520000000003,3.713776,0.5773778,0.6924227,1.0,-0.06059265,0.08804321,0.9942627,32.56538,-6.520615,-20.12897,3.462234,0.5094751000000001,0.7031546999999999,0.3882897999999999,0.6770054,0.3318375,-0.06565037,0.7440062,0.07107016,4.678704,-35.57661,33.69
1,-0.2127837999999999,0.09156799,0.9727936,1.0,-0.2213135,0.09170532,0.970871,-32.970490000000005,-5.171799,-21.899520000000003,3.713776,0.5773778,0.6924227,1.0,-0.06059265,0.08804321,0.9942627,32.56538,-6.520615,-20.12897,3.462234,0.5094751000000001,0.7031546999999999,0.3882897999999999,0.6770054,0.3318375,-0.06565037,0.7440062,0.07107016,4.678704,-35.57661,33.69
2,-0.1379242,0.08482361,0.9868011,1.0,-0.2000732,0.08457947,0.97612,-32.93124,-5.195236,-21.87537,3.648224,0.5735613,0.6935486,1.0,-0.04696655,0.08454895,0.9953003,32.65411,-6.531082,-20.1633,3.601547,0.5049613000000001,0.7043276999999999,0.3882389,0.6769974,0.331868,-0.06618751,0.7438871,0.0709165,4.678704,-35.57661,33.69
2,-0.1379242,0.08482361,0.9868011,1.0,-0.2000732,0.08457947,0.97612,-32.93124,-5.195236,-21.87537,3.648224,0.5735613,0.6935486,1.0,-0.04696655,0.08454895,0.9953003,32.65411,-6.531082,-20.1633,3.601547,0.5049613000000001,0.7043276999999999,0.3882389,0.6769974,0.331868,-0.06618751,0.7438871,0.0709165,4.678704,-35.57661,33.69
2,-0.1379242,0.08482361,0.9868011,1.0,-0.2000732,0.08457947,0.97612,-32.93124,-5.195236,-21.87537,3.648224,0.5735613,0.6935486,1.0,-0.04696655,0.08454895,0.9953003,32.65411,-6.531082,-20.1633,3.601547,0.5049613000000001,0.7043276999999999,0.3882389,0.6769974,0.331868,-0.06618751,0.7438871,0.0709165,4.678704,-35.57661,33.69
2,-0.1641997999999999,0.1539154,0.9743347,1.0,-0.1739044,0.1556091,0.9723815999999998,-32.6747,-4.934036,-21.824720000000003,3.646484,0.5621583,0.6762218000000001,1.0,-0.02099609,0.1275024,0.9916077,32.82327,-6.174271,-20.23845,3.680542,0.4966951,0.6887996,0.3880978,0.6770181,0.3319543,-0.06637701,0.7438074,0.07104749,4.678704,-35.57661,33.69
2,-0.1641997999999999,0.1539154,0.9743347,1.0,-0.1739044,0.1556091,0.9723815999999998,-32.6747,-4.934036,-21.824720000000003,3.646484,0.5621583,0.6762218000000001,1.0,-0.02099609,0.1275024,0.9916077,32.82327,-6.174271,-20.23845,3.680542,0.4966951,0.6887996,0.3880978,0.6770181,0.3319543,-0.06637701,0.7438074,0.07104749,4.678704,-35.57661,33.69
2,-0.1641997999999999,0.1539154,0.9743347,1.0,-0.1739044,0.1556091,0.9723815999999998,-32.6747,-4.934036,-21.824720000000003,3.646484,0.5621583,0.6762218000000001,1.0,-0.02099609,0.1275024,0.9916077,32.82327,-6.174271,-20.23845,3.680542,0.4966951,0.6887996,0.3880978,0.6770181,0.3319543,-0.06637701,0.7438074,0.07104749,4.678704,-35.57661,33.69
2,-0.1585541,0.153595,0.9753265,1.0,-0.16716,0.1551818999999999,0.9736328000000002,-32.66689,-4.949081,-21.82089,3.63208,0.5611114,0.6766675999999999,1.0,-0.01881409,0.126358,0.9917908,32.8452,-6.202316000000001,-20.18161,3.664902,0.4957722,0.6892595,0.3881294,0.6769289000000001,0.3318937,-0.06628805,0.7438574,0.07092511,4.678704,17.09204,33.69
2,-0.1585541,0.153595,0.9753265,1.0,-0.16716,0.1551818999999999,0.9736328000000002,-32.66689,-4.949081,-21.82089,3.63208,0.5611114,0.6766675999999999,1.0,-0.01881409,0.126358,0.9917908,32.8452,-6.202316000000001,-20.18161,3.664902,0.4957722,0.6892595,0.3881294,0.6769289000000001,0.3318937,-0.06628805,0.7438574,0.07092511,4.678704,17.09204,33.69
2,-0.1585541,0.153595,0.9753265,1.0,-0.16716,0.1551818999999999,0.9736328000000002,-32.66689,-4.949081,-21.82089,3.63208,0.5611114,0.6766675999999999,1.0,-0.01881409,0.126358,0.9917908,32.8452,-6.202316000000001,-20.18161,3.664902,0.4957722,0.6892595,0.3881294,0.6769289000000001,0.3318937,-0.06628805,0.7438574,0.07092511,4.678704,17.09204,33.69
2,-0.1621552,0.1538239,0.9746857,1.0,-0.164093,0.1542358,0.9743042,-32.6571,-4.968811,-21.80183,3.613037,0.5604097,0.6771965,1.0,-0.034729,0.1254272,0.9914856,32.92262,-6.369476000000001,-19.68431,3.68486,0.4951267,0.6899445,0.3880997,0.6770147,0.3319275,-0.06630463,0.7440445,0.07089637,4.678704,17.09204,33.69
2,-0.1621552,0.1538239,0.9746857,1.0,-0.164093,0.1542358,0.9743042,-32.6571,-4.968811,-21.80183,3.613037,0.5604097,0.6771965,1.0,-0.034729,0.1254272,0.9914856,32.92262,-6.369476000000001,-19.68431,3.68486,0.4951267,0.6899445,0.3880997,0.6770147,0.3319275,-0.06630463,0.7440445,0.07089637,4.678704,17.09204,33.69
2,-0.1621552,0.1538239,0.9746857,1.0,-0.164093,0.1542358,0.9743042,-32.6571,-4.968811,-21.80183,3.613037,0.5604097,0.6771965,1.0,-0.034729,0.1254272,0.9914856,32.92262,-6.369476000000001,-19.68431,3.68486,0.4951267,0.6899445,0.3880997,0.6770147,0.3319275,-0.06630463,0.7440445,0.07089637,4.678704,17.09204,33.69
2,-0.1619568,0.1525726,0.9749146,1.0,-0.1629181,0.152771,0.9747314,-32.64781,-4.982391000000001,-21.78259,3.561234,0.5599261999999999,0.6775286,1.0,-0.03132629,0.1243591,0.9917296999999998,32.93976,-6.388306,-19.68073,3.691467,0.4941933,0.6906106,0.3881235,0.6770791,0.3318344,-0.06640126,0.7442068000000001,0.07111876,4.678704,17.09204,33.69
2,-0.1619568,0.1525726,0.9749146,1.0,-0.1629181,0.152771,0.9747314,-32.64781,-4.982391000000001,-21.78259,3.561234,0.5599261999999999,0.6775286,1.0,-0.03132629,0.1243591,0.9917296999999998,32.93976,-6.388306,-19.68073,3.691467,0.4941933,0.6906106,0.3881235,0.6770791,0.3318344,-0.06640126,0.7442068000000001,0.07111876,4.678704,17.09204,33.69
2,-0.1619568,0.1525726,0.9749146,1.0,-0.1629181,0.152771,0.9747314,-32.64781,-4.982391000000001,-21.78259,3.561234,0.5599261999999999,0.6775286,1.0,-0.03132629,0.1243591,0.9917296999999998,32.93976,-6.388306,-19.68073,3.691467,0.4941933,0.6906106,0.3881235,0.6770791,0.3318344,-0.06640126,0.7442068000000001,0.07111876,4.678704,17.09204,33.69
2,-0.09881592,0.1352386,0.9858704,1.0,-0.1607208,0.1478423999999999,0.9758453,-32.640840000000004,-4.993087999999999,-21.76945,3.506943,0.5594024999999999,0.6782182,1.0,-0.03300476,0.1213226,0.9920502,32.95244,-6.3909,-19.67909,3.684998,0.4939797,0.6910061,0.388209,0.6770331999999999,0.3317894,-0.06620984,0.7443328,0.07125415,4.678704,17.09204,33.69
2,-0.09881592,0.1352386,0.9858704,1.0,-0.1607208,0.1478423999999999,0.9758453,-32.640840000000004,-4.993087999999999,-21.76945,3.506943,0.5594024999999999,0.6782182,1.0,-0.03300476,0.1213226,0.9920502,32.95244,-6.3909,-19.67909,3.684998,0.4939797,0.6910061,0.388209,0.6770331999999999,0.3317894,-0.06620984,0.7443328,0.07125415,4.678704,17.09204,33.69
2,-0.09881592,0.1352386,0.9858704,1.0,-0.1607208,0.1478423999999999,0.9758453,-32.640840000000004,-4.993087999999999,-21.76945,3.506943,0.5594024999999999,0.6782182,1.0,-0.03300476,0.1213226,0.9920502,32.95244,-6.3909,-19.67909,3.684998,0.4939797,0.6910061,0.388209,0.6770331999999999,0.3317894,-0.06620984,0.7443328,0.07125415,4.678704,17.09204,33.69
2,-0.06536865,0.1240997,0.9901123,1.0,-0.1530457,0.1398926,0.9782562,-32.61916,-5.008133,-21.74301,3.4894870000000004,0.5577645999999999,0.67929,1.0,-0.01217651,0.1140747,0.9933929,32.98663,-6.402786,-19.66423,3.649902,0.4906034000000001,0.6919270000000001,0.3880928,0.6769776999999999,0.3317842,-0.06613241,0.7442434,0.07119346,4.678704,14.35417,33.69
2,-0.06536865,0.1240997,0.9901123,1.0,-0.1530457,0.1398926,0.9782562,-32.61916,-5.008133,-21.74301,3.4894870000000004,0.5577645999999999,0.67929,1.0,-0.01217651,0.1140747,0.9933929,32.98663,-6.402786,-19.66423,3.649902,0.4906034000000001,0.6919270000000001,0.3880928,0.6769776999999999,0.3317842,-0.06613241,0.7442434,0.07119346,4.678704,14.35417,33.69
2,-0.06536865,0.1240997,0.9901123,1.0,-0.1530457,0.1398926,0.9782562,-32.61916,-5.008133,-21.74301,3.4894870000000004,0.5577645999999999,0.67929,1.0,-0.01217651,0.1140747,0.9933929,32.98663,-6.402786,-19.66423,3.649902,0.4906034000000001,0.6919270000000001,0.3880928,0.6769776999999999,0.3317842,-0.06613241,0.7442434,0.07119346,4.678704,14.35417,33.69
2,-0.04931641,0.1207581,0.9914398,1.0,-0.1338654,0.1396637,0.9810944,-32.57077,-5.058014,-21.66656,3.47731,0.5538954,0.6801019,1.0,-0.007263184,0.1110535,0.9937744,33.03896,-6.435349,-19.67229,3.607346,0.4884252999999999,0.6932843000000001,0.3880635,0.6769765999999999,0.3317946,-0.06651424,0.7441295,0.07130628,4.678704,14.35417,33.69
2,-0.04931641,0.1207581,0.9914398,1.0,-0.1338654,0.1396637,0.9810944,-32.57077,-5.058014,-21.66656,3.47731,0.5538954,0.6801019,1.0,-0.007263184,0.1110535,0.9937744,33.03896,-6.435349,-19.67229,3.607346,0.4884252999999999,0.6932843000000001,0.3880635,0.6769765999999999,0.3317946,-0.06651424,0.7441295,0.07130628,4.678704,14.35417,33.69
2,-0.04931641,0.1207581,0.9914398,1.0,-0.1338654,0.1396637,0.9810944,-32.57077,-5.058014,-21.66656,3.47731,0.5538954,0.6801019,1.0,-0.007263184,0.1110535,0.9937744,33.03896,-6.435349,-19.67229,3.607346,0.4884252999999999,0.6932843000000001,0.3880635,0.6769765999999999,0.3317946,-0.06651424,0.7441295,0.07130628,4.678704,14.35417,33.69
2,-0.03944397,0.1132813,0.9927673,1.0,-0.1335753999999999,0.1314545,0.9822693,-32.54787,-5.069046,-21.63586,3.455643,0.5530703,0.6810448,1.0,0.000213623,0.1053313999999999,0.9944305,33.060959999999994,-6.4412080000000005,-19.67674,3.578705,0.4869100999999999,0.6940809,0.3880333,0.6770841999999999,0.3317305,-0.06683511,0.7440386,0.07136503,4.678704,14.35417,33.69
2,-0.03944397,0.1132813,0.9927673,1.0,-0.1335753999999999,0.1314545,0.9822693,-32.54787,-5.069046,-21.63586,3.455643,0.5530703,0.6810448,1.0,0.000213623,0.1053313999999999,0.9944305,33.060959999999994,-6.4412080000000005,-19.67674,3.578705,0.4869100999999999,0.6940809,0.3880333,0.6770841999999999,0.3317305,-0.06683511,0.7440386,0.07136503,4.678704,14.35417,33.69
2,-0.03944397,0.1132813,0.9927673,1.0,-0.1335753999999999,0.1314545,0.9822693,-32.54787,-5.069046,-21.63586,3.455643,0.5530703,0.6810448,1.0,0.000213623,0.1053313999999999,0.9944305,33.060959999999994,-6.4412080000000005,-19.67674,3.578705,0.4869100999999999,0.6940809,0.3880333,0.6770841999999999,0.3317305,-0.06683511,0.7440386,0.07136503,4.678704,14.35417,33.69
2,-0.005432129,0.1035461,0.9945984,1.0,-0.1430664,0.1180877999999999,0.9826355,-32.48183,-5.1680150000000005,-21.33856,3.408829,0.5517550999999999,0.6828137,1.0,0.007965088,0.1020203,0.9947357,33.098859999999995,-6.4412080000000005,-19.74567,3.498764,0.4848931999999999,0.6949765999999999,0.388046,0.6772435,0.3316821,-0.06704147,0.744095,0.07138757,4.678704,14.35417,33.69
2,-0.005432129,0.1035461,0.9945984,1.0,-0.1430664,0.1180877999999999,0.9826355,-32.48183,-5.1680150000000005,-21.33856,3.408829,0.5517550999999999,0.6828137,1.0,0.007965088,0.1020203,0.9947357,33.098859999999995,-6.4412080000000005,-19.74567,3.498764,0.4848931999999999,0.6949765999999999,0.388046,0.6772435,0.3316821,-0.06704147,0.744095,0.07138757,4.678704,14.35417,33.69
2,-0.005432129,0.1035461,0.9945984,1.0,-0.1430664,0.1180877999999999,0.9826355,-32.48183,-5.1680150000000005,-21.33856,3.408829,0.5517550999999999,0.6828137,1.0,0.007965088,0.1020203,0.9947357,33.098859999999995,-6.4412080000000005,-19.74567,3.498764,0.4848931999999999,0.6949765999999999,0.388046,0.6772435,0.3316821,-0.06704147,0.744095,0.07138757,4.678704,14.35417,33.69
2,0.01217651,0.08776855,0.9960632,1.0,-0.1380767999999999,0.1156616,0.9836426,-32.47296,-5.261978,-21.08127,3.376602,0.5506814,0.6835467,1.0,0.01829529,0.08659363,0.9960632,33.12019,-6.426285,-19.85638,3.414627,0.4830925,0.6971542,0.3880883,0.6772220999999999,0.3314504,-0.06728309,0.7442508000000001,0.07156082,4.678704,14.35417,33.69
2,0.01217651,0.08776855,0.9960632,1.0,-0.1380767999999999,0.1156616,0.9836426,-32.47296,-5.261978,-21.08127,3.376602,0.5506814,0.6835467,1.0,0.01829529,0.08659363,0.9960632,33.12019,-6.426285,-19.85638,3.414627,0.4830925,0.6971542,0.3880883,0.6772220999999999,0.3314504,-0.06728309,0.7442508000000001,0.07156082,4.678704,14.35417,33.69
2,0.01217651,0.08776855,0.9960632,1.0,-0.1380767999999999,0.1156616,0.9836426,-32.47296,-5.261978,-21.08127,3.376602,0.5506814,0.6835467,1.0,0.01829529,0.08659363,0.9960632,33.12019,-6.426285,-19.85638,3.414627,0.4830925,0.6971542,0.3880883,0.6772220999999999,0.3314504,-0.06728309,0.7442508000000001,0.07156082,4.678704,14.35417,33.69
2,0.01278687,0.08512878,0.9962769,1.0,-0.1327057,0.1175079,0.9841614,-32.46179,-5.328766000000001,-20.90083,3.349152,0.549558,0.6836924,1.0,0.02096558,0.08325195,0.9962921,33.12964,-6.421646,-19.9015,3.368576,0.4825172,0.6977466,0.3880659,0.6772825,0.3313109,-0.06751747,0.7445506,0.07140696,4.678704,14.35417,33.69
2,0.01278687,0.08512878,0.9962769,1.0,-0.1327057,0.1175079,0.9841614,-32.46179,-5.328766000000001,-20.90083,3.349152,0.549558,0.6836924,1.0,0.02096558,0.08325195,0.9962921,33.12964,-6.421646,-19.9015,3.368576,0.4825172,0.6977466,0.3880659,0.6772825,0.3313109,-0.06751747,0.7445506,0.07140696,4.678704,14.35417,33.69
2,0.01278687,0.08512878,0.9962769,1.0,-0.1327057,0.1175079,0.9841614,-32.46179,-5.328766000000001,-20.90083,3.349152,0.549558,0.6836924,1.0,0.02096558,0.08325195,0.9962921,33.12964,-6.421646,-19.9015,3.368576,0.4825172,0.6977466,0.3880659,0.6772825,0.3313109,-0.06751747,0.7445506,0.07140696,4.678704,14.35417,33.69
2,0.02838135,0.07855225,0.9964905,1.0,-0.1270752,0.1211395,0.9844666,-32.45384,-5.471069,-20.48677,3.3553010000000003,0.5483635,0.6838368,1.0,0.02999878,0.07809448,0.9964905,33.12964,-6.377731,-20.02562,3.325272,0.4815066,0.6980571999999999,0.3879039,0.6772245,0.3312265,-0.067827,0.7448294,0.07120682,4.678704,8.213192,33.69
2,0.02838135,0.07855225,0.9964905,1.0,-0.1270752,0.1211395,0.9844666,-32.45384,-5.471069,-20.48677,3.3553010000000003,0.5483635,0.6838368,1.0,0.02999878,0.07809448,0.9964905,33.12964,-6.377731,-20.02562,3.325272,0.4815066,0.6980571999999999,0.3879039,0.6772245,0.3312265,-0.067827,0.7448294,0.07120682,4.678704,8.213192,33.69
2,0.02838135,0.07855225,0.9964905,1.0,-0.1270752,0.1211395,0.9844666,-32.45384,-5.471069,-20.48677,3.3553010000000003,0.5483635,0.6838368,1.0,0.02999878,0.07809448,0.9964905,33.12964,-6.377731,-20.02562,3.325272,0.4815066,0.6980571999999999,0.3879039,0.6772245,0.3312265,-0.067827,0.7448294,0.07120682,4.678704,8.213192,33.69
2,0.03926086,0.08493042,0.9956055,1.0,-0.1235503999999999,0.1174622,0.9853516,-32.4279,-5.631973,-19.93864,3.320465,0.5467122,0.6839954,1.0,0.04417419,0.08390808,0.9954834,33.13245,-6.273605,-20.39618,3.279053,0.4797659999999999,0.6975899,0.3877355999999999,0.6771967,0.3308890999999999,-0.06814602,0.7452496999999999,0.07118725,4.678704,8.213192,33.69
2,0.03926086,0.08493042,0.9956055,1.0,-0.1235503999999999,0.1174622,0.9853516,-32.4279,-5.631973,-19.93864,3.320465,0.5467122,0.6839954,1.0,0.04417419,0.08390808,0.9954834,33.13245,-6.273605,-20.39618,3.279053,0.4797659999999999,0.6975899,0.3877355999999999,0.6771967,0.3308890999999999,-0.06814602,0.7452496999999999,0.07118725,4.678704,8.213192,33.69
2,0.03926086,0.08493042,0.9956055,1.0,-0.1235503999999999,0.1174622,0.9853516,-32.4279,-5.631973,-19.93864,3.320465,0.5467122,0.6839954,1.0,0.04417419,0.08390808,0.9954834,33.13245,-6.273605,-20.39618,3.279053,0.4797659999999999,0.6975899,0.3877355999999999,0.6771967,0.3308890999999999,-0.06814602,0.7452496999999999,0.07118725,4.678704,8.213192,33.69
2,0.03355408,0.08888245,0.9954681,1.0,-0.1132813,0.1181641,0.986496,-32.42641,-5.637344000000001,-19.92998,3.316208,0.5454813000000001,0.6839614,1.0,0.0460968,0.08628845,0.9951935,33.13858,-6.273605,-20.39618,3.229492,0.4793967,0.6972454,0.3877355999999999,0.6771967,0.3308890999999999,-0.06814602,0.7452496999999999,0.07118725,4.678704,8.213192,33.69
2,0.03355408,0.08888245,0.9954681,1.0,-0.1132813,0.1181641,0.986496,-32.42641,-5.637344000000001,-19.92998,3.316208,0.5454813000000001,0.6839614,1.0,0.0460968,0.08628845,0.9951935,33.13858,-6.273605,-20.39618,3.229492,0.4793967,0.6972454,0.3877355999999999,0.6771967,0.3308890999999999,-0.06814602,0.7452496999999999,0.07118725,4.678704,8.213192,33.69
2,0.03355408,0.08888245,0.9954681,1.0,-0.1132813,0.1181641,0.986496,-32.42641,-5.637344000000001,-19.92998,3.316208,0.5454813000000001,0.6839614,1.0,0.0460968,0.08628845,0.9951935,33.13858,-6.273605,-20.39618,3.229492,0.4793967,0.6972454,0.3877355999999999,0.6771967,0.3308890999999999,-0.06814602,0.7452496999999999,0.07118725,4.678704,8.213192,33.69
2,0.04650879,0.07981873,0.9957123,1.0,-0.02629089,0.07670593,0.9967041,-32.6147,-4.316986,-23.83545,3.136368,0.5440914000000001,0.6836824,1.0,0.04650879,0.07981873,0.9957123,33.19545,-6.284943,-20.26857,3.134476,0.4776537,0.6969556,0.3878238,0.6771618,0.3306157,-0.06840467,0.7455193,0.07132085,4.679985,-3.637255,33.69
2,0.04650879,0.07981873,0.9957123,1.0,-0.02629089,0.07670593,0.9967041,-32.6147,-4.316986,-23.83545,3.136368,0.5440914000000001,0.6836824,1.0,0.04650879,0.07981873,0.9957123,33.19545,-6.284943,-20.26857,3.134476,0.4776537,0.6969556,0.3878238,0.6771618,0.3306157,-0.06840467,0.7455193,0.07132085,4.679985,-3.637255,33.69
2,0.04650879,0.07981873,0.9957123,1.0,-0.02629089,0.07670593,0.9967041,-32.6147,-4.316986,-23.83545,3.136368,0.5440914000000001,0.6836824,1.0,0.04650879,0.07981873,0.9957123,33.19545,-6.284943,-20.26857,3.134476,0.4776537,0.6969556,0.3878238,0.6771618,0.3306157,-0.06840467,0.7455193,0.07132085,4.679985,-3.637255,33.69
2,0.04650879,0.07981873,0.9957123,1.0,-0.02629089,0.07670593,0.9967041,-32.6147,-4.316986,-23.83545,3.136368,0.5440914000000001,0.6836824,1.0,0.04650879,0.07981873,0.9957123,33.19545,-6.284943,-20.26857,3.134476,0.4776537,0.6969556,0.3876929,0.6771818000000001,0.330582,-0.06867573,0.7456854,0.07096337,4.679985,-3.637255,33.69
2,0.04650879,0.07981873,0.9957123,1.0,-0.02629089,0.07670593,0.9967041,-32.6147,-4.316986,-23.83545,3.136368,0.5440914000000001,0.6836824,1.0,0.04650879,0.07981873,0.9957123,33.19545,-6.284943,-20.26857,3.134476,0.4776537,0.6969556,0.3876929,0.6771818000000001,0.330582,-0.06867573,0.7456854,0.07096337,4.679985,-3.637255,33.69
2,0.04650879,0.07981873,0.9957123,1.0,-0.02629089,0.07670593,0.9967041,-32.6147,-4.316986,-23.83545,3.136368,0.5440914000000001,0.6836824,1.0,0.04650879,0.07981873,0.9957123,33.19545,-6.284943,-20.26857,3.134476,0.4776537,0.6969556,0.3876929,0.6771818000000001,0.330582,-0.06867573,0.7456854,0.07096337,4.679985,-3.637255,33.69
2,0.04650879,0.07981873,0.9957123,1.0,-0.02629089,0.07670593,0.9967041,-32.6147,-4.316986,-23.83545,3.136368,0.5440914000000001,0.6836824,1.0,0.04650879,0.07981873,0.9957123,33.19545,-6.284943,-20.26857,3.134476,0.4776537,0.6969556,0.3877836,0.6772248000000001,0.3304007,-0.06879926,0.7457170999999999,0.07095688,4.679985,-3.637255,33.69
2,0.04650879,0.07981873,0.9957123,1.0,-0.02629089,0.07670593,0.9967041,-32.6147,-4.316986,-23.83545,3.136368,0.5440914000000001,0.6836824,1.0,0.04650879,0.07981873,0.9957123,33.19545,-6.284943,-20.26857,3.134476,0.4776537,0.6969556,0.3877836,0.6772248000000001,0.3304007,-0.06879926,0.7457170999999999,0.07095688,4.679985,-3.637255,33.69
2,0.04650879,0.07981873,0.9957123,1.0,-0.02629089,0.07670593,0.9967041,-32.6147,-4.316986,-23.83545,3.136368,0.5440914000000001,0.6836824,1.0,0.04650879,0.07981873,0.9957123,33.19545,-6.284943,-20.26857,3.134476,0.4776537,0.6969556,0.3877836,0.6772248000000001,0.3304007,-0.06879926,0.7457170999999999,0.07095688,4.679985,-3.637255,33.69
2,0.01423645,0.08448792,0.9963074,1.0,-0.02720642,0.07286072,0.9969635,-32.59921,-4.267654,-23.96535,3.059143,0.5437046999999999,0.6836739000000001,1.0,0.03474426,0.0901947,0.9953156,33.25458,-6.365189,-20.03166,3.049057,0.4772524,0.6959534,0.3877384,0.6771479,0.3303659,-0.06876365,0.7457316999999999,0.07071694,4.679985,-3.637255,33.69
2,0.01423645,0.08448792,0.9963074,1.0,-0.02720642,0.07286072,0.9969635,-32.59921,-4.267654,-23.96535,3.059143,0.5437046999999999,0.6836739000000001,1.0,0.03474426,0.0901947,0.9953156,33.25458,-6.365189,-20.03166,3.049057,0.4772524,0.6959534,0.3877384,0.6771479,0.3303659,-0.06876365,0.7457316999999999,0.07071694,4.679985,-3.637255,33.69
2,0.01423645,0.08448792,0.9963074,1.0,-0.02720642,0.07286072,0.9969635,-32.59921,-4.267654,-23.96535,3.059143,0.5437046999999999,0.6836739000000001,1.0,0.03474426,0.0901947,0.9953156,33.25458,-6.365189,-20.03166,3.049057,0.4772524,0.6959534,0.3877384,0.6771479,0.3303659,-0.06876365,0.7457316999999999,0.07071694,4.679985,-3.637255,33.69
2,0.09584045,0.1862946,0.9777985,1.0,-0.04263306,0.1486359,0.9879608,-32.25432,-4.427094,-22.599870000000003,2.9407810000000003,0.5332314,0.6664348000000001,1.0,0.09584045,0.1862946,0.9777985,33.3009,-6.145767,-20.06085,2.980255,0.4689989,0.6781708000000001,0.387646,0.6772076,0.3303906,-0.06884277,0.7456911999999999,0.07022548,4.679985,-3.637255,33.69
2,0.09584045,0.1862946,0.9777985,1.0,-0.04263306,0.1486359,0.9879608,-32.25432,-4.427094,-22.599870000000003,2.9407810000000003,0.5332314,0.6664348000000001,1.0,0.09584045,0.1862946,0.9777985,33.3009,-6.145767,-20.06085,2.980255,0.4689989,0.6781708000000001,0.387646,0.6772076,0.3303906,-0.06884277,0.7456911999999999,0.07022548,4.679985,-3.637255,33.69
2,0.09584045,0.1862946,0.9777985,1.0,-0.04263306,0.1486359,0.9879608,-32.25432,-4.427094,-22.599870000000003,2.9407810000000003,0.5332314,0.6664348000000001,1.0,0.09584045,0.1862946,0.9777985,33.3009,-6.145767,-20.06085,2.980255,0.4689989,0.6781708000000001,0.387646,0.6772076,0.3303906,-0.06884277,0.7456911999999999,0.07022548,4.679985,-3.637255,33.69
2,0.08921814,0.2051849,0.9746399,1.0,-0.03739929,0.1581572999999999,0.9866943,-32.24603,-4.376358,-22.70006,2.946014,0.5324098,0.6646186,1.0,0.08921814,0.2051849,0.9746399,33.32707,-6.055313,-20.24501,2.982727,0.4688681999999999,0.6749989000000001,0.3876372,0.6773334,0.3303672,-0.06887493,0.7457583999999999,0.07029597,4.679985,-15.47651,33.69
2,0.08921814,0.2051849,0.9746399,1.0,-0.03739929,0.1581572999999999,0.9866943,-32.24603,-4.376358,-22.70006,2.946014,0.5324098,0.6646186,1.0,0.08921814,0.2051849,0.9746399,33.32707,-6.055313,-20.24501,2.982727,0.4688681999999999,0.6749989000000001,0.3876372,0.6773334,0.3303672,-0.06887493,0.7457583999999999,0.07029597,4.679985,-15.47651,33.69
2,0.08921814,0.2051849,0.9746399,1.0,-0.03739929,0.1581572999999999,0.9866943,-32.24603,-4.376358,-22.70006,2.946014,0.5324098,0.6646186,1.0,0.08921814,0.2051849,0.9746399,33.32707,-6.055313,-20.24501,2.982727,0.4688681999999999,0.6749989000000001,0.3876372,0.6773334,0.3303672,-0.06887493,0.7457583999999999,0.07029597,4.679985,-15.47651,33.69
2,-0.03190613,0.1655731,0.985672,1.0,-0.04130554,0.1620636,0.9859009,-32.257490000000004,-4.391602,-22.6904,2.992035,0.5332778,0.664668,1.0,0.08500671,0.2076721,0.9744873,33.33578,-6.069595,-20.25551,2.9902040000000003,0.4690624,0.675294,0.3875639999999999,0.6772457,0.3304054999999999,-0.06877812,0.7458574,0.07009879,4.679985,-15.47651,33.69
2,-0.03190613,0.1655731,0.985672,1.0,-0.04130554,0.1620636,0.9859009,-32.257490000000004,-4.391602,-22.6904,2.992035,0.5332778,0.664668,1.0,0.08500671,0.2076721,0.9744873,33.33578,-6.069595,-20.25551,2.9902040000000003,0.4690624,0.675294,0.3875639999999999,0.6772457,0.3304054999999999,-0.06877812,0.7458574,0.07009879,4.679985,-15.47651,33.69
2,-0.03190613,0.1655731,0.985672,1.0,-0.04130554,0.1620636,0.9859009,-32.257490000000004,-4.391602,-22.6904,2.992035,0.5332778,0.664668,1.0,0.08500671,0.2076721,0.9744873,33.33578,-6.069595,-20.25551,2.9902040000000003,0.4690624,0.675294,0.3875639999999999,0.6772457,0.3304054999999999,-0.06877812,0.7458574,0.07009879,4.679985,-15.47651,33.69
2,0.03587341,0.1900635,0.9811096,1.0,-0.04110718,0.1609344,0.9860992,-32.26683,-4.410080000000001,-22.66406,2.921341,0.5334868,0.6650381999999999,1.0,0.08381653,0.2075806,0.9746094,33.33702,-6.072067,-20.26733,2.958572,0.4691789,0.6754429,0.3875285999999999,0.6772979,0.3304397,-0.06858261,0.745927,0.07041421,4.679985,-15.47651,33.69
2,0.03587341,0.1900635,0.9811096,1.0,-0.04110718,0.1609344,0.9860992,-32.26683,-4.410080000000001,-22.66406,2.921341,0.5334868,0.6650381999999999,1.0,0.08381653,0.2075806,0.9746094,33.33702,-6.072067,-20.26733,2.958572,0.4691789,0.6754429,0.3875285999999999,0.6772979,0.3304397,-0.06858261,0.745927,0.07041421,4.679985,-15.47651,33.69
2,0.03587341,0.1900635,0.9811096,1.0,-0.04110718,0.1609344,0.9860992,-32.26683,-4.410080000000001,-22.66406,2.921341,0.5334868,0.6650381999999999,1.0,0.08381653,0.2075806,0.9746094,33.33702,-6.072067,-20.26733,2.958572,0.4691789,0.6754429,0.3875285999999999,0.6772979,0.3304397,-0.06858261,0.745927,0.07041421,4.679985,-15.47651,33.69
2,0.03886414,0.1935425,0.9803162,1.0,-0.04103088,0.1645203,0.9855042,-32.27309,-4.427887,-22.63074,2.906586,0.5336536999999999,0.6648663,1.0,0.08280945,0.2089386,0.974411,33.33952,-6.07901,-20.26865,2.934494,0.469231,0.6754914000000001,0.3875118,0.6772161,0.3303237,-0.06899583,0.7460614000000001,0.07063592,4.679985,-15.47651,33.69
2,0.03886414,0.1935425,0.9803162,1.0,-0.04103088,0.1645203,0.9855042,-32.27309,-4.427887,-22.63074,2.906586,0.5336536999999999,0.6648663,1.0,0.08280945,0.2089386,0.974411,33.33952,-6.07901,-20.26865,2.934494,0.469231,0.6754914000000001,0.3875118,0.6772161,0.3303237,-0.06899583,0.7460614000000001,0.07063592,4.679985,-15.47651,33.69
2,0.03886414,0.1935425,0.9803162,1.0,-0.04103088,0.1645203,0.9855042,-32.27309,-4.427887,-22.63074,2.906586,0.5336536999999999,0.6648663,1.0,0.08280945,0.2089386,0.974411,33.33952,-6.07901,-20.26865,2.934494,0.469231,0.6754914000000001,0.3875118,0.6772161,0.3303237,-0.06899583,0.7460614000000001,0.07063592,4.679985,-15.47651,33.69
2,0.03523254,0.1943359,0.9802856,1.0,-0.04434204,0.1645049999999999,0.9853668,-32.29959,-4.465836,-22.55136,2.765213,0.5347464,0.6651249,1.0,0.07510376,0.208786,0.9750671,33.34273,-6.088394,-20.26981,2.797165,0.4701213999999999,0.6756015000000001,0.3874791999999999,0.6773564000000001,0.3302089,-0.06912797,0.7461334,0.07077178,4.679985,-15.47651,33.69
2,0.03523254,0.1943359,0.9802856,1.0,-0.04434204,0.1645049999999999,0.9853668,-32.29959,-4.465836,-22.55136,2.765213,0.5347464,0.6651249,1.0,0.07510376,0.208786,0.9750671,33.34273,-6.088394,-20.26981,2.797165,0.4701213999999999,0.6756015000000001,0.3874791999999999,0.6773564000000001,0.3302089,-0.06912797,0.7461334,0.07077178,4.679985,-15.47651,33.69
2,0.03523254,0.1943359,0.9802856,1.0,-0.04434204,0.1645049999999999,0.9853668,-32.29959,-4.465836,-22.55136,2.765213,0.5347464,0.6651249,1.0,0.07510376,0.208786,0.9750671,33.34273,-6.088394,-20.26981,2.797165,0.4701213999999999,0.6756015000000001,0.3874791999999999,0.6773564000000001,0.3302089,-0.06912797,0.7461334,0.07077178,4.679985,-15.47651,33.69
2,0.02650452,0.1903687,0.9813385,1.0,-0.04615784,0.1652222,0.9851685,-32.30664,-4.471695,-22.54225,2.744644,0.5351697,0.6651225000000001,1.0,0.07391357,0.206192,0.975708,33.34264,-6.088638,-20.25053,2.756378,0.4702997999999999,0.6756448,0.3874054999999999,0.6773574,0.3301123,-0.06918778,0.7460937,0.07120281,4.679985,-33.71839,33.69
2,0.02650452,0.1903687,0.9813385,1.0,-0.04615784,0.1652222,0.9851685,-32.30664,-4.471695,-22.54225,2.744644,0.5351697,0.6651225000000001,1.0,0.07391357,0.206192,0.975708,33.34264,-6.088638,-20.25053,2.756378,0.4702997999999999,0.6756448,0.3874054999999999,0.6773574,0.3301123,-0.06918778,0.7460937,0.07120281,4.679985,-33.71839,33.69
2,0.02650452,0.1903687,0.9813385,1.0,-0.04615784,0.1652222,0.9851685,-32.30664,-4.471695,-22.54225,2.744644,0.5351697,0.6651225000000001,1.0,0.07391357,0.206192,0.975708,33.34264,-6.088638,-20.25053,2.756378,0.4702997999999999,0.6756448,0.3874054999999999,0.6773574,0.3301123,-0.06918778,0.7460937,0.07120281,4.679985,-33.71839,33.69
2,0.0181427,0.178833,0.9837036,1.0,-0.0471344,0.1622314,0.985611,-32.31966,-4.478378,-22.51472,2.7187650000000003,0.5356727,0.6653826999999999,1.0,0.08706665,0.1954956,0.9768219,33.2804,-6.099289,-20.15279,2.71875,0.4708229999999999,0.6761948,0.3873074999999999,0.6774460999999999,0.3299708,-0.07011195,0.7462812,0.07064233,4.679985,-33.71839,33.69
2,0.0181427,0.178833,0.9837036,1.0,-0.0471344,0.1622314,0.985611,-32.31966,-4.478378,-22.51472,2.7187650000000003,0.5356727,0.6653826999999999,1.0,0.08706665,0.1954956,0.9768219,33.2804,-6.099289,-20.15279,2.71875,0.4708229999999999,0.6761948,0.3873074999999999,0.6774460999999999,0.3299708,-0.07011195,0.7462812,0.07064233,4.679985,-33.71839,33.69
2,0.0181427,0.178833,0.9837036,1.0,-0.0471344,0.1622314,0.985611,-32.31966,-4.478378,-22.51472,2.7187650000000003,0.5356727,0.6653826999999999,1.0,0.08706665,0.1954956,0.9768219,33.2804,-6.099289,-20.15279,2.71875,0.4708229999999999,0.6761948,0.3873074999999999,0.6774460999999999,0.3299708,-0.07011195,0.7462812,0.07064233,4.679985,-33.71839,33.69
3,0.01896667,0.1799622,0.9834747,1.0,-0.04916382,0.1639708999999999,0.9852295,-32.32909,-4.499237,-22.49049,2.675797,0.5361706,0.6655623,1.0,0.0836792,0.1943512,0.9773407,33.2804,-6.116959,-20.150920000000003,2.656326,0.4712585999999999,0.6767666,0.3873074999999999,0.6774460999999999,0.3299708,-0.07011195,0.7462812,0.07064233,4.679985,-33.71839,33.69
3,0.01896667,0.1799622,0.9834747,1.0,-0.04916382,0.1639708999999999,0.9852295,-32.32909,-4.499237,-22.49049,2.675797,0.5361706,0.6655623,1.0,0.0836792,0.1943512,0.9773407,33.2804,-6.116959,-20.150920000000003,2.656326,0.4712585999999999,0.6767666,0.3873074999999999,0.6774460999999999,0.3299708,-0.07011195,0.7462812,0.07064233,4.679985,-33.71839,33.69
3,0.01896667,0.1799622,0.9834747,1.0,-0.04916382,0.1639708999999999,0.9852295,-32.32909,-4.499237,-22.49049,2.675797,0.5361706,0.6655623,1.0,0.0836792,0.1943512,0.9773407,33.2804,-6.116959,-20.150920000000003,2.656326,0.4712585999999999,0.6767666,0.3873074999999999,0.6774460999999999,0.3299708,-0.07011195,0.7462812,0.07064233,4.679985,-33.71839,33.69
3,0.03622437,0.1843567,0.9821777,1.0,-0.05322266,0.1659088,0.9846954,-32.34319,-4.510971,-22.42433,2.63942,0.5370468,0.6650314,1.0,0.07780457,0.1924286,0.9782104,33.28215,-6.121429,-20.14189,2.63501,0.4719003,0.6770114,0.387355,0.6775299,0.3298052,-0.07031836,0.7466649000000001,0.07087154,4.679985,-33.71839,33.69
3,0.03622437,0.1843567,0.9821777,1.0,-0.05322266,0.1659088,0.9846954,-32.34319,-4.510971,-22.42433,2.63942,0.5370468,0.6650314,1.0,0.07780457,0.1924286,0.9782104,33.28215,-6.121429,-20.14189,2.63501,0.4719003,0.6770114,0.387355,0.6775299,0.3298052,-0.07031836,0.7466649000000001,0.07087154,4.679985,-33.71839,33.69
3,0.03622437,0.1843567,0.9821777,1.0,-0.05322266,0.1659088,0.9846954,-32.34319,-4.510971,-22.42433,2.63942,0.5370468,0.6650314,1.0,0.07780457,0.1924286,0.9782104,33.28215,-6.121429,-20.14189,2.63501,0.4719003,0.6770114,0.387355,0.6775299,0.3298052,-0.07031836,0.7466649000000001,0.07087154,4.679985,-33.71839,33.69
3,0.02526855,0.1826019,0.9828491,1.0,-0.05410767,0.1673279,0.9844055,-32.368970000000004,-4.51004,-22.42361,2.619278,0.5379816,0.6648050999999999,1.0,0.06764221,0.1902771,0.9793854,33.29459,-6.121429,-20.14189,2.576279,0.472724,0.6771663,0.3873187,0.6777063,0.3296764,-0.07050475,0.7468699000000001,0.07074954,4.679985,-33.71839,33.69
3,0.02526855,0.1826019,0.9828491,1.0,-0.05410767,0.1673279,0.9844055,-32.368970000000004,-4.51004,-22.42361,2.619278,0.5379816,0.6648050999999999,1.0,0.06764221,0.1902771,0.9793854,33.29459,-6.121429,-20.14189,2.576279,0.472724,0.6771663,0.3873187,0.6777063,0.3296764,-0.07050475,0.7468699000000001,0.07074954,4.679985,-33.71839,33.69
3,0.02526855,0.1826019,0.9828491,1.0,-0.05410767,0.1673279,0.9844055,-32.368970000000004,-4.51004,-22.42361,2.619278,0.5379816,0.6648050999999999,1.0,0.06764221,0.1902771,0.9793854,33.29459,-6.121429,-20.14189,2.576279,0.472724,0.6771663,0.3873187,0.6777063,0.3296764,-0.07050475,0.7468699000000001,0.07074954,4.679985,-33.71839,33.69
3,0.01246643,0.1773375999999999,0.9840546,1.0,-0.05606079,0.1652222,0.9846497,-32.3835,-4.507416,-22.41342,2.579117,0.5386488,0.6648050999999999,1.0,0.05857849,0.1850128,0.9809723,33.32135,-6.100998000000001,-20.17973,2.562363,0.472917,0.6774507,0.3872768,0.6776932,0.3296117,-0.07063896,0.7470329000000001,0.07072434,4.679985,18.12263,33.69
3,0.01246643,0.1773375999999999,0.9840546,1.0,-0.05606079,0.1652222,0.9846497,-32.3835,-4.507416,-22.41342,2.579117,0.5386488,0.6648050999999999,1.0,0.05857849,0.1850128,0.9809723,33.32135,-6.100998000000001,-20.17973,2.562363,0.472917,0.6774507,0.3872768,0.6776932,0.3296117,-0.07063896,0.7470329000000001,0.07072434,4.679985,18.12263,33.69
3,0.01246643,0.1773375999999999,0.9840546,1.0,-0.05606079,0.1652222,0.9846497,-32.3835,-4.507416,-22.41342,2.579117,0.5386488,0.6648050999999999,1.0,0.05857849,0.1850128,0.9809723,33.32135,-6.100998000000001,-20.17973,2.562363,0.472917,0.6774507,0.3872768,0.6776932,0.3296117,-0.07063896,0.7470329000000001,0.07072434,4.679985,18.12263,33.69
3,0.007888794,0.1708832,0.9852448,1.0,-0.05548096,0.1622314,0.9851837,-32.39305,-4.496536,-22.42433,2.5534060000000003,0.5388798,0.6648505,1.0,0.0561675999999999,0.177002,0.9825897,33.33017,-6.074142,-20.19847,2.549973,0.472917,0.6776585999999999,0.387137,0.6777214,0.3295836,-0.07078218,0.7470384,0.07102675,4.679985,18.12263,33.69
3,0.007888794,0.1708832,0.9852448,1.0,-0.05548096,0.1622314,0.9851837,-32.39305,-4.496536,-22.42433,2.5534060000000003,0.5388798,0.6648505,1.0,0.0561675999999999,0.177002,0.9825897,33.33017,-6.074142,-20.19847,2.549973,0.472917,0.6776585999999999,0.387137,0.6777214,0.3295836,-0.07078218,0.7470384,0.07102675,4.679985,18.12263,33.69
3,0.007888794,0.1708832,0.9852448,1.0,-0.05548096,0.1622314,0.9851837,-32.39305,-4.496536,-22.42433,2.5534060000000003,0.5388798,0.6648505,1.0,0.0561675999999999,0.177002,0.9825897,33.33017,-6.074142,-20.19847,2.549973,0.472917,0.6776585999999999,0.387137,0.6777214,0.3295836,-0.07078218,0.7470384,0.07102675,4.679985,18.12263,33.69
3,0.01353455,0.1681519,0.9856567,1.0,-0.04393005,0.1598663,0.986145,-32.44939,-4.486587999999999,-22.49286,2.54863,0.539397,0.6654595,1.0,0.05230713,0.1734161,0.9834442,33.33017,-6.073105,-20.21411,2.524445,0.4733768,0.6781415,0.3870203,0.6776993,0.3295442999999999,-0.070931,0.7470204,0.0709838,4.679985,18.12263,33.69
3,0.01353455,0.1681519,0.9856567,1.0,-0.04393005,0.1598663,0.986145,-32.44939,-4.486587999999999,-22.49286,2.54863,0.539397,0.6654595,1.0,0.05230713,0.1734161,0.9834442,33.33017,-6.073105,-20.21411,2.524445,0.4733768,0.6781415,0.3870203,0.6776993,0.3295442999999999,-0.070931,0.7470204,0.0709838,4.679985,18.12263,33.69
3,0.01353455,0.1681519,0.9856567,1.0,-0.04393005,0.1598663,0.986145,-32.44939,-4.486587999999999,-22.49286,2.54863,0.539397,0.6654595,1.0,0.05230713,0.1734161,0.9834442,33.33017,-6.073105,-20.21411,2.524445,0.4733768,0.6781415,0.3870203,0.6776993,0.3295442999999999,-0.070931,0.7470204,0.0709838,4.679985,18.12263,33.69
3,0.01828003,0.1654816,0.9860382,1.0,-0.04838562,0.1535492,0.9869537,-32.44939,-4.486587999999999,-22.49286,2.535309,0.539909,0.6661716999999999,1.0,0.05186462,0.1712036,0.9838562,33.33017,-6.073105,-20.21951,2.523529,0.4734257,0.6784515999999999,0.3867848,0.6777806,0.3295636,-0.07132733,0.7469495,0.07104532,4.679985,18.12263,33.69
3,0.01828003,0.1654816,0.9860382,1.0,-0.04838562,0.1535492,0.9869537,-32.44939,-4.486587999999999,-22.49286,2.535309,0.539909,0.6661716999999999,1.0,0.05186462,0.1712036,0.9838562,33.33017,-6.073105,-20.21951,2.523529,0.4734257,0.6784515999999999,0.3867848,0.6777806,0.3295636,-0.07132733,0.7469495,0.07104532,4.679985,18.12263,33.69
3,0.01828003,0.1654816,0.9860382,1.0,-0.04838562,0.1535492,0.9869537,-32.44939,-4.486587999999999,-22.49286,2.535309,0.539909,0.6661716999999999,1.0,0.05186462,0.1712036,0.9838562,33.33017,-6.073105,-20.21951,2.523529,0.4734257,0.6784515999999999,0.3867848,0.6777806,0.3295636,-0.07132733,0.7469495,0.07104532,4.679985,18.12263,33.69
3,0.01828003,0.1654816,0.9860382,1.0,-0.04838562,0.1535492,0.9869537,-32.44939,-4.486587999999999,-22.49286,2.535309,0.539909,0.6661716999999999,1.0,0.05186462,0.1712036,0.9838562,33.33017,-6.073105,-20.21951,2.523529,0.4734257,0.6784515999999999,0.3866232999999999,0.6778933000000001,0.3294922,-0.07177869,0.7469036,0.07123333,4.679985,16.05079,33.69
3,0.01828003,0.1654816,0.9860382,1.0,-0.04838562,0.1535492,0.9869537,-32.44939,-4.486587999999999,-22.49286,2.535309,0.539909,0.6661716999999999,1.0,0.05186462,0.1712036,0.9838562,33.33017,-6.073105,-20.21951,2.523529,0.4734257,0.6784515999999999,0.3866232999999999,0.6778933000000001,0.3294922,-0.07177869,0.7469036,0.07123333,4.679985,16.05079,33.69
3,0.01828003,0.1654816,0.9860382,1.0,-0.04838562,0.1535492,0.9869537,-32.44939,-4.486587999999999,-22.49286,2.535309,0.539909,0.6661716999999999,1.0,0.05186462,0.1712036,0.9838562,33.33017,-6.073105,-20.21951,2.523529,0.4734257,0.6784515999999999,0.3866232999999999,0.6778933000000001,0.3294922,-0.07177869,0.7469036,0.07123333,4.679985,16.05079,33.69
3,-0.03215027,0.15242,0.9877777,1.0,-0.1853638,0.1893311,0.9642487,-32.72504,-4.626373,-22.32489,2.670425,0.56521,0.6656810000000001,1.0,-0.03118896,0.1521759,0.987854,32.87225,-6.084167,-20.19359,2.367355,0.4977328,0.6808403000000001,0.3864816,0.6779321,0.3293669,-0.07191089,0.7469545,0.07135511,4.679985,16.05079,33.69
3,-0.03215027,0.15242,0.9877777,1.0,-0.1853638,0.1893311,0.9642487,-32.72504,-4.626373,-22.32489,2.670425,0.56521,0.6656810000000001,1.0,-0.03118896,0.1521759,0.987854,32.87225,-6.084167,-20.19359,2.367355,0.4977328,0.6808403000000001,0.3864816,0.6779321,0.3293669,-0.07191089,0.7469545,0.07135511,4.679985,16.05079,33.69
3,-0.03215027,0.15242,0.9877777,1.0,-0.1853638,0.1893311,0.9642487,-32.72504,-4.626373,-22.32489,2.670425,0.56521,0.6656810000000001,1.0,-0.03118896,0.1521759,0.987854,32.87225,-6.084167,-20.19359,2.367355,0.4977328,0.6808403000000001,0.3864816,0.6779321,0.3293669,-0.07191089,0.7469545,0.07135511,4.679985,16.05079,33.69
3,-0.0393219,0.1644897,0.9855804,1.0,-0.1451569,0.1786957,0.9731293,-32.879670000000004,-4.56192,-22.46086,2.674026,0.5655998000000001,0.6659906,1.0,-0.03871155,0.1643982,0.9856262,32.86287,-6.085632,-20.20673,2.38829,0.4988871,0.6796831,0.3862629,0.6779278,0.3292131,-0.07225446,0.7471295,0.07136952,4.679985,16.05079,33.69
3,-0.0393219,0.1644897,0.9855804,1.0,-0.1451569,0.1786957,0.9731293,-32.879670000000004,-4.56192,-22.46086,2.674026,0.5655998000000001,0.6659906,1.0,-0.03871155,0.1643982,0.9856262,32.86287,-6.085632,-20.20673,2.38829,0.4988871,0.6796831,0.3862629,0.6779278,0.3292131,-0.07225446,0.7471295,0.07136952,4.679985,16.05079,33.69
3,-0.0393219,0.1644897,0.9855804,1.0,-0.1451569,0.1786957,0.9731293,-32.879670000000004,-4.56192,-22.46086,2.674026,0.5655998000000001,0.6659906,1.0,-0.03871155,0.1643982,0.9856262,32.86287,-6.085632,-20.20673,2.38829,0.4988871,0.6796831,0.3862629,0.6779278,0.3292131,-0.07225446,0.7471295,0.07136952,4.679985,16.05079,33.69
3,-0.0393219,0.1644897,0.9855804,1.0,-0.1451569,0.1786957,0.9731293,-32.879670000000004,-4.56192,-22.46086,2.674026,0.5655998000000001,0.6659906,1.0,-0.03871155,0.1643982,0.9856262,32.86287,-6.085632,-20.20673,2.38829,0.4988871,0.6796831,0.3861202999999999,0.6779584,0.3291019,-0.07261896,0.7474727,0.07134386,4.679985,16.05079,33.69
3,-0.0393219,0.1644897,0.9855804,1.0,-0.1451569,0.1786957,0.9731293,-32.879670000000004,-4.56192,-22.46086,2.674026,0.5655998000000001,0.6659906,1.0,-0.03871155,0.1643982,0.9856262,32.86287,-6.085632,-20.20673,2.38829,0.4988871,0.6796831,0.3861202999999999,0.6779584,0.3291019,-0.07261896,0.7474727,0.07134386,4.679985,16.05079,33.69
3,-0.0393219,0.1644897,0.9855804,1.0,-0.1451569,0.1786957,0.9731293,-32.879670000000004,-4.56192,-22.46086,2.674026,0.5655998000000001,0.6659906,1.0,-0.03871155,0.1643982,0.9856262,32.86287,-6.085632,-20.20673,2.38829,0.4988871,0.6796831,0.3861202999999999,0.6779584,0.3291019,-0.07261896,0.7474727,0.07134386,4.679985,16.05079,33.69
3,-0.04039001,0.1625061,0.9858704,1.0,-0.1444092,0.1792755,0.9731293,-32.88004,-4.565277,-22.45863,2.675034,0.5655220000000001,0.6660111,1.0,-0.03973389,0.162384,0.9859161,32.858979999999995,-6.087082,-20.20651,2.395645,0.4991184,0.6799748000000001,0.3859715,0.6780734,0.3288447,-0.07269018,0.7477345000000001,0.07107994,4.679985,16.05079,33.69
3,-0.04039001,0.1625061,0.9858704,1.0,-0.1444092,0.1792755,0.9731293,-32.88004,-4.565277,-22.45863,2.675034,0.5655220000000001,0.6660111,1.0,-0.03973389,0.162384,0.9859161,32.858979999999995,-6.087082,-20.20651,2.395645,0.4991184,0.6799748000000001,0.3859715,0.6780734,0.3288447,-0.07269018,0.7477345000000001,0.07107994,4.679985,16.05079,33.69
3,-0.04039001,0.1625061,0.9858704,1.0,-0.1444092,0.1792755,0.9731293,-32.88004,-4.565277,-22.45863,2.675034,0.5655220000000001,0.6660111,1.0,-0.03973389,0.162384,0.9859161,32.858979999999995,-6.087082,-20.20651,2.395645,0.4991184,0.6799748000000001,0.3859715,0.6780734,0.3288447,-0.07269018,0.7477345000000001,0.07107994,4.679985,16.05079,33.69
3,-0.07989502,0.1583405,0.9841309,1.0,-0.1594848999999999,0.1553497,0.9748993,-32.8929,-4.617188,-22.41219,2.692642,0.5676793000000001,0.6701076,1.0,-0.03840637,0.1594848999999999,0.9864502,32.835770000000004,-6.100494,-20.20863,2.44873,0.4996377999999999,0.6808403000000001,0.3858955,0.6781951,0.3287525,-0.07294707,0.7479380999999999,0.07143849,4.679985,16.05079,33.69
3,-0.07989502,0.1583405,0.9841309,1.0,-0.1594848999999999,0.1553497,0.9748993,-32.8929,-4.617188,-22.41219,2.692642,0.5676793000000001,0.6701076,1.0,-0.03840637,0.1594848999999999,0.9864502,32.835770000000004,-6.100494,-20.20863,2.44873,0.4996377999999999,0.6808403000000001,0.3858955,0.6781951,0.3287525,-0.07294707,0.7479380999999999,0.07143849,4.679985,16.05079,33.69
3,-0.07989502,0.1583405,0.9841309,1.0,-0.1594848999999999,0.1553497,0.9748993,-32.8929,-4.617188,-22.41219,2.692642,0.5676793000000001,0.6701076,1.0,-0.03840637,0.1594848999999999,0.9864502,32.835770000000004,-6.100494,-20.20863,2.44873,0.4996377999999999,0.6808403000000001,0.3858955,0.6781951,0.3287525,-0.07294707,0.7479380999999999,0.07143849,4.679985,16.05079,33.69
3,-0.08786011,0.1611481,0.9830017,1.0,-0.1625366,0.1547088999999999,0.9744873,-32.896440000000005,-4.620819,-22.40549,2.674469,0.5681436,0.6702173,1.0,-0.04484558,0.1644287,0.9853516,32.81158,-6.126556,-20.20705,2.528687,0.5010603,0.6812427,0.3858955,0.6781951,0.3287525,-0.07294707,0.7479380999999999,0.07143849,4.679985,10.57448,33.69
3,-0.08786011,0.1611481,0.9830017,1.0,-0.1625366,0.1547088999999999,0.9744873,-32.896440000000005,-4.620819,-22.40549,2.674469,0.5681436,0.6702173,1.0,-0.04484558,0.1644287,0.9853516,32.81158,-6.126556,-20.20705,2.528687,0.5010603,0.6812427,0.3858955,0.6781951,0.3287525,-0.07294707,0.7479380999999999,0.07143849,4.679985,10.57448,33.69
3,-0.08786011,0.1611481,0.9830017,1.0,-0.1625366,0.1547088999999999,0.9744873,-32.896440000000005,-4.620819,-22.40549,2.674469,0.5681436,0.6702173,1.0,-0.04484558,0.1644287,0.9853516,32.81158,-6.126556,-20.20705,2.528687,0.5010603,0.6812427,0.3858955,0.6781951,0.3287525,-0.07294707,0.7479380999999999,0.07143849,4.679985,10.57448,33.69
3,-0.09460449,0.1530303999999999,0.9836731,1.0,-0.1660919,0.1556702,0.9737396,-32.90161,-4.632187,-22.40388,2.679825,0.5687389,0.6704933000000001,1.0,-0.04728699,0.1508636,0.9874115,32.79404,-6.143448,-20.20531,2.626495,0.5017663,0.6834675,0.3854869999999999,0.6782822,0.3285845999999999,-0.07342809,0.7481408,0.07160673,4.679985,10.57448,33.69
3,-0.09460449,0.1530303999999999,0.9836731,1.0,-0.1660919,0.1556702,0.9737396,-32.90161,-4.632187,-22.40388,2.679825,0.5687389,0.6704933000000001,1.0,-0.04728699,0.1508636,0.9874115,32.79404,-6.143448,-20.20531,2.626495,0.5017663,0.6834675,0.3854869999999999,0.6782822,0.3285845999999999,-0.07342809,0.7481408,0.07160673,4.679985,10.57448,33.69
3,-0.09460449,0.1530303999999999,0.9836731,1.0,-0.1660919,0.1556702,0.9737396,-32.90161,-4.632187,-22.40388,2.679825,0.5687389,0.6704933000000001,1.0,-0.04728699,0.1508636,0.9874115,32.79404,-6.143448,-20.20531,2.626495,0.5017663,0.6834675,0.3854869999999999,0.6782822,0.3285845999999999,-0.07342809,0.7481408,0.07160673,4.679985,10.57448,33.69
3,-0.09494019,0.1480255,0.9844055,1.0,-0.1701508,0.1542969,0.9732513,-32.91383,-4.655899,-22.40086,2.677521,0.5696175,0.6714137,1.0,-0.04501343,0.1434021,0.9886322,32.78297,-6.16423,-20.19803,2.634995,0.5018359,0.6849093,0.3854262,0.6783361,0.3284469,-0.07363456,0.748007,0.07183488,4.679985,10.57448,33.69
3,-0.09494019,0.1480255,0.9844055,1.0,-0.1701508,0.1542969,0.9732513,-32.91383,-4.655899,-22.40086,2.677521,0.5696175,0.6714137,1.0,-0.04501343,0.1434021,0.9886322,32.78297,-6.16423,-20.19803,2.634995,0.5018359,0.6849093,0.3854262,0.6783361,0.3284469,-0.07363456,0.748007,0.07183488,4.679985,10.57448,33.69
3,-0.09494019,0.1480255,0.9844055,1.0,-0.1701508,0.1542969,0.9732513,-32.91383,-4.655899,-22.40086,2.677521,0.5696175,0.6714137,1.0,-0.04501343,0.1434021,0.9886322,32.78297,-6.16423,-20.19803,2.634995,0.5018359,0.6849093,0.3854262,0.6783361,0.3284469,-0.07363456,0.748007,0.07183488,4.679985,10.57448,33.69
3,-0.09957886,0.1481017999999999,0.9839325,1.0,-0.1741791,0.15802,0.9719391,-32.917190000000005,-4.6829220000000005,-22.39018,2.713089,0.5702179,0.6718479,1.0,-0.05049133,0.1411437999999999,0.9886932,32.75548,-6.208526999999999,-20.18793,2.704803,0.5032499,0.6866201999999999,0.3852908,0.6785445,0.3283458,-0.07423905,0.7481464,0.07194507,4.679985,10.57448,33.69
3,-0.09957886,0.1481017999999999,0.9839325,1.0,-0.1741791,0.15802,0.9719391,-32.917190000000005,-4.6829220000000005,-22.39018,2.713089,0.5702179,0.6718479,1.0,-0.05049133,0.1411437999999999,0.9886932,32.75548,-6.208526999999999,-20.18793,2.704803,0.5032499,0.6866201999999999,0.3852908,0.6785445,0.3283458,-0.07423905,0.7481464,0.07194507,4.679985,10.57448,33.69
3,-0.09957886,0.1481017999999999,0.9839325,1.0,-0.1741791,0.15802,0.9719391,-32.917190000000005,-4.6829220000000005,-22.39018,2.713089,0.5702179,0.6718479,1.0,-0.05049133,0.1411437999999999,0.9886932,32.75548,-6.208526999999999,-20.18793,2.704803,0.5032499,0.6866201999999999,0.3852908,0.6785445,0.3283458,-0.07423905,0.7481464,0.07194507,4.679985,10.57448,33.69
3,-0.1005096,0.1451874,0.9842834,1.0,-0.1761322,0.1601562999999999,0.9712372,-32.937,-4.697876,-22.37155,2.799301,0.5711248000000001,0.6720687,1.0,-0.05290222,0.135376,0.9893646,32.73198,-6.224686,-20.17101,2.781235,0.5041776,0.6877474,0.385161,0.6786653,0.3283307,-0.07434347,0.7483424,0.07192236,4.679985,-7.187128,33.69
3,-0.1005096,0.1451874,0.9842834,1.0,-0.1761322,0.1601562999999999,0.9712372,-32.937,-4.697876,-22.37155,2.799301,0.5711248000000001,0.6720687,1.0,-0.05290222,0.135376,0.9893646,32.73198,-6.224686,-20.17101,2.781235,0.5041776,0.6877474,0.385161,0.6786653,0.3283307,-0.07434347,0.7483424,0.07192236,4.679985,-7.187128,33.69
3,-0.1005096,0.1451874,0.9842834,1.0,-0.1761322,0.1601562999999999,0.9712372,-32.937,-4.697876,-22.37155,2.799301,0.5711248000000001,0.6720687,1.0,-0.05290222,0.135376,0.9893646,32.73198,-6.224686,-20.17101,2.781235,0.5041776,0.6877474,0.385161,0.6786653,0.3283307,-0.07434347,0.7483424,0.07192236,4.679985,-7.187128,33.69
3,-0.1005096,0.1451874,0.9842834,1.0,-0.1761322,0.1601562999999999,0.9712372,-32.937,-4.697876,-22.37155,2.799301,0.5711248000000001,0.6720687,1.0,-0.05290222,0.135376,0.9893646,32.73198,-6.224686,-20.17101,2.781235,0.5041776,0.6877474,0.3850739,0.6786406999999999,0.3281417,-0.07464674,0.7481869999999999,0.07159819,4.679985,-7.187128,33.69
3,-0.1005096,0.1451874,0.9842834,1.0,-0.1761322,0.1601562999999999,0.9712372,-32.937,-4.697876,-22.37155,2.799301,0.5711248000000001,0.6720687,1.0,-0.05290222,0.135376,0.9893646,32.73198,-6.224686,-20.17101,2.781235,0.5041776,0.6877474,0.3850739,0.6786406999999999,0.3281417,-0.07464674,0.7481869999999999,0.07159819,4.679985,-7.187128,33.69
3,-0.1005096,0.1451874,0.9842834,1.0,-0.1761322,0.1601562999999999,0.9712372,-32.937,-4.697876,-22.37155,2.799301,0.5711248000000001,0.6720687,1.0,-0.05290222,0.135376,0.9893646,32.73198,-6.224686,-20.17101,2.781235,0.5041776,0.6877474,0.3850739,0.6786406999999999,0.3281417,-0.07464674,0.7481869999999999,0.07159819,4.679985,-7.187128,33.69
3,-0.1010742,0.1432953,0.9844971,1.0,-0.1768645999999999,0.1601105,0.9711151,-32.94098,-4.697906,-22.37151,2.80249,0.5713437,0.6720799,1.0,-0.0537261999999999,0.1324158,0.9897308,32.72874,-6.224976,-20.16936,2.781418,0.5043697,0.6880831999999999,0.3850739,0.6786406999999999,0.3281417,-0.07464674,0.7481869999999999,0.07159819,4.679985,-7.187128,33.69
3,-0.1010742,0.1432953,0.9844971,1.0,-0.1768645999999999,0.1601105,0.9711151,-32.94098,-4.697906,-22.37151,2.80249,0.5713437,0.6720799,1.0,-0.0537261999999999,0.1324158,0.9897308,32.72874,-6.224976,-20.16936,2.781418,0.5043697,0.6880831999999999,0.3850739,0.6786406999999999,0.3281417,-0.07464674,0.7481869999999999,0.07159819,4.679985,-7.187128,33.69
3,-0.1010742,0.1432953,0.9844971,1.0,-0.1768645999999999,0.1601105,0.9711151,-32.94098,-4.697906,-22.37151,2.80249,0.5713437,0.6720799,1.0,-0.0537261999999999,0.1324158,0.9897308,32.72874,-6.224976,-20.16936,2.781418,0.5043697,0.6880831999999999,0.3850739,0.6786406999999999,0.3281417,-0.07464674,0.7481869999999999,0.07159819,4.679985,-7.187128,33.69
3,-0.1032104,0.04231262,0.9937439,0.7613666,-0.1032561999999999,0.04229736,0.9937439,-32.61444,-4.262589,-22.67381,2.77356,0.5520295000000001,0.6739265,0.8221516,0.02690125,0.09509277,0.9951019,33.2139,-5.570572,-21.69315,2.869705,0.4792403,0.6856760999999999,0.3848544,0.6785779000000001,0.3280439,-0.0753414,0.7476621,0.07083658,4.679985,-7.187128,33.69
3,-0.1032104,0.04231262,0.9937439,0.7613666,-0.1032561999999999,0.04229736,0.9937439,-32.61444,-4.262589,-22.67381,2.77356,0.5520295000000001,0.6739265,0.8221516,0.02690125,0.09509277,0.9951019,33.2139,-5.570572,-21.69315,2.869705,0.4792403,0.6856760999999999,0.3848544,0.6785779000000001,0.3280439,-0.0753414,0.7476621,0.07083658,4.679985,-7.187128,33.69
3,-0.1032104,0.04231262,0.9937439,0.7613666,-0.1032561999999999,0.04229736,0.9937439,-32.61444,-4.262589,-22.67381,2.77356,0.5520295000000001,0.6739265,0.8221516,0.02690125,0.09509277,0.9951019,33.2139,-5.570572,-21.69315,2.869705,0.4792403,0.6856760999999999,0.3848544,0.6785779000000001,0.3280439,-0.0753414,0.7476621,0.07083658,4.679985,-7.187128,33.69
3,-0.09999084,0.01838684,0.994812,0.7613666,-0.1000518999999999,0.01835632,0.994812,-32.60666,-4.053635,-23.43558,2.622681,0.5518408,0.6771727,0.8221516,0.02325439,0.1194458,0.9925537,33.24348,-5.584641,-21.71864,2.891312,0.4786917999999999,0.6837191999999999,0.3847679,0.6787451,0.3279937,-0.07545854,0.7476875,0.07064727,4.679985,-23.85091,33.69
3,-0.09999084,0.01838684,0.994812,0.7613666,-0.1000518999999999,0.01835632,0.994812,-32.60666,-4.053635,-23.43558,2.622681,0.5518408,0.6771727,0.8221516,0.02325439,0.1194458,0.9925537,33.24348,-5.584641,-21.71864,2.891312,0.4786917999999999,0.6837191999999999,0.3847679,0.6787451,0.3279937,-0.07545854,0.7476875,0.07064727,4.679985,-23.85091,33.69
3,-0.09999084,0.01838684,0.994812,0.7613666,-0.1000518999999999,0.01835632,0.994812,-32.60666,-4.053635,-23.43558,2.622681,0.5518408,0.6771727,0.8221516,0.02325439,0.1194458,0.9925537,33.24348,-5.584641,-21.71864,2.891312,0.4786917999999999,0.6837191999999999,0.3847679,0.6787451,0.3279937,-0.07545854,0.7476875,0.07064727,4.679985,-23.85091,33.69
3,-0.005981445,0.1034698,0.9945984,1.0,-0.06210327,0.08717346,0.9942474,-32.727129999999995,-4.122604,-23.94406,3.069794,0.5520899,0.6770234,1.0,0.0141448999999999,0.1092377,0.9939117,33.16611,-6.039124,-20.68829,2.962112,0.4823757000000001,0.6896814,0.3845315,0.678844,0.3276450999999999,-0.0757019999999999,0.7482378000000001,0.0710253,4.679985,-23.85091,33.69
3,-0.005981445,0.1034698,0.9945984,1.0,-0.06210327,0.08717346,0.9942474,-32.727129999999995,-4.122604,-23.94406,3.069794,0.5520899,0.6770234,1.0,0.0141448999999999,0.1092377,0.9939117,33.16611,-6.039124,-20.68829,2.962112,0.4823757000000001,0.6896814,0.3845315,0.678844,0.3276450999999999,-0.0757019999999999,0.7482378000000001,0.0710253,4.679985,-23.85091,33.69
3,-0.005981445,0.1034698,0.9945984,1.0,-0.06210327,0.08717346,0.9942474,-32.727129999999995,-4.122604,-23.94406,3.069794,0.5520899,0.6770234,1.0,0.0141448999999999,0.1092377,0.9939117,33.16611,-6.039124,-20.68829,2.962112,0.4823757000000001,0.6896814,0.3845315,0.678844,0.3276450999999999,-0.0757019999999999,0.7482378000000001,0.0710253,4.679985,-23.85091,33.69
3,0.01264954,0.1170958999999999,0.9930267,1.0,-0.1815947999999999,0.160202,0.9702301,-32.43755,-6.093796,-18.29846,3.275162,0.5525167,0.6783338000000001,1.0,0.01264954,0.1170958999999999,0.9930267,33.162690000000005,-6.180435,-20.3284,2.997635,0.4827084,0.6899063,0.3842992,0.6788350000000001,0.3275724,-0.07593328,0.7483787,0.0712223,4.679985,-23.85091,33.69
3,0.01264954,0.1170958999999999,0.9930267,1.0,-0.1815947999999999,0.160202,0.9702301,-32.43755,-6.093796,-18.29846,3.275162,0.5525167,0.6783338000000001,1.0,0.01264954,0.1170958999999999,0.9930267,33.162690000000005,-6.180435,-20.3284,2.997635,0.4827084,0.6899063,0.3842992,0.6788350000000001,0.3275724,-0.07593328,0.7483787,0.0712223,4.679985,-23.85091,33.69
3,0.01264954,0.1170958999999999,0.9930267,1.0,-0.1815947999999999,0.160202,0.9702301,-32.43755,-6.093796,-18.29846,3.275162,0.5525167,0.6783338000000001,1.0,0.01264954,0.1170958999999999,0.9930267,33.162690000000005,-6.180435,-20.3284,2.997635,0.4827084,0.6899063,0.3842992,0.6788350000000001,0.3275724,-0.07593328,0.7483787,0.0712223,4.679985,-23.85091,33.69
3,0.001052856,0.1123047,0.9936676,1.0,-0.1900329999999999,0.1554412999999999,0.9693756,-32.454240000000006,-6.175949,-18.012079999999997,3.369537,0.5538378,0.6789466,1.0,0.001052856,0.1123047,0.9936676,33.15971,-6.271423,-20.06522,3.03891,0.4841354,0.6908731,0.3841191,0.6789159,0.3275137999999999,-0.07627131,0.7484552,0.07132007,4.679985,-23.85091,33.69
3,0.001052856,0.1123047,0.9936676,1.0,-0.1900329999999999,0.1554412999999999,0.9693756,-32.454240000000006,-6.175949,-18.012079999999997,3.369537,0.5538378,0.6789466,1.0,0.001052856,0.1123047,0.9936676,33.15971,-6.271423,-20.06522,3.03891,0.4841354,0.6908731,0.3841191,0.6789159,0.3275137999999999,-0.07627131,0.7484552,0.07132007,4.679985,-23.85091,33.69
3,0.001052856,0.1123047,0.9936676,1.0,-0.1900329999999999,0.1554412999999999,0.9693756,-32.454240000000006,-6.175949,-18.012079999999997,3.369537,0.5538378,0.6789466,1.0,0.001052856,0.1123047,0.9936676,33.15971,-6.271423,-20.06522,3.03891,0.4841354,0.6908731,0.3841191,0.6789159,0.3275137999999999,-0.07627131,0.7484552,0.07132007,4.679985,-23.85091,33.69
3,-0.1008606,0.1263885,0.9868317,1.0,-0.1972046,0.1452637,0.9695282,-32.45715,-6.178986,-18.012079999999997,3.419708,0.5547476,0.6802635,1.0,-0.01011658,0.107666,0.9941254,33.15567,-6.357101,-19.88564,3.092163,0.4855039,0.6925148,0.384106,0.6790159,0.3272943,-0.0764811,0.7483886,0.07148051,4.679985,-23.85091,33.69
3,-0.1008606,0.1263885,0.9868317,1.0,-0.1972046,0.1452637,0.9695282,-32.45715,-6.178986,-18.012079999999997,3.419708,0.5547476,0.6802635,1.0,-0.01011658,0.107666,0.9941254,33.15567,-6.357101,-19.88564,3.092163,0.4855039,0.6925148,0.384106,0.6790159,0.3272943,-0.0764811,0.7483886,0.07148051,4.679985,-23.85091,33.69
3,-0.1008606,0.1263885,0.9868317,1.0,-0.1972046,0.1452637,0.9695282,-32.45715,-6.178986,-18.012079999999997,3.419708,0.5547476,0.6802635,1.0,-0.01011658,0.107666,0.9941254,33.15567,-6.357101,-19.88564,3.092163,0.4855039,0.6925148,0.384106,0.6790159,0.3272943,-0.0764811,0.7483886,0.07148051,4.679985,-23.85091,33.69
3,-0.04949951,0.1149597,0.9921265,1.0,-0.1888733,0.1495514,0.9705353,-32.52803,-6.106018,-18.41704,3.426331,0.5563385000000001,0.6812924,1.0,-0.01646423,0.1064452999999999,0.9941711,33.134890000000006,-6.395355,-19.81897,3.171692,0.486809,0.6933451999999999,0.3840787,0.6789911,0.3271332,-0.07669278,0.7484804,0.07128804,4.679985,-0.0501464,33.69
3,-0.04949951,0.1149597,0.9921265,1.0,-0.1888733,0.1495514,0.9705353,-32.52803,-6.106018,-18.41704,3.426331,0.5563385000000001,0.6812924,1.0,-0.01646423,0.1064452999999999,0.9941711,33.134890000000006,-6.395355,-19.81897,3.171692,0.486809,0.6933451999999999,0.3840787,0.6789911,0.3271332,-0.07669278,0.7484804,0.07128804,4.679985,-0.0501464,33.69
3,-0.04949951,0.1149597,0.9921265,1.0,-0.1888733,0.1495514,0.9705353,-32.52803,-6.106018,-18.41704,3.426331,0.5563385000000001,0.6812924,1.0,-0.01646423,0.1064452999999999,0.9941711,33.134890000000006,-6.395355,-19.81897,3.171692,0.486809,0.6933451999999999,0.3840787,0.6789911,0.3271332,-0.07669278,0.7484804,0.07128804,4.679985,-0.0501464,33.69
3,-0.01708984,0.08544922,0.9961853,1.0,-0.1748962,0.1456757,0.9737396,-32.60262,-5.796233999999999,-19.44685,3.402603,0.5578793000000001,0.6816334,1.0,-0.01708984,0.08544922,0.9961853,33.11227,-6.481506,-19.64763,3.214905,0.4875555,0.6968611,0.3839958,0.6789795999999999,0.3269107,-0.07731822,0.7486276999999999,0.07076373,4.679985,-0.0501464,33.69
3,-0.01708984,0.08544922,0.9961853,1.0,-0.1748962,0.1456757,0.9737396,-32.60262,-5.796233999999999,-19.44685,3.402603,0.5578793000000001,0.6816334,1.0,-0.01708984,0.08544922,0.9961853,33.11227,-6.481506,-19.64763,3.214905,0.4875555,0.6968611,0.3839958,0.6789795999999999,0.3269107,-0.07731822,0.7486276999999999,0.07076373,4.679985,-0.0501464,33.69
3,-0.01708984,0.08544922,0.9961853,1.0,-0.1748962,0.1456757,0.9737396,-32.60262,-5.796233999999999,-19.44685,3.402603,0.5578793000000001,0.6816334,1.0,-0.01708984,0.08544922,0.9961853,33.11227,-6.481506,-19.64763,3.214905,0.4875555,0.6968611,0.3839958,0.6789795999999999,0.3269107,-0.07731822,0.7486276999999999,0.07076373,4.679985,-0.0501464,33.69
4,0.06335449,0.08621216,0.9942474,1.0,-0.006622314,0.06332397,0.9979553,-32.60889,-4.314102,-23.81564,3.315353,0.5415615,0.6846171999999999,1.0,0.06335449,0.08621216,0.9942474,33.27928,-6.201065,-20.84219,3.295319,0.4727429,0.699268,0.3838248,0.6789258,0.3267561,-0.07762355,0.7488840999999999,0.07079839,4.679985,-0.0501464,33.69
4,0.06335449,0.08621216,0.9942474,1.0,-0.006622314,0.06332397,0.9979553,-32.60889,-4.314102,-23.81564,3.315353,0.5415615,0.6846171999999999,1.0,0.06335449,0.08621216,0.9942474,33.27928,-6.201065,-20.84219,3.295319,0.4727429,0.699268,0.3838248,0.6789258,0.3267561,-0.07762355,0.7488840999999999,0.07079839,4.679985,-0.0501464,33.69
4,0.06335449,0.08621216,0.9942474,1.0,-0.006622314,0.06332397,0.9979553,-32.60889,-4.314102,-23.81564,3.315353,0.5415615,0.6846171999999999,1.0,0.06335449,0.08621216,0.9942474,33.27928,-6.201065,-20.84219,3.295319,0.4727429,0.699268,0.3838248,0.6789258,0.3267561,-0.07762355,0.7488840999999999,0.07079839,4.679985,-0.0501464,33.69
4,0.1376953,0.113205,0.9839783,1.0,-0.0165863,0.06234741,0.9979095,-32.47707,-4.652054,-22.68047,3.364685,0.5378535,0.685212,1.0,0.1376953,0.113205,0.9839783,33.13835,-7.161972,-17.99561,3.371338,0.4696946,0.6994054,0.3837069,0.6790273,0.3265589,-0.07785349,0.7491561999999999,0.07065246,4.679985,-0.0501464,33.69
4,0.1376953,0.113205,0.9839783,1.0,-0.0165863,0.06234741,0.9979095,-32.47707,-4.652054,-22.68047,3.364685,0.5378535,0.685212,1.0,0.1376953,0.113205,0.9839783,33.13835,-7.161972,-17.99561,3.371338,0.4696946,0.6994054,0.3837069,0.6790273,0.3265589,-0.07785349,0.7491561999999999,0.07065246,4.679985,-0.0501464,33.69
4,0.1376953,0.113205,0.9839783,1.0,-0.0165863,0.06234741,0.9979095,-32.47707,-4.652054,-22.68047,3.364685,0.5378535,0.685212,1.0,0.1376953,0.113205,0.9839783,33.13835,-7.161972,-17.99561,3.371338,0.4696946,0.6994054,0.3837069,0.6790273,0.3265589,-0.07785349,0.7491561999999999,0.07065246,4.679985,-0.0501464,33.69
4,-0.01615906,0.0670166,0.9976196,1.0,-0.01786804,0.06643677,0.9976196,-32.4821,-4.68129,-22.63388,3.3573,0.5381326,0.6852305999999999,1.0,0.1321106,0.1166992,0.9843292,33.14308,-7.172363000000001,-17.98085,3.400314,0.4701602,0.6992427,0.3835842,0.6790861,0.3264192,-0.0781408,0.7493920000000001,0.07055604,4.788872,-0.0501464,33.69
4,-0.01615906,0.0670166,0.9976196,1.0,-0.01786804,0.06643677,0.9976196,-32.4821,-4.68129,-22.63388,3.3573,0.5381326,0.6852305999999999,1.0,0.1321106,0.1166992,0.9843292,33.14308,-7.172363000000001,-17.98085,3.400314,0.4701602,0.6992427,0.3835842,0.6790861,0.3264192,-0.0781408,0.7493920000000001,0.07055604,4.788872,-0.0501464,33.69
4,-0.01615906,0.0670166,0.9976196,1.0,-0.01786804,0.06643677,0.9976196,-32.4821,-4.68129,-22.63388,3.3573,0.5381326,0.6852305999999999,1.0,0.1321106,0.1166992,0.9843292,33.14308,-7.172363000000001,-17.98085,3.400314,0.4701602,0.6992427,0.3835842,0.6790861,0.3264192,-0.0781408,0.7493920000000001,0.07055604,4.788872,-0.0501464,33.69
4,-0.01623535,0.06912231,0.997467,1.0,-0.01702881,0.06893921,0.997467,-32.49158,-4.708542,-22.57559,3.360001,0.5383131999999999,0.6852703,1.0,0.09498596,0.09429932,0.9909973,33.2556,-6.718491,-19.24854,3.357407,0.4704052999999999,0.6993449,0.3835842,0.6790861,0.3264192,-0.0781408,0.7493920000000001,0.07055604,4.788872,15.86639,33.69
4,-0.01623535,0.06912231,0.997467,1.0,-0.01702881,0.06893921,0.997467,-32.49158,-4.708542,-22.57559,3.360001,0.5383131999999999,0.6852703,1.0,0.09498596,0.09429932,0.9909973,33.2556,-6.718491,-19.24854,3.357407,0.4704052999999999,0.6993449,0.3835842,0.6790861,0.3264192,-0.0781408,0.7493920000000001,0.07055604,4.788872,15.86639,33.69
4,-0.01623535,0.06912231,0.997467,1.0,-0.01702881,0.06893921,0.997467,-32.49158,-4.708542,-22.57559,3.360001,0.5383131999999999,0.6852703,1.0,0.09498596,0.09429932,0.9909973,33.2556,-6.718491,-19.24854,3.357407,0.4704052999999999,0.6993449,0.3835842,0.6790861,0.3264192,-0.0781408,0.7493920000000001,0.07055604,4.788872,15.86639,33.69
4,-0.01937866,0.06842041,0.997467,1.0,-0.01937866,0.06842041,0.997467,-32.49968,-4.738556,-22.50569,3.362106,0.5388075,0.6856300999999999,1.0,0.05815125,0.08337402,0.994812,33.3607,-6.336456,-20.41296,3.3326260000000003,0.4708303,0.6998203000000001,0.3835736,0.6792334,0.326317,-0.07819997,0.7495291000000001,0.07053631,4.788872,15.86639,33.69
4,-0.01937866,0.06842041,0.997467,1.0,-0.01937866,0.06842041,0.997467,-32.49968,-4.738556,-22.50569,3.362106,0.5388075,0.6856300999999999,1.0,0.05815125,0.08337402,0.994812,33.3607,-6.336456,-20.41296,3.3326260000000003,0.4708303,0.6998203000000001,0.3835736,0.6792334,0.326317,-0.07819997,0.7495291000000001,0.07053631,4.788872,15.86639,33.69
4,-0.01937866,0.06842041,0.997467,1.0,-0.01937866,0.06842041,0.997467,-32.49968,-4.738556,-22.50569,3.362106,0.5388075,0.6856300999999999,1.0,0.05815125,0.08337402,0.994812,33.3607,-6.336456,-20.41296,3.3326260000000003,0.4708303,0.6998203000000001,0.3835736,0.6792334,0.326317,-0.07819997,0.7495291000000001,0.07053631,4.788872,15.86639,33.69
4,-0.0274353,0.07139587,0.9970551,1.0,-0.0284729,0.07128906,0.9970398,-32.50188,-4.795058999999999,-22.40152,3.375717,0.5398725999999999,0.686148,1.0,0.05430603,0.07913208,0.9953766,33.36031,-6.324539,-20.48637,3.345581,0.4712378,0.7006519,0.3833051,0.6793145,0.3261737999999999,-0.07864967,0.7494887,0.0709973,4.788872,15.86639,33.69
4,-0.0274353,0.07139587,0.9970551,1.0,-0.0284729,0.07128906,0.9970398,-32.50188,-4.795058999999999,-22.40152,3.375717,0.5398725999999999,0.686148,1.0,0.05430603,0.07913208,0.9953766,33.36031,-6.324539,-20.48637,3.345581,0.4712378,0.7006519,0.3833051,0.6793145,0.3261737999999999,-0.07864967,0.7494887,0.0709973,4.788872,15.86639,33.69
4,-0.0274353,0.07139587,0.9970551,1.0,-0.0284729,0.07128906,0.9970398,-32.50188,-4.795058999999999,-22.40152,3.375717,0.5398725999999999,0.686148,1.0,0.05430603,0.07913208,0.9953766,33.36031,-6.324539,-20.48637,3.345581,0.4712378,0.7006519,0.3833051,0.6793145,0.3261737999999999,-0.07864967,0.7494887,0.0709973,4.788872,15.86639,33.69
4,-0.0274353,0.07139587,0.9970551,1.0,-0.0284729,0.07128906,0.9970398,-32.50188,-4.795058999999999,-22.40152,3.375717,0.5398725999999999,0.686148,1.0,0.05430603,0.07913208,0.9953766,33.36031,-6.324539,-20.48637,3.345581,0.4712378,0.7006519,0.3831060999999999,0.679342,0.3262144,-0.0786654,0.7494851,0.07125206,4.788872,15.86639,33.69
4,-0.0274353,0.07139587,0.9970551,1.0,-0.0284729,0.07128906,0.9970398,-32.50188,-4.795058999999999,-22.40152,3.375717,0.5398725999999999,0.686148,1.0,0.05430603,0.07913208,0.9953766,33.36031,-6.324539,-20.48637,3.345581,0.4712378,0.7006519,0.3831060999999999,0.679342,0.3262144,-0.0786654,0.7494851,0.07125206,4.788872,15.86639,33.69
4,-0.0274353,0.07139587,0.9970551,1.0,-0.0284729,0.07128906,0.9970398,-32.50188,-4.795058999999999,-22.40152,3.375717,0.5398725999999999,0.686148,1.0,0.05430603,0.07913208,0.9953766,33.36031,-6.324539,-20.48637,3.345581,0.4712378,0.7006519,0.3831060999999999,0.679342,0.3262144,-0.0786654,0.7494851,0.07125206,4.788872,15.86639,33.69
4,0.02731323,0.07595825,0.9967346,1.0,-0.02923584,0.07299805,0.9968872,-32.50285,-4.811142,-22.38051,3.368729,0.5399728,0.6862623999999999,1.0,0.05406189,0.07727051,0.9955292,33.35892,-6.317764,-20.49738,3.344147,0.4713053,0.7007565,0.3829699,0.6794335,0.3261817,-0.07883065,0.7494608,0.07119821,4.788872,15.86639,33.69
4,0.02731323,0.07595825,0.9967346,1.0,-0.02923584,0.07299805,0.9968872,-32.50285,-4.811142,-22.38051,3.368729,0.5399728,0.6862623999999999,1.0,0.05406189,0.07727051,0.9955292,33.35892,-6.317764,-20.49738,3.344147,0.4713053,0.7007565,0.3829699,0.6794335,0.3261817,-0.07883065,0.7494608,0.07119821,4.788872,15.86639,33.69
4,0.02731323,0.07595825,0.9967346,1.0,-0.02923584,0.07299805,0.9968872,-32.50285,-4.811142,-22.38051,3.368729,0.5399728,0.6862623999999999,1.0,0.05406189,0.07727051,0.9955292,33.35892,-6.317764,-20.49738,3.344147,0.4713053,0.7007565,0.3829699,0.6794335,0.3261817,-0.07883065,0.7494608,0.07119821,4.788872,15.86639,33.69
4,-0.01599121,0.07733154,0.9968719,1.0,-0.0446166999999999,0.0740508999999999,0.9962463,-32.504259999999995,-4.863968,-22.30768,3.370117,0.5417443000000001,0.6871781,1.0,0.05754089,0.08544922,0.9946747,33.30728,-6.28746,-20.78661,3.324417,0.4724777,0.7016835,0.3828669,0.6795730999999999,0.3261297999999999,-0.07889471,0.7495477,0.07128062,4.788872,20.34118,33.69
4,-0.01599121,0.07733154,0.9968719,1.0,-0.0446166999999999,0.0740508999999999,0.9962463,-32.504259999999995,-4.863968,-22.30768,3.370117,0.5417443000000001,0.6871781,1.0,0.05754089,0.08544922,0.9946747,33.30728,-6.28746,-20.78661,3.324417,0.4724777,0.7016835,0.3828669,0.6795730999999999,0.3261297999999999,-0.07889471,0.7495477,0.07128062,4.788872,20.34118,33.69
4,-0.01599121,0.07733154,0.9968719,1.0,-0.0446166999999999,0.0740508999999999,0.9962463,-32.504259999999995,-4.863968,-22.30768,3.370117,0.5417443000000001,0.6871781,1.0,0.05754089,0.08544922,0.9946747,33.30728,-6.28746,-20.78661,3.324417,0.4724777,0.7016835,0.3828669,0.6795730999999999,0.3261297999999999,-0.07889471,0.7495477,0.07128062,4.788872,20.34118,33.69
4,0.02981567,0.04127502,0.9986877,1.0,0.02981567,0.04127502,0.9986877,-32.08443,-4.530930000000001,-23.4993,3.399033,0.5199688,0.6918173000000001,1.0,0.2193909,0.1310425,0.9667816,33.40845,-7.520645,-17.57239,3.545074,0.4520967000000001,0.7049981,0.3827340999999999,0.6795291,0.3261575,-0.07877443,0.7496454,0.07109651,4.788872,20.34118,33.69
4,0.02981567,0.04127502,0.9986877,1.0,0.02981567,0.04127502,0.9986877,-32.08443,-4.530930000000001,-23.4993,3.399033,0.5199688,0.6918173000000001,1.0,0.2193909,0.1310425,0.9667816,33.40845,-7.520645,-17.57239,3.545074,0.4520967000000001,0.7049981,0.3827340999999999,0.6795291,0.3261575,-0.07877443,0.7496454,0.07109651,4.788872,20.34118,33.69
4,0.02981567,0.04127502,0.9986877,1.0,0.02981567,0.04127502,0.9986877,-32.08443,-4.530930000000001,-23.4993,3.399033,0.5199688,0.6918173000000001,1.0,0.2193909,0.1310425,0.9667816,33.40845,-7.520645,-17.57239,3.545074,0.4520967000000001,0.7049981,0.3827340999999999,0.6795291,0.3261575,-0.07877443,0.7496454,0.07109651,4.788872,20.34118,33.69
4,0.02696228,0.04078674,0.9987946,1.0,0.02696228,0.04078674,0.9987946,-32.09067,-4.538101,-23.47809,3.382324,0.5204787000000001,0.6918749,1.0,0.2152252,0.1296997,0.9678955,33.41321,-7.509186,-17.61964,3.5564120000000004,0.4523899,0.7052468000000001,0.3826668,0.6794140999999999,0.326266,-0.07878752,0.7496474,0.07102956,4.788872,20.34118,33.69
4,0.02696228,0.04078674,0.9987946,1.0,0.02696228,0.04078674,0.9987946,-32.09067,-4.538101,-23.47809,3.382324,0.5204787000000001,0.6918749,1.0,0.2152252,0.1296997,0.9678955,33.41321,-7.509186,-17.61964,3.5564120000000004,0.4523899,0.7052468000000001,0.3826668,0.6794140999999999,0.326266,-0.07878752,0.7496474,0.07102956,4.788872,20.34118,33.69
4,0.02696228,0.04078674,0.9987946,1.0,0.02696228,0.04078674,0.9987946,-32.09067,-4.538101,-23.47809,3.382324,0.5204787000000001,0.6918749,1.0,0.2152252,0.1296997,0.9678955,33.41321,-7.509186,-17.61964,3.5564120000000004,0.4523899,0.7052468000000001,0.3826668,0.6794140999999999,0.326266,-0.07878752,0.7496474,0.07102956,4.788872,20.34118,33.69
4,0.100235,0.07545471,0.9920959,1.0,0.02775574,0.04029846,0.9987946,-32.0928,-4.543198,-23.45116,3.414703,0.5204787000000001,0.6918749,1.0,0.2126007,0.1296081999999999,0.9684906,33.42245,-7.503265,-17.639570000000003,3.5497440000000005,0.4523899,0.7052468000000001,0.382726,0.6792549,0.326196,-0.07881532,0.7497261,0.07073461,4.788872,20.34118,33.69
4,0.100235,0.07545471,0.9920959,1.0,0.02775574,0.04029846,0.9987946,-32.0928,-4.543198,-23.45116,3.414703,0.5204787000000001,0.6918749,1.0,0.2126007,0.1296081999999999,0.9684906,33.42245,-7.503265,-17.639570000000003,3.5497440000000005,0.4523899,0.7052468000000001,0.382726,0.6792549,0.326196,-0.07881532,0.7497261,0.07073461,4.788872,20.34118,33.69
4,0.100235,0.07545471,0.9920959,1.0,0.02775574,0.04029846,0.9987946,-32.0928,-4.543198,-23.45116,3.414703,0.5204787000000001,0.6918749,1.0,0.2126007,0.1296081999999999,0.9684906,33.42245,-7.503265,-17.639570000000003,3.5497440000000005,0.4523899,0.7052468000000001,0.382726,0.6792549,0.326196,-0.07881532,0.7497261,0.07073461,4.788872,20.34118,33.69
4,0.1341705,0.0904541,0.9868164,1.0,0.02659607,0.04154968,0.9987793,-32.09525,-4.544327,-23.44371,3.4077,0.5206835,0.6916765,1.0,0.2111816,0.1251984,0.9693909,33.42734,-7.489166,-17.681520000000003,3.521301,0.4523899,0.7056304,0.3827574,0.6793267,0.3261977,-0.07849117,0.750003,0.070633,4.788872,20.34118,33.69
