Second,eye_comb_direction_x,eye_comb_direction_y,eye_comb_direction_z,eye_r_openness,eye_r_direction_x,eye_r_direction_y,eye_r_direction_z,eye_r_origin_x,eye_r_origin_y,eye_r_origin_z,eye_r_pupil_diameter,eye_r_pupil_position_x,eye_r_pupil_position_y,eye_l_openness,eye_l_direction_x,eye_l_direction_y,eye_l_direction_z,eye_l_origin_x,eye_l_origin_y,eye_l_origin_z,eye_l_pupil_diameter,eye_l_pupil_position_x,eye_l_pupil_position_y,head_position_x,head_position_y,head_position_z,head_rotation_roll,head_rotation_pitch,head_rotation_yaw,EDA,BVP,TMP
0,0.0,0.0,0.0,0.0,0.0,0.0,0.0,0.0,0.0,0.0,0.0,0.0,0.0,0.0,0.0,0.0,0.0,0.0,0.0,0.0,0.0,0.0,0.0,0.0,0.0,0.0,0.0,0.0,0.0,0.5112853970595325,-0.07035272280935186,28.20043383947939
0,-0.02384949,-0.1242218,0.9919586,0.5200895,-0.02384949,-0.1242218,0.9919586,-33.33087,5.786835,-29.52066,4.969376,0.5553572,0.4183826,0.2475893,0.0,0.0,0.0,29.71507,5.383408,-27.69852,-1.0,0.5820174,0.4383391,0.06068432,1.239334,0.0976969,-0.03060461,-0.03949856,-0.01969573,0.5112853970595325,-0.07035272280935186,28.20043383947939
0,0.009658813,-0.1008606,0.9948425,0.5200895,0.009658813,-0.1008606,0.9948425,-33.34109,5.627213,-29.15353,5.012848,0.5499323,0.416658,0.2475893,0.0,0.0,0.0,29.58583,4.758743,-25.42998,-1.0,0.5871193,0.4089655,0.0617007,1.238791,0.09876788,-0.02915181,-0.03801878,-0.02169523,0.5841815,-0.07035272280935186,28.20043383947939
0,0.009658813,-0.1008606,0.9948425,0.5200895,0.009658813,-0.1008606,0.9948425,-33.34109,5.627213,-29.15353,5.012848,0.5499323,0.416658,0.2475893,0.0,0.0,0.0,29.58583,4.758743,-25.42998,-1.0,0.5871193,0.4089655,0.0617007,1.238791,0.09876788,-0.02915181,-0.03801878,-0.02169523,0.5841815,-0.07035272280935186,28.20043383947939
0,0.009658813,-0.1008606,0.9948425,0.5200895,0.009658813,-0.1008606,0.9948425,-33.34109,5.627213,-29.15353,5.012848,0.5499323,0.416658,0.2475893,0.0,0.0,0.0,29.58583,4.758743,-25.42998,-1.0,0.5871193,0.4089655,0.0617007,1.238791,0.09876788,-0.02915181,-0.03801878,-0.02169523,0.5841815,-0.07035272280935186,28.20043383947939
0,0.009658813,-0.1008606,0.9948425,0.5200895,0.009658813,-0.1008606,0.9948425,-33.34109,5.627213,-29.15353,5.012848,0.5499323,0.416658,0.2475893,0.0,0.0,0.0,29.58583,4.758743,-25.42998,-1.0,0.5871193,0.4089655,0.0617007,1.238791,0.09876788,-0.02915181,-0.03801878,-0.02169523,0.5841815,-0.07035272280935186,28.20043383947939
0,0.009658813,-0.1008606,0.9948425,0.5200895,0.009658813,-0.1008606,0.9948425,-33.34109,5.627213,-29.15353,5.012848,0.5499323,0.416658,0.2475893,0.0,0.0,0.0,29.58583,4.758743,-25.42998,-1.0,0.5871193,0.4089655,0.0617007,1.238791,0.09876788,-0.02915181,-0.03801878,-0.02169523,0.5841815,-0.07035272280935186,28.20043383947939
0,0.009658813,-0.1008606,0.9948425,0.5200895,0.009658813,-0.1008606,0.9948425,-33.34109,5.627213,-29.15353,5.012848,0.5499323,0.416658,0.2475893,0.0,0.0,0.0,29.58583,4.758743,-25.42998,-1.0,0.5871193,0.4089655,0.0617007,1.238791,0.09876788,-0.02915181,-0.03801878,-0.02169523,0.5841815,-0.07035272280935186,28.20043383947939
0,0.009658813,-0.1008606,0.9948425,0.5200895,0.009658813,-0.1008606,0.9948425,-33.34109,5.627213,-29.15353,5.012848,0.5499323,0.416658,0.2475893,0.0,0.0,0.0,29.58583,4.758743,-25.42998,-1.0,0.5871193,0.4089655,0.0617007,1.238791,0.09876788,-0.02915181,-0.03801878,-0.02169523,0.5841815,-0.07035272280935186,28.20043383947939
0,0.009658813,-0.1008606,0.9948425,0.5200895,0.009658813,-0.1008606,0.9948425,-33.34109,5.627213,-29.15353,5.012848,0.5499323,0.416658,0.2475893,0.0,0.0,0.0,29.58583,4.758743,-25.42998,-1.0,0.5871193,0.4089655,0.0617007,1.238791,0.09876788,-0.02915181,-0.03801878,-0.02169523,0.5841815,-0.07035272280935186,28.20043383947939
0,0.009658813,-0.1008606,0.9948425,0.5200895,0.009658813,-0.1008606,0.9948425,-33.34109,5.627213,-29.15353,5.012848,0.5499323,0.416658,0.2475893,0.0,0.0,0.0,29.58583,4.758743,-25.42998,-1.0,0.5871193,0.4089655,0.0617007,1.238791,0.09876788,-0.02915181,-0.03801878,-0.02169523,0.5841815,-0.07035272280935186,28.20043383947939
0,0.0695343,-0.007827759,0.9975433,1.0,-0.007141113,-0.006439209,0.999939,-33.40538,5.220673,-28.46521,5.577988,0.5545551,0.4088498,1.0,0.07072449,-0.007858276,0.9974518,29.7704,4.700699,-25.85799,5.751709,0.5867529,0.4020486,0.06030715,1.240007,0.09527493,-0.03339108,-0.04288752,-0.0215923,0.5841815,-0.07035272280935186,28.20043383947939
0,0.0695343,-0.007827759,0.9975433,1.0,-0.007141113,-0.006439209,0.999939,-33.40538,5.220673,-28.46521,5.577988,0.5545551,0.4088498,1.0,0.07072449,-0.007858276,0.9974518,29.7704,4.700699,-25.85799,5.751709,0.5867529,0.4020486,0.06030715,1.240007,0.09527493,-0.03339108,-0.04288752,-0.0215923,0.5841815,-0.07035272280935186,28.20043383947939
0,0.0695343,-0.007827759,0.9975433,1.0,-0.007141113,-0.006439209,0.999939,-33.40538,5.220673,-28.46521,5.577988,0.5545551,0.4088498,1.0,0.07072449,-0.007858276,0.9974518,29.7704,4.700699,-25.85799,5.751709,0.5867529,0.4020486,0.06030715,1.240007,0.09527493,-0.03339108,-0.04288752,-0.0215923,0.5841815,-0.07035272280935186,28.20043383947939
0,0.0695343,-0.007827759,0.9975433,1.0,-0.007141113,-0.006439209,0.999939,-33.40538,5.220673,-28.46521,5.577988,0.5545551,0.4088498,1.0,0.07072449,-0.007858276,0.9974518,29.7704,4.700699,-25.85799,5.751709,0.5867529,0.4020486,0.06030715,1.240007,0.09527493,-0.03339108,-0.04288752,-0.0215923,0.5841815,-0.07035272280935186,28.20043383947939
0,0.0695343,-0.007827759,0.9975433,1.0,-0.007141113,-0.006439209,0.999939,-33.40538,5.220673,-28.46521,5.577988,0.5545551,0.4088498,1.0,0.07072449,-0.007858276,0.9974518,29.7704,4.700699,-25.85799,5.751709,0.5867529,0.4020486,0.06030715,1.240007,0.09527493,-0.03339108,-0.04288752,-0.0215923,0.5841815,-0.07035272280935186,28.20043383947939
0,0.03430176,-0.004623413,0.9993896,1.0,-0.0027771,-0.007339478,0.9999542,-33.40541,5.21965,-28.4344,5.49939,0.5538067,0.4087356,1.0,0.06837463,-0.002120972,0.9976501,29.79787,4.726974,-25.87746,5.676895,0.5862073,0.4003301,0.0602262,1.240093,0.09517992,-0.03392567,-0.04261058,-0.0216588,0.5841815,-0.07035272280935186,28.20043383947939
0,0.03430176,-0.004623413,0.9993896,1.0,-0.0027771,-0.007339478,0.9999542,-33.40541,5.21965,-28.4344,5.49939,0.5538067,0.4087356,1.0,0.06837463,-0.002120972,0.9976501,29.79787,4.726974,-25.87746,5.676895,0.5862073,0.4003301,0.0602262,1.240093,0.09517992,-0.03392567,-0.04261058,-0.0216588,0.5841815,-0.07035272280935186,28.20043383947939
0,0.05383301,-0.002288818,0.9985352,1.0,-0.001220703,-0.005828857,0.9999695,-33.37071,5.351334,-28.85986,5.396988,0.5526365,0.4075785,1.0,0.06977844,-0.001251221,0.9975586,29.80142,4.728027,-25.87746,5.636444,0.5858411,0.4001353,0.06023073,1.240139,0.09522533,-0.0340123,-0.04248714,-0.02173194,0.5841815,-0.07035272280935186,28.20043383947939
0,0.05383301,-0.002288818,0.9985352,1.0,-0.001220703,-0.005828857,0.9999695,-33.37071,5.351334,-28.85986,5.396988,0.5526365,0.4075785,1.0,0.06977844,-0.001251221,0.9975586,29.80142,4.728027,-25.87746,5.636444,0.5858411,0.4001353,0.06023073,1.240139,0.09522533,-0.0340123,-0.04248714,-0.02173194,0.5841815,-0.07035272280935186,28.20043383947939
0,0.04528809,-0.06388855,0.9969177,1.0,-0.02612305,-0.05639648,0.9980621,-33.50784,5.343536,-29.53995,5.302368,0.5617702,0.4221296,1.0,0.04922485,-0.06430054,0.9967041,29.61555,4.81041,-26.61218,5.28389,0.596016,0.4138435,0.06022191,1.240078,0.09519845,-0.03413716,-0.04247538,-0.02175627,0.5841815,-0.07035272280935186,28.20043383947939
0,0.001602173,-0.1395416,0.9902039,1.0,-0.05996704,-0.1248322,0.9903564,-33.67749,5.081528,-29.93547,5.188187,0.5733501,0.4461934,1.0,0.001602173,-0.1395569,0.9902039,29.43413,4.417694,-25.94691,5.365448,0.6092732,0.4340831,0.06024861,1.240087,0.09528989,-0.03402106,-0.04244608,-0.02199638,0.5841815,-0.07035272280935186,28.20043383947939
0,0.001602173,-0.1395416,0.9902039,1.0,-0.05996704,-0.1248322,0.9903564,-33.67749,5.081528,-29.93547,5.188187,0.5733501,0.4461934,1.0,0.001602173,-0.1395569,0.9902039,29.43413,4.417694,-25.94691,5.365448,0.6092732,0.4340831,0.06024861,1.240087,0.09528989,-0.03402106,-0.04244608,-0.02199638,0.5841815,-0.07035272280935186,28.20043383947939
0,-0.005874634,-0.1403503,0.9900818,1.0,-0.07290649,-0.1478882,0.9862976,-33.64728,4.772125,-28.99687,5.137299,0.573667,0.4524349,1.0,-0.005737305,-0.1403351,0.9900818,29.44284,4.375885,-26.00557,5.211975,0.6101341,0.4361604,0.06023729,1.240036,0.0953238,-0.03391381,-0.04241605,-0.02212034,0.5841815,-0.07035272280935186,28.20043383947939
0,0.0001373291,-0.1584778,0.9873505,1.0,-0.05529785,-0.1408234,0.9884796,-33.66135,4.875732,-29.24449,4.975662,0.5714318,0.4498165,1.0,0.0006408691,-0.1586304,0.9873352,29.45436,4.373077,-25.94876,5.137024,0.6086511,0.4388228,0.0602622,1.239935,0.09543526,-0.03351425,-0.04227847,-0.02227875,0.5841815,-0.07035272280935186,28.20043383947939
1,-0.01568604,-0.1432648,0.9895477,1.0,-0.06182861,-0.1360168,0.9887695,-33.67627,4.929474,-29.31737,5.091827,0.5730971,0.4478441,1.0,-0.009414673,-0.1442261,0.9894867,29.47911,4.42691,-26.17633,5.189224,0.6097191,0.4365338,0.06027997,1.239865,0.09549952,-0.03340336,-0.04227424,-0.02221848,0.5841815,-0.07035272280935186,28.20043383947939
1,-0.04057312,-0.1427002,0.9889221,1.0,-0.06231689,-0.1385193,0.9883881,-33.68156,4.935577,-29.30049,5.1035,0.5733464,0.4479311,1.0,-0.007843018,-0.1488647,0.9888153,29.50047,4.479156,-26.36716,5.185196,0.6089478,0.4371907,0.06024802,1.239803,0.09553611,-0.0332103,-0.04215298,-0.0223452,0.5841815,-0.07035272280935186,28.20043383947939
1,-0.05154419,-0.1419525,0.9885254,1.0,-0.05862427,-0.1405029,0.988327,-33.69353,4.935333,-29.22414,4.928329,0.573072,0.4475696,1.0,-0.0105896,-0.150238,0.9885864,29.50731,4.495728,-26.40494,5.173645,0.6092169,0.4371907,0.06026709,1.239762,0.09560025,-0.03298339,-0.04214096,-0.02224562,0.5841815,-0.07035272280935186,28.20043383947939
1,-0.05154419,-0.1419525,0.9885254,1.0,-0.05862427,-0.1405029,0.988327,-33.69353,4.935333,-29.22414,4.928329,0.573072,0.4475696,1.0,-0.0105896,-0.150238,0.9885864,29.50731,4.495728,-26.40494,5.173645,0.6092169,0.4371907,0.06026709,1.239762,0.09560025,-0.03298339,-0.04214096,-0.02224562,0.5841815,-0.07035272280935186,28.20043383947939
1,-0.05773926,-0.1470795,0.9874268,1.0,-0.05838013,-0.1470032,0.9873962,-33.70071,4.929047,-29.18172,4.857361,0.5732341,0.4485248,1.0,-0.01113892,-0.1521759,0.9882813,29.51318,4.508347,-26.42918,5.16893,0.6091338,0.4372947,0.06022882,1.239721,0.09564388,-0.0328639,-0.04191547,-0.0223572,0.5841815,-0.07035272280935186,28.20043383947939
1,-0.054245,-0.1385651,0.9888611,1.0,-0.05526733,-0.1382294,0.9888458,-33.70514,4.930161,-29.18172,4.858215,0.572873,0.4469625,1.0,-0.01268005,-0.1519165,0.9882965,29.52208,4.532181,-26.47499,5.148636,0.6091338,0.4368354,0.06019723,1.239621,0.09578133,-0.03256647,-0.04184609,-0.02222082,0.5841815,-0.07035272280935186,28.20043383947939
1,-0.04890442,-0.1410522,0.9887848,1.0,-0.05491638,-0.1392059,0.9887238,-33.70667,4.937012,-29.18854,4.874268,0.572873,0.4469625,1.0,-0.01272583,-0.1520233,0.9882813,29.52208,4.532181,-26.47292,5.123398,0.6091338,0.4368354,0.06022787,1.239587,0.09586084,-0.0324427,-0.04180512,-0.02219667,0.5841815,-0.07035272280935186,28.20043383947939
1,-0.04890442,-0.1410522,0.9887848,1.0,-0.05491638,-0.1392059,0.9887238,-33.70667,4.937012,-29.18854,4.874268,0.572873,0.4469625,1.0,-0.01272583,-0.1520233,0.9882813,29.52208,4.532181,-26.47292,5.123398,0.6091338,0.4368354,0.06022787,1.239587,0.09586084,-0.0324427,-0.04180512,-0.02219667,0.5841815,-0.07035272280935186,28.20043383947939
1,-0.03237915,-0.1471252,0.9885712,1.0,-0.05343628,-0.1392517,0.9888,-33.70644,4.950912,-29.20265,4.794189,0.5726272,0.4466035,1.0,-0.01278687,-0.1543884,0.987915,29.52618,4.553375,-26.46471,5.10759,0.6089992,0.4364474,0.06016409,1.239531,0.09603,-0.03226168,-0.04158282,-0.02216845,0.5841815,-0.07035272280935186,28.20043383947939
1,-0.03312683,-0.1481934,0.9883881,1.0,-0.05429077,-0.1392822,0.9887543,-33.70706,4.951202,-29.19817,4.822647,0.5727893,0.4465711,1.0,-0.01277161,-0.1566925,0.9875641,29.52727,4.56337,-26.45345,5.103333,0.6089478,0.4364147,0.06015837,1.239511,0.09607947,-0.03213326,-0.04161058,-0.02213448,0.5841815,-0.07035272280935186,28.20043383947939
1,-0.03312683,-0.1481934,0.9883881,1.0,-0.05429077,-0.1392822,0.9887543,-33.70706,4.951202,-29.19817,4.822647,0.5727893,0.4465711,1.0,-0.01277161,-0.1566925,0.9875641,29.52727,4.56337,-26.45345,5.103333,0.6089478,0.4364147,0.06015837,1.239511,0.09607947,-0.03213326,-0.04161058,-0.02213448,0.5841815,-0.07035272280935186,28.20043383947939
1,-0.03344727,-0.1485443,0.988327,1.0,-0.05516052,-0.139328,0.9886932,-33.70769,4.951477,-29.19368,4.835846,0.5729514,0.4465385,1.0,-0.01301575,-0.157135,0.9874878,29.52823,4.567993,-26.45345,5.05777,0.6089478,0.4363319,0.06012964,1.239452,0.09624356,-0.03202061,-0.04155701,-0.0220282,0.5841815,-0.07035272280935186,28.20043383947939
1,-0.03344727,-0.1485443,0.988327,1.0,-0.05516052,-0.139328,0.9886932,-33.70769,4.951477,-29.19368,4.835846,0.5729514,0.4465385,1.0,-0.01301575,-0.157135,0.9874878,29.52823,4.567993,-26.45345,5.05777,0.6089478,0.4363319,0.06010962,1.239429,0.09631968,-0.0319288,-0.0415197,-0.02200789,0.5841815,-0.07035272280935186,28.20043383947939
1,-0.03344727,-0.1485443,0.988327,1.0,-0.05516052,-0.139328,0.9886932,-33.70769,4.951477,-29.19368,4.835846,0.5729514,0.4465385,1.0,-0.01301575,-0.157135,0.9874878,29.52823,4.567993,-26.45345,5.05777,0.6089478,0.4363319,0.06010962,1.239429,0.09631968,-0.0319288,-0.0415197,-0.02200789,0.5841815,-0.07035272280935186,28.20043383947939
1,-0.03344727,-0.1485443,0.988327,1.0,-0.05516052,-0.139328,0.9886932,-33.70769,4.951477,-29.19368,4.835846,0.5729514,0.4465385,1.0,-0.01301575,-0.157135,0.9874878,29.52823,4.567993,-26.45345,5.05777,0.6089478,0.4363319,0.06011546,1.239363,0.09642327,-0.03194046,-0.04149278,-0.02192581,0.5841815,-97.99307,28.20043383947939
1,-0.03344727,-0.1485443,0.988327,1.0,-0.05516052,-0.139328,0.9886932,-33.70769,4.951477,-29.19368,4.835846,0.5729514,0.4465385,1.0,-0.01301575,-0.157135,0.9874878,29.52823,4.567993,-26.45345,5.05777,0.6089478,0.4363319,0.06011546,1.239363,0.09642327,-0.03194046,-0.04149278,-0.02192581,0.5841815,-97.99307,28.20043383947939
1,-0.03210449,-0.1499939,0.9881592,1.0,-0.05361938,-0.1438751,0.9881287,-33.70938,4.937607,-29.11594,4.806213,0.5726869,0.4471057,1.0,-0.01332092,-0.1552582,0.9877777,29.52959,4.570007,-26.45345,5.02948,0.6089478,0.4359354,0.06011772,1.23937,0.09655041,-0.03181589,-0.04151234,-0.02196757,0.5841815,-97.99307,28.20043383947939
1,-0.03210449,-0.1499939,0.9881592,1.0,-0.05361938,-0.1438751,0.9881287,-33.70938,4.937607,-29.11594,4.806213,0.5726869,0.4471057,1.0,-0.01332092,-0.1552582,0.9877777,29.52959,4.570007,-26.45345,5.02948,0.6089478,0.4359354,0.06008089,1.239318,0.09658468,-0.03172349,-0.04152526,-0.02190644,0.5841815,-97.99307,28.20043383947939
1,-0.03210449,-0.1499939,0.9881592,1.0,-0.05361938,-0.1438751,0.9881287,-33.70938,4.937607,-29.11594,4.806213,0.5726869,0.4471057,1.0,-0.01332092,-0.1552582,0.9877777,29.52959,4.570007,-26.45345,5.02948,0.6089478,0.4359354,0.06008089,1.239318,0.09658468,-0.03172349,-0.04152526,-0.02190644,0.5841815,-97.99307,28.20043383947939
1,-0.03210449,-0.1499939,0.9881592,1.0,-0.05361938,-0.1438751,0.9881287,-33.70938,4.937607,-29.11594,4.806213,0.5726869,0.4471057,1.0,-0.01332092,-0.1552582,0.9877777,29.52959,4.570007,-26.45345,5.02948,0.6089478,0.4359354,0.06003225,1.239266,0.09667253,-0.03163788,-0.04156221,-0.02178981,0.5841815,-97.99307,28.20043383947939
1,-0.03210449,-0.1499939,0.9881592,1.0,-0.05361938,-0.1438751,0.9881287,-33.70938,4.937607,-29.11594,4.806213,0.5726869,0.4471057,1.0,-0.01332092,-0.1552582,0.9877777,29.52959,4.570007,-26.45345,5.02948,0.6089478,0.4359354,0.06000543,1.239251,0.0967291,-0.03153835,-0.0416206,-0.02177955,0.5841815,-97.99307,28.20043383947939
1,0.0246582,-0.08459473,0.9960938,1.0,0.02212524,-0.08360291,0.9962463,-33.04414,5.352615,-29.28906,4.578156,0.5377357,0.4240603,1.0,0.07476807,-0.1041565,0.991745,30.15283,5.116623,-27.31836,4.494568,0.573873,0.4160128,0.05998409,1.239217,0.09678769,-0.03154024,-0.04169537,-0.021746,0.5841815,-97.99307,28.20043383947939
1,0.0246582,-0.08459473,0.9960938,1.0,0.02212524,-0.08360291,0.9962463,-33.04414,5.352615,-29.28906,4.578156,0.5377357,0.4240603,1.0,0.07476807,-0.1041565,0.991745,30.15283,5.116623,-27.31836,4.494568,0.573873,0.4160128,0.05998409,1.239217,0.09678769,-0.03154024,-0.04169537,-0.021746,0.5841815,-97.99307,28.20043383947939
1,0.08059692,-0.05215454,0.9953766,1.0,0.07875061,-0.05111694,0.995575,-32.6535,5.709717,-30.09386,4.498184,0.5153763,0.4132546,1.0,0.1295471,-0.0796814,0.9883575,30.38826,5.157364,-26.98575,4.615891,0.5565708,0.4077846,0.0599407,1.239168,0.09689385,-0.03140791,-0.04169733,-0.02172303,0.5841815,-97.99307,28.20043383947939
1,0.08059692,-0.05215454,0.9953766,1.0,0.07875061,-0.05111694,0.995575,-32.6535,5.709717,-30.09386,4.498184,0.5153763,0.4132546,1.0,0.1295471,-0.0796814,0.9883575,30.38826,5.157364,-26.98575,4.615891,0.5565708,0.4077846,0.0599407,1.239168,0.09689385,-0.03140791,-0.04169733,-0.02172303,0.5841815,-97.99307,28.20043383947939
1,0.0952301,-0.0431366,0.9945068,1.0,0.09248352,-0.04107666,0.9948578,-32.65916,5.49411,-29.40906,4.532257,0.5130413,0.4130895,1.0,0.1322479,-0.07104492,0.9886627,30.44043,5.080292,-26.75557,4.582138,0.5541508,0.4070459,0.05988884,1.239132,0.09700167,-0.03136376,-0.04178195,-0.02172097,0.5841815,-97.99307,28.20043383947939
1,0.0952301,-0.0431366,0.9945068,1.0,0.09248352,-0.04107666,0.9948578,-32.65916,5.49411,-29.40906,4.532257,0.5130413,0.4130895,1.0,0.1322479,-0.07104492,0.9886627,30.44043,5.080292,-26.75557,4.582138,0.5541508,0.4070459,0.05983865,1.239105,0.09702414,-0.03118795,-0.04187137,-0.02185093,0.5841815,-97.99307,28.20043383947939
1,0.0952301,-0.0431366,0.9945068,1.0,0.09248352,-0.04107666,0.9948578,-32.65916,5.49411,-29.40906,4.532257,0.5130413,0.4130895,1.0,0.1322479,-0.07104492,0.9886627,30.44043,5.080292,-26.75557,4.582138,0.5541508,0.4070459,0.05982625,1.239046,0.09708905,-0.03114277,-0.04189431,-0.02186218,0.5841815,-97.99307,28.20043383947939
1,0.0952301,-0.0431366,0.9945068,1.0,0.09248352,-0.04107666,0.9948578,-32.65916,5.49411,-29.40906,4.532257,0.5130413,0.4130895,1.0,0.1322479,-0.07104492,0.9886627,30.44043,5.080292,-26.75557,4.582138,0.5541508,0.4070459,0.05982625,1.239046,0.09708905,-0.03114277,-0.04189431,-0.02186218,0.5841815,-97.99307,28.20043383947939
1,0.0952301,-0.0431366,0.9945068,1.0,0.09248352,-0.04107666,0.9948578,-32.65916,5.49411,-29.40906,4.532257,0.5130413,0.4130895,1.0,0.1322479,-0.07104492,0.9886627,30.44043,5.080292,-26.75557,4.582138,0.5541508,0.4070459,0.05981147,1.239009,0.09710348,-0.03108266,-0.04191831,-0.02175182,0.5841815,-97.99307,28.20043383947939
1,0.0952301,-0.0431366,0.9945068,1.0,0.09248352,-0.04107666,0.9948578,-32.65916,5.49411,-29.40906,4.532257,0.5130413,0.4130895,1.0,0.1322479,-0.07104492,0.9886627,30.44043,5.080292,-26.75557,4.582138,0.5541508,0.4070459,0.05981147,1.239009,0.09710348,-0.03108266,-0.04191831,-0.02175182,0.5841815,-97.99307,28.20043383947939
1,0.08828735,-0.04988098,0.9948425,1.0,0.08828735,-0.04988098,0.9948425,-32.66168,5.632721,-29.86847,4.361053,0.513931,0.4137284,1.0,0.1713562,-0.06349182,0.9831543,30.24367,4.673203,-25.50952,4.389069,0.5533655,0.4091466,0.0597738,1.238969,0.09711659,-0.0310222,-0.04182793,-0.02159506,0.5841815,-34.90022,28.20043383947939
1,0.08828735,-0.04988098,0.9948425,1.0,0.08828735,-0.04988098,0.9948425,-32.66168,5.632721,-29.86847,4.361053,0.513931,0.4137284,1.0,0.1713562,-0.06349182,0.9831543,30.24367,4.673203,-25.50952,4.389069,0.5533655,0.4091466,0.0597738,1.238969,0.09711659,-0.0310222,-0.04182793,-0.02159506,0.5841815,-34.90022,28.20043383947939
1,0.0859375,-0.05328369,0.994873,1.0,0.0859375,-0.05328369,0.994873,-32.66995,5.63324,-29.87083,4.3134,0.5145918,0.4143009,1.0,0.1368408,-0.07704163,0.9875793,30.43837,4.99765,-26.47321,4.393524,0.5532001,0.4083988,0.059726,1.238968,0.09710467,-0.03097196,-0.04189929,-0.02148819,0.5841815,-34.90022,28.20043383947939
1,0.0859375,-0.05328369,0.994873,1.0,0.0859375,-0.05328369,0.994873,-32.66995,5.63324,-29.87083,4.3134,0.5145918,0.4143009,1.0,0.1368408,-0.07704163,0.9875793,30.43837,4.99765,-26.47321,4.393524,0.5532001,0.4083988,0.059726,1.238968,0.09710467,-0.03097196,-0.04189929,-0.02148819,0.5841815,-34.90022,28.20043383947939
1,0.08407593,-0.05194092,0.9951019,1.0,0.08407593,-0.05194092,0.9951019,-32.67821,5.637177,-29.88669,4.287231,0.5151812,0.4140618,1.0,0.1356659,-0.07672119,0.9877625,30.43776,4.997818,-26.47459,4.357407,0.5533998,0.4083341,0.05967438,1.23896,0.09710479,-0.03105724,-0.04181546,-0.02132216,0.5841815,-34.90022,28.20043383947939
1,0.08407593,-0.05194092,0.9951019,1.0,0.08407593,-0.05194092,0.9951019,-32.67821,5.637177,-29.88669,4.287231,0.5151812,0.4140618,1.0,0.1356659,-0.07672119,0.9877625,30.43776,4.997818,-26.47459,4.357407,0.5533998,0.4083341,0.05967438,1.23896,0.09710479,-0.03105724,-0.04181546,-0.02132216,0.5841815,-34.90022,28.20043383947939
1,0.0866394,-0.05305481,0.994812,1.0,0.08644104,-0.052948,0.9948425,-32.69153,5.653305,-29.92056,4.279816,0.5152476,0.4139755,1.0,0.1348267,-0.07633972,0.987915,30.43376,5.002258,-26.49142,4.35878,0.553688,0.4082548,0.05962443,1.238991,0.09711099,-0.03117887,-0.04187314,-0.02121777,0.5841815,-34.90022,28.20043383947939
1,0.0866394,-0.05305481,0.994812,1.0,0.08644104,-0.052948,0.9948425,-32.69153,5.653305,-29.92056,4.279816,0.5152476,0.4139755,1.0,0.1348267,-0.07633972,0.987915,30.43376,5.002258,-26.49142,4.35878,0.553688,0.4082548,0.05962443,1.238991,0.09711099,-0.03117887,-0.04187314,-0.02121777,0.5841815,-34.90022,28.20043383947939
1,0.1124878,-0.06552124,0.9914856,1.0,0.08764648,-0.0532074,0.9947205,-32.70082,5.653305,-29.90331,4.268616,0.5153509,0.4138721,1.0,0.1346893,-0.07650757,0.987915,30.42928,4.99765,-26.47321,4.353485,0.5538476,0.4082865,0.05959558,1.238953,0.09710234,-0.03107475,-0.04212664,-0.02119353,0.5841815,-34.90022,28.20043383947939
1,0.1124878,-0.06552124,0.9914856,1.0,0.08764648,-0.0532074,0.9947205,-32.70082,5.653305,-29.90331,4.268616,0.5153509,0.4138721,1.0,0.1346893,-0.07650757,0.987915,30.42928,4.99765,-26.47321,4.353485,0.5538476,0.4082865,0.05959558,1.238953,0.09710234,-0.03107475,-0.04212664,-0.02119353,0.5841815,-34.90022,28.20043383947939
1,0.1122742,-0.06484985,0.9915466,1.0,0.08813477,-0.05322266,0.9946747,-32.70621,5.650284,-29.88669,4.259308,0.5154427,0.4138364,1.0,0.135788,-0.07617188,0.987793,30.42142,4.997818,-26.47459,4.349915,0.5539297,0.4082388,0.05957484,1.23893,0.09714329,-0.03088789,-0.04229062,-0.02095489,0.5841815,-34.90022,28.20043383947939
1,0.1122742,-0.06484985,0.9915466,1.0,0.08813477,-0.05322266,0.9946747,-32.70621,5.650284,-29.88669,4.259308,0.5154427,0.4138364,1.0,0.135788,-0.07617188,0.987793,30.42142,4.997818,-26.47459,4.349915,0.5539297,0.4082388,0.05957484,1.23893,0.09714329,-0.03088789,-0.04229062,-0.02095489,0.5841815,-34.90022,28.20043383947939
1,0.110672,-0.06581116,0.9916687,1.0,0.0869751,-0.05467224,0.9947052,-32.72137,5.650284,-29.84541,4.222931,0.5161297,0.4137218,1.0,0.1340637,-0.07681274,0.9879761,30.4201,5.013321,-26.51787,4.310287,0.5542723,0.4081754,0.05954349,1.238913,0.09712005,-0.03070426,-0.04249678,-0.02076164,0.5841815,-34.90022,28.20043383947939
1,0.110672,-0.06581116,0.9916687,1.0,0.0869751,-0.05467224,0.9947052,-32.72137,5.650284,-29.84541,4.222931,0.5161297,0.4137218,1.0,0.1340637,-0.07681274,0.9879761,30.4201,5.013321,-26.51787,4.310287,0.5542723,0.4081754,0.05954349,1.238913,0.09712005,-0.03070426,-0.04249678,-0.02076164,0.5841815,-34.90022,28.20043383947939
1,0.112915,-0.06768799,0.9912872,1.0,0.08695984,-0.05401611,0.9947357,-32.72714,5.632477,-29.78809,4.212738,0.5163026,0.4137218,1.0,0.1349945,-0.07931519,0.9876556,30.41222,5.028885,-26.537,4.308685,0.5543957,0.4082388,0.05948341,1.238869,0.09709275,-0.0306124,-0.04246416,-0.02103049,0.5841815,123.8347,28.20043383947939
1,0.112915,-0.06768799,0.9912872,1.0,0.08695984,-0.05401611,0.9947357,-32.72714,5.632477,-29.78809,4.212738,0.5163026,0.4137218,1.0,0.1349945,-0.07931519,0.9876556,30.41222,5.028885,-26.537,4.308685,0.5543957,0.4082388,0.05948341,1.238869,0.09709275,-0.0306124,-0.04246416,-0.02103049,0.5841815,123.8347,28.20043383947939
1,0.1103516,-0.06929016,0.9914703,1.0,0.08161926,-0.05461121,0.995163,-32.73538,5.630356,-29.7755,4.212189,0.517476,0.4137773,1.0,0.1301727,-0.07939148,0.9882965,30.41212,5.035522,-26.57101,4.258865,0.5552042,0.4082763,0.05940473,1.23885,0.09715033,-0.03033318,-0.04244836,-0.02144515,0.5841815,123.8347,28.20043383947939
1,0.1103516,-0.06929016,0.9914703,1.0,0.08161926,-0.05461121,0.995163,-32.73538,5.630356,-29.7755,4.212189,0.517476,0.4137773,1.0,0.1301727,-0.07939148,0.9882965,30.41212,5.035522,-26.57101,4.258865,0.5552042,0.4082763,0.05940473,1.23885,0.09715033,-0.03033318,-0.04244836,-0.02144515,0.5841815,123.8347,28.20043383947939
1,0.1016998,-0.06504822,0.9926758,1.0,0.08303833,-0.05464172,0.9950409,-32.75079,5.609161,-29.70969,4.196625,0.5177318,0.4139394,1.0,0.1295319,-0.08053589,0.9882965,30.40904,5.069,-26.68382,4.227707,0.5554742,0.4082763,0.05935574,1.23876,0.09712803,-0.02985861,-0.04236984,-0.02118896,0.5841815,123.8347,28.20043383947939
1,0.1016998,-0.06504822,0.9926758,1.0,0.08303833,-0.05464172,0.9950409,-32.75079,5.609161,-29.70969,4.196625,0.5177318,0.4139394,1.0,0.1295319,-0.08053589,0.9882965,30.40904,5.069,-26.68382,4.227707,0.5554742,0.4082763,0.05935574,1.23876,0.09712803,-0.02985861,-0.04236984,-0.02118896,0.5841815,123.8347,28.20043383947939
1,0.06980896,-0.0941925,0.9930878,1.0,0.06373596,-0.09144592,0.9937592,-32.88327,5.47673,-29.81789,4.193756,0.5254869,0.4256791,1.0,0.09762573,-0.1068268,0.9894714,30.21677,4.946304,-26.83022,4.250473,0.5674068,0.4180517,0.0593406,1.238642,0.09716845,-0.02957303,-0.0425108,-0.02071278,0.5841815,123.8347,28.20043383947939
1,0.06980896,-0.0941925,0.9930878,1.0,0.06373596,-0.09144592,0.9937592,-32.88327,5.47673,-29.81789,4.193756,0.5254869,0.4256791,1.0,0.09762573,-0.1068268,0.9894714,30.21677,4.946304,-26.83022,4.250473,0.5674068,0.4180517,0.0593406,1.238642,0.09716845,-0.02957303,-0.0425108,-0.02071278,0.5841815,123.8347,28.20043383947939
1,0.03767395,-0.1865845,0.9817047,1.0,0.004257202,-0.1712036,0.9852142,-33.12939,4.961563,-29.61681,3.939758,0.5435979,0.4551929,1.0,0.0471344,-0.1908875,0.9804688,29.82733,4.45755,-26.5269,4.142578,0.5886625,0.4463864,0.05925524,1.238607,0.09716094,-0.02933754,-0.04255652,-0.0204547,0.5841815,123.8347,28.20043383947939
1,0.03767395,-0.1865845,0.9817047,1.0,0.004257202,-0.1712036,0.9852142,-33.12939,4.961563,-29.61681,3.939758,0.5435979,0.4551929,1.0,0.0471344,-0.1908875,0.9804688,29.82733,4.45755,-26.5269,4.142578,0.5886625,0.4463864,0.05925524,1.238607,0.09716094,-0.02933754,-0.04255652,-0.0204547,0.5841815,123.8347,28.20043383947939
1,0.03370667,-0.1923523,0.9807434,1.0,0.006820679,-0.1786041,0.9838867,-33.13187,4.981934,-29.64098,4.188156,0.543299,0.4560669,1.0,0.04391479,-0.1975403,0.9792938,29.85724,4.452469,-26.53316,4.161743,0.5881959,0.4477694,0.05912292,1.238528,0.09708846,-0.02911831,-0.04271764,-0.020486,0.5841815,123.8347,28.20043383947939
1,0.03370667,-0.1923523,0.9807434,1.0,0.006820679,-0.1786041,0.9838867,-33.13187,4.981934,-29.64098,4.188156,0.543299,0.4560669,1.0,0.04391479,-0.1975403,0.9792938,29.85724,4.452469,-26.53316,4.161743,0.5881959,0.4477694,0.05912292,1.238528,0.09708846,-0.02911831,-0.04271764,-0.020486,0.5841815,123.8347,28.20043383947939
1,0.03370667,-0.1923523,0.9807434,1.0,0.006820679,-0.1786041,0.9838867,-33.13187,4.981934,-29.64098,4.188156,0.543299,0.4560669,1.0,0.04391479,-0.1975403,0.9792938,29.85724,4.452469,-26.53316,4.161743,0.5881959,0.4477694,0.05902874,1.238472,0.09705651,-0.02893787,-0.04271188,-0.02041788,0.5841815,123.8347,28.20043383947939
1,0.03370667,-0.1923523,0.9807434,1.0,0.006820679,-0.1786041,0.9838867,-33.13187,4.981934,-29.64098,4.188156,0.543299,0.4560669,1.0,0.04391479,-0.1975403,0.9792938,29.85724,4.452469,-26.53316,4.161743,0.5881959,0.4477694,0.05902874,1.238472,0.09705651,-0.02893787,-0.04271188,-0.02041788,0.5841815,123.8347,28.20043383947939
1,0.03370667,-0.1923523,0.9807434,1.0,0.006820679,-0.1786041,0.9838867,-33.13187,4.981934,-29.64098,4.188156,0.543299,0.4560669,1.0,0.04391479,-0.1975403,0.9792938,29.85724,4.452469,-26.53316,4.161743,0.5881959,0.4477694,0.0588764,1.238406,0.09699726,-0.02871119,-0.0429462,-0.02014493,0.5841815,123.8347,28.20043383947939
1,0.03370667,-0.1923523,0.9807434,1.0,0.006820679,-0.1786041,0.9838867,-33.13187,4.981934,-29.64098,4.188156,0.543299,0.4560669,1.0,0.04391479,-0.1975403,0.9792938,29.85724,4.452469,-26.53316,4.161743,0.5881959,0.4477694,0.0588764,1.238406,0.09699726,-0.02871119,-0.0429462,-0.02014493,0.5841815,123.8347,28.20043383947939
1,0.02676392,-0.1784973,0.9835663,1.0,0.009124756,-0.1693268,0.9855042,-33.188,4.99115,-29.60626,4.028122,0.5447783,0.4538097,1.0,0.04718018,-0.1890411,0.9808197,29.87038,4.459793,-26.53185,4.12381,0.5871955,0.4460224,0.05873322,1.238385,0.0969075,-0.02850361,-0.04326889,-0.01995355,0.5841815,123.8347,28.20043383947939
1,0.02676392,-0.1784973,0.9835663,1.0,0.009124756,-0.1693268,0.9855042,-33.188,4.99115,-29.60626,4.028122,0.5447783,0.4538097,1.0,0.04718018,-0.1890411,0.9808197,29.87038,4.459793,-26.53185,4.12381,0.5871955,0.4460224,0.05873322,1.238385,0.0969075,-0.02850361,-0.04326889,-0.01995355,0.5841815,123.8347,28.20043383947939
1,0.04405212,-0.1876984,0.9812317,1.0,0.007400513,-0.1672974,0.9858704,-33.19839,4.98703,-29.58644,4.014877,0.5454049,0.45341,1.0,0.07092285,-0.2024689,0.9767151,29.7579,4.501175,-26.36813,4.120377,0.5869209,0.4456301,0.05860126,1.238364,0.09682679,-0.02840857,-0.04346526,-0.01986861,0.5982736,76.64101,28.20043383947939
1,0.04405212,-0.1876984,0.9812317,1.0,0.007400513,-0.1672974,0.9858704,-33.19839,4.98703,-29.58644,4.014877,0.5454049,0.45341,1.0,0.07092285,-0.2024689,0.9767151,29.7579,4.501175,-26.36813,4.120377,0.5869209,0.4456301,0.05860126,1.238364,0.09682679,-0.02840857,-0.04346526,-0.01986861,0.5982736,76.64101,28.20043383947939
1,0.02787781,-0.1785889,0.9835205,1.0,0.006866455,-0.1683655,0.9856873,-33.20021,4.987061,-29.58774,4.048492,0.5455627,0.453612,1.0,0.09054565,-0.2085419,0.9738007,29.65855,4.504532,-26.23274,4.116714,0.5869036,0.4454814,0.0585078,1.238346,0.09674323,-0.02830031,-0.04383735,-0.01955641,0.5982736,76.64101,28.20043383947939
1,0.02787781,-0.1785889,0.9835205,1.0,0.006866455,-0.1683655,0.9856873,-33.20021,4.987061,-29.58774,4.048492,0.5455627,0.453612,1.0,0.09054565,-0.2085419,0.9738007,29.65855,4.504532,-26.23274,4.116714,0.5869036,0.4454814,0.0585078,1.238346,0.09674323,-0.02830031,-0.04383735,-0.01955641,0.5982736,76.64101,28.20043383947939
1,0.02787781,-0.1785889,0.9835205,1.0,0.006866455,-0.1683655,0.9856873,-33.20021,4.987061,-29.58774,4.048492,0.5455627,0.453612,1.0,0.09054565,-0.2085419,0.9738007,29.65855,4.504532,-26.23274,4.116714,0.5869036,0.4454814,0.05846775,1.23829,0.09670651,-0.02827476,-0.0440951,-0.01911833,0.5982736,76.64101,28.20043383947939
1,0.02787781,-0.1785889,0.9835205,1.0,0.006866455,-0.1683655,0.9856873,-33.20021,4.987061,-29.58774,4.048492,0.5455627,0.453612,1.0,0.09054565,-0.2085419,0.9738007,29.65855,4.504532,-26.23274,4.116714,0.5869036,0.4454814,0.05846775,1.23829,0.09670651,-0.02827476,-0.0440951,-0.01911833,0.5982736,76.64101,28.20043383947939
1,0.01722717,-0.1749878,0.9844055,1.0,0.00692749,-0.1701813,0.9853821,-33.2018,4.98703,-29.58847,4.034912,0.5456044,0.4539334,1.0,0.09130859,-0.2089539,0.9736481,29.65775,4.504669,-26.23149,4.113693,0.5867998,0.4455466,0.05848277,1.238282,0.09672678,-0.02835108,-0.04434144,-0.01883249,0.5982736,76.64101,28.20043383947939
1,0.01722717,-0.1749878,0.9844055,1.0,0.00692749,-0.1701813,0.9853821,-33.2018,4.98703,-29.58847,4.034912,0.5456044,0.4539334,1.0,0.09130859,-0.2089539,0.9736481,29.65775,4.504669,-26.23149,4.113693,0.5867998,0.4455466,0.05848277,1.238282,0.09672678,-0.02835108,-0.04434144,-0.01883249,0.5982736,76.64101,28.20043383947939
1,0.01197815,-0.1826324,0.9830933,1.0,0.003692627,-0.1776428,0.9840851,-33.26596,4.973877,-29.60542,4.071259,0.5483363,0.4558562,1.0,0.06340027,-0.2132111,0.9749298,29.7599,4.509247,-26.32919,4.027115,0.588046,0.4468858,0.0584532,1.238279,0.09675336,-0.02835265,-0.0444029,-0.01878098,0.5982736,76.64101,28.20043383947939
1,0.01535034,-0.1886139,0.9819183,1.0,0.001052856,-0.1825562,0.9831848,-33.27617,4.952667,-29.58253,4.112183,0.549115,0.4572375,1.0,0.04998779,-0.2031097,0.9778748,29.81638,4.48877,-26.41446,4.023544,0.5884356,0.4465029,0.05840409,1.238251,0.09679055,-0.02843243,-0.04450346,-0.01899557,0.5982736,76.64101,28.20043383947939
1,0.01535034,-0.1886139,0.9819183,1.0,0.001052856,-0.1825562,0.9831848,-33.27617,4.952667,-29.58253,4.112183,0.549115,0.4572375,1.0,0.04998779,-0.2031097,0.9778748,29.81638,4.48877,-26.41446,4.023544,0.5884356,0.4465029,0.05840409,1.238251,0.09679055,-0.02843243,-0.04450346,-0.01899557,0.5982736,76.64101,28.20043383947939
1,0.01570129,-0.192276,0.9812012,1.0,0.003723145,-0.188446,0.9820709,-33.30116,4.957291,-29.60326,4.072189,0.5495254,0.4583012,1.0,0.04803467,-0.2024689,0.9781036,29.81638,4.485184,-26.41446,4.0448,0.5887675,0.4465029,0.05837572,1.238288,0.09676492,-0.0283826,-0.04466156,-0.0190418,0.5982736,76.64101,28.20043383947939
1,0.01998901,-0.193573,0.9808807,1.0,0.001312256,-0.1857147,0.9825897,-33.31018,4.949921,-29.60391,4.050262,0.5502315,0.4580726,1.0,0.05918884,-0.2098083,0.9759369,29.7599,4.491394,-26.3345,4.088791,0.5887675,0.4469278,0.05836201,1.238275,0.09677285,-0.02834608,-0.04473607,-0.0189622,0.5982736,8.976265,28.20043383947939
1,0.01998901,-0.193573,0.9808807,1.0,0.001312256,-0.1857147,0.9825897,-33.31018,4.949921,-29.60391,4.050262,0.5502315,0.4580726,1.0,0.05918884,-0.2098083,0.9759369,29.7599,4.491394,-26.3345,4.088791,0.5887675,0.4469278,0.05836201,1.238275,0.09677285,-0.02834608,-0.04473607,-0.0189622,0.5982736,8.976265,28.20043383947939
1,0.01785278,-0.1925507,0.9811096,1.0,0.002593994,-0.1854248,0.9826508,-33.31819,4.942673,-29.60689,4.064499,0.5502917,0.4583012,1.0,0.04803467,-0.2065125,0.9772491,29.81271,4.478302,-26.41489,4.085297,0.5889003,0.4474539,0.05822957,1.238118,0.09681624,-0.02809925,-0.04486595,-0.01893507,0.5982736,8.976265,28.20043383947939
1,0.00932312,-0.1911011,0.9815216,1.0,-0.002182007,-0.186676,0.9824066,-33.31982,4.900528,-29.62259,4.096542,0.5511576,0.4600816,1.0,0.03669739,-0.2014923,0.9787903,29.86417,4.467926,-26.49484,4.081787,0.589115,0.4475954,0.05827069,1.23811,0.0968523,-0.02783016,-0.04490247,-0.01883723,0.5982736,8.976265,28.20043383947939
1,0.00932312,-0.1911011,0.9815216,1.0,-0.002182007,-0.186676,0.9824066,-33.31982,4.900528,-29.62259,4.096542,0.5511576,0.4600816,1.0,0.03669739,-0.2014923,0.9787903,29.86417,4.467926,-26.49484,4.081787,0.589115,0.4475954,0.05827069,1.23811,0.0968523,-0.02783016,-0.04490247,-0.01883723,0.5982736,8.976265,28.20043383947939
1,0.008392334,-0.1900787,0.98172,1.0,-0.00213623,-0.1853638,0.9826508,-33.32014,4.874863,-29.63982,4.169846,0.5511772,0.4608776,1.0,0.0357666,-0.2022095,0.9786835,29.86438,4.465271,-26.49673,4.087524,0.589264,0.4478243,0.05829108,1.238076,0.09686136,-0.02775697,-0.04491524,-0.01884,0.5982736,8.976265,28.20043383947939
1,0.007827759,-0.1905518,0.9816437,1.0,-0.003250122,-0.1855164,0.9826202,-33.32709,4.859818,-29.64194,4.068787,0.5515837,0.4614261,1.0,0.03567505,-0.2030792,0.9785004,29.86435,4.463974,-26.49684,4.093704,0.5892818,0.4480212,0.05829763,1.238014,0.09681433,-0.0271869,-0.04485648,-0.01871223,0.5982736,8.976265,28.20043383947939
1,0.01312256,-0.1848755,0.982666,1.0,0.002075195,-0.1795654,0.9837341,-33.33209,4.833786,-29.64494,4.131027,0.5508689,0.4612951,1.0,0.03564453,-0.1956482,0.980011,29.8644,4.411484,-26.49806,4.11235,0.5892818,0.4484943,0.05829549,1.237956,0.0968442,-0.02706302,-0.04485864,-0.01864802,0.5982736,8.976265,28.20043383947939
1,0.015625,-0.1933136,0.9810028,1.0,-0.003601074,-0.1841125,0.9828949,-33.32776,4.820496,-29.65028,4.202179,0.5516847,0.4626008,1.0,0.0355072,-0.2027588,0.9785767,29.8644,4.387878,-26.4998,4.12674,0.5893044,0.4505432,0.05827916,1.237914,0.09687936,-0.02699024,-0.04483139,-0.01863442,0.5982736,8.976265,28.20043383947939
1,0.01554871,-0.194931,0.9806824,1.0,-0.006164551,-0.1862183,0.9824829,-33.32542,4.818176,-29.65059,4.187347,0.5520313,0.4630556,1.0,0.03552246,-0.2028503,0.9785614,29.8644,4.38118,-26.50308,4.127014,0.5893044,0.4508125,0.05828393,1.237896,0.09693491,-0.02700845,-0.04484336,-0.01851972,0.5982736,8.976265,28.20043383947939
1,0.01554871,-0.194931,0.9806824,1.0,-0.006164551,-0.1862183,0.9824829,-33.32542,4.818176,-29.65059,4.187347,0.5520313,0.4630556,1.0,0.03552246,-0.2028503,0.9785614,29.8644,4.38118,-26.50308,4.127014,0.5893044,0.4508125,0.05828393,1.237896,0.09693491,-0.02700845,-0.04484336,-0.01851972,0.5982736,8.976265,28.20043383947939
1,0.0151062,-0.1956024,0.9805603,1.0,-0.005844116,-0.1867676,0.9823761,-33.32362,4.813553,-29.65059,4.198227,0.5519171,0.463307,1.0,0.03569031,-0.2041931,0.9782715,29.86455,4.362701,-26.50598,4.168365,0.5892818,0.4516979,0.0582298,1.237868,0.09697652,-0.02700321,-0.04488172,-0.01863403,0.5982736,8.976265,28.20043383947939
1,0.0166626,-0.1956787,0.9805145,1.0,-0.0025177,-0.1801453,0.9836273,-33.31989,4.766403,-29.65234,4.17305,0.5512283,0.463751,1.0,0.03593445,-0.2111511,0.9767761,29.8644,4.345871,-26.50598,4.173096,0.5892462,0.4534872,0.05817771,1.237816,0.0969854,-0.02679242,-0.04484502,-0.01864242,0.5982736,8.976265,28.20043383947939
1,0.02137756,-0.1979828,0.9799652,1.0,0.007980347,-0.1850586,0.9826813,-33.31856,4.754822,-29.65691,4.195786,0.5494303,0.4650359,1.0,0.03594971,-0.2119751,0.9766083,29.86435,4.345871,-26.50598,4.173187,0.5892462,0.4536385,0.05814326,1.237797,0.09700626,-0.02654321,-0.04492104,-0.01880081,0.5982736,8.976265,28.20043383947939
1,0.02290344,-0.2047119,0.9785461,1.0,-0.003768921,-0.1877441,0.9822083,-33.31761,4.757034,-29.65024,4.209,0.5513607,0.4653804,1.0,0.05111694,-0.2224579,0.973587,29.80266,4.322678,-26.46069,4.217484,0.588789,0.4558836,0.05811036,1.237726,0.09700346,-0.02628256,-0.04493962,-0.01870705,0.5982736,8.976265,28.20043383947939
2,0.02203369,-0.199234,0.9796906,1.0,-0.004318237,-0.1854706,0.9826355,-33.32092,4.751099,-29.65968,4.163956,0.5515659,0.4652601,1.0,0.05122375,-0.2142639,0.9754181,29.79662,4.316254,-26.46912,4.150925,0.5889567,0.4547383,0.05809915,1.237687,0.0970304,-0.02604221,-0.04494525,-0.01867117,0.5982736,8.976265,28.20043383947939
2,0.02203369,-0.199234,0.9796906,1.0,-0.004318237,-0.1854706,0.9826355,-33.32092,4.751099,-29.65968,4.163956,0.5515659,0.4652601,1.0,0.05122375,-0.2142639,0.9754181,29.79662,4.316254,-26.46912,4.150925,0.5889567,0.4547383,0.05809915,1.237687,0.0970304,-0.02604221,-0.04494525,-0.01867117,0.5982736,8.976265,28.20043383947939
2,0.01960754,-0.1955872,0.980484,1.0,-0.003570557,-0.1764374,0.9842987,-33.30403,4.764938,-29.64575,4.248154,0.5508691,0.4630986,1.0,0.0475769,-0.2184296,0.9746857,29.78915,4.321121,-26.46158,4.24295,0.5898384,0.455238,0.05794871,1.237689,0.09711409,-0.02597317,-0.04487176,-0.01863642,0.5982736,-4.593147,28.20043383947939
2,0.01560974,-0.1941071,0.9808502,0.9748888,0.001998901,-0.1800079,0.9836578,-33.33055,4.765778,-29.66055,4.288132,0.5508541,0.4638319,0.6365304,0.03187561,-0.2108917,0.9769745,29.90089,4.328735,-26.51088,4.275589,0.5887111,0.4540537,0.05786932,1.23769,0.09721923,-0.0260465,-0.04500605,-0.01877821,0.5982736,-4.593147,28.20043383947939
2,0.01512146,-0.188797,0.9818878,0.9345671,0.0009307861,-0.1697388,0.9854736,-33.32109,4.771973,-29.6342,4.305771,0.5506973,0.4615864,0.6382534,0.03189087,-0.2111816,0.9769135,29.9016,4.330704,-26.51065,4.298523,0.5886914,0.4540433,0.05775404,1.237669,0.09726965,-0.0263638,-0.04505106,-0.01868912,0.5982736,-4.593147,28.20043383947939
2,0.01190186,-0.192215,0.9812775,0.9372353,-0.005126953,-0.1766815,0.9842529,-33.32318,4.767624,-29.63582,4.35878,0.5517904,0.4629801,0.6091644,0.03193665,-0.2103424,0.9770966,29.90138,4.330841,-26.51065,4.298691,0.5886914,0.453895,0.05764687,1.237666,0.09728992,-0.02648054,-0.04519207,-0.01878931,0.5982736,-4.593147,28.20043383947939
2,0.01190186,-0.192215,0.9812775,0.9372353,-0.005126953,-0.1766815,0.9842529,-33.32318,4.767624,-29.63582,4.35878,0.5517904,0.4629801,0.6091644,0.03193665,-0.2103424,0.9770966,29.90138,4.330841,-26.51065,4.298691,0.5886914,0.453895,0.05764687,1.237666,0.09728992,-0.02648054,-0.04519207,-0.01878931,0.5982736,-4.593147,28.20043383947939
2,0.01116943,-0.1916809,0.9813843,0.9372353,-0.005203247,-0.1755524,0.9844513,-33.32753,4.767029,-29.63487,4.36348,0.5519493,0.4627874,0.6091644,0.03067017,-0.2107697,0.9770508,29.90041,4.330765,-26.51085,4.293655,0.5889331,0.4539691,0.05754697,1.237693,0.0973466,-0.02677378,-0.04536945,-0.01913352,0.5982736,-4.593147,28.20043383947939
2,0.01147461,-0.1946259,0.9808044,0.8874972,-0.004211426,-0.1828613,0.9831238,-33.31067,4.771179,-29.64459,4.356003,0.5512173,0.4640111,0.5776095,0.03091431,-0.2090912,0.9774017,29.89922,4.330765,-26.51013,4.305374,0.5889331,0.4536712,0.05715227,1.237784,0.09747362,-0.02683021,-0.04556985,-0.02031985,0.5982736,-4.593147,28.20043383947939
2,0.007354736,-0.1915283,0.9814453,0.8607213,-0.0113678,-0.1813507,0.9833374,-33.32646,4.755173,-29.62648,4.439087,0.5529416,0.4641407,0.5433551,0.02949524,-0.203476,0.9786224,29.89786,4.332047,-26.50902,4.356567,0.5892262,0.4526386,0.05691707,1.237766,0.0974558,-0.02651849,-0.04571806,-0.02102624,0.5982736,-4.593147,28.20043383947939
2,0.007354736,-0.1915283,0.9814453,0.8607213,-0.0113678,-0.1813507,0.9833374,-33.32646,4.755173,-29.62648,4.439087,0.5529416,0.4641407,0.5433551,0.02949524,-0.203476,0.9786224,29.89786,4.332047,-26.50902,4.356567,0.5892262,0.4526386,0.05691707,1.237766,0.0974558,-0.02651849,-0.04571806,-0.02102624,0.5982736,-4.593147,28.20043383947939
2,0.007537842,-0.1950073,0.9807587,0.8311349,-0.005950928,-0.1900024,0.9817505,-33.33211,4.735962,-29.63414,4.345612,0.552224,0.4663631,0.4931954,0.02336121,-0.2008057,0.9793396,29.87088,4.26059,-26.52081,4.428894,0.59117,0.4546762,0.05629706,1.237636,0.0973922,-0.0257895,-0.04574983,-0.02201669,0.5982736,-4.593147,28.20043383947939
2,-0.004852295,-0.1984406,0.9800873,0.7819422,-0.02410889,-0.1974487,0.980011,-33.33284,4.72612,-29.63214,4.270065,0.5552652,0.4680007,0.4627125,0.01504517,-0.1994019,0.9797974,29.8846,4.286865,-26.51663,4.491028,0.5920994,0.4535192,0.05601239,1.237567,0.09725142,-0.02534334,-0.04583687,-0.0223402,0.5982736,-4.593147,28.20043383947939
2,-0.001983643,-0.197937,0.9802094,0.7492505,-0.01800537,-0.193161,0.9809875,-33.33632,4.702744,-29.63919,4.470627,0.5543888,0.4681086,0.4756388,0.01509094,-0.2029572,0.9790649,29.87947,4.274826,-26.51797,4.466095,0.5922604,0.4545522,0.05564535,1.237461,0.0971818,-0.02507973,-0.0457959,-0.02246989,0.5982736,-4.593147,28.20043383947939
2,-0.001983643,-0.197937,0.9802094,0.7492505,-0.01800537,-0.193161,0.9809875,-33.33632,4.702744,-29.63919,4.470627,0.5543888,0.4681086,0.4756388,0.01509094,-0.2029572,0.9790649,29.87947,4.274826,-26.51797,4.466095,0.5922604,0.4545522,0.05564535,1.237461,0.0971818,-0.02507973,-0.0457959,-0.02246989,0.5982736,-4.593147,28.20043383947939
2,0.03433228,-0.2821808,0.9587402,0.7418844,-0.0269165,-0.2219086,0.9746857,-33.35637,4.604996,-29.69026,4.321625,0.5565693,0.4769537,0.4254437,0.09689331,-0.3417511,0.9347687,29.35388,4.603836,-26.39442,4.481796,0.5966366,0.4673221,0.05496228,1.237459,0.09717906,-0.02506428,-0.04579654,-0.02247122,0.5982736,-4.593147,28.20043383947939
2,-0.02227783,-0.2580109,0.9658813,0.6819246,-0.04956055,-0.274292,0.9603577,-33.39246,4.443054,-29.72748,4.302612,0.561596,0.492167,0.458942,0.01513672,-0.2352753,0.9718018,29.58772,3.774872,-26.67007,4.427872,0.6022118,0.4784005,0.05496228,1.237459,0.09717906,-0.02506428,-0.04579654,-0.02247122,0.5982736,-4.593147,28.20043383947939
2,-0.04244995,-0.2570648,0.9654541,0.6819246,-0.05622864,-0.2695923,0.961319,-33.4234,4.381165,-29.74629,4.420547,0.5637703,0.4936097,0.458942,0.003646851,-0.2145538,0.9766998,29.5322,3.663467,-26.69846,4.452606,0.6060153,0.4787663,0.05426693,1.237429,0.09711051,-0.02503215,-0.04584013,-0.02211562,0.5982736,-4.593147,28.20043383947939
2,-0.03926086,-0.2660522,0.96315,0.6955722,-0.04745483,-0.2749939,0.9602661,-33.42398,4.377579,-29.74632,4.369492,0.5623284,0.4946703,0.4534651,0.004501343,-0.2175751,0.9760284,29.53633,3.661697,-26.69972,4.476532,0.6057402,0.4793674,0.05353129,1.237409,0.09701836,-0.0246449,-0.04585654,-0.02124094,0.5982736,3.465405,28.20043383947939
2,-0.03926086,-0.2660522,0.96315,0.6955722,-0.04745483,-0.2749939,0.9602661,-33.42398,4.377579,-29.74632,4.369492,0.5623284,0.4946703,0.4534651,0.004501343,-0.2175751,0.9760284,29.53633,3.661697,-26.69972,4.476532,0.6057402,0.4793674,0.05353129,1.237409,0.09701836,-0.0246449,-0.04585654,-0.02124094,0.5982736,3.465405,28.20043383947939
2,-0.04493713,-0.2696838,0.9618988,0.7057028,-0.05126953,-0.2737427,0.9604187,-33.42941,4.369156,-29.74817,4.43631,0.5631517,0.49476,0.4537262,0.00177002,-0.2392426,0.9709473,29.54111,3.675339,-26.6973,4.453094,0.606043,0.4827028,0.05277717,1.237376,0.09688723,-0.02418225,-0.04598634,-0.01969763,0.5982736,3.465405,28.20043383947939
2,-0.04493713,-0.2696838,0.9618988,0.7057028,-0.05126953,-0.2737427,0.9604187,-33.42941,4.369156,-29.74817,4.43631,0.5631517,0.49476,0.4537262,0.00177002,-0.2392426,0.9709473,29.54111,3.675339,-26.6973,4.453094,0.606043,0.4827028,0.05277717,1.237376,0.09688723,-0.02418225,-0.04598634,-0.01969763,0.5982736,3.465405,28.20043383947939
2,-0.03511047,-0.2687378,0.9625702,0.7190266,-0.05244446,-0.2774506,0.9592896,-33.44405,4.359268,-29.74667,4.455887,0.5638461,0.4957497,0.4525763,-0.0006713867,-0.2511292,0.9679413,29.54263,3.68721,-26.69638,4.470108,0.6064126,0.4844046,0.05214632,1.237498,0.09682512,-0.02393637,-0.04665482,-0.01781307,0.5982736,3.465405,28.20043383947939
2,-0.03511047,-0.2687378,0.9625702,0.7190266,-0.05244446,-0.2774506,0.9592896,-33.44405,4.359268,-29.74667,4.455887,0.5638461,0.4957497,0.4525763,-0.0006713867,-0.2511292,0.9679413,29.54263,3.68721,-26.69638,4.470108,0.6064126,0.4844046,0.05214632,1.237498,0.09682512,-0.02393637,-0.04665482,-0.01781307,0.5982736,3.465405,28.20043383947939
2,-0.02642822,-0.2671967,0.9632721,0.717951,-0.05157471,-0.2778778,0.9592285,-33.45383,4.358521,-29.74602,4.455734,0.5640358,0.4958454,0.4508967,4.577637e-05,-0.2557373,0.9667358,29.54279,3.699677,-26.69612,4.454269,0.6062905,0.4847936,0.05124891,1.237535,0.09666038,-0.02387403,-0.0478201,-0.01639837,0.5982736,3.465405,28.20043383947939
2,-0.02642822,-0.2671967,0.9632721,0.717951,-0.05157471,-0.2778778,0.9592285,-33.45383,4.358521,-29.74602,4.455734,0.5640358,0.4958454,0.4508967,4.577637e-05,-0.2557373,0.9667358,29.54279,3.699677,-26.69612,4.454269,0.6062905,0.4847936,0.05124891,1.237535,0.09666038,-0.02387403,-0.0478201,-0.01639837,0.5982736,3.465405,28.20043383947939
2,-0.0259552,-0.2713776,0.9621124,0.7079176,-0.04933167,-0.27771,0.9593811,-33.46625,4.356796,-29.74397,4.464325,0.564084,0.4958466,0.4582831,-0.002151489,-0.2647705,0.9642944,29.55551,3.741562,-26.69626,4.456848,0.6062383,0.4849824,0.05043018,1.237528,0.09649515,-0.02374636,-0.04917268,-0.01505479,0.5982736,3.465405,28.20043383947939
2,-0.0259552,-0.2713776,0.9621124,0.7079176,-0.04933167,-0.27771,0.9593811,-33.46625,4.356796,-29.74397,4.464325,0.564084,0.4958466,0.4582831,-0.002151489,-0.2647705,0.9642944,29.55551,3.741562,-26.69626,4.456848,0.6062383,0.4849824,0.05043018,1.237528,0.09649515,-0.02374636,-0.04917268,-0.01505479,0.5982736,3.465405,28.20043383947939
2,-0.0259552,-0.2713776,0.9621124,0.7079176,-0.04933167,-0.27771,0.9593811,-33.46625,4.356796,-29.74397,4.464325,0.564084,0.4958466,0.4582831,-0.002151489,-0.2647705,0.9642944,29.55551,3.741562,-26.69626,4.456848,0.6062383,0.4849824,0.0497061,1.237546,0.09634835,-0.02363282,-0.05057705,-0.01343051,0.5982736,3.465405,28.20043383947939
2,-0.0259552,-0.2713776,0.9621124,0.7079176,-0.04933167,-0.27771,0.9593811,-33.46625,4.356796,-29.74397,4.464325,0.564084,0.4958466,0.4582831,-0.002151489,-0.2647705,0.9642944,29.55551,3.741562,-26.69626,4.456848,0.6062383,0.4849824,0.0497061,1.237546,0.09634835,-0.02363282,-0.05057705,-0.01343051,0.5982736,3.465405,28.20043383947939
2,-0.0259552,-0.2713776,0.9621124,0.7079176,-0.04933167,-0.27771,0.9593811,-33.46625,4.356796,-29.74397,4.464325,0.564084,0.4958466,0.4582831,-0.002151489,-0.2647705,0.9642944,29.55551,3.741562,-26.69626,4.456848,0.6062383,0.4849824,0.048931,1.237472,0.09620696,-0.02340219,-0.05218688,-0.01231217,0.5982736,3.465405,28.20043383947939
2,-0.0259552,-0.2713776,0.9621124,0.7079176,-0.04933167,-0.27771,0.9593811,-33.46625,4.356796,-29.74397,4.464325,0.564084,0.4958466,0.4582831,-0.002151489,-0.2647705,0.9642944,29.55551,3.741562,-26.69626,4.456848,0.6062383,0.4849824,0.048931,1.237472,0.09620696,-0.02340219,-0.05218688,-0.01231217,0.5982736,3.465405,28.20043383947939
2,-0.0266571,-0.2724915,0.9617767,0.71168,-0.04904175,-0.2781372,0.9592743,-33.47223,4.355988,-29.74565,4.469986,0.5642412,0.4959641,0.4653176,-0.003417969,-0.2664642,0.9638214,29.55667,3.741791,-26.6967,4.469589,0.6064126,0.4852819,0.04830182,1.237374,0.09604108,-0.02326008,-0.05396309,-0.01183138,0.5982736,11.38634,28.20043383947939
2,-0.0266571,-0.2724915,0.9617767,0.71168,-0.04904175,-0.2781372,0.9592743,-33.47223,4.355988,-29.74565,4.469986,0.5642412,0.4959641,0.4653176,-0.003417969,-0.2664642,0.9638214,29.55667,3.741791,-26.6967,4.469589,0.6064126,0.4852819,0.04830182,1.237374,0.09604108,-0.02326008,-0.05396309,-0.01183138,0.5982736,11.38634,28.20043383947939
2,-0.02470398,-0.2703247,0.9624481,0.7070165,-0.0447998,-0.2734833,0.9608307,-33.59076,4.30217,-29.763,4.430618,0.5675862,0.4971176,0.4500776,-0.006271362,-0.267334,0.9635773,29.55667,3.741791,-26.6967,4.478775,0.6068888,0.4854372,0.04765332,1.237295,0.09594202,-0.02301665,-0.05565817,-0.01135582,0.5982736,11.38634,28.20043383947939
2,-0.02470398,-0.2703247,0.9624481,0.7070165,-0.0447998,-0.2734833,0.9608307,-33.59076,4.30217,-29.763,4.430618,0.5675862,0.4971176,0.4500776,-0.006271362,-0.267334,0.9635773,29.55667,3.741791,-26.6967,4.478775,0.6068888,0.4854372,0.04765332,1.237295,0.09594202,-0.02301665,-0.05565817,-0.01135582,0.5982736,11.38634,28.20043383947939
2,-0.02801514,-0.2713318,0.9620667,0.7056854,-0.04495239,-0.2763977,0.9599762,-33.63728,4.294098,-29.75757,4.440842,0.569197,0.4978653,0.4638701,-0.01197815,-0.266449,0.9637604,29.55667,3.737625,-26.70216,4.561356,0.6078504,0.4854724,0.04709578,1.23719,0.09583986,-0.02275687,-0.05721414,-0.01085122,0.5982736,11.38634,28.20043383947939
2,-0.02801514,-0.2713318,0.9620667,0.7056854,-0.04495239,-0.2763977,0.9599762,-33.63728,4.294098,-29.75757,4.440842,0.569197,0.4978653,0.4638701,-0.01197815,-0.266449,0.9637604,29.55667,3.737625,-26.70216,4.561356,0.6078504,0.4854724,0.04709578,1.23719,0.09583986,-0.02275687,-0.05721414,-0.01085122,0.5982736,11.38634,28.20043383947939
2,-0.03295898,-0.2667084,0.9631958,0.7222015,-0.05197144,-0.2682343,0.9619446,-33.6691,4.270096,-29.76213,4.411957,0.5714509,0.4972774,0.4358599,-0.01376343,-0.2650757,0.9641266,29.53397,3.734253,-26.71175,4.601379,0.6089343,0.4854383,0.04661334,1.237067,0.09584451,-0.0225113,-0.0584226,-0.0102073,0.5982736,11.38634,28.20043383947939
2,-0.03295898,-0.2667084,0.9631958,0.7222015,-0.05197144,-0.2682343,0.9619446,-33.6691,4.270096,-29.76213,4.411957,0.5714509,0.4972774,0.4358599,-0.01376343,-0.2650757,0.9641266,29.53397,3.734253,-26.71175,4.601379,0.6089343,0.4854383,0.04661334,1.237067,0.09584451,-0.0225113,-0.0584226,-0.0102073,0.5982736,11.38634,28.20043383947939
2,-0.03109741,-0.2695923,0.9624634,0.7096096,-0.04821777,-0.2750092,0.9602203,-33.71132,4.253601,-29.7802,4.493652,0.5722885,0.499209,0.4246221,-0.01535034,-0.2645416,0.9642487,29.51323,3.73175,-26.71289,4.609848,0.6099042,0.4854383,0.0461458,1.23701,0.0957005,-0.02217383,-0.05938417,-0.009876386,0.5982736,11.38634,28.20043383947939
2,-0.03109741,-0.2695923,0.9624634,0.7096096,-0.04821777,-0.2750092,0.9602203,-33.71132,4.253601,-29.7802,4.493652,0.5722885,0.499209,0.4246221,-0.01535034,-0.2645416,0.9642487,29.51323,3.73175,-26.71289,4.609848,0.6099042,0.4854383,0.0461458,1.23701,0.0957005,-0.02217383,-0.05938417,-0.009876386,0.5982736,11.38634,28.20043383947939
2,-0.03161621,-0.2736053,0.9613037,0.7187635,-0.05099487,-0.2869568,0.9565735,-33.74182,4.234039,-29.79039,4.498917,0.5738063,0.5021236,0.4197599,-0.01541138,-0.2623444,0.9648438,29.49753,3.731445,-26.7166,4.627014,0.6104537,0.4850917,0.04575574,1.236957,0.09564602,-0.02171789,-0.06008625,-0.009401,0.5982736,11.38634,28.20043383947939
2,-0.03161621,-0.2736053,0.9613037,0.7187635,-0.05099487,-0.2869568,0.9565735,-33.74182,4.234039,-29.79039,4.498917,0.5738063,0.5021236,0.4197599,-0.01541138,-0.2623444,0.9648438,29.49753,3.731445,-26.7166,4.627014,0.6104537,0.4850917,0.04575574,1.236957,0.09564602,-0.02171789,-0.06008625,-0.009401,0.5982736,11.38634,28.20043383947939
2,-0.03604126,-0.2663574,0.9631958,0.7280177,-0.05265808,-0.2731628,0.9605103,-33.77219,4.218231,-29.78964,4.49913,0.5751109,0.5001861,0.4262585,-0.02172852,-0.2604065,0.9652405,29.47133,3.725357,-26.73065,4.647247,0.6124057,0.4850917,0.04547918,1.236888,0.09550631,-0.02147258,-0.06051069,-0.008770393,0.5982736,11.38634,28.20043383947939
2,-0.03604126,-0.2663574,0.9631958,0.7280177,-0.05265808,-0.2731628,0.9605103,-33.77219,4.218231,-29.78964,4.49913,0.5751109,0.5001861,0.4262585,-0.02172852,-0.2604065,0.9652405,29.47133,3.725357,-26.73065,4.647247,0.6124057,0.4850917,0.04547918,1.236888,0.09550631,-0.02147258,-0.06051069,-0.008770393,0.5982736,11.38634,28.20043383947939
2,-0.04093933,-0.266983,0.9628296,0.7323736,-0.05233765,-0.2763977,0.95961,-33.77817,4.219421,-29.78171,4.531967,0.5752589,0.5006437,0.4205647,-0.02893066,-0.2570038,0.9659729,29.45203,3.724533,-26.73824,4.650558,0.6142622,0.4845991,0.04529595,1.236756,0.09542757,-0.02131272,-0.06079261,-0.008477517,0.5982736,11.38634,28.20043383947939
2,-0.04093933,-0.266983,0.9628296,0.7323736,-0.05233765,-0.2763977,0.95961,-33.77817,4.219421,-29.78171,4.531967,0.5752589,0.5006437,0.4205647,-0.02893066,-0.2570038,0.9659729,29.45203,3.724533,-26.73824,4.650558,0.6142622,0.4845991,0.04529595,1.236756,0.09542757,-0.02131272,-0.06079261,-0.008477517,0.5982736,11.38634,28.20043383947939
2,-0.04443359,-0.2642975,0.9634094,0.7436811,-0.0597229,-0.2744293,0.9597473,-33.78087,4.216263,-29.7747,4.55069,0.5765774,0.5003592,0.3956214,-0.0302124,-0.2548065,0.966507,29.4151,3.711426,-26.73979,4.646118,0.6157304,0.4846686,0.04516375,1.236781,0.09533739,-0.02115306,-0.06060542,-0.00849946,0.5982736,9.347664,28.20043383947939
2,-0.04443359,-0.2642975,0.9634094,0.7436811,-0.0597229,-0.2744293,0.9597473,-33.78087,4.216263,-29.7747,4.55069,0.5765774,0.5003592,0.3956214,-0.0302124,-0.2548065,0.966507,29.4151,3.711426,-26.73979,4.646118,0.6157304,0.4846686,0.04516375,1.236781,0.09533739,-0.02115306,-0.06060542,-0.00849946,0.5982736,9.347664,28.20043383947939
2,-0.05070496,-0.2666931,0.9624329,0.7371055,-0.07084656,-0.2779083,0.9579773,-33.78233,4.214203,-29.77631,4.575638,0.5784817,0.5011013,0.4392924,-0.03233337,-0.2563629,0.9660339,29.40395,3.701279,-26.74496,4.645203,0.616467,0.4853356,0.04510069,1.236828,0.09532392,-0.02143716,-0.06042222,-0.008541433,0.5982736,9.347664,28.20043383947939
2,-0.05070496,-0.2666931,0.9624329,0.7371055,-0.07084656,-0.2779083,0.9579773,-33.78233,4.214203,-29.77631,4.575638,0.5784817,0.5011013,0.4392924,-0.03233337,-0.2563629,0.9660339,29.40395,3.701279,-26.74496,4.645203,0.616467,0.4853356,0.04510069,1.236828,0.09532392,-0.02143716,-0.06042222,-0.008541433,0.5982736,9.347664,28.20043383947939
2,-0.05249023,-0.2680511,0.9619598,0.7577205,-0.07131958,-0.2784119,0.9577942,-33.78661,4.209717,-29.77808,4.638306,0.5787094,0.5013634,0.4265749,-0.03224182,-0.2567902,0.9659271,29.38927,3.6884,-26.75426,4.612793,0.6169569,0.4859341,0.04512799,1.236895,0.09531718,-0.0218349,-0.06001901,-0.008794994,0.5982736,9.347664,28.20043383947939
2,-0.05249023,-0.2680511,0.9619598,0.7577205,-0.07131958,-0.2784119,0.9577942,-33.78661,4.209717,-29.77808,4.638306,0.5787094,0.5013634,0.4265749,-0.03224182,-0.2567902,0.9659271,29.38927,3.6884,-26.75426,4.612793,0.6169569,0.4859341,0.04512799,1.236895,0.09531718,-0.0218349,-0.06001901,-0.008794994,0.5982736,9.347664,28.20043383947939
2,-0.05249023,-0.2680511,0.9619598,0.7577205,-0.07131958,-0.2784119,0.9577942,-33.78661,4.209717,-29.77808,4.638306,0.5787094,0.5013634,0.4265749,-0.03224182,-0.2567902,0.9659271,29.38927,3.6884,-26.75426,4.612793,0.6169569,0.4859341,0.04521573,1.23699,0.09531134,-0.02199062,-0.05980287,-0.00922984,0.5982736,9.347664,28.20043383947939
2,-0.05249023,-0.2680511,0.9619598,0.7577205,-0.07131958,-0.2784119,0.9577942,-33.78661,4.209717,-29.77808,4.638306,0.5787094,0.5013634,0.4265749,-0.03224182,-0.2567902,0.9659271,29.38927,3.6884,-26.75426,4.612793,0.6169569,0.4859341,0.04521573,1.23699,0.09531134,-0.02199062,-0.05980287,-0.00922984,0.5982736,9.347664,28.20043383947939
2,-0.05249023,-0.2680511,0.9619598,0.7577205,-0.07131958,-0.2784119,0.9577942,-33.78661,4.209717,-29.77808,4.638306,0.5787094,0.5013634,0.4265749,-0.03224182,-0.2567902,0.9659271,29.38927,3.6884,-26.75426,4.612793,0.6169569,0.4859341,0.04528618,1.237015,0.09528726,-0.02213078,-0.0592377,-0.009458678,0.5982736,9.347664,28.20043383947939
2,-0.05249023,-0.2680511,0.9619598,0.7577205,-0.07131958,-0.2784119,0.9577942,-33.78661,4.209717,-29.77808,4.638306,0.5787094,0.5013634,0.4265749,-0.03224182,-0.2567902,0.9659271,29.38927,3.6884,-26.75426,4.612793,0.6169569,0.4859341,0.04528618,1.237015,0.09528726,-0.02213078,-0.0592377,-0.009458678,0.5982736,9.347664,28.20043383947939
2,-0.05265808,-0.2676544,0.9620667,0.7577205,-0.07073975,-0.2765656,0.958374,-33.78987,4.207672,-29.77878,4.656647,0.5787245,0.5011013,0.4265749,-0.03163147,-0.2571716,0.9658356,29.38313,3.68811,-26.75507,4.600601,0.6170641,0.4860217,0.04541254,1.237035,0.0953232,-0.02212876,-0.05877606,-0.009829503,0.5982736,9.347664,28.20043383947939
2,-0.05265808,-0.2676544,0.9620667,0.7577205,-0.07073975,-0.2765656,0.958374,-33.78987,4.207672,-29.77878,4.656647,0.5787245,0.5011013,0.4265749,-0.03163147,-0.2571716,0.9658356,29.38313,3.68811,-26.75507,4.600601,0.6170641,0.4860217,0.04541254,1.237035,0.0953232,-0.02212876,-0.05877606,-0.009829503,0.5982736,9.347664,28.20043383947939
2,-0.05184937,-0.2671814,0.9622345,0.7382627,-0.0697937,-0.2762756,0.9585266,-33.79503,4.206345,-29.77878,4.660278,0.5787439,0.5011013,0.4280259,-0.03082275,-0.2563782,0.9660797,29.37494,3.684555,-26.75758,4.60051,0.6172124,0.4860217,0.04553235,1.237032,0.09534037,-0.02213516,-0.0585982,-0.009997104,0.5982736,9.347664,28.20043383947939
2,-0.05184937,-0.2671814,0.9622345,0.7382627,-0.0697937,-0.2762756,0.9585266,-33.79503,4.206345,-29.77878,4.660278,0.5787439,0.5011013,0.4280259,-0.03082275,-0.2563782,0.9660797,29.37494,3.684555,-26.75758,4.60051,0.6172124,0.4860217,0.04574025,1.237026,0.09543395,-0.02206571,-0.0580607,-0.01038602,0.5982736,9.347664,28.20043383947939
2,-0.05184937,-0.2671814,0.9622345,0.7382627,-0.0697937,-0.2762756,0.9585266,-33.79503,4.206345,-29.77878,4.660278,0.5787439,0.5011013,0.4280259,-0.03082275,-0.2563782,0.9660797,29.37494,3.684555,-26.75758,4.60051,0.6172124,0.4860217,0.04574025,1.237026,0.09543395,-0.02206571,-0.0580607,-0.01038602,0.5982736,9.347664,28.20043383947939
2,-0.05184937,-0.2671814,0.9622345,0.7382627,-0.0697937,-0.2762756,0.9585266,-33.79503,4.206345,-29.77878,4.660278,0.5787439,0.5011013,0.4280259,-0.03082275,-0.2563782,0.9660797,29.37494,3.684555,-26.75758,4.60051,0.6172124,0.4860217,0.04580939,1.236977,0.09546125,-0.02211798,-0.05770195,-0.0106726,0.5982736,9.347664,28.20043383947939
2,-0.05184937,-0.2671814,0.9622345,0.7382627,-0.0697937,-0.2762756,0.9585266,-33.79503,4.206345,-29.77878,4.660278,0.5787439,0.5011013,0.4280259,-0.03082275,-0.2563782,0.9660797,29.37494,3.684555,-26.75758,4.60051,0.6172124,0.4860217,0.04580939,1.236977,0.09546125,-0.02211798,-0.05770195,-0.0106726,0.5982736,9.347664,28.20043383947939
2,-0.05026245,-0.2750092,0.9601135,0.6952087,-0.078125,-0.2926025,0.9530334,-33.79851,4.192932,-29.78603,4.761566,0.5802631,0.5045718,0.3566535,-0.01889038,-0.2548676,0.9667816,29.41159,3.630081,-26.7877,4.680618,0.6140206,0.4878358,0.04612529,1.236825,0.09547371,-0.02180861,-0.05723549,-0.01096596,0.5982736,-8.464272,28.20043383947939
2,-0.05026245,-0.2750092,0.9601135,0.6952087,-0.078125,-0.2926025,0.9530334,-33.79851,4.192932,-29.78603,4.761566,0.5802631,0.5045718,0.3566535,-0.01889038,-0.2548676,0.9667816,29.41159,3.630081,-26.7877,4.680618,0.6140206,0.4878358,0.04612529,1.236825,0.09547371,-0.02180861,-0.05723549,-0.01096596,0.5982736,-8.464272,28.20043383947939
2,-0.04200745,-0.2424927,0.9692383,0.6952087,-0.05825806,-0.2807922,0.9579926,-33.72017,4.376678,-29.72211,4.722092,0.5742324,0.495553,0.3566535,-0.02235413,-0.1958618,0.9803619,29.43576,3.72403,-26.76637,4.977005,0.6137779,0.4741591,0.04636443,1.236711,0.09547734,-0.02147744,-0.05677937,-0.01178216,0.5982736,-8.464272,28.20043383947939
2,-0.04200745,-0.2424927,0.9692383,0.6952087,-0.05825806,-0.2807922,0.9579926,-33.72017,4.376678,-29.72211,4.722092,0.5742324,0.495553,0.3566535,-0.02235413,-0.1958618,0.9803619,29.43576,3.72403,-26.76637,4.977005,0.6137779,0.4741591,0.04655409,1.236696,0.09554505,-0.02141108,-0.05653305,-0.01207016,0.5982736,-8.464272,28.20043383947939
2,-0.04200745,-0.2424927,0.9692383,0.6952087,-0.05825806,-0.2807922,0.9579926,-33.72017,4.376678,-29.72211,4.722092,0.5742324,0.495553,0.3566535,-0.02235413,-0.1958618,0.9803619,29.43576,3.72403,-26.76637,4.977005,0.6137779,0.4741591,0.04655409,1.236696,0.09554505,-0.02141108,-0.05653305,-0.01207016,0.5982736,-8.464272,28.20043383947939
2,-0.04200745,-0.2424927,0.9692383,0.6952087,-0.05825806,-0.2807922,0.9579926,-33.72017,4.376678,-29.72211,4.722092,0.5742324,0.495553,0.3566535,-0.02235413,-0.1958618,0.9803619,29.43576,3.72403,-26.76637,4.977005,0.6137779,0.4741591,0.04693353,1.236754,0.09584832,-0.02205895,-0.05615965,-0.01236049,0.5982736,-8.464272,28.20043383947939
2,-0.04200745,-0.2424927,0.9692383,0.6952087,-0.05825806,-0.2807922,0.9579926,-33.72017,4.376678,-29.72211,4.722092,0.5742324,0.495553,0.3566535,-0.02235413,-0.1958618,0.9803619,29.43576,3.72403,-26.76637,4.977005,0.6137779,0.4741591,0.04709518,1.236772,0.09595156,-0.02241445,-0.05608569,-0.01240921,0.5982736,-8.464272,28.20043383947939
2,-0.04200745,-0.2424927,0.9692383,0.6952087,-0.05825806,-0.2807922,0.9579926,-33.72017,4.376678,-29.72211,4.722092,0.5742324,0.495553,0.3566535,-0.02235413,-0.1958618,0.9803619,29.43576,3.72403,-26.76637,4.977005,0.6137779,0.4741591,0.04709518,1.236772,0.09595156,-0.02241445,-0.05608569,-0.01240921,0.5982736,-8.464272,28.20043383947939
2,-0.01123047,-0.2061768,0.9784393,0.646874,-0.03546143,-0.2066193,0.9777679,-33.61287,4.783279,-29.61833,4.749344,0.5667292,0.467621,0.3367256,0.01367188,-0.2055969,0.9785309,29.42972,4.336197,-26.48726,4.755753,0.6078081,0.4527455,0.04733908,1.236653,0.09608686,-0.02204544,-0.05583312,-0.01247449,0.5982736,-8.464272,28.20043383947939
2,-0.01928711,-0.07113647,0.9972687,0.8345882,-0.03549194,-0.06933594,0.9969482,-33.60228,5.364548,-29.84082,4.86293,0.5666963,0.4260789,0.5851581,0.02940369,-0.07643127,0.9966278,29.49585,4.833862,-26.90285,4.966446,0.6035459,0.4174028,0.04750276,1.236526,0.0961194,-0.02166774,-0.0558083,-0.01251623,0.5982736,-8.464272,29.35
2,-0.02125549,-0.07144165,0.9972076,0.9132122,-0.03063965,-0.0703125,0.9970398,-33.60251,5.215302,-29.46977,4.949417,0.5656191,0.4281524,0.6225389,0.0320282,-0.07771301,0.99646,29.51102,4.768097,-26.7576,5.050507,0.6024853,0.418612,0.0476346,1.236546,0.0962134,-0.02150413,-0.05572386,-0.01239179,0.5982736,-8.464272,29.35
2,-0.009536743,-0.070755,0.9974365,0.9386226,-0.03050232,-0.06730652,0.9972534,-33.60022,5.174011,-29.31071,4.88298,0.5653885,0.427645,0.6915444,0.04067993,-0.07887268,0.996048,29.50908,4.742111,-26.66107,4.857849,0.6009452,0.4188277,0.04780281,1.23657,0.09629977,-0.02162161,-0.05579174,-0.01250432,0.5982736,-8.464272,29.35
2,-0.009536743,-0.070755,0.9974365,0.9386226,-0.03050232,-0.06730652,0.9972534,-33.60022,5.174011,-29.31071,4.88298,0.5653885,0.427645,0.6915444,0.04067993,-0.07887268,0.996048,29.50908,4.742111,-26.66107,4.857849,0.6009452,0.4188277,0.04780281,1.23657,0.09629977,-0.02162161,-0.05579174,-0.01250432,0.5982736,-8.464272,29.35
2,-0.01062012,-0.05819702,0.9982452,0.9884511,-0.03369141,-0.0513916,0.9981079,-33.62022,5.296936,-29.79677,4.968994,0.5669928,0.4249646,0.6736951,0.03137207,-0.07049561,0.9970093,29.51648,4.733093,-26.60751,4.801331,0.6021675,0.4172321,0.04795229,1.236598,0.09640706,-0.0216887,-0.05568922,-0.01247508,0.5982736,-8.464272,29.35
2,-0.01382446,-0.07066345,0.9973907,1.0,-0.03491211,-0.07131958,0.9968414,-33.61345,5.253876,-29.68878,4.907501,0.5668553,0.4288951,1.0,0.03248596,-0.06907654,0.9970703,29.50957,4.737137,-26.68295,4.815552,0.602293,0.4175023,0.04823172,1.236643,0.09655988,-0.02202955,-0.0555432,-0.01289099,0.5982736,-1.713341,29.35
2,0.01620483,-0.06929016,0.9974518,1.0,-0.03956604,-0.07185364,0.9966278,-33.60365,5.233109,-29.75284,4.941406,0.5673355,0.4302565,1.0,0.03337097,-0.06845093,0.9970856,29.50362,4.719879,-26.62668,4.821625,0.602293,0.4175023,0.04838622,1.236617,0.096627,-0.02204949,-0.05552375,-0.01315814,0.5982736,-1.713341,29.35
2,0.01620483,-0.06929016,0.9974518,1.0,-0.03956604,-0.07185364,0.9966278,-33.60365,5.233109,-29.75284,4.941406,0.5673355,0.4302565,1.0,0.03337097,-0.06845093,0.9970856,29.50362,4.719879,-26.62668,4.821625,0.602293,0.4175023,0.04838622,1.236617,0.096627,-0.02204949,-0.05552375,-0.01315814,0.5982736,-1.713341,29.35
2,0.01620483,-0.06929016,0.9974518,1.0,-0.03956604,-0.07185364,0.9966278,-33.60365,5.233109,-29.75284,4.941406,0.5673355,0.4302565,1.0,0.03337097,-0.06845093,0.9970856,29.50362,4.719879,-26.62668,4.821625,0.602293,0.4175023,0.04853356,1.236619,0.09669363,-0.02197164,-0.05554441,-0.01338606,0.5982736,-1.713341,29.35
2,0.01620483,-0.06929016,0.9974518,1.0,-0.03956604,-0.07185364,0.9966278,-33.60365,5.233109,-29.75284,4.941406,0.5673355,0.4302565,1.0,0.03337097,-0.06845093,0.9970856,29.50362,4.719879,-26.62668,4.821625,0.602293,0.4175023,0.04884708,1.236549,0.09679842,-0.02192921,-0.05522491,-0.01365443,0.5982736,-1.713341,29.35
2,0.01620483,-0.06929016,0.9974518,1.0,-0.03956604,-0.07185364,0.9966278,-33.60365,5.233109,-29.75284,4.941406,0.5673355,0.4302565,1.0,0.03337097,-0.06845093,0.9970856,29.50362,4.719879,-26.62668,4.821625,0.602293,0.4175023,0.04900289,1.236522,0.09679103,-0.02191902,-0.05514039,-0.01377286,0.5982736,-1.713341,29.35
2,0.01620483,-0.06929016,0.9974518,1.0,-0.03956604,-0.07185364,0.9966278,-33.60365,5.233109,-29.75284,4.941406,0.5673355,0.4302565,1.0,0.03337097,-0.06845093,0.9970856,29.50362,4.719879,-26.62668,4.821625,0.602293,0.4175023,0.04911363,1.236524,0.0968318,-0.0219078,-0.05493666,-0.01404233,0.5982736,-1.713341,29.35
2,0.01620483,-0.06929016,0.9974518,1.0,-0.03956604,-0.07185364,0.9966278,-33.60365,5.233109,-29.75284,4.941406,0.5673355,0.4302565,1.0,0.03337097,-0.06845093,0.9970856,29.50362,4.719879,-26.62668,4.821625,0.602293,0.4175023,0.04911363,1.236524,0.0968318,-0.0219078,-0.05493666,-0.01404233,0.5982736,-1.713341,29.35
2,0.0353241,-0.07086182,0.9968567,1.0,-0.02934265,-0.06396484,0.9975128,-33.6481,5.024765,-29.44525,4.810165,0.5668837,0.4332854,1.0,0.03787231,-0.07113647,0.9967346,29.46101,4.342926,-25.74934,4.775803,0.6020487,0.4232005,0.04924786,1.236516,0.09690666,-0.02221981,-0.05489188,-0.01425925,0.5982736,-1.713341,29.35
2,-0.03182983,-0.06840515,0.9971466,1.0,-0.03239441,-0.06817627,0.9971313,-33.65262,5.054474,-29.52921,4.834656,0.5676089,0.4337257,1.0,0.03259277,-0.09376526,0.9950562,29.45583,4.326675,-25.69624,4.853729,0.6030253,0.4271739,0.04951143,1.236676,0.09712428,-0.02298523,-0.05457963,-0.01447396,0.5982736,-1.713341,29.35
2,-0.03179932,-0.06759644,0.9971924,1.0,-0.03182983,-0.06758118,0.9971924,-33.65547,5.054474,-29.52412,4.843323,0.5676089,0.4335831,1.0,0.02975464,-0.0914917,0.9953461,29.46382,4.291519,-25.63388,4.807785,0.6031385,0.4274149,0.04959548,1.236698,0.0972178,-0.02342192,-0.05445006,-0.01445645,0.5982736,-1.713341,29.35
3,-0.02809143,-0.07090759,0.9970856,1.0,-0.02822876,-0.07086182,0.9970856,-33.6543,5.068253,-29.62285,4.796356,0.5670326,0.4345151,1.0,0.02629089,-0.0872345,0.9958344,29.46657,4.260971,-25.58449,4.813538,0.6035628,0.4273188,0.04980886,1.236629,0.09731257,-0.0231142,-0.05435433,-0.01462706,0.5982736,-1.713341,29.35
3,-0.02809143,-0.07090759,0.9970856,1.0,-0.02822876,-0.07086182,0.9970856,-33.6543,5.068253,-29.62285,4.796356,0.5670326,0.4345151,1.0,0.02629089,-0.0872345,0.9958344,29.46657,4.260971,-25.58449,4.813538,0.6035628,0.4273188,0.04980886,1.236629,0.09731257,-0.0231142,-0.05435433,-0.01462706,0.5982736,-1.713341,29.35
3,-0.0292511,-0.0753479,0.9967194,1.0,-0.03323364,-0.07447815,0.9966583,-33.63481,5.034866,-29.6002,4.745575,0.5671723,0.436058,1.0,0.02662659,-0.08737183,0.9958038,29.46391,4.252365,-25.56081,4.783096,0.6035628,0.4274149,0.0499078,1.236584,0.09732497,-0.02296188,-0.05407329,-0.01481181,0.5982736,-1.713341,29.35
3,-0.007888794,-0.07922363,0.9968109,1.0,-0.03005981,-0.07383728,0.9968109,-33.63783,4.990219,-29.49219,4.782333,0.5666674,0.4365321,1.0,0.02633667,-0.08744812,0.9958191,29.46524,4.235779,-25.52776,4.784576,0.6035296,0.4276977,0.05004036,1.236565,0.09728479,-0.02260016,-0.05396129,-0.01503349,0.5982736,-1.713341,29.35
3,-0.007888794,-0.07922363,0.9968109,1.0,-0.03005981,-0.07383728,0.9968109,-33.63783,4.990219,-29.49219,4.782333,0.5666674,0.4365321,1.0,0.02633667,-0.08744812,0.9958191,29.46524,4.235779,-25.52776,4.784576,0.6035296,0.4276977,0.05004036,1.236565,0.09728479,-0.02260016,-0.05396129,-0.01503349,0.5982736,-1.713341,29.35
3,-0.00189209,-0.0796051,0.9968109,1.0,-0.03144836,-0.07411194,0.9967499,-33.63501,4.98912,-29.46446,4.784073,0.5667817,0.4363828,1.0,0.02639771,-0.08479309,0.996048,29.46591,4.213867,-25.49698,4.786209,0.6034622,0.4277246,0.05030429,1.236538,0.09739703,-0.02257146,-0.05355619,-0.01539345,0.5982736,-1.713341,29.35
3,-0.0002746582,-0.07785034,0.9969635,1.0,-0.03204346,-0.07331848,0.9967804,-33.62798,5.002228,-29.46536,4.765381,0.5666409,0.4357973,1.0,0.02633667,-0.081604,0.9963074,29.46645,4.201599,-25.48418,4.78154,0.6034374,0.4274933,0.05030429,1.236538,0.09739703,-0.02257146,-0.05355619,-0.01539345,0.5982736,-1.713341,29.35
3,0.002761841,-0.07531738,0.9971466,1.0,-0.02978516,-0.06918335,0.9971466,-33.63574,5.029434,-29.52403,4.716721,0.5665741,0.4346651,1.0,0.02664185,-0.07975769,0.9964447,29.46777,4.184433,-25.45355,4.783188,0.6033103,0.4274933,0.05059063,1.236566,0.09751457,-0.02249309,-0.0530975,-0.01575086,0.5982736,50.72788,29.35
3,0.002761841,-0.07531738,0.9971466,1.0,-0.02978516,-0.06918335,0.9971466,-33.63574,5.029434,-29.52403,4.716721,0.5665741,0.4346651,1.0,0.02664185,-0.07975769,0.9964447,29.46777,4.184433,-25.45355,4.783188,0.6033103,0.4274933,0.05059063,1.236566,0.09751457,-0.02249309,-0.0530975,-0.01575086,0.5982736,50.72788,29.35
3,-0.004089355,-0.08050537,0.9967346,1.0,-0.03184509,-0.07698059,0.996521,-33.60767,5.045029,-29.44611,4.695953,0.5659011,0.4347923,1.0,0.02563477,-0.08422852,0.996109,29.47011,4.184433,-25.36404,4.785461,0.6033103,0.4274933,0.0508461,1.236391,0.0975042,-0.0218867,-0.05264883,-0.01619584,0.5982736,50.72788,29.35
3,-0.007827759,-0.08082581,0.9966888,1.0,-0.03204346,-0.07797241,0.9964294,-33.48663,5.179047,-29.58626,4.657944,0.5619311,0.4316135,1.0,0.02651978,-0.08480835,0.9960327,29.47011,4.184433,-25.35344,4.785873,0.6031504,0.4274933,0.05099058,1.236108,0.09742939,-0.02074765,-0.05198877,-0.01684747,0.5982736,50.72788,29.35
3,-0.007827759,-0.08082581,0.9966888,1.0,-0.03204346,-0.07797241,0.9964294,-33.48663,5.179047,-29.58626,4.657944,0.5619311,0.4316135,1.0,0.02651978,-0.08480835,0.9960327,29.47011,4.184433,-25.35344,4.785873,0.6031504,0.4274933,0.05099058,1.236108,0.09742939,-0.02074765,-0.05198877,-0.01684747,0.5982736,50.72788,29.35
3,0.007598877,-0.04458618,0.9989624,1.0,0.007598877,-0.04458618,0.9989624,-33.21501,5.31543,-29.17258,4.787582,0.545927,0.417752,1.0,0.1435852,-0.01977539,0.9894257,29.52663,3.8582,-22.97096,4.988632,0.5801428,0.4081711,0.05120456,1.236127,0.09754217,-0.02065623,-0.05138189,-0.01744453,0.5982736,50.72788,29.35
3,0.007598877,-0.04458618,0.9989624,1.0,0.007598877,-0.04458618,0.9989624,-33.21501,5.31543,-29.17258,4.787582,0.545927,0.417752,1.0,0.1435852,-0.01977539,0.9894257,29.52663,3.8582,-22.97096,4.988632,0.5801428,0.4081711,0.05120456,1.236127,0.09754217,-0.02065623,-0.05138189,-0.01744453,0.5982736,50.72788,29.35
3,0.05500793,-0.006729126,0.9984589,1.0,0.05500793,-0.006729126,0.9984589,-33.00543,5.48822,-28.80542,4.846466,0.5308639,0.402423,1.0,0.1092224,-0.02310181,0.9937439,30.17958,5.15477,-26.7641,4.710251,0.5669345,0.3963682,0.05133784,1.236277,0.09762931,-0.02118263,-0.05057484,-0.01829263,0.5982736,50.72788,29.35
3,0.05500793,-0.006729126,0.9984589,1.0,0.05500793,-0.006729126,0.9984589,-33.00543,5.48822,-28.80542,4.846466,0.5308639,0.402423,1.0,0.1092224,-0.02310181,0.9937439,30.17958,5.15477,-26.7641,4.710251,0.5669345,0.3963682,0.05133784,1.236277,0.09762931,-0.02118263,-0.05057484,-0.01829263,0.5982736,50.72788,29.35
3,0.04841614,0.006454468,0.9987946,1.0,0.04841614,0.006454468,0.9987946,-32.97592,5.554398,-29.02101,4.770004,0.5310456,0.3997176,1.0,0.1041412,-0.01986694,0.9943542,30.20155,5.146866,-26.70164,4.762909,0.5670071,0.3956002,0.05148351,1.236277,0.09759974,-0.02149651,-0.04975874,-0.01896102,0.5790571,50.72788,29.35
3,0.04841614,0.006454468,0.9987946,1.0,0.04841614,0.006454468,0.9987946,-32.97592,5.554398,-29.02101,4.770004,0.5310456,0.3997176,1.0,0.1041412,-0.01986694,0.9943542,30.20155,5.146866,-26.70164,4.762909,0.5670071,0.3956002,0.05148351,1.236277,0.09759974,-0.02149651,-0.04975874,-0.01896102,0.5790571,50.72788,29.35
3,0.04986572,0.004989624,0.9987335,1.0,0.04986572,0.004989624,0.9987335,-32.96072,5.536606,-29.16249,4.775436,0.5303509,0.4017578,1.0,0.1866302,0.009094238,0.9823761,29.70737,3.707123,-21.95808,4.863297,0.5664765,0.400238,0.05169642,1.236232,0.09757876,-0.02165295,-0.04897865,-0.01932416,0.5790571,50.72788,29.35
3,0.04986572,0.004989624,0.9987335,1.0,0.04986572,0.004989624,0.9987335,-32.96072,5.536606,-29.16249,4.775436,0.5303509,0.4017578,1.0,0.1866302,0.009094238,0.9823761,29.70737,3.707123,-21.95808,4.863297,0.5664765,0.400238,0.05169642,1.236232,0.09757876,-0.02165295,-0.04897865,-0.01932416,0.5790571,50.72788,29.35
3,0.05177307,0.005706787,0.998642,1.0,0.05177307,0.005706787,0.998642,-32.94685,5.553665,-29.39403,4.769394,0.5296593,0.4030095,1.0,0.2404633,0.05891418,0.9688568,29.34488,2.67334,-18.44588,5.07402,0.5669987,0.3984072,0.05182314,1.236343,0.09764719,-0.02207651,-0.0483588,-0.0195804,0.5790571,29.93736,29.35
3,0.05177307,0.005706787,0.998642,1.0,0.05177307,0.005706787,0.998642,-32.94685,5.553665,-29.39403,4.769394,0.5296593,0.4030095,1.0,0.2404633,0.05891418,0.9688568,29.34488,2.67334,-18.44588,5.07402,0.5669987,0.3984072,0.05182314,1.236343,0.09764719,-0.02207651,-0.0483588,-0.0195804,0.5790571,29.93736,29.35
3,0.04762268,0.001235962,0.9988556,1.0,0.04762268,0.001235962,0.9988556,-32.93633,5.476868,-29.19077,4.715454,0.5298811,0.4046358,1.0,0.2375946,0.03933716,0.9705658,29.37357,2.674408,-18.47412,5.020065,0.5665635,0.4015773,0.05190957,1.23641,0.09770691,-0.02256485,-0.04788394,-0.01976258,0.5790571,29.93736,29.35
3,0.04762268,0.001235962,0.9988556,1.0,0.04762268,0.001235962,0.9988556,-32.93633,5.476868,-29.19077,4.715454,0.5298811,0.4046358,1.0,0.2375946,0.03933716,0.9705658,29.37357,2.674408,-18.47412,5.020065,0.5665635,0.4015773,0.05190957,1.23641,0.09770691,-0.02256485,-0.04788394,-0.01976258,0.5790571,29.93736,29.35
3,0.0539856,-0.008544922,0.9985046,1.0,0.0539856,-0.008544922,0.9985046,-32.91249,5.467606,-29.33655,4.626556,0.5280432,0.4078048,1.0,0.2415161,0.02949524,0.9699402,29.38649,2.682175,-18.48329,5.000397,0.5655493,0.4029556,0.05200517,1.236419,0.09771681,-0.02277814,-0.04747782,-0.01986373,0.5790571,29.93736,29.35
3,0.0539856,-0.008544922,0.9985046,1.0,0.0539856,-0.008544922,0.9985046,-32.91249,5.467606,-29.33655,4.626556,0.5280432,0.4078048,1.0,0.2415161,0.02949524,0.9699402,29.38649,2.682175,-18.48329,5.000397,0.5655493,0.4029556,0.05200517,1.236419,0.09771681,-0.02277814,-0.04747782,-0.01986373,0.5790571,29.93736,29.35
3,0.0632019,-0.007522583,0.9979706,1.0,0.0632019,-0.007522583,0.9979706,-32.92064,5.289459,-28.99594,4.583511,0.5266061,0.4107882,1.0,0.1009521,-0.04299927,0.9939575,30.28905,4.848907,-26.4848,4.5867,0.56428,0.4076682,0.05202889,1.236367,0.0976932,-0.0229398,-0.04708893,-0.0197373,0.5790571,29.93736,29.35
3,0.0632019,-0.007522583,0.9979706,1.0,0.0632019,-0.007522583,0.9979706,-32.92064,5.289459,-28.99594,4.583511,0.5266061,0.4107882,1.0,0.1009521,-0.04299927,0.9939575,30.28905,4.848907,-26.4848,4.5867,0.56428,0.4076682,0.05202889,1.236367,0.0976932,-0.0229398,-0.04708893,-0.0197373,0.5790571,29.93736,29.35
3,0.06626892,-0.008117676,0.997757,1.0,0.06626892,-0.008117676,0.997757,-32.91405,5.30336,-29.07047,4.643402,0.5259201,0.4110824,1.0,0.1077881,-0.04377747,0.9931946,30.27831,4.800491,-26.38298,4.58902,0.5634274,0.4085988,0.05207288,1.236359,0.09775168,-0.02338945,-0.04685386,-0.01923024,0.5790571,29.93736,29.35
3,0.06626892,-0.008117676,0.997757,1.0,0.06626892,-0.008117676,0.997757,-32.91405,5.30336,-29.07047,4.643402,0.5259201,0.4110824,1.0,0.1077881,-0.04377747,0.9931946,30.27831,4.800491,-26.38298,4.58902,0.5634274,0.4085988,0.05207288,1.236359,0.09775168,-0.02338945,-0.04685386,-0.01923024,0.5790571,29.93736,29.35
3,0.06723022,-0.009002686,0.9976959,1.0,0.06723022,-0.009002686,0.9976959,-32.90942,5.30336,-29.07047,4.647491,0.5256054,0.4112365,1.0,0.1107635,-0.0463562,0.9927521,30.27814,4.79155,-26.35709,4.588425,0.5629171,0.4091294,0.05222833,1.236425,0.09786916,-0.02408903,-0.04699279,-0.0185972,0.5790571,29.93736,29.35
3,0.06723022,-0.009002686,0.9976959,1.0,0.06723022,-0.009002686,0.9976959,-32.90942,5.30336,-29.07047,4.647491,0.5256054,0.4112365,1.0,0.1107635,-0.0463562,0.9927521,30.27814,4.79155,-26.35709,4.588425,0.5629171,0.4091294,0.05222833,1.236425,0.09786916,-0.02408903,-0.04699279,-0.0185972,0.5790571,29.93736,29.35
3,0.07933044,-0.01751709,0.9966888,1.0,0.0682373,-0.008026123,0.9976349,-32.88451,5.304382,-29.05421,4.643677,0.5245888,0.410893,1.0,0.1125641,-0.04602051,0.992569,30.27972,4.749008,-26.1916,4.595047,0.5624498,0.4091294,0.05233884,1.236416,0.09796768,-0.02451426,-0.04728629,-0.01824328,0.5790571,29.93736,29.35
3,0.07933044,-0.01751709,0.9966888,1.0,0.0682373,-0.008026123,0.9976349,-32.88451,5.304382,-29.05421,4.643677,0.5245888,0.410893,1.0,0.1125641,-0.04602051,0.992569,30.27972,4.749008,-26.1916,4.595047,0.5624498,0.4091294,0.05233884,1.236416,0.09796768,-0.02451426,-0.04728629,-0.01824328,0.5790571,29.93736,29.35
3,0.07829285,-0.02081299,0.9967041,1.0,0.06872559,-0.01345825,0.9975433,-32.8739,5.260376,-28.96765,4.652176,0.5241124,0.4125749,1.0,0.1120453,-0.04682922,0.9925842,30.28008,4.738129,-26.13831,4.595245,0.5624861,0.4091866,0.05238211,1.236358,0.09800184,-0.02415851,-0.04762792,-0.01819257,0.5790571,29.93736,29.35
3,0.07829285,-0.02081299,0.9967041,1.0,0.06872559,-0.01345825,0.9975433,-32.8739,5.260376,-28.96765,4.652176,0.5241124,0.4125749,1.0,0.1120453,-0.04682922,0.9925842,30.28008,4.738129,-26.13831,4.595245,0.5624861,0.4091866,0.05238211,1.236358,0.09800184,-0.02415851,-0.04762792,-0.01819257,0.5790571,29.93736,29.35
3,0.07566833,-0.01713562,0.9969788,1.0,0.06690979,-0.00982666,0.9976959,-32.8683,5.246704,-28.98616,4.709763,0.5242459,0.4125969,1.0,0.1120911,-0.04760742,0.9925537,30.27991,4.727234,-26.08499,4.598862,0.5624498,0.4092439,0.05251086,1.236301,0.09799147,-0.02378962,-0.04793059,-0.01828612,0.5790571,-0.9695492,29.35
3,0.07566833,-0.01713562,0.9969788,1.0,0.06690979,-0.00982666,0.9976959,-32.8683,5.246704,-28.98616,4.709763,0.5242459,0.4125969,1.0,0.1120911,-0.04760742,0.9925537,30.27991,4.727234,-26.08499,4.598862,0.5624498,0.4092439,0.05251086,1.236301,0.09799147,-0.02378962,-0.04793059,-0.01828612,0.5790571,-0.9695492,29.35
3,0.07566833,-0.01713562,0.9969788,1.0,0.06690979,-0.00982666,0.9976959,-32.8683,5.246704,-28.98616,4.709763,0.5242459,0.4125969,1.0,0.1120911,-0.04760742,0.9925537,30.27991,4.727234,-26.08499,4.598862,0.5624498,0.4092439,0.05271029,1.236235,0.09800124,-0.02375922,-0.04815407,-0.01832478,0.5790571,-0.9695492,29.35
3,0.07566833,-0.01713562,0.9969788,1.0,0.06690979,-0.00982666,0.9976959,-32.8683,5.246704,-28.98616,4.709763,0.5242459,0.4125969,1.0,0.1120911,-0.04760742,0.9925537,30.27991,4.727234,-26.08499,4.598862,0.5624498,0.4092439,0.05271029,1.236235,0.09800124,-0.02375922,-0.04815407,-0.01832478,0.5790571,-0.9695492,29.35
3,0.07566833,-0.01713562,0.9969788,1.0,0.06690979,-0.00982666,0.9976959,-32.8683,5.246704,-28.98616,4.709763,0.5242459,0.4125969,1.0,0.1120911,-0.04760742,0.9925537,30.27991,4.727234,-26.08499,4.598862,0.5624498,0.4092439,0.05293763,1.236177,0.09800959,-0.0238862,-0.04846991,-0.01824819,0.5790571,-0.9695492,29.35
3,0.07566833,-0.01713562,0.9969788,1.0,0.06690979,-0.00982666,0.9976959,-32.8683,5.246704,-28.98616,4.709763,0.5242459,0.4125969,1.0,0.1120911,-0.04760742,0.9925537,30.27991,4.727234,-26.08499,4.598862,0.5624498,0.4092439,0.05293763,1.236177,0.09800959,-0.0238862,-0.04846991,-0.01824819,0.5790571,-0.9695492,29.35
3,0.07182312,-0.01856995,0.9972382,1.0,0.06506348,-0.01339722,0.9977875,-32.86403,5.257156,-29.14294,4.56459,0.5244265,0.4141084,1.0,0.1118927,-0.04928589,0.9924927,30.27991,4.720276,-26.03462,4.602463,0.5624498,0.4093336,0.05317867,1.236238,0.09799093,-0.02400878,-0.04875804,-0.01867596,0.5790571,-0.9695492,29.35
3,0.07182312,-0.01856995,0.9972382,1.0,0.06506348,-0.01339722,0.9977875,-32.86403,5.257156,-29.14294,4.56459,0.5244265,0.4141084,1.0,0.1118927,-0.04928589,0.9924927,30.27991,4.720276,-26.03462,4.602463,0.5624498,0.4093336,0.05317867,1.236238,0.09799093,-0.02400878,-0.04875804,-0.01867596,0.5790571,-0.9695492,29.35
3,0.07182312,-0.01856995,0.9972382,1.0,0.06506348,-0.01339722,0.9977875,-32.86403,5.257156,-29.14294,4.56459,0.5244265,0.4141084,1.0,0.1118927,-0.04928589,0.9924927,30.27991,4.720276,-26.03462,4.602463,0.5624498,0.4093336,0.05342066,1.236313,0.09800017,-0.02429353,-0.04887449,-0.01922908,0.5790571,-0.9695492,29.35
3,0.07182312,-0.01856995,0.9972382,1.0,0.06506348,-0.01339722,0.9977875,-32.86403,5.257156,-29.14294,4.56459,0.5244265,0.4141084,1.0,0.1118927,-0.04928589,0.9924927,30.27991,4.720276,-26.03462,4.602463,0.5624498,0.4093336,0.05342066,1.236313,0.09800017,-0.02429353,-0.04887449,-0.01922908,0.5790571,-0.9695492,29.35
3,0.07783508,-0.02590942,0.9966278,1.0,0.07139587,-0.02140808,0.9972076,-32.90297,5.282883,-29.18056,4.578812,0.5247113,0.4149438,1.0,0.1118011,-0.04968262,0.9924774,30.27972,4.712708,-25.99542,4.615158,0.5624498,0.4093336,0.05368435,1.236352,0.0979678,-0.02465156,-0.04892477,-0.01967719,0.5790571,-0.9695492,29.35
3,0.07783508,-0.02590942,0.9966278,1.0,0.07139587,-0.02140808,0.9972076,-32.90297,5.282883,-29.18056,4.578812,0.5247113,0.4149438,1.0,0.1118011,-0.04968262,0.9924774,30.27972,4.712708,-25.99542,4.615158,0.5624498,0.4093336,0.05368435,1.236352,0.0979678,-0.02465156,-0.04892477,-0.01967719,0.5790571,-0.9695492,29.35
3,0.1121826,-0.04232788,0.9927826,1.0,0.06336975,-0.02183533,0.9977417,-32.94328,5.344803,-29.38007,4.551498,0.5274937,0.414592,1.0,0.114212,-0.04316711,0.9925079,30.23067,4.649597,-26.00348,4.524429,0.56365,0.4103999,0.05385339,1.236352,0.09791553,-0.02438169,-0.04901697,-0.01975277,0.5790571,-0.9695492,29.35
3,0.110321,-0.04133606,0.9930267,1.0,0.06359863,-0.02252197,0.9977112,-32.94611,5.344803,-29.38007,4.558853,0.5275543,0.4147146,1.0,0.1123199,-0.04214478,0.9927673,30.228,4.645767,-26.01675,4.523758,0.5640623,0.4104561,0.05412316,1.236333,0.09782034,-0.02426099,-0.0489269,-0.0199584,0.5790571,-0.9695492,29.35
3,0.110321,-0.04133606,0.9930267,1.0,0.06359863,-0.02252197,0.9977112,-32.94611,5.344803,-29.38007,4.558853,0.5275543,0.4147146,1.0,0.1123199,-0.04214478,0.9927673,30.228,4.645767,-26.01675,4.523758,0.5640623,0.4104561,0.05412316,1.236333,0.09782034,-0.02426099,-0.0489269,-0.0199584,0.5790571,-0.9695492,29.35
3,0.09387207,-0.03547668,0.9949493,1.0,0.05773926,-0.01429749,0.9982147,-32.94072,5.397324,-29.48032,4.58107,0.5284057,0.4123807,1.0,0.1106262,-0.0453186,0.9928131,30.22775,4.648972,-26.02054,4.550079,0.564365,0.4109183,0.05421269,1.236338,0.09776354,-0.02417393,-0.04886458,-0.02031325,0.5790571,-64.701,29.35
3,0.07350159,-0.02706909,0.9969177,1.0,0.06587219,-0.01937866,0.9976349,-32.97864,5.266357,-28.8676,4.55452,0.5280563,0.4125043,1.0,0.09509277,-0.0488739,0.9942627,30.30508,4.908218,-26.73917,4.57251,0.5648798,0.4087865,0.05429041,1.236335,0.09771651,-0.02422996,-0.04874856,-0.02060531,0.5790571,-64.701,29.35
3,0.07865906,-0.03761292,0.9961853,1.0,0.06338501,-0.01959229,0.9977875,-32.97845,5.230209,-28.57086,4.567123,0.5283408,0.4112424,1.0,0.09367371,-0.05535889,0.9940491,30.31049,4.91777,-26.66795,4.518677,0.5648819,0.4089164,0.05434537,1.236383,0.09770495,-0.02423918,-0.04887129,-0.0208018,0.5790571,-64.701,29.35
3,0.07865906,-0.03761292,0.9961853,1.0,0.06338501,-0.01959229,0.9977875,-32.97845,5.230209,-28.57086,4.567123,0.5283408,0.4112424,1.0,0.09367371,-0.05535889,0.9940491,30.31049,4.91777,-26.66795,4.518677,0.5648819,0.4089164,0.05434537,1.236383,0.09770495,-0.02423918,-0.04887129,-0.0208018,0.5790571,-64.701,29.35
3,0.1016846,0.001678467,0.994812,1.0,0.04776001,0.03944397,0.9980774,-32.81412,5.603363,-29.04933,4.799133,0.5257231,0.3927241,1.0,0.1154022,-0.007965088,0.9932709,30.34221,4.958862,-25.92378,4.5979,0.5597537,0.3934661,0.05458796,1.236441,0.0976584,-0.02445462,-0.04906938,-0.02085045,0.5790571,-64.701,29.35
3,0.1231384,0.005569458,0.9923706,1.0,0.06417847,0.04476929,0.9969177,-32.73486,5.745529,-28.92052,4.645157,0.5202498,0.38585,1.0,0.1333466,-0.001235962,0.9910583,30.38731,5.1931,-26.05539,4.544235,0.5553522,0.3856061,0.05461967,1.236455,0.0976451,-0.02467723,-0.04918949,-0.02087117,0.5790571,-64.701,29.35
3,0.1231384,0.005569458,0.9923706,1.0,0.06417847,0.04476929,0.9969177,-32.73486,5.745529,-28.92052,4.645157,0.5202498,0.38585,1.0,0.1333466,-0.001235962,0.9910583,30.38731,5.1931,-26.05539,4.544235,0.5553522,0.3856061,0.05461967,1.236455,0.0976451,-0.02467723,-0.04918949,-0.02087117,0.5790571,-64.701,29.35
3,0.1008911,0.07232666,0.9922638,1.0,0.1008911,0.07232666,0.9922638,-32.60861,6.168732,-29.18723,4.512299,0.509951,0.3689272,1.0,0.2253723,-0.00579834,0.9742432,30.02089,4.811859,-22.28679,4.531799,0.5501034,0.3697021,0.0546602,1.236413,0.09766412,-0.02485323,-0.0493297,-0.02084366,0.5790571,-64.701,29.35
3,0.111496,0.100647,0.9886475,1.0,0.111496,0.100647,0.9886475,-32.50475,6.326508,-29.49045,4.640335,0.5047821,0.3612194,1.0,0.1304321,0.009979248,0.991394,30.64925,6.028564,-26.83754,4.44278,0.5475689,0.3618858,0.05472314,1.236377,0.09765708,-0.02490414,-0.04984566,-0.02082149,0.5790571,-64.701,29.35
3,0.1170959,0.1034698,0.9877014,1.0,0.1170959,0.1034698,0.9877014,-32.51852,6.201706,-29.23672,4.572784,0.5041932,0.3629577,1.0,0.1862946,0.08396912,0.9788818,30.35721,4.99826,-24.29584,4.591858,0.5465499,0.3639104,0.05476487,1.236208,0.09756976,-0.02420473,-0.05028571,-0.02032132,0.5790571,-64.701,29.35
3,0.1170959,0.1034698,0.9877014,1.0,0.1170959,0.1034698,0.9877014,-32.51852,6.201706,-29.23672,4.572784,0.5041932,0.3629577,1.0,0.1862946,0.08396912,0.9788818,30.35721,4.99826,-24.29584,4.591858,0.5465499,0.3639104,0.05476487,1.236208,0.09756976,-0.02420473,-0.05028571,-0.02032132,0.5790571,-64.701,29.35
3,0.1101227,0.104538,0.9884033,1.0,0.1101227,0.104538,0.9884033,-32.51355,6.174026,-29.32019,4.606659,0.5052276,0.3644213,1.0,0.1830597,0.09614563,0.9783783,30.34497,4.895416,-24.16312,4.604507,0.5473374,0.3645557,0.05480778,1.236121,0.09761119,-0.02401189,-0.05051131,-0.02008307,0.5790571,-64.701,29.35
3,0.1101227,0.104538,0.9884033,1.0,0.1101227,0.104538,0.9884033,-32.51355,6.174026,-29.32019,4.606659,0.5052276,0.3644213,1.0,0.1830597,0.09614563,0.9783783,30.34497,4.895416,-24.16312,4.604507,0.5473374,0.3645557,0.05480778,1.236121,0.09761119,-0.02401189,-0.05051131,-0.02008307,0.5790571,-64.701,29.35
3,0.1053925,0.1083069,0.9885101,1.0,0.1053925,0.1083069,0.9885101,-32.53123,6.166626,-29.26469,4.570389,0.5065966,0.3635329,1.0,0.1807709,0.08084106,0.9801788,30.35475,4.903549,-24.19565,4.61203,0.5474306,0.3670433,0.05479181,1.236177,0.09768844,-0.02444273,-0.05087477,-0.01969157,0.5790571,-64.701,29.35
3,0.1127625,0.1030731,0.9882507,1.0,0.1127625,0.1030731,0.9882507,-32.54951,6.193588,-29.3232,4.553391,0.5059875,0.3639944,1.0,0.1806793,0.09016418,0.9793854,30.36752,4.971252,-24.4101,4.606339,0.5471395,0.3649479,0.05477917,1.236147,0.09770882,-0.02465458,-0.05111118,-0.01976333,0.5790571,-64.701,29.35
3,0.1127625,0.1030731,0.9882507,1.0,0.1127625,0.1030731,0.9882507,-32.54951,6.193588,-29.3232,4.553391,0.5059875,0.3639944,1.0,0.1806793,0.09016418,0.9793854,30.36752,4.971252,-24.4101,4.606339,0.5471395,0.3649479,0.05477917,1.236147,0.09770882,-0.02465458,-0.05111118,-0.01976333,0.5790571,-64.701,29.35
3,0.1035919,0.1054382,0.9890137,1.0,0.1035919,0.1054382,0.9890137,-32.55299,6.163528,-29.31908,4.560699,0.5076499,0.364571,1.0,0.1826477,0.09490967,0.9785767,30.35567,4.91861,-24.26546,4.650513,0.5471395,0.3648109,0.05476654,1.236012,0.09768879,-0.02451365,-0.05181435,-0.01964043,0.5790571,-64.701,29.35
3,0.13974,0.1050415,0.9845886,1.0,0.1082001,0.1086273,0.9881744,-32.57416,6.087906,-29.16644,4.553833,0.5075318,0.3653956,1.0,0.1810913,0.1001587,0.9783478,30.35837,4.89592,-24.29755,4.651718,0.5473136,0.3649479,0.05478179,1.23595,0.09759426,-0.02427942,-0.05217532,-0.0196317,0.5790571,-78.21759,29.35
3,0.13974,0.1050415,0.9845886,1.0,0.1082001,0.1086273,0.9881744,-32.57416,6.087906,-29.16644,4.553833,0.5075318,0.3653956,1.0,0.1810913,0.1001587,0.9783478,30.35837,4.89592,-24.29755,4.651718,0.5473136,0.3649479,0.05478179,1.23595,0.09759426,-0.02427942,-0.05217532,-0.0196317,0.5790571,-78.21759,29.35
3,0.1551208,0.103714,0.9824219,1.0,0.112915,0.1085205,0.9876556,-32.59639,6.039932,-29.01581,4.510162,0.5074286,0.3658269,1.0,0.1808167,0.1006775,0.9783478,30.35703,4.89505,-24.32491,4.63269,0.5474052,0.3650899,0.05478513,1.236012,0.09736741,-0.02444243,-0.0529035,-0.01941225,0.5790571,-78.21759,29.35
3,0.1551208,0.103714,0.9824219,1.0,0.112915,0.1085205,0.9876556,-32.59639,6.039932,-29.01581,4.510162,0.5074286,0.3658269,1.0,0.1808167,0.1006775,0.9783478,30.35703,4.89505,-24.32491,4.63269,0.5474052,0.3650899,0.05473745,1.236145,0.09716749,-0.02462585,-0.05335785,-0.01933071,0.5790571,-78.21759,29.35
3,0.1551208,0.103714,0.9824219,1.0,0.112915,0.1085205,0.9876556,-32.59639,6.039932,-29.01581,4.510162,0.5074286,0.3658269,1.0,0.1808167,0.1006775,0.9783478,30.35703,4.89505,-24.32491,4.63269,0.5474052,0.3650899,0.05469012,1.236254,0.09699023,-0.02497166,-0.05371177,-0.01946629,0.5790571,-78.21759,29.35
3,0.1551208,0.103714,0.9824219,1.0,0.112915,0.1085205,0.9876556,-32.59639,6.039932,-29.01581,4.510162,0.5074286,0.3658269,1.0,0.1808167,0.1006775,0.9783478,30.35703,4.89505,-24.32491,4.63269,0.5474052,0.3650899,0.05469012,1.236254,0.09699023,-0.02497166,-0.05371177,-0.01946629,0.5790571,-78.21759,29.35
3,0.1551208,0.103714,0.9824219,1.0,0.112915,0.1085205,0.9876556,-32.59639,6.039932,-29.01581,4.510162,0.5074286,0.3658269,1.0,0.1808167,0.1006775,0.9783478,30.35703,4.89505,-24.32491,4.63269,0.5474052,0.3650899,0.05465806,1.236505,0.09672213,-0.02586134,-0.05470725,-0.01949268,0.5790571,-78.21759,29.35
3,0.1601105,0.1023254,0.9817657,1.0,0.1128235,0.1051483,0.9880219,-32.60001,6.061829,-29.10646,4.522339,0.5075973,0.3663988,1.0,0.1806793,0.1010284,0.9783325,30.35567,4.89592,-24.35228,4.649719,0.5474968,0.3652319,0.05459678,1.236665,0.0965215,-0.02638583,-0.05511688,-0.01963853,0.5790571,-78.21759,29.35
3,0.1601105,0.1023254,0.9817657,1.0,0.1128235,0.1051483,0.9880219,-32.60001,6.061829,-29.10646,4.522339,0.5075973,0.3663988,1.0,0.1806793,0.1010284,0.9783325,30.35567,4.89592,-24.35228,4.649719,0.5474968,0.3652319,0.05455697,1.236812,0.09634125,-0.02699135,-0.05556828,-0.01976597,0.5790571,-78.21759,29.35
3,0.1601105,0.1023254,0.9817657,1.0,0.1128235,0.1051483,0.9880219,-32.60001,6.061829,-29.10646,4.522339,0.5075973,0.3663988,1.0,0.1806793,0.1010284,0.9783325,30.35567,4.89592,-24.35228,4.649719,0.5474968,0.3652319,0.05455697,1.236812,0.09634125,-0.02699135,-0.05556828,-0.01976597,0.5790571,-78.21759,29.35
3,0.1601105,0.1023254,0.9817657,1.0,0.1128235,0.1051483,0.9880219,-32.60001,6.061829,-29.10646,4.522339,0.5075973,0.3663988,1.0,0.1806793,0.1010284,0.9783325,30.35567,4.89592,-24.35228,4.649719,0.5474968,0.3652319,0.0545069,1.236993,0.09624612,-0.02774624,-0.05595456,-0.01986111,0.5790571,-78.21759,29.35
3,0.1601105,0.1023254,0.9817657,1.0,0.1128235,0.1051483,0.9880219,-32.60001,6.061829,-29.10646,4.522339,0.5075973,0.3663988,1.0,0.1806793,0.1010284,0.9783325,30.35567,4.89592,-24.35228,4.649719,0.5474968,0.3652319,0.05452001,1.237509,0.09596431,-0.02933703,-0.05683445,-0.02042481,0.5790571,-78.21759,29.35
3,0.1573486,0.1006317,0.9823914,1.0,0.1020966,0.1033783,0.9893799,-32.59793,6.107285,-29.28084,4.503235,0.5093828,0.3665282,1.0,0.1780243,0.09950256,0.9789734,30.3539,4.907272,-24.35609,4.629837,0.547994,0.3651063,0.05452001,1.237509,0.09596431,-0.02933703,-0.05683445,-0.02042481,0.5790571,-78.21759,29.35
3,0.08674622,0.09526062,0.9916534,1.0,0.08674622,0.09526062,0.9916534,-32.73947,6.036163,-28.91261,4.476013,0.5166351,0.36729,1.0,0.1403046,0.08903503,0.986084,30.38812,5.259842,-25.88148,4.510452,0.5540264,0.3668422,0.05440009,1.237817,0.09561217,-0.03064451,-0.05755444,-0.02074729,0.5790571,-91.55033,29.35
3,0.08491516,0.09841919,0.9915009,1.0,0.08491516,0.09841919,0.9915009,-32.75197,6.032211,-28.93343,4.516937,0.5173835,0.367078,1.0,0.1337585,0.08929443,0.986969,30.38287,5.246567,-25.85292,4.574722,0.5553154,0.367024,0.05429471,1.238061,0.09536231,-0.03137373,-0.0578603,-0.02134102,0.5790571,-91.55033,29.35
3,0.08491516,0.09841919,0.9915009,1.0,0.08491516,0.09841919,0.9915009,-32.75197,6.032211,-28.93343,4.516937,0.5173835,0.367078,1.0,0.1337585,0.08929443,0.986969,30.38287,5.246567,-25.85292,4.574722,0.5553154,0.367024,0.05429471,1.238061,0.09536231,-0.03137373,-0.0578603,-0.02134102,0.5790571,-91.55033,29.35
3,0.08491516,0.09841919,0.9915009,1.0,0.08491516,0.09841919,0.9915009,-32.75197,6.032211,-28.93343,4.516937,0.5173835,0.367078,1.0,0.1337585,0.08929443,0.986969,30.38287,5.246567,-25.85292,4.574722,0.5553154,0.367024,0.05417633,1.238123,0.09518445,-0.03157849,-0.05815303,-0.02187921,0.5790571,-91.55033,29.35
3,0.08491516,0.09841919,0.9915009,1.0,0.08491516,0.09841919,0.9915009,-32.75197,6.032211,-28.93343,4.516937,0.5173835,0.367078,1.0,0.1337585,0.08929443,0.986969,30.38287,5.246567,-25.85292,4.574722,0.5553154,0.367024,0.05417633,1.238123,0.09518445,-0.03157849,-0.05815303,-0.02187921,0.5790571,-91.55033,29.35
3,0.08491516,0.09841919,0.9915009,1.0,0.08491516,0.09841919,0.9915009,-32.75197,6.032211,-28.93343,4.516937,0.5173835,0.367078,1.0,0.1337585,0.08929443,0.986969,30.38287,5.246567,-25.85292,4.574722,0.5553154,0.367024,0.05403185,1.238055,0.09512591,-0.03121159,-0.05821833,-0.02189759,0.5790571,-91.55033,29.35
3,0.08491516,0.09841919,0.9915009,1.0,0.08491516,0.09841919,0.9915009,-32.75197,6.032211,-28.93343,4.516937,0.5173835,0.367078,1.0,0.1337585,0.08929443,0.986969,30.38287,5.246567,-25.85292,4.574722,0.5553154,0.367024,0.05403185,1.238055,0.09512591,-0.03121159,-0.05821833,-0.02189759,0.5790571,-91.55033,29.35
3,0.08253479,0.08676147,0.9927979,1.0,0.08253479,0.08676147,0.9927979,-32.8777,5.831238,-28.64478,4.489578,0.52188,0.3735384,1.0,0.1279144,0.07525635,0.9889221,30.21072,5.06636,-25.41861,4.59668,0.5617788,0.3719167,0.0539149,1.237871,0.09520805,-0.03031648,-0.05803426,-0.02170759,0.5790571,-91.55033,29.35
3,0.08253479,0.08676147,0.9927979,1.0,0.08253479,0.08676147,0.9927979,-32.8777,5.831238,-28.64478,4.489578,0.52188,0.3735384,1.0,0.1279144,0.07525635,0.9889221,30.21072,5.06636,-25.41861,4.59668,0.5617788,0.3719167,0.0539149,1.237871,0.09520805,-0.03031648,-0.05803426,-0.02170759,0.5790571,-91.55033,29.35
4,0.02996826,-0.02636719,0.9991913,1.0,0.02996826,-0.02636719,0.9991913,-33.15286,5.37439,-29.19661,4.213379,0.5400085,0.4126241,1.0,0.04766846,-0.05909729,0.9971008,29.90982,4.992477,-27.2805,4.319733,0.5865991,0.412021,0.05381918,1.237607,0.09535074,-0.029423,-0.05760542,-0.02133997,0.5790571,-91.55033,29.35
4,0.02996826,-0.02636719,0.9991913,1.0,0.02996826,-0.02636719,0.9991913,-33.15286,5.37439,-29.19661,4.213379,0.5400085,0.4126241,1.0,0.04766846,-0.05909729,0.9971008,29.90982,4.992477,-27.2805,4.319733,0.5865991,0.412021,0.05381918,1.237607,0.09535074,-0.029423,-0.05760542,-0.02133997,0.5790571,-91.55033,29.35
4,0.00402832,-0.1075439,0.9941864,1.0,0.00402832,-0.1075439,0.9941864,-33.23759,5.124863,-29.33069,4.274551,0.5472258,0.4361698,1.0,0.02879333,-0.1246338,0.9917755,29.69193,4.606735,-26.9536,4.306122,0.5967754,0.4335499,0.05374038,1.237306,0.09558225,-0.02859704,-0.0572226,-0.02085546,0.5790571,-91.55033,29.35
4,0.00402832,-0.1075439,0.9941864,1.0,0.00402832,-0.1075439,0.9941864,-33.23759,5.124863,-29.33069,4.274551,0.5472258,0.4361698,1.0,0.02879333,-0.1246338,0.9917755,29.69193,4.606735,-26.9536,4.306122,0.5967754,0.4335499,0.05374038,1.237306,0.09558225,-0.02859704,-0.0572226,-0.02085546,0.5790571,-91.55033,29.35
4,-0.004592896,-0.1106567,0.9938354,1.0,-0.004592896,-0.1106567,0.9938354,-33.2831,5.171204,-29.5873,4.268402,0.5503622,0.4373783,1.0,0.02566528,-0.1262207,0.9916687,29.70808,4.568054,-26.85416,4.405884,0.5965946,0.4343546,0.05356038,1.237193,0.09582186,-0.02846988,-0.05674944,-0.02051217,0.5790571,-91.55033,29.35
4,-0.004592896,-0.1106567,0.9938354,1.0,-0.004592896,-0.1106567,0.9938354,-33.2831,5.171204,-29.5873,4.268402,0.5503622,0.4373783,1.0,0.02566528,-0.1262207,0.9916687,29.70808,4.568054,-26.85416,4.405884,0.5965946,0.4343546,0.05356038,1.237193,0.09582186,-0.02846988,-0.05674944,-0.02051217,0.5790571,-91.55033,29.35
4,0.0009460449,-0.1057281,0.9943848,1.0,0.0009460449,-0.1057281,0.9943848,-33.3063,5.249344,-29.62633,4.266495,0.5502549,0.4342214,1.0,0.02957153,-0.1269379,0.9914551,29.73761,4.633316,-27.00357,4.266144,0.5951309,0.433471,0.05341697,1.237238,0.09601033,-0.02880704,-0.05649997,-0.02028499,0.5790571,-91.55033,29.35
4,0.0009460449,-0.1057281,0.9943848,1.0,0.0009460449,-0.1057281,0.9943848,-33.3063,5.249344,-29.62633,4.266495,0.5502549,0.4342214,1.0,0.02957153,-0.1269379,0.9914551,29.73761,4.633316,-27.00357,4.266144,0.5951309,0.433471,0.05341697,1.237238,0.09601033,-0.02880704,-0.05649997,-0.02028499,0.5790571,-91.55033,29.35
4,-0.001953125,-0.1018524,0.9947968,1.0,-0.001953125,-0.1018524,0.9947968,-33.31111,5.253281,-29.53383,4.229248,0.5508485,0.4326064,1.0,0.03175354,-0.1273651,0.991333,29.74597,4.652435,-27.00851,4.240143,0.5944849,0.4329319,0.05319798,1.237243,0.0960604,-0.02923552,-0.05648374,-0.0198307,0.5790571,41.33807,29.35
4,-0.001953125,-0.1018524,0.9947968,1.0,-0.001953125,-0.1018524,0.9947968,-33.31111,5.253281,-29.53383,4.229248,0.5508485,0.4326064,1.0,0.03175354,-0.1273651,0.991333,29.74597,4.652435,-27.00851,4.240143,0.5944849,0.4329319,0.05319798,1.237243,0.0960604,-0.02923552,-0.05648374,-0.0198307,0.5790571,41.33807,29.35
4,-0.002746582,-0.09757996,0.9952087,1.0,-0.002746582,-0.09757996,0.9952087,-33.3459,5.246872,-29.43411,4.310471,0.5521174,0.4312495,1.0,0.026474,-0.1227875,0.9920654,29.83578,4.841766,-27.44397,4.252457,0.5927444,0.4294776,0.05309272,1.237318,0.0959996,-0.02945033,-0.05673565,-0.01942453,0.5790571,41.33807,29.35
4,-0.002746582,-0.09757996,0.9952087,1.0,-0.002746582,-0.09757996,0.9952087,-33.3459,5.246872,-29.43411,4.310471,0.5521174,0.4312495,1.0,0.026474,-0.1227875,0.9920654,29.83578,4.841766,-27.44397,4.252457,0.5927444,0.4294776,0.05309272,1.237318,0.0959996,-0.02945033,-0.05673565,-0.01942453,0.5790571,41.33807,29.35
4,0.01042175,-0.1053162,0.9943695,1.0,0.007034302,-0.1045837,0.9944763,-33.3775,5.299286,-29.4115,4.243729,0.5515355,0.4304633,1.0,0.04893494,-0.1136322,0.9923096,29.67752,4.592346,-26.26605,4.358795,0.5933102,0.4262874,0.05294657,1.237439,0.09587908,-0.02964927,-0.05680691,-0.01922598,0.5790571,41.33807,29.35
4,0.01042175,-0.1053162,0.9943695,1.0,0.007034302,-0.1045837,0.9944763,-33.3775,5.299286,-29.4115,4.243729,0.5515355,0.4304633,1.0,0.04893494,-0.1136322,0.9923096,29.67752,4.592346,-26.26605,4.358795,0.5933102,0.4262874,0.05294657,1.237439,0.09587908,-0.02964927,-0.05680691,-0.01922598,0.5790571,41.33807,29.35
4,-0.00189209,-0.08525085,0.9963531,0.9243618,-0.00239563,-0.0847168,0.9963989,-33.38687,5.286209,-29.26479,4.420303,0.5533755,0.4262663,0.6610038,0.02435303,-0.1134186,0.9932404,29.84758,4.949158,-27.34148,4.392166,0.5926796,0.4233663,0.05285704,1.237583,0.0957998,-0.02979016,-0.0569031,-0.01897712,0.5790571,41.33807,29.35
4,-0.00189209,-0.08525085,0.9963531,0.9243618,-0.00239563,-0.0847168,0.9963989,-33.38687,5.286209,-29.26479,4.420303,0.5533755,0.4262663,0.6610038,0.02435303,-0.1134186,0.9932404,29.84758,4.949158,-27.34148,4.392166,0.5926796,0.4233663,0.05285704,1.237583,0.0957998,-0.02979016,-0.0569031,-0.01897712,0.5790571,41.33807,29.35
4,-0.03137207,-0.1569061,0.9871063,0.8748586,-0.03137207,-0.1569061,0.9871063,-33.5,4.929428,-29.38918,4.333527,0.5620313,0.4519051,0.6050251,0.02861023,-0.1898956,0.9813843,29.23483,4.321091,-26.16951,4.429733,0.6115164,0.4477584,0.05273759,1.237574,0.09561026,-0.02984014,-0.05701429,-0.01835525,0.5790571,41.33807,29.35
4,-0.03137207,-0.1569061,0.9871063,0.8748586,-0.03137207,-0.1569061,0.9871063,-33.5,4.929428,-29.38918,4.333527,0.5620313,0.4519051,0.6050251,0.02861023,-0.1898956,0.9813843,29.23483,4.321091,-26.16951,4.429733,0.6115164,0.4477584,0.05273759,1.237574,0.09561026,-0.02984014,-0.05701429,-0.01835525,0.5790571,41.33807,29.35
4,-0.05921936,-0.2177277,0.9741974,0.7411159,-0.05921936,-0.2177277,0.9741974,-33.57512,4.595261,-29.42488,4.355865,0.569219,0.4742497,0.4216039,-0.0438385,-0.2086029,0.977005,29.30214,3.907532,-26.6058,4.578262,0.6216831,0.4687825,0.05277789,1.237637,0.09549826,-0.02995626,-0.05749343,-0.01783063,0.5790571,41.33807,29.35
4,-0.05921936,-0.2177277,0.9741974,0.7411159,-0.05921936,-0.2177277,0.9741974,-33.57512,4.595261,-29.42488,4.355865,0.569219,0.4742497,0.4216039,-0.0438385,-0.2086029,0.977005,29.30214,3.907532,-26.6058,4.578262,0.6216831,0.4687825,0.05277789,1.237637,0.09549826,-0.02995626,-0.05749343,-0.01783063,0.5790571,41.33807,29.35
4,-0.07920837,-0.2932434,0.9527435,0.6883144,-0.07928467,-0.2931366,0.9527588,-33.63393,4.335709,-29.52182,4.286392,0.5746371,0.4974468,0.3254788,0.02737427,-0.4290619,0.9028473,28.71201,4.287674,-26.38156,4.340012,0.6300033,0.4938856,0.05279279,1.237717,0.09542525,-0.03014346,-0.05759637,-0.01755395,0.5790571,41.33807,29.35
4,-0.07920837,-0.2932434,0.9527435,0.6883144,-0.07928467,-0.2931366,0.9527588,-33.63393,4.335709,-29.52182,4.286392,0.5746371,0.4974468,0.3254788,0.02737427,-0.4290619,0.9028473,28.71201,4.287674,-26.38156,4.340012,0.6300033,0.4938856,0.05279279,1.237717,0.09542525,-0.03014346,-0.05759637,-0.01755395,0.5790571,41.33807,29.35
4,-0.05259705,-0.3262177,0.9438171,0.6610234,-0.06889343,-0.3033142,0.9503937,-33.69444,4.345474,-29.52464,4.161896,0.5749769,0.4989712,0.215947,-0.02131653,-0.3692627,0.9290619,28.95956,4.002869,-26.50229,4.399323,0.6296457,0.4934132,0.05287921,1.237786,0.09533846,-0.03052197,-0.05750976,-0.01755013,0.5790571,41.33807,29.35
4,-0.05259705,-0.3262177,0.9438171,0.6610234,-0.06889343,-0.3033142,0.9503937,-33.69444,4.345474,-29.52464,4.161896,0.5749769,0.4989712,0.215947,-0.02131653,-0.3692627,0.9290619,28.95956,4.002869,-26.50229,4.399323,0.6296457,0.4934132,0.05287921,1.237786,0.09533846,-0.03052197,-0.05750976,-0.01755013,0.5790571,41.33807,29.35
4,-0.03829956,-0.339035,0.9399872,0.6614336,-0.06164551,-0.2983093,0.9524689,-33.7345,4.324905,-29.53114,4.128204,0.5751345,0.4988026,0.2498972,0.01858521,-0.4343872,0.900528,28.75218,4.261307,-26.38712,4.37027,0.6301128,0.4958015,0.05304766,1.237858,0.09532279,-0.03079609,-0.05728077,-0.01749741,0.5790571,69.71679,29.35
4,-0.03829956,-0.339035,0.9399872,0.6614336,-0.06164551,-0.2983093,0.9524689,-33.7345,4.324905,-29.53114,4.128204,0.5751345,0.4988026,0.2498972,0.01858521,-0.4343872,0.900528,28.75218,4.261307,-26.38712,4.37027,0.6301128,0.4958015,0.05304766,1.237858,0.09532279,-0.03079609,-0.05728077,-0.01749741,0.5790571,69.71679,29.35
4,-0.06610107,-0.3564148,0.9319763,0.6898211,-0.06376648,-0.3160248,0.9465942,-33.78667,4.29541,-29.54042,4.066345,0.5772891,0.5031357,0.2476202,-0.07041931,-0.4361725,0.8970947,29.18875,4.239746,-26.45911,4.3414,0.6300656,0.4976256,0.05316174,1.237917,0.09532273,-0.03123903,-0.05693373,-0.01760777,0.5790571,69.71679,29.35
4,-0.06610107,-0.3564148,0.9319763,0.6898211,-0.06376648,-0.3160248,0.9465942,-33.78667,4.29541,-29.54042,4.066345,0.5772891,0.5031357,0.2476202,-0.07041931,-0.4361725,0.8970947,29.18875,4.239746,-26.45911,4.3414,0.6300656,0.4976256,0.05316174,1.237917,0.09532273,-0.03123903,-0.05693373,-0.01760777,0.5790571,69.71679,29.35
4,-0.06848145,-0.3667145,0.9277954,0.7073578,-0.0687561,-0.3226624,0.9440002,-33.80954,4.28006,-29.5464,4.136536,0.5789112,0.504922,0.2371793,-0.06761169,-0.4428864,0.8940125,29.19194,4.23909,-26.45885,4.340332,0.6295043,0.4988984,0.0533998,1.238006,0.09539974,-0.03163506,-0.05669256,-0.01758024,0.5790571,69.71679,29.35
4,-0.06848145,-0.3667145,0.9277954,0.7073578,-0.0687561,-0.3226624,0.9440002,-33.80954,4.28006,-29.5464,4.136536,0.5789112,0.504922,0.2371793,-0.06761169,-0.4428864,0.8940125,29.19194,4.23909,-26.45885,4.340332,0.6295043,0.4988984,0.0533998,1.238006,0.09539974,-0.03163506,-0.05669256,-0.01758024,0.5790571,69.71679,29.35
4,-0.06680298,-0.3686829,0.9271393,0.6834767,-0.06723022,-0.3138733,0.9470673,-33.80067,4.293549,-29.5284,4.126205,0.5783312,0.5026941,0.2354703,-0.06582642,-0.4423065,0.8944397,29.19554,4.235641,-26.45859,4.337784,0.629082,0.4988984,0.0536586,1.237993,0.09543264,-0.03157329,-0.05632602,-0.01777496,0.5790571,69.71679,29.35
4,-0.06680298,-0.3686829,0.9271393,0.6834767,-0.06723022,-0.3138733,0.9470673,-33.80067,4.293549,-29.5284,4.126205,0.5783312,0.5026941,0.2354703,-0.06582642,-0.4423065,0.8944397,29.19554,4.235641,-26.45859,4.337784,0.629082,0.4988984,0.0536586,1.237993,0.09543264,-0.03157329,-0.05632602,-0.01777496,0.5790571,69.71679,29.35
4,-0.02650452,-0.3791504,0.924942,0.6309101,-0.0567627,-0.3338623,0.9409027,-33.84413,4.280045,-29.53787,4.081909,0.5780925,0.5068691,0.223038,0.005203247,-0.4252014,0.9050751,28.90572,4.15152,-26.35959,4.364655,0.6270282,0.497491,0.05385053,1.237913,0.09551871,-0.03130098,-0.05565362,-0.01818151,0.5790571,69.71679,29.35
4,-0.02650452,-0.3791504,0.924942,0.6309101,-0.0567627,-0.3338623,0.9409027,-33.84413,4.280045,-29.53787,4.081909,0.5780925,0.5068691,0.223038,0.005203247,-0.4252014,0.9050751,28.90572,4.15152,-26.35959,4.364655,0.6270282,0.497491,0.05385053,1.237913,0.09551871,-0.03130098,-0.05565362,-0.01818151,0.5790571,69.71679,29.35
4,-0.05194092,-0.3636017,0.9300842,0.6183392,-0.06648254,-0.3161163,0.9463806,-33.85023,4.280609,-29.53688,4.188156,0.5799051,0.5036079,0.1536351,-0.02836609,-0.437561,0.8987274,29.06737,4.251999,-26.38223,4.457504,0.6271548,0.4965992,0.05402291,1.237806,0.09563792,-0.03105508,-0.05524717,-0.01898144,0.5790571,69.71679,29.35
4,-0.05194092,-0.3636017,0.9300842,0.6183392,-0.06648254,-0.3161163,0.9463806,-33.85023,4.280609,-29.53688,4.188156,0.5799051,0.5036079,0.1536351,-0.02836609,-0.437561,0.8987274,29.06737,4.251999,-26.38223,4.457504,0.6271548,0.4965992,0.05402291,1.237806,0.09563792,-0.03105508,-0.05524717,-0.01898144,0.5790571,69.71679,29.35
4,-0.05334473,-0.2995148,0.9525909,0.5975106,-0.07397461,-0.3160858,0.9458313,-33.84665,4.284668,-29.53702,4.249512,0.5810337,0.5034814,0.1800008,0.03814697,-0.2236786,0.9739075,28.74361,3.12059,-26.56299,4.430466,0.6268805,0.497516,0.05408633,1.237781,0.0957166,-0.03081858,-0.05492092,-0.01917204,0.5790571,69.71679,29.35
4,-0.07090759,-0.3079681,0.9487457,0.5476453,-0.07350159,-0.3178864,0.9452667,-33.84892,4.294159,-29.53607,4.249344,0.5810337,0.5034814,0.1372736,0.02851868,0.07606506,0.9966888,28.80006,1.702103,-26.98166,4.510406,0.6267717,0.4977393,0.05417931,1.237648,0.09583414,-0.03019211,-0.05446224,-0.01910937,0.5790571,16.99511,29.35
4,-0.07090759,-0.3079681,0.9487457,0.5476453,-0.07350159,-0.3178864,0.9452667,-33.84892,4.294159,-29.53607,4.249344,0.5810337,0.5034814,0.1372736,0.02851868,0.07606506,0.9966888,28.80006,1.702103,-26.98166,4.510406,0.6267717,0.4977393,0.05417931,1.237648,0.09583414,-0.03019211,-0.05446224,-0.01910937,0.5790571,16.99511,29.35
4,-0.07298279,-0.3211975,0.9441833,0.534775,-0.07373047,-0.3228302,0.943573,-33.85097,4.295029,-29.53423,4.282852,0.5811432,0.5043266,0.1652329,-0.01934814,-0.2012482,0.9793396,29.03334,3.025467,-26.69322,4.455978,0.6267327,0.4979376,0.05425251,1.237545,0.09587586,-0.0297774,-0.05437585,-0.01900263,0.5790571,16.99511,29.35
4,-0.07298279,-0.3211975,0.9441833,0.534775,-0.07373047,-0.3228302,0.943573,-33.85097,4.295029,-29.53423,4.282852,0.5811432,0.5043266,0.1652329,-0.01934814,-0.2012482,0.9793396,29.03334,3.025467,-26.69322,4.455978,0.6267327,0.4979376,0.05425251,1.237545,0.09587586,-0.0297774,-0.05437585,-0.01900263,0.5790571,16.99511,29.35
4,-0.07298279,-0.3211975,0.9441833,0.534775,-0.07373047,-0.3228302,0.943573,-33.85097,4.295029,-29.53423,4.282852,0.5811432,0.5043266,0.1652329,-0.01934814,-0.2012482,0.9793396,29.03334,3.025467,-26.69322,4.455978,0.6267327,0.4979376,0.05435169,1.237341,0.09594971,-0.0289183,-0.05405427,-0.01923256,0.5790571,16.99511,29.35
4,-0.07298279,-0.3211975,0.9441833,0.534775,-0.07373047,-0.3228302,0.943573,-33.85097,4.295029,-29.53423,4.282852,0.5811432,0.5043266,0.1652329,-0.01934814,-0.2012482,0.9793396,29.03334,3.025467,-26.69322,4.455978,0.6267327,0.4979376,0.05438781,1.237305,0.09601367,-0.02862568,-0.05369609,-0.01939612,0.5790571,16.99511,29.35
4,-0.07298279,-0.3211975,0.9441833,0.534775,-0.07373047,-0.3228302,0.943573,-33.85097,4.295029,-29.53423,4.282852,0.5811432,0.5043266,0.1652329,-0.01934814,-0.2012482,0.9793396,29.03334,3.025467,-26.69322,4.455978,0.6267327,0.4979376,0.05439913,1.237302,0.09599084,-0.02861553,-0.05339428,-0.01942721,0.5790571,16.99511,29.35
4,-0.07298279,-0.3211975,0.9441833,0.534775,-0.07373047,-0.3228302,0.943573,-33.85097,4.295029,-29.53423,4.282852,0.5811432,0.5043266,0.1652329,-0.01934814,-0.2012482,0.9793396,29.03334,3.025467,-26.69322,4.455978,0.6267327,0.4979376,0.05439913,1.237302,0.09599084,-0.02861553,-0.05339428,-0.01942721,0.5790571,16.99511,29.35
4,-0.07423401,-0.3294525,0.9412384,0.5417681,-0.07434082,-0.3275909,0.9418793,-33.84778,4.297821,-29.5338,4.242004,0.5811432,0.5051146,0.1569342,-0.0657196,-0.4603729,0.8852692,29.26691,4.347412,-26.40421,4.514404,0.6266201,0.4979376,0.05445206,1.237317,0.09603047,-0.02881997,-0.05294757,-0.0193519,0.5790571,16.99511,29.35
4,-0.08554077,-0.3258667,0.9415283,0.537599,-0.08604431,-0.3232727,0.9423828,-33.815,4.318314,-29.52751,4.382263,0.5819618,0.5035815,0.1438181,-0.05778503,-0.4608612,0.8855743,29.2672,4.346008,-26.40364,4.527939,0.6252966,0.4980347,0.05445659,1.237363,0.09606767,-0.02882902,-0.05284122,-0.01934073,0.5790571,16.99511,29.35
4,-0.06608582,-0.3383179,0.9386902,0.5360586,-0.06686401,-0.3334198,0.9403992,-33.80835,4.323639,-29.52751,4.144592,0.5785494,0.5052311,0.1569737,-0.05004883,-0.436554,0.8982697,29.26837,4.205978,-26.40479,4.563507,0.6239145,0.4981319,0.05440927,1.23742,0.09611952,-0.02911012,-0.05279651,-0.01909455,0.5790571,16.99511,29.35
4,-0.06088257,-0.3690796,0.9273987,0.5522883,-0.06866455,-0.3318481,0.9408264,-33.80835,4.319885,-29.52724,4.25264,0.5788482,0.5050505,0.1716824,-0.04655457,-0.434845,0.899292,29.27292,4.195313,-26.43741,4.528442,0.6232128,0.4984744,0.05441225,1.237444,0.09617364,-0.02918961,-0.05289477,-0.01884751,0.5790571,16.99511,29.35
4,-0.06088257,-0.3690796,0.9273987,0.5522883,-0.06866455,-0.3318481,0.9408264,-33.80835,4.319885,-29.52724,4.25264,0.5788482,0.5050505,0.1716824,-0.04655457,-0.434845,0.899292,29.27292,4.195313,-26.43741,4.528442,0.6232128,0.4984744,0.05441225,1.237444,0.09617364,-0.02918961,-0.05289477,-0.01884751,0.5790571,16.99511,29.35
4,-0.05509949,-0.3802643,0.923233,0.5464945,-0.06735229,-0.3235321,0.9438019,-33.815,4.318314,-29.52692,4.258575,0.5788482,0.5035815,0.1828542,-0.04283142,-0.4347229,0.8995361,29.27412,4.193985,-26.43867,4.562012,0.6225606,0.4984744,0.05437815,1.23744,0.09618473,-0.02928696,-0.05277999,-0.01877702,0.5790571,16.99511,29.35
4,-0.05509949,-0.3802643,0.923233,0.5464945,-0.06735229,-0.3235321,0.9438019,-33.815,4.318314,-29.52692,4.258575,0.5788482,0.5035815,0.1828542,-0.04283142,-0.4347229,0.8995361,29.27412,4.193985,-26.43867,4.562012,0.6225606,0.4984744,0.05429447,1.237562,0.0961504,-0.02946298,-0.05269098,-0.0186552,0.5790571,16.99511,29.35
4,-0.05509949,-0.3802643,0.923233,0.5464945,-0.06735229,-0.3235321,0.9438019,-33.815,4.318314,-29.52692,4.258575,0.5788482,0.5035815,0.1828542,-0.04283142,-0.4347229,0.8995361,29.27412,4.193985,-26.43867,4.562012,0.6225606,0.4984744,0.05424619,1.237605,0.09616059,-0.02957782,-0.05245928,-0.018658,0.5790571,16.99511,29.35
4,-0.05509949,-0.3802643,0.923233,0.5464945,-0.06735229,-0.3235321,0.9438019,-33.815,4.318314,-29.52692,4.258575,0.5788482,0.5035815,0.1828542,-0.04283142,-0.4347229,0.8995361,29.27412,4.193985,-26.43867,4.562012,0.6225606,0.4984744,0.05427444,1.237612,0.0962007,-0.02981491,-0.05250116,-0.01866159,0.5790571,16.99511,29.35
4,-0.05509949,-0.3802643,0.923233,0.5464945,-0.06735229,-0.3235321,0.9438019,-33.815,4.318314,-29.52692,4.258575,0.5788482,0.5035815,0.1828542,-0.04283142,-0.4347229,0.8995361,29.27412,4.193985,-26.43867,4.562012,0.6225606,0.4984744,0.05427444,1.237612,0.0962007,-0.02981491,-0.05250116,-0.01866159,0.5790571,16.99511,29.35
4,-0.05509949,-0.3802643,0.923233,0.5464945,-0.06735229,-0.3235321,0.9438019,-33.815,4.318314,-29.52692,4.258575,0.5788482,0.5035815,0.1828542,-0.04283142,-0.4347229,0.8995361,29.27412,4.193985,-26.43867,4.562012,0.6225606,0.4984744,0.05422282,1.237714,0.09622043,-0.03021136,-0.05233586,-0.01851127,0.5790571,140.0435,29.35
4,-0.05477905,-0.3808594,0.9229889,0.5464945,-0.06643677,-0.3266907,0.9427795,-33.81502,4.313477,-29.52708,4.268311,0.5786988,0.504316,0.1828542,-0.0428772,-0.4339905,0.8998871,29.27591,4.188354,-26.43877,4.566147,0.6225064,0.4985192,0.05421364,1.237708,0.09621894,-0.0303123,-0.0523703,-0.01844999,0.5790571,140.0435,29.35
4,-0.05477905,-0.3808594,0.9229889,0.5464945,-0.06643677,-0.3266907,0.9427795,-33.81502,4.313477,-29.52708,4.268311,0.5786988,0.504316,0.1828542,-0.0428772,-0.4339905,0.8998871,29.27591,4.188354,-26.43877,4.566147,0.6225064,0.4985192,0.05417585,1.237704,0.09624219,-0.03019285,-0.05232262,-0.01823512,0.5790571,140.0435,29.35
4,-0.05477905,-0.3808594,0.9229889,0.5464945,-0.06643677,-0.3266907,0.9427795,-33.81502,4.313477,-29.52708,4.268311,0.5786988,0.504316,0.1828542,-0.0428772,-0.4339905,0.8998871,29.27591,4.188354,-26.43877,4.566147,0.6225064,0.4985192,0.05417585,1.237704,0.09624219,-0.03019285,-0.05232262,-0.01823512,0.5790571,140.0435,29.35
4,-0.05477905,-0.3808594,0.9229889,0.5464945,-0.06643677,-0.3266907,0.9427795,-33.81502,4.313477,-29.52708,4.268311,0.5786988,0.504316,0.1828542,-0.0428772,-0.4339905,0.8998871,29.27591,4.188354,-26.43877,4.566147,0.6225064,0.4985192,0.05413163,1.237635,0.09629059,-0.03021579,-0.05255124,-0.01813063,0.5790571,140.0435,29.35
4,-0.05477905,-0.3808594,0.9229889,0.5464945,-0.06643677,-0.3266907,0.9427795,-33.81502,4.313477,-29.52708,4.268311,0.5786988,0.504316,0.1828542,-0.0428772,-0.4339905,0.8998871,29.27591,4.188354,-26.43877,4.566147,0.6225064,0.4985192,0.05411065,1.237638,0.09628564,-0.03021357,-0.05261825,-0.01810472,0.5790571,140.0435,29.35
4,-0.05921936,-0.3687439,0.9276276,0.5826816,-0.07566833,-0.3028107,0.9500275,-33.83002,4.254791,-29.53307,4.507996,0.5807302,0.5020134,0.1604135,-0.04244995,-0.432785,0.9004822,29.27768,4.182724,-26.4379,4.573944,0.6223714,0.4984744,0.05410278,1.237632,0.09631801,-0.03017014,-0.05258907,-0.01814665,0.5867437,140.0435,29.35
4,-0.05091858,-0.3840332,0.9219055,0.6191736,-0.06092834,-0.3223572,0.9446411,-33.84082,4.255829,-29.53171,4.45932,0.5786605,0.5054514,0.216398,-0.04269409,-0.4324036,0.90065,29.28076,4.179199,-26.4379,4.58432,0.6223062,0.4985192,0.05405796,1.237637,0.0963546,-0.03001739,-0.05257902,-0.01815609,0.5841815,140.0435,29.35
4,-0.05091858,-0.3840332,0.9219055,0.6191736,-0.06092834,-0.3223572,0.9446411,-33.84082,4.255829,-29.53171,4.45932,0.5786605,0.5054514,0.216398,-0.04269409,-0.4324036,0.90065,29.28076,4.179199,-26.4379,4.58432,0.6223062,0.4985192,0.05405796,1.237637,0.0963546,-0.03001739,-0.05257902,-0.01815609,0.5841815,140.0435,29.35
4,-0.0534668,-0.3839874,0.9217834,0.6111175,-0.06906128,-0.3190002,0.9452209,-33.84698,4.257874,-29.53227,4.521881,0.580223,0.5048028,0.2061399,-0.04072571,-0.4347839,0.8995972,29.28772,4.179199,-26.4379,4.574265,0.6217482,0.4989656,0.0540638,1.237612,0.09635442,-0.02959368,-0.05262081,-0.01810637,0.5841815,140.0435,29.35
4,-0.05125427,-0.3879089,0.9202576,0.6088033,-0.06977844,-0.3192444,0.9450836,-33.84351,4.25943,-29.53311,4.522018,0.580223,0.5048028,0.2213784,-0.03666687,-0.4396973,0.8973846,29.28926,4.178391,-26.43741,4.572189,0.6210333,0.4998977,0.05406928,1.237572,0.09635925,-0.02945033,-0.05264939,-0.01795264,0.5841815,140.0435,29.35
4,-0.05125427,-0.3879089,0.9202576,0.6088033,-0.06977844,-0.3192444,0.9450836,-33.84351,4.25943,-29.53311,4.522018,0.580223,0.5048028,0.2213784,-0.03666687,-0.4396973,0.8973846,29.28926,4.178391,-26.43741,4.572189,0.6210333,0.4998977,0.05406928,1.237572,0.09635925,-0.02945033,-0.05264939,-0.01795264,0.5841815,140.0435,29.35
4,-0.05091858,-0.385025,0.9214935,0.6088033,-0.07003784,-0.3117371,0.9475708,-33.84308,4.25946,-29.53268,4.561783,0.5802455,0.5034249,0.2213784,-0.03601074,-0.4395752,0.8974762,29.28955,4.177628,-26.4379,4.575943,0.6209164,0.4998977,0.0540911,1.237554,0.09636855,-0.0293045,-0.05272901,-0.01789652,0.5841815,140.0435,29.35
4,-0.05091858,-0.385025,0.9214935,0.6088033,-0.07003784,-0.3117371,0.9475708,-33.84308,4.25946,-29.53268,4.561783,0.5802455,0.5034249,0.2213784,-0.03601074,-0.4395752,0.8974762,29.28955,4.177628,-26.4379,4.575943,0.6209164,0.4998977,0.05414045,1.23755,0.09640098,-0.02916842,-0.05267614,-0.01787236,0.5841815,-25.80135,29.35
4,-0.05091858,-0.385025,0.9214935,0.6088033,-0.07003784,-0.3117371,0.9475708,-33.84308,4.25946,-29.53268,4.561783,0.5802455,0.5034249,0.2213784,-0.03601074,-0.4395752,0.8974762,29.28955,4.177628,-26.4379,4.575943,0.6209164,0.4998977,0.05432141,1.237644,0.09640133,-0.0291697,-0.05251507,-0.01784691,0.5841815,-25.80135,29.35
4,-0.05091858,-0.385025,0.9214935,0.6088033,-0.07003784,-0.3117371,0.9475708,-33.84308,4.25946,-29.53268,4.561783,0.5802455,0.5034249,0.2213784,-0.03601074,-0.4395752,0.8974762,29.28955,4.177628,-26.4379,4.575943,0.6209164,0.4998977,0.05432141,1.237644,0.09640133,-0.0291697,-0.05251507,-0.01784691,0.5841815,-25.80135,29.35
4,-0.05091858,-0.385025,0.9214935,0.6088033,-0.07003784,-0.3117371,0.9475708,-33.84308,4.25946,-29.53268,4.561783,0.5802455,0.5034249,0.2213784,-0.03601074,-0.4395752,0.8974762,29.28955,4.177628,-26.4379,4.575943,0.6209164,0.4998977,0.05446827,1.237578,0.09638488,-0.02916101,-0.05223112,-0.01792273,0.5841815,-25.80135,29.35
4,-0.05091858,-0.385025,0.9214935,0.6088033,-0.07003784,-0.3117371,0.9475708,-33.84308,4.25946,-29.53268,4.561783,0.5802455,0.5034249,0.2213784,-0.03601074,-0.4395752,0.8974762,29.28955,4.177628,-26.4379,4.575943,0.6209164,0.4998977,0.05446827,1.237578,0.09638488,-0.02916101,-0.05223112,-0.01792273,0.5841815,-25.80135,29.35
4,-0.05448914,-0.3874817,0.9202576,0.6408491,-0.07019043,-0.3062286,0.9493561,-33.8425,4.25975,-29.53165,4.571503,0.5802455,0.5024114,0.2093757,-0.04290771,-0.4442596,0.8948517,29.31169,4.185028,-26.43297,4.618591,0.6213062,0.5004798,0.05461848,1.237537,0.09634614,-0.02919012,-0.05191693,-0.01810884,0.5841815,-25.80135,29.35
