Second,eye_comb_direction_x,eye_comb_direction_y,eye_comb_direction_z,eye_r_openness,eye_r_direction_x,eye_r_direction_y,eye_r_direction_z,eye_r_origin_x,eye_r_origin_y,eye_r_origin_z,eye_r_pupil_diameter,eye_r_pupil_position_x,eye_r_pupil_position_y,eye_l_openness,eye_l_direction_x,eye_l_direction_y,eye_l_direction_z,eye_l_origin_x,eye_l_origin_y,eye_l_origin_z,eye_l_pupil_diameter,eye_l_pupil_position_x,eye_l_pupil_position_y,head_position_x,head_position_y,head_position_z,head_rotation_roll,head_rotation_pitch,head_rotation_yaw,EDA,BVP,TMP
0,0.02748108,-0.2923279,0.9559174,1.0,-0.1457214,-0.2746582,0.9504242,-31.49925,-1.214249,-28.41231,2.8181,0.5234768,0.667848,1.0,0.1522675,-0.2995910999999999,0.9418335,34.440290000000005,-0.4699554,-27.25354,3.622406,0.4212179,0.6187236999999999,-0.1106775,1.296482,-0.2480841,-0.04320168,0.6399199000000001,0.0259855,0.7268507,-0.04186954494494493,32.73907657657657
0,0.02748108,-0.2923279,0.9559174,1.0,-0.1457214,-0.2746582,0.9504242,-31.49925,-1.214249,-28.41231,2.8181,0.5234768,0.667848,1.0,0.1522675,-0.2995910999999999,0.9418335,34.440290000000005,-0.4699554,-27.25354,3.622406,0.4212179,0.6187236999999999,-0.1106775,1.296482,-0.2480841,-0.04320168,0.6399199000000001,0.0259855,0.7268507,-0.04186954494494493,32.73907657657657
0,0.02748108,-0.2923279,0.9559174,1.0,-0.1457214,-0.2746582,0.9504242,-31.49925,-1.214249,-28.41231,2.8181,0.5234768,0.667848,1.0,0.1522675,-0.2995910999999999,0.9418335,34.440290000000005,-0.4699554,-27.25354,3.622406,0.4212179,0.6187236999999999,-0.1106775,1.296482,-0.2480841,-0.04320168,0.6399199000000001,0.0259855,0.7268507,-0.04186954494494493,32.73907657657657
0,0.02630615,-0.2906494,0.9564514,1.0,-0.1461638999999999,-0.2747954999999999,0.9503174,-31.50522,-1.213348,-28.41174,2.817154,0.5237369000000001,0.6678316,1.0,0.1507568,-0.2966919,0.9429932,34.440290000000005,-0.4694214,-27.25232,3.5651550000000003,0.4214431999999999,0.6183141,-0.1104428999999999,1.296461,-0.2479149,-0.04327035,0.639881,0.02541541,0.7268507,-0.04186954494494493,32.73907657657657
0,0.02630615,-0.2906494,0.9564514,1.0,-0.1461638999999999,-0.2747954999999999,0.9503174,-31.50522,-1.213348,-28.41174,2.817154,0.5237369000000001,0.6678316,1.0,0.1507568,-0.2966919,0.9429932,34.440290000000005,-0.4694214,-27.25232,3.5651550000000003,0.4214431999999999,0.6183141,-0.1104428999999999,1.296461,-0.2479149,-0.04327035,0.639881,0.02541541,0.7268507,-0.04186954494494493,32.73907657657657
0,0.02630615,-0.2906494,0.9564514,1.0,-0.1461638999999999,-0.2747954999999999,0.9503174,-31.50522,-1.213348,-28.41174,2.817154,0.5237369000000001,0.6678316,1.0,0.1507568,-0.2966919,0.9429932,34.440290000000005,-0.4694214,-27.25232,3.5651550000000003,0.4214431999999999,0.6183141,-0.1104428999999999,1.296461,-0.2479149,-0.04327035,0.639881,0.02541541,0.7268507,-0.04186954494494493,32.73907657657657
0,0.02391052,-0.2948151,0.955246,1.0,-0.1528931,-0.2787476,0.9481049,-31.5168,-1.19664,-28.4113,2.789291,0.5249666999999999,0.6678029000000001,1.0,0.1526947,-0.3006744,0.9414063,34.42747,-0.4440613,-27.24773,3.550934,0.4216555,0.6179306999999999,-0.1104821999999999,1.296377,-0.2479547,-0.04284468,0.6397763000000001,0.02551547,0.7268507,-0.04186954494494493,32.73907657657657
0,0.02391052,-0.2948151,0.955246,1.0,-0.1528931,-0.2787476,0.9481049,-31.5168,-1.19664,-28.4113,2.789291,0.5249666999999999,0.6678029000000001,1.0,0.1526947,-0.3006744,0.9414063,34.42747,-0.4440613,-27.24773,3.550934,0.4216555,0.6179306999999999,-0.1104821999999999,1.296377,-0.2479547,-0.04284468,0.6397763000000001,0.02551547,0.7268507,-0.04186954494494493,32.73907657657657
0,0.02391052,-0.2948151,0.955246,1.0,-0.1528931,-0.2787476,0.9481049,-31.5168,-1.19664,-28.4113,2.789291,0.5249666999999999,0.6678029000000001,1.0,0.1526947,-0.3006744,0.9414063,34.42747,-0.4440613,-27.24773,3.550934,0.4216555,0.6179306999999999,-0.1104821999999999,1.296377,-0.2479547,-0.04284468,0.6397763000000001,0.02551547,0.7268507,-0.04186954494494493,32.73907657657657
0,0.02337646,-0.2961730999999999,0.954834,1.0,-0.1533507999999999,-0.2768555,0.9485779,-31.52562,-1.194977,-28.41103,2.725006,0.5252941,0.6674796,1.0,0.152771,-0.3043976,0.9402008,34.416340000000005,-0.4333954,-27.24413,3.517471,0.4220423,0.618017,-0.1104276,1.296337,-0.2478514,-0.04251755,0.6399215,0.02547573,0.7268507,-0.04186954494494493,32.73907657657657
0,0.02337646,-0.2961730999999999,0.954834,1.0,-0.1533507999999999,-0.2768555,0.9485779,-31.52562,-1.194977,-28.41103,2.725006,0.5252941,0.6674796,1.0,0.152771,-0.3043976,0.9402008,34.416340000000005,-0.4333954,-27.24413,3.517471,0.4220423,0.618017,-0.1104276,1.296337,-0.2478514,-0.04251755,0.6399215,0.02547573,0.7268507,-0.04186954494494493,32.73907657657657
0,0.02337646,-0.2961730999999999,0.954834,1.0,-0.1533507999999999,-0.2768555,0.9485779,-31.52562,-1.194977,-28.41103,2.725006,0.5252941,0.6674796,1.0,0.152771,-0.3043976,0.9402008,34.416340000000005,-0.4333954,-27.24413,3.517471,0.4220423,0.618017,-0.1104276,1.296337,-0.2478514,-0.04251755,0.6399215,0.02547573,0.7268507,-0.04186954494494493,32.73907657657657
0,0.02420044,-0.295517,0.9550171,1.0,-0.1534424,-0.2775725999999999,0.9483643,-31.53598,-1.181076,-28.4055,2.669373,0.5256344000000001,0.6670299,1.0,0.1521149,-0.3026123,0.9408875,34.41174,-0.4315186,-27.24278,3.464874,0.422314,0.6177049,-0.1105864,1.296246,-0.2478762,-0.04232532,0.6399986,0.02567339,0.7268507,-0.04186954494494493,32.73907657657657
0,0.02420044,-0.295517,0.9550171,1.0,-0.1534424,-0.2775725999999999,0.9483643,-31.53598,-1.181076,-28.4055,2.669373,0.5256344000000001,0.6670299,1.0,0.1521149,-0.3026123,0.9408875,34.41174,-0.4315186,-27.24278,3.464874,0.422314,0.6177049,-0.1105864,1.296246,-0.2478762,-0.04232532,0.6399986,0.02567339,0.7268507,-0.04186954494494493,32.73907657657657
0,0.02420044,-0.295517,0.9550171,1.0,-0.1534424,-0.2775725999999999,0.9483643,-31.53598,-1.181076,-28.4055,2.669373,0.5256344000000001,0.6670299,1.0,0.1521149,-0.3026123,0.9408875,34.41174,-0.4315186,-27.24278,3.464874,0.422314,0.6177049,-0.1105864,1.296246,-0.2478762,-0.04232532,0.6399986,0.02567339,0.7268507,-0.04186954494494493,32.73907657657657
0,0.02577209,-0.2957764,0.954895,1.0,-0.1533356,-0.2777252,0.9483337,-31.53877,-1.179443,-28.40482,2.620728,0.5256928000000001,0.6669847,1.0,0.1525573999999999,-0.3027649,0.9407654,34.40913,-0.4302826,-27.24228,3.45491,0.4223532999999999,0.617681,-0.110677,1.296163,-0.2478722,-0.04228842,0.6399776,0.02584678,0.7268507,-0.04186954494494493,32.73907657657657
0,0.02577209,-0.2957764,0.954895,1.0,-0.1533356,-0.2777252,0.9483337,-31.53877,-1.179443,-28.40482,2.620728,0.5256928000000001,0.6669847,1.0,0.1525573999999999,-0.3027649,0.9407654,34.40913,-0.4302826,-27.24228,3.45491,0.4223532999999999,0.617681,-0.110677,1.296163,-0.2478722,-0.04228842,0.6399776,0.02584678,0.7268507,-0.04186954494494493,32.73907657657657
0,0.02577209,-0.2957764,0.954895,1.0,-0.1533356,-0.2777252,0.9483337,-31.53877,-1.179443,-28.40482,2.620728,0.5256928000000001,0.6669847,1.0,0.1525573999999999,-0.3027649,0.9407654,34.40913,-0.4302826,-27.24228,3.45491,0.4223532999999999,0.617681,-0.110677,1.296163,-0.2478722,-0.04228842,0.6399776,0.02584678,0.7268507,-0.04186954494494493,32.73907657657657
0,0.02577209,-0.2957764,0.954895,1.0,-0.1533356,-0.2777252,0.9483337,-31.53877,-1.179443,-28.40482,2.620728,0.5256928000000001,0.6669847,1.0,0.1525573999999999,-0.3027649,0.9407654,34.40913,-0.4302826,-27.24228,3.45491,0.4223532999999999,0.617681,-0.1106687,1.296108,-0.2477226,-0.04210355,0.6397663,0.02581939,0.7268507,-0.04186954494494493,32.73907657657657
0,0.02577209,-0.2957764,0.954895,1.0,-0.1533356,-0.2777252,0.9483337,-31.53877,-1.179443,-28.40482,2.620728,0.5256928000000001,0.6669847,1.0,0.1525573999999999,-0.3027649,0.9407654,34.40913,-0.4302826,-27.24228,3.45491,0.4223532999999999,0.617681,-0.1106687,1.296108,-0.2477226,-0.04210355,0.6397663,0.02581939,0.7268507,-0.04186954494494493,32.73907657657657
0,0.02577209,-0.2957764,0.954895,1.0,-0.1533356,-0.2777252,0.9483337,-31.53877,-1.179443,-28.40482,2.620728,0.5256928000000001,0.6669847,1.0,0.1525573999999999,-0.3027649,0.9407654,34.40913,-0.4302826,-27.24228,3.45491,0.4223532999999999,0.617681,-0.1106687,1.296108,-0.2477226,-0.04210355,0.6397663,0.02581939,0.7268507,-0.04186954494494493,32.73907657657657
0,0.02577209,-0.2957764,0.954895,1.0,-0.1533356,-0.2777252,0.9483337,-31.53877,-1.179443,-28.40482,2.620728,0.5256928000000001,0.6669847,1.0,0.1525573999999999,-0.3027649,0.9407654,34.40913,-0.4302826,-27.24228,3.45491,0.4223532999999999,0.617681,-0.1107198999999999,1.296111,-0.2476211,-0.04210603,0.6395478,0.02569558,0.7268507,-0.04186954494494493,32.73907657657657
0,0.02577209,-0.2957764,0.954895,1.0,-0.1533356,-0.2777252,0.9483337,-31.53877,-1.179443,-28.40482,2.620728,0.5256928000000001,0.6669847,1.0,0.1525573999999999,-0.3027649,0.9407654,34.40913,-0.4302826,-27.24228,3.45491,0.4223532999999999,0.617681,-0.1107198999999999,1.296111,-0.2476211,-0.04210603,0.6395478,0.02569558,0.7268507,-0.04186954494494493,32.73907657657657
0,0.02577209,-0.2957764,0.954895,1.0,-0.1533356,-0.2777252,0.9483337,-31.53877,-1.179443,-28.40482,2.620728,0.5256928000000001,0.6669847,1.0,0.1525573999999999,-0.3027649,0.9407654,34.40913,-0.4302826,-27.24228,3.45491,0.4223532999999999,0.617681,-0.1107198999999999,1.296111,-0.2476211,-0.04210603,0.6395478,0.02569558,0.7268507,-0.04186954494494493,32.73907657657657
0,0.02577209,-0.2957764,0.954895,1.0,-0.1533356,-0.2777252,0.9483337,-31.53877,-1.179443,-28.40482,2.620728,0.5256928000000001,0.6669847,1.0,0.1525573999999999,-0.3027649,0.9407654,34.40913,-0.4302826,-27.24228,3.45491,0.4223532999999999,0.617681,-0.110738,1.29615,-0.2475465,-0.04201099,0.6393115,0.02583857,0.7268507,0.1113892,32.73907657657657
0,0.02577209,-0.2957764,0.954895,1.0,-0.1533356,-0.2777252,0.9483337,-31.53877,-1.179443,-28.40482,2.620728,0.5256928000000001,0.6669847,1.0,0.1525573999999999,-0.3027649,0.9407654,34.40913,-0.4302826,-27.24228,3.45491,0.4223532999999999,0.617681,-0.110738,1.29615,-0.2475465,-0.04201099,0.6393115,0.02583857,0.7268507,0.1113892,32.73907657657657
0,0.02577209,-0.2957764,0.954895,1.0,-0.1533356,-0.2777252,0.9483337,-31.53877,-1.179443,-28.40482,2.620728,0.5256928000000001,0.6669847,1.0,0.1525573999999999,-0.3027649,0.9407654,34.40913,-0.4302826,-27.24228,3.45491,0.4223532999999999,0.617681,-0.110738,1.29615,-0.2475465,-0.04201099,0.6393115,0.02583857,0.7268507,0.1113892,32.73907657657657
0,0.02642822,-0.2963409,0.9547119,1.0,-0.1533507999999999,-0.2779845999999999,0.9482574,-31.53877,-1.178452,-28.40306,2.615952,0.5256928000000001,0.6669651999999999,1.0,0.1529846,-0.3034821,0.9404602,34.40854,-0.4286957,-27.24133,3.407089,0.4223532999999999,0.6177049,-0.1107983999999999,1.296053,-0.2474726,-0.04189324,0.6391933000000001,0.02574874,0.7268507,0.1113892,32.73907657657657
0,0.02642822,-0.2963409,0.9547119,1.0,-0.1533507999999999,-0.2779845999999999,0.9482574,-31.53877,-1.178452,-28.40306,2.615952,0.5256928000000001,0.6669651999999999,1.0,0.1529846,-0.3034821,0.9404602,34.40854,-0.4286957,-27.24133,3.407089,0.4223532999999999,0.6177049,-0.1107983999999999,1.296053,-0.2474726,-0.04189324,0.6391933000000001,0.02574874,0.7268507,0.1113892,32.73907657657657
0,0.02642822,-0.2963409,0.9547119,1.0,-0.1533507999999999,-0.2779845999999999,0.9482574,-31.53877,-1.178452,-28.40306,2.615952,0.5256928000000001,0.6669651999999999,1.0,0.1529846,-0.3034821,0.9404602,34.40854,-0.4286957,-27.24133,3.407089,0.4223532999999999,0.6177049,-0.1107983999999999,1.296053,-0.2474726,-0.04189324,0.6391933000000001,0.02574874,0.7268507,0.1113892,32.73907657657657
1,0.02642822,-0.2963409,0.9547119,1.0,-0.1533507999999999,-0.2779845999999999,0.9482574,-31.53877,-1.178452,-28.40306,2.615952,0.5256928000000001,0.6669651999999999,1.0,0.1529846,-0.3034821,0.9404602,34.40854,-0.4286957,-27.24133,3.407089,0.4223532999999999,0.6177049,-0.1108341,1.296045,-0.2474027999999999,-0.04192578,0.6392055,0.02574497,0.7268507,0.1113892,32.73907657657657
1,0.02642822,-0.2963409,0.9547119,1.0,-0.1533507999999999,-0.2779845999999999,0.9482574,-31.53877,-1.178452,-28.40306,2.615952,0.5256928000000001,0.6669651999999999,1.0,0.1529846,-0.3034821,0.9404602,34.40854,-0.4286957,-27.24133,3.407089,0.4223532999999999,0.6177049,-0.1108341,1.296045,-0.2474027999999999,-0.04192578,0.6392055,0.02574497,0.7268507,0.1113892,32.73907657657657
1,0.02642822,-0.2963409,0.9547119,1.0,-0.1533507999999999,-0.2779845999999999,0.9482574,-31.53877,-1.178452,-28.40306,2.615952,0.5256928000000001,0.6669651999999999,1.0,0.1529846,-0.3034821,0.9404602,34.40854,-0.4286957,-27.24133,3.407089,0.4223532999999999,0.6177049,-0.1108341,1.296045,-0.2474027999999999,-0.04192578,0.6392055,0.02574497,0.7268507,0.1113892,32.73907657657657
1,0.1826782,-0.4116058,0.8928528,1.0,0.04293823,-0.3956604,0.9173889,-30.56853,-1.633743,-28.54858,2.442032,0.4673905,0.7001076,1.0,0.3566284,-0.419754,0.8346252000000001,35.1609,-0.8243560999999999,-27.53261,2.922272,0.370775,0.6506137,-0.1109101999999999,1.296061,-0.247411,-0.04181581,0.6391106,0.02612134,0.7268507,0.1113892,32.73907657657657
1,0.1826782,-0.4116058,0.8928528,1.0,0.04293823,-0.3956604,0.9173889,-30.56853,-1.633743,-28.54858,2.442032,0.4673905,0.7001076,1.0,0.3566284,-0.419754,0.8346252000000001,35.1609,-0.8243560999999999,-27.53261,2.922272,0.370775,0.6506137,-0.1109101999999999,1.296061,-0.247411,-0.04181581,0.6391106,0.02612134,0.7268507,0.1113892,32.73907657657657
1,0.1826782,-0.4116058,0.8928528,1.0,0.04293823,-0.3956604,0.9173889,-30.56853,-1.633743,-28.54858,2.442032,0.4673905,0.7001076,1.0,0.3566284,-0.419754,0.8346252000000001,35.1609,-0.8243560999999999,-27.53261,2.922272,0.370775,0.6506137,-0.1109101999999999,1.296061,-0.247411,-0.04181581,0.6391106,0.02612134,0.7268507,0.1113892,32.73907657657657
1,0.1215363,-0.3995361,0.9086151,1.0,0.05093384,-0.3887787,0.9199066,-30.59807,-1.603973,-28.53439,2.419037,0.4673946,0.6979797,1.0,0.3434143,-0.4197845,0.8401337,35.17195,-0.7939301,-27.51465,2.912323,0.3721436999999999,0.6492606,-0.1109368999999999,1.296048,-0.2474034,-0.04169707,0.6392281,0.02623958,0.7268507,0.1113892,32.73907657657657
1,0.1215363,-0.3995361,0.9086151,1.0,0.05093384,-0.3887787,0.9199066,-30.59807,-1.603973,-28.53439,2.419037,0.4673946,0.6979797,1.0,0.3434143,-0.4197845,0.8401337,35.17195,-0.7939301,-27.51465,2.912323,0.3721436999999999,0.6492606,-0.1109368999999999,1.296048,-0.2474034,-0.04169707,0.6392281,0.02623958,0.7268507,0.1113892,32.73907657657657
1,0.1215363,-0.3995361,0.9086151,1.0,0.05093384,-0.3887787,0.9199066,-30.59807,-1.603973,-28.53439,2.419037,0.4673946,0.6979797,1.0,0.3434143,-0.4197845,0.8401337,35.17195,-0.7939301,-27.51465,2.912323,0.3721436999999999,0.6492606,-0.1109368999999999,1.296048,-0.2474034,-0.04169707,0.6392281,0.02623958,0.7268507,0.1113892,32.73907657657657
1,0.1215363,-0.3995361,0.9086151,1.0,0.05093384,-0.3887787,0.9199066,-30.59807,-1.603973,-28.53439,2.419037,0.4673946,0.6979797,1.0,0.3434143,-0.4197845,0.8401337,35.17195,-0.7939301,-27.51465,2.912323,0.3721436999999999,0.6492606,-0.1110315,1.296079,-0.2473981999999999,-0.04191342,0.6392025,0.0262514999999999,0.7268507,0.1113892,32.73907657657657
1,0.1215363,-0.3995361,0.9086151,1.0,0.05093384,-0.3887787,0.9199066,-30.59807,-1.603973,-28.53439,2.419037,0.4673946,0.6979797,1.0,0.3434143,-0.4197845,0.8401337,35.17195,-0.7939301,-27.51465,2.912323,0.3721436999999999,0.6492606,-0.1110315,1.296079,-0.2473981999999999,-0.04191342,0.6392025,0.0262514999999999,0.7268507,0.1113892,32.73907657657657
1,0.1215363,-0.3995361,0.9086151,1.0,0.05093384,-0.3887787,0.9199066,-30.59807,-1.603973,-28.53439,2.419037,0.4673946,0.6979797,1.0,0.3434143,-0.4197845,0.8401337,35.17195,-0.7939301,-27.51465,2.912323,0.3721436999999999,0.6492606,-0.1110315,1.296079,-0.2473981999999999,-0.04191342,0.6392025,0.0262514999999999,0.7268507,0.1113892,32.73907657657657
1,0.1230164,-0.4109192,0.9033203000000002,1.0,0.0620575,-0.4030914,0.9130402,-30.61018,-1.594086,-28.53769,2.327454,0.4662869,0.6997828,1.0,0.346283,-0.4259338,0.8358459,35.17596,-0.7853394,-27.517,2.844315,0.3716064,0.6499176,-0.1112645,1.296083,-0.247394,-0.04212275,0.6393068000000001,0.02612048,0.7268507,0.1113892,32.73907657657657
1,0.1230164,-0.4109192,0.9033203000000002,1.0,0.0620575,-0.4030914,0.9130402,-30.61018,-1.594086,-28.53769,2.327454,0.4662869,0.6997828,1.0,0.346283,-0.4259338,0.8358459,35.17596,-0.7853394,-27.517,2.844315,0.3716064,0.6499176,-0.1112645,1.296083,-0.247394,-0.04212275,0.6393068000000001,0.02612048,0.7268507,0.1113892,32.73907657657657
1,0.1230164,-0.4109192,0.9033203000000002,1.0,0.0620575,-0.4030914,0.9130402,-30.61018,-1.594086,-28.53769,2.327454,0.4662869,0.6997828,1.0,0.346283,-0.4259338,0.8358459,35.17596,-0.7853394,-27.517,2.844315,0.3716064,0.6499176,-0.1112645,1.296083,-0.247394,-0.04212275,0.6393068000000001,0.02612048,0.7268507,0.1113892,32.73907657657657
1,-0.1271515,-0.1847992,0.9745026,1.0,-0.1271515,-0.1847992,0.9745026,-31.17349,-0.4723662999999999,-29.01051,2.333313,0.5099802999999999,0.6360252,1.0,0.0,0.0,0.0,34.29295,0.03771973,-27.2551,-1.0,0.4218198,0.5799404,-0.1112645,1.296083,-0.247394,-0.04212275,0.6393068000000001,0.02612048,0.7268507,-11.02512,32.73907657657657
1,-0.1271515,-0.1847992,0.9745026,1.0,-0.1271515,-0.1847992,0.9745026,-31.17349,-0.4723662999999999,-29.01051,2.333313,0.5099802999999999,0.6360252,1.0,0.0,0.0,0.0,34.29295,0.03771973,-27.2551,-1.0,0.4218198,0.5799404,-0.1112645,1.296083,-0.247394,-0.04212275,0.6393068000000001,0.02612048,0.7268507,-11.02512,32.73907657657657
1,-0.1271515,-0.1847992,0.9745026,1.0,-0.1271515,-0.1847992,0.9745026,-31.17349,-0.4723662999999999,-29.01051,2.333313,0.5099802999999999,0.6360252,1.0,0.0,0.0,0.0,34.29295,0.03771973,-27.2551,-1.0,0.4218198,0.5799404,-0.1112645,1.296083,-0.247394,-0.04212275,0.6393068000000001,0.02612048,0.7268507,-11.02512,32.73907657657657
1,-0.1271515,-0.1847992,0.9745026,1.0,-0.1271515,-0.1847992,0.9745026,-31.17349,-0.4723662999999999,-29.01051,2.333313,0.5099802999999999,0.6360252,1.0,0.0,0.0,0.0,34.29295,0.03771973,-27.2551,-1.0,0.4218198,0.5799404,-0.111414,1.295998,-0.2474242,-0.0421162,0.6392886,0.02595193,0.7268507,-11.02512,32.73907657657657
1,-0.1271515,-0.1847992,0.9745026,1.0,-0.1271515,-0.1847992,0.9745026,-31.17349,-0.4723662999999999,-29.01051,2.333313,0.5099802999999999,0.6360252,1.0,0.0,0.0,0.0,34.29295,0.03771973,-27.2551,-1.0,0.4218198,0.5799404,-0.111414,1.295998,-0.2474242,-0.0421162,0.6392886,0.02595193,0.7268507,-11.02512,32.73907657657657
1,-0.1271515,-0.1847992,0.9745026,1.0,-0.1271515,-0.1847992,0.9745026,-31.17349,-0.4723662999999999,-29.01051,2.333313,0.5099802999999999,0.6360252,1.0,0.0,0.0,0.0,34.29295,0.03771973,-27.2551,-1.0,0.4218198,0.5799404,-0.111414,1.295998,-0.2474242,-0.0421162,0.6392886,0.02595193,0.7268507,-11.02512,32.73907657657657
1,-0.1119385,-0.1907196,0.975235,1.0,-0.1119385,-0.1907196,0.975235,-31.20903,-0.4814452999999999,-28.910020000000003,2.32399,0.5092498,0.6360747,1.0,0.0,0.0,0.0,34.31354,0.025177,-27.15686,-1.0,0.421351,0.583083,-0.1114328,1.295964,-0.2474461,-0.04183469,0.6392679,0.02584895,0.7268507,-11.02512,32.73907657657657
1,-0.1119385,-0.1907196,0.975235,1.0,-0.1119385,-0.1907196,0.975235,-31.20903,-0.4814452999999999,-28.910020000000003,2.32399,0.5092498,0.6360747,1.0,0.0,0.0,0.0,34.31354,0.025177,-27.15686,-1.0,0.421351,0.583083,-0.1114328,1.295964,-0.2474461,-0.04183469,0.6392679,0.02584895,0.7268507,-11.02512,32.73907657657657
1,-0.1119385,-0.1907196,0.975235,1.0,-0.1119385,-0.1907196,0.975235,-31.20903,-0.4814452999999999,-28.910020000000003,2.32399,0.5092498,0.6360747,1.0,0.0,0.0,0.0,34.31354,0.025177,-27.15686,-1.0,0.421351,0.583083,-0.1114328,1.295964,-0.2474461,-0.04183469,0.6392679,0.02584895,0.7268507,-11.02512,32.73907657657657
1,0.185791,-0.1657562,0.9684906,1.0,-0.1049194,-0.1835632,0.9773865,-31.33597,-0.5826110999999999,-28.53333,2.290421,0.5125592000000001,0.6348786,1.0,0.1973724,-0.1647339,0.9663849,34.42511,0.04438782,-27.13725,2.901276,0.417246,0.58314,-0.1114426,1.295924,-0.2473705,-0.04165595,0.6391134,0.02586436,0.7268507,-11.02512,32.73907657657657
1,0.185791,-0.1657562,0.9684906,1.0,-0.1049194,-0.1835632,0.9773865,-31.33597,-0.5826110999999999,-28.53333,2.290421,0.5125592000000001,0.6348786,1.0,0.1973724,-0.1647339,0.9663849,34.42511,0.04438782,-27.13725,2.901276,0.417246,0.58314,-0.1114426,1.295924,-0.2473705,-0.04165595,0.6391134,0.02586436,0.7268507,-11.02512,32.73907657657657
1,0.185791,-0.1657562,0.9684906,1.0,-0.1049194,-0.1835632,0.9773865,-31.33597,-0.5826110999999999,-28.53333,2.290421,0.5125592000000001,0.6348786,1.0,0.1973724,-0.1647339,0.9663849,34.42511,0.04438782,-27.13725,2.901276,0.417246,0.58314,-0.1114426,1.295924,-0.2473705,-0.04165595,0.6391134,0.02586436,0.7268507,-11.02512,32.73907657657657
1,0.1003723,-0.1712646,0.9800873,1.0,-0.1034546,-0.1688079999999999,0.9801940999999998,-31.356340000000003,-0.5865326,-28.51366,2.297455,0.5130729,0.6329051,1.0,0.1977997,-0.1698914,0.9653931,34.43942,0.06237793,-27.13423,2.88353,0.4167202,0.58314,-0.1114922,1.295854,-0.247369,-0.04142718,0.6388689999999999,0.02577187,0.7268507,-11.02512,32.73907657657657
1,0.1003723,-0.1712646,0.9800873,1.0,-0.1034546,-0.1688079999999999,0.9801940999999998,-31.356340000000003,-0.5865326,-28.51366,2.297455,0.5130729,0.6329051,1.0,0.1977997,-0.1698914,0.9653931,34.43942,0.06237793,-27.13423,2.88353,0.4167202,0.58314,-0.1114922,1.295854,-0.247369,-0.04142718,0.6388689999999999,0.02577187,0.7268507,-11.02512,32.73907657657657
1,0.1003723,-0.1712646,0.9800873,1.0,-0.1034546,-0.1688079999999999,0.9801940999999998,-31.356340000000003,-0.5865326,-28.51366,2.297455,0.5130729,0.6329051,1.0,0.1977997,-0.1698914,0.9653931,34.43942,0.06237793,-27.13423,2.88353,0.4167202,0.58314,-0.1114922,1.295854,-0.247369,-0.04142718,0.6388689999999999,0.02577187,0.7268507,-11.02512,32.73907657657657
1,0.08631897,-0.1726227,0.9811859,1.0,-0.1078948999999999,-0.1682281,0.9798126,-31.35956,-0.5826110999999999,-28.53333,2.297287,0.5137474,0.6329051,1.0,0.1975402999999999,-0.1721954,0.9650421,34.44173,0.06956482,-27.12923,2.880875,0.4166791,0.58314,-0.1113571999999999,1.295902,-0.2471557,-0.04127367,0.6387086999999999,0.02570066,0.7268507,-11.02512,32.73907657657657
1,0.08631897,-0.1726227,0.9811859,1.0,-0.1078948999999999,-0.1682281,0.9798126,-31.35956,-0.5826110999999999,-28.53333,2.297287,0.5137474,0.6329051,1.0,0.1975402999999999,-0.1721954,0.9650421,34.44173,0.06956482,-27.12923,2.880875,0.4166791,0.58314,-0.1113571999999999,1.295902,-0.2471557,-0.04127367,0.6387086999999999,0.02570066,0.7268507,-11.02512,32.73907657657657
1,0.08631897,-0.1726227,0.9811859,1.0,-0.1078948999999999,-0.1682281,0.9798126,-31.35956,-0.5826110999999999,-28.53333,2.297287,0.5137474,0.6329051,1.0,0.1975402999999999,-0.1721954,0.9650421,34.44173,0.06956482,-27.12923,2.880875,0.4166791,0.58314,-0.1113571999999999,1.295902,-0.2471557,-0.04127367,0.6387086999999999,0.02570066,0.7268507,-11.02512,32.73907657657657
1,0.08631897,-0.1726227,0.9811859,1.0,-0.1078948999999999,-0.1682281,0.9798126,-31.35956,-0.5826110999999999,-28.53333,2.297287,0.5137474,0.6329051,1.0,0.1975402999999999,-0.1721954,0.9650421,34.44173,0.06956482,-27.12923,2.880875,0.4166791,0.58314,-0.1111362,1.295958,-0.2470263,-0.04100863,0.6385823,0.02587444,0.7268507,-54.02438,32.73907657657657
1,0.08631897,-0.1726227,0.9811859,1.0,-0.1078948999999999,-0.1682281,0.9798126,-31.35956,-0.5826110999999999,-28.53333,2.297287,0.5137474,0.6329051,1.0,0.1975402999999999,-0.1721954,0.9650421,34.44173,0.06956482,-27.12923,2.880875,0.4166791,0.58314,-0.1111362,1.295958,-0.2470263,-0.04100863,0.6385823,0.02587444,0.7268507,-54.02438,32.73907657657657
1,0.08631897,-0.1726227,0.9811859,1.0,-0.1078948999999999,-0.1682281,0.9798126,-31.35956,-0.5826110999999999,-28.53333,2.297287,0.5137474,0.6329051,1.0,0.1975402999999999,-0.1721954,0.9650421,34.44173,0.06956482,-27.12923,2.880875,0.4166791,0.58314,-0.1111362,1.295958,-0.2470263,-0.04100863,0.6385823,0.02587444,0.7268507,-54.02438,32.73907657657657
1,-0.2964478,-0.04522705,0.9539642,1.0,-0.2964478,-0.04522705,0.9539642,-31.9696,-0.1316071,-28.49582,2.382736,0.5584962,0.6026589,1.0,0.01707458,-0.05453491,0.9983521,33.711929999999995,0.7564086999999999,-28.23283,2.840195,0.4627379,0.555804,-0.110817,1.295882,-0.2469491,-0.04111106,0.6391485,0.02581087,0.7268507,-54.02438,32.73907657657657
1,-0.2964478,-0.04522705,0.9539642,1.0,-0.2964478,-0.04522705,0.9539642,-31.9696,-0.1316071,-28.49582,2.382736,0.5584962,0.6026589,1.0,0.01707458,-0.05453491,0.9983521,33.711929999999995,0.7564086999999999,-28.23283,2.840195,0.4627379,0.555804,-0.110817,1.295882,-0.2469491,-0.04111106,0.6391485,0.02581087,0.7268507,-54.02438,32.73907657657657
1,-0.2964478,-0.04522705,0.9539642,1.0,-0.2964478,-0.04522705,0.9539642,-31.9696,-0.1316071,-28.49582,2.382736,0.5584962,0.6026589,1.0,0.01707458,-0.05453491,0.9983521,33.711929999999995,0.7564086999999999,-28.23283,2.840195,0.4627379,0.555804,-0.110817,1.295882,-0.2469491,-0.04111106,0.6391485,0.02581087,0.7268507,-54.02438,32.73907657657657
1,-0.2930297999999999,-0.0506897,0.9547424,1.0,-0.2930297999999999,-0.0506897,0.9547424,-31.97868,-0.1214446999999999,-28.49471,2.354828,0.5583699000000001,0.6029346999999999,1.0,0.01802063,-0.05943298,0.9980621,33.71797,0.7483978,-28.18491,2.776138,0.4625027,0.5561814,-0.110817,1.295882,-0.2469491,-0.04111106,0.6391485,0.02581087,0.7268507,-54.02438,32.73907657657657
1,-0.2930297999999999,-0.0506897,0.9547424,1.0,-0.2930297999999999,-0.0506897,0.9547424,-31.97868,-0.1214446999999999,-28.49471,2.354828,0.5583699000000001,0.6029346999999999,1.0,0.01802063,-0.05943298,0.9980621,33.71797,0.7483978,-28.18491,2.776138,0.4625027,0.5561814,-0.110817,1.295882,-0.2469491,-0.04111106,0.6391485,0.02581087,0.7268507,-54.02438,32.73907657657657
1,-0.2930297999999999,-0.0506897,0.9547424,1.0,-0.2930297999999999,-0.0506897,0.9547424,-31.97868,-0.1214446999999999,-28.49471,2.354828,0.5583699000000001,0.6029346999999999,1.0,0.01802063,-0.05943298,0.9980621,33.71797,0.7483978,-28.18491,2.776138,0.4625027,0.5561814,-0.110817,1.295882,-0.2469491,-0.04111106,0.6391485,0.02581087,0.7268507,-54.02438,32.73907657657657
1,-0.200882,-0.0592804,0.9778137,1.0,-0.2979889,-0.05632019,0.9528961,-31.98993,-0.1128692999999999,-28.4966,2.34729,0.5593922,0.6034012,1.0,0.01760864,-0.06365967,0.9978027,33.73424,0.7299956999999999,-28.10873,2.77681,0.4620289000000001,0.5566379,-0.1106775,1.295845,-0.2470279,-0.04090448,0.6396111,0.0258152,0.7268507,-54.02438,32.73907657657657
1,-0.200882,-0.0592804,0.9778137,1.0,-0.2979889,-0.05632019,0.9528961,-31.98993,-0.1128692999999999,-28.4966,2.34729,0.5593922,0.6034012,1.0,0.01760864,-0.06365967,0.9978027,33.73424,0.7299956999999999,-28.10873,2.77681,0.4620289000000001,0.5566379,-0.1106775,1.295845,-0.2470279,-0.04090448,0.6396111,0.0258152,0.7268507,-54.02438,32.73907657657657
1,-0.200882,-0.0592804,0.9778137,1.0,-0.2979889,-0.05632019,0.9528961,-31.98993,-0.1128692999999999,-28.4966,2.34729,0.5593922,0.6034012,1.0,0.01760864,-0.06365967,0.9978027,33.73424,0.7299956999999999,-28.10873,2.77681,0.4620289000000001,0.5566379,-0.1106775,1.295845,-0.2470279,-0.04090448,0.6396111,0.0258152,0.7268507,-54.02438,32.73907657657657
1,-0.07743835,-0.05967712,0.9951935,1.0,-0.2975159,-0.05282593,0.9532471,-31.99789,-0.1800232,-28.21806,2.34259,0.5593876999999999,0.6025895,1.0,0.01390076,-0.06163025,0.9980011,33.74617,0.7486877,-28.1523,2.805939,0.4620289000000001,0.5561814,-0.1105448999999999,1.2957530000000002,-0.247113,-0.04060228,0.639936,0.02621586,0.7268507,35.41734,32.73907657657657
1,-0.07743835,-0.05967712,0.9951935,1.0,-0.2975159,-0.05282593,0.9532471,-31.99789,-0.1800232,-28.21806,2.34259,0.5593876999999999,0.6025895,1.0,0.01390076,-0.06163025,0.9980011,33.74617,0.7486877,-28.1523,2.805939,0.4620289000000001,0.5561814,-0.1105448999999999,1.2957530000000002,-0.247113,-0.04060228,0.639936,0.02621586,0.7268507,35.41734,32.73907657657657
1,-0.07743835,-0.05967712,0.9951935,1.0,-0.2975159,-0.05282593,0.9532471,-31.99789,-0.1800232,-28.21806,2.34259,0.5593876999999999,0.6025895,1.0,0.01390076,-0.06163025,0.9980011,33.74617,0.7486877,-28.1523,2.805939,0.4620289000000001,0.5561814,-0.1105448999999999,1.2957530000000002,-0.247113,-0.04060228,0.639936,0.02621586,0.7268507,35.41734,32.73907657657657
1,-0.07743835,-0.05967712,0.9951935,1.0,-0.2975159,-0.05282593,0.9532471,-31.99789,-0.1800232,-28.21806,2.34259,0.5593876999999999,0.6025895,1.0,0.01390076,-0.06163025,0.9980011,33.74617,0.7486877,-28.1523,2.805939,0.4620289000000001,0.5561814,-0.1104412,1.295711,-0.2471908,-0.04102062,0.640206,0.0257347,0.7268507,35.41734,32.73907657657657
1,-0.07743835,-0.05967712,0.9951935,1.0,-0.2975159,-0.05282593,0.9532471,-31.99789,-0.1800232,-28.21806,2.34259,0.5593876999999999,0.6025895,1.0,0.01390076,-0.06163025,0.9980011,33.74617,0.7486877,-28.1523,2.805939,0.4620289000000001,0.5561814,-0.1104412,1.295711,-0.2471908,-0.04102062,0.640206,0.0257347,0.7268507,35.41734,32.73907657657657
1,-0.07743835,-0.05967712,0.9951935,1.0,-0.2975159,-0.05282593,0.9532471,-31.99789,-0.1800232,-28.21806,2.34259,0.5593876999999999,0.6025895,1.0,0.01390076,-0.06163025,0.9980011,33.74617,0.7486877,-28.1523,2.805939,0.4620289000000001,0.5561814,-0.1104412,1.295711,-0.2471908,-0.04102062,0.640206,0.0257347,0.7268507,35.41734,32.73907657657657
1,-0.07743835,-0.05967712,0.9951935,1.0,-0.2975159,-0.05282593,0.9532471,-31.99789,-0.1800232,-28.21806,2.34259,0.5593876999999999,0.6025895,1.0,0.01390076,-0.06163025,0.9980011,33.74617,0.7486877,-28.1523,2.805939,0.4620289000000001,0.5561814,-0.1102123,1.295712,-0.2471891,-0.04149314,0.6403825,0.02501399,0.7268507,35.41734,32.73907657657657
1,-0.07743835,-0.05967712,0.9951935,1.0,-0.2975159,-0.05282593,0.9532471,-31.99789,-0.1800232,-28.21806,2.34259,0.5593876999999999,0.6025895,1.0,0.01390076,-0.06163025,0.9980011,33.74617,0.7486877,-28.1523,2.805939,0.4620289000000001,0.5561814,-0.1102123,1.295712,-0.2471891,-0.04149314,0.6403825,0.02501399,0.7268507,35.41734,32.73907657657657
1,-0.07743835,-0.05967712,0.9951935,1.0,-0.2975159,-0.05282593,0.9532471,-31.99789,-0.1800232,-28.21806,2.34259,0.5593876999999999,0.6025895,1.0,0.01390076,-0.06163025,0.9980011,33.74617,0.7486877,-28.1523,2.805939,0.4620289000000001,0.5561814,-0.1102123,1.295712,-0.2471891,-0.04149314,0.6403825,0.02501399,0.7268507,35.41734,32.73907657657657
1,0.01837158,-0.06030273,0.9980011,1.0,-0.2875061,-0.04681396,0.9566193,-32.03461,-0.2972107,-27.66907,2.309769,0.5589387,0.6004815,1.0,0.01847839,-0.06030273,0.9980011,33.79182,0.8252258,-28.22762,2.882797,0.4598438,0.5541629,-0.1099724999999999,1.295718,-0.2471191,-0.04106627,0.6405948,0.02493314,0.7268507,35.41734,32.73907657657657
1,0.01837158,-0.06030273,0.9980011,1.0,-0.2875061,-0.04681396,0.9566193,-32.03461,-0.2972107,-27.66907,2.309769,0.5589387,0.6004815,1.0,0.01847839,-0.06030273,0.9980011,33.79182,0.8252258,-28.22762,2.882797,0.4598438,0.5541629,-0.1099724999999999,1.295718,-0.2471191,-0.04106627,0.6405948,0.02493314,0.7268507,35.41734,32.73907657657657
1,0.01837158,-0.06030273,0.9980011,1.0,-0.2875061,-0.04681396,0.9566193,-32.03461,-0.2972107,-27.66907,2.309769,0.5589387,0.6004815,1.0,0.01847839,-0.06030273,0.9980011,33.79182,0.8252258,-28.22762,2.882797,0.4598438,0.5541629,-0.1099724999999999,1.295718,-0.2471191,-0.04106627,0.6405948,0.02493314,0.7268507,35.41734,32.73907657657657
1,-0.01420593,-0.0524291999999999,0.9985199,1.0,-0.2844849,-0.01792908,0.9584961,-32.04063,-0.2696686,-27.7404,2.3895720000000003,0.558816,0.5966719,1.0,0.01821899,-0.05628967,0.9982452,33.79712,0.8288879000000001,-28.18272,2.895264,0.4597127,0.5531489,-0.1099598,1.295676,-0.247161,-0.04091869,0.6410323,0.02498926,0.7268507,35.41734,32.73907657657657
1,-0.01420593,-0.0524291999999999,0.9985199,1.0,-0.2844849,-0.01792908,0.9584961,-32.04063,-0.2696686,-27.7404,2.3895720000000003,0.558816,0.5966719,1.0,0.01821899,-0.05628967,0.9982452,33.79712,0.8288879000000001,-28.18272,2.895264,0.4597127,0.5531489,-0.1099598,1.295676,-0.247161,-0.04091869,0.6410323,0.02498926,0.7268507,35.41734,32.73907657657657
1,-0.01420593,-0.0524291999999999,0.9985199,1.0,-0.2844849,-0.01792908,0.9584961,-32.04063,-0.2696686,-27.7404,2.3895720000000003,0.558816,0.5966719,1.0,0.01821899,-0.05628967,0.9982452,33.79712,0.8288879000000001,-28.18272,2.895264,0.4597127,0.5531489,-0.1099598,1.295676,-0.247161,-0.04091869,0.6410323,0.02498926,0.7268507,35.41734,32.73907657657657
1,-0.02348328,-0.06173706,0.9978027,1.0,-0.285553,-0.02589417,0.9580078000000002,-32.04758,-0.2825317,-27.43465,2.297501,0.5589524,0.5951207,1.0,0.02029419,-0.067276,0.9975128,33.82762,0.9083252,-28.327990000000003,2.824432,0.4584405,0.553056,-0.1100099,1.295575,-0.2473679,-0.04097273,0.6411680000000001,0.02547207,0.7268507,24.64821,32.73907657657657
1,-0.02348328,-0.06173706,0.9978027,1.0,-0.285553,-0.02589417,0.9580078000000002,-32.04758,-0.2825317,-27.43465,2.297501,0.5589524,0.5951207,1.0,0.02029419,-0.067276,0.9975128,33.82762,0.9083252,-28.327990000000003,2.824432,0.4584405,0.553056,-0.1100099,1.295575,-0.2473679,-0.04097273,0.6411680000000001,0.02547207,0.7268507,24.64821,32.73907657657657
1,-0.02348328,-0.06173706,0.9978027,1.0,-0.285553,-0.02589417,0.9580078000000002,-32.04758,-0.2825317,-27.43465,2.297501,0.5589524,0.5951207,1.0,0.02029419,-0.067276,0.9975128,33.82762,0.9083252,-28.327990000000003,2.824432,0.4584405,0.553056,-0.1100099,1.295575,-0.2473679,-0.04097273,0.6411680000000001,0.02547207,0.7268507,24.64821,32.73907657657657
1,-0.02348328,-0.06173706,0.9978027,1.0,-0.285553,-0.02589417,0.9580078000000002,-32.04758,-0.2825317,-27.43465,2.297501,0.5589524,0.5951207,1.0,0.02029419,-0.067276,0.9975128,33.82762,0.9083252,-28.327990000000003,2.824432,0.4584405,0.553056,-0.1100813999999999,1.295557,-0.2477747,-0.04063429,0.6424626,0.02559099,0.7268507,24.64821,32.73907657657657
1,-0.02348328,-0.06173706,0.9978027,1.0,-0.285553,-0.02589417,0.9580078000000002,-32.04758,-0.2825317,-27.43465,2.297501,0.5589524,0.5951207,1.0,0.02029419,-0.067276,0.9975128,33.82762,0.9083252,-28.327990000000003,2.824432,0.4584405,0.553056,-0.1100813999999999,1.295557,-0.2477747,-0.04063429,0.6424626,0.02559099,0.7268507,24.64821,32.73907657657657
1,-0.02348328,-0.06173706,0.9978027,1.0,-0.285553,-0.02589417,0.9580078000000002,-32.04758,-0.2825317,-27.43465,2.297501,0.5589524,0.5951207,1.0,0.02029419,-0.067276,0.9975128,33.82762,0.9083252,-28.327990000000003,2.824432,0.4584405,0.553056,-0.1100813999999999,1.295557,-0.2477747,-0.04063429,0.6424626,0.02559099,0.7268507,24.64821,32.73907657657657
1,-0.02348328,-0.06173706,0.9978027,1.0,-0.285553,-0.02589417,0.9580078000000002,-32.04758,-0.2825317,-27.43465,2.297501,0.5589524,0.5951207,1.0,0.02029419,-0.067276,0.9975128,33.82762,0.9083252,-28.327990000000003,2.824432,0.4584405,0.553056,-0.1101673,1.2955139999999998,-0.2482577,-0.04036173,0.6436991999999999,0.02589071,0.7268507,24.64821,32.73907657657657
1,-0.02348328,-0.06173706,0.9978027,1.0,-0.285553,-0.02589417,0.9580078000000002,-32.04758,-0.2825317,-27.43465,2.297501,0.5589524,0.5951207,1.0,0.02029419,-0.067276,0.9975128,33.82762,0.9083252,-28.327990000000003,2.824432,0.4584405,0.553056,-0.1101673,1.2955139999999998,-0.2482577,-0.04036173,0.6436991999999999,0.02589071,0.7268507,24.64821,32.73907657657657
1,-0.02348328,-0.06173706,0.9978027,1.0,-0.285553,-0.02589417,0.9580078000000002,-32.04758,-0.2825317,-27.43465,2.297501,0.5589524,0.5951207,1.0,0.02029419,-0.067276,0.9975128,33.82762,0.9083252,-28.327990000000003,2.824432,0.4584405,0.553056,-0.1101673,1.2955139999999998,-0.2482577,-0.04036173,0.6436991999999999,0.02589071,0.7268507,24.64821,32.73907657657657
1,-1.0,-1.0,-1.0,0.6560515,0.0,0.0,0.0,-31.71555,3.221268,-43.15292,-1.0,0.5271558000000001,0.6922255,0.8275566999999999,0.0,0.0,0.0,33.8038,-0.1893005,-28.3331,-1.0,0.5119720999999999,0.6162666,-0.1102388,1.295494,-0.2488366,-0.04005646,0.6456516999999999,0.0263317,0.7268507,24.64821,32.73907657657657
1,-1.0,-1.0,-1.0,0.6560515,0.0,0.0,0.0,-31.71555,3.221268,-43.15292,-1.0,0.5271558000000001,0.6922255,0.8275566999999999,0.0,0.0,0.0,33.8038,-0.1893005,-28.3331,-1.0,0.5119720999999999,0.6162666,-0.1102388,1.295494,-0.2488366,-0.04005646,0.6456516999999999,0.0263317,0.7268507,24.64821,32.73907657657657
1,-1.0,-1.0,-1.0,0.6560515,0.0,0.0,0.0,-31.71555,3.221268,-43.15292,-1.0,0.5271558000000001,0.6922255,0.8275566999999999,0.0,0.0,0.0,33.8038,-0.1893005,-28.3331,-1.0,0.5119720999999999,0.6162666,-0.1102388,1.295494,-0.2488366,-0.04005646,0.6456516999999999,0.0263317,0.7268507,24.64821,32.73907657657657
1,-1.0,-1.0,-1.0,0.6560515,0.0,0.0,0.0,-31.71555,3.221268,-43.15292,-1.0,-1.0,-1.0,0.8275566999999999,0.0,0.0,0.0,33.8038,-0.1893005,-28.3331,-1.0,0.5424559,0.6283605,-0.1100955,1.295677,-0.2494727,-0.04030095,0.6481743000000001,0.02714631,0.7268507,11.29469,32.73907657657657
1,-1.0,-1.0,-1.0,0.6560515,0.0,0.0,0.0,-31.71555,3.221268,-43.15292,-1.0,-1.0,-1.0,0.8275566999999999,0.0,0.0,0.0,33.8038,-0.1893005,-28.3331,-1.0,0.5424559,0.6283605,-0.1100955,1.295677,-0.2494727,-0.04030095,0.6481743000000001,0.02714631,0.7268507,11.29469,32.73907657657657
1,-1.0,-1.0,-1.0,0.6560515,0.0,0.0,0.0,-31.71555,3.221268,-43.15292,-1.0,-1.0,-1.0,0.8275566999999999,0.0,0.0,0.0,33.8038,-0.1893005,-28.3331,-1.0,0.5424559,0.6283605,-0.1100955,1.295677,-0.2494727,-0.04030095,0.6481743000000001,0.02714631,0.7268507,11.29469,32.73907657657657
1,-1.0,-1.0,-1.0,1.0,0.0,0.0,0.0,-32.080870000000004,2.682571,-41.908570000000005,-1.0,0.5820867,0.6530973000000001,1.0,0.0,0.0,0.0,33.48216,0.9706879,-28.96028,-1.0,0.4831223,0.5613666,-0.1102593,1.295758,-0.250396,-0.03995188,0.6513755,0.02779024,0.7268507,11.29469,32.73907657657657
1,-1.0,-1.0,-1.0,1.0,0.0,0.0,0.0,-32.080870000000004,2.682571,-41.908570000000005,-1.0,0.5820867,0.6530973000000001,1.0,0.0,0.0,0.0,33.48216,0.9706879,-28.96028,-1.0,0.4831223,0.5613666,-0.1102593,1.295758,-0.250396,-0.03995188,0.6513755,0.02779024,0.7268507,11.29469,32.73907657657657
1,-1.0,-1.0,-1.0,1.0,0.0,0.0,0.0,-32.080870000000004,2.682571,-41.908570000000005,-1.0,0.5820867,0.6530973000000001,1.0,0.0,0.0,0.0,33.48216,0.9706879,-28.96028,-1.0,0.4831223,0.5613666,-0.1102593,1.295758,-0.250396,-0.03995188,0.6513755,0.02779024,0.7268507,11.29469,32.73907657657657
1,-0.05786133,-0.0793457,0.995163,1.0,-0.3461304,-0.0430603,0.9371796,-32.48448,-0.3338623,-27.94717,2.529083,0.5820078000000001,0.6047843,1.0,-0.05786133,-0.0793457,0.995163,33.53877,0.8410492,-28.60094,2.927078,0.4773495,0.5597405,-0.1102715,1.2958120000000002,-0.2514947999999999,-0.03981944,0.6552545999999999,0.02831163,0.7268507,11.29469,32.73907657657657
1,-0.05786133,-0.0793457,0.995163,1.0,-0.3461304,-0.0430603,0.9371796,-32.48448,-0.3338623,-27.94717,2.529083,0.5820078000000001,0.6047843,1.0,-0.05786133,-0.0793457,0.995163,33.53877,0.8410492,-28.60094,2.927078,0.4773495,0.5597405,-0.1102715,1.2958120000000002,-0.2514947999999999,-0.03981944,0.6552545999999999,0.02831163,0.7268507,11.29469,32.73907657657657
1,-0.05786133,-0.0793457,0.995163,1.0,-0.3461304,-0.0430603,0.9371796,-32.48448,-0.3338623,-27.94717,2.529083,0.5820078000000001,0.6047843,1.0,-0.05786133,-0.0793457,0.995163,33.53877,0.8410492,-28.60094,2.927078,0.4773495,0.5597405,-0.1102715,1.2958120000000002,-0.2514947999999999,-0.03981944,0.6552545999999999,0.02831163,0.7268507,11.29469,32.73907657657657
1,-0.04327393,-0.07577515,0.99617,1.0,-0.3361511,-0.02957153,0.94133,-32.437870000000004,-0.2693176,-28.16415,2.593323,0.5793305999999999,0.6029264,1.0,-0.04327393,-0.07577515,0.99617,33.62679,0.7848816,-28.40407,3.055786,0.4725284999999999,0.5594175,-0.1104193,1.295795,-0.2526590999999999,-0.03940206,0.6594478,0.02852791,0.7268507,11.29469,32.73907657657657
1,-0.04327393,-0.07577515,0.99617,1.0,-0.3361511,-0.02957153,0.94133,-32.437870000000004,-0.2693176,-28.16415,2.593323,0.5793305999999999,0.6029264,1.0,-0.04327393,-0.07577515,0.99617,33.62679,0.7848816,-28.40407,3.055786,0.4725284999999999,0.5594175,-0.1104193,1.295795,-0.2526590999999999,-0.03940206,0.6594478,0.02852791,0.7268507,11.29469,32.73907657657657
1,-0.04327393,-0.07577515,0.99617,1.0,-0.3361511,-0.02957153,0.94133,-32.437870000000004,-0.2693176,-28.16415,2.593323,0.5793305999999999,0.6029264,1.0,-0.04327393,-0.07577515,0.99617,33.62679,0.7848816,-28.40407,3.055786,0.4725284999999999,0.5594175,-0.1104193,1.295795,-0.2526590999999999,-0.03940206,0.6594478,0.02852791,0.7268507,11.29469,32.73907657657657
1,-0.07473755,-0.02487183,0.9968872,1.0,-0.3219299,-0.03479004,0.9461212,-32.388090000000005,-0.3751678,-27.73402,2.6746060000000003,0.5754130999999999,0.6029954000000001,1.0,-0.03994751,-0.02336121,0.9989166,33.681059999999995,0.8404845999999999,-28.52347,3.3125760000000004,0.4700157,0.5524312,-0.1106588999999999,1.295671,-0.2538748,-0.03885299,0.6634404,0.02893234,0.7268507,11.29469,32.73907657657657
1,-0.07473755,-0.02487183,0.9968872,1.0,-0.3219299,-0.03479004,0.9461212,-32.388090000000005,-0.3751678,-27.73402,2.6746060000000003,0.5754130999999999,0.6029954000000001,1.0,-0.03994751,-0.02336121,0.9989166,33.681059999999995,0.8404845999999999,-28.52347,3.3125760000000004,0.4700157,0.5524312,-0.1106588999999999,1.295671,-0.2538748,-0.03885299,0.6634404,0.02893234,0.7268507,11.29469,32.73907657657657
1,-0.07473755,-0.02487183,0.9968872,1.0,-0.3219299,-0.03479004,0.9461212,-32.388090000000005,-0.3751678,-27.73402,2.6746060000000003,0.5754130999999999,0.6029954000000001,1.0,-0.03994751,-0.02336121,0.9989166,33.681059999999995,0.8404845999999999,-28.52347,3.3125760000000004,0.4700157,0.5524312,-0.1106588999999999,1.295671,-0.2538748,-0.03885299,0.6634404,0.02893234,0.7268507,11.29469,32.73907657657657
1,-0.006744385,-0.06062317,0.9981232,1.0,-0.2787476,-0.02093506,0.9601288,-32.33623,0.3134613,-30.14992,2.631714,0.5702811,0.6004106,1.0,-0.006744385,-0.06062317,0.9981232,33.772859999999994,0.8618621999999999,-28.58301,3.103073,0.4631147,0.5564373,-0.1108934999999999,1.295648,-0.2550066,-0.0379019,0.6676224000000001,0.02922877,0.7268507,-45.07623,32.73907657657657
1,-0.006744385,-0.06062317,0.9981232,1.0,-0.2787476,-0.02093506,0.9601288,-32.33623,0.3134613,-30.14992,2.631714,0.5702811,0.6004106,1.0,-0.006744385,-0.06062317,0.9981232,33.772859999999994,0.8618621999999999,-28.58301,3.103073,0.4631147,0.5564373,-0.1108934999999999,1.295648,-0.2550066,-0.0379019,0.6676224000000001,0.02922877,0.7268507,-45.07623,32.73907657657657
1,-0.006744385,-0.06062317,0.9981232,1.0,-0.2787476,-0.02093506,0.9601288,-32.33623,0.3134613,-30.14992,2.631714,0.5702811,0.6004106,1.0,-0.006744385,-0.06062317,0.9981232,33.772859999999994,0.8618621999999999,-28.58301,3.103073,0.4631147,0.5564373,-0.1108934999999999,1.295648,-0.2550066,-0.0379019,0.6676224000000001,0.02922877,0.7268507,-45.07623,32.73907657657657
2,0.0151062,-0.07765198,0.9968567,1.0,-0.303299,-0.04272461,0.9519196,-32.21791,-0.329071,-27.66048,2.6648560000000003,0.5671858,0.6014795000000001,1.0,0.0151062,-0.07765198,0.9968567,33.85814,0.7683411,-28.15715,3.017639,0.457872,0.5576628,-0.1109941,1.29554,-0.2560647,-0.03718429,0.6712020000000001,0.02989564,0.7268507,-45.07623,32.73907657657657
2,0.0151062,-0.07765198,0.9968567,1.0,-0.303299,-0.04272461,0.9519196,-32.21791,-0.329071,-27.66048,2.6648560000000003,0.5671858,0.6014795000000001,1.0,0.0151062,-0.07765198,0.9968567,33.85814,0.7683411,-28.15715,3.017639,0.457872,0.5576628,-0.1109941,1.29554,-0.2560647,-0.03718429,0.6712020000000001,0.02989564,0.7268507,-45.07623,32.73907657657657
2,0.0151062,-0.07765198,0.9968567,1.0,-0.303299,-0.04272461,0.9519196,-32.21791,-0.329071,-27.66048,2.6648560000000003,0.5671858,0.6014795000000001,1.0,0.0151062,-0.07765198,0.9968567,33.85814,0.7683411,-28.15715,3.017639,0.457872,0.5576628,-0.1109941,1.29554,-0.2560647,-0.03718429,0.6712020000000001,0.02989564,0.7268507,-45.07623,32.73907657657657
2,-0.002746582,-0.06544495,0.9978485,1.0,-0.2985382,-0.026474,0.9540253,-32.1676,-0.3075104,-27.58679,2.834503,0.5648108000000001,0.5981419,1.0,-0.002746582,-0.06544495,0.9978485,33.89745,0.8348694,-28.27199,3.153915,0.4585117,0.5551191999999999,-0.1109991,1.295489,-0.2570017,-0.03638064,0.6750267,0.03023699,0.7268507,-45.07623,32.73907657657657
2,-0.002746582,-0.06544495,0.9978485,1.0,-0.2985382,-0.026474,0.9540253,-32.1676,-0.3075104,-27.58679,2.834503,0.5648108000000001,0.5981419,1.0,-0.002746582,-0.06544495,0.9978485,33.89745,0.8348694,-28.27199,3.153915,0.4585117,0.5551191999999999,-0.1109991,1.295489,-0.2570017,-0.03638064,0.6750267,0.03023699,0.7268507,-45.07623,32.73907657657657
2,-0.002746582,-0.06544495,0.9978485,1.0,-0.2985382,-0.026474,0.9540253,-32.1676,-0.3075104,-27.58679,2.834503,0.5648108000000001,0.5981419,1.0,-0.002746582,-0.06544495,0.9978485,33.89745,0.8348694,-28.27199,3.153915,0.4585117,0.5551191999999999,-0.1109991,1.295489,-0.2570017,-0.03638064,0.6750267,0.03023699,0.7268507,-45.07623,32.73907657657657
2,-0.07980347,-0.09677124,0.9920959,1.0,-0.2781982,-0.08599854,0.956665,-32.13159,-0.42836,-27.13232,2.63002,0.5606824,0.6049386999999999,1.0,0.02867126,-0.1009674,0.9944611,33.93866,0.8696136000000001,-28.27354,2.926468,0.4535542999999999,0.5580482,-0.1112056,1.295402,-0.2578534,-0.03555223,0.6783710999999999,0.03031402,0.7268507,-45.07623,32.73907657657657
2,-0.07980347,-0.09677124,0.9920959,1.0,-0.2781982,-0.08599854,0.956665,-32.13159,-0.42836,-27.13232,2.63002,0.5606824,0.6049386999999999,1.0,0.02867126,-0.1009674,0.9944611,33.93866,0.8696136000000001,-28.27354,2.926468,0.4535542999999999,0.5580482,-0.1112056,1.295402,-0.2578534,-0.03555223,0.6783710999999999,0.03031402,0.7268507,-45.07623,32.73907657657657
2,-0.07980347,-0.09677124,0.9920959,1.0,-0.2781982,-0.08599854,0.956665,-32.13159,-0.42836,-27.13232,2.63002,0.5606824,0.6049386999999999,1.0,0.02867126,-0.1009674,0.9944611,33.93866,0.8696136000000001,-28.27354,2.926468,0.4535542999999999,0.5580482,-0.1112056,1.295402,-0.2578534,-0.03555223,0.6783710999999999,0.03031402,0.7268507,-45.07623,32.73907657657657
2,-0.02931213,-0.02978516,0.999115,1.0,-0.2681885,-0.04266357,0.9624176,-32.12189,-0.4099884,-27.15326,2.821762,0.5591216999999999,0.5992234000000001,1.0,1.525879e-05,-0.02807617,0.9996033,33.94743,0.98909,-28.678040000000003,3.362885,0.4561407999999999,0.5492051,-0.1115415,1.295358,-0.2597458,-0.0343661,0.6855045999999999,0.0313805,0.7268507,-45.07623,32.73907657657657
2,-0.02931213,-0.02978516,0.999115,1.0,-0.2681885,-0.04266357,0.9624176,-32.12189,-0.4099884,-27.15326,2.821762,0.5591216999999999,0.5992234000000001,1.0,1.525879e-05,-0.02807617,0.9996033,33.94743,0.98909,-28.678040000000003,3.362885,0.4561407999999999,0.5492051,-0.1115415,1.295358,-0.2597458,-0.0343661,0.6855045999999999,0.0313805,0.7268507,-45.07623,32.73907657657657
2,-0.02931213,-0.02978516,0.999115,1.0,-0.2681885,-0.04266357,0.9624176,-32.12189,-0.4099884,-27.15326,2.821762,0.5591216999999999,0.5992234000000001,1.0,1.525879e-05,-0.02807617,0.9996033,33.94743,0.98909,-28.678040000000003,3.362885,0.4561407999999999,0.5492051,-0.1115415,1.295358,-0.2597458,-0.0343661,0.6855045999999999,0.0313805,0.7268507,-45.07623,32.73907657657657
2,-0.02728271,-0.07417297,0.9968567,1.0,-0.2778015,-0.04281616,0.959671,-32.11565,-0.3934784,-27.18582,2.868332,0.5601349,0.5991189,1.0,0.01940918,-0.07946777,0.9966431,33.95882,0.9688416,-28.58185,3.092056,0.4537039,0.5549858,-0.1118,1.295348,-0.2607294,-0.03330909,0.6893140999999999,0.03200781,0.7268507,33.14151,32.73907657657657
2,-0.02728271,-0.07417297,0.9968567,1.0,-0.2778015,-0.04281616,0.959671,-32.11565,-0.3934784,-27.18582,2.868332,0.5601349,0.5991189,1.0,0.01940918,-0.07946777,0.9966431,33.95882,0.9688416,-28.58185,3.092056,0.4537039,0.5549858,-0.1118,1.295348,-0.2607294,-0.03330909,0.6893140999999999,0.03200781,0.7268507,33.14151,32.73907657657657
2,-0.02728271,-0.07417297,0.9968567,1.0,-0.2778015,-0.04281616,0.959671,-32.11565,-0.3934784,-27.18582,2.868332,0.5601349,0.5991189,1.0,0.01940918,-0.07946777,0.9966431,33.95882,0.9688416,-28.58185,3.092056,0.4537039,0.5549858,-0.1118,1.295348,-0.2607294,-0.03330909,0.6893140999999999,0.03200781,0.7268507,33.14151,32.73907657657657
2,0.1184539999999999,-0.4265594,0.8966521999999999,0.8001117,-0.2613525,-0.3443909,0.9017029,-31.67661,3.880432,-45.38536,3.102097,0.5573315,0.6759655,0.9830304,0.1184539999999999,-0.4265594,0.8966521999999999,34.48676,-1.086288,-28.76523,3.943649,0.4215925,0.6713547,-0.1118,1.295348,-0.2607294,-0.03330909,0.6893140999999999,0.03200781,0.7268507,33.14151,32.73907657657657
2,0.1184539999999999,-0.4265594,0.8966521999999999,0.8001117,-0.2613525,-0.3443909,0.9017029,-31.67661,3.880432,-45.38536,3.102097,0.5573315,0.6759655,0.9830304,0.1184539999999999,-0.4265594,0.8966521999999999,34.48676,-1.086288,-28.76523,3.943649,0.4215925,0.6713547,-0.1118,1.295348,-0.2607294,-0.03330909,0.6893140999999999,0.03200781,0.7268507,33.14151,32.73907657657657
2,0.1184539999999999,-0.4265594,0.8966521999999999,0.8001117,-0.2613525,-0.3443909,0.9017029,-31.67661,3.880432,-45.38536,3.102097,0.5573315,0.6759655,0.9830304,0.1184539999999999,-0.4265594,0.8966521999999999,34.48676,-1.086288,-28.76523,3.943649,0.4215925,0.6713547,-0.1118,1.295348,-0.2607294,-0.03330909,0.6893140999999999,0.03200781,0.7268507,33.14151,32.73907657657657
2,0.1184539999999999,-0.4265594,0.8966521999999999,0.8001117,-0.2613525,-0.3443909,0.9017029,-31.67661,3.880432,-45.38536,3.102097,0.5573315,0.6759655,0.9830304,0.1184539999999999,-0.4265594,0.8966521999999999,34.48676,-1.086288,-28.76523,3.943649,0.4215925,0.6713547,-0.1119153,1.295428,-0.2617064,-0.03272828,0.6927404,0.0331845,0.7268507,33.14151,32.73907657657657
2,0.1184539999999999,-0.4265594,0.8966521999999999,0.8001117,-0.2613525,-0.3443909,0.9017029,-31.67661,3.880432,-45.38536,3.102097,0.5573315,0.6759655,0.9830304,0.1184539999999999,-0.4265594,0.8966521999999999,34.48676,-1.086288,-28.76523,3.943649,0.4215925,0.6713547,-0.1119153,1.295428,-0.2617064,-0.03272828,0.6927404,0.0331845,0.7268507,33.14151,32.73907657657657
2,0.1184539999999999,-0.4265594,0.8966521999999999,0.8001117,-0.2613525,-0.3443909,0.9017029,-31.67661,3.880432,-45.38536,3.102097,0.5573315,0.6759655,0.9830304,0.1184539999999999,-0.4265594,0.8966521999999999,34.48676,-1.086288,-28.76523,3.943649,0.4215925,0.6713547,-0.1119153,1.295428,-0.2617064,-0.03272828,0.6927404,0.0331845,0.7268507,33.14151,32.73907657657657
2,-1.0,-1.0,-1.0,0.8001117,0.0,0.0,0.0,-32.36133,-7.496414,-17.01967,-1.0,-1.0,-1.0,0.9830304,0.0,0.0,0.0,34.48676,-1.086288,-28.76523,-1.0,-1.0,-1.0,-0.1120424,1.29568,-0.2627078,-0.03296803,0.6960991,0.03408146,0.7268507,33.14151,32.73907657657657
2,-1.0,-1.0,-1.0,0.8001117,0.0,0.0,0.0,-32.36133,-7.496414,-17.01967,-1.0,-1.0,-1.0,0.9830304,0.0,0.0,0.0,34.48676,-1.086288,-28.76523,-1.0,-1.0,-1.0,-0.1120424,1.29568,-0.2627078,-0.03296803,0.6960991,0.03408146,0.7268507,33.14151,32.73907657657657
2,-1.0,-1.0,-1.0,0.8001117,0.0,0.0,0.0,-32.36133,-7.496414,-17.01967,-1.0,-1.0,-1.0,0.9830304,0.0,0.0,0.0,34.48676,-1.086288,-28.76523,-1.0,-1.0,-1.0,-0.1120424,1.29568,-0.2627078,-0.03296803,0.6960991,0.03408146,0.7268507,33.14151,32.73907657657657
2,-1.0,-1.0,-1.0,0.3962663,0.0,0.0,0.0,-33.6481,-4.174347,-20.92548,-1.0,0.6062055000000001,0.6919901999999999,0.6511953,0.0,0.0,0.0,34.48676,-1.086288,-28.76523,-1.0,-1.0,-1.0,-0.1125061999999999,1.295729,-0.2637570999999999,-0.03215945,0.6994686999999999,0.03423632,0.7268507,33.14151,32.73907657657657
2,-1.0,-1.0,-1.0,0.3962663,0.0,0.0,0.0,-33.6481,-4.174347,-20.92548,-1.0,0.6062055000000001,0.6919901999999999,0.6511953,0.0,0.0,0.0,34.48676,-1.086288,-28.76523,-1.0,-1.0,-1.0,-0.1125061999999999,1.295729,-0.2637570999999999,-0.03215945,0.6994686999999999,0.03423632,0.7268507,33.14151,32.73907657657657
2,-1.0,-1.0,-1.0,0.3962663,0.0,0.0,0.0,-33.6481,-4.174347,-20.92548,-1.0,0.6062055000000001,0.6919901999999999,0.6511953,0.0,0.0,0.0,34.48676,-1.086288,-28.76523,-1.0,-1.0,-1.0,-0.1125061999999999,1.295729,-0.2637570999999999,-0.03215945,0.6994686999999999,0.03423632,0.7268507,33.14151,32.73907657657657
2,0.02113342,-0.05441284,0.998291,0.7714725,0.0,0.0,0.0,-31.99698,-0.2644958,-26.65747,-1.0,0.5503178000000001,0.6002015,0.9467279,0.02113342,-0.05441284,0.998291,34.111470000000004,1.280457,-28.38251,3.333252,0.4483287,0.5397853,-0.1132946,1.295759,-0.2647863,-0.03134273,0.7021493000000001,0.03497959,0.7268507,33.14151,32.73907657657657
2,0.02113342,-0.05441284,0.998291,0.7714725,0.0,0.0,0.0,-31.99698,-0.2644958,-26.65747,-1.0,0.5503178000000001,0.6002015,0.9467279,0.02113342,-0.05441284,0.998291,34.111470000000004,1.280457,-28.38251,3.333252,0.4483287,0.5397853,-0.1132946,1.295759,-0.2647863,-0.03134273,0.7021493000000001,0.03497959,0.7268507,33.14151,32.73907657657657
2,0.02113342,-0.05441284,0.998291,0.7714725,0.0,0.0,0.0,-31.99698,-0.2644958,-26.65747,-1.0,0.5503178000000001,0.6002015,0.9467279,0.02113342,-0.05441284,0.998291,34.111470000000004,1.280457,-28.38251,3.333252,0.4483287,0.5397853,-0.1132946,1.295759,-0.2647863,-0.03134273,0.7021493000000001,0.03497959,0.7268507,33.14151,32.73907657657657
2,0.08956909,-0.0327301,0.9954376,1.0,0.0,0.0,0.0,-31.95952,-0.07472229,-27.331670000000003,-1.0,0.5480003000000001,0.5789701,1.0,0.08956909,-0.0327301,0.9954376,34.173359999999995,1.210449,-28.34099,3.397064,0.4380582999999999,0.5390848000000001,-0.1144211,1.295818,-0.2658519,-0.0311858,0.7040533,0.03550232,0.7268507,33.14151,32.73907657657657
2,0.08956909,-0.0327301,0.9954376,1.0,0.0,0.0,0.0,-31.95952,-0.07472229,-27.331670000000003,-1.0,0.5480003000000001,0.5789701,1.0,0.08956909,-0.0327301,0.9954376,34.173359999999995,1.210449,-28.34099,3.397064,0.4380582999999999,0.5390848000000001,-0.1144211,1.295818,-0.2658519,-0.0311858,0.7040533,0.03550232,0.7268507,33.14151,32.73907657657657
2,0.08956909,-0.0327301,0.9954376,1.0,0.0,0.0,0.0,-31.95952,-0.07472229,-27.331670000000003,-1.0,0.5480003000000001,0.5789701,1.0,0.08956909,-0.0327301,0.9954376,34.173359999999995,1.210449,-28.34099,3.397064,0.4380582999999999,0.5390848000000001,-0.1144211,1.295818,-0.2658519,-0.0311858,0.7040533,0.03550232,0.7268507,33.14151,32.73907657657657
2,0.09295654,-0.0506897,0.9943695,1.0,-0.2265015,0.01797485,0.9738312,-31.90292,-0.1152496,-27.264470000000003,2.6531830000000003,0.5465981,0.5823856,1.0,0.1052246,-0.05325317,0.9930115,34.21484,1.083893,-27.94939,3.198868,0.4351484,0.5421371,-0.1160208999999999,1.295929,-0.2669203,-0.03114289,0.7057269,0.03619843,0.7268507,17.14473,32.73907657657657
2,0.09295654,-0.0506897,0.9943695,1.0,-0.2265015,0.01797485,0.9738312,-31.90292,-0.1152496,-27.264470000000003,2.6531830000000003,0.5465981,0.5823856,1.0,0.1052246,-0.05325317,0.9930115,34.21484,1.083893,-27.94939,3.198868,0.4351484,0.5421371,-0.1160208999999999,1.295929,-0.2669203,-0.03114289,0.7057269,0.03619843,0.7268507,17.14473,32.73907657657657
2,0.09295654,-0.0506897,0.9943695,1.0,-0.2265015,0.01797485,0.9738312,-31.90292,-0.1152496,-27.264470000000003,2.6531830000000003,0.5465981,0.5823856,1.0,0.1052246,-0.05325317,0.9930115,34.21484,1.083893,-27.94939,3.198868,0.4351484,0.5421371,-0.1160208999999999,1.295929,-0.2669203,-0.03114289,0.7057269,0.03619843,0.7268507,17.14473,32.73907657657657
2,-0.2109375,0.02713013,0.9771118,1.0,-0.2136841,0.02748108,0.9765015,-31.869640000000004,-0.2023772999999999,-27.133190000000003,2.648056,0.5437956,0.5828726,1.0,0.1190643,-0.01509094,0.9927673,34.26233,0.9520721,-27.62415,3.247955,0.4320946,0.5391041999999999,-0.1177094,1.296079,-0.2680491,-0.03156114,0.7069439000000001,0.03642618,0.7268507,17.14473,32.73907657657657
2,-0.2109375,0.02713013,0.9771118,1.0,-0.2136841,0.02748108,0.9765015,-31.869640000000004,-0.2023772999999999,-27.133190000000003,2.648056,0.5437956,0.5828726,1.0,0.1190643,-0.01509094,0.9927673,34.26233,0.9520721,-27.62415,3.247955,0.4320946,0.5391041999999999,-0.1177094,1.296079,-0.2680491,-0.03156114,0.7069439000000001,0.03642618,0.7268507,17.14473,32.73907657657657
2,-0.2109375,0.02713013,0.9771118,1.0,-0.2136841,0.02748108,0.9765015,-31.869640000000004,-0.2023772999999999,-27.133190000000003,2.648056,0.5437956,0.5828726,1.0,0.1190643,-0.01509094,0.9927673,34.26233,0.9520721,-27.62415,3.247955,0.4320946,0.5391041999999999,-0.1177094,1.296079,-0.2680491,-0.03156114,0.7069439000000001,0.03642618,0.7268507,17.14473,32.73907657657657
2,-0.1003113,0.02177429,0.9947052,1.0,-0.2152405,0.0405426,0.975708,-31.87503,-0.1940765,-27.231140000000003,2.659698,0.5442423000000001,0.5819399000000001,1.0,0.1326447,-0.01649475,0.9910126,34.27025,0.9466858,-27.79213,3.095642,0.4301766999999999,0.5407850000000001,-0.1194388999999999,1.296461,-0.2692055,-0.03265284,0.7081465,0.03682277,0.7268507,17.14473,32.73907657657657
2,-0.1003113,0.02177429,0.9947052,1.0,-0.2152405,0.0405426,0.975708,-31.87503,-0.1940765,-27.231140000000003,2.659698,0.5442423000000001,0.5819399000000001,1.0,0.1326447,-0.01649475,0.9910126,34.27025,0.9466858,-27.79213,3.095642,0.4301766999999999,0.5407850000000001,-0.1194388999999999,1.296461,-0.2692055,-0.03265284,0.7081465,0.03682277,0.7268507,17.14473,32.73907657657657
2,-0.1003113,0.02177429,0.9947052,1.0,-0.2152405,0.0405426,0.975708,-31.87503,-0.1940765,-27.231140000000003,2.659698,0.5442423000000001,0.5819399000000001,1.0,0.1326447,-0.01649475,0.9910126,34.27025,0.9466858,-27.79213,3.095642,0.4301766999999999,0.5407850000000001,-0.1194388999999999,1.296461,-0.2692055,-0.03265284,0.7081465,0.03682277,0.7268507,17.14473,32.73907657657657
2,0.04542542,0.00869751,0.9989166,1.0,-0.2124938999999999,0.04060364,0.9763031,-31.86536,-0.1747894,-27.31245,2.7463990000000003,0.5436544,0.5821273,1.0,0.121521,-0.0008850097999999,0.9925842,34.269040000000004,0.94133,-27.78102,3.231979,0.4314849,0.5391238,-0.1210721,1.296789,-0.2704558,-0.03322376,0.7096937,0.03761905,0.7268507,17.14473,32.73907657657657
2,0.04542542,0.00869751,0.9989166,1.0,-0.2124938999999999,0.04060364,0.9763031,-31.86536,-0.1747894,-27.31245,2.7463990000000003,0.5436544,0.5821273,1.0,0.121521,-0.0008850097999999,0.9925842,34.269040000000004,0.94133,-27.78102,3.231979,0.4314849,0.5391238,-0.1210721,1.296789,-0.2704558,-0.03322376,0.7096937,0.03761905,0.7268507,17.14473,32.73907657657657
2,0.04542542,0.00869751,0.9989166,1.0,-0.2124938999999999,0.04060364,0.9763031,-31.86536,-0.1747894,-27.31245,2.7463990000000003,0.5436544,0.5821273,1.0,0.121521,-0.0008850097999999,0.9925842,34.269040000000004,0.94133,-27.78102,3.231979,0.4314849,0.5391238,-0.1210721,1.296789,-0.2704558,-0.03322376,0.7096937,0.03761905,0.7268507,17.14473,32.73907657657657
2,0.04542542,0.00869751,0.9989166,1.0,-0.2124938999999999,0.04060364,0.9763031,-31.86536,-0.1747894,-27.31245,2.7463990000000003,0.5436544,0.5821273,1.0,0.121521,-0.0008850097999999,0.9925842,34.269040000000004,0.94133,-27.78102,3.231979,0.4314849,0.5391238,-0.1226887999999999,1.296965,-0.2715179,-0.03377103,0.7110274000000001,0.03709843,0.7268507,17.14473,32.73907657657657
2,0.04542542,0.00869751,0.9989166,1.0,-0.2124938999999999,0.04060364,0.9763031,-31.86536,-0.1747894,-27.31245,2.7463990000000003,0.5436544,0.5821273,1.0,0.121521,-0.0008850097999999,0.9925842,34.269040000000004,0.94133,-27.78102,3.231979,0.4314849,0.5391238,-0.1226887999999999,1.296965,-0.2715179,-0.03377103,0.7110274000000001,0.03709843,0.7268507,17.14473,32.73907657657657
2,0.04542542,0.00869751,0.9989166,1.0,-0.2124938999999999,0.04060364,0.9763031,-31.86536,-0.1747894,-27.31245,2.7463990000000003,0.5436544,0.5821273,1.0,0.121521,-0.0008850097999999,0.9925842,34.269040000000004,0.94133,-27.78102,3.231979,0.4314849,0.5391238,-0.1226887999999999,1.296965,-0.2715179,-0.03377103,0.7110274000000001,0.03709843,0.7268507,17.14473,32.73907657657657
2,0.05525208,0.002731323,0.9984589,1.0,-0.1893767999999999,0.01315308,0.9818115,-31.81171,-0.2645416,-27.28772,2.676071,0.5389255000000001,0.5880550999999999,1.0,0.1266632,-0.0003509521,0.9919434,34.339459999999995,0.8479462,-27.65819,3.299728,0.4285159,0.541158,-0.1240059999999999,1.29701,-0.2725243,-0.03347755,0.7123035,0.03683855,0.7268507,15.14857,32.73907657657657
2,0.05525208,0.002731323,0.9984589,1.0,-0.1893767999999999,0.01315308,0.9818115,-31.81171,-0.2645416,-27.28772,2.676071,0.5389255000000001,0.5880550999999999,1.0,0.1266632,-0.0003509521,0.9919434,34.339459999999995,0.8479462,-27.65819,3.299728,0.4285159,0.541158,-0.1240059999999999,1.29701,-0.2725243,-0.03347755,0.7123035,0.03683855,0.7268507,15.14857,32.73907657657657
2,0.05525208,0.002731323,0.9984589,1.0,-0.1893767999999999,0.01315308,0.9818115,-31.81171,-0.2645416,-27.28772,2.676071,0.5389255000000001,0.5880550999999999,1.0,0.1266632,-0.0003509521,0.9919434,34.339459999999995,0.8479462,-27.65819,3.299728,0.4285159,0.541158,-0.1240059999999999,1.29701,-0.2725243,-0.03347755,0.7123035,0.03683855,0.7268507,15.14857,32.73907657657657
2,0.1299895999999999,-0.008407593,0.9914703,1.0,-0.1759186,0.01945496,0.9842072,-31.80978,-0.06707764,-28.04623,2.666718,0.5376642,0.5876431,1.0,0.1308441,-0.0084838869999999,0.9913635,34.35017,0.8026886,-27.62151,3.298843,0.42766,0.5433109,-0.1253278,1.296771,-0.2734267,-0.0327202,0.7132515,0.0362153,0.7268507,15.14857,34.23
2,0.1299895999999999,-0.008407593,0.9914703,1.0,-0.1759186,0.01945496,0.9842072,-31.80978,-0.06707764,-28.04623,2.666718,0.5376642,0.5876431,1.0,0.1308441,-0.0084838869999999,0.9913635,34.35017,0.8026886,-27.62151,3.298843,0.42766,0.5433109,-0.1253278,1.296771,-0.2734267,-0.0327202,0.7132515,0.0362153,0.7268507,15.14857,34.23
2,0.1299895999999999,-0.008407593,0.9914703,1.0,-0.1759186,0.01945496,0.9842072,-31.80978,-0.06707764,-28.04623,2.666718,0.5376642,0.5876431,1.0,0.1308441,-0.0084838869999999,0.9913635,34.35017,0.8026886,-27.62151,3.298843,0.42766,0.5433109,-0.1253278,1.296771,-0.2734267,-0.0327202,0.7132515,0.0362153,0.7268507,15.14857,34.23
2,0.1260071,-0.01248169,0.9919434,1.0,-0.1737822999999999,0.02070618,0.9845581,-31.80226,-0.08192444,-28.05548,2.666245,0.5371465999999999,0.5880704999999999,1.0,0.1279602,-0.01271057,0.991684,34.36034,0.7959441999999999,-27.61826,3.297302,0.42766,0.5440100999999999,-0.1264009,1.296445,-0.2740586,-0.03102928,0.7136422,0.03542658,0.7268507,15.14857,34.23
2,0.1260071,-0.01248169,0.9919434,1.0,-0.1737822999999999,0.02070618,0.9845581,-31.80226,-0.08192444,-28.05548,2.666245,0.5371465999999999,0.5880704999999999,1.0,0.1279602,-0.01271057,0.991684,34.36034,0.7959441999999999,-27.61826,3.297302,0.42766,0.5440100999999999,-0.1264009,1.296445,-0.2740586,-0.03102928,0.7136422,0.03542658,0.7268507,15.14857,34.23
2,0.1260071,-0.01248169,0.9919434,1.0,-0.1737822999999999,0.02070618,0.9845581,-31.80226,-0.08192444,-28.05548,2.666245,0.5371465999999999,0.5880704999999999,1.0,0.1279602,-0.01271057,0.991684,34.36034,0.7959441999999999,-27.61826,3.297302,0.42766,0.5440100999999999,-0.1264009,1.296445,-0.2740586,-0.03102928,0.7136422,0.03542658,0.7268507,15.14857,34.23
2,0.0222168,0.002075195,0.9997406,1.0,-0.1727753,0.0194397,0.9847565,-31.75989,-0.1095733999999999,-28.01587,2.654816,0.5355462,0.5887688,1.0,0.126709,-0.007293701,0.9918976,34.38391,0.7653503,-27.61215,3.305786,0.4270116,0.5443392,-0.1273384,1.296091,-0.2744650999999999,-0.02937941,0.7137555999999999,0.03435081,0.7268507,15.14857,34.23
2,0.0222168,0.002075195,0.9997406,1.0,-0.1727753,0.0194397,0.9847565,-31.75989,-0.1095733999999999,-28.01587,2.654816,0.5355462,0.5887688,1.0,0.126709,-0.007293701,0.9918976,34.38391,0.7653503,-27.61215,3.305786,0.4270116,0.5443392,-0.1273384,1.296091,-0.2744650999999999,-0.02937941,0.7137555999999999,0.03435081,0.7268507,15.14857,34.23
2,0.0222168,0.002075195,0.9997406,1.0,-0.1727753,0.0194397,0.9847565,-31.75989,-0.1095733999999999,-28.01587,2.654816,0.5355462,0.5887688,1.0,0.126709,-0.007293701,0.9918976,34.38391,0.7653503,-27.61215,3.305786,0.4270116,0.5443392,-0.1273384,1.296091,-0.2744650999999999,-0.02937941,0.7137555999999999,0.03435081,0.7268507,15.14857,34.23
2,0.0226593,0.001022339,0.9997406,1.0,-0.1686859,0.01841736,0.9854889,-31.73956,-0.1113892,-28.01587,2.654343,0.5343458000000001,0.5889284,1.0,0.1318359,-0.00894165,0.9912261999999998,34.38495,0.7640839,-27.60271,3.310028,0.4263663,0.5444983,-0.1283529,1.295687,-0.2748104,-0.02765721,0.7133439,0.03252,0.7268507,-38.97247,34.23
2,0.0226593,0.001022339,0.9997406,1.0,-0.1686859,0.01841736,0.9854889,-31.73956,-0.1113892,-28.01587,2.654343,0.5343458000000001,0.5889284,1.0,0.1318359,-0.00894165,0.9912261999999998,34.38495,0.7640839,-27.60271,3.310028,0.4263663,0.5444983,-0.1283529,1.295687,-0.2748104,-0.02765721,0.7133439,0.03252,0.7268507,-38.97247,34.23
2,0.0226593,0.001022339,0.9997406,1.0,-0.1686859,0.01841736,0.9854889,-31.73956,-0.1113892,-28.01587,2.654343,0.5343458000000001,0.5889284,1.0,0.1318359,-0.00894165,0.9912261999999998,34.38495,0.7640839,-27.60271,3.310028,0.4263663,0.5444983,-0.1283529,1.295687,-0.2748104,-0.02765721,0.7133439,0.03252,0.7268507,-38.97247,34.23
2,0.02738953,0.0005645752,0.9996185,1.0,-0.1676788,0.01637268,0.9857025,-31.72333,-0.125351,-27.96886,2.627167,0.5336273,0.5891641,1.0,0.1343079,-0.008132935,0.9908905,34.3857,0.7640839,-27.6011,3.316818,0.4260425999999999,0.5443973000000001,-0.129209,1.295399,-0.275008,-0.02655135,0.7124179,0.03107211,0.7268507,-38.97247,34.23
2,0.02738953,0.0005645752,0.9996185,1.0,-0.1676788,0.01637268,0.9857025,-31.72333,-0.125351,-27.96886,2.627167,0.5336273,0.5891641,1.0,0.1343079,-0.008132935,0.9908905,34.3857,0.7640839,-27.6011,3.316818,0.4260425999999999,0.5443973000000001,-0.129209,1.295399,-0.275008,-0.02655135,0.7124179,0.03107211,0.7268507,-38.97247,34.23
2,0.02738953,0.0005645752,0.9996185,1.0,-0.1676788,0.01637268,0.9857025,-31.72333,-0.125351,-27.96886,2.627167,0.5336273,0.5891641,1.0,0.1343079,-0.008132935,0.9908905,34.3857,0.7640839,-27.6011,3.316818,0.4260425999999999,0.5443973000000001,-0.129209,1.295399,-0.275008,-0.02655135,0.7124179,0.03107211,0.7268507,-38.97247,34.23
2,0.03147888,0.0007171631,0.9994965,1.0,-0.1680145,0.01496887,0.9856567,-31.72255,-0.125351,-27.94485,2.627213,0.5336273,0.5891116,1.0,0.1345825,-0.00668335,0.9908752,34.3857,0.7658844,-27.5957,3.320496,0.4260151,0.5441121,-0.1308109999999999,1.2953629999999998,-0.2751998,-0.02552904,0.7111443000000001,0.0295957,0.7268507,-38.97247,34.23
2,0.03147888,0.0007171631,0.9994965,1.0,-0.1680145,0.01496887,0.9856567,-31.72255,-0.125351,-27.94485,2.627213,0.5336273,0.5891116,1.0,0.1345825,-0.00668335,0.9908752,34.3857,0.7658844,-27.5957,3.320496,0.4260151,0.5441121,-0.1308109999999999,1.2953629999999998,-0.2751998,-0.02552904,0.7111443000000001,0.0295957,0.7268507,-38.97247,34.23
2,0.03147888,0.0007171631,0.9994965,1.0,-0.1680145,0.01496887,0.9856567,-31.72255,-0.125351,-27.94485,2.627213,0.5336273,0.5891116,1.0,0.1345825,-0.00668335,0.9908752,34.3857,0.7658844,-27.5957,3.320496,0.4260151,0.5441121,-0.1308109999999999,1.2953629999999998,-0.2751998,-0.02552904,0.7111443000000001,0.0295957,0.7268507,-38.97247,34.23
2,0.03147888,0.0007171631,0.9994965,1.0,-0.1680145,0.01496887,0.9856567,-31.72255,-0.125351,-27.94485,2.627213,0.5336273,0.5891116,1.0,0.1345825,-0.00668335,0.9908752,34.3857,0.7658844,-27.5957,3.320496,0.4260151,0.5441121,-0.1313957999999999,1.295393,-0.2751135,-0.02551109,0.7102615,0.02873829,0.7268507,-38.97247,34.23
2,0.03147888,0.0007171631,0.9994965,1.0,-0.1680145,0.01496887,0.9856567,-31.72255,-0.125351,-27.94485,2.627213,0.5336273,0.5891116,1.0,0.1345825,-0.00668335,0.9908752,34.3857,0.7658844,-27.5957,3.320496,0.4260151,0.5441121,-0.1313957999999999,1.295393,-0.2751135,-0.02551109,0.7102615,0.02873829,0.7268507,-38.97247,34.23
2,0.03147888,0.0007171631,0.9994965,1.0,-0.1680145,0.01496887,0.9856567,-31.72255,-0.125351,-27.94485,2.627213,0.5336273,0.5891116,1.0,0.1345825,-0.00668335,0.9908752,34.3857,0.7658844,-27.5957,3.320496,0.4260151,0.5441121,-0.1313957999999999,1.295393,-0.2751135,-0.02551109,0.7102615,0.02873829,0.7268507,-38.97247,34.23
2,-0.1327515,-0.02398682,0.9908447,1.0,-0.1576537999999999,-0.02102661,0.9872589,-31.64778,-0.1992645,-27.90329,2.673676,0.5297769,0.5956421,1.0,0.1631927,-0.05734253,0.9849243,34.39734,0.6456299,-27.29488,3.46257,0.4222550999999999,0.5516635999999999,-0.132024,1.295318,-0.2749704,-0.02524215,0.7098982,0.02825143,0.7268507,-38.97247,34.23
2,-0.1327515,-0.02398682,0.9908447,1.0,-0.1576537999999999,-0.02102661,0.9872589,-31.64778,-0.1992645,-27.90329,2.673676,0.5297769,0.5956421,1.0,0.1631927,-0.05734253,0.9849243,34.39734,0.6456299,-27.29488,3.46257,0.4222550999999999,0.5516635999999999,-0.132024,1.295318,-0.2749704,-0.02524215,0.7098982,0.02825143,0.7268507,-38.97247,34.23
2,-0.1327515,-0.02398682,0.9908447,1.0,-0.1576537999999999,-0.02102661,0.9872589,-31.64778,-0.1992645,-27.90329,2.673676,0.5297769,0.5956421,1.0,0.1631927,-0.05734253,0.9849243,34.39734,0.6456299,-27.29488,3.46257,0.4222550999999999,0.5516635999999999,-0.132024,1.295318,-0.2749704,-0.02524215,0.7098982,0.02825143,0.7268507,-38.97247,34.23
2,0.02536011,-0.03430176,0.9990845,1.0,-0.1586303999999999,-0.005355835,0.9873199,-31.66937,-0.1809998,-27.89452,2.618881,0.5306116,0.5929634,1.0,0.1477356,-0.05297852,0.9875946,34.38098,0.6542206,-27.3121,3.3662410000000005,0.4247018,0.5509202,-0.1323513999999999,1.295408,-0.2747472,-0.02456694,0.7098312,0.02786079,0.7268507,-38.97247,34.23
2,0.02536011,-0.03430176,0.9990845,1.0,-0.1586303999999999,-0.005355835,0.9873199,-31.66937,-0.1809998,-27.89452,2.618881,0.5306116,0.5929634,1.0,0.1477356,-0.05297852,0.9875946,34.38098,0.6542206,-27.3121,3.3662410000000005,0.4247018,0.5509202,-0.1323513999999999,1.295408,-0.2747472,-0.02456694,0.7098312,0.02786079,0.7268507,-38.97247,34.23
2,0.02536011,-0.03430176,0.9990845,1.0,-0.1586303999999999,-0.005355835,0.9873199,-31.66937,-0.1809998,-27.89452,2.618881,0.5306116,0.5929634,1.0,0.1477356,-0.05297852,0.9875946,34.38098,0.6542206,-27.3121,3.3662410000000005,0.4247018,0.5509202,-0.1323513999999999,1.295408,-0.2747472,-0.02456694,0.7098312,0.02786079,0.7268507,-38.97247,34.23
2,0.02041626,-0.02845764,0.9993744,1.0,-0.1612091,-0.005279541,0.9868927,-31.67706,-0.1791687,-27.876690000000004,2.611588,0.5311803,0.5927300999999999,1.0,0.1470032,-0.04408264,0.9881439,34.373259999999995,0.662384,-27.34367,3.346024,0.4250498,0.549848,-0.132437,1.295672,-0.2746416,-0.02442184,0.710124,0.02857449,0.7268507,-42.96295,34.23
2,0.02041626,-0.02845764,0.9993744,1.0,-0.1612091,-0.005279541,0.9868927,-31.67706,-0.1791687,-27.876690000000004,2.611588,0.5311803,0.5927300999999999,1.0,0.1470032,-0.04408264,0.9881439,34.373259999999995,0.662384,-27.34367,3.346024,0.4250498,0.549848,-0.132437,1.295672,-0.2746416,-0.02442184,0.710124,0.02857449,0.7268507,-42.96295,34.23
2,0.02041626,-0.02845764,0.9993744,1.0,-0.1612091,-0.005279541,0.9868927,-31.67706,-0.1791687,-27.876690000000004,2.611588,0.5311803,0.5927300999999999,1.0,0.1470032,-0.04408264,0.9881439,34.373259999999995,0.662384,-27.34367,3.346024,0.4250498,0.549848,-0.132437,1.295672,-0.2746416,-0.02442184,0.710124,0.02857449,0.7268507,-42.96295,34.23
2,0.01783752,-0.0269165,0.9994659,1.0,-0.1592559999999999,-0.0051574709999999,0.9872131,-31.69012,-0.1643372,-27.84653,2.611893,0.531369,0.5919151,1.0,0.1404114,-0.04150391,0.989212,34.35533,0.6950684,-27.38751,3.293381,0.4264534,0.5487854,-0.1325088,1.295837,-0.2745081,-0.02495465,0.7107604000000001,0.02813211,0.7268507,-42.96295,34.23
2,0.01783752,-0.0269165,0.9994659,1.0,-0.1592559999999999,-0.0051574709999999,0.9872131,-31.69012,-0.1643372,-27.84653,2.611893,0.531369,0.5919151,1.0,0.1404114,-0.04150391,0.989212,34.35533,0.6950684,-27.38751,3.293381,0.4264534,0.5487854,-0.1325088,1.295837,-0.2745081,-0.02495465,0.7107604000000001,0.02813211,0.7268507,-42.96295,34.23
2,0.01783752,-0.0269165,0.9994659,1.0,-0.1592559999999999,-0.0051574709999999,0.9872131,-31.69012,-0.1643372,-27.84653,2.611893,0.531369,0.5919151,1.0,0.1404114,-0.04150391,0.989212,34.35533,0.6950684,-27.38751,3.293381,0.4264534,0.5487854,-0.1325088,1.295837,-0.2745081,-0.02495465,0.7107604000000001,0.02813211,0.7268507,-42.96295,34.23
2,0.01037598,-0.0201416,0.9997406,1.0,-0.1615906,-0.004074097,0.9868469,-31.69452,-0.1431579999999999,-27.84653,2.602264,0.5318053,0.591058,1.0,0.1401977999999999,-0.03189087,0.9895935,34.33588,0.717865,-27.4015,3.276352,0.4271503,0.5469771,-0.1324494,1.296084,-0.2743778,-0.02497047,0.7111493,0.02846307,0.724288,-42.96295,34.23
2,0.01037598,-0.0201416,0.9997406,1.0,-0.1615906,-0.004074097,0.9868469,-31.69452,-0.1431579999999999,-27.84653,2.602264,0.5318053,0.591058,1.0,0.1401977999999999,-0.03189087,0.9895935,34.33588,0.717865,-27.4015,3.276352,0.4271503,0.5469771,-0.1324494,1.296084,-0.2743778,-0.02497047,0.7111493,0.02846307,0.724288,-42.96295,34.23
2,0.01037598,-0.0201416,0.9997406,1.0,-0.1615906,-0.004074097,0.9868469,-31.69452,-0.1431579999999999,-27.84653,2.602264,0.5318053,0.591058,1.0,0.1401977999999999,-0.03189087,0.9895935,34.33588,0.717865,-27.4015,3.276352,0.4271503,0.5469771,-0.1324494,1.296084,-0.2743778,-0.02497047,0.7111493,0.02846307,0.724288,-42.96295,34.23
3,-0.1629943999999999,0.01223755,0.9865417,1.0,-0.1629943999999999,0.01223755,0.9865417,-31.490920000000003,0.1098633,-27.13185,2.531708,0.5247134,0.5737061999999999,1.0,0.0,0.0,0.0,34.28354,1.05925,-27.5717,-1.0,0.4273282999999999,0.5304321999999999,-0.1323545,1.296491,-0.2741525999999999,-0.02589143,0.7118098,0.02922775,0.724288,33.97359,34.23
3,-0.1629943999999999,0.01223755,0.9865417,1.0,-0.1629943999999999,0.01223755,0.9865417,-31.490920000000003,0.1098633,-27.13185,2.531708,0.5247134,0.5737061999999999,1.0,0.0,0.0,0.0,34.28354,1.05925,-27.5717,-1.0,0.4273282999999999,0.5304321999999999,-0.1323545,1.296491,-0.2741525999999999,-0.02589143,0.7118098,0.02922775,0.724288,33.97359,34.23
3,-0.1629943999999999,0.01223755,0.9865417,1.0,-0.1629943999999999,0.01223755,0.9865417,-31.490920000000003,0.1098633,-27.13185,2.531708,0.5247134,0.5737061999999999,1.0,0.0,0.0,0.0,34.28354,1.05925,-27.5717,-1.0,0.4273282999999999,0.5304321999999999,-0.1323545,1.296491,-0.2741525999999999,-0.02589143,0.7118098,0.02922775,0.724288,33.97359,34.23
3,0.1621246,-0.0001831054999999,0.9867554,1.0,-0.1398926,0.04354858,0.9891968,-31.60565,0.3383179,-28.59041,2.554733,0.5265288,0.5756624,1.0,0.1624756,-0.0002288818,0.9867096,34.36465,0.884491,-27.09819,3.228928,0.4238726,0.5349191,-0.1323755,1.296714,-0.2740415,-0.02687724,0.7125319999999999,0.03033969,0.724288,33.97359,34.23
3,0.1621246,-0.0001831054999999,0.9867554,1.0,-0.1398926,0.04354858,0.9891968,-31.60565,0.3383179,-28.59041,2.554733,0.5265288,0.5756624,1.0,0.1624756,-0.0002288818,0.9867096,34.36465,0.884491,-27.09819,3.228928,0.4238726,0.5349191,-0.1323755,1.296714,-0.2740415,-0.02687724,0.7125319999999999,0.03033969,0.724288,33.97359,34.23
3,0.1621246,-0.0001831054999999,0.9867554,1.0,-0.1398926,0.04354858,0.9891968,-31.60565,0.3383179,-28.59041,2.554733,0.5265288,0.5756624,1.0,0.1624756,-0.0002288818,0.9867096,34.36465,0.884491,-27.09819,3.228928,0.4238726,0.5349191,-0.1323755,1.296714,-0.2740415,-0.02687724,0.7125319999999999,0.03033969,0.724288,33.97359,34.23
3,0.1630249,0.004669189,0.9866028,1.0,-0.1325531,0.042099,0.9902802,-31.60565,0.3383179,-28.59041,2.427979,0.5255486999999999,0.5756624,1.0,0.1630554,0.004669189,0.9866028,34.37901,0.8858337,-27.11125,3.230118,0.423318,0.5344058,-0.1322281,1.296886,-0.2738119,-0.02735928,0.7128781999999999,0.03109919,0.724288,33.97359,34.23
3,0.1630249,0.004669189,0.9866028,1.0,-0.1325531,0.042099,0.9902802,-31.60565,0.3383179,-28.59041,2.427979,0.5255486999999999,0.5756624,1.0,0.1630554,0.004669189,0.9866028,34.37901,0.8858337,-27.11125,3.230118,0.423318,0.5344058,-0.1322281,1.296886,-0.2738119,-0.02735928,0.7128781999999999,0.03109919,0.724288,33.97359,34.23
3,0.1630249,0.004669189,0.9866028,1.0,-0.1325531,0.042099,0.9902802,-31.60565,0.3383179,-28.59041,2.427979,0.5255486999999999,0.5756624,1.0,0.1630554,0.004669189,0.9866028,34.37901,0.8858337,-27.11125,3.230118,0.423318,0.5344058,-0.1322281,1.296886,-0.2738119,-0.02735928,0.7128781999999999,0.03109919,0.724288,33.97359,34.23
3,0.1620483,0.005187988,0.9867554,1.0,-0.06364441,0.05940247,0.9962006,-31.79558,1.2944790000000002,-32.32372,2.360779,0.5253896,0.5756624,1.0,0.1620483,0.005187988,0.9867554,34.385220000000004,0.8869934000000002,-27.12332,3.2301330000000004,0.4232222,0.5344058,-0.1320376,1.297073,-0.2734900999999999,-0.02814416,0.7129588000000001,0.03167425,0.724288,33.97359,34.23
3,0.1620483,0.005187988,0.9867554,1.0,-0.06364441,0.05940247,0.9962006,-31.79558,1.2944790000000002,-32.32372,2.360779,0.5253896,0.5756624,1.0,0.1620483,0.005187988,0.9867554,34.385220000000004,0.8869934000000002,-27.12332,3.2301330000000004,0.4232222,0.5344058,-0.1320376,1.297073,-0.2734900999999999,-0.02814416,0.7129588000000001,0.03167425,0.724288,33.97359,34.23
3,0.1620483,0.005187988,0.9867554,1.0,-0.06364441,0.05940247,0.9962006,-31.79558,1.2944790000000002,-32.32372,2.360779,0.5253896,0.5756624,1.0,0.1620483,0.005187988,0.9867554,34.385220000000004,0.8869934000000002,-27.12332,3.2301330000000004,0.4232222,0.5344058,-0.1320376,1.297073,-0.2734900999999999,-0.02814416,0.7129588000000001,0.03167425,0.724288,33.97359,34.23
3,0.1641388,0.00730896,0.9864044,1.0,-0.06005859,0.05126953,0.9968719,-31.78563,1.174957,-31.87404,2.348358,0.5243268,0.5765348000000001,1.0,0.1641388,0.00730896,0.9864044,34.39162,0.8889465,-27.14073,3.218399,0.4227521999999999,0.5342308000000001,-0.1317487,1.29725,-0.2731281,-0.02874348,0.7127666,0.03175788,0.724288,33.97359,34.23
3,0.1641388,0.00730896,0.9864044,1.0,-0.06005859,0.05126953,0.9968719,-31.78563,1.174957,-31.87404,2.348358,0.5243268,0.5765348000000001,1.0,0.1641388,0.00730896,0.9864044,34.39162,0.8889465,-27.14073,3.218399,0.4227521999999999,0.5342308000000001,-0.1317487,1.29725,-0.2731281,-0.02874348,0.7127666,0.03175788,0.724288,33.97359,34.23
3,0.1641388,0.00730896,0.9864044,1.0,-0.06005859,0.05126953,0.9968719,-31.78563,1.174957,-31.87404,2.348358,0.5243268,0.5765348000000001,1.0,0.1641388,0.00730896,0.9864044,34.39162,0.8889465,-27.14073,3.218399,0.4227521999999999,0.5342308000000001,-0.1317487,1.29725,-0.2731281,-0.02874348,0.7127666,0.03175788,0.724288,33.97359,34.23
3,0.1641388,0.00730896,0.9864044,1.0,-0.06005859,0.05126953,0.9968719,-31.78563,1.174957,-31.87404,2.348358,0.5243268,0.5765348000000001,1.0,0.1641388,0.00730896,0.9864044,34.39162,0.8889465,-27.14073,3.218399,0.4227521999999999,0.5342308000000001,-0.1313279,1.297439,-0.2726222,-0.02906273,0.7124611999999999,0.03224482,0.724288,1.831284,34.23
3,0.1641388,0.00730896,0.9864044,1.0,-0.06005859,0.05126953,0.9968719,-31.78563,1.174957,-31.87404,2.348358,0.5243268,0.5765348000000001,1.0,0.1641388,0.00730896,0.9864044,34.39162,0.8889465,-27.14073,3.218399,0.4227521999999999,0.5342308000000001,-0.1313279,1.297439,-0.2726222,-0.02906273,0.7124611999999999,0.03224482,0.724288,1.831284,34.23
3,0.1641388,0.00730896,0.9864044,1.0,-0.06005859,0.05126953,0.9968719,-31.78563,1.174957,-31.87404,2.348358,0.5243268,0.5765348000000001,1.0,0.1641388,0.00730896,0.9864044,34.39162,0.8889465,-27.14073,3.218399,0.4227521999999999,0.5342308000000001,-0.1313279,1.297439,-0.2726222,-0.02906273,0.7124611999999999,0.03224482,0.724288,1.831284,34.23
3,0.1698456,0.005371094,0.9854431,1.0,-0.06336975,0.04797363,0.9968262,-31.77124,1.0441280000000002,-31.423,2.345963,0.5240053,0.5771887,1.0,0.1698914,0.005371094,0.9854431,34.40205,0.8865509,-27.12332,3.146652,0.4217646,0.5343138000000001,-0.1308987,1.297607,-0.2721307,-0.02971441,0.7120869000000001,0.03238121,0.724288,1.831284,34.23
3,0.1698456,0.005371094,0.9854431,1.0,-0.06336975,0.04797363,0.9968262,-31.77124,1.0441280000000002,-31.423,2.345963,0.5240053,0.5771887,1.0,0.1698914,0.005371094,0.9854431,34.40205,0.8865509,-27.12332,3.146652,0.4217646,0.5343138000000001,-0.1308987,1.297607,-0.2721307,-0.02971441,0.7120869000000001,0.03238121,0.724288,1.831284,34.23
3,0.1698456,0.005371094,0.9854431,1.0,-0.06336975,0.04797363,0.9968262,-31.77124,1.0441280000000002,-31.423,2.345963,0.5240053,0.5771887,1.0,0.1698914,0.005371094,0.9854431,34.40205,0.8865509,-27.12332,3.146652,0.4217646,0.5343138000000001,-0.1308987,1.297607,-0.2721307,-0.02971441,0.7120869000000001,0.03238121,0.724288,1.831284,34.23
3,0.16539,0.0081176759999999,0.9861908,1.0,-0.06816101,0.04679871,0.9965668,-31.76038,0.9380646,-31.04018,2.310837,0.5240053,0.5773275,1.0,0.1682281,0.007629395,0.9857178,34.420840000000005,0.8703460999999999,-27.09523,3.126007,0.4213668,0.5343138000000001,-0.1307929,1.297508,-0.2717505,-0.02968593,0.7118208,0.03279173,0.724288,1.831284,34.23
3,0.16539,0.0081176759999999,0.9861908,1.0,-0.06816101,0.04679871,0.9965668,-31.76038,0.9380646,-31.04018,2.310837,0.5240053,0.5773275,1.0,0.1682281,0.007629395,0.9857178,34.420840000000005,0.8703460999999999,-27.09523,3.126007,0.4213668,0.5343138000000001,-0.1307929,1.297508,-0.2717505,-0.02968593,0.7118208,0.03279173,0.724288,1.831284,34.23
3,0.16539,0.0081176759999999,0.9861908,1.0,-0.06816101,0.04679871,0.9965668,-31.76038,0.9380646,-31.04018,2.310837,0.5240053,0.5773275,1.0,0.1682281,0.007629395,0.9857178,34.420840000000005,0.8703460999999999,-27.09523,3.126007,0.4213668,0.5343138000000001,-0.1307929,1.297508,-0.2717505,-0.02968593,0.7118208,0.03279173,0.724288,1.831284,34.23
3,0.168457,0.007659912,0.985672,1.0,-0.1496124,0.03396606,0.9881592,-31.53947,0.1696472,-28.140590000000003,2.361145,0.52513,0.5781678000000001,1.0,0.168457,0.007659912,0.985672,34.42792,0.8675079,-27.089340000000004,3.101486,0.4211206,0.534326,-0.1306632,1.297323,-0.2714794,-0.02930412,0.7117420999999999,0.03267919,0.724288,1.831284,34.23
3,0.168457,0.007659912,0.985672,1.0,-0.1496124,0.03396606,0.9881592,-31.53947,0.1696472,-28.140590000000003,2.361145,0.52513,0.5781678000000001,1.0,0.168457,0.007659912,0.985672,34.42792,0.8675079,-27.089340000000004,3.101486,0.4211206,0.534326,-0.1306632,1.297323,-0.2714794,-0.02930412,0.7117420999999999,0.03267919,0.724288,1.831284,34.23
3,0.168457,0.007659912,0.985672,1.0,-0.1496124,0.03396606,0.9881592,-31.53947,0.1696472,-28.140590000000003,2.361145,0.52513,0.5781678000000001,1.0,0.168457,0.007659912,0.985672,34.42792,0.8675079,-27.089340000000004,3.101486,0.4211206,0.534326,-0.1306632,1.297323,-0.2714794,-0.02930412,0.7117420999999999,0.03267919,0.724288,1.831284,34.23
3,0.04763794,0.02534485,0.9985351999999998,1.0,-0.1555328,0.04338074,0.9868622,-31.542720000000003,0.1473846,-28.08238,2.3475040000000003,0.5259461999999999,0.5772286999999999,1.0,0.1743774,0.01345825,0.9845734,34.4166,0.8929749,-27.13275,3.058243,0.4207871,0.533129,-0.1302595,1.297011,-0.2711675,-0.02856941,0.7120553000000001,0.03292257,0.724288,1.831284,34.23
3,0.04763794,0.02534485,0.9985351999999998,1.0,-0.1555328,0.04338074,0.9868622,-31.542720000000003,0.1473846,-28.08238,2.3475040000000003,0.5259461999999999,0.5772286999999999,1.0,0.1743774,0.01345825,0.9845734,34.4166,0.8929749,-27.13275,3.058243,0.4207871,0.533129,-0.1302595,1.297011,-0.2711675,-0.02856941,0.7120553000000001,0.03292257,0.724288,-3.738052,34.23
3,0.04763794,0.02534485,0.9985351999999998,1.0,-0.1555328,0.04338074,0.9868622,-31.542720000000003,0.1473846,-28.08238,2.3475040000000003,0.5259461999999999,0.5772286999999999,1.0,0.1743774,0.01345825,0.9845734,34.4166,0.8929749,-27.13275,3.058243,0.4207871,0.533129,-0.1302595,1.297011,-0.2711675,-0.02856941,0.7120553000000001,0.03292257,0.724288,-3.738052,34.23
3,0.0405426,0.02716064,0.9987946,1.0,-0.1537323,0.04336548,0.9871521,-31.54932,0.1473846,-28.08238,2.34758,0.5259461999999999,0.5772286999999999,1.0,0.175705,0.01519775,0.984314,34.41365,0.9046021,-27.14066,3.057419,0.4207259,0.5326023,-0.1297886,1.296925,-0.2708895999999999,-0.02828306,0.7121588000000001,0.03278162,0.724288,-27.15273,34.23
3,0.0405426,0.02716064,0.9987946,1.0,-0.1537323,0.04336548,0.9871521,-31.54932,0.1473846,-28.08238,2.34758,0.5259461999999999,0.5772286999999999,1.0,0.175705,0.01519775,0.984314,34.41365,0.9046021,-27.14066,3.057419,0.4207259,0.5326023,-0.1297886,1.296925,-0.2708895999999999,-0.02828306,0.7121588000000001,0.03278162,0.724288,-27.15273,34.23
3,0.0405426,0.02716064,0.9987946,1.0,-0.1537323,0.04336548,0.9871521,-31.54932,0.1473846,-28.08238,2.34758,0.5259461999999999,0.5772286999999999,1.0,0.175705,0.01519775,0.984314,34.41365,0.9046021,-27.14066,3.057419,0.4207259,0.5326023,-0.1297886,1.296925,-0.2708895999999999,-0.02828306,0.7121588000000001,0.03278162,0.724288,-27.15273,34.23
3,0.05177307,0.02613831,0.9983063,1.0,-0.1444397,0.03991699,0.9886932,-31.58162,0.1851959,-28.14684,2.320129,0.5259119000000001,0.5769036999999999,1.0,0.1776122999999999,0.01669312,0.9839478000000002,34.41,0.9123688,-27.16142,3.057541,0.4206054,0.5323576,-0.1293671,1.296912,-0.2705337,-0.02817683,0.7120894,0.03297074,0.724288,-27.15273,34.23
3,0.05177307,0.02613831,0.9983063,1.0,-0.1444397,0.03991699,0.9886932,-31.58162,0.1851959,-28.14684,2.320129,0.5259119000000001,0.5769036999999999,1.0,0.1776122999999999,0.01669312,0.9839478000000002,34.41,0.9123688,-27.16142,3.057541,0.4206054,0.5323576,-0.1293671,1.296912,-0.2705337,-0.02817683,0.7120894,0.03297074,0.724288,-27.15273,34.23
3,0.05177307,0.02613831,0.9983063,1.0,-0.1444397,0.03991699,0.9886932,-31.58162,0.1851959,-28.14684,2.320129,0.5259119000000001,0.5769036999999999,1.0,0.1776122999999999,0.01669312,0.9839478000000002,34.41,0.9123688,-27.16142,3.057541,0.4206054,0.5323576,-0.1293671,1.296912,-0.2705337,-0.02817683,0.7120894,0.03297074,0.724288,-27.15273,34.23
3,0.05177307,0.02613831,0.9983063,1.0,-0.1444397,0.03991699,0.9886932,-31.58162,0.1851959,-28.14684,2.320129,0.5259119000000001,0.5769036999999999,1.0,0.1776122999999999,0.01669312,0.9839478000000002,34.41,0.9123688,-27.16142,3.057541,0.4206054,0.5323576,-0.1290238,1.2968879999999998,-0.2702627999999999,-0.02842928,0.7118026999999999,0.03355824,0.724288,-27.15273,34.23
3,0.05177307,0.02613831,0.9983063,1.0,-0.1444397,0.03991699,0.9886932,-31.58162,0.1851959,-28.14684,2.320129,0.5259119000000001,0.5769036999999999,1.0,0.1776122999999999,0.01669312,0.9839478000000002,34.41,0.9123688,-27.16142,3.057541,0.4206054,0.5323576,-0.1290238,1.2968879999999998,-0.2702627999999999,-0.02842928,0.7118026999999999,0.03355824,0.724288,-27.15273,34.23
3,0.05177307,0.02613831,0.9983063,1.0,-0.1444397,0.03991699,0.9886932,-31.58162,0.1851959,-28.14684,2.320129,0.5259119000000001,0.5769036999999999,1.0,0.1776122999999999,0.01669312,0.9839478000000002,34.41,0.9123688,-27.16142,3.057541,0.4206054,0.5323576,-0.1290238,1.2968879999999998,-0.2702627999999999,-0.02842928,0.7118026999999999,0.03355824,0.724288,-27.15273,34.23
3,0.1440277,0.0193634,0.9893799,1.0,-0.1392517,0.04153442,0.9893799,-31.592540000000003,0.3267059,-28.42528,2.344406,0.5258062,0.5745064999999999,1.0,0.1794739,0.0164032,0.9836121,34.40851,0.937973,-27.19623,3.030533,0.4204233,0.5318149,-0.1289124,1.296969,-0.2699048,-0.02871495,0.7114474000000001,0.0341281,0.724288,-27.15273,34.23
3,0.1440277,0.0193634,0.9893799,1.0,-0.1392517,0.04153442,0.9893799,-31.592540000000003,0.3267059,-28.42528,2.344406,0.5258062,0.5745064999999999,1.0,0.1794739,0.0164032,0.9836121,34.40851,0.937973,-27.19623,3.030533,0.4204233,0.5318149,-0.1289124,1.296969,-0.2699048,-0.02871495,0.7114474000000001,0.0341281,0.724288,-27.15273,34.23
3,0.1440277,0.0193634,0.9893799,1.0,-0.1392517,0.04153442,0.9893799,-31.592540000000003,0.3267059,-28.42528,2.344406,0.5258062,0.5745064999999999,1.0,0.1794739,0.0164032,0.9836121,34.40851,0.937973,-27.19623,3.030533,0.4204233,0.5318149,-0.1289124,1.296969,-0.2699048,-0.02871495,0.7114474000000001,0.0341281,0.724288,-27.15273,34.23
3,0.1637267999999999,0.02328491,0.9862213,1.0,-0.1392212,0.02668762,0.9898987,-31.59219,0.3118591,-28.37044,2.2850650000000003,0.5257225999999999,0.5762430000000001,1.0,0.1808167,0.02302551,0.9832306,34.40782,0.9747772,-27.26616,3.0489040000000003,0.4202348,0.5304321999999999,-0.1287556,1.297112,-0.2694393,-0.02965027,0.7109146,0.0349488,0.724288,-27.15273,34.23
3,0.1637267999999999,0.02328491,0.9862213,1.0,-0.1392212,0.02668762,0.9898987,-31.59219,0.3118591,-28.37044,2.2850650000000003,0.5257225999999999,0.5762430000000001,1.0,0.1808167,0.02302551,0.9832306,34.40782,0.9747772,-27.26616,3.0489040000000003,0.4202348,0.5304321999999999,-0.1287556,1.297112,-0.2694393,-0.02965027,0.7109146,0.0349488,0.724288,-27.15273,34.23
3,0.1637267999999999,0.02328491,0.9862213,1.0,-0.1392212,0.02668762,0.9898987,-31.59219,0.3118591,-28.37044,2.2850650000000003,0.5257225999999999,0.5762430000000001,1.0,0.1808167,0.02302551,0.9832306,34.40782,0.9747772,-27.26616,3.0489040000000003,0.4202348,0.5304321999999999,-0.1287556,1.297112,-0.2694393,-0.02965027,0.7109146,0.0349488,0.724288,-27.15273,34.23
3,0.1637267999999999,0.02328491,0.9862213,1.0,-0.1392212,0.02668762,0.9898987,-31.59219,0.3118591,-28.37044,2.2850650000000003,0.5257225999999999,0.5762430000000001,1.0,0.1808167,0.02302551,0.9832306,34.40782,0.9747772,-27.26616,3.0489040000000003,0.4202348,0.5304321999999999,-0.1285951,1.297459,-0.2690167999999999,-0.03120813,0.7103371999999999,0.03638955,0.724288,-62.09984,34.23
3,0.1637267999999999,0.02328491,0.9862213,1.0,-0.1392212,0.02668762,0.9898987,-31.59219,0.3118591,-28.37044,2.2850650000000003,0.5257225999999999,0.5762430000000001,1.0,0.1808167,0.02302551,0.9832306,34.40782,0.9747772,-27.26616,3.0489040000000003,0.4202348,0.5304321999999999,-0.1285951,1.297459,-0.2690167999999999,-0.03120813,0.7103371999999999,0.03638955,0.724288,-62.09984,34.23
3,0.1637267999999999,0.02328491,0.9862213,1.0,-0.1392212,0.02668762,0.9898987,-31.59219,0.3118591,-28.37044,2.2850650000000003,0.5257225999999999,0.5762430000000001,1.0,0.1808167,0.02302551,0.9832306,34.40782,0.9747772,-27.26616,3.0489040000000003,0.4202348,0.5304321999999999,-0.1285951,1.297459,-0.2690167999999999,-0.03120813,0.7103371999999999,0.03638955,0.724288,-62.09984,34.23
3,-0.06150818,0.02044678,0.9978943,1.0,-0.1420287999999999,0.0224762,0.9895935,-31.57802,0.3633575,-28.32384,2.28479,0.5255703,0.5745763,1.0,0.1771392999999999,0.01373291,0.9840851,34.404720000000005,1.158401,-27.53705,3.009552,0.4206352,0.5277295,-0.1286682999999999,1.298439,-0.2685389999999999,-0.03508932,0.7093199,0.03973862,0.724288,-62.09984,34.23
3,-0.06150818,0.02044678,0.9978943,1.0,-0.1420287999999999,0.0224762,0.9895935,-31.57802,0.3633575,-28.32384,2.28479,0.5255703,0.5745763,1.0,0.1771392999999999,0.01373291,0.9840851,34.404720000000005,1.158401,-27.53705,3.009552,0.4206352,0.5277295,-0.1286682999999999,1.298439,-0.2685389999999999,-0.03508932,0.7093199,0.03973862,0.724288,-62.09984,34.23
3,-0.06150818,0.02044678,0.9978943,1.0,-0.1420287999999999,0.0224762,0.9895935,-31.57802,0.3633575,-28.32384,2.28479,0.5255703,0.5745763,1.0,0.1771392999999999,0.01373291,0.9840851,34.404720000000005,1.158401,-27.53705,3.009552,0.4206352,0.5277295,-0.1286682999999999,1.298439,-0.2685389999999999,-0.03508932,0.7093199,0.03973862,0.724288,-62.09984,34.23
3,-0.02336121,0.01046753,0.9996643,1.0,-0.1455231,0.01527405,0.9892273,-31.56818,0.4628143,-28.45979,2.279663,0.5257413000000001,0.5733469,1.0,0.1808472,0.002105713,0.9835052,34.39868,1.205826,-27.47424,2.946777,0.4204772,0.5269231,-0.1287701,1.299952,-0.2680337,-0.04123376,0.7076747,0.04534711,0.724288,-62.09984,34.23
3,-0.02336121,0.01046753,0.9996643,1.0,-0.1455231,0.01527405,0.9892273,-31.56818,0.4628143,-28.45979,2.279663,0.5257413000000001,0.5733469,1.0,0.1808472,0.002105713,0.9835052,34.39868,1.205826,-27.47424,2.946777,0.4204772,0.5269231,-0.1287701,1.299952,-0.2680337,-0.04123376,0.7076747,0.04534711,0.724288,-62.09984,34.23
3,-0.02336121,0.01046753,0.9996643,1.0,-0.1455231,0.01527405,0.9892273,-31.56818,0.4628143,-28.45979,2.279663,0.5257413000000001,0.5733469,1.0,0.1808472,0.002105713,0.9835052,34.39868,1.205826,-27.47424,2.946777,0.4204772,0.5269231,-0.1287701,1.299952,-0.2680337,-0.04123376,0.7076747,0.04534711,0.724288,-62.09984,34.23
3,0.09506226,-0.01054382,0.9954071,1.0,-0.1433257999999999,0.01239014,0.9895935,-31.56143,0.3475037,-28.298140000000004,2.231934,0.5251185,0.5760654000000001,1.0,0.1767119999999999,-0.01838684,0.9840851,34.438190000000006,1.146667,-27.47987,3.008484,0.4195734,0.5314671,-0.1288955,1.301593,-0.2672947,-0.04811212,0.7054956,0.05009555,0.724288,-62.09984,34.23
3,0.09506226,-0.01054382,0.9954071,1.0,-0.1433257999999999,0.01239014,0.9895935,-31.56143,0.3475037,-28.298140000000004,2.231934,0.5251185,0.5760654000000001,1.0,0.1767119999999999,-0.01838684,0.9840851,34.438190000000006,1.146667,-27.47987,3.008484,0.4195734,0.5314671,-0.1288955,1.301593,-0.2672947,-0.04811212,0.7054956,0.05009555,0.724288,-62.09984,34.23
3,0.09506226,-0.01054382,0.9954071,1.0,-0.1433257999999999,0.01239014,0.9895935,-31.56143,0.3475037,-28.298140000000004,2.231934,0.5251185,0.5760654000000001,1.0,0.1767119999999999,-0.01838684,0.9840851,34.438190000000006,1.146667,-27.47987,3.008484,0.4195734,0.5314671,-0.1288955,1.301593,-0.2672947,-0.04811212,0.7054956,0.05009555,0.724288,-62.09984,34.23
3,0.1331787,-0.02171326,0.9908447,1.0,-0.1586914,0.01127625,0.9872589,-31.56815,0.1272278,-27.99025,2.43718,0.5271786,0.5811064,1.0,0.1652527,-0.02531433,0.9859161,34.43591,0.9641876,-27.23727,2.98465,0.4211808,0.5362279999999999,-0.1292496,1.302711,-0.2664785999999999,-0.05262583,0.703228,0.05250805,0.724288,-62.09984,34.23
3,0.1331787,-0.02171326,0.9908447,1.0,-0.1586914,0.01127625,0.9872589,-31.56815,0.1272278,-27.99025,2.43718,0.5271786,0.5811064,1.0,0.1652527,-0.02531433,0.9859161,34.43591,0.9641876,-27.23727,2.98465,0.4211808,0.5362279999999999,-0.1292496,1.302711,-0.2664785999999999,-0.05262583,0.703228,0.05250805,0.724288,-62.09984,34.23
3,0.1331787,-0.02171326,0.9908447,1.0,-0.1586914,0.01127625,0.9872589,-31.56815,0.1272278,-27.99025,2.43718,0.5271786,0.5811064,1.0,0.1652527,-0.02531433,0.9859161,34.43591,0.9641876,-27.23727,2.98465,0.4211808,0.5362279999999999,-0.1292496,1.302711,-0.2664785999999999,-0.05262583,0.703228,0.05250805,0.724288,-62.09984,34.23
3,0.1331787,-0.02171326,0.9908447,1.0,-0.1586914,0.01127625,0.9872589,-31.56815,0.1272278,-27.99025,2.43718,0.5271786,0.5811064,1.0,0.1652527,-0.02531433,0.9859161,34.43591,0.9641876,-27.23727,2.98465,0.4211808,0.5362279999999999,-0.129688,1.3033,-0.2657354,-0.05442536,0.7005366,0.05418073,0.724288,-62.09984,34.23
3,0.1331787,-0.02171326,0.9908447,1.0,-0.1586914,0.01127625,0.9872589,-31.56815,0.1272278,-27.99025,2.43718,0.5271786,0.5811064,1.0,0.1652527,-0.02531433,0.9859161,34.43591,0.9641876,-27.23727,2.98465,0.4211808,0.5362279999999999,-0.129688,1.3033,-0.2657354,-0.05442536,0.7005366,0.05418073,0.724288,-62.09984,34.23
3,0.1331787,-0.02171326,0.9908447,1.0,-0.1586914,0.01127625,0.9872589,-31.56815,0.1272278,-27.99025,2.43718,0.5271786,0.5811064,1.0,0.1652527,-0.02531433,0.9859161,34.43591,0.9641876,-27.23727,2.98465,0.4211808,0.5362279999999999,-0.129688,1.3033,-0.2657354,-0.05442536,0.7005366,0.05418073,0.724288,-62.09984,34.23
3,0.1416779,-0.0184020999999999,0.9897308,1.0,-0.1613007,0.0001525879,0.9868927,-31.56816,0.09500122,-27.99745,2.5204470000000003,0.5275350000000001,0.5837416999999999,1.0,0.1540222,-0.01913452,0.9878693,34.43338,0.9487915,-27.466140000000003,3.018036,0.4224202,0.5380273,-0.1297958,1.303129,-0.2649353,-0.05456106,0.6982583,0.05413195,0.724288,33.12102,34.23
3,0.1416779,-0.0184020999999999,0.9897308,1.0,-0.1613007,0.0001525879,0.9868927,-31.56816,0.09500122,-27.99745,2.5204470000000003,0.5275350000000001,0.5837416999999999,1.0,0.1540222,-0.01913452,0.9878693,34.43338,0.9487915,-27.466140000000003,3.018036,0.4224202,0.5380273,-0.1297958,1.303129,-0.2649353,-0.05456106,0.6982583,0.05413195,0.724288,33.12102,34.23
3,0.1416779,-0.0184020999999999,0.9897308,1.0,-0.1613007,0.0001525879,0.9868927,-31.56816,0.09500122,-27.99745,2.5204470000000003,0.5275350000000001,0.5837416999999999,1.0,0.1540222,-0.01913452,0.9878693,34.43338,0.9487915,-27.466140000000003,3.018036,0.4224202,0.5380273,-0.1297958,1.303129,-0.2649353,-0.05456106,0.6982583,0.05413195,0.724288,33.12102,34.23
3,0.1383209,-0.03453064,0.9897766,1.0,-0.1815338,-0.02529907,0.9830475,-31.62616,-0.2206879,-27.61276,2.339676,0.5317001,0.5939055,1.0,0.151062,-0.03483582,0.9878998,34.36763,0.7684784,-27.57451,2.871811,0.4249104999999999,0.5467932,-0.1299968,1.302491,-0.2641667,-0.05278331,0.6962235999999999,0.05263135,0.724288,33.12102,34.23
3,0.1383209,-0.03453064,0.9897766,1.0,-0.1815338,-0.02529907,0.9830475,-31.62616,-0.2206879,-27.61276,2.339676,0.5317001,0.5939055,1.0,0.151062,-0.03483582,0.9878998,34.36763,0.7684784,-27.57451,2.871811,0.4249104999999999,0.5467932,-0.1299968,1.302491,-0.2641667,-0.05278331,0.6962235999999999,0.05263135,0.724288,33.12102,34.23
3,0.1383209,-0.03453064,0.9897766,1.0,-0.1815338,-0.02529907,0.9830475,-31.62616,-0.2206879,-27.61276,2.339676,0.5317001,0.5939055,1.0,0.151062,-0.03483582,0.9878998,34.36763,0.7684784,-27.57451,2.871811,0.4249104999999999,0.5467932,-0.1299968,1.302491,-0.2641667,-0.05278331,0.6962235999999999,0.05263135,0.724288,33.12102,34.23
3,0.131073,-0.05548096,0.9898071,1.0,-0.1938782,-0.0227355999999999,0.9807587,-31.66164,-0.1915131,-27.45494,2.468414,0.5344042,0.5913069999999999,1.0,0.1448669,-0.0567626999999999,0.9878082,34.31993,0.8477478,-27.61023,2.802032,0.4272787,0.5470793,-0.1299423999999999,1.302096,-0.2633492,-0.05108559,0.6942297,0.05115977,0.724288,33.12102,34.23
3,0.131073,-0.05548096,0.9898071,1.0,-0.1938782,-0.0227355999999999,0.9807587,-31.66164,-0.1915131,-27.45494,2.468414,0.5344042,0.5913069999999999,1.0,0.1448669,-0.0567626999999999,0.9878082,34.31993,0.8477478,-27.61023,2.802032,0.4272787,0.5470793,-0.1299423999999999,1.302096,-0.2633492,-0.05108559,0.6942297,0.05115977,0.724288,33.12102,34.23
3,0.131073,-0.05548096,0.9898071,1.0,-0.1938782,-0.0227355999999999,0.9807587,-31.66164,-0.1915131,-27.45494,2.468414,0.5344042,0.5913069999999999,1.0,0.1448669,-0.0567626999999999,0.9878082,34.31993,0.8477478,-27.61023,2.802032,0.4272787,0.5470793,-0.1299423999999999,1.302096,-0.2633492,-0.05108559,0.6942297,0.05115977,0.724288,33.12102,34.23
3,0.131073,-0.05548096,0.9898071,1.0,-0.1938782,-0.0227355999999999,0.9807587,-31.66164,-0.1915131,-27.45494,2.468414,0.5344042,0.5913069999999999,1.0,0.1448669,-0.0567626999999999,0.9878082,34.31993,0.8477478,-27.61023,2.802032,0.4272787,0.5470793,-0.1298696999999999,1.301819,-0.2626507,-0.05019324,0.6922845999999999,0.05039486,0.724288,33.12102,34.23
3,0.131073,-0.05548096,0.9898071,1.0,-0.1938782,-0.0227355999999999,0.9807587,-31.66164,-0.1915131,-27.45494,2.468414,0.5344042,0.5913069999999999,1.0,0.1448669,-0.0567626999999999,0.9878082,34.31993,0.8477478,-27.61023,2.802032,0.4272787,0.5470793,-0.1298696999999999,1.301819,-0.2626507,-0.05019324,0.6922845999999999,0.05039486,0.724288,33.12102,34.23
3,0.131073,-0.05548096,0.9898071,1.0,-0.1938782,-0.0227355999999999,0.9807587,-31.66164,-0.1915131,-27.45494,2.468414,0.5344042,0.5913069999999999,1.0,0.1448669,-0.0567626999999999,0.9878082,34.31993,0.8477478,-27.61023,2.802032,0.4272787,0.5470793,-0.1298696999999999,1.301819,-0.2626507,-0.05019324,0.6922845999999999,0.05039486,0.724288,33.12102,34.23
3,0.131073,-0.05548096,0.9898071,1.0,-0.1938782,-0.0227355999999999,0.9807587,-31.66164,-0.1915131,-27.45494,2.468414,0.5344042,0.5913069999999999,1.0,0.1448669,-0.0567626999999999,0.9878082,34.31993,0.8477478,-27.61023,2.802032,0.4272787,0.5470793,-0.1298706999999999,1.302184,-0.2621086,-0.05151866,0.6908605999999999,0.05120228,0.724288,23.29387,34.23
3,0.131073,-0.05548096,0.9898071,1.0,-0.1938782,-0.0227355999999999,0.9807587,-31.66164,-0.1915131,-27.45494,2.468414,0.5344042,0.5913069999999999,1.0,0.1448669,-0.0567626999999999,0.9878082,34.31993,0.8477478,-27.61023,2.802032,0.4272787,0.5470793,-0.1298706999999999,1.302184,-0.2621086,-0.05151866,0.6908605999999999,0.05120228,0.724288,23.29387,34.23
3,0.131073,-0.05548096,0.9898071,1.0,-0.1938782,-0.0227355999999999,0.9807587,-31.66164,-0.1915131,-27.45494,2.468414,0.5344042,0.5913069999999999,1.0,0.1448669,-0.0567626999999999,0.9878082,34.31993,0.8477478,-27.61023,2.802032,0.4272787,0.5470793,-0.1298706999999999,1.302184,-0.2621086,-0.05151866,0.6908605999999999,0.05120228,0.724288,23.29387,34.23
3,0.08528137,-0.0473175,0.995224,1.0,-0.2021179,-0.02503967,0.9790344,-31.68044,-0.1081238,-27.55812,2.523819,0.5361499,0.5898358,1.0,0.1411743,-0.05123901,0.9886475,34.30672,0.8871306999999999,-27.66331,2.847443,0.4281213,0.5456018,-0.1302361,1.302424,-0.2616729,-0.05296185,0.6897299,0.0524530999999999,0.724288,23.29387,34.23
3,0.08528137,-0.0473175,0.995224,1.0,-0.2021179,-0.02503967,0.9790344,-31.68044,-0.1081238,-27.55812,2.523819,0.5361499,0.5898358,1.0,0.1411743,-0.05123901,0.9886475,34.30672,0.8871306999999999,-27.66331,2.847443,0.4281213,0.5456018,-0.1302361,1.302424,-0.2616729,-0.05296185,0.6897299,0.0524530999999999,0.724288,23.29387,34.23
3,0.08528137,-0.0473175,0.995224,1.0,-0.2021179,-0.02503967,0.9790344,-31.68044,-0.1081238,-27.55812,2.523819,0.5361499,0.5898358,1.0,0.1411743,-0.05123901,0.9886475,34.30672,0.8871306999999999,-27.66331,2.847443,0.4281213,0.5456018,-0.1302361,1.302424,-0.2616729,-0.05296185,0.6897299,0.0524530999999999,0.724288,23.29387,34.23
3,-0.3517303,-0.03811646,0.935318,1.0,-0.3610992,-0.03756714,0.9317627,-32.41953,0.2875670999999999,-28.02025,2.3152470000000003,0.5818091,0.5835309000000001,1.0,-0.03282166,-0.05345154,0.9980164,33.44749,1.422623,-29.04106,2.784378,0.4776109,0.5406318,-0.1305528,1.30241,-0.2611954999999999,-0.05193048,0.6888659,0.05295692,0.724288,23.29387,34.23
3,-0.3517303,-0.03811646,0.935318,1.0,-0.3610992,-0.03756714,0.9317627,-32.41953,0.2875670999999999,-28.02025,2.3152470000000003,0.5818091,0.5835309000000001,1.0,-0.03282166,-0.05345154,0.9980164,33.44749,1.422623,-29.04106,2.784378,0.4776109,0.5406318,-0.1305528,1.30241,-0.2611954999999999,-0.05193048,0.6888659,0.05295692,0.724288,23.29387,34.23
3,-0.3517303,-0.03811646,0.935318,1.0,-0.3610992,-0.03756714,0.9317627,-32.41953,0.2875670999999999,-28.02025,2.3152470000000003,0.5818091,0.5835309000000001,1.0,-0.03282166,-0.05345154,0.9980164,33.44749,1.422623,-29.04106,2.784378,0.4776109,0.5406318,-0.1305528,1.30241,-0.2611954999999999,-0.05193048,0.6888659,0.05295692,0.724288,23.29387,34.23
3,-0.3415222,-0.04405212,0.9388275,1.0,-0.3421783,-0.04405212,0.9385986,-32.58832,0.3238525,-28.0392,2.293335,0.5851622,0.5830998000000001,1.0,-0.04081726,-0.04162598,0.998291,33.44168,1.440735,-29.01163,2.804398,0.4787816,0.5383734,-0.1308758,1.302302,-0.2600952,-0.05070733,0.6866268,0.05426317,0.724288,23.29387,34.23
3,-0.3415222,-0.04405212,0.9388275,1.0,-0.3421783,-0.04405212,0.9385986,-32.58832,0.3238525,-28.0392,2.293335,0.5851622,0.5830998000000001,1.0,-0.04081726,-0.04162598,0.998291,33.44168,1.440735,-29.01163,2.804398,0.4787816,0.5383734,-0.1308758,1.302302,-0.2600952,-0.05070733,0.6866268,0.05426317,0.724288,23.29387,34.23
3,-0.3415222,-0.04405212,0.9388275,1.0,-0.3421783,-0.04405212,0.9385986,-32.58832,0.3238525,-28.0392,2.293335,0.5851622,0.5830998000000001,1.0,-0.04081726,-0.04162598,0.998291,33.44168,1.440735,-29.01163,2.804398,0.4787816,0.5383734,-0.1308758,1.302302,-0.2600952,-0.05070733,0.6866268,0.05426317,0.724288,23.29387,34.23
4,-0.1902313,-0.04473877,0.9807129,1.0,-0.3430023,-0.0460968,0.9382019,-32.58508,0.3140564,-28.03983,2.2747040000000003,0.5851622,0.5836904,1.0,-0.04211426,-0.04243469,0.9981995,33.453109999999995,1.432755,-28.99965,2.798691,0.4785582,0.5386224000000001,-0.1308758,1.302302,-0.2600952,-0.05070733,0.6866268,0.05426317,0.724288,23.29387,34.23
4,-0.1902313,-0.04473877,0.9807129,1.0,-0.3430023,-0.0460968,0.9382019,-32.58508,0.3140564,-28.03983,2.2747040000000003,0.5851622,0.5836904,1.0,-0.04211426,-0.04243469,0.9981995,33.453109999999995,1.432755,-28.99965,2.798691,0.4785582,0.5386224000000001,-0.1308758,1.302302,-0.2600952,-0.05070733,0.6866268,0.05426317,0.724288,23.29387,34.23
4,-0.1902313,-0.04473877,0.9807129,1.0,-0.3430023,-0.0460968,0.9382019,-32.58508,0.3140564,-28.03983,2.2747040000000003,0.5851622,0.5836904,1.0,-0.04211426,-0.04243469,0.9981995,33.453109999999995,1.432755,-28.99965,2.798691,0.4785582,0.5386224000000001,-0.1308758,1.302302,-0.2600952,-0.05070733,0.6866268,0.05426317,0.724288,23.29387,34.23
4,-0.172226,-0.04403687,0.9840546,1.0,-0.3419037,-0.0393219,0.9389038,-32.58191,0.2850342,-28.04427,2.299927,0.5849116999999999,0.5838825,1.0,-0.04084778,-0.04670715,0.9980621,33.46425,1.419861,-28.95903,2.800034,0.4780314999999999,0.5392186,-0.1312075,1.302689,-0.2594126,-0.05028719,0.6854824,0.05593126,0.724288,13.43143,34.23
4,-0.172226,-0.04403687,0.9840546,1.0,-0.3419037,-0.0393219,0.9389038,-32.58191,0.2850342,-28.04427,2.299927,0.5849116999999999,0.5838825,1.0,-0.04084778,-0.04670715,0.9980621,33.46425,1.419861,-28.95903,2.800034,0.4780314999999999,0.5392186,-0.1312075,1.302689,-0.2594126,-0.05028719,0.6854824,0.05593126,0.724288,13.43143,34.23
4,-0.172226,-0.04403687,0.9840546,1.0,-0.3419037,-0.0393219,0.9389038,-32.58191,0.2850342,-28.04427,2.299927,0.5849116999999999,0.5838825,1.0,-0.04084778,-0.04670715,0.9980621,33.46425,1.419861,-28.95903,2.800034,0.4780314999999999,0.5392186,-0.1312075,1.302689,-0.2594126,-0.05028719,0.6854824,0.05593126,0.724288,13.43143,34.23
4,-0.3254242,-0.02497864,0.9452362,1.0,-0.3328705,-0.02438354,0.9426422,-32.61612,0.2272034,-28.05098,2.288162,0.5849213000000001,0.5839508000000001,1.0,-0.03366089,-0.04582214,0.9983673,33.50719,1.305222,-28.58076,2.7542720000000003,0.4758739,0.5395223000000001,-0.1313453,1.303013,-0.2593734,-0.05046098,0.6856258000000001,0.05755146,0.724288,13.43143,34.23
4,-0.3254242,-0.02497864,0.9452362,1.0,-0.3328705,-0.02438354,0.9426422,-32.61612,0.2272034,-28.05098,2.288162,0.5849213000000001,0.5839508000000001,1.0,-0.03366089,-0.04582214,0.9983673,33.50719,1.305222,-28.58076,2.7542720000000003,0.4758739,0.5395223000000001,-0.1313453,1.303013,-0.2593734,-0.05046098,0.6856258000000001,0.05755146,0.724288,13.43143,34.23
4,-0.3254242,-0.02497864,0.9452362,1.0,-0.3328705,-0.02438354,0.9426422,-32.61612,0.2272034,-28.05098,2.288162,0.5849213000000001,0.5839508000000001,1.0,-0.03366089,-0.04582214,0.9983673,33.50719,1.305222,-28.58076,2.7542720000000003,0.4758739,0.5395223000000001,-0.1313453,1.303013,-0.2593734,-0.05046098,0.6856258000000001,0.05755146,0.724288,13.43143,34.23
4,-0.299408,-0.02424622,0.9538116,1.0,-0.3295898,-0.02159119,0.9438629,-32.63361,0.1971892999999999,-28.05455,2.289352,0.5851001,0.5846420999999999,1.0,-0.03405762,-0.04544067,0.9983826,33.507740000000005,1.2957610000000002,-28.57256,2.72142,0.4759430999999999,0.5397006,-0.1313027999999999,1.303356,-0.2592722,-0.05056283,0.6864254,0.0593969,0.724288,13.43143,34.23
4,-0.299408,-0.02424622,0.9538116,1.0,-0.3295898,-0.02159119,0.9438629,-32.63361,0.1971892999999999,-28.05455,2.289352,0.5851001,0.5846420999999999,1.0,-0.03405762,-0.04544067,0.9983826,33.507740000000005,1.2957610000000002,-28.57256,2.72142,0.4759430999999999,0.5397006,-0.1313027999999999,1.303356,-0.2592722,-0.05056283,0.6864254,0.0593969,0.724288,13.43143,34.23
4,-0.299408,-0.02424622,0.9538116,1.0,-0.3295898,-0.02159119,0.9438629,-32.63361,0.1971892999999999,-28.05455,2.289352,0.5851001,0.5846420999999999,1.0,-0.03405762,-0.04544067,0.9983826,33.507740000000005,1.2957610000000002,-28.57256,2.72142,0.4759430999999999,0.5397006,-0.1313027999999999,1.303356,-0.2592722,-0.05056283,0.6864254,0.0593969,0.724288,13.43143,34.23
4,-0.1484222,-0.03681946,0.9882355,1.0,-0.3309631,-0.02671814,0.9432526,-32.61108,0.1915894,-28.05716,2.3094330000000003,0.5845097,0.5855225000000001,1.0,-0.03424072,-0.04234314,0.9985046,33.5125,1.275589,-28.57402,2.732437,0.4757893,0.5400181,-0.1311674,1.303345,-0.2593212,-0.05035611,0.6871444,0.06027153,0.724288,13.43143,34.23
4,-0.1484222,-0.03681946,0.9882355,1.0,-0.3309631,-0.02671814,0.9432526,-32.61108,0.1915894,-28.05716,2.3094330000000003,0.5845097,0.5855225000000001,1.0,-0.03424072,-0.04234314,0.9985046,33.5125,1.275589,-28.57402,2.732437,0.4757893,0.5400181,-0.1311674,1.303345,-0.2593212,-0.05035611,0.6871444,0.06027153,0.724288,13.43143,34.23
4,-0.1484222,-0.03681946,0.9882355,1.0,-0.3309631,-0.02671814,0.9432526,-32.61108,0.1915894,-28.05716,2.3094330000000003,0.5845097,0.5855225000000001,1.0,-0.03424072,-0.04234314,0.9985046,33.5125,1.275589,-28.57402,2.732437,0.4757893,0.5400181,-0.1311674,1.303345,-0.2593212,-0.05035611,0.6871444,0.06027153,0.724288,13.43143,34.23
4,-0.1538391,-0.04194641,0.9871979,1.0,-0.3343353,-0.03263855,0.9418793,-32.57504,0.1792145,-28.05859,2.308441,0.583712,0.5867088,1.0,-0.03137207,-0.04730225,0.9983826,33.5237,1.283112,-28.58763,2.730499,0.475058,0.5404829000000001,-0.130882,1.303366,-0.2594416,-0.05021402,0.6881602,0.06074449,0.724288,-43.82468,34.23
4,-0.1538391,-0.04194641,0.9871979,1.0,-0.3343353,-0.03263855,0.9418793,-32.57504,0.1792145,-28.05859,2.308441,0.583712,0.5867088,1.0,-0.03137207,-0.04730225,0.9983826,33.5237,1.283112,-28.58763,2.730499,0.475058,0.5404829000000001,-0.130882,1.303366,-0.2594416,-0.05021402,0.6881602,0.06074449,0.724288,-43.82468,34.23
4,-0.1538391,-0.04194641,0.9871979,1.0,-0.3343353,-0.03263855,0.9418793,-32.57504,0.1792145,-28.05859,2.308441,0.583712,0.5867088,1.0,-0.03137207,-0.04730225,0.9983826,33.5237,1.283112,-28.58763,2.730499,0.475058,0.5404829000000001,-0.130882,1.303366,-0.2594416,-0.05021402,0.6881602,0.06074449,0.724288,-43.82468,34.23
4,-0.1829834,-0.04116821,0.9822388,1.0,-0.3344727,-0.03578186,0.9417114,-32.5493,0.1565704,-28.05838,2.31012,0.5828504,0.5878773,1.0,-0.02185059,-0.04566956,0.998703,33.54178,1.281311,-28.7124,2.717072,0.4732653,0.5413971,-0.1305428,1.303269,-0.2596014,-0.04964594,0.6892831,0.06107268,0.724288,-43.82468,34.23
4,-0.1829834,-0.04116821,0.9822388,1.0,-0.3344727,-0.03578186,0.9417114,-32.5493,0.1565704,-28.05838,2.31012,0.5828504,0.5878773,1.0,-0.02185059,-0.04566956,0.998703,33.54178,1.281311,-28.7124,2.717072,0.4732653,0.5413971,-0.1305428,1.303269,-0.2596014,-0.04964594,0.6892831,0.06107268,0.724288,-43.82468,34.23
4,-0.1829834,-0.04116821,0.9822388,1.0,-0.3344727,-0.03578186,0.9417114,-32.5493,0.1565704,-28.05838,2.31012,0.5828504,0.5878773,1.0,-0.02185059,-0.04566956,0.998703,33.54178,1.281311,-28.7124,2.717072,0.4732653,0.5413971,-0.1305428,1.303269,-0.2596014,-0.04964594,0.6892831,0.06107268,0.724288,-43.82468,34.23
4,-0.2313538,-0.04045105,0.9720154,1.0,-0.2964172,-0.03887939,0.9542542,-32.40121,0.09655762,-27.99721,2.256592,0.5728588000000001,0.589292,1.0,-0.002075195,-0.04444885,0.9990082,33.716,1.131989,-28.32758,2.699432,0.4651327,0.542712,-0.1300771,1.303142,-0.2597938,-0.04911271,0.6904513000000001,0.06063191,0.724288,-43.82468,34.23
4,-0.2313538,-0.04045105,0.9720154,1.0,-0.2964172,-0.03887939,0.9542542,-32.40121,0.09655762,-27.99721,2.256592,0.5728588000000001,0.589292,1.0,-0.002075195,-0.04444885,0.9990082,33.716,1.131989,-28.32758,2.699432,0.4651327,0.542712,-0.1300771,1.303142,-0.2597938,-0.04911271,0.6904513000000001,0.06063191,0.724288,-43.82468,34.23
4,-0.2313538,-0.04045105,0.9720154,1.0,-0.2964172,-0.03887939,0.9542542,-32.40121,0.09655762,-27.99721,2.256592,0.5728588000000001,0.589292,1.0,-0.002075195,-0.04444885,0.9990082,33.716,1.131989,-28.32758,2.699432,0.4651327,0.542712,-0.1300771,1.303142,-0.2597938,-0.04911271,0.6904513000000001,0.06063191,0.724288,-43.82468,34.23
4,-0.1945801,-0.04165649,0.9799957,1.0,-0.2049866,-0.04092407,0.9779053,-31.925490000000003,0.02815247,-27.77557,2.429535,0.544956,0.5891827,1.0,0.1178283999999999,-0.06112671,0.9911499,34.09077,1.038116,-27.990540000000003,2.754486,0.4380831,0.5446386,-0.1297457,1.303053,-0.2601478,-0.04921046,0.6913199000000001,0.06130391,0.724288,-43.82468,34.23
4,-0.1945801,-0.04165649,0.9799957,1.0,-0.2049866,-0.04092407,0.9779053,-31.925490000000003,0.02815247,-27.77557,2.429535,0.544956,0.5891827,1.0,0.1178283999999999,-0.06112671,0.9911499,34.09077,1.038116,-27.990540000000003,2.754486,0.4380831,0.5446386,-0.1297457,1.303053,-0.2601478,-0.04921046,0.6913199000000001,0.06130391,0.724288,-43.82468,34.23
4,-0.1945801,-0.04165649,0.9799957,1.0,-0.2049866,-0.04092407,0.9779053,-31.925490000000003,0.02815247,-27.77557,2.429535,0.544956,0.5891827,1.0,0.1178283999999999,-0.06112671,0.9911499,34.09077,1.038116,-27.990540000000003,2.754486,0.4380831,0.5446386,-0.1297457,1.303053,-0.2601478,-0.04921046,0.6913199000000001,0.06130391,0.724288,-43.82468,34.23
4,-0.1119994999999999,-0.05392456,0.9922333,1.0,-0.1379089,-0.05126953,0.9891052,-31.95383,0.01419067,-27.519790000000004,2.471619,0.5374611,0.5882745,1.0,0.134903,-0.07707214,0.987854,34.25166,0.9885254,-27.61407,2.795593,0.4308004,0.5448998,-0.1293668999999999,1.303122,-0.2605047,-0.05006022,0.6922669,0.06179501,0.724288,-43.82468,34.23
4,-0.1119994999999999,-0.05392456,0.9922333,1.0,-0.1379089,-0.05126953,0.9891052,-31.95383,0.01419067,-27.519790000000004,2.471619,0.5374611,0.5882745,1.0,0.134903,-0.07707214,0.987854,34.25166,0.9885254,-27.61407,2.795593,0.4308004,0.5448998,-0.1293668999999999,1.303122,-0.2605047,-0.05006022,0.6922669,0.06179501,0.724288,-43.82468,34.23
4,-0.1119994999999999,-0.05392456,0.9922333,1.0,-0.1379089,-0.05126953,0.9891052,-31.95383,0.01419067,-27.519790000000004,2.471619,0.5374611,0.5882745,1.0,0.134903,-0.07707214,0.987854,34.25166,0.9885254,-27.61407,2.795593,0.4308004,0.5448998,-0.1293668999999999,1.303122,-0.2605047,-0.05006022,0.6922669,0.06179501,0.724288,-43.82468,34.23
4,0.09561157,-0.06719971,0.9931335,1.0,-0.1368713,-0.05780029,0.9888916,-31.94936,0.06886292,-27.67371,2.439392,0.5372563,0.5886435999999999,1.0,0.1361542,-0.06848145,0.9883118,34.2607,0.9821167,-27.580990000000003,2.831573,0.4303555999999999,0.5437905,-0.1291029,1.303297,-0.2609374,-0.05172808,0.6937435000000001,0.06183515,0.724288,-43.82468,34.23
4,0.09561157,-0.06719971,0.9931335,1.0,-0.1368713,-0.05780029,0.9888916,-31.94936,0.06886292,-27.67371,2.439392,0.5372563,0.5886435999999999,1.0,0.1361542,-0.06848145,0.9883118,34.2607,0.9821167,-27.580990000000003,2.831573,0.4303555999999999,0.5437905,-0.1291029,1.303297,-0.2609374,-0.05172808,0.6937435000000001,0.06183515,0.724288,-43.82468,34.23
4,0.09561157,-0.06719971,0.9931335,1.0,-0.1368713,-0.05780029,0.9888916,-31.94936,0.06886292,-27.67371,2.439392,0.5372563,0.5886435999999999,1.0,0.1361542,-0.06848145,0.9883118,34.2607,0.9821167,-27.580990000000003,2.831573,0.4303555999999999,0.5437905,-0.1291029,1.303297,-0.2609374,-0.05172808,0.6937435000000001,0.06183515,0.724288,-43.82468,34.23
4,0.1023865,-0.07417297,0.9919739,1.0,-0.1321411,-0.05992126,0.9894104,-31.94339,0.0962677,-27.73952,2.440353,0.5365105,0.5885847,1.0,0.1380767999999999,-0.07600403,0.9874878,34.26471,0.9767914,-27.57458,2.8480990000000004,0.4299717999999999,0.5448411,-0.1288559,1.30359,-0.2613755,-0.05236952,0.6950523000000001,0.0627474,0.724288,44.8656,34.23
4,0.1023865,-0.07417297,0.9919739,1.0,-0.1321411,-0.05992126,0.9894104,-31.94339,0.0962677,-27.73952,2.440353,0.5365105,0.5885847,1.0,0.1380767999999999,-0.07600403,0.9874878,34.26471,0.9767914,-27.57458,2.8480990000000004,0.4299717999999999,0.5448411,-0.1288559,1.30359,-0.2613755,-0.05236952,0.6950523000000001,0.0627474,0.724288,44.8656,34.23
4,0.1023865,-0.07417297,0.9919739,1.0,-0.1321411,-0.05992126,0.9894104,-31.94339,0.0962677,-27.73952,2.440353,0.5365105,0.5885847,1.0,0.1380767999999999,-0.07600403,0.9874878,34.26471,0.9767914,-27.57458,2.8480990000000004,0.4299717999999999,0.5448411,-0.1288559,1.30359,-0.2613755,-0.05236952,0.6950523000000001,0.0627474,0.724288,44.8656,34.23
4,0.0483551,-0.0776825,0.9957886,1.0,-0.1296844,-0.0644989,0.9894409,-31.93607,0.09120178,-27.676240000000004,2.434601,0.5359175,0.5887151999999999,1.0,0.1428527999999999,-0.08370972,0.9861908,34.269090000000006,0.9723206,-27.561190000000003,2.798035,0.4292762,0.5457793000000001,-0.1289883,1.303763,-0.2619482,-0.0533774,0.6963224,0.06346118,0.7217253,44.8656,34.23
4,0.0483551,-0.0776825,0.9957886,1.0,-0.1296844,-0.0644989,0.9894409,-31.93607,0.09120178,-27.676240000000004,2.434601,0.5359175,0.5887151999999999,1.0,0.1428527999999999,-0.08370972,0.9861908,34.269090000000006,0.9723206,-27.561190000000003,2.798035,0.4292762,0.5457793000000001,-0.1289883,1.303763,-0.2619482,-0.0533774,0.6963224,0.06346118,0.7217253,44.8656,34.23
4,0.0483551,-0.0776825,0.9957886,1.0,-0.1296844,-0.0644989,0.9894409,-31.93607,0.09120178,-27.676240000000004,2.434601,0.5359175,0.5887151999999999,1.0,0.1428527999999999,-0.08370972,0.9861908,34.269090000000006,0.9723206,-27.561190000000003,2.798035,0.4292762,0.5457793000000001,-0.1289883,1.303763,-0.2619482,-0.0533774,0.6963224,0.06346118,0.7217253,44.8656,34.23
4,0.02992249,-0.08023071,0.9963226,1.0,-0.1859894,-0.0635376,0.980484,-31.70593,0.07183838,-27.65942,2.438431,0.5350544,0.589275,1.0,0.1484222,-0.08782959,0.9850006,34.30084,0.9334717,-27.54613,2.792191,0.4275305,0.5474408000000001,-0.1288114,1.303879,-0.262432,-0.05443262,0.6974446,0.06390337,0.7217253,44.8656,34.23
4,0.02992249,-0.08023071,0.9963226,1.0,-0.1859894,-0.0635376,0.980484,-31.70593,0.07183838,-27.65942,2.438431,0.5350544,0.589275,1.0,0.1484222,-0.08782959,0.9850006,34.30084,0.9334717,-27.54613,2.792191,0.4275305,0.5474408000000001,-0.1288114,1.303879,-0.262432,-0.05443262,0.6974446,0.06390337,0.7217253,44.8656,34.23
4,0.02992249,-0.08023071,0.9963226,1.0,-0.1859894,-0.0635376,0.980484,-31.70593,0.07183838,-27.65942,2.438431,0.5350544,0.589275,1.0,0.1484222,-0.08782959,0.9850006,34.30084,0.9334717,-27.54613,2.792191,0.4275305,0.5474408000000001,-0.1288114,1.303879,-0.262432,-0.05443262,0.6974446,0.06390337,0.7217253,44.8656,34.23
4,0.02992249,-0.08023071,0.9963226,1.0,-0.1859894,-0.0635376,0.980484,-31.70593,0.07183838,-27.65942,2.438431,0.5350544,0.589275,1.0,0.1484222,-0.08782959,0.9850006,34.30084,0.9334717,-27.54613,2.792191,0.4275305,0.5474408000000001,-0.1287569999999999,1.3039889999999998,-0.2629064,-0.05561553,0.6980775,0.06468904,0.7217253,44.8656,34.23
4,0.02992249,-0.08023071,0.9963226,1.0,-0.1859894,-0.0635376,0.980484,-31.70593,0.07183838,-27.65942,2.438431,0.5350544,0.589275,1.0,0.1484222,-0.08782959,0.9850006,34.30084,0.9334717,-27.54613,2.792191,0.4275305,0.5474408000000001,-0.1287569999999999,1.3039889999999998,-0.2629064,-0.05561553,0.6980775,0.06468904,0.7217253,44.8656,34.23
4,0.02992249,-0.08023071,0.9963226,1.0,-0.1859894,-0.0635376,0.980484,-31.70593,0.07183838,-27.65942,2.438431,0.5350544,0.589275,1.0,0.1484222,-0.08782959,0.9850006,34.30084,0.9334717,-27.54613,2.792191,0.4275305,0.5474408000000001,-0.1287569999999999,1.3039889999999998,-0.2629064,-0.05561553,0.6980775,0.06468904,0.7217253,44.8656,34.23
4,0.02992249,-0.08023071,0.9963226,1.0,-0.1859894,-0.0635376,0.980484,-31.70593,0.07183838,-27.65942,2.438431,0.5350544,0.589275,1.0,0.1484222,-0.08782959,0.9850006,34.30084,0.9334717,-27.54613,2.792191,0.4275305,0.5474408000000001,-0.1287255,1.304175,-0.2632583,-0.05681091,0.6985861,0.06514982,0.7217253,44.8656,34.23
4,0.02992249,-0.08023071,0.9963226,1.0,-0.1859894,-0.0635376,0.980484,-31.70593,0.07183838,-27.65942,2.438431,0.5350544,0.589275,1.0,0.1484222,-0.08782959,0.9850006,34.30084,0.9334717,-27.54613,2.792191,0.4275305,0.5474408000000001,-0.1287255,1.304175,-0.2632583,-0.05681091,0.6985861,0.06514982,0.7217253,44.8656,34.23
4,0.02992249,-0.08023071,0.9963226,1.0,-0.1859894,-0.0635376,0.980484,-31.70593,0.07183838,-27.65942,2.438431,0.5350544,0.589275,1.0,0.1484222,-0.08782959,0.9850006,34.30084,0.9334717,-27.54613,2.792191,0.4275305,0.5474408000000001,-0.1287255,1.304175,-0.2632583,-0.05681091,0.6985861,0.06514982,0.7217253,44.8656,34.23
4,0.1495819,-0.08164978,0.9853668,1.0,-0.184494,-0.03244019,0.9822845,-31.69202,-0.1555634,-27.30176,2.46373,0.5341874,0.5897923,1.0,0.1533356,-0.08216858,0.9847412,34.3248,0.8792419,-27.44881,2.817276,0.4261784,0.5477154000000001,-0.128639,1.304212,-0.2637070999999999,-0.05734609,0.6990046999999999,0.06511756,0.7217253,44.8656,34.23
4,0.1495819,-0.08164978,0.9853668,1.0,-0.184494,-0.03244019,0.9822845,-31.69202,-0.1555634,-27.30176,2.46373,0.5341874,0.5897923,1.0,0.1533356,-0.08216858,0.9847412,34.3248,0.8792419,-27.44881,2.817276,0.4261784,0.5477154000000001,-0.128639,1.304212,-0.2637070999999999,-0.05734609,0.6990046999999999,0.06511756,0.7217253,44.8656,34.23
