Second,eye_comb_direction_x,eye_comb_direction_y,eye_comb_direction_z,eye_r_openness,eye_r_direction_x,eye_r_direction_y,eye_r_direction_z,eye_r_origin_x,eye_r_origin_y,eye_r_origin_z,eye_r_pupil_diameter,eye_r_pupil_position_x,eye_r_pupil_position_y,eye_l_openness,eye_l_direction_x,eye_l_direction_y,eye_l_direction_z,eye_l_origin_x,eye_l_origin_y,eye_l_origin_z,eye_l_pupil_diameter,eye_l_pupil_position_x,eye_l_pupil_position_y,head_position_x,head_position_y,head_position_z,head_rotation_roll,head_rotation_pitch,head_rotation_yaw,EDA,BVP,TMP
0,0.09393311,-0.2810210999999999,0.9550781,0.8511523999999999,-0.1804199,-0.2498474,0.9513245,-30.55412,1.7500919999999998,-25.33244,3.289185,0.4952514,0.5349118,0.987271,0.09393311,-0.2810210999999999,0.9550781,35.53261,1.322601,-26.76166,3.947937000000001,0.3923788,0.5514587,-0.2931967,1.257639,-0.2562094,-0.06665146,0.7095600000000001,0.02799179,0.5077431,-0.32533539857397503,34.01756302521009
0,0.09393311,-0.2810210999999999,0.9550781,0.8511523999999999,-0.1804199,-0.2498474,0.9513245,-30.55412,1.7500919999999998,-25.33244,3.289185,0.4952514,0.5349118,0.987271,0.09393311,-0.2810210999999999,0.9550781,35.53261,1.322601,-26.76166,3.947937000000001,0.3923788,0.5514587,-0.2931967,1.257639,-0.2562094,-0.06665146,0.7095600000000001,0.02799179,0.5077431,-0.32533539857397503,34.01756302521009
0,0.09393311,-0.2810210999999999,0.9550781,0.8511523999999999,-0.1804199,-0.2498474,0.9513245,-30.55412,1.7500919999999998,-25.33244,3.289185,0.4952514,0.5349118,0.987271,0.09393311,-0.2810210999999999,0.9550781,35.53261,1.322601,-26.76166,3.947937000000001,0.3923788,0.5514587,-0.2931967,1.257639,-0.2562094,-0.06665146,0.7095600000000001,0.02799179,0.5077431,-0.32533539857397503,34.01756302521009
0,0.09561157,-0.2764893,0.9562378,0.8507429,-0.1763152999999999,-0.2310181,0.9568329,-30.57603,1.910294,-26.19469,3.255142,0.4957055999999999,0.5348566,0.9700966,0.09561157,-0.2764893,0.9562378,35.5376,1.335388,-26.76106,3.941589,0.3920366,0.5504645,-0.2934794,1.257667,-0.2561639,-0.06658457,0.7092934000000001,0.02826936,0.5077431,-0.32533539857397503,34.01756302521009
0,0.09561157,-0.2764893,0.9562378,0.8507429,-0.1763152999999999,-0.2310181,0.9568329,-30.57603,1.910294,-26.19469,3.255142,0.4957055999999999,0.5348566,0.9700966,0.09561157,-0.2764893,0.9562378,35.5376,1.335388,-26.76106,3.941589,0.3920366,0.5504645,-0.2934794,1.257667,-0.2561639,-0.06658457,0.7092934000000001,0.02826936,0.5077431,-0.32533539857397503,34.01756302521009
0,0.09561157,-0.2764893,0.9562378,0.8507429,-0.1763152999999999,-0.2310181,0.9568329,-30.57603,1.910294,-26.19469,3.255142,0.4957055999999999,0.5348566,0.9700966,0.09561157,-0.2764893,0.9562378,35.5376,1.335388,-26.76106,3.941589,0.3920366,0.5504645,-0.2934794,1.257667,-0.2561639,-0.06658457,0.7092934000000001,0.02826936,0.5077431,-0.32533539857397503,34.01756302521009
0,0.0643158,-0.1875305,0.9801331,0.8480188,-0.2287445,-0.1277466,0.9650574,-30.68365,2.095764,-26.21223,3.319427,0.5056515,0.5164692,0.9649003,0.0643158,-0.1875305,0.9801331,35.34737,1.499359,-26.76205,4.137817,0.4021079999999999,0.5342677,-0.2936250999999999,1.257679,-0.2561017,-0.06670772,0.7092453000000001,0.0286569,0.5077431,-0.32533539857397503,34.01756302521009
0,0.0643158,-0.1875305,0.9801331,0.8480188,-0.2287445,-0.1277466,0.9650574,-30.68365,2.095764,-26.21223,3.319427,0.5056515,0.5164692,0.9649003,0.0643158,-0.1875305,0.9801331,35.34737,1.499359,-26.76205,4.137817,0.4021079999999999,0.5342677,-0.2936250999999999,1.257679,-0.2561017,-0.06670772,0.7092453000000001,0.0286569,0.5077431,-0.32533539857397503,34.01756302521009
0,0.0643158,-0.1875305,0.9801331,0.8480188,-0.2287445,-0.1277466,0.9650574,-30.68365,2.095764,-26.21223,3.319427,0.5056515,0.5164692,0.9649003,0.0643158,-0.1875305,0.9801331,35.34737,1.499359,-26.76205,4.137817,0.4021079999999999,0.5342677,-0.2936250999999999,1.257679,-0.2561017,-0.06670772,0.7092453000000001,0.0286569,0.5077431,-0.32533539857397503,34.01756302521009
0,-1.0,-1.0,-1.0,0.8590860999999999,0.0,0.0,0.0,-30.685440000000003,2.538391,-25.741670000000003,-1.0,0.5134316,0.4890952,0.9046023,0.0,0.0,0.0,35.02531,2.128204,-27.41191,-1.0,0.4122800999999999,0.5142553,-0.2938154,1.257809,-0.256071,-0.06709988,0.7092569000000001,0.02891791,0.5077431,-0.32533539857397503,34.01756302521009
0,-1.0,-1.0,-1.0,0.8590860999999999,0.0,0.0,0.0,-30.685440000000003,2.538391,-25.741670000000003,-1.0,0.5134316,0.4890952,0.9046023,0.0,0.0,0.0,35.02531,2.128204,-27.41191,-1.0,0.4122800999999999,0.5142553,-0.2938154,1.257809,-0.256071,-0.06709988,0.7092569000000001,0.02891791,0.5077431,-0.32533539857397503,34.01756302521009
0,-1.0,-1.0,-1.0,0.8590860999999999,0.0,0.0,0.0,-30.685440000000003,2.538391,-25.741670000000003,-1.0,0.5134316,0.4890952,0.9046023,0.0,0.0,0.0,35.02531,2.128204,-27.41191,-1.0,0.4122800999999999,0.5142553,-0.2938154,1.257809,-0.256071,-0.06709988,0.7092569000000001,0.02891791,0.5077431,-0.32533539857397503,34.01756302521009
0,-0.02243042,-0.06373596,0.9977112,0.8870870999999999,-0.286087,-0.01165771,0.9581146,-30.76936,2.610825,-25.8987,3.485504,0.5154340999999999,0.4832529,0.9168739,0.03323364,-0.07409668,0.9966888,35.05539,2.172867,-27.38086,4.025742,0.4154261999999999,0.5037387,-0.2939577,1.257877,-0.2560607,-0.06727929,0.7093550999999999,0.02918923,0.5077431,-0.32533539857397503,34.01756302521009
0,-0.02243042,-0.06373596,0.9977112,0.8870870999999999,-0.286087,-0.01165771,0.9581146,-30.76936,2.610825,-25.8987,3.485504,0.5154340999999999,0.4832529,0.9168739,0.03323364,-0.07409668,0.9966888,35.05539,2.172867,-27.38086,4.025742,0.4154261999999999,0.5037387,-0.2939577,1.257877,-0.2560607,-0.06727929,0.7093550999999999,0.02918923,0.5077431,-0.32533539857397503,34.01756302521009
0,-0.02243042,-0.06373596,0.9977112,0.8870870999999999,-0.286087,-0.01165771,0.9581146,-30.76936,2.610825,-25.8987,3.485504,0.5154340999999999,0.4832529,0.9168739,0.03323364,-0.07409668,0.9966888,35.05539,2.172867,-27.38086,4.025742,0.4154261999999999,0.5037387,-0.2939577,1.257877,-0.2560607,-0.06727929,0.7093550999999999,0.02918923,0.5077431,-0.32533539857397503,34.01756302521009
0,-0.1355286,-0.05335999,0.9893188,0.925871,-0.2786102,-0.03092957,0.9598999,-30.799640000000004,2.603287,-25.89159,3.4100040000000003,0.5155301999999999,0.4856052999999999,0.9403129,0.03495789,-0.07803345,0.9963226,35.11655,2.01001,-26.79366,3.929214,0.4137274999999999,0.5045304,-0.2941391,1.257975,-0.2560489,-0.06746271,0.709493,0.02963645,0.5077431,-0.32533539857397503,34.01756302521009
0,-0.1355286,-0.05335999,0.9893188,0.925871,-0.2786102,-0.03092957,0.9598999,-30.799640000000004,2.603287,-25.89159,3.4100040000000003,0.5155301999999999,0.4856052999999999,0.9403129,0.03495789,-0.07803345,0.9963226,35.11655,2.01001,-26.79366,3.929214,0.4137274999999999,0.5045304,-0.2941391,1.257975,-0.2560489,-0.06746271,0.709493,0.02963645,0.5077431,-0.32533539857397503,34.01756302521009
0,-0.1355286,-0.05335999,0.9893188,0.925871,-0.2786102,-0.03092957,0.9598999,-30.799640000000004,2.603287,-25.89159,3.4100040000000003,0.5155301999999999,0.4856052999999999,0.9403129,0.03495789,-0.07803345,0.9963226,35.11655,2.01001,-26.79366,3.929214,0.4137274999999999,0.5045304,-0.2941391,1.257975,-0.2560489,-0.06746271,0.709493,0.02963645,0.5077431,-0.32533539857397503,34.01756302521009
0,-0.2777405,-0.05299377,0.9591827,0.9346937,-0.2826232999999999,-0.05271912,0.9577637,-30.82338,2.6143490000000003,-25.99162,3.35376,0.5168403,0.4886675999999999,0.9541212,0.03894043,-0.06707764,0.9969788,35.11649,2.039917,-26.94054,3.968903,0.4131257,0.5035132000000001,-0.294255,1.258062,-0.2560715,-0.06777953,0.7096691999999999,0.0298934,0.5077431,-0.32533539857397503,34.01756302521009
0,-0.2777405,-0.05299377,0.9591827,0.9346937,-0.2826232999999999,-0.05271912,0.9577637,-30.82338,2.6143490000000003,-25.99162,3.35376,0.5168403,0.4886675999999999,0.9541212,0.03894043,-0.06707764,0.9969788,35.11649,2.039917,-26.94054,3.968903,0.4131257,0.5035132000000001,-0.294255,1.258062,-0.2560715,-0.06777953,0.7096691999999999,0.0298934,0.5077431,-0.32533539857397503,34.01756302521009
0,-0.2777405,-0.05299377,0.9591827,0.9346937,-0.2826232999999999,-0.05271912,0.9577637,-30.82338,2.6143490000000003,-25.99162,3.35376,0.5168403,0.4886675999999999,0.9541212,0.03894043,-0.06707764,0.9969788,35.11649,2.039917,-26.94054,3.968903,0.4131257,0.5035132000000001,-0.294255,1.258062,-0.2560715,-0.06777953,0.7096691999999999,0.0298934,0.5077431,-0.32533539857397503,34.01756302521009
0,-0.2777405,-0.05299377,0.9591827,0.9346937,-0.2826232999999999,-0.05271912,0.9577637,-30.82338,2.6143490000000003,-25.99162,3.35376,0.5168403,0.4886675999999999,0.9541212,0.03894043,-0.06707764,0.9969788,35.11649,2.039917,-26.94054,3.968903,0.4131257,0.5035132000000001,-0.2944963,1.258232,-0.2560819,-0.06850071,0.7098671999999999,0.03007789,0.5077431,-0.32533539857397503,34.01756302521009
0,-0.2777405,-0.05299377,0.9591827,0.9346937,-0.2826232999999999,-0.05271912,0.9577637,-30.82338,2.6143490000000003,-25.99162,3.35376,0.5168403,0.4886675999999999,0.9541212,0.03894043,-0.06707764,0.9969788,35.11649,2.039917,-26.94054,3.968903,0.4131257,0.5035132000000001,-0.2944963,1.258232,-0.2560819,-0.06850071,0.7098671999999999,0.03007789,0.5077431,-0.32533539857397503,34.01756302521009
0,-0.2777405,-0.05299377,0.9591827,0.9346937,-0.2826232999999999,-0.05271912,0.9577637,-30.82338,2.6143490000000003,-25.99162,3.35376,0.5168403,0.4886675999999999,0.9541212,0.03894043,-0.06707764,0.9969788,35.11649,2.039917,-26.94054,3.968903,0.4131257,0.5035132000000001,-0.2944963,1.258232,-0.2560819,-0.06850071,0.7098671999999999,0.03007789,0.5077431,-0.32533539857397503,34.01756302521009
0,-0.2777405,-0.05299377,0.9591827,0.9346937,-0.2826232999999999,-0.05271912,0.9577637,-30.82338,2.6143490000000003,-25.99162,3.35376,0.5168403,0.4886675999999999,0.9541212,0.03894043,-0.06707764,0.9969788,35.11649,2.039917,-26.94054,3.968903,0.4131257,0.5035132000000001,-0.2945807,1.258232,-0.2561145,-0.0687477,0.7098408,0.0302973,0.5077431,-0.32533539857397503,34.01756302521009
0,-0.2777405,-0.05299377,0.9591827,0.9346937,-0.2826232999999999,-0.05271912,0.9577637,-30.82338,2.6143490000000003,-25.99162,3.35376,0.5168403,0.4886675999999999,0.9541212,0.03894043,-0.06707764,0.9969788,35.11649,2.039917,-26.94054,3.968903,0.4131257,0.5035132000000001,-0.2945807,1.258232,-0.2561145,-0.0687477,0.7098408,0.0302973,0.5077431,-0.32533539857397503,34.01756302521009
0,-0.2777405,-0.05299377,0.9591827,0.9346937,-0.2826232999999999,-0.05271912,0.9577637,-30.82338,2.6143490000000003,-25.99162,3.35376,0.5168403,0.4886675999999999,0.9541212,0.03894043,-0.06707764,0.9969788,35.11649,2.039917,-26.94054,3.968903,0.4131257,0.5035132000000001,-0.2945807,1.258232,-0.2561145,-0.0687477,0.7098408,0.0302973,0.5077431,-0.32533539857397503,34.01756302521009
0,-0.2777405,-0.05299377,0.9591827,0.9346937,-0.2826232999999999,-0.05271912,0.9577637,-30.82338,2.6143490000000003,-25.99162,3.35376,0.5168403,0.4886675999999999,0.9541212,0.03894043,-0.06707764,0.9969788,35.11649,2.039917,-26.94054,3.968903,0.4131257,0.5035132000000001,-0.2946386,1.258252,-0.2560905,-0.06891374,0.7098661999999999,0.03033859,0.5077431,-0.32533539857397503,34.01756302521009
0,-0.2777405,-0.05299377,0.9591827,0.9346937,-0.2826232999999999,-0.05271912,0.9577637,-30.82338,2.6143490000000003,-25.99162,3.35376,0.5168403,0.4886675999999999,0.9541212,0.03894043,-0.06707764,0.9969788,35.11649,2.039917,-26.94054,3.968903,0.4131257,0.5035132000000001,-0.2946386,1.258252,-0.2560905,-0.06891374,0.7098661999999999,0.03033859,0.5077431,-0.32533539857397503,34.01756302521009
0,-0.2777405,-0.05299377,0.9591827,0.9346937,-0.2826232999999999,-0.05271912,0.9577637,-30.82338,2.6143490000000003,-25.99162,3.35376,0.5168403,0.4886675999999999,0.9541212,0.03894043,-0.06707764,0.9969788,35.11649,2.039917,-26.94054,3.968903,0.4131257,0.5035132000000001,-0.2946386,1.258252,-0.2560905,-0.06891374,0.7098661999999999,0.03033859,0.5077431,-0.32533539857397503,34.01756302521009
0,-0.2777405,-0.05299377,0.9591827,0.9346937,-0.2826232999999999,-0.05271912,0.9577637,-30.82338,2.6143490000000003,-25.99162,3.35376,0.5168403,0.4886675999999999,0.9541212,0.03894043,-0.06707764,0.9969788,35.11649,2.039917,-26.94054,3.968903,0.4131257,0.5035132000000001,-0.2947009,1.258198,-0.2560754,-0.06883786,0.7098886,0.03043948,0.5077431,-22.27513,34.01756302521009
0,-0.2777405,-0.05299377,0.9591827,0.9346937,-0.2826232999999999,-0.05271912,0.9577637,-30.82338,2.6143490000000003,-25.99162,3.35376,0.5168403,0.4886675999999999,0.9541212,0.03894043,-0.06707764,0.9969788,35.11649,2.039917,-26.94054,3.968903,0.4131257,0.5035132000000001,-0.2947009,1.258198,-0.2560754,-0.06883786,0.7098886,0.03043948,0.5077431,-22.27513,34.01756302521009
0,-0.2777405,-0.05299377,0.9591827,0.9346937,-0.2826232999999999,-0.05271912,0.9577637,-30.82338,2.6143490000000003,-25.99162,3.35376,0.5168403,0.4886675999999999,0.9541212,0.03894043,-0.06707764,0.9969788,35.11649,2.039917,-26.94054,3.968903,0.4131257,0.5035132000000001,-0.2947009,1.258198,-0.2560754,-0.06883786,0.7098886,0.03043948,0.5077431,-22.27513,34.01756302521009
0,-0.09916687,-0.05252075,0.9936676,0.9487576,-0.2715454,-0.03100586,0.9619141,-30.85301,2.6146700000000003,-26.08672,3.390945,0.516541,0.486855,0.9610429,0.04269409,-0.0687561,0.9967041,35.12274,2.069107,-27.07057,3.959396,0.4123827,0.5038286,-0.2945897999999999,1.258248,-0.2560286,-0.06869023,0.7098156999999999,0.0304934,0.5077431,-22.27513,34.01756302521009
0,-0.09916687,-0.05252075,0.9936676,0.9487576,-0.2715454,-0.03100586,0.9619141,-30.85301,2.6146700000000003,-26.08672,3.390945,0.516541,0.486855,0.9610429,0.04269409,-0.0687561,0.9967041,35.12274,2.069107,-27.07057,3.959396,0.4123827,0.5038286,-0.2945897999999999,1.258248,-0.2560286,-0.06869023,0.7098156999999999,0.0304934,0.5077431,-22.27513,34.01756302521009
0,-0.09916687,-0.05252075,0.9936676,0.9487576,-0.2715454,-0.03100586,0.9619141,-30.85301,2.6146700000000003,-26.08672,3.390945,0.516541,0.486855,0.9610429,0.04269409,-0.0687561,0.9967041,35.12274,2.069107,-27.07057,3.959396,0.4123827,0.5038286,-0.2945897999999999,1.258248,-0.2560286,-0.06869023,0.7098156999999999,0.0304934,0.5077431,-22.27513,34.01756302521009
0,-0.2562256,-0.0383606,0.9658508,0.9481899,-0.2737427,-0.03663635,0.9610901,-30.85524,2.615814,-26.12396,3.317795,0.516889,0.4877505,0.9897469,0.03890991,-0.06443787,0.9971619,35.128040000000006,2.1449580000000004,-27.49019,3.923569,0.4123372,0.5043545,-0.2945359,1.258256,-0.2559583,-0.06853843,0.7097193,0.03063722,0.5077431,-22.27513,34.01756302521009
0,-0.2562256,-0.0383606,0.9658508,0.9481899,-0.2737427,-0.03663635,0.9610901,-30.85524,2.615814,-26.12396,3.317795,0.516889,0.4877505,0.9897469,0.03890991,-0.06443787,0.9971619,35.128040000000006,2.1449580000000004,-27.49019,3.923569,0.4123372,0.5043545,-0.2945359,1.258256,-0.2559583,-0.06853843,0.7097193,0.03063722,0.5077431,-22.27513,34.01756302521009
0,-0.2562256,-0.0383606,0.9658508,0.9481899,-0.2737427,-0.03663635,0.9610901,-30.85524,2.615814,-26.12396,3.317795,0.516889,0.4877505,0.9897469,0.03890991,-0.06443787,0.9971619,35.128040000000006,2.1449580000000004,-27.49019,3.923569,0.4123372,0.5043545,-0.2945359,1.258256,-0.2559583,-0.06853843,0.7097193,0.03063722,0.5077431,-22.27513,34.01756302521009
0,-0.267395,-0.03645325,0.9628906,0.9568065,-0.2728271,-0.03588867,0.96138,-30.85838,2.616379,-26.13762,3.3147580000000003,0.516889,0.4877505,0.9889417,0.03887939,-0.06575012,0.9970703000000002,35.12828,2.147202,-27.5206,3.889206,0.4123372,0.5046732,-0.2945006,1.258248,-0.2559145,-0.06849314,0.7096501999999999,0.03064609,0.5077431,-22.27513,34.01756302521009
0,-0.267395,-0.03645325,0.9628906,0.9568065,-0.2728271,-0.03588867,0.96138,-30.85838,2.616379,-26.13762,3.3147580000000003,0.516889,0.4877505,0.9889417,0.03887939,-0.06575012,0.9970703000000002,35.12828,2.147202,-27.5206,3.889206,0.4123372,0.5046732,-0.2945006,1.258248,-0.2559145,-0.06849314,0.7096501999999999,0.03064609,0.5077431,-22.27513,34.01756302521009
0,-0.267395,-0.03645325,0.9628906,0.9568065,-0.2728271,-0.03588867,0.96138,-30.85838,2.616379,-26.13762,3.3147580000000003,0.516889,0.4877505,0.9889417,0.03887939,-0.06575012,0.9970703000000002,35.12828,2.147202,-27.5206,3.889206,0.4123372,0.5046732,-0.2945006,1.258248,-0.2559145,-0.06849314,0.7096501999999999,0.03064609,0.5077431,-22.27513,34.01756302521009
0,-0.267395,-0.03645325,0.9628906,0.9568065,-0.2728271,-0.03588867,0.96138,-30.85838,2.616379,-26.13762,3.3147580000000003,0.516889,0.4877505,0.9889417,0.03887939,-0.06575012,0.9970703000000002,35.12828,2.147202,-27.5206,3.889206,0.4123372,0.5046732,-0.294421,1.258254,-0.2558983999999999,-0.06840139,0.7095179,0.03052795,0.5077431,-22.27513,34.01756302521009
0,-0.267395,-0.03645325,0.9628906,0.9568065,-0.2728271,-0.03588867,0.96138,-30.85838,2.616379,-26.13762,3.3147580000000003,0.516889,0.4877505,0.9889417,0.03887939,-0.06575012,0.9970703000000002,35.12828,2.147202,-27.5206,3.889206,0.4123372,0.5046732,-0.294421,1.258254,-0.2558983999999999,-0.06840139,0.7095179,0.03052795,0.5077431,-22.27513,34.01756302521009
0,-0.267395,-0.03645325,0.9628906,0.9568065,-0.2728271,-0.03588867,0.96138,-30.85838,2.616379,-26.13762,3.3147580000000003,0.516889,0.4877505,0.9889417,0.03887939,-0.06575012,0.9970703000000002,35.12828,2.147202,-27.5206,3.889206,0.4123372,0.5046732,-0.294421,1.258254,-0.2558983999999999,-0.06840139,0.7095179,0.03052795,0.5077431,-22.27513,34.01756302521009
0,-0.2450867,-0.03903198,0.9687042,0.9568065,-0.2754974,-0.03591919,0.9606171,-30.85919,2.615631,-26.13658,3.316818,0.5172392,0.4877988,0.9889417,0.04785156,-0.06594849,0.9966736,35.13121,2.147202,-27.5206,3.888153,0.4111944,0.5046732,-0.2942843,1.258211,-0.2559218,-0.06853011,0.7094384,0.03033773,0.5077431,-22.27513,34.01756302521009
0,-0.2450867,-0.03903198,0.9687042,0.9568065,-0.2754974,-0.03591919,0.9606171,-30.85919,2.615631,-26.13658,3.316818,0.5172392,0.4877988,0.9889417,0.04785156,-0.06594849,0.9966736,35.13121,2.147202,-27.5206,3.888153,0.4111944,0.5046732,-0.2942843,1.258211,-0.2559218,-0.06853011,0.7094384,0.03033773,0.5077431,-22.27513,34.01756302521009
0,-0.2450867,-0.03903198,0.9687042,0.9568065,-0.2754974,-0.03591919,0.9606171,-30.85919,2.615631,-26.13658,3.316818,0.5172392,0.4877988,0.9889417,0.04785156,-0.06594849,0.9966736,35.13121,2.147202,-27.5206,3.888153,0.4111944,0.5046732,-0.2942843,1.258211,-0.2559218,-0.06853011,0.7094384,0.03033773,0.5077431,-22.27513,34.01756302521009
0,-0.054245,-0.1401825,0.9886322,1.0,-0.302948,-0.1247864,0.9447937,-31.349590000000003,3.872543,-32.7697,3.060379,0.5410938,0.5143545,1.0,-0.054245,-0.1401825,0.9886322,34.59149,1.7705689999999998,-27.35205,3.984787,0.4409879,0.5251858,-0.294214,1.2582,-0.2559592,-0.0683998,0.7095503000000001,0.03018644,0.5077431,-65.47668,34.01756302521009
0,-0.054245,-0.1401825,0.9886322,1.0,-0.302948,-0.1247864,0.9447937,-31.349590000000003,3.872543,-32.7697,3.060379,0.5410938,0.5143545,1.0,-0.054245,-0.1401825,0.9886322,34.59149,1.7705689999999998,-27.35205,3.984787,0.4409879,0.5251858,-0.294214,1.2582,-0.2559592,-0.0683998,0.7095503000000001,0.03018644,0.5077431,-65.47668,34.01756302521009
0,-0.054245,-0.1401825,0.9886322,1.0,-0.302948,-0.1247864,0.9447937,-31.349590000000003,3.872543,-32.7697,3.060379,0.5410938,0.5143545,1.0,-0.054245,-0.1401825,0.9886322,34.59149,1.7705689999999998,-27.35205,3.984787,0.4409879,0.5251858,-0.294214,1.2582,-0.2559592,-0.0683998,0.7095503000000001,0.03018644,0.5077431,-65.47668,34.01756302521009
0,-0.05969238,-0.1445312999999999,0.9876862,1.0,-0.3362122,-0.1264801,0.9332428,-31.35022,2.412384,-26.823590000000003,3.13501,0.5414984,0.5119318,1.0,-0.05969238,-0.1445312999999999,0.9876862,34.63022,1.795532,-27.4464,3.951172,0.4403009,0.5256924,-0.2941200999999999,1.258071,-0.2560769,-0.06834182,0.7096701,0.03020469,0.5077431,-65.47668,34.01756302521009
0,-0.05969238,-0.1445312999999999,0.9876862,1.0,-0.3362122,-0.1264801,0.9332428,-31.35022,2.412384,-26.823590000000003,3.13501,0.5414984,0.5119318,1.0,-0.05969238,-0.1445312999999999,0.9876862,34.63022,1.795532,-27.4464,3.951172,0.4403009,0.5256924,-0.2941200999999999,1.258071,-0.2560769,-0.06834182,0.7096701,0.03020469,0.5077431,-65.47668,34.01756302521009
0,-0.05969238,-0.1445312999999999,0.9876862,1.0,-0.3362122,-0.1264801,0.9332428,-31.35022,2.412384,-26.823590000000003,3.13501,0.5414984,0.5119318,1.0,-0.05969238,-0.1445312999999999,0.9876862,34.63022,1.795532,-27.4464,3.951172,0.4403009,0.5256924,-0.2941200999999999,1.258071,-0.2560769,-0.06834182,0.7096701,0.03020469,0.5077431,-65.47668,34.01756302521009
0,-0.06095886,-0.1432495,0.987793,1.0,-0.3400420999999999,-0.1261292,0.9319,-31.35365,2.408859,-26.80951,3.142319,0.5420792,0.5119318,1.0,-0.06095886,-0.1432495,0.987793,34.63434,1.797592,-27.451220000000003,3.958649,0.4403009,0.5255151,-0.2940705,1.258025,-0.2561999,-0.06804218,0.7098145,0.03034951,0.5077431,-65.47668,34.01756302521009
0,-0.06095886,-0.1432495,0.987793,1.0,-0.3400420999999999,-0.1261292,0.9319,-31.35365,2.408859,-26.80951,3.142319,0.5420792,0.5119318,1.0,-0.06095886,-0.1432495,0.987793,34.63434,1.797592,-27.451220000000003,3.958649,0.4403009,0.5255151,-0.2940705,1.258025,-0.2561999,-0.06804218,0.7098145,0.03034951,0.5077431,-65.47668,34.01756302521009
0,-0.06095886,-0.1432495,0.987793,1.0,-0.3400420999999999,-0.1261292,0.9319,-31.35365,2.408859,-26.80951,3.142319,0.5420792,0.5119318,1.0,-0.06095886,-0.1432495,0.987793,34.63434,1.797592,-27.451220000000003,3.958649,0.4403009,0.5255151,-0.2940705,1.258025,-0.2561999,-0.06804218,0.7098145,0.03034951,0.5077431,-65.47668,34.01756302521009
0,-0.1914062999999999,-0.1286316,0.9730377,1.0,-0.3479919,-0.1132202,0.9306183,-31.37871,2.412384,-26.823590000000003,3.153427,0.5439096999999999,0.5104446,1.0,-0.06231689,-0.138504,0.9883881,34.64697,1.813339,-27.52708,3.978928,0.4399689999999999,0.5250889,-0.2940035,1.258001,-0.2563867999999999,-0.06855033,0.7099021,0.0293988,0.5077431,-65.47668,34.01756302521009
0,-0.1914062999999999,-0.1286316,0.9730377,1.0,-0.3479919,-0.1132202,0.9306183,-31.37871,2.412384,-26.823590000000003,3.153427,0.5439096999999999,0.5104446,1.0,-0.06231689,-0.138504,0.9883881,34.64697,1.813339,-27.52708,3.978928,0.4399689999999999,0.5250889,-0.2940035,1.258001,-0.2563867999999999,-0.06855033,0.7099021,0.0293988,0.5077431,-65.47668,34.01756302521009
0,-0.1914062999999999,-0.1286316,0.9730377,1.0,-0.3479919,-0.1132202,0.9306183,-31.37871,2.412384,-26.823590000000003,3.153427,0.5439096999999999,0.5104446,1.0,-0.06231689,-0.138504,0.9883881,34.64697,1.813339,-27.52708,3.978928,0.4399689999999999,0.5250889,-0.2940035,1.258001,-0.2563867999999999,-0.06855033,0.7099021,0.0293988,0.5077431,-65.47668,34.01756302521009
0,-0.1914062999999999,-0.1286316,0.9730377,1.0,-0.3479919,-0.1132202,0.9306183,-31.37871,2.412384,-26.823590000000003,3.153427,0.5439096999999999,0.5104446,1.0,-0.06231689,-0.138504,0.9883881,34.64697,1.813339,-27.52708,3.978928,0.4399689999999999,0.5250889,-0.2938962,1.257949,-0.2564347,-0.06880576,0.7100333000000001,0.02850675,0.5077431,-65.47668,34.01756302521009
0,-0.1914062999999999,-0.1286316,0.9730377,1.0,-0.3479919,-0.1132202,0.9306183,-31.37871,2.412384,-26.823590000000003,3.153427,0.5439096999999999,0.5104446,1.0,-0.06231689,-0.138504,0.9883881,34.64697,1.813339,-27.52708,3.978928,0.4399689999999999,0.5250889,-0.2938962,1.257949,-0.2564347,-0.06880576,0.7100333000000001,0.02850675,0.5077431,-65.47668,34.01756302521009
0,-0.1914062999999999,-0.1286316,0.9730377,1.0,-0.3479919,-0.1132202,0.9306183,-31.37871,2.412384,-26.823590000000003,3.153427,0.5439096999999999,0.5104446,1.0,-0.06231689,-0.138504,0.9883881,34.64697,1.813339,-27.52708,3.978928,0.4399689999999999,0.5250889,-0.2938962,1.257949,-0.2564347,-0.06880576,0.7100333000000001,0.02850675,0.5077431,-65.47668,34.01756302521009
0,-0.1940308,-0.1282959,0.9725647,1.0,-0.3475342,-0.1137543,0.9307251,-31.37968,2.42305,-26.8578,3.152298,0.5439096999999999,0.5104446,1.0,-0.06248474,-0.1379089,0.9884644,34.651140000000005,1.821564,-27.563640000000003,3.975998,0.4398318,0.5250541999999999,-0.2938447,1.257827,-0.2565878,-0.06831746,0.7102815,0.02862139,0.5077431,48.65691,34.01756302521009
0,-0.1940308,-0.1282959,0.9725647,1.0,-0.3475342,-0.1137543,0.9307251,-31.37968,2.42305,-26.8578,3.152298,0.5439096999999999,0.5104446,1.0,-0.06248474,-0.1379089,0.9884644,34.651140000000005,1.821564,-27.563640000000003,3.975998,0.4398318,0.5250541999999999,-0.2938447,1.257827,-0.2565878,-0.06831746,0.7102815,0.02862139,0.5077431,48.65691,34.01756302521009
0,-0.1940308,-0.1282959,0.9725647,1.0,-0.3475342,-0.1137543,0.9307251,-31.37968,2.42305,-26.8578,3.152298,0.5439096999999999,0.5104446,1.0,-0.06248474,-0.1379089,0.9884644,34.651140000000005,1.821564,-27.563640000000003,3.975998,0.4398318,0.5250541999999999,-0.2938447,1.257827,-0.2565878,-0.06831746,0.7102815,0.02862139,0.5077431,48.65691,34.01756302521009
0,-0.1560059,-0.129364,0.9792328,1.0,-0.3456268,-0.1080627,0.9321136,-31.39279,2.443405,-27.001590000000004,3.166794,0.5442005999999999,0.510309,1.0,-0.06144714,-0.1379242,0.9885254,34.651340000000005,1.863983,-27.71051,3.958817,0.4396388,0.5249155,-0.2939174,1.257777,-0.2567702,-0.06811146,0.7104759,0.02907696,0.5077431,48.65691,34.01756302521009
0,-0.1560059,-0.129364,0.9792328,1.0,-0.3456268,-0.1080627,0.9321136,-31.39279,2.443405,-27.001590000000004,3.166794,0.5442005999999999,0.510309,1.0,-0.06144714,-0.1379242,0.9885254,34.651340000000005,1.863983,-27.71051,3.958817,0.4396388,0.5249155,-0.2939174,1.257777,-0.2567702,-0.06811146,0.7104759,0.02907696,0.5077431,48.65691,34.01756302521009
0,-0.1560059,-0.129364,0.9792328,1.0,-0.3456268,-0.1080627,0.9321136,-31.39279,2.443405,-27.001590000000004,3.166794,0.5442005999999999,0.510309,1.0,-0.06144714,-0.1379242,0.9885254,34.651340000000005,1.863983,-27.71051,3.958817,0.4396388,0.5249155,-0.2939174,1.257777,-0.2567702,-0.06811146,0.7104759,0.02907696,0.5077431,48.65691,34.01756302521009
0,-0.2167816,-0.1241913,0.968277,1.0,-0.3446045,-0.1108246,0.9321747,-31.39418,2.453476,-27.001890000000003,3.165268,0.5441218000000001,0.5102991,1.0,-0.05523682,-0.1375122,0.9889526,34.6523,1.884018,-27.80197,3.930038,0.4388637999999999,0.5249507,-0.2939453,1.257757,-0.2567599,-0.06821301,0.7104209,0.0289240999999999,0.5077431,48.65691,34.01756302521009
0,-0.2167816,-0.1241913,0.968277,1.0,-0.3446045,-0.1108246,0.9321747,-31.39418,2.453476,-27.001890000000003,3.165268,0.5441218000000001,0.5102991,1.0,-0.05523682,-0.1375122,0.9889526,34.6523,1.884018,-27.80197,3.930038,0.4388637999999999,0.5249507,-0.2939453,1.257757,-0.2567599,-0.06821301,0.7104209,0.0289240999999999,0.5077431,48.65691,34.01756302521009
0,-0.2167816,-0.1241913,0.968277,1.0,-0.3446045,-0.1108246,0.9321747,-31.39418,2.453476,-27.001890000000003,3.165268,0.5441218000000001,0.5102991,1.0,-0.05523682,-0.1375122,0.9889526,34.6523,1.884018,-27.80197,3.930038,0.4388637999999999,0.5249507,-0.2939453,1.257757,-0.2567599,-0.06821301,0.7104209,0.0289240999999999,0.5077431,48.65691,34.01756302521009
0,-0.2167816,-0.1241913,0.968277,1.0,-0.3446045,-0.1108246,0.9321747,-31.39418,2.453476,-27.001890000000003,3.165268,0.5441218000000001,0.5102991,1.0,-0.05523682,-0.1375122,0.9889526,34.6523,1.884018,-27.80197,3.930038,0.4388637999999999,0.5249507,-0.2939055,1.257727,-0.256662,-0.06803994,0.7101098000000001,0.02899523,0.5077431,48.65691,34.01756302521009
0,-0.2167816,-0.1241913,0.968277,1.0,-0.3446045,-0.1108246,0.9321747,-31.39418,2.453476,-27.001890000000003,3.165268,0.5441218000000001,0.5102991,1.0,-0.05523682,-0.1375122,0.9889526,34.6523,1.884018,-27.80197,3.930038,0.4388637999999999,0.5249507,-0.2939055,1.257727,-0.256662,-0.06803994,0.7101098000000001,0.02899523,0.5077431,48.65691,34.01756302521009
0,-0.2167816,-0.1241913,0.968277,1.0,-0.3446045,-0.1108246,0.9321747,-31.39418,2.453476,-27.001890000000003,3.165268,0.5441218000000001,0.5102991,1.0,-0.05523682,-0.1375122,0.9889526,34.6523,1.884018,-27.80197,3.930038,0.4388637999999999,0.5249507,-0.2939055,1.257727,-0.256662,-0.06803994,0.7101098000000001,0.02899523,0.5077431,48.65691,34.01756302521009
0,-0.2342072,-0.1228638,0.964386,1.0,-0.344574,-0.1109009,0.9321747,-31.39418,2.453476,-27.001890000000003,3.149017,0.5441218000000001,0.5102991,1.0,-0.0552063,-0.1382750999999999,0.9888458,34.65263,1.885284,-27.82256,3.921524,0.4388444,0.525174,-0.2940842999999999,1.257784,-0.256713,-0.06819148,0.7096704,0.02856093,0.5077431,48.65691,34.01756302521009
0,-0.2342072,-0.1228638,0.964386,1.0,-0.344574,-0.1109009,0.9321747,-31.39418,2.453476,-27.001890000000003,3.149017,0.5441218000000001,0.5102991,1.0,-0.0552063,-0.1382750999999999,0.9888458,34.65263,1.885284,-27.82256,3.921524,0.4388444,0.525174,-0.2940842999999999,1.257784,-0.256713,-0.06819148,0.7096704,0.02856093,0.5077431,48.65691,34.01756302521009
0,-0.2342072,-0.1228638,0.964386,1.0,-0.344574,-0.1109009,0.9321747,-31.39418,2.453476,-27.001890000000003,3.149017,0.5441218000000001,0.5102991,1.0,-0.0552063,-0.1382750999999999,0.9888458,34.65263,1.885284,-27.82256,3.921524,0.4388444,0.525174,-0.2940842999999999,1.257784,-0.256713,-0.06819148,0.7096704,0.02856093,0.5077431,48.65691,34.01756302521009
0,-0.2558136,-0.2106018,0.9434967,1.0,-0.4229583999999999,-0.1758575,0.888916,-31.7178,2.335388,-27.1481,3.072876,0.5651014,0.5245964,1.0,-0.1315002,-0.2312775,0.9639435,34.25056,1.733429,-27.7243,3.389221,0.4619394,0.5412680999999999,-0.2941537,1.257864,-0.2567707,-0.06836401,0.7096249,0.02881157,0.5077431,19.7384,34.01756302521009
0,-0.2558136,-0.2106018,0.9434967,1.0,-0.4229583999999999,-0.1758575,0.888916,-31.7178,2.335388,-27.1481,3.072876,0.5651014,0.5245964,1.0,-0.1315002,-0.2312775,0.9639435,34.25056,1.733429,-27.7243,3.389221,0.4619394,0.5412680999999999,-0.2941537,1.257864,-0.2567707,-0.06836401,0.7096249,0.02881157,0.5077431,19.7384,34.01756302521009
0,-0.2558136,-0.2106018,0.9434967,1.0,-0.4229583999999999,-0.1758575,0.888916,-31.7178,2.335388,-27.1481,3.072876,0.5651014,0.5245964,1.0,-0.1315002,-0.2312775,0.9639435,34.25056,1.733429,-27.7243,3.389221,0.4619394,0.5412680999999999,-0.2941537,1.257864,-0.2567707,-0.06836401,0.7096249,0.02881157,0.5077431,19.7384,34.01756302521009
0,-0.2409363,-0.189743,0.9517975,1.0,-0.4294739000000001,-0.1497498,0.8905639999999999,-31.75838,2.331665,-27.17198,3.084579,0.5672847,0.5217549,1.0,-0.1346892999999999,-0.2081603999999999,0.9687653,34.27078,1.731491,-27.722490000000004,3.4748080000000003,0.4615327999999999,0.5384533,-0.2942533,1.257858,-0.2569473,-0.06858255,0.7097901999999999,0.02888582,0.5077431,19.7384,34.01756302521009
0,-0.2409363,-0.189743,0.9517975,1.0,-0.4294739000000001,-0.1497498,0.8905639999999999,-31.75838,2.331665,-27.17198,3.084579,0.5672847,0.5217549,1.0,-0.1346892999999999,-0.2081603999999999,0.9687653,34.27078,1.731491,-27.722490000000004,3.4748080000000003,0.4615327999999999,0.5384533,-0.2942533,1.257858,-0.2569473,-0.06858255,0.7097901999999999,0.02888582,0.5077431,19.7384,34.01756302521009
0,-0.2409363,-0.189743,0.9517975,1.0,-0.4294739000000001,-0.1497498,0.8905639999999999,-31.75838,2.331665,-27.17198,3.084579,0.5672847,0.5217549,1.0,-0.1346892999999999,-0.2081603999999999,0.9687653,34.27078,1.731491,-27.722490000000004,3.4748080000000003,0.4615327999999999,0.5384533,-0.2942533,1.257858,-0.2569473,-0.06858255,0.7097901999999999,0.02888582,0.5077431,19.7384,34.01756302521009
0,-0.2805023,-0.1791077,0.9429779,1.0,-0.4321289000000001,-0.151413,0.8890075999999999,-31.76744,2.329529,-27.17632,3.121902,0.5679206,0.5221226,1.0,-0.1399688999999999,-0.1996612999999999,0.9698029,34.27783,1.72879,-27.72295,3.5118410000000004,0.4618715,0.5375310000000001,-0.2942026,1.257885,-0.2569965999999999,-0.06884295,0.7103066,0.02888646,0.5077431,19.7384,34.01756302521009
0,-0.2805023,-0.1791077,0.9429779,1.0,-0.4321289000000001,-0.151413,0.8890075999999999,-31.76744,2.329529,-27.17632,3.121902,0.5679206,0.5221226,1.0,-0.1399688999999999,-0.1996612999999999,0.9698029,34.27783,1.72879,-27.72295,3.5118410000000004,0.4618715,0.5375310000000001,-0.2942026,1.257885,-0.2569965999999999,-0.06884295,0.7103066,0.02888646,0.5077431,19.7384,34.01756302521009
0,-0.2805023,-0.1791077,0.9429779,1.0,-0.4321289000000001,-0.151413,0.8890075999999999,-31.76744,2.329529,-27.17632,3.121902,0.5679206,0.5221226,1.0,-0.1399688999999999,-0.1996612999999999,0.9698029,34.27783,1.72879,-27.72295,3.5118410000000004,0.4618715,0.5375310000000001,-0.2942026,1.257885,-0.2569965999999999,-0.06884295,0.7103066,0.02888646,0.5077431,19.7384,34.01756302521009
0,-0.2770538,-0.1799316,0.9438476999999998,1.0,-0.4317474,-0.1541443,0.8887176999999999,-31.77383,2.329529,-27.17876,3.098923,0.5681045,0.5224741,1.0,-0.1452637,-0.1972809,0.9695129,34.285920000000004,1.729691,-27.72331,3.546417,0.4621729999999999,0.5372577,-0.2942659999999999,1.257887,-0.2571982,-0.0689164,0.7106861999999999,0.02882682,0.5077431,19.7384,34.01756302521009
0,-0.2770538,-0.1799316,0.9438476999999998,1.0,-0.4317474,-0.1541443,0.8887176999999999,-31.77383,2.329529,-27.17876,3.098923,0.5681045,0.5224741,1.0,-0.1452637,-0.1972809,0.9695129,34.285920000000004,1.729691,-27.72331,3.546417,0.4621729999999999,0.5372577,-0.2942659999999999,1.257887,-0.2571982,-0.0689164,0.7106861999999999,0.02882682,0.5077431,19.7384,34.01756302521009
0,-0.2770538,-0.1799316,0.9438476999999998,1.0,-0.4317474,-0.1541443,0.8887176999999999,-31.77383,2.329529,-27.17876,3.098923,0.5681045,0.5224741,1.0,-0.1452637,-0.1972809,0.9695129,34.285920000000004,1.729691,-27.72331,3.546417,0.4621729999999999,0.5372577,-0.2942659999999999,1.257887,-0.2571982,-0.0689164,0.7106861999999999,0.02882682,0.5077431,19.7384,34.01756302521009
0,-0.276001,-0.1771087999999999,0.9446869,1.0,-0.4303589,-0.1543427,0.8893584999999999,-31.77594,2.329193,-27.17909,3.092331,0.5680019000000001,0.5224904,1.0,-0.1472931,-0.191803,0.9703064,34.28943,1.729691,-27.724120000000003,3.583786,0.4622436,0.5366085999999999,-0.2942665,1.257897,-0.2572713,-0.069063,0.7109991999999999,0.02883212,0.5077431,19.7384,34.01756302521009
0,-0.276001,-0.1771087999999999,0.9446869,1.0,-0.4303589,-0.1543427,0.8893584999999999,-31.77594,2.329193,-27.17909,3.092331,0.5680019000000001,0.5224904,1.0,-0.1472931,-0.191803,0.9703064,34.28943,1.729691,-27.724120000000003,3.583786,0.4622436,0.5366085999999999,-0.2942665,1.257897,-0.2572713,-0.069063,0.7109991999999999,0.02883212,0.5077431,19.7384,34.01756302521009
0,-0.276001,-0.1771087999999999,0.9446869,1.0,-0.4303589,-0.1543427,0.8893584999999999,-31.77594,2.329193,-27.17909,3.092331,0.5680019000000001,0.5224904,1.0,-0.1472931,-0.191803,0.9703064,34.28943,1.729691,-27.724120000000003,3.583786,0.4622436,0.5366085999999999,-0.2942665,1.257897,-0.2572713,-0.069063,0.7109991999999999,0.02883212,0.5077431,19.7384,34.01756302521009
0,-0.2737732,-0.1773682,0.945282,1.0,-0.4309845,-0.1558685,0.8887787,-31.77945,2.3271330000000003,-27.18091,3.085968,0.5682071,0.5227801999999999,1.0,-0.150528,-0.1902161,0.9701233,34.29785,1.731857,-27.72563,3.5849910000000005,0.4623384,0.5363781,-0.2943525,1.257851,-0.2574094999999999,-0.0696192,0.7112188,0.02853849,0.5077431,-18.10715,34.01756302521009
0,-0.2737732,-0.1773682,0.945282,1.0,-0.4309845,-0.1558685,0.8887787,-31.77945,2.3271330000000003,-27.18091,3.085968,0.5682071,0.5227801999999999,1.0,-0.150528,-0.1902161,0.9701233,34.29785,1.731857,-27.72563,3.5849910000000005,0.4623384,0.5363781,-0.2943525,1.257851,-0.2574094999999999,-0.0696192,0.7112188,0.02853849,0.5077431,-18.10715,34.01756302521009
0,-0.2737732,-0.1773682,0.945282,1.0,-0.4309845,-0.1558685,0.8887787,-31.77945,2.3271330000000003,-27.18091,3.085968,0.5682071,0.5227801999999999,1.0,-0.150528,-0.1902161,0.9701233,34.29785,1.731857,-27.72563,3.5849910000000005,0.4623384,0.5363781,-0.2943525,1.257851,-0.2574094999999999,-0.0696192,0.7112188,0.02853849,0.5077431,-18.10715,34.01756302521009
1,-0.2737732,-0.1773682,0.945282,1.0,-0.4309845,-0.1558685,0.8887787,-31.77945,2.3271330000000003,-27.18091,3.085968,0.5682071,0.5227801999999999,1.0,-0.150528,-0.1902161,0.9701233,34.29785,1.731857,-27.72563,3.5849910000000005,0.4623384,0.5363781,-0.2943647,1.257786,-0.2574351,-0.06971808,0.7112623,0.02852948,0.5077431,-18.10715,34.01756302521009
1,-0.2737732,-0.1773682,0.945282,1.0,-0.4309845,-0.1558685,0.8887787,-31.77945,2.3271330000000003,-27.18091,3.085968,0.5682071,0.5227801999999999,1.0,-0.150528,-0.1902161,0.9701233,34.29785,1.731857,-27.72563,3.5849910000000005,0.4623384,0.5363781,-0.2943647,1.257786,-0.2574351,-0.06971808,0.7112623,0.02852948,0.5077431,-18.10715,34.01756302521009
1,-0.2737732,-0.1773682,0.945282,1.0,-0.4309845,-0.1558685,0.8887787,-31.77945,2.3271330000000003,-27.18091,3.085968,0.5682071,0.5227801999999999,1.0,-0.150528,-0.1902161,0.9701233,34.29785,1.731857,-27.72563,3.5849910000000005,0.4623384,0.5363781,-0.2943647,1.257786,-0.2574351,-0.06971808,0.7112623,0.02852948,0.5077431,-18.10715,34.01756302521009
1,-0.272583,-0.1764678999999999,0.9458008,1.0,-0.4309386999999999,-0.1549225,0.8889771000000001,-31.77945,2.325684,-27.182270000000003,3.0667720000000003,0.5682071,0.5227130999999999,1.0,-0.1523437999999999,-0.1889648,0.9700775,34.30229,1.73584,-27.73216,3.628983,0.4623384,0.5361767,-0.2943711,1.257846,-0.2575265,-0.06970546,0.7112615,0.02835607,0.5077431,-18.10715,34.01756302521009
1,-0.272583,-0.1764678999999999,0.9458008,1.0,-0.4309386999999999,-0.1549225,0.8889771000000001,-31.77945,2.325684,-27.182270000000003,3.0667720000000003,0.5682071,0.5227130999999999,1.0,-0.1523437999999999,-0.1889648,0.9700775,34.30229,1.73584,-27.73216,3.628983,0.4623384,0.5361767,-0.2943711,1.257846,-0.2575265,-0.06970546,0.7112615,0.02835607,0.5077431,-18.10715,34.01756302521009
1,-0.272583,-0.1764678999999999,0.9458008,1.0,-0.4309386999999999,-0.1549225,0.8889771000000001,-31.77945,2.325684,-27.182270000000003,3.0667720000000003,0.5682071,0.5227130999999999,1.0,-0.1523437999999999,-0.1889648,0.9700775,34.30229,1.73584,-27.73216,3.628983,0.4623384,0.5361767,-0.2943711,1.257846,-0.2575265,-0.06970546,0.7112615,0.02835607,0.5077431,-18.10715,34.01756302521009
1,-0.272644,-0.1778107,0.9455261,1.0,-0.4300537,-0.155838,0.8892365,-31.77464,2.3271330000000003,-27.18431,3.060257,0.5679389,0.5227801999999999,1.0,-0.1491089,-0.1910095,0.9701843,34.30229,1.74498,-27.73752,3.646515,0.4619323,0.5361489,-0.2943418,1.257894,-0.2575734,-0.06962723,0.7113130999999999,0.02857423,0.5077431,-18.10715,34.01756302521009
1,-0.272644,-0.1778107,0.9455261,1.0,-0.4300537,-0.155838,0.8892365,-31.77464,2.3271330000000003,-27.18431,3.060257,0.5679389,0.5227801999999999,1.0,-0.1491089,-0.1910095,0.9701843,34.30229,1.74498,-27.73752,3.646515,0.4619323,0.5361489,-0.2943418,1.257894,-0.2575734,-0.06962723,0.7113130999999999,0.02857423,0.5077431,-18.10715,34.01756302521009
1,-0.272644,-0.1778107,0.9455261,1.0,-0.4300537,-0.155838,0.8892365,-31.77464,2.3271330000000003,-27.18431,3.060257,0.5679389,0.5227801999999999,1.0,-0.1491089,-0.1910095,0.9701843,34.30229,1.74498,-27.73752,3.646515,0.4619323,0.5361489,-0.2943418,1.257894,-0.2575734,-0.06962723,0.7113130999999999,0.02857423,0.5077431,-18.10715,34.01756302521009
1,-0.2737274,-0.1742553999999999,0.9458771,1.0,-0.4349212999999999,-0.1511992999999999,0.8876648000000001,-31.76251,2.328522,-27.18515,3.012482,0.5681621,0.522204,1.0,-0.1439819,-0.1884612999999999,0.9714508,34.30511,1.750443,-27.74408,3.660309,0.4612167,0.5356645000000001,-0.2942626,1.257962,-0.2575005,-0.0694965,0.7112904999999999,0.02855819,0.5077431,-18.10715,34.01756302521009
1,-0.2737274,-0.1742553999999999,0.9458771,1.0,-0.4349212999999999,-0.1511992999999999,0.8876648000000001,-31.76251,2.328522,-27.18515,3.012482,0.5681621,0.522204,1.0,-0.1439819,-0.1884612999999999,0.9714508,34.30511,1.750443,-27.74408,3.660309,0.4612167,0.5356645000000001,-0.2942626,1.257962,-0.2575005,-0.0694965,0.7112904999999999,0.02855819,0.5077431,-18.10715,34.01756302521009
1,-0.2737274,-0.1742553999999999,0.9458771,1.0,-0.4349212999999999,-0.1511992999999999,0.8876648000000001,-31.76251,2.328522,-27.18515,3.012482,0.5681621,0.522204,1.0,-0.1439819,-0.1884612999999999,0.9714508,34.30511,1.750443,-27.74408,3.660309,0.4612167,0.5356645000000001,-0.2942626,1.257962,-0.2575005,-0.0694965,0.7112904999999999,0.02855819,0.5077431,-18.10715,34.01756302521009
1,-0.2691803,-0.1725311,0.9474945,1.0,-0.4359894,-0.1482391,0.8876495000000001,-31.76251,2.328522,-27.18916,3.012527,0.5682971,0.5218815,1.0,-0.1391907,-0.1870575,0.9724274,34.30511,1.7509,-27.74408,3.683563,0.4606226,0.5354524,-0.2941353,1.257975,-0.2574989,-0.06935211,0.7110108,0.02855284,0.5077431,-62.34107,34.01756302521009
1,-0.2691803,-0.1725311,0.9474945,1.0,-0.4359894,-0.1482391,0.8876495000000001,-31.76251,2.328522,-27.18916,3.012527,0.5682971,0.5218815,1.0,-0.1391907,-0.1870575,0.9724274,34.30511,1.7509,-27.74408,3.683563,0.4606226,0.5354524,-0.2941353,1.257975,-0.2574989,-0.06935211,0.7110108,0.02855284,0.5077431,-62.34107,34.01756302521009
1,-0.2691803,-0.1725311,0.9474945,1.0,-0.4359894,-0.1482391,0.8876495000000001,-31.76251,2.328522,-27.18916,3.012527,0.5682971,0.5218815,1.0,-0.1391907,-0.1870575,0.9724274,34.30511,1.7509,-27.74408,3.683563,0.4606226,0.5354524,-0.2941353,1.257975,-0.2574989,-0.06935211,0.7110108,0.02855284,0.5077431,-62.34107,34.01756302521009
1,-0.2408905,-0.171402,0.9552917,1.0,-0.4429169,-0.1519318,0.8835754000000001,-31.75795,2.334305,-27.18558,2.988876,0.569046,0.522204,1.0,-0.1437225,-0.1777344,0.9735107,34.31725,1.751434,-27.74408,3.684143,0.4607525999999999,0.5343108,-0.2940083,1.257954,-0.2574363,-0.06920661,0.7108324,0.02857919,0.5077431,-62.34107,34.01756302521009
1,-0.2408905,-0.171402,0.9552917,1.0,-0.4429169,-0.1519318,0.8835754000000001,-31.75795,2.334305,-27.18558,2.988876,0.569046,0.522204,1.0,-0.1437225,-0.1777344,0.9735107,34.31725,1.751434,-27.74408,3.684143,0.4607525999999999,0.5343108,-0.2940083,1.257954,-0.2574363,-0.06920661,0.7108324,0.02857919,0.5077431,-62.34107,34.01756302521009
1,-0.2408905,-0.171402,0.9552917,1.0,-0.4429169,-0.1519318,0.8835754000000001,-31.75795,2.334305,-27.18558,2.988876,0.569046,0.522204,1.0,-0.1437225,-0.1777344,0.9735107,34.31725,1.751434,-27.74408,3.684143,0.4607525999999999,0.5343108,-0.2940083,1.257954,-0.2574363,-0.06920661,0.7108324,0.02857919,0.5077431,-62.34107,34.01756302521009
1,-0.2738494999999999,-0.1725464,0.9461517,1.0,-0.4482269,-0.1601715,0.8794403000000001,-31.73927,2.378464,-27.177570000000003,2.998856,0.5690978,0.5217639000000001,1.0,-0.1446532999999999,-0.1776581,0.9733887,34.31987,1.7516779999999998,-27.74513,3.673218,0.4607880999999999,0.5343108,-0.2939045,1.257849,-0.2573872,-0.06914214,0.7107175,0.02848426,0.5077431,-62.34107,34.01756302521009
1,-0.2738494999999999,-0.1725464,0.9461517,1.0,-0.4482269,-0.1601715,0.8794403000000001,-31.73927,2.378464,-27.177570000000003,2.998856,0.5690978,0.5217639000000001,1.0,-0.1446532999999999,-0.1776581,0.9733887,34.31987,1.7516779999999998,-27.74513,3.673218,0.4607880999999999,0.5343108,-0.2939045,1.257849,-0.2573872,-0.06914214,0.7107175,0.02848426,0.5077431,-62.34107,34.01756302521009
1,-0.2738494999999999,-0.1725464,0.9461517,1.0,-0.4482269,-0.1601715,0.8794403000000001,-31.73927,2.378464,-27.177570000000003,2.998856,0.5690978,0.5217639000000001,1.0,-0.1446532999999999,-0.1776581,0.9733887,34.31987,1.7516779999999998,-27.74513,3.673218,0.4607880999999999,0.5343108,-0.2939045,1.257849,-0.2573872,-0.06914214,0.7107175,0.02848426,0.5077431,-62.34107,34.01756302521009
1,-0.2672424,-0.1720122999999999,0.9481354,1.0,-0.4542999,-0.1594391,0.8764495999999999,-31.73572,2.394119,-27.17734,2.995407,0.5697615,0.5212353,1.0,-0.1447906,-0.1763458,0.9736176,34.31987,1.7536619999999998,-27.74763,3.684525,0.4607880999999999,0.5341114,-0.2937695999999999,1.257796,-0.2574467,-0.06899063,0.7106845,0.0283428,0.5077431,-62.34107,34.01756302521009
1,-0.2672424,-0.1720122999999999,0.9481354,1.0,-0.4542999,-0.1594391,0.8764495999999999,-31.73572,2.394119,-27.17734,2.995407,0.5697615,0.5212353,1.0,-0.1447906,-0.1763458,0.9736176,34.31987,1.7536619999999998,-27.74763,3.684525,0.4607880999999999,0.5341114,-0.2937695999999999,1.257796,-0.2574467,-0.06899063,0.7106845,0.0283428,0.5077431,-62.34107,34.01756302521009
1,-0.2672424,-0.1720122999999999,0.9481354,1.0,-0.4542999,-0.1594391,0.8764495999999999,-31.73572,2.394119,-27.17734,2.995407,0.5697615,0.5212353,1.0,-0.1447906,-0.1763458,0.9736176,34.31987,1.7536619999999998,-27.74763,3.684525,0.4607880999999999,0.5341114,-0.2937695999999999,1.257796,-0.2574467,-0.06899063,0.7106845,0.0283428,0.5077431,-62.34107,34.01756302521009
1,-0.2802124,-0.1672362999999999,0.9452515,1.0,-0.4610747999999999,-0.1538086,0.8739165999999999,-31.73877,2.400696,-27.19019,2.954315,0.5707614000000001,0.5204991,1.0,-0.1501312,-0.1727753,0.9734497,34.30766,1.771927,-27.753590000000003,3.654846,0.4618734,0.5331404000000001,-0.2934682,1.257725,-0.2575005,-0.06873459,0.7109616,0.02821647,0.5077431,-62.34107,34.01756302521009
1,-0.2802124,-0.1672362999999999,0.9452515,1.0,-0.4610747999999999,-0.1538086,0.8739165999999999,-31.73877,2.400696,-27.19019,2.954315,0.5707614000000001,0.5204991,1.0,-0.1501312,-0.1727753,0.9734497,34.30766,1.771927,-27.753590000000003,3.654846,0.4618734,0.5331404000000001,-0.2934682,1.257725,-0.2575005,-0.06873459,0.7109616,0.02821647,0.5077431,-62.34107,34.01756302521009
1,-0.2802124,-0.1672362999999999,0.9452515,1.0,-0.4610747999999999,-0.1538086,0.8739165999999999,-31.73877,2.400696,-27.19019,2.954315,0.5707614000000001,0.5204991,1.0,-0.1501312,-0.1727753,0.9734497,34.30766,1.771927,-27.753590000000003,3.654846,0.4618734,0.5331404000000001,-0.2934682,1.257725,-0.2575005,-0.06873459,0.7109616,0.02821647,0.5077431,-62.34107,34.01756302521009
1,-0.2815094,-0.1688079999999999,0.9445801,1.0,-0.4608154,-0.1539154,0.8740234,-31.73958,2.401337,-27.19237,2.946442,0.5707614000000001,0.5204991,1.0,-0.1499023,-0.1754761,0.9729919,34.30635,1.773712,-27.75645,3.645889,0.4619007,0.5334416999999999,-0.29333,1.257743,-0.2575971,-0.06844085,0.7110034000000001,0.02841486,0.5077431,38.45911,34.01756302521009
1,-0.2815094,-0.1688079999999999,0.9445801,1.0,-0.4608154,-0.1539154,0.8740234,-31.73958,2.401337,-27.19237,2.946442,0.5707614000000001,0.5204991,1.0,-0.1499023,-0.1754761,0.9729919,34.30635,1.773712,-27.75645,3.645889,0.4619007,0.5334416999999999,-0.29333,1.257743,-0.2575971,-0.06844085,0.7110034000000001,0.02841486,0.5077431,38.45911,34.01756302521009
1,-0.2815094,-0.1688079999999999,0.9445801,1.0,-0.4608154,-0.1539154,0.8740234,-31.73958,2.401337,-27.19237,2.946442,0.5707614000000001,0.5204991,1.0,-0.1499023,-0.1754761,0.9729919,34.30635,1.773712,-27.75645,3.645889,0.4619007,0.5334416999999999,-0.29333,1.257743,-0.2575971,-0.06844085,0.7110034000000001,0.02841486,0.5077431,38.45911,34.01756302521009
1,-0.2805327999999999,-0.17453,0.9438324,1.0,-0.4576416,-0.1565398999999999,0.8752440999999999,-31.73999,2.403824,-27.1924,2.9445650000000003,0.5703688,0.520699,1.0,-0.1507111,-0.1833496,0.9714203,34.30635,1.780746,-27.76424,3.641876,0.4619922999999999,0.5342471999999999,-0.2933092,1.257636,-0.2576063999999999,-0.06897675,0.7109466,0.02743515,0.5013364,38.45911,34.01756302521009
1,-0.2805327999999999,-0.17453,0.9438324,1.0,-0.4576416,-0.1565398999999999,0.8752440999999999,-31.73999,2.403824,-27.1924,2.9445650000000003,0.5703688,0.520699,1.0,-0.1507111,-0.1833496,0.9714203,34.30635,1.780746,-27.76424,3.641876,0.4619922999999999,0.5342471999999999,-0.2933092,1.257636,-0.2576063999999999,-0.06897675,0.7109466,0.02743515,0.5013364,38.45911,34.01756302521009
1,-0.2805327999999999,-0.17453,0.9438324,1.0,-0.4576416,-0.1565398999999999,0.8752440999999999,-31.73999,2.403824,-27.1924,2.9445650000000003,0.5703688,0.520699,1.0,-0.1507111,-0.1833496,0.9714203,34.30635,1.780746,-27.76424,3.641876,0.4619922999999999,0.5342471999999999,-0.2933092,1.257636,-0.2576063999999999,-0.06897675,0.7109466,0.02743515,0.5013364,38.45911,34.01756302521009
1,-0.2862091,-0.1690369,0.9431305,1.0,-0.4599761999999999,-0.1562194999999999,0.8740691999999999,-31.74031,2.403824,-27.19261,2.945694,0.5706797,0.520699,1.0,-0.1520691,-0.1746674,0.9728088,34.30771,1.781982,-27.76738,3.632843,0.4621252,0.5331720999999999,-0.2932345999999999,1.25753,-0.2575245,-0.06916439,0.7112233,0.0265498,0.5013364,38.45911,34.01756302521009
1,-0.2862091,-0.1690369,0.9431305,1.0,-0.4599761999999999,-0.1562194999999999,0.8740691999999999,-31.74031,2.403824,-27.19261,2.945694,0.5706797,0.520699,1.0,-0.1520691,-0.1746674,0.9728088,34.30771,1.781982,-27.76738,3.632843,0.4621252,0.5331720999999999,-0.2932345999999999,1.25753,-0.2575245,-0.06916439,0.7112233,0.0265498,0.5013364,38.45911,34.01756302521009
1,-0.2862091,-0.1690369,0.9431305,1.0,-0.4599761999999999,-0.1562194999999999,0.8740691999999999,-31.74031,2.403824,-27.19261,2.945694,0.5706797,0.520699,1.0,-0.1520691,-0.1746674,0.9728088,34.30771,1.781982,-27.76738,3.632843,0.4621252,0.5331720999999999,-0.2932345999999999,1.25753,-0.2575245,-0.06916439,0.7112233,0.0265498,0.5013364,38.45911,34.01756302521009
1,-0.2880249,-0.1610869999999999,0.9439697,1.0,-0.4558411,-0.1471558,0.8778075999999999,-31.74554,2.38533,-27.19289,2.945236,0.5703089,0.5201177,1.0,-0.1515656,-0.1682587,0.9740143,34.30771,1.7816470000000002,-27.77341,3.633698,0.462067,0.5324366999999999,-0.2930908,1.257514,-0.2576577,-0.06838129,0.7115733,0.02685797,0.5013364,38.45911,34.01756302521009
1,-0.2880249,-0.1610869999999999,0.9439697,1.0,-0.4558411,-0.1471558,0.8778075999999999,-31.74554,2.38533,-27.19289,2.945236,0.5703089,0.5201177,1.0,-0.1515656,-0.1682587,0.9740143,34.30771,1.7816470000000002,-27.77341,3.633698,0.462067,0.5324366999999999,-0.2930908,1.257514,-0.2576577,-0.06838129,0.7115733,0.02685797,0.5013364,38.45911,34.01756302521009
1,-0.2880249,-0.1610869999999999,0.9439697,1.0,-0.4558411,-0.1471558,0.8778075999999999,-31.74554,2.38533,-27.19289,2.945236,0.5703089,0.5201177,1.0,-0.1515656,-0.1682587,0.9740143,34.30771,1.7816470000000002,-27.77341,3.633698,0.462067,0.5324366999999999,-0.2930908,1.257514,-0.2576577,-0.06838129,0.7115733,0.02685797,0.5013364,38.45911,34.01756302521009
1,-0.2828217,-0.1606598,0.9456177,1.0,-0.451889,-0.1450348,0.880188,-31.76035,2.357773,-27.20142,2.933716,0.5703089,0.5207883,1.0,-0.1483002,-0.1689606,0.9743958,34.30168,1.777466,-27.780690000000003,3.627411,0.4618906,0.5327026,-0.2931118,1.257458,-0.2577263,-0.06789123,0.7118663000000001,0.02728715,0.5013364,38.45911,34.01756302521009
1,-0.2828217,-0.1606598,0.9456177,1.0,-0.451889,-0.1450348,0.880188,-31.76035,2.357773,-27.20142,2.933716,0.5703089,0.5207883,1.0,-0.1483002,-0.1689606,0.9743958,34.30168,1.777466,-27.780690000000003,3.627411,0.4618906,0.5327026,-0.2931118,1.257458,-0.2577263,-0.06789123,0.7118663000000001,0.02728715,0.5013364,38.45911,34.01756302521009
1,-0.2828217,-0.1606598,0.9456177,1.0,-0.451889,-0.1450348,0.880188,-31.76035,2.357773,-27.20142,2.933716,0.5703089,0.5207883,1.0,-0.1483002,-0.1689606,0.9743958,34.30168,1.777466,-27.780690000000003,3.627411,0.4618906,0.5327026,-0.2931118,1.257458,-0.2577263,-0.06789123,0.7118663000000001,0.02728715,0.5013364,38.45911,34.01756302521009
1,-0.2828217,-0.1606598,0.9456177,1.0,-0.451889,-0.1450348,0.880188,-31.76035,2.357773,-27.20142,2.933716,0.5703089,0.5207883,1.0,-0.1483002,-0.1689606,0.9743958,34.30168,1.777466,-27.780690000000003,3.627411,0.4618906,0.5327026,-0.293298,1.257295,-0.2576557,-0.06790863,0.7116333,0.02696511,0.5013364,25.16286,35.27
1,-0.2828217,-0.1606598,0.9456177,1.0,-0.451889,-0.1450348,0.880188,-31.76035,2.357773,-27.20142,2.933716,0.5703089,0.5207883,1.0,-0.1483002,-0.1689606,0.9743958,34.30168,1.777466,-27.780690000000003,3.627411,0.4618906,0.5327026,-0.293298,1.257295,-0.2576557,-0.06790863,0.7116333,0.02696511,0.5013364,25.16286,35.27
1,-0.2828217,-0.1606598,0.9456177,1.0,-0.451889,-0.1450348,0.880188,-31.76035,2.357773,-27.20142,2.933716,0.5703089,0.5207883,1.0,-0.1483002,-0.1689606,0.9743958,34.30168,1.777466,-27.780690000000003,3.627411,0.4618906,0.5327026,-0.293298,1.257295,-0.2576557,-0.06790863,0.7116333,0.02696511,0.5013364,25.16286,35.27
1,-0.2828217,-0.1606598,0.9456177,1.0,-0.451889,-0.1450348,0.880188,-31.76035,2.357773,-27.20142,2.933716,0.5703089,0.5207883,1.0,-0.1483002,-0.1689606,0.9743958,34.30168,1.777466,-27.780690000000003,3.627411,0.4618906,0.5327026,-0.2933764,1.257177,-0.2575303,-0.06763786,0.7110569,0.0268674,0.5013364,25.16286,35.27
1,-0.2828217,-0.1606598,0.9456177,1.0,-0.451889,-0.1450348,0.880188,-31.76035,2.357773,-27.20142,2.933716,0.5703089,0.5207883,1.0,-0.1483002,-0.1689606,0.9743958,34.30168,1.777466,-27.780690000000003,3.627411,0.4618906,0.5327026,-0.2933764,1.257177,-0.2575303,-0.06763786,0.7110569,0.0268674,0.5013364,25.16286,35.27
1,-0.2828217,-0.1606598,0.9456177,1.0,-0.451889,-0.1450348,0.880188,-31.76035,2.357773,-27.20142,2.933716,0.5703089,0.5207883,1.0,-0.1483002,-0.1689606,0.9743958,34.30168,1.777466,-27.780690000000003,3.627411,0.4618906,0.5327026,-0.2933764,1.257177,-0.2575303,-0.06763786,0.7110569,0.0268674,0.5013364,25.16286,35.27
1,-0.2717438,-0.1593322999999999,0.9490814,1.0,-0.4424896,-0.1469269,0.8846436,-31.792140000000003,2.338928,-27.2117,2.902283,0.5702020999999999,0.5216177,1.0,-0.1393127,-0.1650848,0.9763794,34.30168,1.764236,-27.79349,3.60051,0.4608691,0.5327026,-0.2935342999999999,1.25717,-0.2574641,-0.06781542,0.7105763,0.02650669,0.5013364,25.16286,35.27
1,-0.2717438,-0.1593322999999999,0.9490814,1.0,-0.4424896,-0.1469269,0.8846436,-31.792140000000003,2.338928,-27.2117,2.902283,0.5702020999999999,0.5216177,1.0,-0.1393127,-0.1650848,0.9763794,34.30168,1.764236,-27.79349,3.60051,0.4608691,0.5327026,-0.2935342999999999,1.25717,-0.2574641,-0.06781542,0.7105763,0.02650669,0.5013364,25.16286,35.27
1,-0.2717438,-0.1593322999999999,0.9490814,1.0,-0.4424896,-0.1469269,0.8846436,-31.792140000000003,2.338928,-27.2117,2.902283,0.5702020999999999,0.5216177,1.0,-0.1393127,-0.1650848,0.9763794,34.30168,1.764236,-27.79349,3.60051,0.4608691,0.5327026,-0.2935342999999999,1.25717,-0.2574641,-0.06781542,0.7105763,0.02650669,0.5013364,25.16286,35.27
1,-0.2722472999999999,-0.1609497,0.9486542,1.0,-0.4469147,-0.1512756,0.8816833000000001,-31.7923,2.339645,-27.212840000000003,2.923309,0.5707741,0.5222219,1.0,-0.1470184,-0.1643219,0.9753876,34.312529999999995,1.766922,-27.79703,3.5930480000000005,0.4614189,0.5325974,-0.2937341,1.257275,-0.2574768999999999,-0.06811021,0.7105224,0.02700156,0.5013364,25.16286,35.27
1,-0.2722472999999999,-0.1609497,0.9486542,1.0,-0.4469147,-0.1512756,0.8816833000000001,-31.7923,2.339645,-27.212840000000003,2.923309,0.5707741,0.5222219,1.0,-0.1470184,-0.1643219,0.9753876,34.312529999999995,1.766922,-27.79703,3.5930480000000005,0.4614189,0.5325974,-0.2937341,1.257275,-0.2574768999999999,-0.06811021,0.7105224,0.02700156,0.5013364,25.16286,35.27
1,-0.2722472999999999,-0.1609497,0.9486542,1.0,-0.4469147,-0.1512756,0.8816833000000001,-31.7923,2.339645,-27.212840000000003,2.923309,0.5707741,0.5222219,1.0,-0.1470184,-0.1643219,0.9753876,34.312529999999995,1.766922,-27.79703,3.5930480000000005,0.4614189,0.5325974,-0.2937341,1.257275,-0.2574768999999999,-0.06811021,0.7105224,0.02700156,0.5013364,25.16286,35.27
1,-0.2748107999999999,-0.1574554,0.9485016,1.0,-0.4483948,-0.1495819,0.8812103000000001,-31.79857,2.340546,-27.21306,2.962494,0.5711585,0.5220269000000001,1.0,-0.149826,-0.1597137,0.9757233,34.312529999999995,1.7718349999999998,-27.79778,3.606476,0.4617335,0.5319059,-0.2938662,1.257325,-0.2575862,-0.06844036,0.7106081,0.02721662,0.5013364,25.16286,35.27
1,-0.2748107999999999,-0.1574554,0.9485016,1.0,-0.4483948,-0.1495819,0.8812103000000001,-31.79857,2.340546,-27.21306,2.962494,0.5711585,0.5220269000000001,1.0,-0.149826,-0.1597137,0.9757233,34.312529999999995,1.7718349999999998,-27.79778,3.606476,0.4617335,0.5319059,-0.2938662,1.257325,-0.2575862,-0.06844036,0.7106081,0.02721662,0.5013364,25.16286,35.27
1,-0.2748107999999999,-0.1574554,0.9485016,1.0,-0.4483948,-0.1495819,0.8812103000000001,-31.79857,2.340546,-27.21306,2.962494,0.5711585,0.5220269000000001,1.0,-0.149826,-0.1597137,0.9757233,34.312529999999995,1.7718349999999998,-27.79778,3.606476,0.4617335,0.5319059,-0.2938662,1.257325,-0.2575862,-0.06844036,0.7106081,0.02721662,0.5013364,25.16286,35.27
1,-0.2762146,-0.1535492,0.9487457,1.0,-0.4470215,-0.1431579999999999,0.8829802999999999,-31.8183,2.344452,-27.213490000000004,2.967606,0.5716391,0.5210723,1.0,-0.1474152,-0.1578369,0.9763947,34.30284,1.775452,-27.79884,3.638031,0.4617335,0.5315582,-0.2938907,1.2575120000000002,-0.2578554999999999,-0.06878849,0.711152,0.02718429,0.5013364,-17.44228,35.27
1,-0.2762146,-0.1535492,0.9487457,1.0,-0.4470215,-0.1431579999999999,0.8829802999999999,-31.8183,2.344452,-27.213490000000004,2.967606,0.5716391,0.5210723,1.0,-0.1474152,-0.1578369,0.9763947,34.30284,1.775452,-27.79884,3.638031,0.4617335,0.5315582,-0.2938907,1.2575120000000002,-0.2578554999999999,-0.06878849,0.711152,0.02718429,0.5013364,-17.44228,35.27
1,-0.2762146,-0.1535492,0.9487457,1.0,-0.4470215,-0.1431579999999999,0.8829802999999999,-31.8183,2.344452,-27.213490000000004,2.967606,0.5716391,0.5210723,1.0,-0.1474152,-0.1578369,0.9763947,34.30284,1.775452,-27.79884,3.638031,0.4617335,0.5315582,-0.2938907,1.2575120000000002,-0.2578554999999999,-0.06878849,0.711152,0.02718429,0.5013364,-17.44228,35.27
1,-0.2835083,-0.1527405,0.9467163,1.0,-0.4511414000000001,-0.1430511,0.8809051999999999,-31.82083,2.347717,-27.21503,2.986343,0.5722483,0.5210260999999999,1.0,-0.1499329,-0.1567993,0.976181,34.29764,1.777939,-27.80316,3.647614,0.4621897,0.531408,-0.2940655,1.257654,-0.2580165,-0.0690911,0.71167,0.02743637,0.5013364,-17.44228,35.27
1,-0.2835083,-0.1527405,0.9467163,1.0,-0.4511414000000001,-0.1430511,0.8809051999999999,-31.82083,2.347717,-27.21503,2.986343,0.5722483,0.5210260999999999,1.0,-0.1499329,-0.1567993,0.976181,34.29764,1.777939,-27.80316,3.647614,0.4621897,0.531408,-0.2940655,1.257654,-0.2580165,-0.0690911,0.71167,0.02743637,0.5013364,-17.44228,35.27
1,-0.2835083,-0.1527405,0.9467163,1.0,-0.4511414000000001,-0.1430511,0.8809051999999999,-31.82083,2.347717,-27.21503,2.986343,0.5722483,0.5210260999999999,1.0,-0.1499329,-0.1567993,0.976181,34.29764,1.777939,-27.80316,3.647614,0.4621897,0.531408,-0.2940655,1.257654,-0.2580165,-0.0690911,0.71167,0.02743637,0.5013364,-17.44228,35.27
1,-0.2828827,-0.1536102,0.9467621,1.0,-0.4514770999999999,-0.1430359,0.8807219999999999,-31.82083,2.34967,-27.22565,2.9127810000000003,0.5723339,0.5210260999999999,1.0,-0.1486664,-0.1582642,0.9761353000000002,34.29764,1.778931,-27.80551,3.620636,0.4620782999999999,0.5315582,-0.2940967,1.257763,-0.258156,-0.06968312,0.7119946,0.02755195,0.5013364,-17.44228,35.27
1,-0.2828827,-0.1536102,0.9467621,1.0,-0.4514770999999999,-0.1430359,0.8807219999999999,-31.82083,2.34967,-27.22565,2.9127810000000003,0.5723339,0.5210260999999999,1.0,-0.1486664,-0.1582642,0.9761353000000002,34.29764,1.778931,-27.80551,3.620636,0.4620782999999999,0.5315582,-0.2940967,1.257763,-0.258156,-0.06968312,0.7119946,0.02755195,0.5013364,-17.44228,35.27
1,-0.2828827,-0.1536102,0.9467621,1.0,-0.4514770999999999,-0.1430359,0.8807219999999999,-31.82083,2.34967,-27.22565,2.9127810000000003,0.5723339,0.5210260999999999,1.0,-0.1486664,-0.1582642,0.9761353000000002,34.29764,1.778931,-27.80551,3.620636,0.4620782999999999,0.5315582,-0.2940967,1.257763,-0.258156,-0.06968312,0.7119946,0.02755195,0.5013364,-17.44228,35.27
1,-0.2715759,-0.157135,0.9494934000000002,1.0,-0.4516907,-0.1431732,0.8806,-31.81529,2.352737,-27.23222,2.971115,0.5721536,0.5210286,1.0,-0.1393585,-0.1634216,0.9766541,34.29901,1.780487,-27.81396,3.611313,0.4609451,0.5321345000000001,-0.2941750999999999,1.257841,-0.258279,-0.07025829,0.7121878,0.02740839,0.5013364,-17.44228,35.27
1,-0.2715759,-0.157135,0.9494934000000002,1.0,-0.4516907,-0.1431732,0.8806,-31.81529,2.352737,-27.23222,2.971115,0.5721536,0.5210286,1.0,-0.1393585,-0.1634216,0.9766541,34.29901,1.780487,-27.81396,3.611313,0.4609451,0.5321345000000001,-0.2941750999999999,1.257841,-0.258279,-0.07025829,0.7121878,0.02740839,0.5013364,-17.44228,35.27
1,-0.2715759,-0.157135,0.9494934000000002,1.0,-0.4516907,-0.1431732,0.8806,-31.81529,2.352737,-27.23222,2.971115,0.5721536,0.5210286,1.0,-0.1393585,-0.1634216,0.9766541,34.29901,1.780487,-27.81396,3.611313,0.4609451,0.5321345000000001,-0.2941750999999999,1.257841,-0.258279,-0.07025829,0.7121878,0.02740839,0.5013364,-17.44228,35.27
1,-0.2723236,-0.1583557,0.9490662,1.0,-0.4518279999999999,-0.1330261,0.8821259,-31.79218,2.357224,-27.23239,2.946259,0.5713842,0.5195922000000001,1.0,-0.1414032,-0.1725006,0.9747925,34.31479,1.7803189999999998,-27.81647,3.6020510000000003,0.4606582,0.5332943,-0.2942507,1.257866,-0.2583006,-0.0706072,0.7122526,0.02745714,0.5013364,-23.10401,35.27
1,-0.2723236,-0.1583557,0.9490662,1.0,-0.4518279999999999,-0.1330261,0.8821259,-31.79218,2.357224,-27.23239,2.946259,0.5713842,0.5195922000000001,1.0,-0.1414032,-0.1725006,0.9747925,34.31479,1.7803189999999998,-27.81647,3.6020510000000003,0.4606582,0.5332943,-0.2942507,1.257866,-0.2583006,-0.0706072,0.7122526,0.02745714,0.5013364,-23.10401,35.27
1,-0.2723236,-0.1583557,0.9490662,1.0,-0.4518279999999999,-0.1330261,0.8821259,-31.79218,2.357224,-27.23239,2.946259,0.5713842,0.5195922000000001,1.0,-0.1414032,-0.1725006,0.9747925,34.31479,1.7803189999999998,-27.81647,3.6020510000000003,0.4606582,0.5332943,-0.2942507,1.257866,-0.2583006,-0.0706072,0.7122526,0.02745714,0.5013364,-23.10401,35.27
1,-0.2766876,-0.1536102,0.9485931,1.0,-0.4491882,-0.1315917999999999,0.8836823,-31.78044,2.357224,-27.23239,2.945435,0.5706454000000001,0.5193703,1.0,-0.141037,-0.1666565,0.9758606,34.32968,1.779205,-27.8168,3.604355,0.4601140999999999,0.5326076999999999,-0.2942717,1.25788,-0.2583066,-0.07063152,0.7122449000000001,0.02717607,0.5013364,-75.40495,35.27
1,-0.2766876,-0.1536102,0.9485931,1.0,-0.4491882,-0.1315917999999999,0.8836823,-31.78044,2.357224,-27.23239,2.945435,0.5706454000000001,0.5193703,1.0,-0.141037,-0.1666565,0.9758606,34.32968,1.779205,-27.8168,3.604355,0.4601140999999999,0.5326076999999999,-0.2942717,1.25788,-0.2583066,-0.07063152,0.7122449000000001,0.02717607,0.5013364,-75.40495,35.27
1,-0.2766876,-0.1536102,0.9485931,1.0,-0.4491882,-0.1315917999999999,0.8836823,-31.78044,2.357224,-27.23239,2.945435,0.5706454000000001,0.5193703,1.0,-0.141037,-0.1666565,0.9758606,34.32968,1.779205,-27.8168,3.604355,0.4601140999999999,0.5326076999999999,-0.2942717,1.25788,-0.2583066,-0.07063152,0.7122449000000001,0.02717607,0.5013364,-75.40495,35.27
1,-0.275528,-0.1567382999999999,0.94841,1.0,-0.4489746,-0.1317291,0.8837738000000002,-31.77351,2.357224,-27.23167,2.935806,0.5703883000000001,0.5193703,1.0,-0.1424255,-0.1715851,0.9748077,34.33632,1.777161,-27.81767,3.604095,0.4600502,0.5332943,-0.2943350999999999,1.257845,-0.2582636,-0.07049511,0.712258,0.02712997,0.5013364,-75.40495,35.27
1,-0.275528,-0.1567382999999999,0.94841,1.0,-0.4489746,-0.1317291,0.8837738000000002,-31.77351,2.357224,-27.23167,2.935806,0.5703883000000001,0.5193703,1.0,-0.1424255,-0.1715851,0.9748077,34.33632,1.777161,-27.81767,3.604095,0.4600502,0.5332943,-0.2943350999999999,1.257845,-0.2582636,-0.07049511,0.712258,0.02712997,0.5013364,-75.40495,35.27
1,-0.275528,-0.1567382999999999,0.94841,1.0,-0.4489746,-0.1317291,0.8837738000000002,-31.77351,2.357224,-27.23167,2.935806,0.5703883000000001,0.5193703,1.0,-0.1424255,-0.1715851,0.9748077,34.33632,1.777161,-27.81767,3.604095,0.4600502,0.5332943,-0.2943350999999999,1.257845,-0.2582636,-0.07049511,0.712258,0.02712997,0.5013364,-75.40495,35.27
1,-0.2836761,-0.1529083,0.94664,1.0,-0.4529877,-0.1330414,0.8815155000000001,-31.771040000000003,2.356888,-27.23074,2.923828,0.5708284,0.5195922000000001,1.0,-0.1435394,-0.1649933,0.9757843,34.342859999999995,1.774689,-27.82132,3.610046,0.4599555999999999,0.5326076999999999,-0.2944176,1.257835,-0.2583407,-0.07044595,0.7121801,0.02737847,0.5013364,-75.40495,35.27
1,-0.2836761,-0.1529083,0.94664,1.0,-0.4529877,-0.1330414,0.8815155000000001,-31.771040000000003,2.356888,-27.23074,2.923828,0.5708284,0.5195922000000001,1.0,-0.1435394,-0.1649933,0.9757843,34.342859999999995,1.774689,-27.82132,3.610046,0.4599555999999999,0.5326076999999999,-0.2944176,1.257835,-0.2583407,-0.07044595,0.7121801,0.02737847,0.5013364,-75.40495,35.27
1,-0.2836761,-0.1529083,0.94664,1.0,-0.4529877,-0.1330414,0.8815155000000001,-31.771040000000003,2.356888,-27.23074,2.923828,0.5708284,0.5195922000000001,1.0,-0.1435394,-0.1649933,0.9757843,34.342859999999995,1.774689,-27.82132,3.610046,0.4599555999999999,0.5326076999999999,-0.2944176,1.257835,-0.2583407,-0.07044595,0.7121801,0.02737847,0.5013364,-75.40495,35.27
1,-0.2785797,-0.1523437999999999,0.9482421999999998,1.0,-0.4497223,-0.1347504,0.8829345999999999,-31.77043,2.3576200000000003,-27.22987,2.922333,0.5703883000000001,0.5197305,1.0,-0.1408081,-0.1623687999999999,0.9766235,34.34447,1.774689,-27.82289,3.613205,0.4595768,0.5322849000000001,-0.2943255999999999,1.257896,-0.2582896,-0.07065019,0.7120886,0.02731963,0.5013364,-75.40495,35.27
1,-0.2785797,-0.1523437999999999,0.9482421999999998,1.0,-0.4497223,-0.1347504,0.8829345999999999,-31.77043,2.3576200000000003,-27.22987,2.922333,0.5703883000000001,0.5197305,1.0,-0.1408081,-0.1623687999999999,0.9766235,34.34447,1.774689,-27.82289,3.613205,0.4595768,0.5322849000000001,-0.2943255999999999,1.257896,-0.2582896,-0.07065019,0.7120886,0.02731963,0.5013364,-75.40495,35.27
1,-0.2785797,-0.1523437999999999,0.9482421999999998,1.0,-0.4497223,-0.1347504,0.8829345999999999,-31.77043,2.3576200000000003,-27.22987,2.922333,0.5703883000000001,0.5197305,1.0,-0.1408081,-0.1623687999999999,0.9766235,34.34447,1.774689,-27.82289,3.613205,0.4595768,0.5322849000000001,-0.2943255999999999,1.257896,-0.2582896,-0.07065019,0.7120886,0.02731963,0.5013364,-75.40495,35.27
1,-0.2815704,-0.1571045,0.946579,1.0,-0.4521942,-0.1360016,0.8814697,-31.77249,2.358765,-27.23074,2.918457,0.5707810000000001,0.5198866,1.0,-0.1439667,-0.1697235,0.9749146,34.34772,1.778091,-27.82671,3.612808,0.4598316,0.5331276999999999,-0.2943100999999999,1.257857,-0.2582607999999999,-0.07080547,0.7119314,0.02769019,0.5013364,-75.40495,35.27
1,-0.2815704,-0.1571045,0.946579,1.0,-0.4521942,-0.1360016,0.8814697,-31.77249,2.358765,-27.23074,2.918457,0.5707810000000001,0.5198866,1.0,-0.1439667,-0.1697235,0.9749146,34.34772,1.778091,-27.82671,3.612808,0.4598316,0.5331276999999999,-0.2943100999999999,1.257857,-0.2582607999999999,-0.07080547,0.7119314,0.02769019,0.5013364,-75.40495,35.27
1,-0.2815704,-0.1571045,0.946579,1.0,-0.4521942,-0.1360016,0.8814697,-31.77249,2.358765,-27.23074,2.918457,0.5707810000000001,0.5198866,1.0,-0.1439667,-0.1697235,0.9749146,34.34772,1.778091,-27.82671,3.612808,0.4598316,0.5331276999999999,-0.2943100999999999,1.257857,-0.2582607999999999,-0.07080547,0.7119314,0.02769019,0.5013364,-75.40495,35.27
1,-0.2718658,-0.1545562999999999,0.9498291,1.0,-0.4481505999999999,-0.1360321,0.8835296999999999,-31.77446,2.3576200000000003,-27.23178,2.929932,0.5703206000000001,0.5198866,1.0,-0.1359406,-0.1646576,0.9769287,34.38069,1.7727509999999995,-27.82315,3.663712,0.457712,0.5326064,-0.2943094,1.2579,-0.258207,-0.07069294,0.7118095,0.02777629,0.5013364,44.90435,35.27
1,-0.2718658,-0.1545562999999999,0.9498291,1.0,-0.4481505999999999,-0.1360321,0.8835296999999999,-31.77446,2.3576200000000003,-27.23178,2.929932,0.5703206000000001,0.5198866,1.0,-0.1359406,-0.1646576,0.9769287,34.38069,1.7727509999999995,-27.82315,3.663712,0.457712,0.5326064,-0.2943094,1.2579,-0.258207,-0.07069294,0.7118095,0.02777629,0.5013364,44.90435,35.27
1,-0.2718658,-0.1545562999999999,0.9498291,1.0,-0.4481505999999999,-0.1360321,0.8835296999999999,-31.77446,2.3576200000000003,-27.23178,2.929932,0.5703206000000001,0.5198866,1.0,-0.1359406,-0.1646576,0.9769287,34.38069,1.7727509999999995,-27.82315,3.663712,0.457712,0.5326064,-0.2943094,1.2579,-0.258207,-0.07069294,0.7118095,0.02777629,0.5013364,44.90435,35.27
2,-0.1034546,-0.1717682,0.9796753,1.0,-0.3348236,-0.1529236,0.9297791,-31.436020000000003,2.372528,-27.04997,2.769287,0.5444195,0.518378,1.0,-0.03614807,-0.1753693,0.9838257,34.67123,1.802139,-27.76483,3.780807,0.4361329,0.5318033000000001,-0.294219,1.257891,-0.2581642,-0.07084665,0.7117119000000001,0.02783685,0.5013364,44.90435,35.27
2,-0.1034546,-0.1717682,0.9796753,1.0,-0.3348236,-0.1529236,0.9297791,-31.436020000000003,2.372528,-27.04997,2.769287,0.5444195,0.518378,1.0,-0.03614807,-0.1753693,0.9838257,34.67123,1.802139,-27.76483,3.780807,0.4361329,0.5318033000000001,-0.294219,1.257891,-0.2581642,-0.07084665,0.7117119000000001,0.02783685,0.5013364,44.90435,35.27
2,-0.1034546,-0.1717682,0.9796753,1.0,-0.3348236,-0.1529236,0.9297791,-31.436020000000003,2.372528,-27.04997,2.769287,0.5444195,0.518378,1.0,-0.03614807,-0.1753693,0.9838257,34.67123,1.802139,-27.76483,3.780807,0.4361329,0.5318033000000001,-0.294219,1.257891,-0.2581642,-0.07084665,0.7117119000000001,0.02783685,0.5013364,44.90435,35.27
2,-0.09495544,-0.1541901,0.9834595,1.0,-0.3530273,-0.1588592999999999,0.9220123,-31.32091,2.427429,-26.99995,2.998596,0.5427545,0.5170947,1.0,-0.04066467,-0.151886,0.9875488,34.70309,1.793839,-27.71603,3.761627,0.4356698,0.5287892,-0.2941477,1.2578049999999998,-0.258177,-0.0707761,0.7117134,0.02766462,0.5013364,44.90435,35.27
2,-0.09495544,-0.1541901,0.9834595,1.0,-0.3530273,-0.1588592999999999,0.9220123,-31.32091,2.427429,-26.99995,2.998596,0.5427545,0.5170947,1.0,-0.04066467,-0.151886,0.9875488,34.70309,1.793839,-27.71603,3.761627,0.4356698,0.5287892,-0.2941477,1.2578049999999998,-0.258177,-0.0707761,0.7117134,0.02766462,0.5013364,44.90435,35.27
2,-0.09495544,-0.1541901,0.9834595,1.0,-0.3530273,-0.1588592999999999,0.9220123,-31.32091,2.427429,-26.99995,2.998596,0.5427545,0.5170947,1.0,-0.04066467,-0.151886,0.9875488,34.70309,1.793839,-27.71603,3.761627,0.4356698,0.5287892,-0.2941477,1.2578049999999998,-0.258177,-0.0707761,0.7117134,0.02766462,0.5013364,44.90435,35.27
2,-0.1669158999999999,-0.1629486,0.9723969,1.0,-0.3543549,-0.1563109999999999,0.9219513,-31.32823,2.415146,-27.00296,2.995453,0.5431664,0.5172226,1.0,-0.03016663,-0.1639404,0.9859924,34.71873,1.78801,-27.713390000000004,3.811737,0.4338442,0.5304084,-0.2941387,1.25776,-0.2581318999999999,-0.07045203,0.7117859000000001,0.02762352,0.5013364,44.90435,35.27
2,-0.1669158999999999,-0.1629486,0.9723969,1.0,-0.3543549,-0.1563109999999999,0.9219513,-31.32823,2.415146,-27.00296,2.995453,0.5431664,0.5172226,1.0,-0.03016663,-0.1639404,0.9859924,34.71873,1.78801,-27.713390000000004,3.811737,0.4338442,0.5304084,-0.2941387,1.25776,-0.2581318999999999,-0.07045203,0.7117859000000001,0.02762352,0.5013364,44.90435,35.27
2,-0.1669158999999999,-0.1629486,0.9723969,1.0,-0.3543549,-0.1563109999999999,0.9219513,-31.32823,2.415146,-27.00296,2.995453,0.5431664,0.5172226,1.0,-0.03016663,-0.1639404,0.9859924,34.71873,1.78801,-27.713390000000004,3.811737,0.4338442,0.5304084,-0.2941387,1.25776,-0.2581318999999999,-0.07045203,0.7117859000000001,0.02762352,0.5013364,44.90435,35.27
2,-0.1669158999999999,-0.1629486,0.9723969,1.0,-0.3543549,-0.1563109999999999,0.9219513,-31.32823,2.415146,-27.00296,2.995453,0.5431664,0.5172226,1.0,-0.03016663,-0.1639404,0.9859924,34.71873,1.78801,-27.713390000000004,3.811737,0.4338442,0.5304084,-0.2939789,1.257666,-0.2581083999999999,-0.07034285,0.7117545999999999,0.02750987,0.5013364,44.90435,35.27
2,-0.1669158999999999,-0.1629486,0.9723969,1.0,-0.3543549,-0.1563109999999999,0.9219513,-31.32823,2.415146,-27.00296,2.995453,0.5431664,0.5172226,1.0,-0.03016663,-0.1639404,0.9859924,34.71873,1.78801,-27.713390000000004,3.811737,0.4338442,0.5304084,-0.2939789,1.257666,-0.2581083999999999,-0.07034285,0.7117545999999999,0.02750987,0.5013364,44.90435,35.27
2,-0.1669158999999999,-0.1629486,0.9723969,1.0,-0.3543549,-0.1563109999999999,0.9219513,-31.32823,2.415146,-27.00296,2.995453,0.5431664,0.5172226,1.0,-0.03016663,-0.1639404,0.9859924,34.71873,1.78801,-27.713390000000004,3.811737,0.4338442,0.5304084,-0.2939789,1.257666,-0.2581083999999999,-0.07034285,0.7117545999999999,0.02750987,0.5013364,44.90435,35.27
2,-0.1666565,-0.1620483,0.9725952,1.0,-0.3526917,-0.1557007,0.9226837,-31.33408,2.380493,-27.01567,2.964935,0.5431664,0.518411,1.0,-0.03097534,-0.1628876,0.986145,34.72162,1.7827,-27.70782,3.812271,0.4338442,0.5304084,-0.2937465,1.257726,-0.2581603999999999,-0.0704571,0.7115999,0.02743678,0.5013364,44.90435,35.27
2,-0.1666565,-0.1620483,0.9725952,1.0,-0.3526917,-0.1557007,0.9226837,-31.33408,2.380493,-27.01567,2.964935,0.5431664,0.518411,1.0,-0.03097534,-0.1628876,0.986145,34.72162,1.7827,-27.70782,3.812271,0.4338442,0.5304084,-0.2937465,1.257726,-0.2581603999999999,-0.0704571,0.7115999,0.02743678,0.5013364,44.90435,35.27
2,-0.1666565,-0.1620483,0.9725952,1.0,-0.3526917,-0.1557007,0.9226837,-31.33408,2.380493,-27.01567,2.964935,0.5431664,0.518411,1.0,-0.03097534,-0.1628876,0.986145,34.72162,1.7827,-27.70782,3.812271,0.4338442,0.5304084,-0.2937465,1.257726,-0.2581603999999999,-0.0704571,0.7115999,0.02743678,0.5013364,44.90435,35.27
2,-0.1656647,-0.1598358,0.9731293,1.0,-0.3503113,-0.1549835,0.9237061,-31.33778,2.377213,-27.01706,2.96434,0.5429927,0.518411,1.0,-0.03164673,-0.1597595,0.9866333,34.72726,1.7806400000000002,-27.700840000000003,3.812927,0.4337394,0.5300398000000001,-0.2935109,1.257658,-0.2580989,-0.07046276,0.711642,0.02670314,0.5013364,34.54198,35.27
2,-0.1656647,-0.1598358,0.9731293,1.0,-0.3503113,-0.1549835,0.9237061,-31.33778,2.377213,-27.01706,2.96434,0.5429927,0.518411,1.0,-0.03164673,-0.1597595,0.9866333,34.72726,1.7806400000000002,-27.700840000000003,3.812927,0.4337394,0.5300398000000001,-0.2935109,1.257658,-0.2580989,-0.07046276,0.711642,0.02670314,0.5013364,34.54198,35.27
2,-0.1656647,-0.1598358,0.9731293,1.0,-0.3503113,-0.1549835,0.9237061,-31.33778,2.377213,-27.01706,2.96434,0.5429927,0.518411,1.0,-0.03164673,-0.1597595,0.9866333,34.72726,1.7806400000000002,-27.700840000000003,3.812927,0.4337394,0.5300398000000001,-0.2935109,1.257658,-0.2580989,-0.07046276,0.711642,0.02670314,0.5013364,34.54198,35.27
2,-0.1688232,-0.1599579,0.9725647,1.0,-0.3496245999999999,-0.1534424,0.9242249,-31.340290000000003,2.365356,-27.02061,2.953064,0.5429927,0.518636,1.0,-0.03485107,-0.1611786,0.9862976,34.73959,1.778564,-27.7,3.777512,0.4337394,0.5302669,-0.2933815,1.257608,-0.258069,-0.07008043,0.7116908000000001,0.02605694,0.5013364,34.54198,35.27
2,-0.1688232,-0.1599579,0.9725647,1.0,-0.3496245999999999,-0.1534424,0.9242249,-31.340290000000003,2.365356,-27.02061,2.953064,0.5429927,0.518636,1.0,-0.03485107,-0.1611786,0.9862976,34.73959,1.778564,-27.7,3.777512,0.4337394,0.5302669,-0.2933815,1.257608,-0.258069,-0.07008043,0.7116908000000001,0.02605694,0.5013364,34.54198,35.27
2,-0.1688232,-0.1599579,0.9725647,1.0,-0.3496245999999999,-0.1534424,0.9242249,-31.340290000000003,2.365356,-27.02061,2.953064,0.5429927,0.518636,1.0,-0.03485107,-0.1611786,0.9862976,34.73959,1.778564,-27.7,3.777512,0.4337394,0.5302669,-0.2933815,1.257608,-0.258069,-0.07008043,0.7116908000000001,0.02605694,0.5013364,34.54198,35.27
2,-0.1696777,-0.1596832,0.9724731,1.0,-0.3495636,-0.1534119,0.9242554,-31.34052,2.365234,-27.02061,2.953201,0.5429927,0.518636,1.0,-0.03648376,-0.1607819,0.9863129,34.73959,1.7768099999999998,-27.69901,3.7612,0.433949,0.5302669,-0.2933835999999999,1.257617,-0.2580577,-0.06954661,0.7118879,0.02625292,0.5013364,34.54198,35.27
2,-0.1696777,-0.1596832,0.9724731,1.0,-0.3495636,-0.1534119,0.9242554,-31.34052,2.365234,-27.02061,2.953201,0.5429927,0.518636,1.0,-0.03648376,-0.1607819,0.9863129,34.73959,1.7768099999999998,-27.69901,3.7612,0.433949,0.5302669,-0.2933835999999999,1.257617,-0.2580577,-0.06954661,0.7118879,0.02625292,0.5013364,34.54198,35.27
2,-0.1696777,-0.1596832,0.9724731,1.0,-0.3495636,-0.1534119,0.9242554,-31.34052,2.365234,-27.02061,2.953201,0.5429927,0.518636,1.0,-0.03648376,-0.1607819,0.9863129,34.73959,1.7768099999999998,-27.69901,3.7612,0.433949,0.5302669,-0.2933835999999999,1.257617,-0.2580577,-0.06954661,0.7118879,0.02625292,0.5013364,34.54198,35.27
2,-0.1696777,-0.1596832,0.9724731,1.0,-0.3495636,-0.1534119,0.9242554,-31.34052,2.365234,-27.02061,2.953201,0.5429927,0.518636,1.0,-0.03648376,-0.1607819,0.9863129,34.73959,1.7768099999999998,-27.69901,3.7612,0.433949,0.5302669,-0.2933237999999999,1.257571,-0.2579643,-0.0695397,0.7119506999999999,0.02675457,0.5013364,34.54198,35.27
2,-0.1696777,-0.1596832,0.9724731,1.0,-0.3495636,-0.1534119,0.9242554,-31.34052,2.365234,-27.02061,2.953201,0.5429927,0.518636,1.0,-0.03648376,-0.1607819,0.9863129,34.73959,1.7768099999999998,-27.69901,3.7612,0.433949,0.5302669,-0.2933237999999999,1.257571,-0.2579643,-0.0695397,0.7119506999999999,0.02675457,0.5013364,34.54198,35.27
2,-0.1696777,-0.1596832,0.9724731,1.0,-0.3495636,-0.1534119,0.9242554,-31.34052,2.365234,-27.02061,2.953201,0.5429927,0.518636,1.0,-0.03648376,-0.1607819,0.9863129,34.73959,1.7768099999999998,-27.69901,3.7612,0.433949,0.5302669,-0.2933237999999999,1.257571,-0.2579643,-0.0695397,0.7119506999999999,0.02675457,0.5013364,34.54198,35.27
2,-0.170105,-0.1588898,0.9725189,1.0,-0.3493195,-0.1515503,0.9246521,-31.341490000000004,2.365234,-27.02061,2.964325,0.5429927,0.518411,1.0,-0.03643799,-0.1607971,0.9863129,34.73959,1.7768099999999998,-27.69901,3.757278,0.433949,0.5302669,-0.2933323,1.257482,-0.2578092,-0.06965917,0.7117661,0.02658192,0.5013364,16.88174,35.27
2,-0.170105,-0.1588898,0.9725189,1.0,-0.3493195,-0.1515503,0.9246521,-31.341490000000004,2.365234,-27.02061,2.964325,0.5429927,0.518411,1.0,-0.03643799,-0.1607971,0.9863129,34.73959,1.7768099999999998,-27.69901,3.757278,0.433949,0.5302669,-0.2933323,1.257482,-0.2578092,-0.06965917,0.7117661,0.02658192,0.5013364,16.88174,35.27
2,-0.170105,-0.1588898,0.9725189,1.0,-0.3493195,-0.1515503,0.9246521,-31.341490000000004,2.365234,-27.02061,2.964325,0.5429927,0.518411,1.0,-0.03643799,-0.1607971,0.9863129,34.73959,1.7768099999999998,-27.69901,3.757278,0.433949,0.5302669,-0.2933323,1.257482,-0.2578092,-0.06965917,0.7117661,0.02658192,0.5013364,16.88174,35.27
2,-0.170105,-0.1588898,0.9725189,1.0,-0.3493195,-0.1515503,0.9246521,-31.341490000000004,2.365234,-27.02061,2.964325,0.5429927,0.518411,1.0,-0.03643799,-0.1607971,0.9863129,34.73959,1.7768099999999998,-27.69901,3.757278,0.433949,0.5302669,-0.2933118,1.257441,-0.2576826,-0.06927026,0.7114272,0.02659481,0.5013364,16.88174,35.27
2,-0.170105,-0.1588898,0.9725189,1.0,-0.3493195,-0.1515503,0.9246521,-31.341490000000004,2.365234,-27.02061,2.964325,0.5429927,0.518411,1.0,-0.03643799,-0.1607971,0.9863129,34.73959,1.7768099999999998,-27.69901,3.757278,0.433949,0.5302669,-0.2933118,1.257441,-0.2576826,-0.06927026,0.7114272,0.02659481,0.5013364,16.88174,35.27
2,-0.170105,-0.1588898,0.9725189,1.0,-0.3493195,-0.1515503,0.9246521,-31.341490000000004,2.365234,-27.02061,2.964325,0.5429927,0.518411,1.0,-0.03643799,-0.1607971,0.9863129,34.73959,1.7768099999999998,-27.69901,3.757278,0.433949,0.5302669,-0.2933118,1.257441,-0.2576826,-0.06927026,0.7114272,0.02659481,0.5013364,16.88174,35.27
2,-0.1603088,-0.1584015,0.9742584,1.0,-0.3456116,-0.1524047999999999,0.9259033,-31.342740000000003,2.360062,-27.0199,2.945511,0.5425726,0.518636,1.0,-0.02697754,-0.1591339,0.9868774,34.74152,1.776245,-27.70483,3.755966,0.4327758,0.5300961999999999,-0.2933580999999999,1.257414,-0.2575279,-0.06893682,0.7111590999999999,0.02635574,0.5013364,16.88174,35.27
2,-0.1603088,-0.1584015,0.9742584,1.0,-0.3456116,-0.1524047999999999,0.9259033,-31.342740000000003,2.360062,-27.0199,2.945511,0.5425726,0.518636,1.0,-0.02697754,-0.1591339,0.9868774,34.74152,1.776245,-27.70483,3.755966,0.4327758,0.5300961999999999,-0.2933580999999999,1.257414,-0.2575279,-0.06893682,0.7111590999999999,0.02635574,0.5013364,16.88174,35.27
2,-0.1603088,-0.1584015,0.9742584,1.0,-0.3456116,-0.1524047999999999,0.9259033,-31.342740000000003,2.360062,-27.0199,2.945511,0.5425726,0.518636,1.0,-0.02697754,-0.1591339,0.9868774,34.74152,1.776245,-27.70483,3.755966,0.4327758,0.5300961999999999,-0.2933580999999999,1.257414,-0.2575279,-0.06893682,0.7111590999999999,0.02635574,0.5013364,16.88174,35.27
2,-0.1569214,-0.1577759,0.9749146,1.0,-0.3451232999999999,-0.1504059,0.9264069,-31.35013,2.360992,-27.01517,2.945877,0.5427576999999999,0.5183107,1.0,-0.0309906,-0.1593781,0.9867249,34.74338,1.771545,-27.68889,3.813889,0.4331255999999999,0.5301869,-0.2932799,1.257436,-0.2574182,-0.06869631,0.7110456,0.02659929,0.5013364,16.88174,35.27
2,-0.1569214,-0.1577759,0.9749146,1.0,-0.3451232999999999,-0.1504059,0.9264069,-31.35013,2.360992,-27.01517,2.945877,0.5427576999999999,0.5183107,1.0,-0.0309906,-0.1593781,0.9867249,34.74338,1.771545,-27.68889,3.813889,0.4331255999999999,0.5301869,-0.2932799,1.257436,-0.2574182,-0.06869631,0.7110456,0.02659929,0.5013364,16.88174,35.27
2,-0.1569214,-0.1577759,0.9749146,1.0,-0.3451232999999999,-0.1504059,0.9264069,-31.35013,2.360992,-27.01517,2.945877,0.5427576999999999,0.5183107,1.0,-0.0309906,-0.1593781,0.9867249,34.74338,1.771545,-27.68889,3.813889,0.4331255999999999,0.5301869,-0.2932799,1.257436,-0.2574182,-0.06869631,0.7110456,0.02659929,0.5013364,16.88174,35.27
2,-0.1592102,-0.1573029,0.9746246,1.0,-0.3436432,-0.1495361,0.9271088,-31.352190000000004,2.362564,-27.01469,2.945282,0.5426411,0.5181326,1.0,-0.03102112,-0.159317,0.9867249,34.74338,1.769608,-27.68358,3.799469,0.4331496,0.5301869,-0.2932386,1.25744,-0.2573541,-0.06877729,0.7109824,0.02671528,0.5013364,16.88174,35.27
2,-0.1592102,-0.1573029,0.9746246,1.0,-0.3436432,-0.1495361,0.9271088,-31.352190000000004,2.362564,-27.01469,2.945282,0.5426411,0.5181326,1.0,-0.03102112,-0.159317,0.9867249,34.74338,1.769608,-27.68358,3.799469,0.4331496,0.5301869,-0.2932386,1.25744,-0.2573541,-0.06877729,0.7109824,0.02671528,0.5013364,16.88174,35.27
2,-0.1592102,-0.1573029,0.9746246,1.0,-0.3436432,-0.1495361,0.9271088,-31.352190000000004,2.362564,-27.01469,2.945282,0.5426411,0.5181326,1.0,-0.03102112,-0.159317,0.9867249,34.74338,1.769608,-27.68358,3.799469,0.4331496,0.5301869,-0.2932386,1.25744,-0.2573541,-0.06877729,0.7109824,0.02671528,0.5013364,16.88174,35.27
2,-0.1679535,-0.1564941,0.9732819,1.0,-0.3422545999999999,-0.1412811,0.9289093,-31.36966,2.3656770000000003,-27.01141,2.968292,0.5430456,0.5169657999999999,1.0,-0.03207397,-0.1646271,0.9858246,34.73734,1.761322,-27.63382,3.783127,0.4335215,0.5306753000000001,-0.2932189,1.257471,-0.2573341,-0.06885393,0.7111635000000001,0.02686823,0.5013364,16.88174,35.27
2,-0.1679535,-0.1564941,0.9732819,1.0,-0.3422545999999999,-0.1412811,0.9289093,-31.36966,2.3656770000000003,-27.01141,2.968292,0.5430456,0.5169657999999999,1.0,-0.03207397,-0.1646271,0.9858246,34.73734,1.761322,-27.63382,3.783127,0.4335215,0.5306753000000001,-0.2932189,1.257471,-0.2573341,-0.06885393,0.7111635000000001,0.02686823,0.5013364,16.88174,35.27
2,-0.1679535,-0.1564941,0.9732819,1.0,-0.3422545999999999,-0.1412811,0.9289093,-31.36966,2.3656770000000003,-27.01141,2.968292,0.5430456,0.5169657999999999,1.0,-0.03207397,-0.1646271,0.9858246,34.73734,1.761322,-27.63382,3.783127,0.4335215,0.5306753000000001,-0.2932189,1.257471,-0.2573341,-0.06885393,0.7111635000000001,0.02686823,0.5013364,16.88174,35.27
2,-0.1761627,-0.1564484,0.9718323,1.0,-0.3427124,-0.1417999,0.9286652,-31.3793,2.367737,-27.01141,2.968704,0.5434288,0.5169657999999999,1.0,-0.03260803,-0.1651458999999999,0.9857178,34.73373,1.756256,-27.6066,3.795166000000001,0.4337087999999999,0.5306753000000001,-0.2930098,1.257487,-0.2573553,-0.06864477,0.7113714,0.02712434,0.5013364,-38.57977,35.27
2,-0.1761627,-0.1564484,0.9718323,1.0,-0.3427124,-0.1417999,0.9286652,-31.3793,2.367737,-27.01141,2.968704,0.5434288,0.5169657999999999,1.0,-0.03260803,-0.1651458999999999,0.9857178,34.73373,1.756256,-27.6066,3.795166000000001,0.4337087999999999,0.5306753000000001,-0.2930098,1.257487,-0.2573553,-0.06864477,0.7113714,0.02712434,0.5013364,-38.57977,35.27
2,-0.1761627,-0.1564484,0.9718323,1.0,-0.3427124,-0.1417999,0.9286652,-31.3793,2.367737,-27.01141,2.968704,0.5434288,0.5169657999999999,1.0,-0.03260803,-0.1651458999999999,0.9857178,34.73373,1.756256,-27.6066,3.795166000000001,0.4337087999999999,0.5306753000000001,-0.2930098,1.257487,-0.2573553,-0.06864477,0.7113714,0.02712434,0.5013364,-38.57977,35.27
2,-0.1716156,-0.1553345,0.9728241,1.0,-0.3481598,-0.1382141,0.9271851,-31.38399,2.369995,-27.01181,2.98111,0.5442630999999999,0.5165188000000001,1.0,-0.03538513,-0.1647797,0.9856873,34.73369,1.751343,-27.60583,3.774811,0.4340579,0.5307871999999999,-0.2927856,1.257549,-0.2572802,-0.06891585,0.7115300999999999,0.02703671,0.5013364,-38.57977,35.27
2,-0.1716156,-0.1553345,0.9728241,1.0,-0.3481598,-0.1382141,0.9271851,-31.38399,2.369995,-27.01181,2.98111,0.5442630999999999,0.5165188000000001,1.0,-0.03538513,-0.1647797,0.9856873,34.73369,1.751343,-27.60583,3.774811,0.4340579,0.5307871999999999,-0.2927856,1.257549,-0.2572802,-0.06891585,0.7115300999999999,0.02703671,0.5013364,-38.57977,35.27
2,-0.1716156,-0.1553345,0.9728241,1.0,-0.3481598,-0.1382141,0.9271851,-31.38399,2.369995,-27.01181,2.98111,0.5442630999999999,0.5165188000000001,1.0,-0.03538513,-0.1647797,0.9856873,34.73369,1.751343,-27.60583,3.774811,0.4340579,0.5307871999999999,-0.2927856,1.257549,-0.2572802,-0.06891585,0.7115300999999999,0.02703671,0.5013364,-38.57977,35.27
2,-0.1612244,-0.1544495,0.9747467,1.0,-0.3513184,-0.134201,0.9265747,-31.38411,2.369385,-27.01541,2.982925,0.5446625,0.5161083,1.0,-0.03219604,-0.1645507999999999,0.9858398000000002,34.7343,1.751343,-27.60583,3.807709,0.4336272,0.5307696,-0.2927225,1.257555,-0.2572914,-0.06937123,0.7117494000000001,0.0268957999999999,0.5013364,-38.57977,35.27
2,-0.1612244,-0.1544495,0.9747467,1.0,-0.3513184,-0.134201,0.9265747,-31.38411,2.369385,-27.01541,2.982925,0.5446625,0.5161083,1.0,-0.03219604,-0.1645507999999999,0.9858398000000002,34.7343,1.751343,-27.60583,3.807709,0.4336272,0.5307696,-0.2927225,1.257555,-0.2572914,-0.06937123,0.7117494000000001,0.0268957999999999,0.5013364,-38.57977,35.27
2,-0.1612244,-0.1544495,0.9747467,1.0,-0.3513184,-0.134201,0.9265747,-31.38411,2.369385,-27.01541,2.982925,0.5446625,0.5161083,1.0,-0.03219604,-0.1645507999999999,0.9858398000000002,34.7343,1.751343,-27.60583,3.807709,0.4336272,0.5307696,-0.2927225,1.257555,-0.2572914,-0.06937123,0.7117494000000001,0.0268957999999999,0.5013364,-38.57977,35.27
2,-0.1602172999999999,-0.1552582,0.9747925,1.0,-0.3491058,-0.133606,0.9274902,-31.3822,2.368011,-27.02042,3.011368,0.5443191999999999,0.5161083,1.0,-0.03721619,-0.1658936,0.9854279,34.74432,1.750534,-27.61438,3.806107,0.4338689,0.5310534,-0.2925422,1.25752,-0.2574741,-0.06925482,0.712268,0.02674831,0.5013364,-38.57977,35.27
2,-0.1602172999999999,-0.1552582,0.9747925,1.0,-0.3491058,-0.133606,0.9274902,-31.3822,2.368011,-27.02042,3.011368,0.5443191999999999,0.5161083,1.0,-0.03721619,-0.1658936,0.9854279,34.74432,1.750534,-27.61438,3.806107,0.4338689,0.5310534,-0.2925422,1.25752,-0.2574741,-0.06925482,0.712268,0.02674831,0.5013364,-38.57977,35.27
2,-0.1602172999999999,-0.1552582,0.9747925,1.0,-0.3491058,-0.133606,0.9274902,-31.3822,2.368011,-27.02042,3.011368,0.5443191999999999,0.5161083,1.0,-0.03721619,-0.1658936,0.9854279,34.74432,1.750534,-27.61438,3.806107,0.4338689,0.5310534,-0.2925422,1.25752,-0.2574741,-0.06925482,0.712268,0.02674831,0.5013364,-38.57977,35.27
2,-0.1564026,-0.1551666,0.9754181,1.0,-0.3482208,-0.1368103,0.9273682,-31.37981,2.366943,-27.02042,2.989441,0.5441326999999999,0.5165188000000001,1.0,-0.0375824,-0.1632843,0.9858551,34.74667,1.7513729999999998,-27.62392,3.812088,0.4338230999999999,0.5307871999999999,-0.2923751,1.257449,-0.2575393,-0.06914181,0.7124170999999999,0.02663148,0.5013364,-61.50656,35.27
2,-0.1564026,-0.1551666,0.9754181,1.0,-0.3482208,-0.1368103,0.9273682,-31.37981,2.366943,-27.02042,2.989441,0.5441326999999999,0.5165188000000001,1.0,-0.0375824,-0.1632843,0.9858551,34.74667,1.7513729999999998,-27.62392,3.812088,0.4338230999999999,0.5307871999999999,-0.2923751,1.257449,-0.2575393,-0.06914181,0.7124170999999999,0.02663148,0.5013364,-61.50656,35.27
2,-0.1564026,-0.1551666,0.9754181,1.0,-0.3482208,-0.1368103,0.9273682,-31.37981,2.366943,-27.02042,2.989441,0.5441326999999999,0.5165188000000001,1.0,-0.0375824,-0.1632843,0.9858551,34.74667,1.7513729999999998,-27.62392,3.812088,0.4338230999999999,0.5307871999999999,-0.2923751,1.257449,-0.2575393,-0.06914181,0.7124170999999999,0.02663148,0.5013364,-61.50656,35.27
2,-0.2337188999999999,-0.1966095,0.9522095,1.0,-0.4507140999999999,-0.1899872,0.8722075999999999,-31.72778,2.3518830000000004,-27.18053,2.82373,0.5691611,0.5264583,1.0,-0.1281891,-0.196106,0.9721527,34.32915,1.752655,-27.73062,3.537689,0.4587292,0.5362623000000001,-0.2921977,1.257408,-0.2575784,-0.06899069,0.712476,0.02648588,0.5013364,-61.50656,35.27
2,-0.2337188999999999,-0.1966095,0.9522095,1.0,-0.4507140999999999,-0.1899872,0.8722075999999999,-31.72778,2.3518830000000004,-27.18053,2.82373,0.5691611,0.5264583,1.0,-0.1281891,-0.196106,0.9721527,34.32915,1.752655,-27.73062,3.537689,0.4587292,0.5362623000000001,-0.2921977,1.257408,-0.2575784,-0.06899069,0.712476,0.02648588,0.5013364,-61.50656,35.27
2,-0.2337188999999999,-0.1966095,0.9522095,1.0,-0.4507140999999999,-0.1899872,0.8722075999999999,-31.72778,2.3518830000000004,-27.18053,2.82373,0.5691611,0.5264583,1.0,-0.1281891,-0.196106,0.9721527,34.32915,1.752655,-27.73062,3.537689,0.4587292,0.5362623000000001,-0.2921977,1.257408,-0.2575784,-0.06899069,0.712476,0.02648588,0.5013364,-61.50656,35.27
2,-0.2456665,-0.1672211,0.9548187,1.0,-0.4535369999999999,-0.1710968,0.874649,-31.7296,2.352493,-27.18399,2.869308,0.5695356,0.5241154,1.0,-0.1509857,-0.1629181,0.9750061,34.33003,1.75528,-27.74072,3.678986,0.4611967999999999,0.5323808000000001,-0.2920413,1.257299,-0.2576179999999999,-0.06881047,0.7124355,0.02601143,0.5013364,-61.50656,35.27
2,-0.2456665,-0.1672211,0.9548187,1.0,-0.4535369999999999,-0.1710968,0.874649,-31.7296,2.352493,-27.18399,2.869308,0.5695356,0.5241154,1.0,-0.1509857,-0.1629181,0.9750061,34.33003,1.75528,-27.74072,3.678986,0.4611967999999999,0.5323808000000001,-0.2920413,1.257299,-0.2576179999999999,-0.06881047,0.7124355,0.02601143,0.5013364,-61.50656,35.27
2,-0.2456665,-0.1672211,0.9548187,1.0,-0.4535369999999999,-0.1710968,0.874649,-31.7296,2.352493,-27.18399,2.869308,0.5695356,0.5241154,1.0,-0.1509857,-0.1629181,0.9750061,34.33003,1.75528,-27.74072,3.678986,0.4611967999999999,0.5323808000000001,-0.2920413,1.257299,-0.2576179999999999,-0.06881047,0.7124355,0.02601143,0.5013364,-61.50656,35.27
2,-0.2744598,-0.1774902,0.9450684,1.0,-0.4575348,-0.1614227,0.8744049,-31.74776,2.357971,-27.19081,2.8669740000000004,0.5706594,0.5228217000000001,1.0,-0.1346282999999999,-0.1848602,0.9734955,34.344590000000004,1.751312,-27.73836,3.5915220000000003,0.4588943,0.535041,-0.2917345,1.257216,-0.2575656,-0.06858233,0.7122583,0.02591602,0.5013364,-61.50656,35.27
2,-0.2744598,-0.1774902,0.9450684,1.0,-0.4575348,-0.1614227,0.8744049,-31.74776,2.357971,-27.19081,2.8669740000000004,0.5706594,0.5228217000000001,1.0,-0.1346282999999999,-0.1848602,0.9734955,34.344590000000004,1.751312,-27.73836,3.5915220000000003,0.4588943,0.535041,-0.2917345,1.257216,-0.2575656,-0.06858233,0.7122583,0.02591602,0.5013364,-61.50656,35.27
2,-0.2744598,-0.1774902,0.9450684,1.0,-0.4575348,-0.1614227,0.8744049,-31.74776,2.357971,-27.19081,2.8669740000000004,0.5706594,0.5228217000000001,1.0,-0.1346282999999999,-0.1848602,0.9734955,34.344590000000004,1.751312,-27.73836,3.5915220000000003,0.4588943,0.535041,-0.2917345,1.257216,-0.2575656,-0.06858233,0.7122583,0.02591602,0.5013364,-61.50656,35.27
2,-0.269455,-0.1784667999999999,0.9463196,1.0,-0.4543609999999999,-0.163147,0.8757476999999999,-31.75305,2.363205,-27.19136,2.865295,0.5704315,0.5228217000000001,1.0,-0.1400298999999999,-0.1847839,0.9727478,34.35353,1.748428,-27.73665,3.5906830000000003,0.459229,0.5351514,-0.2917345,1.257216,-0.2575656,-0.06858233,0.7122583,0.02591602,0.5051804,-61.50656,35.27
2,-0.269455,-0.1784667999999999,0.9463196,1.0,-0.4543609999999999,-0.163147,0.8757476999999999,-31.75305,2.363205,-27.19136,2.865295,0.5704315,0.5228217000000001,1.0,-0.1400298999999999,-0.1847839,0.9727478,34.35353,1.748428,-27.73665,3.5906830000000003,0.459229,0.5351514,-0.2917345,1.257216,-0.2575656,-0.06858233,0.7122583,0.02591602,0.5051804,-61.50656,35.27
2,-0.269455,-0.1784667999999999,0.9463196,1.0,-0.4543609999999999,-0.163147,0.8757476999999999,-31.75305,2.363205,-27.19136,2.865295,0.5704315,0.5228217000000001,1.0,-0.1400298999999999,-0.1847839,0.9727478,34.35353,1.748428,-27.73665,3.5906830000000003,0.459229,0.5351514,-0.2917345,1.257216,-0.2575656,-0.06858233,0.7122583,0.02591602,0.5051804,-61.50656,35.27
2,-0.2645264,-0.1761169,0.9481506,1.0,-0.4564514,-0.1577606,0.8756408999999999,-31.756940000000004,2.363678,-27.192120000000003,2.893707,0.5708139,0.5221778,1.0,-0.1396332,-0.1837616,0.9729919,34.35773,1.747437,-27.73703,3.590851,0.4590407999999999,0.5350621999999999,-0.2914269,1.257053,-0.2576426,-0.06787368,0.7122430999999999,0.02544237,0.5051804,46.57471,35.27
2,-0.2645264,-0.1761169,0.9481506,1.0,-0.4564514,-0.1577606,0.8756408999999999,-31.756940000000004,2.363678,-27.192120000000003,2.893707,0.5708139,0.5221778,1.0,-0.1396332,-0.1837616,0.9729919,34.35773,1.747437,-27.73703,3.590851,0.4590407999999999,0.5350621999999999,-0.2914269,1.257053,-0.2576426,-0.06787368,0.7122430999999999,0.02544237,0.5051804,46.57471,35.27
2,-0.2645264,-0.1761169,0.9481506,1.0,-0.4564514,-0.1577606,0.8756408999999999,-31.756940000000004,2.363678,-27.192120000000003,2.893707,0.5708139,0.5221778,1.0,-0.1396332,-0.1837616,0.9729919,34.35773,1.747437,-27.73703,3.590851,0.4590407999999999,0.5350621999999999,-0.2914269,1.257053,-0.2576426,-0.06787368,0.7122430999999999,0.02544237,0.5051804,46.57471,35.27
2,-0.2822571,-0.1712341,0.943924,1.0,-0.4564972,-0.1520996,0.8766174000000001,-31.77112,2.365631,-27.19411,2.93306,0.571274,0.5214232,1.0,-0.1448669,-0.1816405999999999,0.9726257,34.36421,1.746979,-27.73627,3.595474,0.4594337,0.5348414,-0.2914269,1.257053,-0.2576426,-0.06787368,0.7122430999999999,0.02544237,0.5051804,46.57471,35.27
2,-0.2822571,-0.1712341,0.943924,1.0,-0.4564972,-0.1520996,0.8766174000000001,-31.77112,2.365631,-27.19411,2.93306,0.571274,0.5214232,1.0,-0.1448669,-0.1816405999999999,0.9726257,34.36421,1.746979,-27.73627,3.595474,0.4594337,0.5348414,-0.2914269,1.257053,-0.2576426,-0.06787368,0.7122430999999999,0.02544237,0.5051804,46.57471,35.27
2,-0.2822571,-0.1712341,0.943924,1.0,-0.4564972,-0.1520996,0.8766174000000001,-31.77112,2.365631,-27.19411,2.93306,0.571274,0.5214232,1.0,-0.1448669,-0.1816405999999999,0.9726257,34.36421,1.746979,-27.73627,3.595474,0.4594337,0.5348414,-0.2914269,1.257053,-0.2576426,-0.06787368,0.7122430999999999,0.02544237,0.5051804,46.57471,35.27
2,-0.2822571,-0.1712341,0.943924,1.0,-0.4564972,-0.1520996,0.8766174000000001,-31.77112,2.365631,-27.19411,2.93306,0.571274,0.5214232,1.0,-0.1448669,-0.1816405999999999,0.9726257,34.36421,1.746979,-27.73627,3.595474,0.4594337,0.5348414,-0.2910855,1.256892,-0.2579618,-0.06783997,0.7126262,0.02549824,0.5051804,46.57471,35.27
2,-0.2822571,-0.1712341,0.943924,1.0,-0.4564972,-0.1520996,0.8766174000000001,-31.77112,2.365631,-27.19411,2.93306,0.571274,0.5214232,1.0,-0.1448669,-0.1816405999999999,0.9726257,34.36421,1.746979,-27.73627,3.595474,0.4594337,0.5348414,-0.2910855,1.256892,-0.2579618,-0.06783997,0.7126262,0.02549824,0.5051804,46.57471,35.27
2,-0.2822571,-0.1712341,0.943924,1.0,-0.4564972,-0.1520996,0.8766174000000001,-31.77112,2.365631,-27.19411,2.93306,0.571274,0.5214232,1.0,-0.1448669,-0.1816405999999999,0.9726257,34.36421,1.746979,-27.73627,3.595474,0.4594337,0.5348414,-0.2910855,1.256892,-0.2579618,-0.06783997,0.7126262,0.02549824,0.5051804,46.57471,35.27
2,-0.2832031,-0.1653595,0.9446869,1.0,-0.4577942,-0.1465454,0.8768768,-31.77386,2.3674470000000003,-27.19473,2.960312,0.5715150999999999,0.5207005,1.0,-0.1448364,-0.1756743999999999,0.9737244,34.36421,1.746979,-27.73627,3.59642,0.4594337,0.5341001999999999,-0.2908387,1.256935,-0.2581387,-0.06791987,0.7128233,0.02406535,0.5051804,46.57471,35.27
2,-0.2832031,-0.1653595,0.9446869,1.0,-0.4577942,-0.1465454,0.8768768,-31.77386,2.3674470000000003,-27.19473,2.960312,0.5715150999999999,0.5207005,1.0,-0.1448364,-0.1756743999999999,0.9737244,34.36421,1.746979,-27.73627,3.59642,0.4594337,0.5341001999999999,-0.2908387,1.256935,-0.2581387,-0.06791987,0.7128233,0.02406535,0.5051804,46.57471,35.27
2,-0.2832031,-0.1653595,0.9446869,1.0,-0.4577942,-0.1465454,0.8768768,-31.77386,2.3674470000000003,-27.19473,2.960312,0.5715150999999999,0.5207005,1.0,-0.1448364,-0.1756743999999999,0.9737244,34.36421,1.746979,-27.73627,3.59642,0.4594337,0.5341001999999999,-0.2908387,1.256935,-0.2581387,-0.06791987,0.7128233,0.02406535,0.5051804,46.57471,35.27
2,-0.2711639,-0.1654358,0.9481964,1.0,-0.4592742999999999,-0.1412964,0.8769684000000001,-31.79764,2.367584,-27.20131,3.000671,0.5724893,0.5201312,1.0,-0.1468811,-0.1771545,0.9731445,34.36444,1.753357,-27.73711,3.60051,0.4596608,0.5341001999999999,-0.2907374,1.256907,-0.2583287,-0.06775672,0.7131857,0.0234250999999999,0.5051804,46.57471,35.27
2,-0.2711639,-0.1654358,0.9481964,1.0,-0.4592742999999999,-0.1412964,0.8769684000000001,-31.79764,2.367584,-27.20131,3.000671,0.5724893,0.5201312,1.0,-0.1468811,-0.1771545,0.9731445,34.36444,1.753357,-27.73711,3.60051,0.4596608,0.5341001999999999,-0.2907374,1.256907,-0.2583287,-0.06775672,0.7131857,0.0234250999999999,0.5051804,46.57471,35.27
2,-0.2711639,-0.1654358,0.9481964,1.0,-0.4592742999999999,-0.1412964,0.8769684000000001,-31.79764,2.367584,-27.20131,3.000671,0.5724893,0.5201312,1.0,-0.1468811,-0.1771545,0.9731445,34.36444,1.753357,-27.73711,3.60051,0.4596608,0.5341001999999999,-0.2907374,1.256907,-0.2583287,-0.06775672,0.7131857,0.0234250999999999,0.5051804,46.57471,35.27
3,-0.2732239,-0.1665039,0.9474182,1.0,-0.4537047999999999,-0.1421509,0.8797302,-31.824890000000003,2.356262,-27.21234,2.997437,0.5727076,0.5206537999999999,1.0,-0.1463165,-0.1793213,0.9728394,34.36238,1.758011,-27.743640000000003,3.599854,0.4596608,0.5342627,-0.2907374,1.256907,-0.2583287,-0.06775672,0.7131857,0.0234250999999999,0.5051804,38.99489,35.27
3,-0.2732239,-0.1665039,0.9474182,1.0,-0.4537047999999999,-0.1421509,0.8797302,-31.824890000000003,2.356262,-27.21234,2.997437,0.5727076,0.5206537999999999,1.0,-0.1463165,-0.1793213,0.9728394,34.36238,1.758011,-27.743640000000003,3.599854,0.4596608,0.5342627,-0.2907374,1.256907,-0.2583287,-0.06775672,0.7131857,0.0234250999999999,0.5051804,38.99489,35.27
3,-0.2732239,-0.1665039,0.9474182,1.0,-0.4537047999999999,-0.1421509,0.8797302,-31.824890000000003,2.356262,-27.21234,2.997437,0.5727076,0.5206537999999999,1.0,-0.1463165,-0.1793213,0.9728394,34.36238,1.758011,-27.743640000000003,3.599854,0.4596608,0.5342627,-0.2907374,1.256907,-0.2583287,-0.06775672,0.7131857,0.0234250999999999,0.5051804,38.99489,35.27
3,-0.2642822,-0.1679077,0.949707,1.0,-0.4487,-0.1427765,0.8821869000000001,-31.82916,2.356262,-27.21378,2.9776,0.5722195,0.5206537999999999,1.0,-0.1425322999999999,-0.1803894,0.9732056,34.36188,1.759613,-27.743640000000003,3.598511,0.4592348,0.5343205,-0.2907083,1.256737,-0.2586907,-0.06806473,0.7140941999999999,0.02377819,0.5051804,38.99489,35.27
3,-0.2642822,-0.1679077,0.949707,1.0,-0.4487,-0.1427765,0.8821869000000001,-31.82916,2.356262,-27.21378,2.9776,0.5722195,0.5206537999999999,1.0,-0.1425322999999999,-0.1803894,0.9732056,34.36188,1.759613,-27.743640000000003,3.598511,0.4592348,0.5343205,-0.2907083,1.256737,-0.2586907,-0.06806473,0.7140941999999999,0.02377819,0.5051804,38.99489,35.27
3,-0.2642822,-0.1679077,0.949707,1.0,-0.4487,-0.1427765,0.8821869000000001,-31.82916,2.356262,-27.21378,2.9776,0.5722195,0.5206537999999999,1.0,-0.1425322999999999,-0.1803894,0.9732056,34.36188,1.759613,-27.743640000000003,3.598511,0.4592348,0.5343205,-0.2907083,1.256737,-0.2586907,-0.06806473,0.7140941999999999,0.02377819,0.5051804,38.99489,35.27
3,-0.2528228999999999,-0.1768799,0.9511871,1.0,-0.4461365,-0.1477661,0.8826752,-31.82916,2.364044,-27.21275,2.993042,0.5718880000000001,0.5209786,1.0,-0.1381531,-0.1900635,0.9720001,34.36395,1.760666,-27.74345,3.5748900000000003,0.4586765,0.5354328,-0.2907083,1.256737,-0.2586907,-0.06806473,0.7140941999999999,0.02377819,0.5051804,38.99489,35.27
3,-0.2528228999999999,-0.1768799,0.9511871,1.0,-0.4461365,-0.1477661,0.8826752,-31.82916,2.364044,-27.21275,2.993042,0.5718880000000001,0.5209786,1.0,-0.1381531,-0.1900635,0.9720001,34.36395,1.760666,-27.74345,3.5748900000000003,0.4586765,0.5354328,-0.2907083,1.256737,-0.2586907,-0.06806473,0.7140941999999999,0.02377819,0.5051804,38.99489,35.27
3,-0.2528228999999999,-0.1768799,0.9511871,1.0,-0.4461365,-0.1477661,0.8826752,-31.82916,2.364044,-27.21275,2.993042,0.5718880000000001,0.5209786,1.0,-0.1381531,-0.1900635,0.9720001,34.36395,1.760666,-27.74345,3.5748900000000003,0.4586765,0.5354328,-0.2907083,1.256737,-0.2586907,-0.06806473,0.7140941999999999,0.02377819,0.5051804,38.99489,35.27
3,-0.2501067999999999,-0.185257,0.9503174,1.0,-0.4453583,-0.1526489,0.8822327,-31.82684,2.368118,-27.20901,3.0065,0.5717091999999999,0.521417,1.0,-0.1342621,-0.2001801,0.9705048,34.36993,1.761063,-27.74162,3.555359,0.458038,0.5366184,-0.290889,1.256521,-0.258885,-0.06817007,0.714042,0.02344275,0.5051804,38.99489,35.27
3,-0.2501067999999999,-0.185257,0.9503174,1.0,-0.4453583,-0.1526489,0.8822327,-31.82684,2.368118,-27.20901,3.0065,0.5717091999999999,0.521417,1.0,-0.1342621,-0.2001801,0.9705048,34.36993,1.761063,-27.74162,3.555359,0.458038,0.5366184,-0.290889,1.256521,-0.258885,-0.06817007,0.714042,0.02344275,0.5051804,38.99489,35.27
3,-0.2501067999999999,-0.185257,0.9503174,1.0,-0.4453583,-0.1526489,0.8822327,-31.82684,2.368118,-27.20901,3.0065,0.5717091999999999,0.521417,1.0,-0.1342621,-0.2001801,0.9705048,34.36993,1.761063,-27.74162,3.555359,0.458038,0.5366184,-0.290889,1.256521,-0.258885,-0.06817007,0.714042,0.02344275,0.5051804,38.99489,35.27
3,-0.2510529,-0.1905059999999999,0.9490356,1.0,-0.4593353,-0.1644592,0.8728943000000001,-31.76848,2.4048,-27.19673,2.970581,0.5715581999999999,0.5217499,1.0,-0.134552,-0.2005615,0.9703827,34.37697,1.761993,-27.7393,3.548935,0.4578465,0.5366184,-0.2910360999999999,1.256448,-0.2590098,-0.06827824,0.7139246,0.02305287,0.5051804,38.99489,35.27
3,-0.2510529,-0.1905059999999999,0.9490356,1.0,-0.4593353,-0.1644592,0.8728943000000001,-31.76848,2.4048,-27.19673,2.970581,0.5715581999999999,0.5217499,1.0,-0.134552,-0.2005615,0.9703827,34.37697,1.761993,-27.7393,3.548935,0.4578465,0.5366184,-0.2910360999999999,1.256448,-0.2590098,-0.06827824,0.7139246,0.02305287,0.5051804,38.99489,35.27
3,-0.2510529,-0.1905059999999999,0.9490356,1.0,-0.4593353,-0.1644592,0.8728943000000001,-31.76848,2.4048,-27.19673,2.970581,0.5715581999999999,0.5217499,1.0,-0.134552,-0.2005615,0.9703827,34.37697,1.761993,-27.7393,3.548935,0.4578465,0.5366184,-0.2910360999999999,1.256448,-0.2590098,-0.06827824,0.7139246,0.02305287,0.5051804,38.99489,35.27
3,-0.2521666999999999,-0.190567,0.9487152,1.0,-0.4590301999999999,-0.1649628,0.8729553,-31.76263,2.406113,-27.19556,2.970581,0.5713194,0.5217499,1.0,-0.1374207,-0.2003632,0.9700317,34.386990000000004,1.762909,-27.73732,3.549698,0.4578465,0.536561,-0.2913870999999999,1.256595,-0.259205,-0.06874656,0.713518,0.02315269,0.5051804,38.99489,35.27
3,-0.2521666999999999,-0.190567,0.9487152,1.0,-0.4590301999999999,-0.1649628,0.8729553,-31.76263,2.406113,-27.19556,2.970581,0.5713194,0.5217499,1.0,-0.1374207,-0.2003632,0.9700317,34.386990000000004,1.762909,-27.73732,3.549698,0.4578465,0.536561,-0.2913870999999999,1.256595,-0.259205,-0.06874656,0.713518,0.02315269,0.5051804,38.99489,35.27
3,-0.2521666999999999,-0.190567,0.9487152,1.0,-0.4590301999999999,-0.1649628,0.8729553,-31.76263,2.406113,-27.19556,2.970581,0.5713194,0.5217499,1.0,-0.1374207,-0.2003632,0.9700317,34.386990000000004,1.762909,-27.73732,3.549698,0.4578465,0.536561,-0.2913870999999999,1.256595,-0.259205,-0.06874656,0.713518,0.02315269,0.5051804,38.99489,35.27
3,-0.2521666999999999,-0.190567,0.9487152,1.0,-0.4590301999999999,-0.1649628,0.8729553,-31.76263,2.406113,-27.19556,2.970581,0.5713194,0.5217499,1.0,-0.1374207,-0.2003632,0.9700317,34.386990000000004,1.762909,-27.73732,3.549698,0.4578465,0.536561,-0.2913870999999999,1.256595,-0.259205,-0.06874656,0.713518,0.02315269,0.5051804,-0.401886,35.27
3,-0.2521666999999999,-0.190567,0.9487152,1.0,-0.4590301999999999,-0.1649628,0.8729553,-31.76263,2.406113,-27.19556,2.970581,0.5713194,0.5217499,1.0,-0.1374207,-0.2003632,0.9700317,34.386990000000004,1.762909,-27.73732,3.549698,0.4578465,0.536561,-0.2913870999999999,1.256595,-0.259205,-0.06874656,0.713518,0.02315269,0.5051804,-0.401886,35.27
3,-0.2521666999999999,-0.190567,0.9487152,1.0,-0.4590301999999999,-0.1649628,0.8729553,-31.76263,2.406113,-27.19556,2.970581,0.5713194,0.5217499,1.0,-0.1374207,-0.2003632,0.9700317,34.386990000000004,1.762909,-27.73732,3.549698,0.4578465,0.536561,-0.2913870999999999,1.256595,-0.259205,-0.06874656,0.713518,0.02315269,0.5051804,-0.401886,35.27
3,-0.263916,-0.1879272,0.9460602,1.0,-0.4619446,-0.16008,0.8723296999999999,-31.7594,2.4064330000000003,-27.19527,3.013763,0.5715581999999999,0.5211754,1.0,-0.1357573999999999,-0.2008513999999999,0.9701538,34.38782,1.764175,-27.73711,3.546432,0.4576269,0.536561,-0.2917261,1.256801,-0.2595603999999999,-0.06955121,0.7139285,0.02326376,0.5051804,-0.401886,35.27
3,-0.263916,-0.1879272,0.9460602,1.0,-0.4619446,-0.16008,0.8723296999999999,-31.7594,2.4064330000000003,-27.19527,3.013763,0.5715581999999999,0.5211754,1.0,-0.1357573999999999,-0.2008513999999999,0.9701538,34.38782,1.764175,-27.73711,3.546432,0.4576269,0.536561,-0.2917261,1.256801,-0.2595603999999999,-0.06955121,0.7139285,0.02326376,0.5051804,-0.401886,35.27
3,-0.263916,-0.1879272,0.9460602,1.0,-0.4619446,-0.16008,0.8723296999999999,-31.7594,2.4064330000000003,-27.19527,3.013763,0.5715581999999999,0.5211754,1.0,-0.1357573999999999,-0.2008513999999999,0.9701538,34.38782,1.764175,-27.73711,3.546432,0.4576269,0.536561,-0.2917261,1.256801,-0.2595603999999999,-0.06955121,0.7139285,0.02326376,0.5051804,-0.401886,35.27
3,-0.263916,-0.1879272,0.9460602,1.0,-0.4619446,-0.16008,0.8723296999999999,-31.7594,2.4064330000000003,-27.19527,3.013763,0.5715581999999999,0.5211754,1.0,-0.1357573999999999,-0.2008513999999999,0.9701538,34.38782,1.764175,-27.73711,3.546432,0.4576269,0.536561,-0.2917261,1.256801,-0.2595603999999999,-0.06955121,0.7139285,0.02326376,0.5051804,-0.401886,35.27
3,-0.263916,-0.1879272,0.9460602,1.0,-0.4619446,-0.16008,0.8723296999999999,-31.7594,2.4064330000000003,-27.19527,3.013763,0.5715581999999999,0.5211754,1.0,-0.1357573999999999,-0.2008513999999999,0.9701538,34.38782,1.764175,-27.73711,3.546432,0.4576269,0.536561,-0.2917261,1.256801,-0.2595603999999999,-0.06955121,0.7139285,0.02326376,0.5051804,-0.401886,35.27
3,-0.263916,-0.1879272,0.9460602,1.0,-0.4619446,-0.16008,0.8723296999999999,-31.7594,2.4064330000000003,-27.19527,3.013763,0.5715581999999999,0.5211754,1.0,-0.1357573999999999,-0.2008513999999999,0.9701538,34.38782,1.764175,-27.73711,3.546432,0.4576269,0.536561,-0.2917261,1.256801,-0.2595603999999999,-0.06955121,0.7139285,0.02326376,0.5051804,-0.401886,35.27
3,-0.3269043,-0.1428986,0.9341736,1.0,-0.4734344,-0.1424866,0.8692169,-32.00137,2.383163,-27.2867,3.0055240000000003,0.5813115,0.5207798,1.0,-0.2017975,-0.1405182,0.9692841,34.110820000000004,1.759613,-27.82764,3.795135,0.4743323,0.5308013,-0.2920032,1.256896,-0.260098,-0.07075078,0.7146336,0.02298328,0.5051804,-0.401886,35.27
3,-0.3269043,-0.1428986,0.9341736,1.0,-0.4734344,-0.1424866,0.8692169,-32.00137,2.383163,-27.2867,3.0055240000000003,0.5813115,0.5207798,1.0,-0.2017975,-0.1405182,0.9692841,34.110820000000004,1.759613,-27.82764,3.795135,0.4743323,0.5308013,-0.2920032,1.256896,-0.260098,-0.07075078,0.7146336,0.02298328,0.5051804,-0.401886,35.27
3,-0.3269043,-0.1428986,0.9341736,1.0,-0.4734344,-0.1424866,0.8692169,-32.00137,2.383163,-27.2867,3.0055240000000003,0.5813115,0.5207798,1.0,-0.2017975,-0.1405182,0.9692841,34.110820000000004,1.759613,-27.82764,3.795135,0.4743323,0.5308013,-0.2920032,1.256896,-0.260098,-0.07075078,0.7146336,0.02298328,0.5051804,-0.401886,35.27
3,-0.3011169,-0.1726532,0.9378204,1.0,-0.4774627999999999,-0.1640167,0.8631897,-32.00117,2.383835,-27.28958,3.004044,0.5818675999999999,0.5235634,1.0,-0.1999359,-0.1746979,0.9640961,34.12746,1.7478490000000002,-27.82178,3.671738,0.4737181,0.5352726999999999,-0.2920186999999999,1.256922,-0.2602789,-0.07103208,0.7149972,0.02280021,0.5051804,-0.401886,35.27
3,-0.3011169,-0.1726532,0.9378204,1.0,-0.4774627999999999,-0.1640167,0.8631897,-32.00117,2.383835,-27.28958,3.004044,0.5818675999999999,0.5235634,1.0,-0.1999359,-0.1746979,0.9640961,34.12746,1.7478490000000002,-27.82178,3.671738,0.4737181,0.5352726999999999,-0.2920186999999999,1.256922,-0.2602789,-0.07103208,0.7149972,0.02280021,0.5051804,-0.401886,35.27
3,-0.3011169,-0.1726532,0.9378204,1.0,-0.4774627999999999,-0.1640167,0.8631897,-32.00117,2.383835,-27.28958,3.004044,0.5818675999999999,0.5235634,1.0,-0.1999359,-0.1746979,0.9640961,34.12746,1.7478490000000002,-27.82178,3.671738,0.4737181,0.5352726999999999,-0.2920186999999999,1.256922,-0.2602789,-0.07103208,0.7149972,0.02280021,0.5051804,-0.401886,35.27
3,-0.3060454999999999,-0.172348,0.9362793,1.0,-0.4770202999999999,-0.1642761,0.8633881,-31.9994,2.38385,-27.2867,3.003769,0.5817468000000001,0.5235634,1.0,-0.1930695,-0.1743774,0.9655609,34.12897,1.744171,-27.82002,3.64183,0.4729072,0.5352726999999999,-0.2920186999999999,1.256922,-0.2602789,-0.07103208,0.7149972,0.02280021,0.5051804,-41.15364,35.27
3,-0.3060454999999999,-0.172348,0.9362793,1.0,-0.4770202999999999,-0.1642761,0.8633881,-31.9994,2.38385,-27.2867,3.003769,0.5817468000000001,0.5235634,1.0,-0.1930695,-0.1743774,0.9655609,34.12897,1.744171,-27.82002,3.64183,0.4729072,0.5352726999999999,-0.2920186999999999,1.256922,-0.2602789,-0.07103208,0.7149972,0.02280021,0.5051804,-41.15364,35.27
3,-0.3060454999999999,-0.172348,0.9362793,1.0,-0.4770202999999999,-0.1642761,0.8633881,-31.9994,2.38385,-27.2867,3.003769,0.5817468000000001,0.5235634,1.0,-0.1930695,-0.1743774,0.9655609,34.12897,1.744171,-27.82002,3.64183,0.4729072,0.5352726999999999,-0.2920186999999999,1.256922,-0.2602789,-0.07103208,0.7149972,0.02280021,0.5051804,-41.15364,35.27
3,-0.3049011,-0.171051,0.9368896,1.0,-0.4776154,-0.1636352999999999,0.8631897,-31.99878,2.384338,-27.28639,2.993103,0.5818072,0.5234599,1.0,-0.19133,-0.1726227,0.966217,34.13123,1.743927,-27.81953,3.5927580000000003,0.4727045999999999,0.5350276999999999,-0.2920828,1.256915,-0.2603968,-0.07132636,0.715532,0.02259356,0.5051804,-41.15364,35.27
3,-0.3049011,-0.171051,0.9368896,1.0,-0.4776154,-0.1636352999999999,0.8631897,-31.99878,2.384338,-27.28639,2.993103,0.5818072,0.5234599,1.0,-0.19133,-0.1726227,0.966217,34.13123,1.743927,-27.81953,3.5927580000000003,0.4727045999999999,0.5350276999999999,-0.2920828,1.256915,-0.2603968,-0.07132636,0.715532,0.02259356,0.5051804,-41.15364,35.27
3,-0.3049011,-0.171051,0.9368896,1.0,-0.4776154,-0.1636352999999999,0.8631897,-31.99878,2.384338,-27.28639,2.993103,0.5818072,0.5234599,1.0,-0.19133,-0.1726227,0.966217,34.13123,1.743927,-27.81953,3.5927580000000003,0.4727045999999999,0.5350276999999999,-0.2920828,1.256915,-0.2603968,-0.07132636,0.715532,0.02259356,0.5051804,-41.15364,35.27
3,-0.3056335,-0.1702422999999999,0.9367981,1.0,-0.4782715,-0.1575775,0.8639374,-31.99803,2.3862,-27.28671,2.976105,0.5818675999999999,0.5226445,1.0,-0.1875305,-0.1752625,0.9664917,34.13348,1.743561,-27.81972,3.5331120000000005,0.4722710999999999,0.5353055999999999,-0.2922666,1.256879,-0.2607849,-0.07144118,0.7166992,0.02249972,0.5051804,-41.15364,35.29
3,-0.3056335,-0.1702422999999999,0.9367981,1.0,-0.4782715,-0.1575775,0.8639374,-31.99803,2.3862,-27.28671,2.976105,0.5818675999999999,0.5226445,1.0,-0.1875305,-0.1752625,0.9664917,34.13348,1.743561,-27.81972,3.5331120000000005,0.4722710999999999,0.5353055999999999,-0.2922666,1.256879,-0.2607849,-0.07144118,0.7166992,0.02249972,0.5051804,-41.15364,35.29
3,-0.3056335,-0.1702422999999999,0.9367981,1.0,-0.4782715,-0.1575775,0.8639374,-31.99803,2.3862,-27.28671,2.976105,0.5818675999999999,0.5226445,1.0,-0.1875305,-0.1752625,0.9664917,34.13348,1.743561,-27.81972,3.5331120000000005,0.4722710999999999,0.5353055999999999,-0.2922666,1.256879,-0.2607849,-0.07144118,0.7166992,0.02249972,0.5051804,-41.15364,35.29
3,-0.3032532,-0.165451,0.9384308,1.0,-0.4776154,-0.1564789,0.864502,-31.997190000000003,2.3862,-27.28671,2.983765,0.5817468000000001,0.5224903000000001,1.0,-0.1873168999999999,-0.168045,0.967804,34.13388,1.743561,-27.82002,3.529495,0.4722455,0.5344059,-0.2922666,1.256879,-0.2607849,-0.07144118,0.7166992,0.02249972,0.5051804,-41.15364,35.29
3,-0.3032532,-0.165451,0.9384308,1.0,-0.4776154,-0.1564789,0.864502,-31.997190000000003,2.3862,-27.28671,2.983765,0.5817468000000001,0.5224903000000001,1.0,-0.1873168999999999,-0.168045,0.967804,34.13388,1.743561,-27.82002,3.529495,0.4722455,0.5344059,-0.2922666,1.256879,-0.2607849,-0.07144118,0.7166992,0.02249972,0.5051804,-41.15364,35.29
3,-0.3032532,-0.165451,0.9384308,1.0,-0.4776154,-0.1564789,0.864502,-31.997190000000003,2.3862,-27.28671,2.983765,0.5817468000000001,0.5224903000000001,1.0,-0.1873168999999999,-0.168045,0.967804,34.13388,1.743561,-27.82002,3.529495,0.4722455,0.5344059,-0.2922666,1.256879,-0.2607849,-0.07144118,0.7166992,0.02249972,0.5051804,-41.15364,35.29
3,-0.3032532,-0.165451,0.9384308,1.0,-0.4776154,-0.1564789,0.864502,-31.997190000000003,2.3862,-27.28671,2.983765,0.5817468000000001,0.5224903000000001,1.0,-0.1873168999999999,-0.168045,0.967804,34.13388,1.743561,-27.82002,3.529495,0.4722455,0.5344059,-0.2922385,1.256965,-0.2607636,-0.07165091,0.7168076,0.0223522,0.5051804,-41.15364,35.29
3,-0.3032532,-0.165451,0.9384308,1.0,-0.4776154,-0.1564789,0.864502,-31.997190000000003,2.3862,-27.28671,2.983765,0.5817468000000001,0.5224903000000001,1.0,-0.1873168999999999,-0.168045,0.967804,34.13388,1.743561,-27.82002,3.529495,0.4722455,0.5344059,-0.2922385,1.256965,-0.2607636,-0.07165091,0.7168076,0.0223522,0.5051804,-41.15364,35.29
3,-0.3032532,-0.165451,0.9384308,1.0,-0.4776154,-0.1564789,0.864502,-31.997190000000003,2.3862,-27.28671,2.983765,0.5817468000000001,0.5224903000000001,1.0,-0.1873168999999999,-0.168045,0.967804,34.13388,1.743561,-27.82002,3.529495,0.4722455,0.5344059,-0.2922385,1.256965,-0.2607636,-0.07165091,0.7168076,0.0223522,0.5051804,-41.15364,35.29
3,-0.3032532,-0.165451,0.9384308,1.0,-0.4776154,-0.1564789,0.864502,-31.997190000000003,2.3862,-27.28671,2.983765,0.5817468000000001,0.5224903000000001,1.0,-0.1873168999999999,-0.168045,0.967804,34.13388,1.743561,-27.82002,3.529495,0.4722455,0.5344059,-0.2922161,1.257049,-0.2609691,-0.07201212,0.7172776999999999,0.02237003,0.5051804,-37.07817,35.29
3,-0.3032532,-0.165451,0.9384308,1.0,-0.4776154,-0.1564789,0.864502,-31.997190000000003,2.3862,-27.28671,2.983765,0.5817468000000001,0.5224903000000001,1.0,-0.1873168999999999,-0.168045,0.967804,34.13388,1.743561,-27.82002,3.529495,0.4722455,0.5344059,-0.2922161,1.257049,-0.2609691,-0.07201212,0.7172776999999999,0.02237003,0.5051804,-37.07817,35.29
3,-0.3032532,-0.165451,0.9384308,1.0,-0.4776154,-0.1564789,0.864502,-31.997190000000003,2.3862,-27.28671,2.983765,0.5817468000000001,0.5224903000000001,1.0,-0.1873168999999999,-0.168045,0.967804,34.13388,1.743561,-27.82002,3.529495,0.4722455,0.5344059,-0.2922161,1.257049,-0.2609691,-0.07201212,0.7172776999999999,0.02237003,0.5051804,-37.07817,35.29
3,-0.3110045999999999,-0.1664124,0.9357147,1.0,-0.4859924,-0.1504517,0.8609009,-31.98299,2.385223,-27.29216,2.993546,0.5823451,0.5219537999999999,1.0,-0.1900177,-0.1735992,0.9662933,34.11923,1.737366,-27.8199,3.496689,0.4731013,0.5353224,-0.2921851,1.257003,-0.2613328,-0.07098046,0.7191171,0.02247304,0.5051804,-37.07817,35.29
3,-0.3110045999999999,-0.1664124,0.9357147,1.0,-0.4859924,-0.1504517,0.8609009,-31.98299,2.385223,-27.29216,2.993546,0.5823451,0.5219537999999999,1.0,-0.1900177,-0.1735992,0.9662933,34.11923,1.737366,-27.8199,3.496689,0.4731013,0.5353224,-0.2921851,1.257003,-0.2613328,-0.07098046,0.7191171,0.02247304,0.5051804,-37.07817,35.29
3,-0.3110045999999999,-0.1664124,0.9357147,1.0,-0.4859924,-0.1504517,0.8609009,-31.98299,2.385223,-27.29216,2.993546,0.5823451,0.5219537999999999,1.0,-0.1900177,-0.1735992,0.9662933,34.11923,1.737366,-27.8199,3.496689,0.4731013,0.5353224,-0.2921851,1.257003,-0.2613328,-0.07098046,0.7191171,0.02247304,0.5051804,-37.07817,35.29
3,-0.3039855999999999,-0.1687164,0.9376068,1.0,-0.4858093,-0.1496735,0.8611298000000001,-31.97626,2.382416,-27.29378,2.9936830000000003,0.5820936999999999,0.5219598,1.0,-0.1781616,-0.1776122999999999,0.9678345,34.12534,1.739899,-27.82152,3.492371,0.4715032,0.5356382,-0.2922726,1.256864,-0.2618968,-0.07042405,0.7212063,0.02224378,0.5051804,-37.07817,35.29
3,-0.3039855999999999,-0.1687164,0.9376068,1.0,-0.4858093,-0.1496735,0.8611298000000001,-31.97626,2.382416,-27.29378,2.9936830000000003,0.5820936999999999,0.5219598,1.0,-0.1781616,-0.1776122999999999,0.9678345,34.12534,1.739899,-27.82152,3.492371,0.4715032,0.5356382,-0.2922726,1.256864,-0.2618968,-0.07042405,0.7212063,0.02224378,0.5051804,-37.07817,35.29
3,-0.3039855999999999,-0.1687164,0.9376068,1.0,-0.4858093,-0.1496735,0.8611298000000001,-31.97626,2.382416,-27.29378,2.9936830000000003,0.5820936999999999,0.5219598,1.0,-0.1781616,-0.1776122999999999,0.9678345,34.12534,1.739899,-27.82152,3.492371,0.4715032,0.5356382,-0.2922726,1.256864,-0.2618968,-0.07042405,0.7212063,0.02224378,0.5051804,-37.07817,35.29
3,-0.322876,-0.1679535,0.9314117,1.0,-0.5279083000000001,-0.1104583999999999,0.8420715,-32.11221,2.381042,-27.39854,3.056412,0.5922531,0.518756,1.0,-0.2014618,-0.1960602,0.9596558,33.999590000000005,1.773926,-27.85553,3.382568,0.4786380999999999,0.5373281999999999,-0.2919407,1.256477,-0.2638390999999999,-0.06859744,0.7286729000000001,0.02192106,0.5051804,-37.07817,35.29
3,-0.322876,-0.1679535,0.9314117,1.0,-0.5279083000000001,-0.1104583999999999,0.8420715,-32.11221,2.381042,-27.39854,3.056412,0.5922531,0.518756,1.0,-0.2014618,-0.1960602,0.9596558,33.999590000000005,1.773926,-27.85553,3.382568,0.4786380999999999,0.5373281999999999,-0.2919407,1.256477,-0.2638390999999999,-0.06859744,0.7286729000000001,0.02192106,0.5051804,-37.07817,35.29
3,-0.322876,-0.1679535,0.9314117,1.0,-0.5279083000000001,-0.1104583999999999,0.8420715,-32.11221,2.381042,-27.39854,3.056412,0.5922531,0.518756,1.0,-0.2014618,-0.1960602,0.9596558,33.999590000000005,1.773926,-27.85553,3.382568,0.4786380999999999,0.5373281999999999,-0.2919407,1.256477,-0.2638390999999999,-0.06859744,0.7286729000000001,0.02192106,0.5051804,-37.07817,35.29
3,-0.3508605999999999,-0.1322173999999999,0.9270325,1.0,-0.5915222,-0.1635132,0.7895203000000001,-32.39864,2.575531,-27.54823,2.880951,0.6109954000000001,0.521517,1.0,-0.2974091,-0.1244202,0.9465942,33.609559999999995,1.843094,-27.99771,3.510468,0.5029614,0.5285499,-0.2919407,1.256477,-0.2638390999999999,-0.06859744,0.7286729000000001,0.02192106,0.5051804,-37.07817,35.29
3,-0.3508605999999999,-0.1322173999999999,0.9270325,1.0,-0.5915222,-0.1635132,0.7895203000000001,-32.39864,2.575531,-27.54823,2.880951,0.6109954000000001,0.521517,1.0,-0.2974091,-0.1244202,0.9465942,33.609559999999995,1.843094,-27.99771,3.510468,0.5029614,0.5285499,-0.2919407,1.256477,-0.2638390999999999,-0.06859744,0.7286729000000001,0.02192106,0.5051804,-37.07817,35.29
3,-0.3508605999999999,-0.1322173999999999,0.9270325,1.0,-0.5915222,-0.1635132,0.7895203000000001,-32.39864,2.575531,-27.54823,2.880951,0.6109954000000001,0.521517,1.0,-0.2974091,-0.1244202,0.9465942,33.609559999999995,1.843094,-27.99771,3.510468,0.5029614,0.5285499,-0.2919407,1.256477,-0.2638390999999999,-0.06859744,0.7286729000000001,0.02192106,0.5051804,-37.07817,35.29
3,-0.3821259,-0.1587677,0.9103546,1.0,-0.5642395,-0.1516571,0.811554,-32.36079,2.497345,-27.50468,2.886597,0.6058935999999999,0.5216579000000001,1.0,-0.2809296,-0.1597748,0.9463196,33.72699,1.863586,-27.95944,3.400726,0.4972248999999999,0.5316460999999999,-0.2917857,1.256216,-0.2651636,-0.06818684,0.7338581,0.02032205,0.5051804,39.58383,35.29
