Second,eye_comb_direction_x,eye_comb_direction_y,eye_comb_direction_z,eye_r_openness,eye_r_direction_x,eye_r_direction_y,eye_r_direction_z,eye_r_origin_x,eye_r_origin_y,eye_r_origin_z,eye_r_pupil_diameter,eye_r_pupil_position_x,eye_r_pupil_position_y,eye_l_openness,eye_l_direction_x,eye_l_direction_y,eye_l_direction_z,eye_l_origin_x,eye_l_origin_y,eye_l_origin_z,eye_l_pupil_diameter,eye_l_pupil_position_x,eye_l_pupil_position_y,head_position_x,head_position_y,head_position_z,head_rotation_roll,head_rotation_pitch,head_rotation_yaw,EDA,BVP,TMP
0,-0.1549835,-0.08920288,0.9838715,1.0,-0.3044128,-0.07704163,0.9494019,-31.13011,2.644592,-27.13853,2.858063,0.5303386,0.5003255999999999,1.0,-0.009750366,-0.0987854,0.9950562,34.97214,2.133301,-27.8109,3.637436,0.4232431,0.5115699,-0.279994,1.256447,-0.2668223,-0.06682778,0.7382257,0.01883169,0.5000551,-1.090258539398612,34.870239013107174
0,-0.1549835,-0.08920288,0.9838715,1.0,-0.3044128,-0.07704163,0.9494019,-31.13011,2.644592,-27.13853,2.858063,0.5303386,0.5003255999999999,1.0,-0.009750366,-0.0987854,0.9950562,34.97214,2.133301,-27.8109,3.637436,0.4232431,0.5115699,-0.279994,1.256447,-0.2668223,-0.06682778,0.7382257,0.01883169,0.5000551,-1.090258539398612,34.870239013107174
0,-0.1549835,-0.08920288,0.9838715,1.0,-0.3044128,-0.07704163,0.9494019,-31.13011,2.644592,-27.13853,2.858063,0.5303386,0.5003255999999999,1.0,-0.009750366,-0.0987854,0.9950562,34.97214,2.133301,-27.8109,3.637436,0.4232431,0.5115699,-0.279994,1.256447,-0.2668223,-0.06682778,0.7382257,0.01883169,0.5000551,-1.090258539398612,34.870239013107174
0,-0.1537933,-0.08900452,0.9840698,1.0,-0.3048706,-0.07740784,0.949234,-31.13547,2.646271,-27.13853,2.858093,0.5305753000000001,0.5003255999999999,1.0,-0.008468628,-0.09794617,0.9951477,34.9659,2.136002,-27.83351,3.636795,0.4232878,0.5115699,-0.2800388,1.256521,-0.2666216,-0.06703606,0.7383221999999999,0.0191965,0.5000551,-1.090258539398612,34.870239013107174
0,-0.1537933,-0.08900452,0.9840698,1.0,-0.3048706,-0.07740784,0.949234,-31.13547,2.646271,-27.13853,2.858093,0.5305753000000001,0.5003255999999999,1.0,-0.008468628,-0.09794617,0.9951477,34.9659,2.136002,-27.83351,3.636795,0.4232878,0.5115699,-0.2800388,1.256521,-0.2666216,-0.06703606,0.7383221999999999,0.0191965,0.5000551,-1.090258539398612,34.870239013107174
0,-0.1537933,-0.08900452,0.9840698,1.0,-0.3048706,-0.07740784,0.949234,-31.13547,2.646271,-27.13853,2.858093,0.5305753000000001,0.5003255999999999,1.0,-0.008468628,-0.09794617,0.9951477,34.9659,2.136002,-27.83351,3.636795,0.4232878,0.5115699,-0.2800388,1.256521,-0.2666216,-0.06703606,0.7383221999999999,0.0191965,0.5000551,-1.090258539398612,34.870239013107174
0,-0.148056,-0.08718872,0.9851227,1.0,-0.304245,-0.08088684,0.9491425,-31.139940000000003,2.648804,-27.13774,2.847092,0.5306495,0.5006376,1.0,-0.006240845,-0.09091187,0.9958344,34.95938,2.149582,-27.85309,3.63681,0.4232431,0.5104309,-0.2801101,1.25655,-0.2666658,-0.06703979,0.7383846,0.01935055,0.5000551,-1.090258539398612,34.870239013107174
0,-0.148056,-0.08718872,0.9851227,1.0,-0.304245,-0.08088684,0.9491425,-31.139940000000003,2.648804,-27.13774,2.847092,0.5306495,0.5006376,1.0,-0.006240845,-0.09091187,0.9958344,34.95938,2.149582,-27.85309,3.63681,0.4232431,0.5104309,-0.2801101,1.25655,-0.2666658,-0.06703979,0.7383846,0.01935055,0.5000551,-1.090258539398612,34.870239013107174
0,-0.148056,-0.08718872,0.9851227,1.0,-0.304245,-0.08088684,0.9491425,-31.139940000000003,2.648804,-27.13774,2.847092,0.5306495,0.5006376,1.0,-0.006240845,-0.09091187,0.9958344,34.95938,2.149582,-27.85309,3.63681,0.4232431,0.5104309,-0.2801101,1.25655,-0.2666658,-0.06703979,0.7383846,0.01935055,0.5000551,-1.090258539398612,34.870239013107174
0,-0.1467285,-0.08706665,0.9853363000000002,1.0,-0.3042755,-0.08122253,0.9490967,-31.14014,2.649368,-27.13725,2.835815,0.5306611999999999,0.5006546,1.0,-0.005859375,-0.09030151,0.9958954,34.95793,2.149902,-27.86017,3.636856,0.4232431,0.5104042999999999,-0.2801046,1.2566389999999998,-0.2666762,-0.06735455,0.7384655,0.01961936,0.5000551,-1.090258539398612,34.870239013107174
0,-0.1467285,-0.08706665,0.9853363000000002,1.0,-0.3042755,-0.08122253,0.9490967,-31.14014,2.649368,-27.13725,2.835815,0.5306611999999999,0.5006546,1.0,-0.005859375,-0.09030151,0.9958954,34.95793,2.149902,-27.86017,3.636856,0.4232431,0.5104042999999999,-0.2801046,1.2566389999999998,-0.2666762,-0.06735455,0.7384655,0.01961936,0.5000551,-1.090258539398612,34.870239013107174
0,-0.1467285,-0.08706665,0.9853363000000002,1.0,-0.3042755,-0.08122253,0.9490967,-31.14014,2.649368,-27.13725,2.835815,0.5306611999999999,0.5006546,1.0,-0.005859375,-0.09030151,0.9958954,34.95793,2.149902,-27.86017,3.636856,0.4232431,0.5104042999999999,-0.2801046,1.2566389999999998,-0.2666762,-0.06735455,0.7384655,0.01961936,0.5000551,-1.090258539398612,34.870239013107174
0,-0.1467285,-0.08706665,0.9853363000000002,1.0,-0.3042755,-0.08122253,0.9490967,-31.14014,2.649368,-27.13725,2.835815,0.5306611999999999,0.5006546,1.0,-0.005859375,-0.09030151,0.9958954,34.95793,2.149902,-27.86017,3.636856,0.4232431,0.5104042999999999,-0.2801611,1.256657,-0.2666817,-0.06761197,0.7385871999999999,0.01952896,0.5000551,-1.090258539398612,34.870239013107174
0,-0.1467285,-0.08706665,0.9853363000000002,1.0,-0.3042755,-0.08122253,0.9490967,-31.14014,2.649368,-27.13725,2.835815,0.5306611999999999,0.5006546,1.0,-0.005859375,-0.09030151,0.9958954,34.95793,2.149902,-27.86017,3.636856,0.4232431,0.5104042999999999,-0.2801611,1.256657,-0.2666817,-0.06761197,0.7385871999999999,0.01952896,0.5000551,-1.090258539398612,34.870239013107174
0,-0.1467285,-0.08706665,0.9853363000000002,1.0,-0.3042755,-0.08122253,0.9490967,-31.14014,2.649368,-27.13725,2.835815,0.5306611999999999,0.5006546,1.0,-0.005859375,-0.09030151,0.9958954,34.95793,2.149902,-27.86017,3.636856,0.4232431,0.5104042999999999,-0.2801611,1.256657,-0.2666817,-0.06761197,0.7385871999999999,0.01952896,0.5000551,-1.090258539398612,34.870239013107174
0,-0.1460266,-0.0871582,0.9854279,1.0,-0.3063354,-0.08123779,0.9484406,-31.14023,2.650284,-27.13689,2.836456,0.5309196999999999,0.5006376,1.0,-0.005859375,-0.09034729,0.9958801,34.95787,2.151016,-27.866940000000003,3.633484,0.4232431,0.5104309,-0.2801547,1.256677,-0.2666727,-0.06762861,0.7386067,0.01955679,0.5000551,-1.090258539398612,34.870239013107174
0,-0.1460266,-0.0871582,0.9854279,1.0,-0.3063354,-0.08123779,0.9484406,-31.14023,2.650284,-27.13689,2.836456,0.5309196999999999,0.5006376,1.0,-0.005859375,-0.09034729,0.9958801,34.95787,2.151016,-27.866940000000003,3.633484,0.4232431,0.5104309,-0.2801547,1.256677,-0.2666727,-0.06762861,0.7386067,0.01955679,0.5000551,-1.090258539398612,34.870239013107174
0,-0.1460266,-0.0871582,0.9854279,1.0,-0.3063354,-0.08123779,0.9484406,-31.14023,2.650284,-27.13689,2.836456,0.5309196999999999,0.5006376,1.0,-0.005859375,-0.09034729,0.9958801,34.95787,2.151016,-27.866940000000003,3.633484,0.4232431,0.5104309,-0.2801547,1.256677,-0.2666727,-0.06762861,0.7386067,0.01955679,0.5000551,-1.090258539398612,34.870239013107174
1,-0.1460266,-0.0871582,0.9854279,1.0,-0.3063354,-0.08123779,0.9484406,-31.14023,2.650284,-27.13689,2.836456,0.5309196999999999,0.5006376,1.0,-0.005859375,-0.09034729,0.9958801,34.95787,2.151016,-27.866940000000003,3.633484,0.4232431,0.5104309,-0.2802124,1.256688,-0.2665847,-0.06754223,0.738682,0.019641,0.5000551,-1.090258539398612,34.870239013107174
1,-0.1460266,-0.0871582,0.9854279,1.0,-0.3063354,-0.08123779,0.9484406,-31.14023,2.650284,-27.13689,2.836456,0.5309196999999999,0.5006376,1.0,-0.005859375,-0.09034729,0.9958801,34.95787,2.151016,-27.866940000000003,3.633484,0.4232431,0.5104309,-0.2802124,1.256688,-0.2665847,-0.06754223,0.738682,0.019641,0.5000551,-1.090258539398612,34.870239013107174
1,-0.1460266,-0.0871582,0.9854279,1.0,-0.3063354,-0.08123779,0.9484406,-31.14023,2.650284,-27.13689,2.836456,0.5309196999999999,0.5006376,1.0,-0.005859375,-0.09034729,0.9958801,34.95787,2.151016,-27.866940000000003,3.633484,0.4232431,0.5104309,-0.2802124,1.256688,-0.2665847,-0.06754223,0.738682,0.019641,0.5000551,-1.090258539398612,34.870239013107174
1,-0.1460266,-0.0871582,0.9854279,1.0,-0.3063354,-0.08123779,0.9484406,-31.14023,2.650284,-27.13689,2.836456,0.5309196999999999,0.5006376,1.0,-0.005859375,-0.09034729,0.9958801,34.95787,2.151016,-27.866940000000003,3.633484,0.4232431,0.5104309,-0.2801454,1.256678,-0.2665336,-0.06752933,0.7387552,0.01979779,0.5000551,-52.43539,34.870239013107174
1,-0.1460266,-0.0871582,0.9854279,1.0,-0.3063354,-0.08123779,0.9484406,-31.14023,2.650284,-27.13689,2.836456,0.5309196999999999,0.5006376,1.0,-0.005859375,-0.09034729,0.9958801,34.95787,2.151016,-27.866940000000003,3.633484,0.4232431,0.5104309,-0.2801454,1.256678,-0.2665336,-0.06752933,0.7387552,0.01979779,0.5000551,-52.43539,34.870239013107174
1,-0.1460266,-0.0871582,0.9854279,1.0,-0.3063354,-0.08123779,0.9484406,-31.14023,2.650284,-27.13689,2.836456,0.5309196999999999,0.5006376,1.0,-0.005859375,-0.09034729,0.9958801,34.95787,2.151016,-27.866940000000003,3.633484,0.4232431,0.5104309,-0.2801454,1.256678,-0.2665336,-0.06752933,0.7387552,0.01979779,0.5000551,-52.43539,34.870239013107174
1,-0.1460266,-0.0871582,0.9854279,1.0,-0.3063354,-0.08123779,0.9484406,-31.14023,2.650284,-27.13689,2.836456,0.5309196999999999,0.5006376,1.0,-0.005859375,-0.09034729,0.9958801,34.95787,2.151016,-27.866940000000003,3.633484,0.4232431,0.5104309,-0.2800357,1.256661,-0.2664924,-0.06738325,0.7387369,0.01975051,0.5000551,-52.43539,34.870239013107174
1,-0.1460266,-0.0871582,0.9854279,1.0,-0.3063354,-0.08123779,0.9484406,-31.14023,2.650284,-27.13689,2.836456,0.5309196999999999,0.5006376,1.0,-0.005859375,-0.09034729,0.9958801,34.95787,2.151016,-27.866940000000003,3.633484,0.4232431,0.5104309,-0.2800357,1.256661,-0.2664924,-0.06738325,0.7387369,0.01975051,0.5000551,-52.43539,34.870239013107174
1,-0.1460266,-0.0871582,0.9854279,1.0,-0.3063354,-0.08123779,0.9484406,-31.14023,2.650284,-27.13689,2.836456,0.5309196999999999,0.5006376,1.0,-0.005859375,-0.09034729,0.9958801,34.95787,2.151016,-27.866940000000003,3.633484,0.4232431,0.5104309,-0.2800357,1.256661,-0.2664924,-0.06738325,0.7387369,0.01975051,0.5000551,-52.43539,34.870239013107174
1,-0.1431579999999999,-0.08514404,0.9860229,1.0,-0.3041992,-0.07928467,0.949295,-31.14041,2.650284,-27.13689,2.823608,0.5306611999999999,0.5003799,1.0,-0.005630493,-0.08825684,0.9960785,34.95726,2.15274,-27.87302,3.626602,0.4232431,0.5101725,-0.2798402,1.256676,-0.2663636,-0.06712952,0.7385632,0.0197688,0.5000551,-52.43539,34.870239013107174
1,-0.1431579999999999,-0.08514404,0.9860229,1.0,-0.3041992,-0.07928467,0.949295,-31.14041,2.650284,-27.13689,2.823608,0.5306611999999999,0.5003799,1.0,-0.005630493,-0.08825684,0.9960785,34.95726,2.15274,-27.87302,3.626602,0.4232431,0.5101725,-0.2798402,1.256676,-0.2663636,-0.06712952,0.7385632,0.0197688,0.5000551,-52.43539,34.870239013107174
1,-0.1431579999999999,-0.08514404,0.9860229,1.0,-0.3041992,-0.07928467,0.949295,-31.14041,2.650284,-27.13689,2.823608,0.5306611999999999,0.5003799,1.0,-0.005630493,-0.08825684,0.9960785,34.95726,2.15274,-27.87302,3.626602,0.4232431,0.5101725,-0.2798402,1.256676,-0.2663636,-0.06712952,0.7385632,0.0197688,0.5000551,-52.43539,34.870239013107174
1,-0.131134,-0.09397888,0.9868927,1.0,-0.3049774,-0.09635925,0.947464,-31.13708,2.648727,-27.12578,2.66449,0.53065,0.5023367,1.0,-4.577637e-05,-0.09030151,0.9959106,34.95421,2.162125,-27.88777,3.5666809999999995,0.4227447,0.5101692,-0.2796748,1.256726,-0.2662160999999999,-0.06698513,0.7384341,0.01983633,0.5000551,-52.43539,34.870239013107174
1,-0.131134,-0.09397888,0.9868927,1.0,-0.3049774,-0.09635925,0.947464,-31.13708,2.648727,-27.12578,2.66449,0.53065,0.5023367,1.0,-4.577637e-05,-0.09030151,0.9959106,34.95421,2.162125,-27.88777,3.5666809999999995,0.4227447,0.5101692,-0.2796748,1.256726,-0.2662160999999999,-0.06698513,0.7384341,0.01983633,0.5000551,-52.43539,34.870239013107174
1,-0.131134,-0.09397888,0.9868927,1.0,-0.3049774,-0.09635925,0.947464,-31.13708,2.648727,-27.12578,2.66449,0.53065,0.5023367,1.0,-4.577637e-05,-0.09030151,0.9959106,34.95421,2.162125,-27.88777,3.5666809999999995,0.4227447,0.5101692,-0.2796748,1.256726,-0.2662160999999999,-0.06698513,0.7384341,0.01983633,0.5000551,-52.43539,34.870239013107174
1,-0.1661224,-0.09416199,0.9815826,1.0,-0.3066864,-0.09526062,0.9470215,-31.1346,2.650589,-27.12566,2.646591,0.5307809,0.5021402,1.0,-0.0005645752,-0.09046936,0.9958954,34.9536,2.194122,-28.02719,3.547226,0.4227447,0.5103116,-0.2795768,1.256676,-0.2660537,-0.0670605,0.7382842,0.0198550999999999,0.5000551,-52.43539,34.870239013107174
1,-0.1661224,-0.09416199,0.9815826,1.0,-0.3066864,-0.09526062,0.9470215,-31.1346,2.650589,-27.12566,2.646591,0.5307809,0.5021402,1.0,-0.0005645752,-0.09046936,0.9958954,34.9536,2.194122,-28.02719,3.547226,0.4227447,0.5103116,-0.2795768,1.256676,-0.2660537,-0.0670605,0.7382842,0.0198550999999999,0.5000551,-52.43539,34.870239013107174
1,-0.1661224,-0.09416199,0.9815826,1.0,-0.3066864,-0.09526062,0.9470215,-31.1346,2.650589,-27.12566,2.646591,0.5307809,0.5021402,1.0,-0.0005645752,-0.09046936,0.9958954,34.9536,2.194122,-28.02719,3.547226,0.4227447,0.5103116,-0.2795768,1.256676,-0.2660537,-0.0670605,0.7382842,0.0198550999999999,0.5000551,-52.43539,34.870239013107174
1,-0.1661224,-0.09416199,0.9815826,1.0,-0.3066864,-0.09526062,0.9470215,-31.1346,2.650589,-27.12566,2.646591,0.5307809,0.5021402,1.0,-0.0005645752,-0.09046936,0.9958954,34.9536,2.194122,-28.02719,3.547226,0.4227447,0.5103116,-0.27948,1.256621,-0.2659222,-0.06699609,0.7380335,0.0200119,0.5000551,-52.43539,34.870239013107174
1,-0.1661224,-0.09416199,0.9815826,1.0,-0.3066864,-0.09526062,0.9470215,-31.1346,2.650589,-27.12566,2.646591,0.5307809,0.5021402,1.0,-0.0005645752,-0.09046936,0.9958954,34.9536,2.194122,-28.02719,3.547226,0.4227447,0.5103116,-0.27948,1.256621,-0.2659222,-0.06699609,0.7380335,0.0200119,0.5000551,-52.43539,34.870239013107174
1,-0.1661224,-0.09416199,0.9815826,1.0,-0.3066864,-0.09526062,0.9470215,-31.1346,2.650589,-27.12566,2.646591,0.5307809,0.5021402,1.0,-0.0005645752,-0.09046936,0.9958954,34.9536,2.194122,-28.02719,3.547226,0.4227447,0.5103116,-0.27948,1.256621,-0.2659222,-0.06699609,0.7380335,0.0200119,0.5000551,-52.43539,34.870239013107174
1,-0.1894226,-0.09516907,0.9772644,1.0,-0.3059082,-0.0947876,0.9473114,-31.13362,2.650528,-27.12552,2.6493990000000003,0.53065,0.5020773000000001,1.0,0.001312256,-0.09294128,0.9956665,34.94835,2.205719,-28.04274,3.4939120000000004,0.4227447,0.5103116,-0.2792439,1.256709,-0.2658635,-0.06671631,0.7377239999999999,0.02023718,0.5000551,-52.43539,34.870239013107174
1,-0.1894226,-0.09516907,0.9772644,1.0,-0.3059082,-0.0947876,0.9473114,-31.13362,2.650528,-27.12552,2.6493990000000003,0.53065,0.5020773000000001,1.0,0.001312256,-0.09294128,0.9956665,34.94835,2.205719,-28.04274,3.4939120000000004,0.4227447,0.5103116,-0.2792439,1.256709,-0.2658635,-0.06671631,0.7377239999999999,0.02023718,0.5000551,-52.43539,34.870239013107174
1,-0.1894226,-0.09516907,0.9772644,1.0,-0.3059082,-0.0947876,0.9473114,-31.13362,2.650528,-27.12552,2.6493990000000003,0.53065,0.5020773000000001,1.0,0.001312256,-0.09294128,0.9956665,34.94835,2.205719,-28.04274,3.4939120000000004,0.4227447,0.5103116,-0.2792439,1.256709,-0.2658635,-0.06671631,0.7377239999999999,0.02023718,0.5000551,-52.43539,34.870239013107174
1,-0.2115172999999999,-0.09538269,0.972702,1.0,-0.3060303,-0.09376526,0.9473877,-31.13217,2.650269,-27.1246,2.660492,0.5306145999999999,0.5019653000000001,1.0,0.0037078859999999,-0.09570313,0.9953918,34.94835,2.208984,-28.04274,3.4754940000000003,0.42248,0.5105239,-0.27912,1.256638,-0.265792,-0.06643295,0.7376406999999999,0.01982882,0.5000551,-1.658641,34.870239013107174
1,-0.2115172999999999,-0.09538269,0.972702,1.0,-0.3060303,-0.09376526,0.9473877,-31.13217,2.650269,-27.1246,2.660492,0.5306145999999999,0.5019653000000001,1.0,0.0037078859999999,-0.09570313,0.9953918,34.94835,2.208984,-28.04274,3.4754940000000003,0.42248,0.5105239,-0.27912,1.256638,-0.265792,-0.06643295,0.7376406999999999,0.01982882,0.5000551,-1.658641,34.870239013107174
1,-0.2115172999999999,-0.09538269,0.972702,1.0,-0.3060303,-0.09376526,0.9473877,-31.13217,2.650269,-27.1246,2.660492,0.5306145999999999,0.5019653000000001,1.0,0.0037078859999999,-0.09570313,0.9953918,34.94835,2.208984,-28.04274,3.4754940000000003,0.42248,0.5105239,-0.27912,1.256638,-0.265792,-0.06643295,0.7376406999999999,0.01982882,0.5000551,-1.658641,34.870239013107174
1,-0.2115172999999999,-0.09538269,0.972702,1.0,-0.3060303,-0.09376526,0.9473877,-31.13217,2.650269,-27.1246,2.660492,0.5306145999999999,0.5019653000000001,1.0,0.0037078859999999,-0.09570313,0.9953918,34.94835,2.208984,-28.04274,3.4754940000000003,0.42248,0.5105239,-0.2789557,1.256663,-0.265739,-0.06609304,0.7375427,0.01959257,0.5000551,-1.658641,34.870239013107174
1,-0.2115172999999999,-0.09538269,0.972702,1.0,-0.3060303,-0.09376526,0.9473877,-31.13217,2.650269,-27.1246,2.660492,0.5306145999999999,0.5019653000000001,1.0,0.0037078859999999,-0.09570313,0.9953918,34.94835,2.208984,-28.04274,3.4754940000000003,0.42248,0.5105239,-0.2789557,1.256663,-0.265739,-0.06609304,0.7375427,0.01959257,0.5000551,-1.658641,34.870239013107174
1,-0.2115172999999999,-0.09538269,0.972702,1.0,-0.3060303,-0.09376526,0.9473877,-31.13217,2.650269,-27.1246,2.660492,0.5306145999999999,0.5019653000000001,1.0,0.0037078859999999,-0.09570313,0.9953918,34.94835,2.208984,-28.04274,3.4754940000000003,0.42248,0.5105239,-0.2789557,1.256663,-0.265739,-0.06609304,0.7375427,0.01959257,0.5000551,-1.658641,34.870239013107174
1,-0.2028198,-0.09622192,0.974472,1.0,-0.3058777,-0.09484863,0.9473267,-31.13168,2.650528,-27.12422,2.655273,0.5305791,0.5020773000000001,1.0,0.001556396,-0.09576416,0.9953918,34.94835,2.208984,-28.04274,3.465347,0.4227447,0.5105239,-0.2789042,1.25669,-0.2656668,-0.06583496,0.7374762,0.0199875,0.5000551,-1.658641,34.870239013107174
1,-0.2028198,-0.09622192,0.974472,1.0,-0.3058777,-0.09484863,0.9473267,-31.13168,2.650528,-27.12422,2.655273,0.5305791,0.5020773000000001,1.0,0.001556396,-0.09576416,0.9953918,34.94835,2.208984,-28.04274,3.465347,0.4227447,0.5105239,-0.2789042,1.25669,-0.2656668,-0.06583496,0.7374762,0.0199875,0.5000551,-1.658641,34.870239013107174
1,-0.2028198,-0.09622192,0.974472,1.0,-0.3058777,-0.09484863,0.9473267,-31.13168,2.650528,-27.12422,2.655273,0.5305791,0.5020773000000001,1.0,0.001556396,-0.09576416,0.9953918,34.94835,2.208984,-28.04274,3.465347,0.4227447,0.5105239,-0.2789042,1.25669,-0.2656668,-0.06583496,0.7374762,0.0199875,0.5000551,-1.658641,34.870239013107174
1,-0.2028198,-0.09622192,0.974472,1.0,-0.3058777,-0.09484863,0.9473267,-31.13168,2.650528,-27.12422,2.655273,0.5305791,0.5020773000000001,1.0,0.001556396,-0.09576416,0.9953918,34.94835,2.208984,-28.04274,3.465347,0.4227447,0.5105239,-0.2788496,1.256525,-0.2656560999999999,-0.06618451,0.7374556999999999,0.02009568,0.5000551,-1.658641,34.870239013107174
1,-0.2028198,-0.09622192,0.974472,1.0,-0.3058777,-0.09484863,0.9473267,-31.13168,2.650528,-27.12422,2.655273,0.5305791,0.5020773000000001,1.0,0.001556396,-0.09576416,0.9953918,34.94835,2.208984,-28.04274,3.465347,0.4227447,0.5105239,-0.2788496,1.256525,-0.2656560999999999,-0.06618451,0.7374556999999999,0.02009568,0.5000551,-1.658641,34.870239013107174
1,-0.2028198,-0.09622192,0.974472,1.0,-0.3058777,-0.09484863,0.9473267,-31.13168,2.650528,-27.12422,2.655273,0.5305791,0.5020773000000001,1.0,0.001556396,-0.09576416,0.9953918,34.94835,2.208984,-28.04274,3.465347,0.4227447,0.5105239,-0.2788496,1.256525,-0.2656560999999999,-0.06618451,0.7374556999999999,0.02009568,0.5000551,-1.658641,34.870239013107174
1,-0.1835022,-0.09594727,0.9783173,1.0,-0.3052063,-0.09396362,0.9476318,-31.13144,2.650589,-27.12395,2.6600490000000003,0.5304876999999999,0.5019653000000001,1.0,0.0007781982,-0.09609985,0.9953613,34.94835,2.209305,-28.04274,3.452927,0.4228489,0.5105515,-0.2788496,1.256525,-0.2656560999999999,-0.06618451,0.7374556999999999,0.02009568,0.5000551,39.57059,34.870239013107174
1,-0.1835022,-0.09594727,0.9783173,1.0,-0.3052063,-0.09396362,0.9476318,-31.13144,2.650589,-27.12395,2.6600490000000003,0.5304876999999999,0.5019653000000001,1.0,0.0007781982,-0.09609985,0.9953613,34.94835,2.209305,-28.04274,3.452927,0.4228489,0.5105515,-0.2788496,1.256525,-0.2656560999999999,-0.06618451,0.7374556999999999,0.02009568,0.5000551,39.57059,34.870239013107174
1,-0.1835022,-0.09594727,0.9783173,1.0,-0.3052063,-0.09396362,0.9476318,-31.13144,2.650589,-27.12395,2.6600490000000003,0.5304876999999999,0.5019653000000001,1.0,0.0007781982,-0.09609985,0.9953613,34.94835,2.209305,-28.04274,3.452927,0.4228489,0.5105515,-0.2788496,1.256525,-0.2656560999999999,-0.06618451,0.7374556999999999,0.02009568,0.5000551,39.57059,34.870239013107174
1,-0.3190155,-0.01295471,0.9476471,1.0,-0.3202972,-0.01312256,0.9472198,-31.09738,3.1023560000000003,-27.12544,2.582138,0.5312945,0.4769784000000001,1.0,0.0026092529999999,0.02748108,0.9996185,34.78195,2.666351,-28.49745,3.278778,0.4283891999999999,0.4841787999999999,-0.2788727,1.2564959999999998,-0.2657145999999999,-0.06599992,0.7376728,0.0197016,0.5000551,39.57059,34.870239013107174
1,-0.3190155,-0.01295471,0.9476471,1.0,-0.3202972,-0.01312256,0.9472198,-31.09738,3.1023560000000003,-27.12544,2.582138,0.5312945,0.4769784000000001,1.0,0.0026092529999999,0.02748108,0.9996185,34.78195,2.666351,-28.49745,3.278778,0.4283891999999999,0.4841787999999999,-0.2788727,1.2564959999999998,-0.2657145999999999,-0.06599992,0.7376728,0.0197016,0.5000551,39.57059,34.870239013107174
1,-0.3190155,-0.01295471,0.9476471,1.0,-0.3202972,-0.01312256,0.9472198,-31.09738,3.1023560000000003,-27.12544,2.582138,0.5312945,0.4769784000000001,1.0,0.0026092529999999,0.02748108,0.9996185,34.78195,2.666351,-28.49745,3.278778,0.4283891999999999,0.4841787999999999,-0.2788727,1.2564959999999998,-0.2657145999999999,-0.06599992,0.7376728,0.0197016,0.5000551,39.57059,34.870239013107174
1,-0.3125915999999999,0.008514404,0.9498444,1.0,-0.3164368,0.008270264,0.9485626,-31.09738,3.105469,-27.12952,2.756256,0.5308079000000001,0.4744364,1.0,0.0079803469999999,0.02726746,0.999588,34.78783,2.666351,-28.49696,3.278076,0.4275521,0.4841787999999999,-0.2789125,1.256428,-0.2658296,-0.06569889,0.7376831,0.01953392,0.5000551,39.57059,34.870239013107174
1,-0.3125915999999999,0.008514404,0.9498444,1.0,-0.3164368,0.008270264,0.9485626,-31.09738,3.105469,-27.12952,2.756256,0.5308079000000001,0.4744364,1.0,0.0079803469999999,0.02726746,0.999588,34.78783,2.666351,-28.49696,3.278076,0.4275521,0.4841787999999999,-0.2789125,1.256428,-0.2658296,-0.06569889,0.7376831,0.01953392,0.5000551,39.57059,34.870239013107174
1,-0.3125915999999999,0.008514404,0.9498444,1.0,-0.3164368,0.008270264,0.9485626,-31.09738,3.105469,-27.12952,2.756256,0.5308079000000001,0.4744364,1.0,0.0079803469999999,0.02726746,0.999588,34.78783,2.666351,-28.49696,3.278076,0.4275521,0.4841787999999999,-0.2789125,1.256428,-0.2658296,-0.06569889,0.7376831,0.01953392,0.5000551,39.57059,34.870239013107174
1,-0.1864777,0.01556396,0.9823303,1.0,-0.313446,0.005233765,0.949585,-31.10065,3.115128,-27.129490000000004,2.731583,0.5305484,0.4744364,1.0,0.006362915,0.03027344,0.9995117,34.799040000000005,2.656113,-28.41089,3.255951,0.427458,0.4834140999999999,-0.2789388,1.256384,-0.2657934,-0.06584021,0.7378766999999999,0.01977746,0.5000551,39.57059,35.39
1,-0.1864777,0.01556396,0.9823303,1.0,-0.313446,0.005233765,0.949585,-31.10065,3.115128,-27.129490000000004,2.731583,0.5305484,0.4744364,1.0,0.006362915,0.03027344,0.9995117,34.799040000000005,2.656113,-28.41089,3.255951,0.427458,0.4834140999999999,-0.2789388,1.256384,-0.2657934,-0.06584021,0.7378766999999999,0.01977746,0.5000551,39.57059,35.39
1,-0.1864777,0.01556396,0.9823303,1.0,-0.313446,0.005233765,0.949585,-31.10065,3.115128,-27.129490000000004,2.731583,0.5305484,0.4744364,1.0,0.006362915,0.03027344,0.9995117,34.799040000000005,2.656113,-28.41089,3.255951,0.427458,0.4834140999999999,-0.2789388,1.256384,-0.2657934,-0.06584021,0.7378766999999999,0.01977746,0.5000551,39.57059,35.39
1,-0.1453094,0.01832581,0.989212,1.0,-0.3113097999999999,0.003036499,0.9502869,-31.09828,3.116104,-27.12543,2.671509,0.5302047,0.4745725,1.0,0.01522827,0.03225708,0.9993591,34.82001,2.646515,-28.33356,3.258026,0.4257521999999999,0.4828235999999999,-0.2790495999999999,1.256468,-0.2658637,-0.06630401,0.7377902,0.02000334,0.5000551,39.57059,35.39
1,-0.1453094,0.01832581,0.989212,1.0,-0.3113097999999999,0.003036499,0.9502869,-31.09828,3.116104,-27.12543,2.671509,0.5302047,0.4745725,1.0,0.01522827,0.03225708,0.9993591,34.82001,2.646515,-28.33356,3.258026,0.4257521999999999,0.4828235999999999,-0.2790495999999999,1.256468,-0.2658637,-0.06630401,0.7377902,0.02000334,0.5000551,39.57059,35.39
1,-0.1453094,0.01832581,0.989212,1.0,-0.3113097999999999,0.003036499,0.9502869,-31.09828,3.116104,-27.12543,2.671509,0.5302047,0.4745725,1.0,0.01522827,0.03225708,0.9993591,34.82001,2.646515,-28.33356,3.258026,0.4257521999999999,0.4828235999999999,-0.2790495999999999,1.256468,-0.2658637,-0.06630401,0.7377902,0.02000334,0.5000551,39.57059,35.39
1,-0.1470947,0.01786804,0.9889526,1.0,-0.3027344,0.003799438,0.953064,-31.08401,3.1175080000000004,-27.12132,2.6688080000000003,0.5286546999999999,0.4743268,1.0,0.01985168,0.03211975,0.9992828,34.8604,2.640198,-28.28188,3.259323,0.423876,0.4825899999999999,-0.2791924,1.256555,-0.2659593,-0.06654271,0.7378123000000001,0.01997575,0.5000551,39.57059,35.39
1,-0.1470947,0.01786804,0.9889526,1.0,-0.3027344,0.003799438,0.953064,-31.08401,3.1175080000000004,-27.12132,2.6688080000000003,0.5286546999999999,0.4743268,1.0,0.01985168,0.03211975,0.9992828,34.8604,2.640198,-28.28188,3.259323,0.423876,0.4825899999999999,-0.2791924,1.256555,-0.2659593,-0.06654271,0.7378123000000001,0.01997575,0.5000551,39.57059,35.39
1,-0.1470947,0.01786804,0.9889526,1.0,-0.3027344,0.003799438,0.953064,-31.08401,3.1175080000000004,-27.12132,2.6688080000000003,0.5286546999999999,0.4743268,1.0,0.01985168,0.03211975,0.9992828,34.8604,2.640198,-28.28188,3.259323,0.423876,0.4825899999999999,-0.2791924,1.256555,-0.2659593,-0.06654271,0.7378123000000001,0.01997575,0.5000551,39.57059,35.39
1,-0.1425629,0.02012634,0.9895782,1.0,-0.2988892,0.00869751,0.9542389,-31.06924,3.118256,-27.12097,2.6459200000000003,0.5276818,0.4736440999999999,1.0,0.01733398,0.03102112,0.9993591,34.88109,2.639526,-28.26443,3.253738,0.4234967,0.4825899999999999,-0.2793242999999999,1.256683,-0.2660765999999999,-0.06692838,0.7378275,0.02008492,0.5000551,23.98903,35.39
1,-0.1425629,0.02012634,0.9895782,1.0,-0.2988892,0.00869751,0.9542389,-31.06924,3.118256,-27.12097,2.6459200000000003,0.5276818,0.4736440999999999,1.0,0.01733398,0.03102112,0.9993591,34.88109,2.639526,-28.26443,3.253738,0.4234967,0.4825899999999999,-0.2793242999999999,1.256683,-0.2660765999999999,-0.06692838,0.7378275,0.02008492,0.5000551,23.98903,35.39
1,-0.1425629,0.02012634,0.9895782,1.0,-0.2988892,0.00869751,0.9542389,-31.06924,3.118256,-27.12097,2.6459200000000003,0.5276818,0.4736440999999999,1.0,0.01733398,0.03102112,0.9993591,34.88109,2.639526,-28.26443,3.253738,0.4234967,0.4825899999999999,-0.2793242999999999,1.256683,-0.2660765999999999,-0.06692838,0.7378275,0.02008492,0.5000551,23.98903,35.39
1,-0.1247101,0.02296448,0.9919128,1.0,-0.2935333,0.01080322,0.9558868,-31.05371,3.121613,-27.11426,2.6455990000000003,0.5264907,0.4731838,1.0,0.02114868,0.03274536,0.9992371,34.91939,2.635239,-28.24454,3.24498,0.4217779,0.4823287999999999,-0.2796631,1.256683,-0.2662184999999999,-0.06745702,0.7380747,0.0204759999999999,0.5000551,23.98903,35.39
1,-0.1247101,0.02296448,0.9919128,1.0,-0.2935333,0.01080322,0.9558868,-31.05371,3.121613,-27.11426,2.6455990000000003,0.5264907,0.4731838,1.0,0.02114868,0.03274536,0.9992371,34.91939,2.635239,-28.24454,3.24498,0.4217779,0.4823287999999999,-0.2796631,1.256683,-0.2662184999999999,-0.06745702,0.7380747,0.0204759999999999,0.5000551,23.98903,35.39
1,-0.1247101,0.02296448,0.9919128,1.0,-0.2935333,0.01080322,0.9558868,-31.05371,3.121613,-27.11426,2.6455990000000003,0.5264907,0.4731838,1.0,0.02114868,0.03274536,0.9992371,34.91939,2.635239,-28.24454,3.24498,0.4217779,0.4823287999999999,-0.2796631,1.256683,-0.2662184999999999,-0.06745702,0.7380747,0.0204759999999999,0.5000551,23.98903,35.39
1,-0.116394,0.02505493,0.9928741,1.0,-0.292511,0.008529663,0.9562225,-31.048,3.120987,-27.10619,2.647095,0.5261663000000001,0.4734032999999999,1.0,0.02580261,0.03756714,0.9989471,34.93503,2.635239,-28.24454,3.246185,0.4207015999999999,0.4817393,-0.2797582,1.256841,-0.2664298,-0.06805899,0.7383225999999999,0.02074549,0.5000551,23.98903,35.39
1,-0.116394,0.02505493,0.9928741,1.0,-0.292511,0.008529663,0.9562225,-31.048,3.120987,-27.10619,2.647095,0.5261663000000001,0.4734032999999999,1.0,0.02580261,0.03756714,0.9989471,34.93503,2.635239,-28.24454,3.246185,0.4207015999999999,0.4817393,-0.2797582,1.256841,-0.2664298,-0.06805899,0.7383225999999999,0.02074549,0.5000551,23.98903,35.39
1,-0.116394,0.02505493,0.9928741,1.0,-0.292511,0.008529663,0.9562225,-31.048,3.120987,-27.10619,2.647095,0.5261663000000001,0.4734032999999999,1.0,0.02580261,0.03756714,0.9989471,34.93503,2.635239,-28.24454,3.246185,0.4207015999999999,0.4817393,-0.2797582,1.256841,-0.2664298,-0.06805899,0.7383225999999999,0.02074549,0.5000551,23.98903,35.39
1,-0.116394,0.02505493,0.9928741,1.0,-0.292511,0.008529663,0.9562225,-31.048,3.120987,-27.10619,2.647095,0.5261663000000001,0.4734032999999999,1.0,0.02580261,0.03756714,0.9989471,34.93503,2.635239,-28.24454,3.246185,0.4207015999999999,0.4817393,-0.2798419,1.256888,-0.2665864,-0.06831288,0.7385632,0.02083026,0.5000551,23.98903,35.39
1,-0.116394,0.02505493,0.9928741,1.0,-0.292511,0.008529663,0.9562225,-31.048,3.120987,-27.10619,2.647095,0.5261663000000001,0.4734032999999999,1.0,0.02580261,0.03756714,0.9989471,34.93503,2.635239,-28.24454,3.246185,0.4207015999999999,0.4817393,-0.2798419,1.256888,-0.2665864,-0.06831288,0.7385632,0.02083026,0.5000551,23.98903,35.39
1,-0.116394,0.02505493,0.9928741,1.0,-0.292511,0.008529663,0.9562225,-31.048,3.120987,-27.10619,2.647095,0.5261663000000001,0.4734032999999999,1.0,0.02580261,0.03756714,0.9989471,34.93503,2.635239,-28.24454,3.246185,0.4207015999999999,0.4817393,-0.2798419,1.256888,-0.2665864,-0.06831288,0.7385632,0.02083026,0.5000551,23.98903,35.39
1,-0.1042023,0.0247345,0.9942474,1.0,-0.2913513,0.008377075,0.9565735,-31.04793,3.120987,-27.10544,2.646347,0.5260196,0.4734032999999999,1.0,0.02484131,0.03530884,0.999054,34.93936,2.635239,-28.24454,3.242889,0.4206717,0.4820137,-0.2799199,1.256901,-0.2666977,-0.06856935,0.7387655,0.02088455,0.5000551,23.98903,35.39
1,-0.1042023,0.0247345,0.9942474,1.0,-0.2913513,0.008377075,0.9565735,-31.04793,3.120987,-27.10544,2.646347,0.5260196,0.4734032999999999,1.0,0.02484131,0.03530884,0.999054,34.93936,2.635239,-28.24454,3.242889,0.4206717,0.4820137,-0.2799199,1.256901,-0.2666977,-0.06856935,0.7387655,0.02088455,0.5000551,23.98903,35.39
1,-0.1042023,0.0247345,0.9942474,1.0,-0.2913513,0.008377075,0.9565735,-31.04793,3.120987,-27.10544,2.646347,0.5260196,0.4734032999999999,1.0,0.02484131,0.03530884,0.999054,34.93936,2.635239,-28.24454,3.242889,0.4206717,0.4820137,-0.2799199,1.256901,-0.2666977,-0.06856935,0.7387655,0.02088455,0.5000551,23.98903,35.39
1,-0.1042023,0.0247345,0.9942474,1.0,-0.2913513,0.008377075,0.9565735,-31.04793,3.120987,-27.10544,2.646347,0.5260196,0.4734032999999999,1.0,0.02484131,0.03530884,0.999054,34.93936,2.635239,-28.24454,3.242889,0.4206717,0.4820137,-0.2799532,1.256969,-0.2667725999999999,-0.06869587,0.7389929000000001,0.02092465,0.5000551,-29.50334,35.39
1,-0.1042023,0.0247345,0.9942474,1.0,-0.2913513,0.008377075,0.9565735,-31.04793,3.120987,-27.10544,2.646347,0.5260196,0.4734032999999999,1.0,0.02484131,0.03530884,0.999054,34.93936,2.635239,-28.24454,3.242889,0.4206717,0.4820137,-0.2799532,1.256969,-0.2667725999999999,-0.06869587,0.7389929000000001,0.02092465,0.5000551,-29.50334,35.39
1,-0.1042023,0.0247345,0.9942474,1.0,-0.2913513,0.008377075,0.9565735,-31.04793,3.120987,-27.10544,2.646347,0.5260196,0.4734032999999999,1.0,0.02484131,0.03530884,0.999054,34.93936,2.635239,-28.24454,3.242889,0.4206717,0.4820137,-0.2799532,1.256969,-0.2667725999999999,-0.06869587,0.7389929000000001,0.02092465,0.5000551,-29.50334,35.39
1,-0.09910583,0.02552795,0.9947357,1.0,-0.2858734,0.007995605,0.9582214,-31.04713,3.121048,-27.10469,2.645325,0.5253138,0.4734032999999999,1.0,0.02966309,0.03688049,0.9988708,34.9505,2.635239,-28.23549,3.245834,0.4197279,0.4817393,-0.2801526,1.25697,-0.2669399,-0.06885253,0.7391717,0.02106305,0.5000551,-29.50334,35.39
1,-0.09910583,0.02552795,0.9947357,1.0,-0.2858734,0.007995605,0.9582214,-31.04713,3.121048,-27.10469,2.645325,0.5253138,0.4734032999999999,1.0,0.02966309,0.03688049,0.9988708,34.9505,2.635239,-28.23549,3.245834,0.4197279,0.4817393,-0.2801526,1.25697,-0.2669399,-0.06885253,0.7391717,0.02106305,0.5000551,-29.50334,35.39
1,-0.09910583,0.02552795,0.9947357,1.0,-0.2858734,0.007995605,0.9582214,-31.04713,3.121048,-27.10469,2.645325,0.5253138,0.4734032999999999,1.0,0.02966309,0.03688049,0.9988708,34.9505,2.635239,-28.23549,3.245834,0.4197279,0.4817393,-0.2801526,1.25697,-0.2669399,-0.06885253,0.7391717,0.02106305,0.5000551,-29.50334,35.39
1,-0.2638244999999999,-0.02302551,0.9642944,1.0,-0.3442078,-0.02035522,0.9386597,-31.06921,2.94577,-27.13405,2.6469270000000003,0.533312,0.4834479999999999,1.0,-0.03424072,-0.0295105,0.9989624,34.73207,2.486725,-28.70293,3.331436,0.4341167999999999,0.4989687,-0.2803097,1.257068,-0.267032,-0.06951649,0.7390472,0.02104483,0.5000551,-29.50334,35.39
1,-0.2638244999999999,-0.02302551,0.9642944,1.0,-0.3442078,-0.02035522,0.9386597,-31.06921,2.94577,-27.13405,2.6469270000000003,0.533312,0.4834479999999999,1.0,-0.03424072,-0.0295105,0.9989624,34.73207,2.486725,-28.70293,3.331436,0.4341167999999999,0.4989687,-0.2803097,1.257068,-0.267032,-0.06951649,0.7390472,0.02104483,0.5000551,-29.50334,35.39
1,-0.2638244999999999,-0.02302551,0.9642944,1.0,-0.3442078,-0.02035522,0.9386597,-31.06921,2.94577,-27.13405,2.6469270000000003,0.533312,0.4834479999999999,1.0,-0.03424072,-0.0295105,0.9989624,34.73207,2.486725,-28.70293,3.331436,0.4341167999999999,0.4989687,-0.2803097,1.257068,-0.267032,-0.06951649,0.7390472,0.02104483,0.5000551,-29.50334,35.39
1,-0.2956696,-0.03741455,0.9545441,1.0,-0.3087616,-0.03771973,0.9503784,-31.10831,2.852478,-27.11543,2.772598,0.530163,0.4883225,1.0,-0.01686096,-0.02980042,0.9994049,34.88451,2.335098,-28.1909,3.272202,0.4273077999999999,0.4995623999999999,-0.2803097,1.257068,-0.267032,-0.06951649,0.7390472,0.02104483,0.5000551,-29.50334,35.39
1,-0.2956696,-0.03741455,0.9545441,1.0,-0.3087616,-0.03771973,0.9503784,-31.10831,2.852478,-27.11543,2.772598,0.530163,0.4883225,1.0,-0.01686096,-0.02980042,0.9994049,34.88451,2.335098,-28.1909,3.272202,0.4273077999999999,0.4995623999999999,-0.2803097,1.257068,-0.267032,-0.06951649,0.7390472,0.02104483,0.5000551,-29.50334,35.39
1,-0.2956696,-0.03741455,0.9545441,1.0,-0.3087616,-0.03771973,0.9503784,-31.10831,2.852478,-27.11543,2.772598,0.530163,0.4883225,1.0,-0.01686096,-0.02980042,0.9994049,34.88451,2.335098,-28.1909,3.272202,0.4273077999999999,0.4995623999999999,-0.2803097,1.257068,-0.267032,-0.06951649,0.7390472,0.02104483,0.5000551,-29.50334,35.39
1,-0.2430877999999999,-0.03572083,0.9693298,1.0,-0.3034972999999999,-0.03819275,0.9520569,-31.08986,2.8470310000000003,-27.11278,2.815445,0.5288841999999999,0.4885285,1.0,0.002502441,-0.02468872,0.9996796,34.95621,2.307571,-28.12621,3.336899,0.4225723,0.4992877999999999,-0.2804816,1.257243,-0.2672123,-0.07025293,0.7389595,0.02189793,0.5000551,-58.76894,35.39
1,-0.2430877999999999,-0.03572083,0.9693298,1.0,-0.3034972999999999,-0.03819275,0.9520569,-31.08986,2.8470310000000003,-27.11278,2.815445,0.5288841999999999,0.4885285,1.0,0.002502441,-0.02468872,0.9996796,34.95621,2.307571,-28.12621,3.336899,0.4225723,0.4992877999999999,-0.2804816,1.257243,-0.2672123,-0.07025293,0.7389595,0.02189793,0.5000551,-58.76894,35.39
1,-0.2430877999999999,-0.03572083,0.9693298,1.0,-0.3034972999999999,-0.03819275,0.9520569,-31.08986,2.8470310000000003,-27.11278,2.815445,0.5288841999999999,0.4885285,1.0,0.002502441,-0.02468872,0.9996796,34.95621,2.307571,-28.12621,3.336899,0.4225723,0.4992877999999999,-0.2804816,1.257243,-0.2672123,-0.07025293,0.7389595,0.02189793,0.5000551,-58.76894,35.39
1,-0.2430877999999999,-0.03572083,0.9693298,1.0,-0.3034972999999999,-0.03819275,0.9520569,-31.08986,2.8470310000000003,-27.11278,2.815445,0.5288841999999999,0.4885285,1.0,0.002502441,-0.02468872,0.9996796,34.95621,2.307571,-28.12621,3.336899,0.4225723,0.4992877999999999,-0.2805115999999999,1.2572290000000002,-0.2672923,-0.07067549,0.7390205,0.02107738,0.5000551,-58.76894,35.39
1,-0.2430877999999999,-0.03572083,0.9693298,1.0,-0.3034972999999999,-0.03819275,0.9520569,-31.08986,2.8470310000000003,-27.11278,2.815445,0.5288841999999999,0.4885285,1.0,0.002502441,-0.02468872,0.9996796,34.95621,2.307571,-28.12621,3.336899,0.4225723,0.4992877999999999,-0.2805115999999999,1.2572290000000002,-0.2672923,-0.07067549,0.7390205,0.02107738,0.5000551,-58.76894,35.39
1,-0.2430877999999999,-0.03572083,0.9693298,1.0,-0.3034972999999999,-0.03819275,0.9520569,-31.08986,2.8470310000000003,-27.11278,2.815445,0.5288841999999999,0.4885285,1.0,0.002502441,-0.02468872,0.9996796,34.95621,2.307571,-28.12621,3.336899,0.4225723,0.4992877999999999,-0.2805115999999999,1.2572290000000002,-0.2672923,-0.07067549,0.7390205,0.02107738,0.5000551,-58.76894,35.39
1,-0.2430877999999999,-0.03572083,0.9693298,1.0,-0.3034972999999999,-0.03819275,0.9520569,-31.08986,2.8470310000000003,-27.11278,2.815445,0.5288841999999999,0.4885285,1.0,0.002502441,-0.02468872,0.9996796,34.95621,2.307571,-28.12621,3.336899,0.4225723,0.4992877999999999,-0.280519,1.257293,-0.2674059,-0.07061712,0.7392637,0.02091254,0.5000551,-58.76894,35.39
1,-0.2430877999999999,-0.03572083,0.9693298,1.0,-0.3034972999999999,-0.03819275,0.9520569,-31.08986,2.8470310000000003,-27.11278,2.815445,0.5288841999999999,0.4885285,1.0,0.002502441,-0.02468872,0.9996796,34.95621,2.307571,-28.12621,3.336899,0.4225723,0.4992877999999999,-0.280519,1.257293,-0.2674059,-0.07061712,0.7392637,0.02091254,0.5000551,-58.76894,35.39
1,-0.2430877999999999,-0.03572083,0.9693298,1.0,-0.3034972999999999,-0.03819275,0.9520569,-31.08986,2.8470310000000003,-27.11278,2.815445,0.5288841999999999,0.4885285,1.0,0.002502441,-0.02468872,0.9996796,34.95621,2.307571,-28.12621,3.336899,0.4225723,0.4992877999999999,-0.280519,1.257293,-0.2674059,-0.07061712,0.7392637,0.02091254,0.5000551,-58.76894,35.39
2,-0.2550201,-0.03674316,0.9662323,1.0,-0.2711334,-0.03695679,0.9618225,-30.85437,2.7683720000000003,-27.04659,2.794327,0.5169055,0.4901475999999999,1.0,0.04562378,-0.03123474,0.9984589,35.117340000000006,2.37468,-28.41121,3.506668,0.4116162,0.5002395000000001,-0.2804868,1.257341,-0.2674009,-0.07030354,0.7392845,0.02153028,0.5000551,-58.76894,35.39
2,-0.2550201,-0.03674316,0.9662323,1.0,-0.2711334,-0.03695679,0.9618225,-30.85437,2.7683720000000003,-27.04659,2.794327,0.5169055,0.4901475999999999,1.0,0.04562378,-0.03123474,0.9984589,35.117340000000006,2.37468,-28.41121,3.506668,0.4116162,0.5002395000000001,-0.2804868,1.257341,-0.2674009,-0.07030354,0.7392845,0.02153028,0.5000551,-58.76894,35.39
2,-0.2550201,-0.03674316,0.9662323,1.0,-0.2711334,-0.03695679,0.9618225,-30.85437,2.7683720000000003,-27.04659,2.794327,0.5169055,0.4901475999999999,1.0,0.04562378,-0.03123474,0.9984589,35.117340000000006,2.37468,-28.41121,3.506668,0.4116162,0.5002395000000001,-0.2804868,1.257341,-0.2674009,-0.07030354,0.7392845,0.02153028,0.5000551,-58.76894,35.39
2,-0.2530975,-0.03935242,0.966629,1.0,-0.2697295999999999,-0.03926086,0.9621277,-30.82701,2.7683720000000003,-27.0428,2.819794,0.5158085,0.4904035,1.0,0.05476379,-0.03894043,0.9977264,35.19189,2.263138,-27.87041,3.586502,0.4083875,0.5003032999999999,-0.2805958,1.257287,-0.2674924,-0.07063617,0.7393093000000001,0.02156485,0.5000551,-58.76894,35.39
2,-0.2530975,-0.03935242,0.966629,1.0,-0.2697295999999999,-0.03926086,0.9621277,-30.82701,2.7683720000000003,-27.0428,2.819794,0.5158085,0.4904035,1.0,0.05476379,-0.03894043,0.9977264,35.19189,2.263138,-27.87041,3.586502,0.4083875,0.5003032999999999,-0.2805958,1.257287,-0.2674924,-0.07063617,0.7393093000000001,0.02156485,0.5000551,-58.76894,35.39
2,-0.2530975,-0.03935242,0.966629,1.0,-0.2697295999999999,-0.03926086,0.9621277,-30.82701,2.7683720000000003,-27.0428,2.819794,0.5158085,0.4904035,1.0,0.05476379,-0.03894043,0.9977264,35.19189,2.263138,-27.87041,3.586502,0.4083875,0.5003032999999999,-0.2805958,1.257287,-0.2674924,-0.07063617,0.7393093000000001,0.02156485,0.5000551,-58.76894,35.39
2,-0.2628021,-0.03030396,0.9643707,1.0,-0.2644043,-0.03024292,0.9639282,-30.73006,2.769806,-26.98256,2.872467,0.5118704000000001,0.4887308,1.0,0.05722046,-0.04107666,0.9975128,35.2242,2.1930240000000003,-27.57607,3.553497,0.4072897,0.5003565999999999,-0.2805612,1.257326,-0.2674599,-0.07090273,0.739262,0.02146651,0.5000551,46.35554,35.39
2,-0.2628021,-0.03030396,0.9643707,1.0,-0.2644043,-0.03024292,0.9639282,-30.73006,2.769806,-26.98256,2.872467,0.5118704000000001,0.4887308,1.0,0.05722046,-0.04107666,0.9975128,35.2242,2.1930240000000003,-27.57607,3.553497,0.4072897,0.5003565999999999,-0.2805612,1.257326,-0.2674599,-0.07090273,0.739262,0.02146651,0.5000551,46.35554,35.39
2,-0.2628021,-0.03030396,0.9643707,1.0,-0.2644043,-0.03024292,0.9639282,-30.73006,2.769806,-26.98256,2.872467,0.5118704000000001,0.4887308,1.0,0.05722046,-0.04107666,0.9975128,35.2242,2.1930240000000003,-27.57607,3.553497,0.4072897,0.5003565999999999,-0.2805612,1.257326,-0.2674599,-0.07090273,0.739262,0.02146651,0.5000551,46.35554,35.39
2,-0.2374725,-0.04650879,0.9702759,1.0,-0.2600708,-0.04821777,0.9643707,-30.715,2.796494,-26.94087,2.818878,0.5108114,0.4895748,1.0,0.07316589,-0.02160645,0.9970703000000002,35.26443,2.1550290000000003,-27.40472,3.697617,0.4041039,0.497954,-0.2807024,1.2573530000000002,-0.26749,-0.07094853,0.7389616,0.02158626,0.5000551,46.35554,35.39
2,-0.2374725,-0.04650879,0.9702759,1.0,-0.2600708,-0.04821777,0.9643707,-30.715,2.796494,-26.94087,2.818878,0.5108114,0.4895748,1.0,0.07316589,-0.02160645,0.9970703000000002,35.26443,2.1550290000000003,-27.40472,3.697617,0.4041039,0.497954,-0.2807024,1.2573530000000002,-0.26749,-0.07094853,0.7389616,0.02158626,0.5000551,46.35554,35.39
2,-0.2374725,-0.04650879,0.9702759,1.0,-0.2600708,-0.04821777,0.9643707,-30.715,2.796494,-26.94087,2.818878,0.5108114,0.4895748,1.0,0.07316589,-0.02160645,0.9970703000000002,35.26443,2.1550290000000003,-27.40472,3.697617,0.4041039,0.497954,-0.2807024,1.2573530000000002,-0.26749,-0.07094853,0.7389616,0.02158626,0.5000551,46.35554,35.39
2,-0.1941071,-0.0443573,0.9799652,1.0,-0.2560119999999999,-0.04544067,0.9655914,-30.70767,2.796494,-26.9389,2.818634,0.5100672,0.4891974,1.0,0.07298279,-0.03785706,0.9966125,35.28065,2.17067,-27.43347,3.606033,0.4036210999999999,0.4995148,-0.2809355,1.257497,-0.2674821,-0.07118778,0.7388638000000001,0.02187495,0.5000551,46.35554,35.39
2,-0.1941071,-0.0443573,0.9799652,1.0,-0.2560119999999999,-0.04544067,0.9655914,-30.70767,2.796494,-26.9389,2.818634,0.5100672,0.4891974,1.0,0.07298279,-0.03785706,0.9966125,35.28065,2.17067,-27.43347,3.606033,0.4036210999999999,0.4995148,-0.2809355,1.257497,-0.2674821,-0.07118778,0.7388638000000001,0.02187495,0.5000551,46.35554,35.39
2,-0.1941071,-0.0443573,0.9799652,1.0,-0.2560119999999999,-0.04544067,0.9655914,-30.70767,2.796494,-26.9389,2.818634,0.5100672,0.4891974,1.0,0.07298279,-0.03785706,0.9966125,35.28065,2.17067,-27.43347,3.606033,0.4036210999999999,0.4995148,-0.2809355,1.257497,-0.2674821,-0.07118778,0.7388638000000001,0.02187495,0.5000551,46.35554,35.39
2,-0.1941071,-0.0443573,0.9799652,1.0,-0.2560119999999999,-0.04544067,0.9655914,-30.70767,2.796494,-26.9389,2.818634,0.5100672,0.4891974,1.0,0.07298279,-0.03785706,0.9966125,35.28065,2.17067,-27.43347,3.606033,0.4036210999999999,0.4995148,-0.2809355,1.257497,-0.2674821,-0.07118778,0.7388638000000001,0.02187495,0.5000551,46.35554,35.39
2,-0.1941071,-0.0443573,0.9799652,1.0,-0.2560119999999999,-0.04544067,0.9655914,-30.70767,2.796494,-26.9389,2.818634,0.5100672,0.4891974,1.0,0.07298279,-0.03785706,0.9966125,35.28065,2.17067,-27.43347,3.606033,0.4036210999999999,0.4995148,-0.2809355,1.257497,-0.2674821,-0.07118778,0.7388638000000001,0.02187495,0.5000551,46.35554,35.39
2,-0.1941071,-0.0443573,0.9799652,1.0,-0.2560119999999999,-0.04544067,0.9655914,-30.70767,2.796494,-26.9389,2.818634,0.5100672,0.4891974,1.0,0.07298279,-0.03785706,0.9966125,35.28065,2.17067,-27.43347,3.606033,0.4036210999999999,0.4995148,-0.2809355,1.257497,-0.2674821,-0.07118778,0.7388638000000001,0.02187495,0.5000551,46.35554,35.39
2,-0.1740265,-0.04832458,0.983551,1.0,-0.2559813999999999,-0.04774475,0.9654846,-30.70541,2.799744,-26.9388,2.839478,0.5099891,0.4893861,1.0,0.06932068,-0.04806519,0.9964294,35.29347,2.16571,-27.39543,3.557053,0.4036868,0.5005224,-0.2810745,1.257508,-0.267406,-0.07162496,0.7389455,0.02218005,0.5000551,46.35554,35.39
2,-0.1740265,-0.04832458,0.983551,1.0,-0.2559813999999999,-0.04774475,0.9654846,-30.70541,2.799744,-26.9388,2.839478,0.5099891,0.4893861,1.0,0.06932068,-0.04806519,0.9964294,35.29347,2.16571,-27.39543,3.557053,0.4036868,0.5005224,-0.2810745,1.257508,-0.267406,-0.07162496,0.7389455,0.02218005,0.5000551,46.35554,35.39
2,-0.1740265,-0.04832458,0.983551,1.0,-0.2559813999999999,-0.04774475,0.9654846,-30.70541,2.799744,-26.9388,2.839478,0.5099891,0.4893861,1.0,0.06932068,-0.04806519,0.9964294,35.29347,2.16571,-27.39543,3.557053,0.4036868,0.5005224,-0.2810745,1.257508,-0.267406,-0.07162496,0.7389455,0.02218005,0.5000551,46.35554,35.39
2,-0.1740265,-0.04832458,0.983551,1.0,-0.2559813999999999,-0.04774475,0.9654846,-30.70541,2.799744,-26.9388,2.839478,0.5099891,0.4893861,1.0,0.06932068,-0.04806519,0.9964294,35.29347,2.16571,-27.39543,3.557053,0.4036868,0.5005224,-0.2813809,1.257643,-0.2676489999999999,-0.07239588,0.7392689,0.02264709,0.5000551,46.35554,35.39
2,-0.1740265,-0.04832458,0.983551,1.0,-0.2559813999999999,-0.04774475,0.9654846,-30.70541,2.799744,-26.9388,2.839478,0.5099891,0.4893861,1.0,0.06932068,-0.04806519,0.9964294,35.29347,2.16571,-27.39543,3.557053,0.4036868,0.5005224,-0.2813809,1.257643,-0.2676489999999999,-0.07239588,0.7392689,0.02264709,0.5000551,46.35554,35.39
2,-0.1740265,-0.04832458,0.983551,1.0,-0.2559813999999999,-0.04774475,0.9654846,-30.70541,2.799744,-26.9388,2.839478,0.5099891,0.4893861,1.0,0.06932068,-0.04806519,0.9964294,35.29347,2.16571,-27.39543,3.557053,0.4036868,0.5005224,-0.2813809,1.257643,-0.2676489999999999,-0.07239588,0.7392689,0.02264709,0.5000551,46.35554,35.39
2,-0.1389465,-0.04244995,0.9893799,1.0,-0.2559509,-0.04644775,0.9655609,-30.70314,2.80101,-26.93869,2.861038,0.5099109000000001,0.4891974,1.0,0.08732605,-0.03323364,0.9956207,35.30186,2.173233,-27.42073,3.546097,0.4012904,0.4986989,-0.2813809,1.257643,-0.2676489999999999,-0.07239588,0.7392689,0.02264709,0.5000551,18.73784,35.39
2,-0.1389465,-0.04244995,0.9893799,1.0,-0.2559509,-0.04644775,0.9655609,-30.70314,2.80101,-26.93869,2.861038,0.5099109000000001,0.4891974,1.0,0.08732605,-0.03323364,0.9956207,35.30186,2.173233,-27.42073,3.546097,0.4012904,0.4986989,-0.2813809,1.257643,-0.2676489999999999,-0.07239588,0.7392689,0.02264709,0.5000551,18.73784,35.39
2,-0.1389465,-0.04244995,0.9893799,1.0,-0.2559509,-0.04644775,0.9655609,-30.70314,2.80101,-26.93869,2.861038,0.5099109000000001,0.4891974,1.0,0.08732605,-0.03323364,0.9956207,35.30186,2.173233,-27.42073,3.546097,0.4012904,0.4986989,-0.2813809,1.257643,-0.2676489999999999,-0.07239588,0.7392689,0.02264709,0.5000551,18.73784,35.39
2,-0.1389465,-0.04244995,0.9893799,1.0,-0.2559509,-0.04644775,0.9655609,-30.70314,2.80101,-26.93869,2.861038,0.5099109000000001,0.4891974,1.0,0.08732605,-0.03323364,0.9956207,35.30186,2.173233,-27.42073,3.546097,0.4012904,0.4986989,-0.2814655,1.2577200000000002,-0.2677217,-0.07297559,0.7396020000000001,0.02238451,0.5000551,18.73784,35.39
2,-0.1389465,-0.04244995,0.9893799,1.0,-0.2559509,-0.04644775,0.9655609,-30.70314,2.80101,-26.93869,2.861038,0.5099109000000001,0.4891974,1.0,0.08732605,-0.03323364,0.9956207,35.30186,2.173233,-27.42073,3.546097,0.4012904,0.4986989,-0.2814655,1.2577200000000002,-0.2677217,-0.07297559,0.7396020000000001,0.02238451,0.5000551,18.73784,35.39
2,-0.1389465,-0.04244995,0.9893799,1.0,-0.2559509,-0.04644775,0.9655609,-30.70314,2.80101,-26.93869,2.861038,0.5099109000000001,0.4891974,1.0,0.08732605,-0.03323364,0.9956207,35.30186,2.173233,-27.42073,3.546097,0.4012904,0.4986989,-0.2814655,1.2577200000000002,-0.2677217,-0.07297559,0.7396020000000001,0.02238451,0.5000551,18.73784,35.39
2,0.08685303,-0.0499115,0.9949646,1.0,-0.199646,-0.04844666,0.9786682,-30.53522,2.593201,-26.25293,2.907043,0.4971920999999999,0.4902005,1.0,0.1043549,-0.04986572,0.9932861,35.52551,2.082733,-27.09969,3.502121,0.3920934,0.5008332,-0.2815046,1.257769,-0.2679352,-0.07331402,0.7396133,0.02257921,0.5026177,18.73784,35.39
2,0.08685303,-0.0499115,0.9949646,1.0,-0.199646,-0.04844666,0.9786682,-30.53522,2.593201,-26.25293,2.907043,0.4971920999999999,0.4902005,1.0,0.1043549,-0.04986572,0.9932861,35.52551,2.082733,-27.09969,3.502121,0.3920934,0.5008332,-0.2815046,1.257769,-0.2679352,-0.07331402,0.7396133,0.02257921,0.5026177,18.73784,35.39
2,0.08685303,-0.0499115,0.9949646,1.0,-0.199646,-0.04844666,0.9786682,-30.53522,2.593201,-26.25293,2.907043,0.4971920999999999,0.4902005,1.0,0.1043549,-0.04986572,0.9932861,35.52551,2.082733,-27.09969,3.502121,0.3920934,0.5008332,-0.2815046,1.257769,-0.2679352,-0.07331402,0.7396133,0.02257921,0.5026177,18.73784,35.39
2,0.08685303,-0.0499115,0.9949646,1.0,-0.199646,-0.04844666,0.9786682,-30.53522,2.593201,-26.25293,2.907043,0.4971920999999999,0.4902005,1.0,0.1043549,-0.04986572,0.9932861,35.52551,2.082733,-27.09969,3.502121,0.3920934,0.5008332,-0.2814844,1.257755,-0.2679197,-0.07341928,0.7398015,0.02245264,0.5026177,18.73784,35.39
2,0.08685303,-0.0499115,0.9949646,1.0,-0.199646,-0.04844666,0.9786682,-30.53522,2.593201,-26.25293,2.907043,0.4971920999999999,0.4902005,1.0,0.1043549,-0.04986572,0.9932861,35.52551,2.082733,-27.09969,3.502121,0.3920934,0.5008332,-0.2814844,1.257755,-0.2679197,-0.07341928,0.7398015,0.02245264,0.5026177,18.73784,35.39
2,0.08685303,-0.0499115,0.9949646,1.0,-0.199646,-0.04844666,0.9786682,-30.53522,2.593201,-26.25293,2.907043,0.4971920999999999,0.4902005,1.0,0.1043549,-0.04986572,0.9932861,35.52551,2.082733,-27.09969,3.502121,0.3920934,0.5008332,-0.2814844,1.257755,-0.2679197,-0.07341928,0.7398015,0.02245264,0.5026177,18.73784,35.39
2,0.08685303,-0.0499115,0.9949646,1.0,-0.199646,-0.04844666,0.9786682,-30.53522,2.593201,-26.25293,2.907043,0.4971920999999999,0.4902005,1.0,0.1043549,-0.04986572,0.9932861,35.52551,2.082733,-27.09969,3.502121,0.3920934,0.5008332,-0.2813969,1.257881,-0.267842,-0.07317522,0.7398303,0.02249541,0.5026177,19.68404,35.39
2,0.08685303,-0.0499115,0.9949646,1.0,-0.199646,-0.04844666,0.9786682,-30.53522,2.593201,-26.25293,2.907043,0.4971920999999999,0.4902005,1.0,0.1043549,-0.04986572,0.9932861,35.52551,2.082733,-27.09969,3.502121,0.3920934,0.5008332,-0.2813969,1.257881,-0.267842,-0.07317522,0.7398303,0.02249541,0.5026177,19.68404,35.39
2,0.08685303,-0.0499115,0.9949646,1.0,-0.199646,-0.04844666,0.9786682,-30.53522,2.593201,-26.25293,2.907043,0.4971920999999999,0.4902005,1.0,0.1043549,-0.04986572,0.9932861,35.52551,2.082733,-27.09969,3.502121,0.3920934,0.5008332,-0.2813969,1.257881,-0.267842,-0.07317522,0.7398303,0.02249541,0.5026177,19.68404,35.39
2,0.1200714,-0.03147888,0.9922638,1.0,-0.1954193,-0.04788208,0.979538,-30.52696,2.5809330000000004,-26.22418,2.890305,0.496392,0.4902572,1.0,0.1237488,-0.03126526,0.991806,35.53079,2.102539,-27.16,3.611542,0.3895034,0.4985748,-0.2815106,1.257855,-0.2679154,-0.07306635,0.739813,0.02253925,0.5026177,-21.15434,35.39
2,0.1200714,-0.03147888,0.9922638,1.0,-0.1954193,-0.04788208,0.979538,-30.52696,2.5809330000000004,-26.22418,2.890305,0.496392,0.4902572,1.0,0.1237488,-0.03126526,0.991806,35.53079,2.102539,-27.16,3.611542,0.3895034,0.4985748,-0.2815106,1.257855,-0.2679154,-0.07306635,0.739813,0.02253925,0.5026177,-21.15434,35.39
2,0.1200714,-0.03147888,0.9922638,1.0,-0.1954193,-0.04788208,0.979538,-30.52696,2.5809330000000004,-26.22418,2.890305,0.496392,0.4902572,1.0,0.1237488,-0.03126526,0.991806,35.53079,2.102539,-27.16,3.611542,0.3895034,0.4985748,-0.2815106,1.257855,-0.2679154,-0.07306635,0.739813,0.02253925,0.5026177,-21.15434,35.39
2,0.1191559,-0.03779602,0.9921417,1.0,-0.1939087,-0.04864502,0.9797974,-30.52406,2.581818,-26.22441,2.889725,0.4961121,0.4903139,1.0,0.1266174,-0.03749084,0.9912261999999998,35.5343,2.099228,-27.14575,3.5970150000000003,0.3890648,0.499275,-0.2814027999999999,1.257802,-0.2679,-0.07324295,0.7395510000000001,0.02243057,0.5026177,-21.15434,35.39
2,0.1191559,-0.03779602,0.9921417,1.0,-0.1939087,-0.04864502,0.9797974,-30.52406,2.581818,-26.22441,2.889725,0.4961121,0.4903139,1.0,0.1266174,-0.03749084,0.9912261999999998,35.5343,2.099228,-27.14575,3.5970150000000003,0.3890648,0.499275,-0.2814027999999999,1.257802,-0.2679,-0.07324295,0.7395510000000001,0.02243057,0.5026177,-21.15434,35.39
2,0.1191559,-0.03779602,0.9921417,1.0,-0.1939087,-0.04864502,0.9797974,-30.52406,2.581818,-26.22441,2.889725,0.4961121,0.4903139,1.0,0.1266174,-0.03749084,0.9912261999999998,35.5343,2.099228,-27.14575,3.5970150000000003,0.3890648,0.499275,-0.2814027999999999,1.257802,-0.2679,-0.07324295,0.7395510000000001,0.02243057,0.5026177,-21.15434,35.39
2,0.1191559,-0.03779602,0.9921417,1.0,-0.1939087,-0.04864502,0.9797974,-30.52406,2.581818,-26.22441,2.889725,0.4961121,0.4903139,1.0,0.1266174,-0.03749084,0.9912261999999998,35.5343,2.099228,-27.14575,3.5970150000000003,0.3890648,0.499275,-0.281256,1.257693,-0.267787,-0.07285,0.7392426999999999,0.02213583,0.5026177,-21.15434,35.39
2,0.1191559,-0.03779602,0.9921417,1.0,-0.1939087,-0.04864502,0.9797974,-30.52406,2.581818,-26.22441,2.889725,0.4961121,0.4903139,1.0,0.1266174,-0.03749084,0.9912261999999998,35.5343,2.099228,-27.14575,3.5970150000000003,0.3890648,0.499275,-0.281256,1.257693,-0.267787,-0.07285,0.7392426999999999,0.02213583,0.5026177,-21.15434,35.39
2,0.1191559,-0.03779602,0.9921417,1.0,-0.1939087,-0.04864502,0.9797974,-30.52406,2.581818,-26.22441,2.889725,0.4961121,0.4903139,1.0,0.1266174,-0.03749084,0.9912261999999998,35.5343,2.099228,-27.14575,3.5970150000000003,0.3890648,0.499275,-0.281256,1.257693,-0.267787,-0.07285,0.7392426999999999,0.02213583,0.5026177,-21.15434,35.39
2,0.1191559,-0.03779602,0.9921417,1.0,-0.1939087,-0.04864502,0.9797974,-30.52406,2.581818,-26.22441,2.889725,0.4961121,0.4903139,1.0,0.1266174,-0.03749084,0.9912261999999998,35.5343,2.099228,-27.14575,3.5970150000000003,0.3890648,0.499275,-0.2811913,1.257693,-0.2677850999999999,-0.07259633,0.7390926,0.02243671,0.5026177,-21.15434,35.39
2,0.1191559,-0.03779602,0.9921417,1.0,-0.1939087,-0.04864502,0.9797974,-30.52406,2.581818,-26.22441,2.889725,0.4961121,0.4903139,1.0,0.1266174,-0.03749084,0.9912261999999998,35.5343,2.099228,-27.14575,3.5970150000000003,0.3890648,0.499275,-0.2811913,1.257693,-0.2677850999999999,-0.07259633,0.7390926,0.02243671,0.5026177,-21.15434,35.39
2,0.1191559,-0.03779602,0.9921417,1.0,-0.1939087,-0.04864502,0.9797974,-30.52406,2.581818,-26.22441,2.889725,0.4961121,0.4903139,1.0,0.1266174,-0.03749084,0.9912261999999998,35.5343,2.099228,-27.14575,3.5970150000000003,0.3890648,0.499275,-0.2811913,1.257693,-0.2677850999999999,-0.07259633,0.7390926,0.02243671,0.5026177,-21.15434,35.39
2,-0.108551,-0.0506897,0.9927826,1.0,-0.1748657,-0.04776001,0.983429,-30.417690000000004,2.657913,-26.69281,2.885178,0.4903575,0.4915585999999999,1.0,0.1630402,-0.06011963,0.9847717,35.65668,1.928207,-26.35202,3.632523,0.3814347,0.5009203,-0.2809629,1.257627,-0.2678406,-0.07289662,0.7390456999999999,0.02180826,0.5026177,-40.08263,35.39
2,-0.108551,-0.0506897,0.9927826,1.0,-0.1748657,-0.04776001,0.983429,-30.417690000000004,2.657913,-26.69281,2.885178,0.4903575,0.4915585999999999,1.0,0.1630402,-0.06011963,0.9847717,35.65668,1.928207,-26.35202,3.632523,0.3814347,0.5009203,-0.2809629,1.257627,-0.2678406,-0.07289662,0.7390456999999999,0.02180826,0.5026177,-40.08263,35.39
2,-0.108551,-0.0506897,0.9927826,1.0,-0.1748657,-0.04776001,0.983429,-30.417690000000004,2.657913,-26.69281,2.885178,0.4903575,0.4915585999999999,1.0,0.1630402,-0.06011963,0.9847717,35.65668,1.928207,-26.35202,3.632523,0.3814347,0.5009203,-0.2809629,1.257627,-0.2678406,-0.07289662,0.7390456999999999,0.02180826,0.5026177,-40.08263,35.39
2,-0.1422577,-0.07441711,0.9870148,1.0,-0.1603088,-0.07397461,0.9842834,-30.37178,2.6917880000000003,-26.95219,2.833572,0.4870752,0.4957165,1.0,0.1869202,-0.07795715,0.9792633,35.72252,1.872116,-26.30316,3.559769,0.3764672,0.5044127,-0.2811103,1.257471,-0.2678636,-0.07249353,0.7392859,0.02113051,0.5026177,-40.08263,35.39
2,-0.1422577,-0.07441711,0.9870148,1.0,-0.1603088,-0.07397461,0.9842834,-30.37178,2.6917880000000003,-26.95219,2.833572,0.4870752,0.4957165,1.0,0.1869202,-0.07795715,0.9792633,35.72252,1.872116,-26.30316,3.559769,0.3764672,0.5044127,-0.2811103,1.257471,-0.2678636,-0.07249353,0.7392859,0.02113051,0.5026177,-40.08263,35.39
2,-0.1422577,-0.07441711,0.9870148,1.0,-0.1603088,-0.07397461,0.9842834,-30.37178,2.6917880000000003,-26.95219,2.833572,0.4870752,0.4957165,1.0,0.1869202,-0.07795715,0.9792633,35.72252,1.872116,-26.30316,3.559769,0.3764672,0.5044127,-0.2811103,1.257471,-0.2678636,-0.07249353,0.7392859,0.02113051,0.5026177,-40.08263,35.39
2,0.1497345,-0.08555603,0.9850159,1.0,-0.1540222,-0.07330322,0.9853363000000002,-30.37575,2.706116,-27.0262,2.948532,0.486509,0.4958532999999999,1.0,0.1976166,-0.08679199,0.9764252,35.72527,1.874756,-26.4055,3.5431980000000003,0.3749761,0.5062505,-0.2811847,1.257362,-0.2678915,-0.07190464,0.7394725000000001,0.0214998,0.5026177,-40.08263,35.39
2,0.1497345,-0.08555603,0.9850159,1.0,-0.1540222,-0.07330322,0.9853363000000002,-30.37575,2.706116,-27.0262,2.948532,0.486509,0.4958532999999999,1.0,0.1976166,-0.08679199,0.9764252,35.72527,1.874756,-26.4055,3.5431980000000003,0.3749761,0.5062505,-0.2811847,1.257362,-0.2678915,-0.07190464,0.7394725000000001,0.0214998,0.5026177,-40.08263,35.39
2,0.1497345,-0.08555603,0.9850159,1.0,-0.1540222,-0.07330322,0.9853363000000002,-30.37575,2.706116,-27.0262,2.948532,0.486509,0.4958532999999999,1.0,0.1976166,-0.08679199,0.9764252,35.72527,1.874756,-26.4055,3.5431980000000003,0.3749761,0.5062505,-0.2811847,1.257362,-0.2678915,-0.07190464,0.7394725000000001,0.0214998,0.5026177,-40.08263,35.39
2,0.2038116,-0.1018982,0.9736786,1.0,-0.1348114,-0.0891571,0.9868469,-30.34818,2.756042,-27.561770000000003,2.828094,0.4832827999999999,0.5005947000000001,1.0,0.2046051,-0.1019135,0.9735107,35.7691,1.82431,-26.47464,3.580521,0.37253,0.5103413,-0.2811715999999999,1.257364,-0.2678905,-0.07213101,0.7393793000000001,0.02129086,0.5026177,-40.08263,35.39
2,0.2038116,-0.1018982,0.9736786,1.0,-0.1348114,-0.0891571,0.9868469,-30.34818,2.756042,-27.561770000000003,2.828094,0.4832827999999999,0.5005947000000001,1.0,0.2046051,-0.1019135,0.9735107,35.7691,1.82431,-26.47464,3.580521,0.37253,0.5103413,-0.2811715999999999,1.257364,-0.2678905,-0.07213101,0.7393793000000001,0.02129086,0.5026177,-40.08263,35.39
2,0.2038116,-0.1018982,0.9736786,1.0,-0.1348114,-0.0891571,0.9868469,-30.34818,2.756042,-27.561770000000003,2.828094,0.4832827999999999,0.5005947000000001,1.0,0.2046051,-0.1019135,0.9735107,35.7691,1.82431,-26.47464,3.580521,0.37253,0.5103413,-0.2811715999999999,1.257364,-0.2678905,-0.07213101,0.7393793000000001,0.02129086,0.5026177,-40.08263,35.39
2,0.2038116,-0.1018982,0.9736786,1.0,-0.1348114,-0.0891571,0.9868469,-30.34818,2.756042,-27.561770000000003,2.828094,0.4832827999999999,0.5005947000000001,1.0,0.2046051,-0.1019135,0.9735107,35.7691,1.82431,-26.47464,3.580521,0.37253,0.5103413,-0.2811258,1.257313,-0.2678517,-0.07180666,0.7389854,0.02119933,0.5026177,36.78963,35.39
2,0.2038116,-0.1018982,0.9736786,1.0,-0.1348114,-0.0891571,0.9868469,-30.34818,2.756042,-27.561770000000003,2.828094,0.4832827999999999,0.5005947000000001,1.0,0.2046051,-0.1019135,0.9735107,35.7691,1.82431,-26.47464,3.580521,0.37253,0.5103413,-0.2811258,1.257313,-0.2678517,-0.07180666,0.7389854,0.02119933,0.5026177,36.78963,35.39
2,0.2038116,-0.1018982,0.9736786,1.0,-0.1348114,-0.0891571,0.9868469,-30.34818,2.756042,-27.561770000000003,2.828094,0.4832827999999999,0.5005947000000001,1.0,0.2046051,-0.1019135,0.9735107,35.7691,1.82431,-26.47464,3.580521,0.37253,0.5103413,-0.2811258,1.257313,-0.2678517,-0.07180666,0.7389854,0.02119933,0.5026177,36.78963,35.39
2,0.2039032,-0.09561157,0.9743042,1.0,-0.1378326,-0.09547424,0.9858398000000002,-30.34378,2.745422,-27.55675,2.8341830000000003,0.4834981,0.5016848,1.0,0.2041931,-0.09561157,0.9742432,35.76907,1.82431,-26.5247,3.580399,0.37253,0.5100147,-0.281287,1.257311,-0.2677197,-0.07147631,0.7383227,0.02103084,0.5026177,36.78963,35.39
2,0.2039032,-0.09561157,0.9743042,1.0,-0.1378326,-0.09547424,0.9858398000000002,-30.34378,2.745422,-27.55675,2.8341830000000003,0.4834981,0.5016848,1.0,0.2041931,-0.09561157,0.9742432,35.76907,1.82431,-26.5247,3.580399,0.37253,0.5100147,-0.281287,1.257311,-0.2677197,-0.07147631,0.7383227,0.02103084,0.5026177,36.78963,35.39
2,0.2039032,-0.09561157,0.9743042,1.0,-0.1378326,-0.09547424,0.9858398000000002,-30.34378,2.745422,-27.55675,2.8341830000000003,0.4834981,0.5016848,1.0,0.2041931,-0.09561157,0.9742432,35.76907,1.82431,-26.5247,3.580399,0.37253,0.5100147,-0.281287,1.257311,-0.2677197,-0.07147631,0.7383227,0.02103084,0.5026177,36.78963,35.39
2,0.1885071,-0.1027068999999999,0.9766693,1.0,-0.1320647999999999,-0.1046753,0.9856873,-30.32318,2.716629,-27.6488,2.819626,0.4820956,0.5045639000000001,1.0,0.200119,-0.1024323,0.9743958,35.78433,1.809586,-26.651090000000003,3.520142,0.3723702,0.5123452000000001,-0.281287,1.257311,-0.2677197,-0.07147631,0.7383227,0.02103084,0.5026177,36.78963,35.39
2,0.1885071,-0.1027068999999999,0.9766693,1.0,-0.1320647999999999,-0.1046753,0.9856873,-30.32318,2.716629,-27.6488,2.819626,0.4820956,0.5045639000000001,1.0,0.200119,-0.1024323,0.9743958,35.78433,1.809586,-26.651090000000003,3.520142,0.3723702,0.5123452000000001,-0.281287,1.257311,-0.2677197,-0.07147631,0.7383227,0.02103084,0.5026177,36.78963,35.39
2,0.1885071,-0.1027068999999999,0.9766693,1.0,-0.1320647999999999,-0.1046753,0.9856873,-30.32318,2.716629,-27.6488,2.819626,0.4820956,0.5045639000000001,1.0,0.200119,-0.1024323,0.9743958,35.78433,1.809586,-26.651090000000003,3.520142,0.3723702,0.5123452000000001,-0.281287,1.257311,-0.2677197,-0.07147631,0.7383227,0.02103084,0.5026177,36.78963,35.39
2,0.02502441,-0.1013031,0.9945374,1.0,-0.1362457,-0.1009674,0.9855042,-30.3253,2.68898,-27.61028,2.821625,0.4826665,0.5047217,1.0,0.20784,-0.09844971,0.9731903,35.783970000000004,1.8005220000000002,-26.65067,3.623276,0.3714044,0.51225,-0.281383,1.2572299999999998,-0.267727,-0.07167742,0.7382808000000001,0.02127178,0.5026177,36.78963,35.39
2,0.02502441,-0.1013031,0.9945374,1.0,-0.1362457,-0.1009674,0.9855042,-30.3253,2.68898,-27.61028,2.821625,0.4826665,0.5047217,1.0,0.20784,-0.09844971,0.9731903,35.783970000000004,1.8005220000000002,-26.65067,3.623276,0.3714044,0.51225,-0.281383,1.2572299999999998,-0.267727,-0.07167742,0.7382808000000001,0.02127178,0.5026177,36.78963,35.39
2,0.02502441,-0.1013031,0.9945374,1.0,-0.1362457,-0.1009674,0.9855042,-30.3253,2.68898,-27.61028,2.821625,0.4826665,0.5047217,1.0,0.20784,-0.09844971,0.9731903,35.783970000000004,1.8005220000000002,-26.65067,3.623276,0.3714044,0.51225,-0.281383,1.2572299999999998,-0.267727,-0.07167742,0.7382808000000001,0.02127178,0.5026177,36.78963,35.39
2,0.02502441,-0.1013031,0.9945374,1.0,-0.1362457,-0.1009674,0.9855042,-30.3253,2.68898,-27.61028,2.821625,0.4826665,0.5047217,1.0,0.20784,-0.09844971,0.9731903,35.783970000000004,1.8005220000000002,-26.65067,3.623276,0.3714044,0.51225,-0.2814415,1.2572299999999998,-0.2678209,-0.07168064,0.7385506,0.02106589,0.5026177,36.78963,35.39
2,0.02502441,-0.1013031,0.9945374,1.0,-0.1362457,-0.1009674,0.9855042,-30.3253,2.68898,-27.61028,2.821625,0.4826665,0.5047217,1.0,0.20784,-0.09844971,0.9731903,35.783970000000004,1.8005220000000002,-26.65067,3.623276,0.3714044,0.51225,-0.2814415,1.2572299999999998,-0.2678209,-0.07168064,0.7385506,0.02106589,0.5026177,36.78963,35.39
2,0.02502441,-0.1013031,0.9945374,1.0,-0.1362457,-0.1009674,0.9855042,-30.3253,2.68898,-27.61028,2.821625,0.4826665,0.5047217,1.0,0.20784,-0.09844971,0.9731903,35.783970000000004,1.8005220000000002,-26.65067,3.623276,0.3714044,0.51225,-0.2814415,1.2572299999999998,-0.2678209,-0.07168064,0.7385506,0.02106589,0.5026177,36.78963,35.39
2,-0.02958679,-0.1208191,0.992218,0.9839149,-0.1304016,-0.1135864,0.9849243,-30.314120000000003,2.6567540000000003,-27.66655,2.747604,0.4815371,0.5077823,0.9954052,0.1959686,-0.1324158,0.9716187,35.80035,1.673935,-26.40208,3.390625,0.3726006,0.518227,-0.2814808,1.257254,-0.2679351,-0.07172626,0.7388170000000001,0.02110511,0.5026177,36.78963,35.39
2,-0.02958679,-0.1208191,0.992218,0.9839149,-0.1304016,-0.1135864,0.9849243,-30.314120000000003,2.6567540000000003,-27.66655,2.747604,0.4815371,0.5077823,0.9954052,0.1959686,-0.1324158,0.9716187,35.80035,1.673935,-26.40208,3.390625,0.3726006,0.518227,-0.2814808,1.257254,-0.2679351,-0.07172626,0.7388170000000001,0.02110511,0.5026177,36.78963,35.39
2,-0.02958679,-0.1208191,0.992218,0.9839149,-0.1304016,-0.1135864,0.9849243,-30.314120000000003,2.6567540000000003,-27.66655,2.747604,0.4815371,0.5077823,0.9954052,0.1959686,-0.1324158,0.9716187,35.80035,1.673935,-26.40208,3.390625,0.3726006,0.518227,-0.2814808,1.257254,-0.2679351,-0.07172626,0.7388170000000001,0.02110511,0.5026177,36.78963,35.39
2,-0.09399414,-0.1120453,0.9892426,0.9799314,-0.1303864,-0.109024,0.9854431,-30.31175,2.659409,-27.68385,2.755966,0.4814623999999999,0.5072890999999999,0.9858392,0.1958007999999999,-0.1304625999999999,0.9719238,35.81165,1.638672,-26.29366,3.3955839999999995,0.3723632,0.518227,-0.2813935,1.257292,-0.2681105,-0.07160753,0.7391679,0.02121075,0.5026177,13.40863,35.39
2,-0.09399414,-0.1120453,0.9892426,0.9799314,-0.1303864,-0.109024,0.9854431,-30.31175,2.659409,-27.68385,2.755966,0.4814623999999999,0.5072890999999999,0.9858392,0.1958007999999999,-0.1304625999999999,0.9719238,35.81165,1.638672,-26.29366,3.3955839999999995,0.3723632,0.518227,-0.2813935,1.257292,-0.2681105,-0.07160753,0.7391679,0.02121075,0.5026177,13.40863,35.39
2,-0.09399414,-0.1120453,0.9892426,0.9799314,-0.1303864,-0.109024,0.9854431,-30.31175,2.659409,-27.68385,2.755966,0.4814623999999999,0.5072890999999999,0.9858392,0.1958007999999999,-0.1304625999999999,0.9719238,35.81165,1.638672,-26.29366,3.3955839999999995,0.3723632,0.518227,-0.2813935,1.257292,-0.2681105,-0.07160753,0.7391679,0.02121075,0.5026177,13.40863,35.39
3,0.00831604,-0.1186218,0.9928894,0.9769769,-0.1274719,-0.1098785,0.985733,-30.29997,2.656189,-27.75163,2.716446,0.4806973,0.5080607,0.9973261,0.1990204,-0.1271667,0.9716949,35.8407,1.612183,-26.23747,3.3976589999999995,0.3710733,0.5182277,-0.2813454,1.257427,-0.2681867,-0.07216266,0.7394193,0.02111146,0.5026177,13.40863,35.39
3,0.00831604,-0.1186218,0.9928894,0.9769769,-0.1274719,-0.1098785,0.985733,-30.29997,2.656189,-27.75163,2.716446,0.4806973,0.5080607,0.9973261,0.1990204,-0.1271667,0.9716949,35.8407,1.612183,-26.23747,3.3976589999999995,0.3710733,0.5182277,-0.2813454,1.257427,-0.2681867,-0.07216266,0.7394193,0.02111146,0.5026177,13.40863,35.39
3,0.00831604,-0.1186218,0.9928894,0.9769769,-0.1274719,-0.1098785,0.985733,-30.29997,2.656189,-27.75163,2.716446,0.4806973,0.5080607,0.9973261,0.1990204,-0.1271667,0.9716949,35.8407,1.612183,-26.23747,3.3976589999999995,0.3710733,0.5182277,-0.2813454,1.257427,-0.2681867,-0.07216266,0.7394193,0.02111146,0.5026177,13.40863,35.39
3,0.09022522,-0.1299286,0.9873962,0.9399514,-0.1205291999999999,-0.1213073999999999,0.98526,-30.29457,2.659958,-27.76309,2.66893,0.4796385,0.5093994000000001,0.9812028,0.1975861,-0.1321259,0.9713287,35.85326,1.585449,-26.24391,3.361481,0.3708202,0.5197361,-0.2813310999999999,1.257393,-0.2681974,-0.07222861,0.739395,0.0208833,0.5026177,13.40863,35.39
3,0.09022522,-0.1299286,0.9873962,0.9399514,-0.1205291999999999,-0.1213073999999999,0.98526,-30.29457,2.659958,-27.76309,2.66893,0.4796385,0.5093994000000001,0.9812028,0.1975861,-0.1321259,0.9713287,35.85326,1.585449,-26.24391,3.361481,0.3708202,0.5197361,-0.2813310999999999,1.257393,-0.2681974,-0.07222861,0.739395,0.0208833,0.5026177,13.40863,35.39
3,0.09022522,-0.1299286,0.9873962,0.9399514,-0.1205291999999999,-0.1213073999999999,0.98526,-30.29457,2.659958,-27.76309,2.66893,0.4796385,0.5093994000000001,0.9812028,0.1975861,-0.1321259,0.9713287,35.85326,1.585449,-26.24391,3.361481,0.3708202,0.5197361,-0.2813310999999999,1.257393,-0.2681974,-0.07222861,0.739395,0.0208833,0.5026177,13.40863,35.39
3,0.1074219,-0.1470795,0.9832611,0.9332587,-0.121994,-0.1333466,0.9835205,-30.27066,2.659027,-27.85857,2.606873,0.4789782999999999,0.5117301999999999,0.978791,0.2008362,-0.1504974,0.9679871,35.85841,1.5792389999999998,-26.29663,3.314423,0.3701785999999999,0.5226009,-0.2811849,1.2572,-0.2682349,-0.0716704,0.7393866,0.02055771,0.5026177,-34.98251,35.39
3,0.1074219,-0.1470795,0.9832611,0.9332587,-0.121994,-0.1333466,0.9835205,-30.27066,2.659027,-27.85857,2.606873,0.4789782999999999,0.5117301999999999,0.978791,0.2008362,-0.1504974,0.9679871,35.85841,1.5792389999999998,-26.29663,3.314423,0.3701785999999999,0.5226009,-0.2811849,1.2572,-0.2682349,-0.0716704,0.7393866,0.02055771,0.5026177,-34.98251,35.39
3,0.1074219,-0.1470795,0.9832611,0.9332587,-0.121994,-0.1333466,0.9835205,-30.27066,2.659027,-27.85857,2.606873,0.4789782999999999,0.5117301999999999,0.978791,0.2008362,-0.1504974,0.9679871,35.85841,1.5792389999999998,-26.29663,3.314423,0.3701785999999999,0.5226009,-0.2811849,1.2572,-0.2682349,-0.0716704,0.7393866,0.02055771,0.5026177,-34.98251,35.39
3,0.08374023,-0.145752,0.9857635,0.9191309,-0.1191559,-0.1353912,0.9835968,-30.26938,2.659027,-27.86046,2.60289,0.4785845999999999,0.511991,0.9772226,0.2012023999999999,-0.1490326,0.9681396,35.85841,1.579071,-26.321690000000004,3.2951050000000004,0.3701160999999999,0.5226350000000001,-0.2811619999999999,1.257146,-0.2681693,-0.07140341,0.7393474,0.02048564,0.5026177,-34.98251,35.39
3,0.08374023,-0.145752,0.9857635,0.9191309,-0.1191559,-0.1353912,0.9835968,-30.26938,2.659027,-27.86046,2.60289,0.4785845999999999,0.511991,0.9772226,0.2012023999999999,-0.1490326,0.9681396,35.85841,1.579071,-26.321690000000004,3.2951050000000004,0.3701160999999999,0.5226350000000001,-0.2811619999999999,1.257146,-0.2681693,-0.07140341,0.7393474,0.02048564,0.5026177,-34.98251,35.39
3,0.08374023,-0.145752,0.9857635,0.9191309,-0.1191559,-0.1353912,0.9835968,-30.26938,2.659027,-27.86046,2.60289,0.4785845999999999,0.511991,0.9772226,0.2012023999999999,-0.1490326,0.9681396,35.85841,1.579071,-26.321690000000004,3.2951050000000004,0.3701160999999999,0.5226350000000001,-0.2811619999999999,1.257146,-0.2681693,-0.07140341,0.7393474,0.02048564,0.5026177,-34.98251,35.39
3,0.08374023,-0.145752,0.9857635,0.9191309,-0.1191559,-0.1353912,0.9835968,-30.26938,2.659027,-27.86046,2.60289,0.4785845999999999,0.511991,0.9772226,0.2012023999999999,-0.1490326,0.9681396,35.85841,1.579071,-26.321690000000004,3.2951050000000004,0.3701160999999999,0.5226350000000001,-0.2810643,1.257098,-0.2681149,-0.07115076,0.7391270000000001,0.02049255,0.5026177,-34.98251,35.39
3,0.08374023,-0.145752,0.9857635,0.9191309,-0.1191559,-0.1353912,0.9835968,-30.26938,2.659027,-27.86046,2.60289,0.4785845999999999,0.511991,0.9772226,0.2012023999999999,-0.1490326,0.9681396,35.85841,1.579071,-26.321690000000004,3.2951050000000004,0.3701160999999999,0.5226350000000001,-0.2810643,1.257098,-0.2681149,-0.07115076,0.7391270000000001,0.02049255,0.5026177,-34.98251,35.39
3,0.08374023,-0.145752,0.9857635,0.9191309,-0.1191559,-0.1353912,0.9835968,-30.26938,2.659027,-27.86046,2.60289,0.4785845999999999,0.511991,0.9772226,0.2012023999999999,-0.1490326,0.9681396,35.85841,1.579071,-26.321690000000004,3.2951050000000004,0.3701160999999999,0.5226350000000001,-0.2810643,1.257098,-0.2681149,-0.07115076,0.7391270000000001,0.02049255,0.5026177,-34.98251,35.39
3,0.1544952,-0.1716002999999999,0.9729614,0.9230530999999998,-0.1161956999999999,-0.1740265,0.9778442,-30.26285,2.510376,-27.60358,2.472656,0.4778548999999999,0.5195191,0.990476,0.2066956,-0.169632,0.9635773,35.88403,1.527145,-26.3371,3.1379240000000004,0.3685972,0.5269308000000001,-0.2808869,1.257024,-0.2680511,-0.07124547,0.7389469,0.02029857,0.5026177,-34.98251,35.39
3,0.1544952,-0.1716002999999999,0.9729614,0.9230530999999998,-0.1161956999999999,-0.1740265,0.9778442,-30.26285,2.510376,-27.60358,2.472656,0.4778548999999999,0.5195191,0.990476,0.2066956,-0.169632,0.9635773,35.88403,1.527145,-26.3371,3.1379240000000004,0.3685972,0.5269308000000001,-0.2808869,1.257024,-0.2680511,-0.07124547,0.7389469,0.02029857,0.5026177,-34.98251,35.39
3,0.1544952,-0.1716002999999999,0.9729614,0.9230530999999998,-0.1161956999999999,-0.1740265,0.9778442,-30.26285,2.510376,-27.60358,2.472656,0.4778548999999999,0.5195191,0.990476,0.2066956,-0.169632,0.9635773,35.88403,1.527145,-26.3371,3.1379240000000004,0.3685972,0.5269308000000001,-0.2808869,1.257024,-0.2680511,-0.07124547,0.7389469,0.02029857,0.5026177,-34.98251,35.39
3,0.1752319,-0.171814,0.9694061,0.8954638,-0.112442,-0.1512451,0.9820709,-30.26619,2.505371,-27.59129,2.510925,0.4775367999999999,0.516722,0.9757031,0.197113,-0.1728058,0.9650269,35.88174,1.527298,-26.39066,3.197739,0.3697255,0.5277915,-0.2807441,1.257018,-0.2680667,-0.07105798,0.7389458999999999,0.02004761,0.5026177,-34.98251,35.39
3,0.1752319,-0.171814,0.9694061,0.8954638,-0.112442,-0.1512451,0.9820709,-30.26619,2.505371,-27.59129,2.510925,0.4775367999999999,0.516722,0.9757031,0.197113,-0.1728058,0.9650269,35.88174,1.527298,-26.39066,3.197739,0.3697255,0.5277915,-0.2807441,1.257018,-0.2680667,-0.07105798,0.7389458999999999,0.02004761,0.5026177,-34.98251,35.39
3,0.1752319,-0.171814,0.9694061,0.8954638,-0.112442,-0.1512451,0.9820709,-30.26619,2.505371,-27.59129,2.510925,0.4775367999999999,0.516722,0.9757031,0.197113,-0.1728058,0.9650269,35.88174,1.527298,-26.39066,3.197739,0.3697255,0.5277915,-0.2807441,1.257018,-0.2680667,-0.07105798,0.7389458999999999,0.02004761,0.5026177,-34.98251,35.39
3,0.08772278,-0.1710358,0.9813385,0.8991431000000001,-0.1120453,-0.1538391,0.98172,-30.266890000000004,2.509979,-27.63196,2.531296,0.4775268,0.5172532999999999,0.9841494,0.2025757,-0.1779022,0.9629669,35.87433,1.527298,-26.39175,3.180374,0.3693081,0.5284274,-0.2806845,1.256953,-0.2681676,-0.07090352,0.7389988000000001,0.02009494,0.5026177,-3.381722,35.39
3,0.08772278,-0.1710358,0.9813385,0.8991431000000001,-0.1120453,-0.1538391,0.98172,-30.266890000000004,2.509979,-27.63196,2.531296,0.4775268,0.5172532999999999,0.9841494,0.2025757,-0.1779022,0.9629669,35.87433,1.527298,-26.39175,3.180374,0.3693081,0.5284274,-0.2806845,1.256953,-0.2681676,-0.07090352,0.7389988000000001,0.02009494,0.5026177,-3.381722,35.39
3,0.08772278,-0.1710358,0.9813385,0.8991431000000001,-0.1120453,-0.1538391,0.98172,-30.266890000000004,2.509979,-27.63196,2.531296,0.4775268,0.5172532999999999,0.9841494,0.2025757,-0.1779022,0.9629669,35.87433,1.527298,-26.39175,3.180374,0.3693081,0.5284274,-0.2806845,1.256953,-0.2681676,-0.07090352,0.7389988000000001,0.02009494,0.5026177,-3.381722,35.39
3,0.09315491,-0.1749115,0.9801636,0.9044527,-0.1084136999999999,-0.1632537999999999,0.9805908,-30.26552,2.504761,-27.59398,2.491699,0.4770034999999999,0.5182585999999999,0.9802421,0.2022705,-0.1782684,0.9629517,35.87314,1.526108,-26.39052,3.185501,0.3693821,0.5285025,-0.2805567,1.256947,-0.2682024,-0.07056177,0.7390344,0.02049019,0.5026177,-3.381722,35.39
3,0.09315491,-0.1749115,0.9801636,0.9044527,-0.1084136999999999,-0.1632537999999999,0.9805908,-30.26552,2.504761,-27.59398,2.491699,0.4770034999999999,0.5182585999999999,0.9802421,0.2022705,-0.1782684,0.9629517,35.87314,1.526108,-26.39052,3.185501,0.3693821,0.5285025,-0.2805567,1.256947,-0.2682024,-0.07056177,0.7390344,0.02049019,0.5026177,-3.381722,35.39
3,0.09315491,-0.1749115,0.9801636,0.9044527,-0.1084136999999999,-0.1632537999999999,0.9805908,-30.26552,2.504761,-27.59398,2.491699,0.4770034999999999,0.5182585999999999,0.9802421,0.2022705,-0.1782684,0.9629517,35.87314,1.526108,-26.39052,3.185501,0.3693821,0.5285025,-0.2805567,1.256947,-0.2682024,-0.07056177,0.7390344,0.02049019,0.5026177,-3.381722,35.39
3,0.07278442,-0.1885071,0.9793701,0.9010449,-0.09986877,-0.2049561,0.9736481,-30.25771,2.47644,-27.53789,2.46347,0.4756412999999999,0.5239537000000001,0.9534288,0.1984253,-0.17276,0.9647522,35.87173,1.511566,-26.37364,3.259979,0.3698817,0.5281863,-0.2803557,1.256776,-0.2682098,-0.07123376,0.73928,0.01898458,0.5026177,-3.381722,35.39
3,0.07278442,-0.1885071,0.9793701,0.9010449,-0.09986877,-0.2049561,0.9736481,-30.25771,2.47644,-27.53789,2.46347,0.4756412999999999,0.5239537000000001,0.9534288,0.1984253,-0.17276,0.9647522,35.87173,1.511566,-26.37364,3.259979,0.3698817,0.5281863,-0.2803557,1.256776,-0.2682098,-0.07123376,0.73928,0.01898458,0.5026177,-3.381722,35.39
3,0.07278442,-0.1885071,0.9793701,0.9010449,-0.09986877,-0.2049561,0.9736481,-30.25771,2.47644,-27.53789,2.46347,0.4756412999999999,0.5239537000000001,0.9534288,0.1984253,-0.17276,0.9647522,35.87173,1.511566,-26.37364,3.259979,0.3698817,0.5281863,-0.2803557,1.256776,-0.2682098,-0.07123376,0.73928,0.01898458,0.5026177,-3.381722,35.39
3,0.1199036,-0.1898956,0.9744415,0.8820608,-0.09968567,-0.2010193,0.9744873,-30.25771,2.4228970000000003,-27.47005,2.3361970000000003,0.475527,0.5246204000000001,0.9653686,0.200882,-0.1833496,0.9622955,35.87253,1.507034,-26.36876,3.290314,0.3695202,0.5296225,-0.2802589,1.2567700000000002,-0.2683163,-0.07082041,0.7394794,0.01898478,0.5026177,-3.381722,35.39
3,0.1199036,-0.1898956,0.9744415,0.8820608,-0.09968567,-0.2010193,0.9744873,-30.25771,2.4228970000000003,-27.47005,2.3361970000000003,0.475527,0.5246204000000001,0.9653686,0.200882,-0.1833496,0.9622955,35.87253,1.507034,-26.36876,3.290314,0.3695202,0.5296225,-0.2802589,1.2567700000000002,-0.2683163,-0.07082041,0.7394794,0.01898478,0.5026177,-3.381722,35.39
3,0.1199036,-0.1898956,0.9744415,0.8820608,-0.09968567,-0.2010193,0.9744873,-30.25771,2.4228970000000003,-27.47005,2.3361970000000003,0.475527,0.5246204000000001,0.9653686,0.200882,-0.1833496,0.9622955,35.87253,1.507034,-26.36876,3.290314,0.3695202,0.5296225,-0.2802589,1.2567700000000002,-0.2683163,-0.07082041,0.7394794,0.01898478,0.5026177,-3.381722,35.39
3,0.1365509,-0.1887054,0.9724884,0.8769843,-0.09745789,-0.2079619999999999,0.9732666,-30.25771,2.384918,-27.4128,2.329834,0.4752327999999999,0.5262727,0.9640653,0.20047,-0.1814728,0.962738,35.87468,1.49115,-26.3598,3.2694400000000003,0.3695202,0.5298267,-0.2803354,1.256674,-0.2684739,-0.07026909,0.7397093000000001,0.01944619,0.5026177,31.22828,35.39
3,0.1365509,-0.1887054,0.9724884,0.8769843,-0.09745789,-0.2079619999999999,0.9732666,-30.25771,2.384918,-27.4128,2.329834,0.4752327999999999,0.5262727,0.9640653,0.20047,-0.1814728,0.962738,35.87468,1.49115,-26.3598,3.2694400000000003,0.3695202,0.5298267,-0.2803354,1.256674,-0.2684739,-0.07026909,0.7397093000000001,0.01944619,0.5026177,31.22828,35.39
3,0.1365509,-0.1887054,0.9724884,0.8769843,-0.09745789,-0.2079619999999999,0.9732666,-30.25771,2.384918,-27.4128,2.329834,0.4752327999999999,0.5262727,0.9640653,0.20047,-0.1814728,0.962738,35.87468,1.49115,-26.3598,3.2694400000000003,0.3695202,0.5298267,-0.2803354,1.256674,-0.2684739,-0.07026909,0.7397093000000001,0.01944619,0.5026177,31.22828,35.39
3,0.1348572,-0.2067413,0.9690399,0.8825508,-0.09100342,-0.225708,0.9699249,-30.27229,2.366028,-27.29552,2.3253630000000003,0.4749058,0.5281273,0.9462066,0.1988068,-0.199295,0.959549,35.88029,1.48613,-26.34897,3.231598,0.3695202,0.5320709,-0.2804408,1.256713,-0.2683143,-0.07032479,0.7397366999999999,0.01916076,0.5026177,31.22828,35.35
3,0.1348572,-0.2067413,0.9690399,0.8825508,-0.09100342,-0.225708,0.9699249,-30.27229,2.366028,-27.29552,2.3253630000000003,0.4749058,0.5281273,0.9462066,0.1988068,-0.199295,0.959549,35.88029,1.48613,-26.34897,3.231598,0.3695202,0.5320709,-0.2804408,1.256713,-0.2683143,-0.07032479,0.7397366999999999,0.01916076,0.5026177,31.22828,35.35
3,0.1348572,-0.2067413,0.9690399,0.8825508,-0.09100342,-0.225708,0.9699249,-30.27229,2.366028,-27.29552,2.3253630000000003,0.4749058,0.5281273,0.9462066,0.1988068,-0.199295,0.959549,35.88029,1.48613,-26.34897,3.231598,0.3695202,0.5320709,-0.2804408,1.256713,-0.2683143,-0.07032479,0.7397366999999999,0.01916076,0.5026177,31.22828,35.35
3,0.1096191,-0.2087554999999999,0.9718018,0.8723134,-0.0844574,-0.2261353,0.9704132,-30.27229,2.366028,-27.29552,2.3250580000000003,0.474101,0.5281656,0.9469564,0.1999817,-0.1977692,0.9596252,35.88881,1.482208,-26.34819,3.203705,0.369113,0.5320007,-0.2806035999999999,1.256675,-0.2681713,-0.07025335,0.7393564,0.01920194,0.5026177,31.22828,35.35
3,0.1096191,-0.2087554999999999,0.9718018,0.8723134,-0.0844574,-0.2261353,0.9704132,-30.27229,2.366028,-27.29552,2.3250580000000003,0.474101,0.5281656,0.9469564,0.1999817,-0.1977692,0.9596252,35.88881,1.482208,-26.34819,3.203705,0.369113,0.5320007,-0.2806035999999999,1.256675,-0.2681713,-0.07025335,0.7393564,0.01920194,0.5026177,31.22828,35.35
3,0.1096191,-0.2087554999999999,0.9718018,0.8723134,-0.0844574,-0.2261353,0.9704132,-30.27229,2.366028,-27.29552,2.3250580000000003,0.474101,0.5281656,0.9469564,0.1999817,-0.1977692,0.9596252,35.88881,1.482208,-26.34819,3.203705,0.369113,0.5320007,-0.2806035999999999,1.256675,-0.2681713,-0.07025335,0.7393564,0.01920194,0.5026177,31.22828,35.35
3,0.07955933,-0.2113953,0.9741516,0.8789549999999999,-0.08561707,-0.2247009,0.9706421,-30.26535,2.378326,-27.3423,2.333252,0.4740204,0.527992,0.9483362,0.2033691,-0.1974487,0.9589691,35.88881,1.481537,-26.34988,3.2041630000000003,0.3687024,0.5320007,-0.2807245,1.25668,-0.2681438,-0.07012507,0.7387954999999999,0.01896318,0.5026177,31.22828,35.35
3,0.07955933,-0.2113953,0.9741516,0.8789549999999999,-0.08561707,-0.2247009,0.9706421,-30.26535,2.378326,-27.3423,2.333252,0.4740204,0.527992,0.9483362,0.2033691,-0.1974487,0.9589691,35.88881,1.481537,-26.34988,3.2041630000000003,0.3687024,0.5320007,-0.2807245,1.25668,-0.2681438,-0.07012507,0.7387954999999999,0.01896318,0.5026177,31.22828,35.35
3,0.07955933,-0.2113953,0.9741516,0.8789549999999999,-0.08561707,-0.2247009,0.9706421,-30.26535,2.378326,-27.3423,2.333252,0.4740204,0.527992,0.9483362,0.2033691,-0.1974487,0.9589691,35.88881,1.481537,-26.34988,3.2041630000000003,0.3687024,0.5320007,-0.2807245,1.25668,-0.2681438,-0.07012507,0.7387954999999999,0.01896318,0.5026177,31.22828,35.35
3,0.07955933,-0.2113953,0.9741516,0.8789549999999999,-0.08561707,-0.2247009,0.9706421,-30.26535,2.378326,-27.3423,2.333252,0.4740204,0.527992,0.9483362,0.2033691,-0.1974487,0.9589691,35.88881,1.481537,-26.34988,3.2041630000000003,0.3687024,0.5320007,-0.2808521,1.256667,-0.2681423,-0.07006624,0.7385718000000001,0.01899518,0.5026177,31.22828,35.35
3,0.07955933,-0.2113953,0.9741516,0.8789549999999999,-0.08561707,-0.2247009,0.9706421,-30.26535,2.378326,-27.3423,2.333252,0.4740204,0.527992,0.9483362,0.2033691,-0.1974487,0.9589691,35.88881,1.481537,-26.34988,3.2041630000000003,0.3687024,0.5320007,-0.2808521,1.256667,-0.2681423,-0.07006624,0.7385718000000001,0.01899518,0.5026177,31.22828,35.35
3,0.07955933,-0.2113953,0.9741516,0.8789549999999999,-0.08561707,-0.2247009,0.9706421,-30.26535,2.378326,-27.3423,2.333252,0.4740204,0.527992,0.9483362,0.2033691,-0.1974487,0.9589691,35.88881,1.481537,-26.34988,3.2041630000000003,0.3687024,0.5320007,-0.2808521,1.256667,-0.2681423,-0.07006624,0.7385718000000001,0.01899518,0.5026177,31.22828,35.35
3,0.07955933,-0.2113953,0.9741516,0.8789549999999999,-0.08561707,-0.2247009,0.9706421,-30.26535,2.378326,-27.3423,2.333252,0.4740204,0.527992,0.9483362,0.2033691,-0.1974487,0.9589691,35.88881,1.481537,-26.34988,3.2041630000000003,0.3687024,0.5320007,-0.2809045,1.256732,-0.2681474,-0.0700481,0.7386439,0.01938902,0.5026177,31.22828,35.35
3,0.07955933,-0.2113953,0.9741516,0.8789549999999999,-0.08561707,-0.2247009,0.9706421,-30.26535,2.378326,-27.3423,2.333252,0.4740204,0.527992,0.9483362,0.2033691,-0.1974487,0.9589691,35.88881,1.481537,-26.34988,3.2041630000000003,0.3687024,0.5320007,-0.2809045,1.256732,-0.2681474,-0.0700481,0.7386439,0.01938902,0.5026177,31.22828,35.35
3,0.07955933,-0.2113953,0.9741516,0.8789549999999999,-0.08561707,-0.2247009,0.9706421,-30.26535,2.378326,-27.3423,2.333252,0.4740204,0.527992,0.9483362,0.2033691,-0.1974487,0.9589691,35.88881,1.481537,-26.34988,3.2041630000000003,0.3687024,0.5320007,-0.2809045,1.256732,-0.2681474,-0.0700481,0.7386439,0.01938902,0.5026177,31.22828,35.35
3,0.07955933,-0.2113953,0.9741516,0.8789549999999999,-0.08561707,-0.2247009,0.9706421,-30.26535,2.378326,-27.3423,2.333252,0.4740204,0.527992,0.9483362,0.2033691,-0.1974487,0.9589691,35.88881,1.481537,-26.34988,3.2041630000000003,0.3687024,0.5320007,-0.2808938,1.256774,-0.2682385,-0.07029226,0.7388608,0.01922869,0.5026177,13.05946,35.35
3,0.07955933,-0.2113953,0.9741516,0.8789549999999999,-0.08561707,-0.2247009,0.9706421,-30.26535,2.378326,-27.3423,2.333252,0.4740204,0.527992,0.9483362,0.2033691,-0.1974487,0.9589691,35.88881,1.481537,-26.34988,3.2041630000000003,0.3687024,0.5320007,-0.2808938,1.256774,-0.2682385,-0.07029226,0.7388608,0.01922869,0.5026177,13.05946,35.35
3,0.07955933,-0.2113953,0.9741516,0.8789549999999999,-0.08561707,-0.2247009,0.9706421,-30.26535,2.378326,-27.3423,2.333252,0.4740204,0.527992,0.9483362,0.2033691,-0.1974487,0.9589691,35.88881,1.481537,-26.34988,3.2041630000000003,0.3687024,0.5320007,-0.2808938,1.256774,-0.2682385,-0.07029226,0.7388608,0.01922869,0.5026177,13.05946,35.35
3,0.07911682,-0.2118683,0.9740753,0.8796961,-0.08694458,-0.2257232999999999,0.9702911,-30.26051,2.383698,-27.34821,2.3330990000000003,0.4740204,0.527992,0.9486772,0.2033386,-0.1974792,0.9589691,35.88881,1.481537,-26.34856,3.211655,0.3687024,0.5320007,-0.2808828,1.256794,-0.2682890999999999,-0.07047021,0.7391821,0.01935806,0.5026177,13.05946,35.35
3,0.07911682,-0.2118683,0.9740753,0.8796961,-0.08694458,-0.2257232999999999,0.9702911,-30.26051,2.383698,-27.34821,2.3330990000000003,0.4740204,0.527992,0.9486772,0.2033386,-0.1974792,0.9589691,35.88881,1.481537,-26.34856,3.211655,0.3687024,0.5320007,-0.2808828,1.256794,-0.2682890999999999,-0.07047021,0.7391821,0.01935806,0.5026177,13.05946,35.35
3,0.07911682,-0.2118683,0.9740753,0.8796961,-0.08694458,-0.2257232999999999,0.9702911,-30.26051,2.383698,-27.34821,2.3330990000000003,0.4740204,0.527992,0.9486772,0.2033386,-0.1974792,0.9589691,35.88881,1.481537,-26.34856,3.211655,0.3687024,0.5320007,-0.2808828,1.256794,-0.2682890999999999,-0.07047021,0.7391821,0.01935806,0.5026177,13.05946,35.35
3,0.07911682,-0.2118683,0.9740753,0.8796961,-0.08694458,-0.2257232999999999,0.9702911,-30.26051,2.383698,-27.34821,2.3330990000000003,0.4740204,0.527992,0.9486772,0.2033386,-0.1974792,0.9589691,35.88881,1.481537,-26.34856,3.211655,0.3687024,0.5320007,-0.2808602,1.256777,-0.2684217,-0.07039447,0.7394966,0.01932416,0.5026177,13.05946,35.35
3,0.07911682,-0.2118683,0.9740753,0.8796961,-0.08694458,-0.2257232999999999,0.9702911,-30.26051,2.383698,-27.34821,2.3330990000000003,0.4740204,0.527992,0.9486772,0.2033386,-0.1974792,0.9589691,35.88881,1.481537,-26.34856,3.211655,0.3687024,0.5320007,-0.2808602,1.256777,-0.2684217,-0.07039447,0.7394966,0.01932416,0.5026177,13.05946,35.35
3,0.07911682,-0.2118683,0.9740753,0.8796961,-0.08694458,-0.2257232999999999,0.9702911,-30.26051,2.383698,-27.34821,2.3330990000000003,0.4740204,0.527992,0.9486772,0.2033386,-0.1974792,0.9589691,35.88881,1.481537,-26.34856,3.211655,0.3687024,0.5320007,-0.2808602,1.256777,-0.2684217,-0.07039447,0.7394966,0.01932416,0.5026177,13.05946,35.35
3,0.04528809,-0.2008209,0.9785767,0.8831595,-0.1001891999999999,-0.2208099,0.9701385,-30.27995,2.339935,-27.32689,2.368408,0.476322,0.5286941,0.9226454,0.149231,-0.1837616,0.9715729,35.86337,1.451431,-26.28091,3.219421,0.3761519,0.5306481,-0.2808272999999999,1.256805,-0.2685395,-0.07068583,0.7396351999999999,0.01900753,0.5026177,13.05946,35.35
3,0.04528809,-0.2008209,0.9785767,0.8831595,-0.1001891999999999,-0.2208099,0.9701385,-30.27995,2.339935,-27.32689,2.368408,0.476322,0.5286941,0.9226454,0.149231,-0.1837616,0.9715729,35.86337,1.451431,-26.28091,3.219421,0.3761519,0.5306481,-0.2808272999999999,1.256805,-0.2685395,-0.07068583,0.7396351999999999,0.01900753,0.5026177,13.05946,35.35
3,0.04528809,-0.2008209,0.9785767,0.8831595,-0.1001891999999999,-0.2208099,0.9701385,-30.27995,2.339935,-27.32689,2.368408,0.476322,0.5286941,0.9226454,0.149231,-0.1837616,0.9715729,35.86337,1.451431,-26.28091,3.219421,0.3761519,0.5306481,-0.2808272999999999,1.256805,-0.2685395,-0.07068583,0.7396351999999999,0.01900753,0.5026177,13.05946,35.35
3,0.07583618,-0.2063141,0.9755402,0.8784037,-0.09161377,-0.2121582,0.9729156,-30.27721,2.325455,-27.29402,2.378586,0.4751791,0.5277581,0.9319251,0.2004547,-0.1980896,0.9594574,35.86995,1.4417719999999998,-26.33791,3.049866,0.3697639,0.5332435000000001,-0.2806907,1.2567549999999998,-0.2685898,-0.07082014,0.739743,0.01889529,0.5026177,13.05946,35.35
3,0.07583618,-0.2063141,0.9755402,0.8784037,-0.09161377,-0.2121582,0.9729156,-30.27721,2.325455,-27.29402,2.378586,0.4751791,0.5277581,0.9319251,0.2004547,-0.1980896,0.9594574,35.86995,1.4417719999999998,-26.33791,3.049866,0.3697639,0.5332435000000001,-0.2806907,1.2567549999999998,-0.2685898,-0.07082014,0.739743,0.01889529,0.5026177,13.05946,35.35
3,0.07583618,-0.2063141,0.9755402,0.8784037,-0.09161377,-0.2121582,0.9729156,-30.27721,2.325455,-27.29402,2.378586,0.4751791,0.5277581,0.9319251,0.2004547,-0.1980896,0.9594574,35.86995,1.4417719999999998,-26.33791,3.049866,0.3697639,0.5332435000000001,-0.2806907,1.2567549999999998,-0.2685898,-0.07082014,0.739743,0.01889529,0.5026177,13.05946,35.35
3,0.0121459999999999,-0.1634216,0.9864807,0.7930783,-0.09654236,-0.1200866999999999,0.9880524,-30.06715,2.808136,-27.49362,2.369522,0.4688567,0.501621,0.8681919,0.2501984,-0.2506256,0.9351807,35.78061,1.828186,-25.59647,2.734055,0.3677294,0.5207638,-0.2805994,1.256727,-0.268519,-0.07055712,0.7397286999999999,0.01879625,0.5026177,-43.67289,35.35
3,0.0121459999999999,-0.1634216,0.9864807,0.7930783,-0.09654236,-0.1200866999999999,0.9880524,-30.06715,2.808136,-27.49362,2.369522,0.4688567,0.501621,0.8681919,0.2501984,-0.2506256,0.9351807,35.78061,1.828186,-25.59647,2.734055,0.3677294,0.5207638,-0.2805994,1.256727,-0.268519,-0.07055712,0.7397286999999999,0.01879625,0.5026177,-43.67289,35.35
3,0.0121459999999999,-0.1634216,0.9864807,0.7930783,-0.09654236,-0.1200866999999999,0.9880524,-30.06715,2.808136,-27.49362,2.369522,0.4688567,0.501621,0.8681919,0.2501984,-0.2506256,0.9351807,35.78061,1.828186,-25.59647,2.734055,0.3677294,0.5207638,-0.2805994,1.256727,-0.268519,-0.07055712,0.7397286999999999,0.01879625,0.5026177,-43.67289,35.35
3,0.1531982,-0.1493987999999999,0.9768219,0.7541034000000001,-0.09837341,-0.09886169,0.9902191,-30.04001,2.817276,-27.07352,2.284973,0.4681194,0.4949840999999999,0.8430187,0.2383728,-0.1646729,0.9571075,35.82947,1.823776,-26.08478,2.866074,0.3671306,0.5143297,-0.2804873,1.256739,-0.2684086,-0.07039871,0.7397016,0.01904219,0.4987738,-43.67289,35.35
3,0.1531982,-0.1493987999999999,0.9768219,0.7541034000000001,-0.09837341,-0.09886169,0.9902191,-30.04001,2.817276,-27.07352,2.284973,0.4681194,0.4949840999999999,0.8430187,0.2383728,-0.1646729,0.9571075,35.82947,1.823776,-26.08478,2.866074,0.3671306,0.5143297,-0.2804873,1.256739,-0.2684086,-0.07039871,0.7397016,0.01904219,0.4987738,-43.67289,35.35
3,0.1531982,-0.1493987999999999,0.9768219,0.7541034000000001,-0.09837341,-0.09886169,0.9902191,-30.04001,2.817276,-27.07352,2.284973,0.4681194,0.4949840999999999,0.8430187,0.2383728,-0.1646729,0.9571075,35.82947,1.823776,-26.08478,2.866074,0.3671306,0.5143297,-0.2804873,1.256739,-0.2684086,-0.07039871,0.7397016,0.01904219,0.4987738,-43.67289,35.35
3,0.2057342999999999,-0.1590576,0.9655914,0.7771161999999999,-0.0987854,-0.08343506,0.9915924,-30.08093,2.832062,-27.22771,2.373047,0.4696201,0.4939734,0.8680976999999999,0.2381897,-0.1664581,0.9568329,35.86931,1.822525,-26.16362,2.841339,0.3657341,0.5152315,-0.2803220999999999,1.256822,-0.2683508,-0.0702307,0.7395449000000001,0.01900988,0.4987738,-43.67289,35.35
3,0.2057342999999999,-0.1590576,0.9655914,0.7771161999999999,-0.0987854,-0.08343506,0.9915924,-30.08093,2.832062,-27.22771,2.373047,0.4696201,0.4939734,0.8680976999999999,0.2381897,-0.1664581,0.9568329,35.86931,1.822525,-26.16362,2.841339,0.3657341,0.5152315,-0.2803220999999999,1.256822,-0.2683508,-0.0702307,0.7395449000000001,0.01900988,0.4987738,-43.67289,35.35
3,0.2057342999999999,-0.1590576,0.9655914,0.7771161999999999,-0.0987854,-0.08343506,0.9915924,-30.08093,2.832062,-27.22771,2.373047,0.4696201,0.4939734,0.8680976999999999,0.2381897,-0.1664581,0.9568329,35.86931,1.822525,-26.16362,2.841339,0.3657341,0.5152315,-0.2803220999999999,1.256822,-0.2683508,-0.0702307,0.7395449000000001,0.01900988,0.4987738,-43.67289,35.35
3,0.1529999,-0.1364746,0.9787445,0.8010491,-0.09625244,-0.08311462,0.9918671,-30.08911,2.84346,-27.276490000000003,2.36348,0.4695858,0.4939734,0.8731021000000001,0.2362366,-0.1527405,0.95961,35.87958,1.806427,-26.16106,2.843018,0.3656607999999999,0.5140475999999999,-0.2801982999999999,1.25674,-0.2682372,-0.06994874,0.7392517,0.01903984,0.4987738,-43.67289,35.35
3,0.1529999,-0.1364746,0.9787445,0.8010491,-0.09625244,-0.08311462,0.9918671,-30.08911,2.84346,-27.276490000000003,2.36348,0.4695858,0.4939734,0.8731021000000001,0.2362366,-0.1527405,0.95961,35.87958,1.806427,-26.16106,2.843018,0.3656607999999999,0.5140475999999999,-0.2801982999999999,1.25674,-0.2682372,-0.06994874,0.7392517,0.01903984,0.4987738,-43.67289,35.35
3,0.1529999,-0.1364746,0.9787445,0.8010491,-0.09625244,-0.08311462,0.9918671,-30.08911,2.84346,-27.276490000000003,2.36348,0.4695858,0.4939734,0.8731021000000001,0.2362366,-0.1527405,0.95961,35.87958,1.806427,-26.16106,2.843018,0.3656607999999999,0.5140475999999999,-0.2801982999999999,1.25674,-0.2682372,-0.06994874,0.7392517,0.01903984,0.4987738,-43.67289,35.35
3,0.197403,-0.1350555,0.9709625,0.8118093000000001,-0.09672546,-0.08348083,0.9917908,-30.09491,2.844971,-27.35738,2.312073,0.4698099,0.4946307,0.8713259,0.2364502,-0.1412047999999999,0.961319,35.89172,1.805695,-26.16454,2.843582,0.365251,0.5126795,-0.2801149,1.256764,-0.2681937,-0.06984316,0.7390111999999999,0.01892779,0.4987738,-43.67289,35.35
3,0.197403,-0.1350555,0.9709625,0.8118093000000001,-0.09672546,-0.08348083,0.9917908,-30.09491,2.844971,-27.35738,2.312073,0.4698099,0.4946307,0.8713259,0.2364502,-0.1412047999999999,0.961319,35.89172,1.805695,-26.16454,2.843582,0.365251,0.5126795,-0.2801149,1.256764,-0.2681937,-0.06984316,0.7390111999999999,0.01892779,0.4987738,-43.67289,35.35
3,0.197403,-0.1350555,0.9709625,0.8118093000000001,-0.09672546,-0.08348083,0.9917908,-30.09491,2.844971,-27.35738,2.312073,0.4698099,0.4946307,0.8713259,0.2364502,-0.1412047999999999,0.961319,35.89172,1.805695,-26.16454,2.843582,0.365251,0.5126795,-0.2801149,1.256764,-0.2681937,-0.06984316,0.7390111999999999,0.01892779,0.4987738,-43.67289,35.35
3,0.197403,-0.1350555,0.9709625,0.813596,-0.09672546,-0.08348083,0.9917908,-30.09491,2.844971,-27.35738,2.312073,0.4698099,0.4946307,0.8664589,0.2364502,-0.1412047999999999,0.961319,35.89172,1.805695,-26.16454,2.843582,0.365251,0.5126795,-0.2799606,1.256655,-0.2681472,-0.06977922,0.738822,0.01887378,0.4987738,-0.587781,35.35
3,0.197403,-0.1350555,0.9709625,0.813596,-0.09672546,-0.08348083,0.9917908,-30.09491,2.844971,-27.35738,2.312073,0.4698099,0.4946307,0.8664589,0.2364502,-0.1412047999999999,0.961319,35.89172,1.805695,-26.16454,2.843582,0.365251,0.5126795,-0.2799606,1.256655,-0.2681472,-0.06977922,0.738822,0.01887378,0.4987738,-0.587781,35.35
3,0.197403,-0.1350555,0.9709625,0.813596,-0.09672546,-0.08348083,0.9917908,-30.09491,2.844971,-27.35738,2.312073,0.4698099,0.4946307,0.8664589,0.2364502,-0.1412047999999999,0.961319,35.89172,1.805695,-26.16454,2.843582,0.365251,0.5126795,-0.2799606,1.256655,-0.2681472,-0.06977922,0.738822,0.01887378,0.4987738,-0.587781,35.35
4,0.197403,-0.1350555,0.9709625,0.813596,-0.09672546,-0.08348083,0.9917908,-30.09491,2.844971,-27.35738,2.312073,0.4698099,0.4946307,0.8664589,0.2364502,-0.1412047999999999,0.961319,35.89172,1.805695,-26.16454,2.843582,0.365251,0.5126795,-0.2799642,1.256524,-0.2681580999999999,-0.06949276,0.7388647,0.01871581,0.4987738,-0.587781,35.35
4,0.197403,-0.1350555,0.9709625,0.813596,-0.09672546,-0.08348083,0.9917908,-30.09491,2.844971,-27.35738,2.312073,0.4698099,0.4946307,0.8664589,0.2364502,-0.1412047999999999,0.961319,35.89172,1.805695,-26.16454,2.843582,0.365251,0.5126795,-0.2799642,1.256524,-0.2681580999999999,-0.06949276,0.7388647,0.01871581,0.4987738,-0.587781,35.35
4,0.197403,-0.1350555,0.9709625,0.813596,-0.09672546,-0.08348083,0.9917908,-30.09491,2.844971,-27.35738,2.312073,0.4698099,0.4946307,0.8664589,0.2364502,-0.1412047999999999,0.961319,35.89172,1.805695,-26.16454,2.843582,0.365251,0.5126795,-0.2799642,1.256524,-0.2681580999999999,-0.06949276,0.7388647,0.01871581,0.4987738,-0.587781,35.35
4,0.07543945,-0.1173706,0.9902039,0.8296996999999999,-0.09776306,-0.07429504,0.9924164,-30.13092,2.823242,-27.3372,2.3094330000000003,0.4711532999999999,0.4940626,0.886107,0.2292328,-0.1529236,0.9612732,35.89072,1.825455,-26.24754,2.838074,0.3660445,0.5141505999999999,-0.27987,1.256498,-0.2681144,-0.0692745,0.7389809,0.01858979,0.4987738,-0.587781,35.35
4,0.07543945,-0.1173706,0.9902039,0.8296996999999999,-0.09776306,-0.07429504,0.9924164,-30.13092,2.823242,-27.3372,2.3094330000000003,0.4711532999999999,0.4940626,0.886107,0.2292328,-0.1529236,0.9612732,35.89072,1.825455,-26.24754,2.838074,0.3660445,0.5141505999999999,-0.27987,1.256498,-0.2681144,-0.0692745,0.7389809,0.01858979,0.4987738,-0.587781,35.35
4,0.07543945,-0.1173706,0.9902039,0.8296996999999999,-0.09776306,-0.07429504,0.9924164,-30.13092,2.823242,-27.3372,2.3094330000000003,0.4711532999999999,0.4940626,0.886107,0.2292328,-0.1529236,0.9612732,35.89072,1.825455,-26.24754,2.838074,0.3660445,0.5141505999999999,-0.27987,1.256498,-0.2681144,-0.0692745,0.7389809,0.01858979,0.4987738,-0.587781,35.35
4,0.1072845,-0.1240692,0.9864502,0.8293324000000001,-0.0955658,-0.07655334,0.9924622,-30.159240000000004,2.823242,-27.30537,2.306839,0.4718345,0.4940626,0.8914883,0.2299347,-0.15065,0.9614563,35.88985,1.824692,-26.24483,2.848434,0.3659912,0.5138814,-0.2798097,1.2564030000000002,-0.2680607,-0.06907217,0.7391424,0.01858678,0.4987738,-0.587781,35.35
4,0.1072845,-0.1240692,0.9864502,0.8293324000000001,-0.0955658,-0.07655334,0.9924622,-30.159240000000004,2.823242,-27.30537,2.306839,0.4718345,0.4940626,0.8914883,0.2299347,-0.15065,0.9614563,35.88985,1.824692,-26.24483,2.848434,0.3659912,0.5138814,-0.2798097,1.2564030000000002,-0.2680607,-0.06907217,0.7391424,0.01858678,0.4987738,-0.587781,35.35
4,0.1072845,-0.1240692,0.9864502,0.8293324000000001,-0.0955658,-0.07655334,0.9924622,-30.159240000000004,2.823242,-27.30537,2.306839,0.4718345,0.4940626,0.8914883,0.2299347,-0.15065,0.9614563,35.88985,1.824692,-26.24483,2.848434,0.3659912,0.5138814,-0.2798097,1.2564030000000002,-0.2680607,-0.06907217,0.7391424,0.01858678,0.4987738,-0.587781,35.35
4,0.1209259,-0.1230621,0.9850006,0.8395208000000001,-0.1049041999999999,-0.07254028,0.9918213,-30.17261,2.811127,-27.25618,2.308685,0.4734271,0.4935720999999999,0.9000636000000001,0.227478,-0.1450652999999999,0.9629059,35.88745,1.823456,-26.22368,2.85524,0.3664078,0.5130501000000001,-0.2796869,1.256404,-0.2681364,-0.06947683,0.7391085999999999,0.0180629,0.4987738,-0.587781,35.35
4,0.1209259,-0.1230621,0.9850006,0.8395208000000001,-0.1049041999999999,-0.07254028,0.9918213,-30.17261,2.811127,-27.25618,2.308685,0.4734271,0.4935720999999999,0.9000636000000001,0.227478,-0.1450652999999999,0.9629059,35.88745,1.823456,-26.22368,2.85524,0.3664078,0.5130501000000001,-0.2796869,1.256404,-0.2681364,-0.06947683,0.7391085999999999,0.0180629,0.4987738,-0.587781,35.35
4,0.1209259,-0.1230621,0.9850006,0.8395208000000001,-0.1049041999999999,-0.07254028,0.9918213,-30.17261,2.811127,-27.25618,2.308685,0.4734271,0.4935720999999999,0.9000636000000001,0.227478,-0.1450652999999999,0.9629059,35.88745,1.823456,-26.22368,2.85524,0.3664078,0.5130501000000001,-0.2796869,1.256404,-0.2681364,-0.06947683,0.7391085999999999,0.0180629,0.4987738,-0.587781,35.35
4,0.1162415,-0.1215668,0.9857483,0.8418853999999999,-0.1058655,-0.07229614,0.991745,-30.18895,2.818375,-27.25618,2.319946,0.4741039000000001,0.4933152,0.8964939000000001,0.2224121,-0.1433257999999999,0.9643555,35.88297,1.82428,-26.22015,2.849396,0.3671867,0.5127670999999999,-0.2796869,1.256404,-0.2681364,-0.06947683,0.7391085999999999,0.0180629,0.4987738,41.30904,35.35
4,0.1162415,-0.1215668,0.9857483,0.8418853999999999,-0.1058655,-0.07229614,0.991745,-30.18895,2.818375,-27.25618,2.319946,0.4741039000000001,0.4933152,0.8964939000000001,0.2224121,-0.1433257999999999,0.9643555,35.88297,1.82428,-26.22015,2.849396,0.3671867,0.5127670999999999,-0.2796869,1.256404,-0.2681364,-0.06947683,0.7391085999999999,0.0180629,0.4987738,41.30904,35.35
4,0.1162415,-0.1215668,0.9857483,0.8418853999999999,-0.1058655,-0.07229614,0.991745,-30.18895,2.818375,-27.25618,2.319946,0.4741039000000001,0.4933152,0.8964939000000001,0.2224121,-0.1433257999999999,0.9643555,35.88297,1.82428,-26.22015,2.849396,0.3671867,0.5127670999999999,-0.2796869,1.256404,-0.2681364,-0.06947683,0.7391085999999999,0.0180629,0.4987738,41.30904,35.35
4,-0.1695862,-0.0541687,0.984024,0.8448107,-0.1701355,-0.05406189,0.9839325,-30.30983,3.00145,-27.35751,2.25795,0.4861121,0.4859975,0.908124,0.1988373,-0.1165161,0.9730682,35.71338,1.928986,-25.91759,2.659943,0.3762549,0.5033457,-0.2796389999999999,1.256424,-0.2681525,-0.06941589,0.7392269,0.01750145,0.4987738,41.30904,35.35
4,-0.1695862,-0.0541687,0.984024,0.8448107,-0.1701355,-0.05406189,0.9839325,-30.30983,3.00145,-27.35751,2.25795,0.4861121,0.4859975,0.908124,0.1988373,-0.1165161,0.9730682,35.71338,1.928986,-25.91759,2.659943,0.3762549,0.5033457,-0.2796389999999999,1.256424,-0.2681525,-0.06941589,0.7392269,0.01750145,0.4987738,41.30904,35.35
4,-0.1695862,-0.0541687,0.984024,0.8448107,-0.1701355,-0.05406189,0.9839325,-30.30983,3.00145,-27.35751,2.25795,0.4861121,0.4859975,0.908124,0.1988373,-0.1165161,0.9730682,35.71338,1.928986,-25.91759,2.659943,0.3762549,0.5033457,-0.2796389999999999,1.256424,-0.2681525,-0.06941589,0.7392269,0.01750145,0.4987738,41.30904,35.35
4,-0.1695862,-0.0541687,0.984024,0.8448107,-0.1701355,-0.05406189,0.9839325,-30.30983,3.00145,-27.35751,2.25795,0.4861121,0.4859975,0.908124,0.1988373,-0.1165161,0.9730682,35.71338,1.928986,-25.91759,2.659943,0.3762549,0.5033457,-0.2797040999999999,1.256413,-0.2680810999999999,-0.06879325,0.7394208999999999,0.01826186,0.4987738,41.30904,35.35
4,-0.1695862,-0.0541687,0.984024,0.8448107,-0.1701355,-0.05406189,0.9839325,-30.30983,3.00145,-27.35751,2.25795,0.4861121,0.4859975,0.908124,0.1988373,-0.1165161,0.9730682,35.71338,1.928986,-25.91759,2.659943,0.3762549,0.5033457,-0.2797040999999999,1.256413,-0.2680810999999999,-0.06879325,0.7394208999999999,0.01826186,0.4987738,41.30904,35.35
4,-0.1695862,-0.0541687,0.984024,0.8448107,-0.1701355,-0.05406189,0.9839325,-30.30983,3.00145,-27.35751,2.25795,0.4861121,0.4859975,0.908124,0.1988373,-0.1165161,0.9730682,35.71338,1.928986,-25.91759,2.659943,0.3762549,0.5033457,-0.2797040999999999,1.256413,-0.2680810999999999,-0.06879325,0.7394208999999999,0.01826186,0.4987738,41.30904,35.35
4,-0.1695862,-0.0541687,0.984024,0.8448107,-0.1701355,-0.05406189,0.9839325,-30.30983,3.00145,-27.35751,2.25795,0.4861121,0.4859975,0.908124,0.1988373,-0.1165161,0.9730682,35.71338,1.928986,-25.91759,2.659943,0.3762549,0.5033457,-0.2796811999999999,1.256366,-0.2680094,-0.06861971,0.7394651999999999,0.01877464,0.4987738,41.30904,35.35
4,-0.1695862,-0.0541687,0.984024,0.8448107,-0.1701355,-0.05406189,0.9839325,-30.30983,3.00145,-27.35751,2.25795,0.4861121,0.4859975,0.908124,0.1988373,-0.1165161,0.9730682,35.71338,1.928986,-25.91759,2.659943,0.3762549,0.5033457,-0.2796811999999999,1.256366,-0.2680094,-0.06861971,0.7394651999999999,0.01877464,0.4987738,41.30904,35.35
4,-0.1695862,-0.0541687,0.984024,0.8448107,-0.1701355,-0.05406189,0.9839325,-30.30983,3.00145,-27.35751,2.25795,0.4861121,0.4859975,0.908124,0.1988373,-0.1165161,0.9730682,35.71338,1.928986,-25.91759,2.659943,0.3762549,0.5033457,-0.2796811999999999,1.256366,-0.2680094,-0.06861971,0.7394651999999999,0.01877464,0.4987738,41.30904,35.35
4,-0.06802368,0.03201294,0.9971619,0.9934036,-0.2063141,0.02384949,0.9781799,-30.33496,2.915695,-25.8452,2.461426,0.4912085999999999,0.4669894,0.9574259,0.1819916,0.04499817,0.982254,35.46844,1.891785,-24.85442,3.1406400000000003,0.3874725999999999,0.47703,-0.2796974,1.256285,-0.2677186,-0.06832062,0.7387463000000001,0.01874386,0.4987738,41.30904,35.35
4,-0.06802368,0.03201294,0.9971619,0.9934036,-0.2063141,0.02384949,0.9781799,-30.33496,2.915695,-25.8452,2.461426,0.4912085999999999,0.4669894,0.9574259,0.1819916,0.04499817,0.982254,35.46844,1.891785,-24.85442,3.1406400000000003,0.3874725999999999,0.47703,-0.2796974,1.256285,-0.2677186,-0.06832062,0.7387463000000001,0.01874386,0.4987738,41.30904,35.35
4,-0.06802368,0.03201294,0.9971619,0.9934036,-0.2063141,0.02384949,0.9781799,-30.33496,2.915695,-25.8452,2.461426,0.4912085999999999,0.4669894,0.9574259,0.1819916,0.04499817,0.982254,35.46844,1.891785,-24.85442,3.1406400000000003,0.3874725999999999,0.47703,-0.2796974,1.256285,-0.2677186,-0.06832062,0.7387463000000001,0.01874386,0.4987738,41.30904,35.35
4,-0.2081757,0.03987122,0.9772644,1.0,-0.2081757,0.03987122,0.9772644,-30.36829,2.924088,-25.86685,2.527023,0.4925800999999999,0.4650627,1.0,0.1506958,0.05540466,0.9870148,35.51155,2.409149,-27.01686,3.101044,0.3876705,0.4764504,-0.279758,1.256271,-0.2675604,-0.06836347,0.7383255,0.01856773,0.4987738,23.84373,35.35
4,-0.2081757,0.03987122,0.9772644,1.0,-0.2081757,0.03987122,0.9772644,-30.36829,2.924088,-25.86685,2.527023,0.4925800999999999,0.4650627,1.0,0.1506958,0.05540466,0.9870148,35.51155,2.409149,-27.01686,3.101044,0.3876705,0.4764504,-0.279758,1.256271,-0.2675604,-0.06836347,0.7383255,0.01856773,0.4987738,23.84373,35.35
4,-0.2081757,0.03987122,0.9772644,1.0,-0.2081757,0.03987122,0.9772644,-30.36829,2.924088,-25.86685,2.527023,0.4925800999999999,0.4650627,1.0,0.1506958,0.05540466,0.9870148,35.51155,2.409149,-27.01686,3.101044,0.3876705,0.4764504,-0.279758,1.256271,-0.2675604,-0.06836347,0.7383255,0.01856773,0.4987738,23.84373,35.35
4,-0.214035,0.03684998,0.97612,1.0,-0.214035,0.03684998,0.97612,-30.39162,2.910873,-25.82137,2.5818790000000003,0.4940692,0.4655725,1.0,0.1501007,0.04690552,0.9875488,35.50639,2.412567,-27.03131,3.064209,0.3879122,0.4774239,-0.2798915,1.256284,-0.2674294,-0.06837572,0.7382493,0.01902966,0.4987738,23.84373,35.35
4,-0.214035,0.03684998,0.97612,1.0,-0.214035,0.03684998,0.97612,-30.39162,2.910873,-25.82137,2.5818790000000003,0.4940692,0.4655725,1.0,0.1501007,0.04690552,0.9875488,35.50639,2.412567,-27.03131,3.064209,0.3879122,0.4774239,-0.2798915,1.256284,-0.2674294,-0.06837572,0.7382493,0.01902966,0.4987738,23.84373,35.35
4,-0.214035,0.03684998,0.97612,1.0,-0.214035,0.03684998,0.97612,-30.39162,2.910873,-25.82137,2.5818790000000003,0.4940692,0.4655725,1.0,0.1501007,0.04690552,0.9875488,35.50639,2.412567,-27.03131,3.064209,0.3879122,0.4774239,-0.2798915,1.256284,-0.2674294,-0.06837572,0.7382493,0.01902966,0.4987738,23.84373,35.35
4,-0.2132874,0.06283569,0.9749603,1.0,-0.2132874,0.06283569,0.9749603,-30.49901,2.84314,-25.63371,2.69783,0.4975483,0.4633276,1.0,0.1604767,0.05189514,0.985672,35.37247,1.915985,-24.89894,3.361313,0.3929999999999999,0.4760595,-0.2799609,1.256419,-0.2674525,-0.06838684,0.7384151999999999,0.01891972,0.4987738,23.84373,35.35
4,-0.2132874,0.06283569,0.9749603,1.0,-0.2132874,0.06283569,0.9749603,-30.49901,2.84314,-25.63371,2.69783,0.4975483,0.4633276,1.0,0.1604767,0.05189514,0.985672,35.37247,1.915985,-24.89894,3.361313,0.3929999999999999,0.4760595,-0.2799609,1.256419,-0.2674525,-0.06838684,0.7384151999999999,0.01891972,0.4987738,23.84373,35.35
4,-0.2132874,0.06283569,0.9749603,1.0,-0.2132874,0.06283569,0.9749603,-30.49901,2.84314,-25.63371,2.69783,0.4975483,0.4633276,1.0,0.1604767,0.05189514,0.985672,35.37247,1.915985,-24.89894,3.361313,0.3929999999999999,0.4760595,-0.2799609,1.256419,-0.2674525,-0.06838684,0.7384151999999999,0.01891972,0.4987738,23.84373,35.35
4,-0.2169189,0.06349182,0.9741058,1.0,-0.2169189,0.06349182,0.9741058,-30.51074,2.886795,-25.83142,2.694809,0.4984367,0.4634614999999999,1.0,0.1608276,0.05178833,0.985611,35.36375,1.92627,-24.93767,3.372543,0.3932018,0.4760595,-0.2800558,1.256416,-0.2674495999999999,-0.06875236,0.7387140999999999,0.01913898,0.4987738,23.84373,35.35
4,-0.2169189,0.06349182,0.9741058,1.0,-0.2169189,0.06349182,0.9741058,-30.51074,2.886795,-25.83142,2.694809,0.4984367,0.4634614999999999,1.0,0.1608276,0.05178833,0.985611,35.36375,1.92627,-24.93767,3.372543,0.3932018,0.4760595,-0.2800558,1.256416,-0.2674495999999999,-0.06875236,0.7387140999999999,0.01913898,0.4987738,23.84373,35.35
4,-0.2169189,0.06349182,0.9741058,1.0,-0.2169189,0.06349182,0.9741058,-30.51074,2.886795,-25.83142,2.694809,0.4984367,0.4634614999999999,1.0,0.1608276,0.05178833,0.985611,35.36375,1.92627,-24.93767,3.372543,0.3932018,0.4760595,-0.2800558,1.256416,-0.2674495999999999,-0.06875236,0.7387140999999999,0.01913898,0.4987738,23.84373,35.35
4,0.128418,0.04985046,0.9904633,1.0,-0.221344,0.06196594,0.9732208,-30.52585,2.9487,-26.08937,2.6983490000000003,0.4995542999999999,0.4637567,1.0,0.1552887,0.04864502,0.9866638,35.35924,1.915985,-24.89894,3.421494,0.3940026,0.4764954,-0.2800771999999999,1.2564879999999998,-0.2676565999999999,-0.06874921,0.7390568000000001,0.01920931,0.4987738,23.84373,35.35
4,0.128418,0.04985046,0.9904633,1.0,-0.221344,0.06196594,0.9732208,-30.52585,2.9487,-26.08937,2.6983490000000003,0.4995542999999999,0.4637567,1.0,0.1552887,0.04864502,0.9866638,35.35924,1.915985,-24.89894,3.421494,0.3940026,0.4764954,-0.2800771999999999,1.2564879999999998,-0.2676565999999999,-0.06874921,0.7390568000000001,0.01920931,0.4987738,23.84373,35.35
4,0.128418,0.04985046,0.9904633,1.0,-0.221344,0.06196594,0.9732208,-30.52585,2.9487,-26.08937,2.6983490000000003,0.4995542999999999,0.4637567,1.0,0.1552887,0.04864502,0.9866638,35.35924,1.915985,-24.89894,3.421494,0.3940026,0.4764954,-0.2800771999999999,1.2564879999999998,-0.2676565999999999,-0.06874921,0.7390568000000001,0.01920931,0.4987738,23.84373,35.35
4,-0.2234954999999999,0.06219482,0.972702,1.0,-0.2234954999999999,0.06219482,0.972702,-30.54134,2.962585,-26.17302,2.666824,0.5003531,0.4639482,1.0,0.1038666,0.06559753,0.9924164,35.39923,2.615311,-27.88632,3.3663480000000003,0.3960167999999999,0.475926,-0.2802467,1.25646,-0.2677655,-0.06904352,0.7392102,0.01904277,0.4987738,-32.24675,35.35
4,-0.2234954999999999,0.06219482,0.972702,1.0,-0.2234954999999999,0.06219482,0.972702,-30.54134,2.962585,-26.17302,2.666824,0.5003531,0.4639482,1.0,0.1038666,0.06559753,0.9924164,35.39923,2.615311,-27.88632,3.3663480000000003,0.3960167999999999,0.475926,-0.2802467,1.25646,-0.2677655,-0.06904352,0.7392102,0.01904277,0.4987738,-32.24675,35.35
4,-0.2234954999999999,0.06219482,0.972702,1.0,-0.2234954999999999,0.06219482,0.972702,-30.54134,2.962585,-26.17302,2.666824,0.5003531,0.4639482,1.0,0.1038666,0.06559753,0.9924164,35.39923,2.615311,-27.88632,3.3663480000000003,0.3960167999999999,0.475926,-0.2802467,1.25646,-0.2677655,-0.06904352,0.7392102,0.01904277,0.4987738,-32.24675,35.35
4,-0.2234954999999999,0.06219482,0.972702,1.0,-0.2234954999999999,0.06219482,0.972702,-30.54134,2.962585,-26.17302,2.666824,0.5003531,0.4639482,1.0,0.1038666,0.06559753,0.9924164,35.39923,2.615311,-27.88632,3.3663480000000003,0.3960167999999999,0.475926,-0.2801979,1.256493,-0.2678692,-0.06942287,0.7394103,0.01871959,0.4987738,-32.24675,35.35
4,-0.2234954999999999,0.06219482,0.972702,1.0,-0.2234954999999999,0.06219482,0.972702,-30.54134,2.962585,-26.17302,2.666824,0.5003531,0.4639482,1.0,0.1038666,0.06559753,0.9924164,35.39923,2.615311,-27.88632,3.3663480000000003,0.3960167999999999,0.475926,-0.2801979,1.256493,-0.2678692,-0.06942287,0.7394103,0.01871959,0.4987738,-32.24675,35.35
4,-0.2234954999999999,0.06219482,0.972702,1.0,-0.2234954999999999,0.06219482,0.972702,-30.54134,2.962585,-26.17302,2.666824,0.5003531,0.4639482,1.0,0.1038666,0.06559753,0.9924164,35.39923,2.615311,-27.88632,3.3663480000000003,0.3960167999999999,0.475926,-0.2801979,1.256493,-0.2678692,-0.06942287,0.7394103,0.01871959,0.4987738,-32.24675,35.35
4,-0.2234954999999999,0.06219482,0.972702,1.0,-0.2234954999999999,0.06219482,0.972702,-30.54134,2.962585,-26.17302,2.666824,0.5003531,0.4639482,1.0,0.1038666,0.06559753,0.9924164,35.39923,2.615311,-27.88632,3.3663480000000003,0.3960167999999999,0.475926,-0.2801318,1.256452,-0.267931,-0.06942347,0.7393733,0.01873491,0.4987738,-32.24675,35.35
4,-0.2234954999999999,0.06219482,0.972702,1.0,-0.2234954999999999,0.06219482,0.972702,-30.54134,2.962585,-26.17302,2.666824,0.5003531,0.4639482,1.0,0.1038666,0.06559753,0.9924164,35.39923,2.615311,-27.88632,3.3663480000000003,0.3960167999999999,0.475926,-0.2801318,1.256452,-0.267931,-0.06942347,0.7393733,0.01873491,0.4987738,-32.24675,35.35
4,-0.2234954999999999,0.06219482,0.972702,1.0,-0.2234954999999999,0.06219482,0.972702,-30.54134,2.962585,-26.17302,2.666824,0.5003531,0.4639482,1.0,0.1038666,0.06559753,0.9924164,35.39923,2.615311,-27.88632,3.3663480000000003,0.3960167999999999,0.475926,-0.2801318,1.256452,-0.267931,-0.06942347,0.7393733,0.01873491,0.4987738,-32.24675,35.35
4,-0.2329253999999999,0.0504303,0.9711761,1.0,-0.2329253999999999,0.0504303,0.9711761,-30.63901,2.963486,-26.27907,2.587891,0.5047762,0.4661884,1.0,0.09451294,0.05982971,0.9937134,35.31027,2.701126,-28.169040000000003,3.416809,0.3998123,0.476208,-0.2800033,1.256438,-0.2679208,-0.06937547,0.7393708000000001,0.01872496,0.4987738,-32.24675,35.35
4,-0.2329253999999999,0.0504303,0.9711761,1.0,-0.2329253999999999,0.0504303,0.9711761,-30.63901,2.963486,-26.27907,2.587891,0.5047762,0.4661884,1.0,0.09451294,0.05982971,0.9937134,35.31027,2.701126,-28.169040000000003,3.416809,0.3998123,0.476208,-0.2800033,1.256438,-0.2679208,-0.06937547,0.7393708000000001,0.01872496,0.4987738,-32.24675,35.35
4,-0.2329253999999999,0.0504303,0.9711761,1.0,-0.2329253999999999,0.0504303,0.9711761,-30.63901,2.963486,-26.27907,2.587891,0.5047762,0.4661884,1.0,0.09451294,0.05982971,0.9937134,35.31027,2.701126,-28.169040000000003,3.416809,0.3998123,0.476208,-0.2800033,1.256438,-0.2679208,-0.06937547,0.7393708000000001,0.01872496,0.4987738,-32.24675,35.35
4,-0.1839142,0.05213928,0.9815521,1.0,-0.2215117999999999,0.052948,0.9737091,-30.525920000000003,3.10643,-26.27255,2.764755,0.499659,0.4611654999999999,1.0,0.1179351999999999,0.04321289,0.9920654,35.40019,2.661865,-27.5797,3.214157,0.3947167,0.4743231,-0.2798901,1.256491,-0.2678561,-0.06922657,0.7394531,0.01890041,0.4987738,-32.24675,35.35
4,-0.1839142,0.05213928,0.9815521,1.0,-0.2215117999999999,0.052948,0.9737091,-30.525920000000003,3.10643,-26.27255,2.764755,0.499659,0.4611654999999999,1.0,0.1179351999999999,0.04321289,0.9920654,35.40019,2.661865,-27.5797,3.214157,0.3947167,0.4743231,-0.2798901,1.256491,-0.2678561,-0.06922657,0.7394531,0.01890041,0.4987738,-32.24675,35.35
4,-0.1839142,0.05213928,0.9815521,1.0,-0.2215117999999999,0.052948,0.9737091,-30.525920000000003,3.10643,-26.27255,2.764755,0.499659,0.4611654999999999,1.0,0.1179351999999999,0.04321289,0.9920654,35.40019,2.661865,-27.5797,3.214157,0.3947167,0.4743231,-0.2798901,1.256491,-0.2678561,-0.06922657,0.7394531,0.01890041,0.4987738,-32.24675,35.35
4,-0.2230224999999999,0.06637573,0.9725494,1.0,-0.2288512999999999,0.06611633,0.9712067,-30.46429,3.217422,-26.26837,2.693619,0.4985054,0.4558318,1.0,0.1201782,0.0770873999999999,0.9897461,35.38689,2.866333,-27.8853,3.372467,0.3945502,0.4662088,-0.2798237999999999,1.256543,-0.2678955,-0.06907314,0.7393644,0.01907463,0.4987738,-63.27137,35.35
4,-0.2230224999999999,0.06637573,0.9725494,1.0,-0.2288512999999999,0.06611633,0.9712067,-30.46429,3.217422,-26.26837,2.693619,0.4985054,0.4558318,1.0,0.1201782,0.0770873999999999,0.9897461,35.38689,2.866333,-27.8853,3.372467,0.3945502,0.4662088,-0.2798237999999999,1.256543,-0.2678955,-0.06907314,0.7393644,0.01907463,0.4987738,-63.27137,35.35
4,-0.2230224999999999,0.06637573,0.9725494,1.0,-0.2288512999999999,0.06611633,0.9712067,-30.46429,3.217422,-26.26837,2.693619,0.4985054,0.4558318,1.0,0.1201782,0.0770873999999999,0.9897461,35.38689,2.866333,-27.8853,3.372467,0.3945502,0.4662088,-0.2798237999999999,1.256543,-0.2678955,-0.06907314,0.7393644,0.01907463,0.4987738,-63.27137,35.35
4,-0.07292175,0.07730103,0.9943237,1.0,-0.2240448,0.07374573,0.9717712,-30.494840000000003,3.214539,-26.27196,2.736801,0.4989600999999999,0.4550917,1.0,0.1156921,0.07920837,0.9901123,35.39439,2.829086,-27.80807,3.347946,0.3949254,0.4665314,-0.2796946,1.256466,-0.2678105,-0.06891003,0.7392099,0.01912944,0.4987738,-63.27137,35.35
4,-0.07292175,0.07730103,0.9943237,1.0,-0.2240448,0.07374573,0.9717712,-30.494840000000003,3.214539,-26.27196,2.736801,0.4989600999999999,0.4550917,1.0,0.1156921,0.07920837,0.9901123,35.39439,2.829086,-27.80807,3.347946,0.3949254,0.4665314,-0.2796946,1.256466,-0.2678105,-0.06891003,0.7392099,0.01912944,0.4987738,-63.27137,35.35
4,-0.07292175,0.07730103,0.9943237,1.0,-0.2240448,0.07374573,0.9717712,-30.494840000000003,3.214539,-26.27196,2.736801,0.4989600999999999,0.4550917,1.0,0.1156921,0.07920837,0.9901123,35.39439,2.829086,-27.80807,3.347946,0.3949254,0.4665314,-0.2796946,1.256466,-0.2678105,-0.06891003,0.7392099,0.01912944,0.4987738,-63.27137,35.35
4,-0.04472351,0.07537842,0.9961395,1.0,-0.2228087999999999,0.06710815,0.9725342,-30.50342,3.213928,-26.2775,2.725525,0.4990889,0.4559235,1.0,0.1144408999999999,0.08067322,0.9901428,35.391740000000006,2.818359,-27.78111,3.361588,0.3951782,0.4665202999999999,-0.2796288,1.256368,-0.267659,-0.06898604,0.7390783000000001,0.01894254,0.4987738,-63.27137,35.35
4,-0.04472351,0.07537842,0.9961395,1.0,-0.2228087999999999,0.06710815,0.9725342,-30.50342,3.213928,-26.2775,2.725525,0.4990889,0.4559235,1.0,0.1144408999999999,0.08067322,0.9901428,35.391740000000006,2.818359,-27.78111,3.361588,0.3951782,0.4665202999999999,-0.2796288,1.256368,-0.267659,-0.06898604,0.7390783000000001,0.01894254,0.4987738,-63.27137,35.35
4,-0.04472351,0.07537842,0.9961395,1.0,-0.2228087999999999,0.06710815,0.9725342,-30.50342,3.213928,-26.2775,2.725525,0.4990889,0.4559235,1.0,0.1144408999999999,0.08067322,0.9901428,35.391740000000006,2.818359,-27.78111,3.361588,0.3951782,0.4665202999999999,-0.2796288,1.256368,-0.267659,-0.06898604,0.7390783000000001,0.01894254,0.4987738,-63.27137,35.35
4,-0.03952026,0.07461548,0.9964142,1.0,-0.2228087999999999,0.06365967,0.9727783,-30.50903,3.213806,-26.2766,2.722168,0.4992729999999999,0.45632,1.0,0.1126250999999999,0.08174133,0.9902649,35.38983,2.814331,-27.780040000000003,3.361847,0.3954591,0.4665202999999999,-0.2795804,1.256285,-0.2676597,-0.0691577,0.7389701999999999,0.01888602,0.4987738,-63.27137,35.35
4,-0.03952026,0.07461548,0.9964142,1.0,-0.2228087999999999,0.06365967,0.9727783,-30.50903,3.213806,-26.2766,2.722168,0.4992729999999999,0.45632,1.0,0.1126250999999999,0.08174133,0.9902649,35.38983,2.814331,-27.780040000000003,3.361847,0.3954591,0.4665202999999999,-0.2795804,1.256285,-0.2676597,-0.0691577,0.7389701999999999,0.01888602,0.4987738,-63.27137,35.35
4,-0.03952026,0.07461548,0.9964142,1.0,-0.2228087999999999,0.06365967,0.9727783,-30.50903,3.213806,-26.2766,2.722168,0.4992729999999999,0.45632,1.0,0.1126250999999999,0.08174133,0.9902649,35.38983,2.814331,-27.780040000000003,3.361847,0.3954591,0.4665202999999999,-0.2795804,1.256285,-0.2676597,-0.0691577,0.7389701999999999,0.01888602,0.4987738,-63.27137,35.35
