Second,eye_comb_direction_x,eye_comb_direction_y,eye_comb_direction_z,eye_r_openness,eye_r_direction_x,eye_r_direction_y,eye_r_direction_z,eye_r_origin_x,eye_r_origin_y,eye_r_origin_z,eye_r_pupil_diameter,eye_r_pupil_position_x,eye_r_pupil_position_y,eye_l_openness,eye_l_direction_x,eye_l_direction_y,eye_l_direction_z,eye_l_origin_x,eye_l_origin_y,eye_l_origin_z,eye_l_pupil_diameter,eye_l_pupil_position_x,eye_l_pupil_position_y,head_position_x,head_position_y,head_position_z,head_rotation_roll,head_rotation_pitch,head_rotation_yaw,EDA,BVP,TMP
0,0.0074768069999999,0.07752991,0.9969482,1.0,-0.01641846,0.08610535,0.9961395,-32.60233,-0.548233,-30.36237,5.911773999999999,0.5292909,0.6068302,1.0,0.009902954,0.0766449,0.996994,36.01273,-3.935486,-29.91858,6.050995,0.3790255,0.7227005999999999,-0.4476126,1.036109,-0.1620971,0.02985168,0.6799736999999999,-0.08150877,0.02265472563259219,-0.6569955150949023,25.64694414316703
0,0.0074768069999999,0.07752991,0.9969482,1.0,-0.01641846,0.08610535,0.9961395,-32.60233,-0.548233,-30.36237,5.911773999999999,0.5292909,0.6068302,1.0,0.009902954,0.0766449,0.996994,36.01273,-3.935486,-29.91858,6.050995,0.3790255,0.7227005999999999,-0.4476126,1.036109,-0.1620971,0.02985168,0.6799736999999999,-0.08150877,0.02265472563259219,-0.6569955150949023,25.64694414316703
0,0.0074768069999999,0.07752991,0.9969482,1.0,-0.01641846,0.08610535,0.9961395,-32.60233,-0.548233,-30.36237,5.911773999999999,0.5292909,0.6068302,1.0,0.009902954,0.0766449,0.996994,36.01273,-3.935486,-29.91858,6.050995,0.3790255,0.7227005999999999,-0.4476126,1.036109,-0.1620971,0.02985168,0.6799736999999999,-0.08150877,0.02265472563259219,-0.6569955150949023,25.64694414316703
0,0.0074768069999999,0.07752991,0.9969482,1.0,-0.01641846,0.08610535,0.9961395,-32.60233,-0.548233,-30.36237,5.911773999999999,0.5292909,0.6068302,1.0,0.009902954,0.0766449,0.996994,36.01273,-3.935486,-29.91858,6.050995,0.3790255,0.7227005999999999,-0.4476126,1.036109,-0.1620971,0.02985168,0.6799736999999999,-0.08150877,0.02265472563259219,-0.6569955150949023,25.64694414316703
0,0.01391602,0.07254028,0.9972534,1.0,-0.02854919,0.08879089,0.995636,-32.57767,-0.7420959,-29.81424,6.014679,0.5302157,0.6076308000000001,1.0,0.0151824999999999,0.072052,0.9972839,36.05344,-4.007477,-29.876890000000003,6.06723,0.3765388,0.7257068,-0.447431,1.035948,-0.1612741,0.03106713,0.6797504,-0.08060568,0.02265472563259219,-0.6569955150949023,25.64694414316703
0,0.01391602,0.07254028,0.9972534,1.0,-0.02854919,0.08879089,0.995636,-32.57767,-0.7420959,-29.81424,6.014679,0.5302157,0.6076308000000001,1.0,0.0151824999999999,0.072052,0.9972839,36.05344,-4.007477,-29.876890000000003,6.06723,0.3765388,0.7257068,-0.447431,1.035948,-0.1612741,0.03106713,0.6797504,-0.08060568,0.02265472563259219,-0.6569955150949023,25.64694414316703
0,0.01391602,0.07254028,0.9972534,1.0,-0.02854919,0.08879089,0.995636,-32.57767,-0.7420959,-29.81424,6.014679,0.5302157,0.6076308000000001,1.0,0.0151824999999999,0.072052,0.9972839,36.05344,-4.007477,-29.876890000000003,6.06723,0.3765388,0.7257068,-0.447431,1.035948,-0.1612741,0.03106713,0.6797504,-0.08060568,0.02265472563259219,-0.6569955150949023,25.64694414316703
0,-0.0020294189999999,0.07844543,0.9969025,1.0,-0.03089905,0.08824158,0.9956055,-32.5666,-0.7420959,-29.81424,5.9797970000000005,0.5302157,0.6076467,1.0,-0.001998901,0.07843018,0.9969025,36.05487,-4.007477,-29.88623,6.07605,0.3794907,0.7247015,-0.4474058,1.035831,-0.1608749,0.03159671,0.6794909,-0.08056694,0.02265472563259219,-0.6569955150949023,25.64694414316703
0,-0.0020294189999999,0.07844543,0.9969025,1.0,-0.03089905,0.08824158,0.9956055,-32.5666,-0.7420959,-29.81424,5.9797970000000005,0.5302157,0.6076467,1.0,-0.001998901,0.07843018,0.9969025,36.05487,-4.007477,-29.88623,6.07605,0.3794907,0.7247015,-0.4474058,1.035831,-0.1608749,0.03159671,0.6794909,-0.08056694,0.02265472563259219,-0.6569955150949023,25.64694414316703
0,-0.0020294189999999,0.07844543,0.9969025,1.0,-0.03089905,0.08824158,0.9956055,-32.5666,-0.7420959,-29.81424,5.9797970000000005,0.5302157,0.6076467,1.0,-0.001998901,0.07843018,0.9969025,36.05487,-4.007477,-29.88623,6.07605,0.3794907,0.7247015,-0.4474058,1.035831,-0.1608749,0.03159671,0.6794909,-0.08056694,0.02265472563259219,-0.6569955150949023,25.64694414316703
0,-0.004501343,0.0770873999999999,0.9970093,1.0,-0.02854919,0.08808899,0.995697,-32.50029,-0.8389281999999999,-29.74481,5.837006,0.5275246,0.6101036,1.0,-0.004486084,0.0770873999999999,0.9970093,36.06456,-3.986984,-29.99059,6.036804,0.3794907,0.7253461999999999,-0.4473486,1.035854,-0.1604948,0.03202887,0.6790605,-0.07976326,0.02265472563259219,-0.6569955150949023,25.64694414316703
0,-0.004501343,0.0770873999999999,0.9970093,1.0,-0.02854919,0.08808899,0.995697,-32.50029,-0.8389281999999999,-29.74481,5.837006,0.5275246,0.6101036,1.0,-0.004486084,0.0770873999999999,0.9970093,36.06456,-3.986984,-29.99059,6.036804,0.3794907,0.7253461999999999,-0.4473486,1.035854,-0.1604948,0.03202887,0.6790605,-0.07976326,0.02265472563259219,-0.6569955150949023,25.64694414316703
0,-0.004501343,0.0770873999999999,0.9970093,1.0,-0.02854919,0.08808899,0.995697,-32.50029,-0.8389281999999999,-29.74481,5.837006,0.5275246,0.6101036,1.0,-0.004486084,0.0770873999999999,0.9970093,36.06456,-3.986984,-29.99059,6.036804,0.3794907,0.7253461999999999,-0.4473486,1.035854,-0.1604948,0.03202887,0.6790605,-0.07976326,0.02265472563259219,-0.6569955150949023,25.64694414316703
0,0.01649475,0.07037354,0.9973755,1.0,-0.03475952,0.09437561,0.9949188,-32.48567,-0.8123627,-29.72189,5.8117980000000005,0.528049,0.6078802,1.0,0.01669312,0.07026672,0.9973755,36.09918,-3.973175,-29.97153,5.903564,0.3746232,0.7256144,-0.4472322,1.035956,-0.1599838,0.03283465,0.6780978,-0.07846121,0.02265472563259219,-0.6569955150949023,25.64694414316703
0,0.01649475,0.07037354,0.9973755,1.0,-0.03475952,0.09437561,0.9949188,-32.48567,-0.8123627,-29.72189,5.8117980000000005,0.528049,0.6078802,1.0,0.01669312,0.07026672,0.9973755,36.09918,-3.973175,-29.97153,5.903564,0.3746232,0.7256144,-0.4472322,1.035956,-0.1599838,0.03283465,0.6780978,-0.07846121,0.02265472563259219,-0.6569955150949023,25.64694414316703
0,0.01649475,0.07037354,0.9973755,1.0,-0.03475952,0.09437561,0.9949188,-32.48567,-0.8123627,-29.72189,5.8117980000000005,0.528049,0.6078802,1.0,0.01669312,0.07026672,0.9973755,36.09918,-3.973175,-29.97153,5.903564,0.3746232,0.7256144,-0.4472322,1.035956,-0.1599838,0.03283465,0.6780978,-0.07846121,0.02265472563259219,-0.6569955150949023,25.64694414316703
0,0.01649475,0.07037354,0.9973755,1.0,-0.03475952,0.09437561,0.9949188,-32.48567,-0.8123627,-29.72189,5.8117980000000005,0.528049,0.6078802,1.0,0.01669312,0.07026672,0.9973755,36.09918,-3.973175,-29.97153,5.903564,0.3746232,0.7256144,-0.4472789000000001,1.035937,-0.1597361,0.03350146,0.6779629,-0.07801797,0.02265472563259219,-0.6569955150949023,25.64694414316703
0,0.01649475,0.07037354,0.9973755,1.0,-0.03475952,0.09437561,0.9949188,-32.48567,-0.8123627,-29.72189,5.8117980000000005,0.528049,0.6078802,1.0,0.01669312,0.07026672,0.9973755,36.09918,-3.973175,-29.97153,5.903564,0.3746232,0.7256144,-0.4472789000000001,1.035937,-0.1597361,0.03350146,0.6779629,-0.07801797,0.02265472563259219,-0.6569955150949023,25.64694414316703
0,0.01649475,0.07037354,0.9973755,1.0,-0.03475952,0.09437561,0.9949188,-32.48567,-0.8123627,-29.72189,5.8117980000000005,0.528049,0.6078802,1.0,0.01669312,0.07026672,0.9973755,36.09918,-3.973175,-29.97153,5.903564,0.3746232,0.7256144,-0.4472789000000001,1.035937,-0.1597361,0.03350146,0.6779629,-0.07801797,0.02265472563259219,-0.6569955150949023,25.64694414316703
0,0.01649475,0.07037354,0.9973755,1.0,-0.03475952,0.09437561,0.9949188,-32.48567,-0.8123627,-29.72189,5.8117980000000005,0.528049,0.6078802,1.0,0.01669312,0.07026672,0.9973755,36.09918,-3.973175,-29.97153,5.903564,0.3746232,0.7256144,-0.4475285,1.035919,-0.1595366,0.03406516,0.6782523,-0.07841671,0.02265472563259219,-0.6569955150949023,25.64694414316703
0,0.01649475,0.07037354,0.9973755,1.0,-0.03475952,0.09437561,0.9949188,-32.48567,-0.8123627,-29.72189,5.8117980000000005,0.528049,0.6078802,1.0,0.01669312,0.07026672,0.9973755,36.09918,-3.973175,-29.97153,5.903564,0.3746232,0.7256144,-0.4475285,1.035919,-0.1595366,0.03406516,0.6782523,-0.07841671,0.02265472563259219,-0.6569955150949023,25.64694414316703
0,0.01649475,0.07037354,0.9973755,1.0,-0.03475952,0.09437561,0.9949188,-32.48567,-0.8123627,-29.72189,5.8117980000000005,0.528049,0.6078802,1.0,0.01669312,0.07026672,0.9973755,36.09918,-3.973175,-29.97153,5.903564,0.3746232,0.7256144,-0.4475285,1.035919,-0.1595366,0.03406516,0.6782523,-0.07841671,0.02265472563259219,-0.6569955150949023,25.64694414316703
0,-0.01586914,0.08518982,0.9962311,1.0,-0.03596497,0.08853149,0.9954224,-32.45833,-0.9738922,-29.60223,5.790131,0.5272629,0.6131573,1.0,-0.01585388,0.08518982,0.9962311,36.09416,-4.039733999999999,-29.95457,5.85849,0.380525,0.7250949999999999,-0.447611,1.036132,-0.158681,0.03403633,0.6775039,-0.07640161,0.02265472563259219,-0.6569955150949023,25.64694414316703
0,-0.01586914,0.08518982,0.9962311,1.0,-0.03596497,0.08853149,0.9954224,-32.45833,-0.9738922,-29.60223,5.790131,0.5272629,0.6131573,1.0,-0.01585388,0.08518982,0.9962311,36.09416,-4.039733999999999,-29.95457,5.85849,0.380525,0.7250949999999999,-0.447611,1.036132,-0.158681,0.03403633,0.6775039,-0.07640161,0.02265472563259219,-0.6569955150949023,25.64694414316703
0,-0.01586914,0.08518982,0.9962311,1.0,-0.03596497,0.08853149,0.9954224,-32.45833,-0.9738922,-29.60223,5.790131,0.5272629,0.6131573,1.0,-0.01585388,0.08518982,0.9962311,36.09416,-4.039733999999999,-29.95457,5.85849,0.380525,0.7250949999999999,-0.447611,1.036132,-0.158681,0.03403633,0.6775039,-0.07640161,0.02265472563259219,-0.6569955150949023,25.64694414316703
0,-0.01586914,0.08518982,0.9962311,1.0,-0.03596497,0.08853149,0.9954224,-32.45833,-0.9738922,-29.60223,5.790131,0.5272629,0.6131573,1.0,-0.01585388,0.08518982,0.9962311,36.09416,-4.039733999999999,-29.95457,5.85849,0.380525,0.7250949999999999,-0.4478447,1.036194,-0.1579766,0.03430257,0.6765949,-0.07560689,0.02265472563259219,-0.6569955150949023,25.64694414316703
0,-0.01586914,0.08518982,0.9962311,1.0,-0.03596497,0.08853149,0.9954224,-32.45833,-0.9738922,-29.60223,5.790131,0.5272629,0.6131573,1.0,-0.01585388,0.08518982,0.9962311,36.09416,-4.039733999999999,-29.95457,5.85849,0.380525,0.7250949999999999,-0.4478447,1.036194,-0.1579766,0.03430257,0.6765949,-0.07560689,0.02265472563259219,-0.6569955150949023,25.64694414316703
0,-0.01586914,0.08518982,0.9962311,1.0,-0.03596497,0.08853149,0.9954224,-32.45833,-0.9738922,-29.60223,5.790131,0.5272629,0.6131573,1.0,-0.01585388,0.08518982,0.9962311,36.09416,-4.039733999999999,-29.95457,5.85849,0.380525,0.7250949999999999,-0.4478447,1.036194,-0.1579766,0.03430257,0.6765949,-0.07560689,0.02265472563259219,-0.6569955150949023,25.64694414316703
0,-0.02027893,0.09907532,0.9948578,1.0,-0.04234314,0.1093903,0.9930878,-32.375640000000004,-1.304199,-28.77095,5.668488,0.525135,0.6123202,1.0,-0.02027893,0.09907532,0.9948578,36.2196,-4.110183999999999,-29.93047,5.758759,0.3768864999999999,0.7247368000000001,-0.4480977,1.036351,-0.1571521,0.03370589,0.6752842,-0.07508669,0.02265472563259219,20.16133,25.64694414316703
1,-0.02027893,0.09907532,0.9948578,1.0,-0.04234314,0.1093903,0.9930878,-32.375640000000004,-1.304199,-28.77095,5.668488,0.525135,0.6123202,1.0,-0.02027893,0.09907532,0.9948578,36.2196,-4.110183999999999,-29.93047,5.758759,0.3768864999999999,0.7247368000000001,-0.4480977,1.036351,-0.1571521,0.03370589,0.6752842,-0.07508669,0.02265472563259219,20.16133,25.64694414316703
1,-0.02027893,0.09907532,0.9948578,1.0,-0.04234314,0.1093903,0.9930878,-32.375640000000004,-1.304199,-28.77095,5.668488,0.525135,0.6123202,1.0,-0.02027893,0.09907532,0.9948578,36.2196,-4.110183999999999,-29.93047,5.758759,0.3768864999999999,0.7247368000000001,-0.4480977,1.036351,-0.1571521,0.03370589,0.6752842,-0.07508669,0.02265472563259219,20.16133,25.64694414316703
1,-0.02467346,0.09169006,0.9954681,1.0,-0.03530884,0.1126250999999999,0.9929962,-32.37103,-1.384964,-28.15434,5.632065,0.5235544,0.6082693,1.0,-0.02349854,0.08934021,0.9957123,36.22339,-4.41568,-28.70743,5.710983000000001,0.3784386,0.723061,-0.4480124,1.036834,-0.1563777,0.03388089,0.6727129,-0.07176268,0.02265472563259219,20.16133,25.64694414316703
1,-0.02467346,0.09169006,0.9954681,1.0,-0.03530884,0.1126250999999999,0.9929962,-32.37103,-1.384964,-28.15434,5.632065,0.5235544,0.6082693,1.0,-0.02349854,0.08934021,0.9957123,36.22339,-4.41568,-28.70743,5.710983000000001,0.3784386,0.723061,-0.4480124,1.036834,-0.1563777,0.03388089,0.6727129,-0.07176268,0.02265472563259219,20.16133,25.64694414316703
1,-0.02467346,0.09169006,0.9954681,1.0,-0.03530884,0.1126250999999999,0.9929962,-32.37103,-1.384964,-28.15434,5.632065,0.5235544,0.6082693,1.0,-0.02349854,0.08934021,0.9957123,36.22339,-4.41568,-28.70743,5.710983000000001,0.3784386,0.723061,-0.4480124,1.036834,-0.1563777,0.03388089,0.6727129,-0.07176268,0.02265472563259219,20.16133,25.64694414316703
1,-0.03363037,0.09785461,0.9946289,1.0,-0.03382874,0.0978241,0.9946136,-32.38921,-1.497284,-28.20932,5.544586,0.523931,0.6149456,1.0,-0.01898193,0.100708,0.9947205,36.21815,-4.573273,-28.6024,5.766953,0.3778815,0.7255461999999999,-0.448216,1.036957,-0.1558166,0.03383996,0.6712033000000001,-0.07089256,0.02265472563259219,20.16133,25.64694414316703
1,-0.03363037,0.09785461,0.9946289,1.0,-0.03382874,0.0978241,0.9946136,-32.38921,-1.497284,-28.20932,5.544586,0.523931,0.6149456,1.0,-0.01898193,0.100708,0.9947205,36.21815,-4.573273,-28.6024,5.766953,0.3778815,0.7255461999999999,-0.448216,1.036957,-0.1558166,0.03383996,0.6712033000000001,-0.07089256,0.02265472563259219,20.16133,25.64694414316703
1,-0.03363037,0.09785461,0.9946289,1.0,-0.03382874,0.0978241,0.9946136,-32.38921,-1.497284,-28.20932,5.544586,0.523931,0.6149456,1.0,-0.01898193,0.100708,0.9947205,36.21815,-4.573273,-28.6024,5.766953,0.3778815,0.7255461999999999,-0.448216,1.036957,-0.1558166,0.03383996,0.6712033000000001,-0.07089256,0.02265472563259219,20.16133,25.64694414316703
1,-0.02009583,0.098526,0.9949188,1.0,-0.03886414,0.101059,0.9941101,-32.4655,-1.35228,-28.969990000000003,5.608429,0.5276833000000001,0.617263,1.0,-0.02009583,0.098526,0.9949188,36.17117,-4.627609,-28.553420000000003,5.729385,0.379734,0.7272295,-0.4487899999999999,1.037028,-0.1546485,0.03179094,0.6683365,-0.07240422,0.02265472563259219,20.16133,25.64694414316703
1,-0.02009583,0.098526,0.9949188,1.0,-0.03886414,0.101059,0.9941101,-32.4655,-1.35228,-28.969990000000003,5.608429,0.5276833000000001,0.617263,1.0,-0.02009583,0.098526,0.9949188,36.17117,-4.627609,-28.553420000000003,5.729385,0.379734,0.7272295,-0.4487899999999999,1.037028,-0.1546485,0.03179094,0.6683365,-0.07240422,0.02265472563259219,20.16133,25.64694414316703
1,-0.02009583,0.098526,0.9949188,1.0,-0.03886414,0.101059,0.9941101,-32.4655,-1.35228,-28.969990000000003,5.608429,0.5276833000000001,0.617263,1.0,-0.02009583,0.098526,0.9949188,36.17117,-4.627609,-28.553420000000003,5.729385,0.379734,0.7272295,-0.4487899999999999,1.037028,-0.1546485,0.03179094,0.6683365,-0.07240422,0.02265472563259219,20.16133,25.64694414316703
1,-0.04737854,0.06971741,0.9964294,1.0,-0.03091431,0.09170532,0.9953003,-32.4575,-1.057327,-29.237340000000003,5.362946,0.5262061,0.6111488,1.0,-0.04737854,0.06971741,0.9964294,36.15561,-4.371094,-28.6223,5.405533,0.385155,0.7234353,-0.4488147,1.0375370000000002,-0.1539641,0.02980529,0.666021,-0.0703686,0.02265472563259219,20.16133,25.64694414316703
1,-0.04737854,0.06971741,0.9964294,1.0,-0.03091431,0.09170532,0.9953003,-32.4575,-1.057327,-29.237340000000003,5.362946,0.5262061,0.6111488,1.0,-0.04737854,0.06971741,0.9964294,36.15561,-4.371094,-28.6223,5.405533,0.385155,0.7234353,-0.4488147,1.0375370000000002,-0.1539641,0.02980529,0.666021,-0.0703686,0.02265472563259219,20.16133,25.64694414316703
1,-0.04737854,0.06971741,0.9964294,1.0,-0.03091431,0.09170532,0.9953003,-32.4575,-1.057327,-29.237340000000003,5.362946,0.5262061,0.6111488,1.0,-0.04737854,0.06971741,0.9964294,36.15561,-4.371094,-28.6223,5.405533,0.385155,0.7234353,-0.4488147,1.0375370000000002,-0.1539641,0.02980529,0.666021,-0.0703686,0.02265472563259219,20.16133,25.64694414316703
1,-0.04737854,0.06971741,0.9964294,1.0,-0.03091431,0.09170532,0.9953003,-32.4575,-1.057327,-29.237340000000003,5.362946,0.5262061,0.6111488,1.0,-0.04737854,0.06971741,0.9964294,36.15561,-4.371094,-28.6223,5.405533,0.385155,0.7234353,-0.449474,1.037921,-0.1526762,0.02631472,0.6615611,-0.0717717,0.02265472563259219,-28.32393,25.64694414316703
1,-0.04737854,0.06971741,0.9964294,1.0,-0.03091431,0.09170532,0.9953003,-32.4575,-1.057327,-29.237340000000003,5.362946,0.5262061,0.6111488,1.0,-0.04737854,0.06971741,0.9964294,36.15561,-4.371094,-28.6223,5.405533,0.385155,0.7234353,-0.449474,1.037921,-0.1526762,0.02631472,0.6615611,-0.0717717,0.02265472563259219,-28.32393,25.64694414316703
1,-0.04737854,0.06971741,0.9964294,1.0,-0.03091431,0.09170532,0.9953003,-32.4575,-1.057327,-29.237340000000003,5.362946,0.5262061,0.6111488,1.0,-0.04737854,0.06971741,0.9964294,36.15561,-4.371094,-28.6223,5.405533,0.385155,0.7234353,-0.449474,1.037921,-0.1526762,0.02631472,0.6615611,-0.0717717,0.02265472563259219,-28.32393,25.64694414316703
1,-0.04737854,0.06971741,0.9964294,1.0,-0.03091431,0.09170532,0.9953003,-32.4575,-1.057327,-29.237340000000003,5.362946,0.5262061,0.6111488,1.0,-0.04737854,0.06971741,0.9964294,36.15561,-4.371094,-28.6223,5.405533,0.385155,0.7234353,-0.4495648,1.038524,-0.1516735,0.02276022,0.6577826999999999,-0.06978236,0.02265472563259219,-28.32393,25.64694414316703
1,-0.04737854,0.06971741,0.9964294,1.0,-0.03091431,0.09170532,0.9953003,-32.4575,-1.057327,-29.237340000000003,5.362946,0.5262061,0.6111488,1.0,-0.04737854,0.06971741,0.9964294,36.15561,-4.371094,-28.6223,5.405533,0.385155,0.7234353,-0.4495648,1.038524,-0.1516735,0.02276022,0.6577826999999999,-0.06978236,0.02265472563259219,-28.32393,25.64694414316703
1,-0.04737854,0.06971741,0.9964294,1.0,-0.03091431,0.09170532,0.9953003,-32.4575,-1.057327,-29.237340000000003,5.362946,0.5262061,0.6111488,1.0,-0.04737854,0.06971741,0.9964294,36.15561,-4.371094,-28.6223,5.405533,0.385155,0.7234353,-0.4495648,1.038524,-0.1516735,0.02276022,0.6577826999999999,-0.06978236,0.02265472563259219,-28.32393,25.64694414316703
1,-0.05218506,0.05117798,0.9973145,1.0,-0.06626892,0.06781006,0.9954834,-32.52238,-0.7167664,-30.19766,5.255722,0.534833,0.6133013,1.0,-0.05218506,0.05117798,0.9973145,35.9791,-4.214554,-29.120240000000003,5.43013,0.3917317999999999,0.7269194,-0.4494832,1.039486,-0.1507656,0.01970576,0.6521486999999999,-0.06560443,0.02265472563259219,-28.32393,25.64694414316703
1,-0.05218506,0.05117798,0.9973145,1.0,-0.06626892,0.06781006,0.9954834,-32.52238,-0.7167664,-30.19766,5.255722,0.534833,0.6133013,1.0,-0.05218506,0.05117798,0.9973145,35.9791,-4.214554,-29.120240000000003,5.43013,0.3917317999999999,0.7269194,-0.4494832,1.039486,-0.1507656,0.01970576,0.6521486999999999,-0.06560443,0.02265472563259219,-28.32393,25.64694414316703
1,-0.05218506,0.05117798,0.9973145,1.0,-0.06626892,0.06781006,0.9954834,-32.52238,-0.7167664,-30.19766,5.255722,0.534833,0.6133013,1.0,-0.05218506,0.05117798,0.9973145,35.9791,-4.214554,-29.120240000000003,5.43013,0.3917317999999999,0.7269194,-0.4494832,1.039486,-0.1507656,0.01970576,0.6521486999999999,-0.06560443,0.02265472563259219,-28.32393,25.64694414316703
1,-0.06222534,0.03808594,0.9973297,1.0,-0.06448364,0.07424927,0.9951477,-32.7084,-1.096893,-29.81651,5.331558,0.540719,0.6214847,1.0,-0.06219482,0.0375824,0.997345,35.845290000000006,-4.260345,-29.38751,5.207825,0.3979498,0.7337395999999999,-0.4501436,1.039438,-0.150247,0.01719936,0.6492028000000001,-0.06981995,0.02265472563259219,-28.32393,25.64694414316703
1,-0.06222534,0.03808594,0.9973297,1.0,-0.06448364,0.07424927,0.9951477,-32.7084,-1.096893,-29.81651,5.331558,0.540719,0.6214847,1.0,-0.06219482,0.0375824,0.997345,35.845290000000006,-4.260345,-29.38751,5.207825,0.3979498,0.7337395999999999,-0.4501436,1.039438,-0.150247,0.01719936,0.6492028000000001,-0.06981995,0.02265472563259219,-28.32393,25.64694414316703
1,-0.06222534,0.03808594,0.9973297,1.0,-0.06448364,0.07424927,0.9951477,-32.7084,-1.096893,-29.81651,5.331558,0.540719,0.6214847,1.0,-0.06219482,0.0375824,0.997345,35.845290000000006,-4.260345,-29.38751,5.207825,0.3979498,0.7337395999999999,-0.4501436,1.039438,-0.150247,0.01719936,0.6492028000000001,-0.06981995,0.02265472563259219,-28.32393,25.64694414316703
1,-0.06439209,0.007919312,0.997879,1.0,-0.06817627,0.04788208,0.996521,-32.91859,-1.095306,-29.76503,5.220154,0.5484981,0.6252795,1.0,-0.06391907,0.0029296879999999,0.9979401,35.7971,-4.137726,-29.64708,4.993835,0.3997519,0.7382717,-0.4501436,1.039438,-0.150247,0.01719936,0.6492028000000001,-0.06981995,0.02265472563259219,-28.32393,25.64694414316703
1,-0.06439209,0.007919312,0.997879,1.0,-0.06817627,0.04788208,0.996521,-32.91859,-1.095306,-29.76503,5.220154,0.5484981,0.6252795,1.0,-0.06391907,0.0029296879999999,0.9979401,35.7971,-4.137726,-29.64708,4.993835,0.3997519,0.7382717,-0.4501436,1.039438,-0.150247,0.01719936,0.6492028000000001,-0.06981995,0.02265472563259219,-28.32393,25.64694414316703
1,-0.06439209,0.007919312,0.997879,1.0,-0.06817627,0.04788208,0.996521,-32.91859,-1.095306,-29.76503,5.220154,0.5484981,0.6252795,1.0,-0.06391907,0.0029296879999999,0.9979401,35.7971,-4.137726,-29.64708,4.993835,0.3997519,0.7382717,-0.4501436,1.039438,-0.150247,0.01719936,0.6492028000000001,-0.06981995,0.02265472563259219,-28.32393,25.64694414316703
1,-1.0,-1.0,-1.0,0.3377852,0.0,0.0,0.0,-32.922,-1.814194,-29.54373,-1.0,-1.0,-1.0,0.1638672,0.0,0.0,0.0,35.74158,-5.233521,-29.40935,-1.0,-1.0,-1.0,-0.4507544,1.039956,-0.1499591,0.007969705,0.6471075,-0.07305309,0.02265472563259219,37.42389,25.64694414316703
1,-1.0,-1.0,-1.0,0.3377852,0.0,0.0,0.0,-32.922,-1.814194,-29.54373,-1.0,-1.0,-1.0,0.1638672,0.0,0.0,0.0,35.74158,-5.233521,-29.40935,-1.0,-1.0,-1.0,-0.4507544,1.039956,-0.1499591,0.007969705,0.6471075,-0.07305309,0.02265472563259219,37.42389,25.64694414316703
1,-1.0,-1.0,-1.0,0.3377852,0.0,0.0,0.0,-32.922,-1.814194,-29.54373,-1.0,-1.0,-1.0,0.1638672,0.0,0.0,0.0,35.74158,-5.233521,-29.40935,-1.0,-1.0,-1.0,-0.4507544,1.039956,-0.1499591,0.007969705,0.6471075,-0.07305309,0.02265472563259219,37.42389,25.64694414316703
1,-1.0,-1.0,-1.0,0.2174118,0.0,0.0,0.0,-32.922,-1.814194,-29.54373,-1.0,0.5103441,0.7766541,0.1231786,0.0,0.0,0.0,35.74158,-5.233521,-29.40935,-1.0,-1.0,-1.0,-0.4504975999999999,1.041339,-0.1498203,0.001125433,0.6486014,-0.0725148,0.02265472563259219,37.42389,25.64694414316703
1,-1.0,-1.0,-1.0,0.2174118,0.0,0.0,0.0,-32.922,-1.814194,-29.54373,-1.0,0.5103441,0.7766541,0.1231786,0.0,0.0,0.0,35.74158,-5.233521,-29.40935,-1.0,-1.0,-1.0,-0.4504975999999999,1.041339,-0.1498203,0.001125433,0.6486014,-0.0725148,0.02265472563259219,37.42389,25.64694414316703
1,-1.0,-1.0,-1.0,0.2174118,0.0,0.0,0.0,-32.922,-1.814194,-29.54373,-1.0,0.5103441,0.7766541,0.1231786,0.0,0.0,0.0,35.74158,-5.233521,-29.40935,-1.0,-1.0,-1.0,-0.4504975999999999,1.041339,-0.1498203,0.001125433,0.6486014,-0.0725148,0.02265472563259219,37.42389,25.64694414316703
1,-1.0,-1.0,-1.0,0.3705997,0.0,0.0,0.0,-32.922,-1.814194,-29.54373,-1.0,0.5353526999999999,0.741172,0.1567013,0.0,0.0,0.0,35.74158,-5.233521,-29.40935,-1.0,0.3897585,0.9147105,-0.4504975999999999,1.041339,-0.1498203,0.001125433,0.6486014,-0.0725148,0.02265472563259219,37.42389,25.64694414316703
1,-1.0,-1.0,-1.0,0.3705997,0.0,0.0,0.0,-32.922,-1.814194,-29.54373,-1.0,0.5353526999999999,0.741172,0.1567013,0.0,0.0,0.0,35.74158,-5.233521,-29.40935,-1.0,0.3897585,0.9147105,-0.4504975999999999,1.041339,-0.1498203,0.001125433,0.6486014,-0.0725148,0.02265472563259219,37.42389,25.64694414316703
1,-1.0,-1.0,-1.0,0.3705997,0.0,0.0,0.0,-32.922,-1.814194,-29.54373,-1.0,0.5353526999999999,0.741172,0.1567013,0.0,0.0,0.0,35.74158,-5.233521,-29.40935,-1.0,0.3897585,0.9147105,-0.4504975999999999,1.041339,-0.1498203,0.001125433,0.6486014,-0.0725148,0.02265472563259219,37.42389,25.64694414316703
1,-1.0,-1.0,-1.0,0.4400687,0.0,0.0,0.0,-32.922,-1.814194,-29.54373,-1.0,0.5307109,0.7460954000000001,0.1911452,0.0,0.0,0.0,35.74158,-5.233521,-29.40935,-1.0,0.3851325,0.8996948,-0.4501696,1.042002,-0.1497111,-0.0020832579999999,0.6504439000000001,-0.07300853,0.02265472563259219,37.42389,25.64694414316703
1,-1.0,-1.0,-1.0,0.4400687,0.0,0.0,0.0,-32.922,-1.814194,-29.54373,-1.0,0.5307109,0.7460954000000001,0.1911452,0.0,0.0,0.0,35.74158,-5.233521,-29.40935,-1.0,0.3851325,0.8996948,-0.4501696,1.042002,-0.1497111,-0.0020832579999999,0.6504439000000001,-0.07300853,0.02265472563259219,37.42389,25.64694414316703
1,-1.0,-1.0,-1.0,0.4400687,0.0,0.0,0.0,-32.922,-1.814194,-29.54373,-1.0,0.5307109,0.7460954000000001,0.1911452,0.0,0.0,0.0,35.74158,-5.233521,-29.40935,-1.0,0.3851325,0.8996948,-0.4501696,1.042002,-0.1497111,-0.0020832579999999,0.6504439000000001,-0.07300853,0.02265472563259219,37.42389,25.64694414316703
1,-1.0,-1.0,-1.0,0.5369808,0.0,0.0,0.0,-32.45428,-2.195847,-29.48822,-1.0,0.5309424,0.7407209,0.295831,0.0,0.0,0.0,36.15559,-5.663176999999999,-29.45653,-1.0,0.3802767,0.9079723,-0.4499556999999999,1.042277,-0.1495902999999999,-0.002295117,0.6521153000000001,-0.07210302,0.02265472563259219,37.42389,25.64694414316703
1,-1.0,-1.0,-1.0,0.5369808,0.0,0.0,0.0,-32.45428,-2.195847,-29.48822,-1.0,0.5309424,0.7407209,0.295831,0.0,0.0,0.0,36.15559,-5.663176999999999,-29.45653,-1.0,0.3802767,0.9079723,-0.4499556999999999,1.042277,-0.1495902999999999,-0.002295117,0.6521153000000001,-0.07210302,0.02265472563259219,37.42389,25.64694414316703
1,-1.0,-1.0,-1.0,0.5369808,0.0,0.0,0.0,-32.45428,-2.195847,-29.48822,-1.0,0.5309424,0.7407209,0.295831,0.0,0.0,0.0,36.15559,-5.663176999999999,-29.45653,-1.0,0.3802767,0.9079723,-0.4499556999999999,1.042277,-0.1495902999999999,-0.002295117,0.6521153000000001,-0.07210302,0.02265472563259219,37.42389,25.64694414316703
1,-0.07987976,-0.3814392,0.920929,0.5993456,-0.08239746,-0.3735199,0.9239502,-32.41333,-2.166946,-29.49724,4.850449,0.5335131999999999,0.735057,0.3637188,-0.03834534,-0.5056152,0.8618927,36.22166,-5.653793,-29.42865,4.817673,0.3738396,0.8960427,-0.4496787,1.042186,-0.1494439,-0.001125433,0.6533088,-0.06969723,0.02265472563259219,-76.76524,25.64694414316703
1,-0.07987976,-0.3814392,0.920929,0.5993456,-0.08239746,-0.3735199,0.9239502,-32.41333,-2.166946,-29.49724,4.850449,0.5335131999999999,0.735057,0.3637188,-0.03834534,-0.5056152,0.8618927,36.22166,-5.653793,-29.42865,4.817673,0.3738396,0.8960427,-0.4496787,1.042186,-0.1494439,-0.001125433,0.6533088,-0.06969723,0.02265472563259219,-76.76524,25.64694414316703
1,-0.07987976,-0.3814392,0.920929,0.5993456,-0.08239746,-0.3735199,0.9239502,-32.41333,-2.166946,-29.49724,4.850449,0.5335131999999999,0.735057,0.3637188,-0.03834534,-0.5056152,0.8618927,36.22166,-5.653793,-29.42865,4.817673,0.3738396,0.8960427,-0.4496787,1.042186,-0.1494439,-0.001125433,0.6533088,-0.06969723,0.02265472563259219,-76.76524,25.64694414316703
1,-0.03308105,-0.3548889,0.9343109,0.6551923000000001,-0.0557251,-0.3728027,0.9262238000000002,-32.45233,-2.179779,-29.48146,4.801147,0.5304194999999999,0.7350871999999999,0.4380542,0.01135254,-0.3188477,0.9477234,36.0757,-6.64743,-29.931790000000003,4.636536,0.370135,0.9006429,-0.4488293,1.0417459999999998,-0.1491524,0.001235868,0.6553126,-0.06626131,0.02265472563259219,-76.76524,25.64694414316703
1,-0.03308105,-0.3548889,0.9343109,0.6551923000000001,-0.0557251,-0.3728027,0.9262238000000002,-32.45233,-2.179779,-29.48146,4.801147,0.5304194999999999,0.7350871999999999,0.4380542,0.01135254,-0.3188477,0.9477234,36.0757,-6.64743,-29.931790000000003,4.636536,0.370135,0.9006429,-0.4488293,1.0417459999999998,-0.1491524,0.001235868,0.6553126,-0.06626131,0.02265472563259219,-76.76524,25.64694414316703
1,-0.03308105,-0.3548889,0.9343109,0.6551923000000001,-0.0557251,-0.3728027,0.9262238000000002,-32.45233,-2.179779,-29.48146,4.801147,0.5304194999999999,0.7350871999999999,0.4380542,0.01135254,-0.3188477,0.9477234,36.0757,-6.64743,-29.931790000000003,4.636536,0.370135,0.9006429,-0.4488293,1.0417459999999998,-0.1491524,0.001235868,0.6553126,-0.06626131,0.02265472563259219,-76.76524,25.64694414316703
1,-0.04318237,-0.4283752,0.9025574,0.6892877,-0.06794739,-0.3809662,0.9220734,-32.46448,-2.194962,-29.48752,4.80043,0.5328732,0.7372890000000001,0.4916103,-0.001235962,-0.5049744,0.8631287,36.27548,-5.540634,-29.37073,4.9635620000000005,0.3654216,0.8907059000000002,-0.4488293,1.0417459999999998,-0.1491524,0.001235868,0.6553126,-0.06626131,0.02265472563259219,-76.76524,25.64694414316703
1,-0.04318237,-0.4283752,0.9025574,0.6892877,-0.06794739,-0.3809662,0.9220734,-32.46448,-2.194962,-29.48752,4.80043,0.5328732,0.7372890000000001,0.4916103,-0.001235962,-0.5049744,0.8631287,36.27548,-5.540634,-29.37073,4.9635620000000005,0.3654216,0.8907059000000002,-0.4488293,1.0417459999999998,-0.1491524,0.001235868,0.6553126,-0.06626131,0.02265472563259219,-76.76524,25.64694414316703
1,-0.04318237,-0.4283752,0.9025574,0.6892877,-0.06794739,-0.3809662,0.9220734,-32.46448,-2.194962,-29.48752,4.80043,0.5328732,0.7372890000000001,0.4916103,-0.001235962,-0.5049744,0.8631287,36.27548,-5.540634,-29.37073,4.9635620000000005,0.3654216,0.8907059000000002,-0.4488293,1.0417459999999998,-0.1491524,0.001235868,0.6553126,-0.06626131,0.02265472563259219,-76.76524,25.64694414316703
1,-0.05259705,-0.3717194,0.9268494,0.7068839,-0.05659485,-0.3598022,0.9312897,-32.50801,-2.193527,-29.50023,4.988739,0.532459,0.7332652,0.5081154,-0.01145935,-0.4888457999999999,0.8722839,36.27765,-5.5929720000000005,-29.38466,4.913071,0.3673165,0.8891190000000001,-0.4485305999999999,1.041342,-0.1492236,0.003417424,0.657875,-0.06658779,0.02265472563259219,-76.76524,25.64694414316703
1,-0.05259705,-0.3717194,0.9268494,0.7068839,-0.05659485,-0.3598022,0.9312897,-32.50801,-2.193527,-29.50023,4.988739,0.532459,0.7332652,0.5081154,-0.01145935,-0.4888457999999999,0.8722839,36.27765,-5.5929720000000005,-29.38466,4.913071,0.3673165,0.8891190000000001,-0.4485305999999999,1.041342,-0.1492236,0.003417424,0.657875,-0.06658779,0.02265472563259219,-76.76524,25.64694414316703
1,-0.05259705,-0.3717194,0.9268494,0.7068839,-0.05659485,-0.3598022,0.9312897,-32.50801,-2.193527,-29.50023,4.988739,0.532459,0.7332652,0.5081154,-0.01145935,-0.4888457999999999,0.8722839,36.27765,-5.5929720000000005,-29.38466,4.913071,0.3673165,0.8891190000000001,-0.4485305999999999,1.041342,-0.1492236,0.003417424,0.657875,-0.06658779,0.02265472563259219,-76.76524,25.64694414316703
1,-0.03237915,-0.4038696,0.9142303,0.7212609,-0.040802,-0.3495636,0.9360046,-32.45732,-2.113983,-29.47615,5.046875,0.5280375,0.728143,0.5249151,-0.01925659,-0.484314,0.8746643,36.37814,-5.594284,-29.4099,4.913284,0.3649792,0.8885548000000001,-0.4483652,1.040919,-0.149311,0.0063859819999999,0.6597703,-0.06388364,0.02265472563259219,-76.76524,25.64694414316703
1,-0.03237915,-0.4038696,0.9142303,0.7212609,-0.040802,-0.3495636,0.9360046,-32.45732,-2.113983,-29.47615,5.046875,0.5280375,0.728143,0.5249151,-0.01925659,-0.484314,0.8746643,36.37814,-5.594284,-29.4099,4.913284,0.3649792,0.8885548000000001,-0.4483652,1.040919,-0.149311,0.0063859819999999,0.6597703,-0.06388364,0.02265472563259219,-76.76524,25.64694414316703
1,-0.03237915,-0.4038696,0.9142303,0.7212609,-0.040802,-0.3495636,0.9360046,-32.45732,-2.113983,-29.47615,5.046875,0.5280375,0.728143,0.5249151,-0.01925659,-0.484314,0.8746643,36.37814,-5.594284,-29.4099,4.913284,0.3649792,0.8885548000000001,-0.4483652,1.040919,-0.149311,0.0063859819999999,0.6597703,-0.06388364,0.02265472563259219,-76.76524,25.64694414316703
1,-0.04400635,-0.3743134,0.926239,0.7351125,-0.05073547,-0.3359375,0.940506,-32.38155,-2.104797,-29.43129,5.004944,0.5270322,0.7247119000000001,0.540116,-0.03404236,-0.4291687,0.9025726,36.49054,-5.573761,-29.38675,5.158722,0.3640751,0.8750848,-0.4484218,1.040375,-0.148843,0.01136713,0.6608304,-0.06149228,0.02265472563259219,-32.53077,25.64694414316703
1,-0.04400635,-0.3743134,0.926239,0.7351125,-0.05073547,-0.3359375,0.940506,-32.38155,-2.104797,-29.43129,5.004944,0.5270322,0.7247119000000001,0.540116,-0.03404236,-0.4291687,0.9025726,36.49054,-5.573761,-29.38675,5.158722,0.3640751,0.8750848,-0.4484218,1.040375,-0.148843,0.01136713,0.6608304,-0.06149228,0.02265472563259219,-32.53077,25.64694414316703
1,-0.04400635,-0.3743134,0.926239,0.7351125,-0.05073547,-0.3359375,0.940506,-32.38155,-2.104797,-29.43129,5.004944,0.5270322,0.7247119000000001,0.540116,-0.03404236,-0.4291687,0.9025726,36.49054,-5.573761,-29.38675,5.158722,0.3640751,0.8750848,-0.4484218,1.040375,-0.148843,0.01136713,0.6608304,-0.06149228,0.02265472563259219,-32.53077,25.64694414316703
1,-0.042099,-0.3579407,0.932785,0.7332838,-0.04870605,-0.3347321,0.94104,-32.37801,-2.104141,-29.42722,5.005447,0.5265694000000001,0.7243925,0.5520094,-0.02793884,-0.406601,0.9131622,36.48077,-5.504486,-29.3685,5.269516,0.3637518,0.8671109,-0.4484218,1.040375,-0.148843,0.01136713,0.6608304,-0.06149228,0.02265472563259219,-32.53077,25.64694414316703
1,-0.042099,-0.3579407,0.932785,0.7332838,-0.04870605,-0.3347321,0.94104,-32.37801,-2.104141,-29.42722,5.005447,0.5265694000000001,0.7243925,0.5520094,-0.02793884,-0.406601,0.9131622,36.48077,-5.504486,-29.3685,5.269516,0.3637518,0.8671109,-0.4484218,1.040375,-0.148843,0.01136713,0.6608304,-0.06149228,0.02265472563259219,-32.53077,25.64694414316703
1,-0.042099,-0.3579407,0.932785,0.7332838,-0.04870605,-0.3347321,0.94104,-32.37801,-2.104141,-29.42722,5.005447,0.5265694000000001,0.7243925,0.5520094,-0.02793884,-0.406601,0.9131622,36.48077,-5.504486,-29.3685,5.269516,0.3637518,0.8671109,-0.4484218,1.040375,-0.148843,0.01136713,0.6608304,-0.06149228,0.02265472563259219,-32.53077,25.64694414316703
1,-0.02934265,-0.3603973,0.9323273,0.7711484000000001,-0.04594421,-0.3204192999999999,0.9461517,-32.31685,-2.037842,-29.38402,4.946976,0.523962,0.7188309,0.5717465,-0.007797241,-0.4110107,0.9115906,36.47424,-5.448119999999999,-29.35905,5.15271,0.3606009,0.8655757,-0.4485380999999999,1.04017,-0.1484597,0.01311915,0.6602315,-0.06067911,0.02265472563259219,-32.53077,25.64694414316703
1,-0.02934265,-0.3603973,0.9323273,0.7711484000000001,-0.04594421,-0.3204192999999999,0.9461517,-32.31685,-2.037842,-29.38402,4.946976,0.523962,0.7188309,0.5717465,-0.007797241,-0.4110107,0.9115906,36.47424,-5.448119999999999,-29.35905,5.15271,0.3606009,0.8655757,-0.4485380999999999,1.04017,-0.1484597,0.01311915,0.6602315,-0.06067911,0.02265472563259219,-32.53077,25.64694414316703
1,-0.02934265,-0.3603973,0.9323273,0.7711484000000001,-0.04594421,-0.3204192999999999,0.9461517,-32.31685,-2.037842,-29.38402,4.946976,0.523962,0.7188309,0.5717465,-0.007797241,-0.4110107,0.9115906,36.47424,-5.448119999999999,-29.35905,5.15271,0.3606009,0.8655757,-0.4485380999999999,1.04017,-0.1484597,0.01311915,0.6602315,-0.06067911,0.02265472563259219,-32.53077,25.64694414316703
1,-0.02755737,-0.3684845,0.9292145,0.7669436,-0.03952026,-0.3229218,0.9455872,-32.32385,-1.962891,-29.35168,5.066162,0.5231135,0.7163098000000001,0.5725965000000001,-0.0165863,-0.409317,0.9122314,36.50568,-5.439285,-29.35481,5.139876999999999,0.3610603,0.8647818000000002,-0.4484840999999999,1.040206,-0.1480999,0.01408366,0.6592284,-0.05889624,0.02265472563259219,-32.53077,25.64694414316703
1,-0.02755737,-0.3684845,0.9292145,0.7669436,-0.03952026,-0.3229218,0.9455872,-32.32385,-1.962891,-29.35168,5.066162,0.5231135,0.7163098000000001,0.5725965000000001,-0.0165863,-0.409317,0.9122314,36.50568,-5.439285,-29.35481,5.139876999999999,0.3610603,0.8647818000000002,-0.4484840999999999,1.040206,-0.1480999,0.01408366,0.6592284,-0.05889624,0.02265472563259219,-32.53077,25.64694414316703
1,-0.02755737,-0.3684845,0.9292145,0.7669436,-0.03952026,-0.3229218,0.9455872,-32.32385,-1.962891,-29.35168,5.066162,0.5231135,0.7163098000000001,0.5725965000000001,-0.0165863,-0.409317,0.9122314,36.50568,-5.439285,-29.35481,5.139876999999999,0.3610603,0.8647818000000002,-0.4484840999999999,1.040206,-0.1480999,0.01408366,0.6592284,-0.05889624,0.02265472563259219,-32.53077,25.64694414316703
1,-0.1395874,-0.3199158,0.937088,0.7914869000000001,-0.1451262999999999,-0.2954254,0.9442749,-32.89626,-1.868912,-29.39825,4.972992,0.5606126,0.7092623,0.6350119000000001,-0.1199951,-0.4017334,0.9078522,35.70389,-5.023224,-29.25044,5.139252,0.4097329,0.8448743000000001,-0.4481858,1.040405,-0.1478317,0.01334327,0.6582956,-0.05792461,0.02265472563259219,-32.53077,25.64694414316703
1,-0.1395874,-0.3199158,0.937088,0.7914869000000001,-0.1451262999999999,-0.2954254,0.9442749,-32.89626,-1.868912,-29.39825,4.972992,0.5606126,0.7092623,0.6350119000000001,-0.1199951,-0.4017334,0.9078522,35.70389,-5.023224,-29.25044,5.139252,0.4097329,0.8448743000000001,-0.4481858,1.040405,-0.1478317,0.01334327,0.6582956,-0.05792461,0.02265472563259219,-32.53077,25.64694414316703
1,-0.1395874,-0.3199158,0.937088,0.7914869000000001,-0.1451262999999999,-0.2954254,0.9442749,-32.89626,-1.868912,-29.39825,4.972992,0.5606126,0.7092623,0.6350119000000001,-0.1199951,-0.4017334,0.9078522,35.70389,-5.023224,-29.25044,5.139252,0.4097329,0.8448743000000001,-0.4481858,1.040405,-0.1478317,0.01334327,0.6582956,-0.05792461,0.02265472563259219,-32.53077,25.64694414316703
1,-0.1395874,-0.3199158,0.937088,0.7914869000000001,-0.1451262999999999,-0.2954254,0.9442749,-32.89626,-1.868912,-29.39825,4.972992,0.5606126,0.7092623,0.6350119000000001,-0.1199951,-0.4017334,0.9078522,35.70389,-5.023224,-29.25044,5.139252,0.4097329,0.8448743000000001,-0.4479672,1.040492,-0.1475337,0.01320858,0.6575979999999999,-0.0579781,0.02265472563259219,80.96466,26.41
1,-0.1395874,-0.3199158,0.937088,0.7914869000000001,-0.1451262999999999,-0.2954254,0.9442749,-32.89626,-1.868912,-29.39825,4.972992,0.5606126,0.7092623,0.6350119000000001,-0.1199951,-0.4017334,0.9078522,35.70389,-5.023224,-29.25044,5.139252,0.4097329,0.8448743000000001,-0.4479672,1.040492,-0.1475337,0.01320858,0.6575979999999999,-0.0579781,0.02265472563259219,80.96466,26.41
1,-0.1395874,-0.3199158,0.937088,0.7914869000000001,-0.1451262999999999,-0.2954254,0.9442749,-32.89626,-1.868912,-29.39825,4.972992,0.5606126,0.7092623,0.6350119000000001,-0.1199951,-0.4017334,0.9078522,35.70389,-5.023224,-29.25044,5.139252,0.4097329,0.8448743000000001,-0.4479672,1.040492,-0.1475337,0.01320858,0.6575979999999999,-0.0579781,0.02265472563259219,80.96466,26.41
1,-0.1395874,-0.3199158,0.937088,0.7914869000000001,-0.1451262999999999,-0.2954254,0.9442749,-32.89626,-1.868912,-29.39825,4.972992,0.5606126,0.7092623,0.6350119000000001,-0.1199951,-0.4017334,0.9078522,35.70389,-5.023224,-29.25044,5.139252,0.4097329,0.8448743000000001,-0.4478452999999999,1.040478,-0.1473422999999999,0.01367392,0.6572541999999999,-0.05817291,0.02265472563259219,80.96466,26.41
1,-0.1395874,-0.3199158,0.937088,0.7914869000000001,-0.1451262999999999,-0.2954254,0.9442749,-32.89626,-1.868912,-29.39825,4.972992,0.5606126,0.7092623,0.6350119000000001,-0.1199951,-0.4017334,0.9078522,35.70389,-5.023224,-29.25044,5.139252,0.4097329,0.8448743000000001,-0.4478452999999999,1.040478,-0.1473422999999999,0.01367392,0.6572541999999999,-0.05817291,0.02265472563259219,80.96466,26.41
1,-0.1395874,-0.3199158,0.937088,0.7914869000000001,-0.1451262999999999,-0.2954254,0.9442749,-32.89626,-1.868912,-29.39825,4.972992,0.5606126,0.7092623,0.6350119000000001,-0.1199951,-0.4017334,0.9078522,35.70389,-5.023224,-29.25044,5.139252,0.4097329,0.8448743000000001,-0.4478452999999999,1.040478,-0.1473422999999999,0.01367392,0.6572541999999999,-0.05817291,0.02265472563259219,80.96466,26.41
1,-0.1376343,-0.3261719,0.9352264,0.815766,-0.1398772999999999,-0.2891692999999999,0.946991,-32.90448,-1.881561,-29.40065,4.921951,0.5600214,0.7084898000000001,0.6456659,-0.1298828,-0.4315491,0.8926849,35.70308,-5.037247,-29.25217,4.980042,0.4113241,0.8518252000000001,-0.4476728,1.040633,-0.1472257,0.01309357,0.6576439000000001,-0.05752851,0.02265472563259219,80.96466,26.41
1,-0.1376343,-0.3261719,0.9352264,0.815766,-0.1398772999999999,-0.2891692999999999,0.946991,-32.90448,-1.881561,-29.40065,4.921951,0.5600214,0.7084898000000001,0.6456659,-0.1298828,-0.4315491,0.8926849,35.70308,-5.037247,-29.25217,4.980042,0.4113241,0.8518252000000001,-0.4476728,1.040633,-0.1472257,0.01309357,0.6576439000000001,-0.05752851,0.02265472563259219,80.96466,26.41
1,-0.1376343,-0.3261719,0.9352264,0.815766,-0.1398772999999999,-0.2891692999999999,0.946991,-32.90448,-1.881561,-29.40065,4.921951,0.5600214,0.7084898000000001,0.6456659,-0.1298828,-0.4315491,0.8926849,35.70308,-5.037247,-29.25217,4.980042,0.4113241,0.8518252000000001,-0.4476728,1.040633,-0.1472257,0.01309357,0.6576439000000001,-0.05752851,0.02265472563259219,80.96466,26.41
1,-0.1376343,-0.3261719,0.9352264,0.815766,-0.1398772999999999,-0.2891692999999999,0.946991,-32.90448,-1.881561,-29.40065,4.921951,0.5600214,0.7084898000000001,0.6456659,-0.1298828,-0.4315491,0.8926849,35.70308,-5.037247,-29.25217,4.980042,0.4113241,0.8518252000000001,-0.4475652,1.040909,-0.147201,0.01238683,0.6583534000000001,-0.0564434,0.02265472563259219,80.96466,26.41
1,-0.1376343,-0.3261719,0.9352264,0.815766,-0.1398772999999999,-0.2891692999999999,0.946991,-32.90448,-1.881561,-29.40065,4.921951,0.5600214,0.7084898000000001,0.6456659,-0.1298828,-0.4315491,0.8926849,35.70308,-5.037247,-29.25217,4.980042,0.4113241,0.8518252000000001,-0.4475652,1.040909,-0.147201,0.01238683,0.6583534000000001,-0.0564434,0.02265472563259219,80.96466,26.41
1,-0.1376343,-0.3261719,0.9352264,0.815766,-0.1398772999999999,-0.2891692999999999,0.946991,-32.90448,-1.881561,-29.40065,4.921951,0.5600214,0.7084898000000001,0.6456659,-0.1298828,-0.4315491,0.8926849,35.70308,-5.037247,-29.25217,4.980042,0.4113241,0.8518252000000001,-0.4475652,1.040909,-0.147201,0.01238683,0.6583534000000001,-0.0564434,0.02265472563259219,80.96466,26.41
1,-0.1411132999999999,-0.3223572,0.9360351999999998,0.815766,-0.1488953,-0.2879180999999999,0.9459991,-32.974470000000004,-1.772202,-29.37825,5.004822,0.5639035,0.7043256999999999,0.6456659,-0.1310883,-0.3650055,0.9217224,35.72954,-4.965912,-29.2515,5.143294999999999,0.4111553,0.834968,-0.4474468,1.040983,-0.1471367999999999,0.01256465,0.658957,-0.05522269,0.02265472563259219,80.96466,26.41
1,-0.1411132999999999,-0.3223572,0.9360351999999998,0.815766,-0.1488953,-0.2879180999999999,0.9459991,-32.974470000000004,-1.772202,-29.37825,5.004822,0.5639035,0.7043256999999999,0.6456659,-0.1310883,-0.3650055,0.9217224,35.72954,-4.965912,-29.2515,5.143294999999999,0.4111553,0.834968,-0.4474468,1.040983,-0.1471367999999999,0.01256465,0.658957,-0.05522269,0.02265472563259219,80.96466,26.41
1,-0.1411132999999999,-0.3223572,0.9360351999999998,0.815766,-0.1488953,-0.2879180999999999,0.9459991,-32.974470000000004,-1.772202,-29.37825,5.004822,0.5639035,0.7043256999999999,0.6456659,-0.1310883,-0.3650055,0.9217224,35.72954,-4.965912,-29.2515,5.143294999999999,0.4111553,0.834968,-0.4474468,1.040983,-0.1471367999999999,0.01256465,0.658957,-0.05522269,0.02265472563259219,80.96466,26.41
2,-0.1448822,-0.3262787,0.9340973,0.8742902,-0.1497345,-0.2877197,0.9459229,-32.973890000000004,-1.7695919999999998,-29.37721,4.987122,0.5640276999999999,0.7041866999999999,0.6751725000000001,-0.1393585,-0.3674164,0.9195404,35.73317,-4.967209,-29.26169,5.134613,0.4124505,0.8357164,-0.4473515999999999,1.041527,-0.1465849,0.0110632,0.6590733,-0.05366268,0.02265472563259219,33.68179,26.41
2,-0.1448822,-0.3262787,0.9340973,0.8742902,-0.1497345,-0.2877197,0.9459229,-32.973890000000004,-1.7695919999999998,-29.37721,4.987122,0.5640276999999999,0.7041866999999999,0.6751725000000001,-0.1393585,-0.3674164,0.9195404,35.73317,-4.967209,-29.26169,5.134613,0.4124505,0.8357164,-0.4473515999999999,1.041527,-0.1465849,0.0110632,0.6590733,-0.05366268,0.02265472563259219,33.68179,26.41
2,-0.1448822,-0.3262787,0.9340973,0.8742902,-0.1497345,-0.2877197,0.9459229,-32.973890000000004,-1.7695919999999998,-29.37721,4.987122,0.5640276999999999,0.7041866999999999,0.6751725000000001,-0.1393585,-0.3674164,0.9195404,35.73317,-4.967209,-29.26169,5.134613,0.4124505,0.8357164,-0.4473515999999999,1.041527,-0.1465849,0.0110632,0.6590733,-0.05366268,0.02265472563259219,33.68179,26.41
2,-0.1448822,-0.3262787,0.9340973,0.8742902,-0.1497345,-0.2877197,0.9459229,-32.973890000000004,-1.7695919999999998,-29.37721,4.987122,0.5640276999999999,0.7041866999999999,0.6751725000000001,-0.1393585,-0.3674164,0.9195404,35.73317,-4.967209,-29.26169,5.134613,0.4124505,0.8357164,-0.4473515999999999,1.041527,-0.1465849,0.0110632,0.6590733,-0.05366268,0.02265472563259219,33.68179,26.41
2,-0.1448822,-0.3262787,0.9340973,0.8742902,-0.1497345,-0.2877197,0.9459229,-32.973890000000004,-1.7695919999999998,-29.37721,4.987122,0.5640276999999999,0.7041866999999999,0.6751725000000001,-0.1393585,-0.3674164,0.9195404,35.73317,-4.967209,-29.26169,5.134613,0.4124505,0.8357164,-0.4473515999999999,1.041527,-0.1465849,0.0110632,0.6590733,-0.05366268,0.02265472563259219,33.68179,26.41
2,-0.1448822,-0.3262787,0.9340973,0.8742902,-0.1497345,-0.2877197,0.9459229,-32.973890000000004,-1.7695919999999998,-29.37721,4.987122,0.5640276999999999,0.7041866999999999,0.6751725000000001,-0.1393585,-0.3674164,0.9195404,35.73317,-4.967209,-29.26169,5.134613,0.4124505,0.8357164,-0.4473515999999999,1.041527,-0.1465849,0.0110632,0.6590733,-0.05366268,0.02265472563259219,33.68179,26.41
2,-0.1387482,-0.3269500999999999,0.9347839,0.8760135,-0.1438446,-0.2928162,0.945282,-32.92136,-1.7195740000000002,-29.3604,4.9865260000000005,0.5611953000000001,0.7031298,0.6806278,-0.1316681,-0.3719482,0.9188538,35.74458,-4.950806,-29.2413,5.119888,0.4106962,0.8357164,-0.4475169,1.041687,-0.1462296,0.01117927,0.6581858,-0.0530464,0.02265472563259219,33.68179,26.41
2,-0.1387482,-0.3269500999999999,0.9347839,0.8760135,-0.1438446,-0.2928162,0.945282,-32.92136,-1.7195740000000002,-29.3604,4.9865260000000005,0.5611953000000001,0.7031298,0.6806278,-0.1316681,-0.3719482,0.9188538,35.74458,-4.950806,-29.2413,5.119888,0.4106962,0.8357164,-0.4475169,1.041687,-0.1462296,0.01117927,0.6581858,-0.0530464,0.02265472563259219,33.68179,26.41
2,-0.1387482,-0.3269500999999999,0.9347839,0.8760135,-0.1438446,-0.2928162,0.945282,-32.92136,-1.7195740000000002,-29.3604,4.9865260000000005,0.5611953000000001,0.7031298,0.6806278,-0.1316681,-0.3719482,0.9188538,35.74458,-4.950806,-29.2413,5.119888,0.4106962,0.8357164,-0.4475169,1.041687,-0.1462296,0.01117927,0.6581858,-0.0530464,0.02265472563259219,33.68179,26.41
2,-0.1480102999999999,-0.3324585,0.931427,0.8787796999999998,-0.1531677,-0.2989349,0.9418945,-32.915659999999995,-1.6886900000000002,-29.36119,4.90744,0.5625851,0.7032844,0.6996604999999999,-0.1411743,-0.3746489999999999,0.9163513,35.80748,-4.936386,-29.2347,5.111587999999999,0.4100957,0.8357372999999999,-0.4476223,1.041845,-0.1458346,0.01052764,0.6567970000000001,-0.0523581,0.02265472563259219,33.68179,26.41
2,-0.1480102999999999,-0.3324585,0.931427,0.8787796999999998,-0.1531677,-0.2989349,0.9418945,-32.915659999999995,-1.6886900000000002,-29.36119,4.90744,0.5625851,0.7032844,0.6996604999999999,-0.1411743,-0.3746489999999999,0.9163513,35.80748,-4.936386,-29.2347,5.111587999999999,0.4100957,0.8357372999999999,-0.4476223,1.041845,-0.1458346,0.01052764,0.6567970000000001,-0.0523581,0.02265472563259219,33.68179,26.41
2,-0.1480102999999999,-0.3324585,0.931427,0.8787796999999998,-0.1531677,-0.2989349,0.9418945,-32.915659999999995,-1.6886900000000002,-29.36119,4.90744,0.5625851,0.7032844,0.6996604999999999,-0.1411743,-0.3746489999999999,0.9163513,35.80748,-4.936386,-29.2347,5.111587999999999,0.4100957,0.8357372999999999,-0.4476223,1.041845,-0.1458346,0.01052764,0.6567970000000001,-0.0523581,0.02265472563259219,33.68179,26.41
2,-0.1488037,-0.333725,0.9308472,0.8742276,-0.1550751,-0.2961730999999999,0.9424438,-32.92368,-1.706223,-29.36537,4.898911,0.5631928,0.7034371,0.6946011,-0.1413422,-0.3758849999999999,0.9158173,35.80258,-4.931824,-29.2326,5.072601000000001,0.4103313,0.8357583000000001,-0.4478284999999999,1.041969,-0.1455474,0.009195063,0.6556064,-0.05246638,0.02265472563259219,33.68179,26.41
2,-0.1488037,-0.333725,0.9308472,0.8742276,-0.1550751,-0.2961730999999999,0.9424438,-32.92368,-1.706223,-29.36537,4.898911,0.5631928,0.7034371,0.6946011,-0.1413422,-0.3758849999999999,0.9158173,35.80258,-4.931824,-29.2326,5.072601000000001,0.4103313,0.8357583000000001,-0.4478284999999999,1.041969,-0.1455474,0.009195063,0.6556064,-0.05246638,0.02265472563259219,33.68179,26.41
2,-0.1488037,-0.333725,0.9308472,0.8742276,-0.1550751,-0.2961730999999999,0.9424438,-32.92368,-1.706223,-29.36537,4.898911,0.5631928,0.7034371,0.6946011,-0.1413422,-0.3758849999999999,0.9158173,35.80258,-4.931824,-29.2326,5.072601000000001,0.4103313,0.8357583000000001,-0.4478284999999999,1.041969,-0.1455474,0.009195063,0.6556064,-0.05246638,0.02265472563259219,33.68179,26.41
2,-0.1486816,-0.3331909,0.9310455,0.8803896000000001,-0.1554871,-0.2937317,0.9431458,-32.93105,-1.7183990000000002,-29.36859,4.900269000000001,0.5635208,0.7034371,0.6970381999999999,-0.1408997,-0.3759308,0.915863,35.80258,-4.931824,-29.2326,5.072144000000001,0.410252,0.8357583000000001,-0.4480885999999999,1.042133,-0.1454822999999999,0.008485862,0.6553024000000001,-0.0521381,0.02265472563259219,33.68179,26.41
2,-0.1486816,-0.3331909,0.9310455,0.8803896000000001,-0.1554871,-0.2937317,0.9431458,-32.93105,-1.7183990000000002,-29.36859,4.900269000000001,0.5635208,0.7034371,0.6970381999999999,-0.1408997,-0.3759308,0.915863,35.80258,-4.931824,-29.2326,5.072144000000001,0.410252,0.8357583000000001,-0.4480885999999999,1.042133,-0.1454822999999999,0.008485862,0.6553024000000001,-0.0521381,0.02265472563259219,33.68179,26.41
2,-0.1486816,-0.3331909,0.9310455,0.8803896000000001,-0.1554871,-0.2937317,0.9431458,-32.93105,-1.7183990000000002,-29.36859,4.900269000000001,0.5635208,0.7034371,0.6970381999999999,-0.1408997,-0.3759308,0.915863,35.80258,-4.931824,-29.2326,5.072144000000001,0.410252,0.8357583000000001,-0.4480885999999999,1.042133,-0.1454822999999999,0.008485862,0.6553024000000001,-0.0521381,0.02265472563259219,33.68179,26.41
2,-0.1486816,-0.3331909,0.9310455,0.8803896000000001,-0.1554871,-0.2937317,0.9431458,-32.93105,-1.7183990000000002,-29.36859,4.900269000000001,0.5635208,0.7034371,0.6970381999999999,-0.1408997,-0.3759308,0.915863,35.80258,-4.931824,-29.2326,5.072144000000001,0.410252,0.8357583000000001,-0.4484003,1.042357,-0.1455612999999999,0.008691886,0.6554139,-0.05052325,0.02265472563259219,-104.8395,26.41
2,-0.1486816,-0.3331909,0.9310455,0.8803896000000001,-0.1554871,-0.2937317,0.9431458,-32.93105,-1.7183990000000002,-29.36859,4.900269000000001,0.5635208,0.7034371,0.6970381999999999,-0.1408997,-0.3759308,0.915863,35.80258,-4.931824,-29.2326,5.072144000000001,0.410252,0.8357583000000001,-0.4484003,1.042357,-0.1455612999999999,0.008691886,0.6554139,-0.05052325,0.02265472563259219,-104.8395,26.41
2,-0.1486816,-0.3331909,0.9310455,0.8803896000000001,-0.1554871,-0.2937317,0.9431458,-32.93105,-1.7183990000000002,-29.36859,4.900269000000001,0.5635208,0.7034371,0.6970381999999999,-0.1408997,-0.3759308,0.915863,35.80258,-4.931824,-29.2326,5.072144000000001,0.410252,0.8357583000000001,-0.4484003,1.042357,-0.1455612999999999,0.008691886,0.6554139,-0.05052325,0.02265472563259219,-104.8395,26.41
2,-0.1483307,-0.3380432,0.9293518,0.8931104,-0.1529694,-0.319519,0.9351349,-33.01419,-1.6417540000000002,-29.3741,4.789932,0.5660006,0.7056689,0.7134305999999999,-0.1436005,-0.3564757999999999,0.9231873,35.68912,-4.922607,-29.25978,5.029648,0.4150113,0.8316034,-0.4487492,1.042638,-0.1458302,0.007791731,0.6557997,-0.04970492,0.02265472563259219,-104.8395,26.41
2,-0.1483307,-0.3380432,0.9293518,0.8931104,-0.1529694,-0.319519,0.9351349,-33.01419,-1.6417540000000002,-29.3741,4.789932,0.5660006,0.7056689,0.7134305999999999,-0.1436005,-0.3564757999999999,0.9231873,35.68912,-4.922607,-29.25978,5.029648,0.4150113,0.8316034,-0.4487492,1.042638,-0.1458302,0.007791731,0.6557997,-0.04970492,0.02265472563259219,-104.8395,26.41
2,-0.1483307,-0.3380432,0.9293518,0.8931104,-0.1529694,-0.319519,0.9351349,-33.01419,-1.6417540000000002,-29.3741,4.789932,0.5660006,0.7056689,0.7134305999999999,-0.1436005,-0.3564757999999999,0.9231873,35.68912,-4.922607,-29.25978,5.029648,0.4150113,0.8316034,-0.4487492,1.042638,-0.1458302,0.007791731,0.6557997,-0.04970492,0.02265472563259219,-104.8395,26.41
2,-0.05831909,-0.1233063,0.9906464,0.7643104000000001,-0.05860901,-0.122879,0.9906769,-32.16904,-1.339554,-27.83002,4.901428,0.5203601999999999,0.6424649,0.7790959,-0.03926086,-0.1515503,0.9876556,36.23228,-4.511353,-27.769790000000004,4.796509,0.3810063,0.7572776,-0.4490948,1.043019,-0.1458482,0.005721374,0.6559501,-0.04887346,0.02265472563259219,-104.8395,26.41
2,-0.05831909,-0.1233063,0.9906464,0.7643104000000001,-0.05860901,-0.122879,0.9906769,-32.16904,-1.339554,-27.83002,4.901428,0.5203601999999999,0.6424649,0.7790959,-0.03926086,-0.1515503,0.9876556,36.23228,-4.511353,-27.769790000000004,4.796509,0.3810063,0.7572776,-0.4490948,1.043019,-0.1458482,0.005721374,0.6559501,-0.04887346,0.02265472563259219,-104.8395,26.41
2,-0.05831909,-0.1233063,0.9906464,0.7643104000000001,-0.05860901,-0.122879,0.9906769,-32.16904,-1.339554,-27.83002,4.901428,0.5203601999999999,0.6424649,0.7790959,-0.03926086,-0.1515503,0.9876556,36.23228,-4.511353,-27.769790000000004,4.796509,0.3810063,0.7572776,-0.4490948,1.043019,-0.1458482,0.005721374,0.6559501,-0.04887346,0.02265472563259219,-104.8395,26.41
2,0.01835632,0.01538086,0.9997101,0.7803333,0.01315308,0.01531982,0.9997864,-31.60358,-0.07530212,-29.88138,4.762283,0.4898982,0.5961969,0.8416046999999999,0.02728271,0.01545715,0.9994965,36.58588,-3.086975,-29.94333,4.75322,0.3564695,0.7015575,-0.450256,1.043826,-0.1455394,0.002439116,0.6540206000000001,-0.04635052,0.02265472563259219,-104.8395,26.41
2,0.01835632,0.01538086,0.9997101,0.7803333,0.01315308,0.01531982,0.9997864,-31.60358,-0.07530212,-29.88138,4.762283,0.4898982,0.5961969,0.8416046999999999,0.02728271,0.01545715,0.9994965,36.58588,-3.086975,-29.94333,4.75322,0.3564695,0.7015575,-0.450256,1.043826,-0.1455394,0.002439116,0.6540206000000001,-0.04635052,0.02265472563259219,-104.8395,26.41
2,0.01835632,0.01538086,0.9997101,0.7803333,0.01315308,0.01531982,0.9997864,-31.60358,-0.07530212,-29.88138,4.762283,0.4898982,0.5961969,0.8416046999999999,0.02728271,0.01545715,0.9994965,36.58588,-3.086975,-29.94333,4.75322,0.3564695,0.7015575,-0.450256,1.043826,-0.1455394,0.002439116,0.6540206000000001,-0.04635052,0.02265472563259219,-104.8395,26.41
2,0.01820374,0.07041931,0.997345,0.8012406,0.01777649,0.07115173,0.9972992,-31.63367,-0.2497101,-29.37595,4.865707,0.4900916,0.5877852,0.8955386000000001,0.04042053,0.03103638,0.9986877,36.62503,-2.934753,-30.38538,4.779724,0.3522997,0.6984503000000001,-0.450256,1.043826,-0.1455394,0.002439116,0.6540206000000001,-0.04635052,0.02265472563259219,-104.8395,26.41
2,0.01820374,0.07041931,0.997345,0.8012406,0.01777649,0.07115173,0.9972992,-31.63367,-0.2497101,-29.37595,4.865707,0.4900916,0.5877852,0.8955386000000001,0.04042053,0.03103638,0.9986877,36.62503,-2.934753,-30.38538,4.779724,0.3522997,0.6984503000000001,-0.450256,1.043826,-0.1455394,0.002439116,0.6540206000000001,-0.04635052,0.02265472563259219,-104.8395,26.41
2,0.01820374,0.07041931,0.997345,0.8012406,0.01777649,0.07115173,0.9972992,-31.63367,-0.2497101,-29.37595,4.865707,0.4900916,0.5877852,0.8955386000000001,0.04042053,0.03103638,0.9986877,36.62503,-2.934753,-30.38538,4.779724,0.3522997,0.6984503000000001,-0.450256,1.043826,-0.1455394,0.002439116,0.6540206000000001,-0.04635052,0.02265472563259219,-104.8395,26.41
2,0.01820374,0.07041931,0.997345,0.8012406,0.01777649,0.07115173,0.9972992,-31.63367,-0.2497101,-29.37595,4.865707,0.4900916,0.5877852,0.8955386000000001,0.04042053,0.03103638,0.9986877,36.62503,-2.934753,-30.38538,4.779724,0.3522997,0.6984503000000001,-0.4508884,1.044273,-0.1452335,0.0009073528,0.6527334,-0.0457278,0.02265472563259219,-334.7073,26.41
2,0.01820374,0.07041931,0.997345,0.8012406,0.01777649,0.07115173,0.9972992,-31.63367,-0.2497101,-29.37595,4.865707,0.4900916,0.5877852,0.8955386000000001,0.04042053,0.03103638,0.9986877,36.62503,-2.934753,-30.38538,4.779724,0.3522997,0.6984503000000001,-0.4508884,1.044273,-0.1452335,0.0009073528,0.6527334,-0.0457278,0.02265472563259219,-334.7073,26.41
2,0.01820374,0.07041931,0.997345,0.8012406,0.01777649,0.07115173,0.9972992,-31.63367,-0.2497101,-29.37595,4.865707,0.4900916,0.5877852,0.8955386000000001,0.04042053,0.03103638,0.9986877,36.62503,-2.934753,-30.38538,4.779724,0.3522997,0.6984503000000001,-0.4508884,1.044273,-0.1452335,0.0009073528,0.6527334,-0.0457278,0.02265472563259219,-334.7073,26.41
2,0.01194763,0.0479126,0.9987793,0.8553469000000001,0.01193237,0.0479126,0.9987793,-31.626790000000003,-0.2735901,-29.490070000000003,4.7388,0.490838,0.5934876,0.9398541,0.03811646,0.04492188,0.9982605,36.63704,-3.029083,-30.25432,4.905334,0.3523504,0.6980484,-0.4515764,1.044559,-0.1449208,0.000211432,0.6511214,-0.04423714,0.02265472563259219,-334.7073,26.41
2,0.01194763,0.0479126,0.9987793,0.8553469000000001,0.01193237,0.0479126,0.9987793,-31.626790000000003,-0.2735901,-29.490070000000003,4.7388,0.490838,0.5934876,0.9398541,0.03811646,0.04492188,0.9982605,36.63704,-3.029083,-30.25432,4.905334,0.3523504,0.6980484,-0.4515764,1.044559,-0.1449208,0.000211432,0.6511214,-0.04423714,0.02265472563259219,-334.7073,26.41
2,0.01194763,0.0479126,0.9987793,0.8553469000000001,0.01193237,0.0479126,0.9987793,-31.626790000000003,-0.2735901,-29.490070000000003,4.7388,0.490838,0.5934876,0.9398541,0.03811646,0.04492188,0.9982605,36.63704,-3.029083,-30.25432,4.905334,0.3523504,0.6980484,-0.4515764,1.044559,-0.1449208,0.000211432,0.6511214,-0.04423714,0.02265472563259219,-334.7073,26.41
2,0.01194763,0.0479126,0.9987793,0.8553469000000001,0.01193237,0.0479126,0.9987793,-31.626790000000003,-0.2735901,-29.490070000000003,4.7388,0.490838,0.5934876,0.9398541,0.03811646,0.04492188,0.9982605,36.63704,-3.029083,-30.25432,4.905334,0.3523504,0.6980484,-0.4521920999999999,1.044957,-0.1448152,-0.0009935803,0.6493687,-0.04191507,0.02265472563259219,-334.7073,26.41
2,0.01194763,0.0479126,0.9987793,0.8553469000000001,0.01193237,0.0479126,0.9987793,-31.626790000000003,-0.2735901,-29.490070000000003,4.7388,0.490838,0.5934876,0.9398541,0.03811646,0.04492188,0.9982605,36.63704,-3.029083,-30.25432,4.905334,0.3523504,0.6980484,-0.4521920999999999,1.044957,-0.1448152,-0.0009935803,0.6493687,-0.04191507,0.02265472563259219,-334.7073,26.41
2,0.01194763,0.0479126,0.9987793,0.8553469000000001,0.01193237,0.0479126,0.9987793,-31.626790000000003,-0.2735901,-29.490070000000003,4.7388,0.490838,0.5934876,0.9398541,0.03811646,0.04492188,0.9982605,36.63704,-3.029083,-30.25432,4.905334,0.3523504,0.6980484,-0.4521920999999999,1.044957,-0.1448152,-0.0009935803,0.6493687,-0.04191507,0.02265472563259219,-334.7073,26.41
2,0.007400513,0.04364014,0.9990082,1.0,0.005233765,0.04150391,0.999115,-31.89708,-0.5314331,-29.04802,4.669341999999999,0.5010438,0.5989107,1.0,0.009994507,0.0461731,0.9988708,36.660340000000005,-3.474594,-29.70206,4.725601,0.3569727,0.7070784999999999,-0.4526162999999999,1.045372,-0.1447514,-0.002830742,0.6478469,-0.03965843,0.02265472563259219,-334.7073,26.41
2,0.007400513,0.04364014,0.9990082,1.0,0.005233765,0.04150391,0.999115,-31.89708,-0.5314331,-29.04802,4.669341999999999,0.5010438,0.5989107,1.0,0.009994507,0.0461731,0.9988708,36.660340000000005,-3.474594,-29.70206,4.725601,0.3569727,0.7070784999999999,-0.4526162999999999,1.045372,-0.1447514,-0.002830742,0.6478469,-0.03965843,0.02265472563259219,-334.7073,26.41
2,0.007400513,0.04364014,0.9990082,1.0,0.005233765,0.04150391,0.999115,-31.89708,-0.5314331,-29.04802,4.669341999999999,0.5010438,0.5989107,1.0,0.009994507,0.0461731,0.9988708,36.660340000000005,-3.474594,-29.70206,4.725601,0.3569727,0.7070784999999999,-0.4526162999999999,1.045372,-0.1447514,-0.002830742,0.6478469,-0.03965843,0.02265472563259219,-334.7073,26.41
2,0.001327515,0.03752136,0.9992828,1.0,-0.00793457,0.03581238,0.9993134,-31.89429,-0.3329315,-29.65845,4.64444,0.503316,0.5992076,1.0,0.005371094,0.0382843,0.9992371,36.64265,-3.525558,-29.62752,4.653427,0.3584037,0.7093822,-0.4529456,1.045825,-0.1448941,-0.003981813,0.6464837,-0.03842404,0.02265472563259219,-334.7073,26.41
2,0.001327515,0.03752136,0.9992828,1.0,-0.00793457,0.03581238,0.9993134,-31.89429,-0.3329315,-29.65845,4.64444,0.503316,0.5992076,1.0,0.005371094,0.0382843,0.9992371,36.64265,-3.525558,-29.62752,4.653427,0.3584037,0.7093822,-0.4529456,1.045825,-0.1448941,-0.003981813,0.6464837,-0.03842404,0.02265472563259219,-334.7073,26.41
2,0.001327515,0.03752136,0.9992828,1.0,-0.00793457,0.03581238,0.9993134,-31.89429,-0.3329315,-29.65845,4.64444,0.503316,0.5992076,1.0,0.005371094,0.0382843,0.9992371,36.64265,-3.525558,-29.62752,4.653427,0.3584037,0.7093822,-0.4529456,1.045825,-0.1448941,-0.003981813,0.6464837,-0.03842404,0.02265472563259219,-334.7073,26.41
2,0.001327515,0.03752136,0.9992828,1.0,-0.00793457,0.03581238,0.9993134,-31.89429,-0.3329315,-29.65845,4.64444,0.503316,0.5992076,1.0,0.005371094,0.0382843,0.9992371,36.64265,-3.525558,-29.62752,4.653427,0.3584037,0.7093822,-0.453262,1.046552,-0.1450187999999999,-0.007002837,0.6446407,-0.03762757,0.02265472563259219,-43.6113,26.41
2,0.001327515,0.03752136,0.9992828,1.0,-0.00793457,0.03581238,0.9993134,-31.89429,-0.3329315,-29.65845,4.64444,0.503316,0.5992076,1.0,0.005371094,0.0382843,0.9992371,36.64265,-3.525558,-29.62752,4.653427,0.3584037,0.7093822,-0.453262,1.046552,-0.1450187999999999,-0.007002837,0.6446407,-0.03762757,0.02265472563259219,-43.6113,26.41
2,0.001327515,0.03752136,0.9992828,1.0,-0.00793457,0.03581238,0.9993134,-31.89429,-0.3329315,-29.65845,4.64444,0.503316,0.5992076,1.0,0.005371094,0.0382843,0.9992371,36.64265,-3.525558,-29.62752,4.653427,0.3584037,0.7093822,-0.453262,1.046552,-0.1450187999999999,-0.007002837,0.6446407,-0.03762757,0.02265472563259219,-43.6113,26.41
2,0.003036499,0.03581238,0.9993439,1.0,-0.007415771,0.0284729,0.9995575,-31.89708,-0.3329315,-29.714540000000003,4.6385190000000005,0.5033329000000001,0.6010243000000001,1.0,0.006530762,0.03826904,0.9992371,36.63725,-3.525558,-29.62752,4.653824,0.3584037,0.7093822,-0.453262,1.046552,-0.1450187999999999,-0.007002837,0.6446407,-0.03762757,0.02265472563259219,-43.6113,26.41
2,0.003036499,0.03581238,0.9993439,1.0,-0.007415771,0.0284729,0.9995575,-31.89708,-0.3329315,-29.714540000000003,4.6385190000000005,0.5033329000000001,0.6010243000000001,1.0,0.006530762,0.03826904,0.9992371,36.63725,-3.525558,-29.62752,4.653824,0.3584037,0.7093822,-0.453262,1.046552,-0.1450187999999999,-0.007002837,0.6446407,-0.03762757,0.02265472563259219,-43.6113,26.41
2,0.003036499,0.03581238,0.9993439,1.0,-0.007415771,0.0284729,0.9995575,-31.89708,-0.3329315,-29.714540000000003,4.6385190000000005,0.5033329000000001,0.6010243000000001,1.0,0.006530762,0.03826904,0.9992371,36.63725,-3.525558,-29.62752,4.653824,0.3584037,0.7093822,-0.453262,1.046552,-0.1450187999999999,-0.007002837,0.6446407,-0.03762757,0.02265472563259219,-43.6113,26.41
2,0.003036499,0.03581238,0.9993439,1.0,-0.007415771,0.0284729,0.9995575,-31.89708,-0.3329315,-29.714540000000003,4.6385190000000005,0.5033329000000001,0.6010243000000001,1.0,0.006530762,0.03826904,0.9992371,36.63725,-3.525558,-29.62752,4.653824,0.3584037,0.7093822,-0.4530548,1.046608,-0.1451976,-0.007615955,0.6448146,-0.03763163,0.02265472563259219,-43.6113,26.41
2,0.003036499,0.03581238,0.9993439,1.0,-0.007415771,0.0284729,0.9995575,-31.89708,-0.3329315,-29.714540000000003,4.6385190000000005,0.5033329000000001,0.6010243000000001,1.0,0.006530762,0.03826904,0.9992371,36.63725,-3.525558,-29.62752,4.653824,0.3584037,0.7093822,-0.4530548,1.046608,-0.1451976,-0.007615955,0.6448146,-0.03763163,0.02265472563259219,-43.6113,26.41
2,0.003036499,0.03581238,0.9993439,1.0,-0.007415771,0.0284729,0.9995575,-31.89708,-0.3329315,-29.714540000000003,4.6385190000000005,0.5033329000000001,0.6010243000000001,1.0,0.006530762,0.03826904,0.9992371,36.63725,-3.525558,-29.62752,4.653824,0.3584037,0.7093822,-0.4530548,1.046608,-0.1451976,-0.007615955,0.6448146,-0.03763163,0.02265472563259219,-43.6113,26.41
2,0.0001831054999999,0.03707886,0.9992981,1.0,-0.01065063,0.02975464,0.9994965,-31.901840000000004,-0.3397675,-29.70573,4.629288,0.5040393,0.6009473000000001,1.0,0.005004883,0.04034424,0.9991608,36.63321,-3.5317540000000003,-29.6246,4.719069999999999,0.3587994,0.7092906999999999,-0.4527708,1.046582,-0.1454726,-0.0076583919999999,0.6452248,-0.03719481,0.02265472563259219,-43.6113,26.41
2,0.0001831054999999,0.03707886,0.9992981,1.0,-0.01065063,0.02975464,0.9994965,-31.901840000000004,-0.3397675,-29.70573,4.629288,0.5040393,0.6009473000000001,1.0,0.005004883,0.04034424,0.9991608,36.63321,-3.5317540000000003,-29.6246,4.719069999999999,0.3587994,0.7092906999999999,-0.4527708,1.046582,-0.1454726,-0.0076583919999999,0.6452248,-0.03719481,0.02265472563259219,-43.6113,26.41
2,0.0001831054999999,0.03707886,0.9992981,1.0,-0.01065063,0.02975464,0.9994965,-31.901840000000004,-0.3397675,-29.70573,4.629288,0.5040393,0.6009473000000001,1.0,0.005004883,0.04034424,0.9991608,36.63321,-3.5317540000000003,-29.6246,4.719069999999999,0.3587994,0.7092906999999999,-0.4527708,1.046582,-0.1454726,-0.0076583919999999,0.6452248,-0.03719481,0.02265472563259219,-43.6113,26.41
2,0.0001831054999999,0.03707886,0.9992981,1.0,-0.01065063,0.02975464,0.9994965,-31.901840000000004,-0.3397675,-29.70573,4.629288,0.5040393,0.6009473000000001,1.0,0.005004883,0.04034424,0.9991608,36.63321,-3.5317540000000003,-29.6246,4.719069999999999,0.3587994,0.7092906999999999,-0.4523339,1.046294,-0.145807,-0.00734555,0.6460758000000001,-0.03769839,0.02265472563259219,-43.6113,26.41
2,0.0001831054999999,0.03707886,0.9992981,1.0,-0.01065063,0.02975464,0.9994965,-31.901840000000004,-0.3397675,-29.70573,4.629288,0.5040393,0.6009473000000001,1.0,0.005004883,0.04034424,0.9991608,36.63321,-3.5317540000000003,-29.6246,4.719069999999999,0.3587994,0.7092906999999999,-0.4523339,1.046294,-0.145807,-0.00734555,0.6460758000000001,-0.03769839,0.02265472563259219,-43.6113,26.41
2,0.0001831054999999,0.03707886,0.9992981,1.0,-0.01065063,0.02975464,0.9994965,-31.901840000000004,-0.3397675,-29.70573,4.629288,0.5040393,0.6009473000000001,1.0,0.005004883,0.04034424,0.9991608,36.63321,-3.5317540000000003,-29.6246,4.719069999999999,0.3587994,0.7092906999999999,-0.4523339,1.046294,-0.145807,-0.00734555,0.6460758000000001,-0.03769839,0.02265472563259219,-43.6113,26.41
2,-0.004699707,-0.01031494,0.9999237,1.0,-0.02836609,-0.001113892,0.999588,-32.23418,-1.116623,-28.45334,4.734238,0.5178524999999999,0.620167,1.0,-0.004653931,-0.0103302,0.9999237,36.51019,-4.36113,-28.09222,4.708405,0.3658299,0.7300833000000001,-0.4512142,1.045361,-0.1465655,-0.004429992,0.6482651999999999,-0.04109022,0.02265472563259219,106.562,26.41
2,-0.004699707,-0.01031494,0.9999237,1.0,-0.02836609,-0.001113892,0.999588,-32.23418,-1.116623,-28.45334,4.734238,0.5178524999999999,0.620167,1.0,-0.004653931,-0.0103302,0.9999237,36.51019,-4.36113,-28.09222,4.708405,0.3658299,0.7300833000000001,-0.4512142,1.045361,-0.1465655,-0.004429992,0.6482651999999999,-0.04109022,0.02265472563259219,106.562,26.41
2,-0.004699707,-0.01031494,0.9999237,1.0,-0.02836609,-0.001113892,0.999588,-32.23418,-1.116623,-28.45334,4.734238,0.5178524999999999,0.620167,1.0,-0.004653931,-0.0103302,0.9999237,36.51019,-4.36113,-28.09222,4.708405,0.3658299,0.7300833000000001,-0.4512142,1.045361,-0.1465655,-0.004429992,0.6482651999999999,-0.04109022,0.02265472563259219,106.562,26.41
2,-0.004699707,-0.01031494,0.9999237,0.9168921,-0.02836609,-0.001113892,0.999588,-32.23418,-1.116623,-28.45334,4.734238,0.5178524999999999,0.620167,0.9905883,-0.004653931,-0.0103302,0.9999237,36.51019,-4.36113,-28.09222,4.708405,0.3658299,0.7300833000000001,-0.4508837,1.044714,-0.1467497,-0.002736391,0.6494146,-0.04285581,0.02265472563259219,106.562,26.41
2,-0.004699707,-0.01031494,0.9999237,0.9168921,-0.02836609,-0.001113892,0.999588,-32.23418,-1.116623,-28.45334,4.734238,0.5178524999999999,0.620167,0.9905883,-0.004653931,-0.0103302,0.9999237,36.51019,-4.36113,-28.09222,4.708405,0.3658299,0.7300833000000001,-0.4508837,1.044714,-0.1467497,-0.002736391,0.6494146,-0.04285581,0.02265472563259219,106.562,26.41
2,-0.004699707,-0.01031494,0.9999237,0.9168921,-0.02836609,-0.001113892,0.999588,-32.23418,-1.116623,-28.45334,4.734238,0.5178524999999999,0.620167,0.9905883,-0.004653931,-0.0103302,0.9999237,36.51019,-4.36113,-28.09222,4.708405,0.3658299,0.7300833000000001,-0.4508837,1.044714,-0.1467497,-0.002736391,0.6494146,-0.04285581,0.02265472563259219,106.562,26.41
2,-0.004699707,-0.01031494,0.9999237,0.9168921,-0.02836609,-0.001113892,0.999588,-32.23418,-1.116623,-28.45334,4.734238,0.5178524999999999,0.620167,0.9905883,-0.004653931,-0.0103302,0.9999237,36.51019,-4.36113,-28.09222,4.708405,0.3658299,0.7300833000000001,-0.4508837,1.044714,-0.1467497,-0.002736391,0.6494146,-0.04285581,0.02265472563259219,106.562,26.41
2,-0.004699707,-0.01031494,0.9999237,0.9168921,-0.02836609,-0.001113892,0.999588,-32.23418,-1.116623,-28.45334,4.734238,0.5178524999999999,0.620167,0.9905883,-0.004653931,-0.0103302,0.9999237,36.51019,-4.36113,-28.09222,4.708405,0.3658299,0.7300833000000001,-0.4508837,1.044714,-0.1467497,-0.002736391,0.6494146,-0.04285581,0.02265472563259219,106.562,26.41
2,-0.004699707,-0.01031494,0.9999237,0.9168921,-0.02836609,-0.001113892,0.999588,-32.23418,-1.116623,-28.45334,4.734238,0.5178524999999999,0.620167,0.9905883,-0.004653931,-0.0103302,0.9999237,36.51019,-4.36113,-28.09222,4.708405,0.3658299,0.7300833000000001,-0.4508837,1.044714,-0.1467497,-0.002736391,0.6494146,-0.04285581,0.02265472563259219,106.562,26.41
2,-0.1678772,-0.3578644,0.9185486,0.8513188,-0.1638947,-0.3619537,0.9176636,-32.95197,-2.179871,-29.22659,4.558624,0.565786,0.7310481,0.9069659,-0.1980896,-0.3263092,0.9242706,35.577870000000004,-5.774597,-29.61238,4.707626,0.4279669,0.8629541,-0.4504855,1.0444,-0.146927,-0.0010411819999999,0.6505867,-0.04322793,0.02265472563259219,106.562,26.41
2,-0.1678772,-0.3578644,0.9185486,0.8513188,-0.1638947,-0.3619537,0.9176636,-32.95197,-2.179871,-29.22659,4.558624,0.565786,0.7310481,0.9069659,-0.1980896,-0.3263092,0.9242706,35.577870000000004,-5.774597,-29.61238,4.707626,0.4279669,0.8629541,-0.4504855,1.0444,-0.146927,-0.0010411819999999,0.6505867,-0.04322793,0.02265472563259219,106.562,26.41
2,-0.1678772,-0.3578644,0.9185486,0.8513188,-0.1638947,-0.3619537,0.9176636,-32.95197,-2.179871,-29.22659,4.558624,0.565786,0.7310481,0.9069659,-0.1980896,-0.3263092,0.9242706,35.577870000000004,-5.774597,-29.61238,4.707626,0.4279669,0.8629541,-0.4504855,1.0444,-0.146927,-0.0010411819999999,0.6505867,-0.04322793,0.02265472563259219,106.562,26.41
2,-0.1585541,-0.3689575,0.9158173,0.7034552,-0.1581421,-0.3629913,0.9182587,-32.97197,-2.177567,-29.22986,4.433624,0.5655383,0.7311223000000001,0.5520541999999999,-0.1638184,-0.4556732,0.8749237,35.53233,-5.203842,-29.27638,4.685303,0.4232982,0.8639882999999999,-0.4500755,1.0442129999999998,-0.1471876,-0.0004358782,0.6518619999999999,-0.04414108,0.02265472563259219,106.562,26.41
2,-0.1585541,-0.3689575,0.9158173,0.7034552,-0.1581421,-0.3629913,0.9182587,-32.97197,-2.177567,-29.22986,4.433624,0.5655383,0.7311223000000001,0.5520541999999999,-0.1638184,-0.4556732,0.8749237,35.53233,-5.203842,-29.27638,4.685303,0.4232982,0.8639882999999999,-0.4500755,1.0442129999999998,-0.1471876,-0.0004358782,0.6518619999999999,-0.04414108,0.02265472563259219,106.562,26.41
2,-0.1585541,-0.3689575,0.9158173,0.7034552,-0.1581421,-0.3629913,0.9182587,-32.97197,-2.177567,-29.22986,4.433624,0.5655383,0.7311223000000001,0.5520541999999999,-0.1638184,-0.4556732,0.8749237,35.53233,-5.203842,-29.27638,4.685303,0.4232982,0.8639882999999999,-0.4500755,1.0442129999999998,-0.1471876,-0.0004358782,0.6518619999999999,-0.04414108,0.02265472563259219,106.562,26.41
2,-0.1592407,-0.3722839,0.9143372,0.7216054000000001,-0.1589661,-0.3605194,0.9190826,-32.97197,-2.19072,-29.22986,4.433594,0.5656793000000001,0.7311223000000001,0.5643324000000001,-0.1604156,-0.4582214,0.8742370999999999,35.56903,-5.197479,-29.269640000000003,4.657608,0.421377,0.864166,-0.4497741,1.044238,-0.1472492,-6.103516e-05,0.6529404999999999,-0.0439812,0.02265472563259219,106.562,26.41
2,-0.1592407,-0.3722839,0.9143372,0.7216054000000001,-0.1589661,-0.3605194,0.9190826,-32.97197,-2.19072,-29.22986,4.433594,0.5656793000000001,0.7311223000000001,0.5643324000000001,-0.1604156,-0.4582214,0.8742370999999999,35.56903,-5.197479,-29.269640000000003,4.657608,0.421377,0.864166,-0.4497741,1.044238,-0.1472492,-6.103516e-05,0.6529404999999999,-0.0439812,0.02265472563259219,106.562,26.41
2,-0.1592407,-0.3722839,0.9143372,0.7216054000000001,-0.1589661,-0.3605194,0.9190826,-32.97197,-2.19072,-29.22986,4.433594,0.5656793000000001,0.7311223000000001,0.5643324000000001,-0.1604156,-0.4582214,0.8742370999999999,35.56903,-5.197479,-29.269640000000003,4.657608,0.421377,0.864166,-0.4497741,1.044238,-0.1472492,-6.103516e-05,0.6529404999999999,-0.0439812,0.02265472563259219,106.562,26.41
2,-0.1552582,-0.4031372,0.9018707,0.7403894,-0.1623077,-0.3583069,0.9193726,-32.96581,-2.201782,-29.22752,4.443023999999999,0.5660284000000001,0.7310818,0.5634993,-0.1461334,-0.456543,0.8776093,35.59373,-5.203842,-29.27504,4.6763,0.4179412,0.8639882999999999,-0.449608,1.044182,-0.1472615,0.0002516544,0.6534463,-0.04376995,0.02265472563259219,113.1159,26.41
2,-0.1552582,-0.4031372,0.9018707,0.7403894,-0.1623077,-0.3583069,0.9193726,-32.96581,-2.201782,-29.22752,4.443023999999999,0.5660284000000001,0.7310818,0.5634993,-0.1461334,-0.456543,0.8776093,35.59373,-5.203842,-29.27504,4.6763,0.4179412,0.8639882999999999,-0.449608,1.044182,-0.1472615,0.0002516544,0.6534463,-0.04376995,0.02265472563259219,113.1159,26.41
2,-0.1552582,-0.4031372,0.9018707,0.7403894,-0.1623077,-0.3583069,0.9193726,-32.96581,-2.201782,-29.22752,4.443023999999999,0.5660284000000001,0.7310818,0.5634993,-0.1461334,-0.456543,0.8776093,35.59373,-5.203842,-29.27504,4.6763,0.4179412,0.8639882999999999,-0.449608,1.044182,-0.1472615,0.0002516544,0.6534463,-0.04376995,0.02265472563259219,113.1159,26.41
2,-0.1563568,-0.3887634,0.907959,0.7501991,-0.1620331,-0.3394165,0.9265594,-32.970890000000004,-2.239273,-29.23087,4.593811,0.566112,0.7288142,0.5690361999999999,-0.1489716,-0.4462890999999999,0.8823853000000002,35.609120000000004,-5.206345,-29.27571,4.726608000000001,0.4179365,0.861885,-0.4495704,1.0444950000000002,-0.1472461,-0.0004648298999999,0.6536424,-0.04358295,0.02265472563259219,113.1159,26.41
2,-0.1563568,-0.3887634,0.907959,0.7501991,-0.1620331,-0.3394165,0.9265594,-32.970890000000004,-2.239273,-29.23087,4.593811,0.566112,0.7288142,0.5690361999999999,-0.1489716,-0.4462890999999999,0.8823853000000002,35.609120000000004,-5.206345,-29.27571,4.726608000000001,0.4179365,0.861885,-0.4495704,1.0444950000000002,-0.1472461,-0.0004648298999999,0.6536424,-0.04358295,0.02265472563259219,113.1159,26.41
2,-0.1563568,-0.3887634,0.907959,0.7501991,-0.1620331,-0.3394165,0.9265594,-32.970890000000004,-2.239273,-29.23087,4.593811,0.566112,0.7288142,0.5690361999999999,-0.1489716,-0.4462890999999999,0.8823853000000002,35.609120000000004,-5.206345,-29.27571,4.726608000000001,0.4179365,0.861885,-0.4495704,1.0444950000000002,-0.1472461,-0.0004648298999999,0.6536424,-0.04358295,0.02265472563259219,113.1159,26.41
2,-0.1563568,-0.3887634,0.907959,0.7501991,-0.1620331,-0.3394165,0.9265594,-32.970890000000004,-2.239273,-29.23087,4.593811,0.566112,0.7288142,0.5690361999999999,-0.1489716,-0.4462890999999999,0.8823853000000002,35.609120000000004,-5.206345,-29.27571,4.726608000000001,0.4179365,0.861885,-0.4495704,1.0444950000000002,-0.1472461,-0.0004648298999999,0.6536424,-0.04358295,0.02265472563259219,113.1159,26.41
2,-0.1563568,-0.3887634,0.907959,0.7501991,-0.1620331,-0.3394165,0.9265594,-32.970890000000004,-2.239273,-29.23087,4.593811,0.566112,0.7288142,0.5690361999999999,-0.1489716,-0.4462890999999999,0.8823853000000002,35.609120000000004,-5.206345,-29.27571,4.726608000000001,0.4179365,0.861885,-0.4495704,1.0444950000000002,-0.1472461,-0.0004648298999999,0.6536424,-0.04358295,0.02265472563259219,113.1159,26.41
2,-0.1563568,-0.3887634,0.907959,0.7501991,-0.1620331,-0.3394165,0.9265594,-32.970890000000004,-2.239273,-29.23087,4.593811,0.566112,0.7288142,0.5690361999999999,-0.1489716,-0.4462890999999999,0.8823853000000002,35.609120000000004,-5.206345,-29.27571,4.726608000000001,0.4179365,0.861885,-0.4495704,1.0444950000000002,-0.1472461,-0.0004648298999999,0.6536424,-0.04358295,0.02265472563259219,113.1159,26.41
3,-0.1510467999999999,-0.3956757,0.9058685,0.7957403000000001,-0.154007,-0.3524323,0.9230652,-33.02448,-2.272034,-29.26831,4.69252,0.5666412,0.7328573,0.5872542,-0.1479034,-0.4363861,0.8875122,35.63815,-5.248856,-29.27698,4.817703,0.4166599,0.8614331000000001,-0.4498273,1.044682,-0.1471093,-0.001816757,0.6529457,-0.04321332,0.02265472563259219,113.1159,26.41
3,-0.1510467999999999,-0.3956757,0.9058685,0.7957403000000001,-0.154007,-0.3524323,0.9230652,-33.02448,-2.272034,-29.26831,4.69252,0.5666412,0.7328573,0.5872542,-0.1479034,-0.4363861,0.8875122,35.63815,-5.248856,-29.27698,4.817703,0.4166599,0.8614331000000001,-0.4498273,1.044682,-0.1471093,-0.001816757,0.6529457,-0.04321332,0.02265472563259219,113.1159,26.41
3,-0.1510467999999999,-0.3956757,0.9058685,0.7957403000000001,-0.154007,-0.3524323,0.9230652,-33.02448,-2.272034,-29.26831,4.69252,0.5666412,0.7328573,0.5872542,-0.1479034,-0.4363861,0.8875122,35.63815,-5.248856,-29.27698,4.817703,0.4166599,0.8614331000000001,-0.4498273,1.044682,-0.1471093,-0.001816757,0.6529457,-0.04321332,0.02265472563259219,113.1159,26.41
3,-0.1519165,-0.3769379,0.913681,0.8084084,-0.1592865,-0.3495636,0.9232635,-33.03355,-2.282623,-29.27773,4.690247,0.5678631,0.7328573,0.5900116,-0.1426239,-0.4103545999999999,0.9006958,35.644940000000005,-5.360016000000001,-29.32416,4.910858,0.4154689,0.8607215,-0.4498273,1.044682,-0.1471093,-0.001816757,0.6529457,-0.04321332,0.02265472563259219,113.1159,26.41
3,-0.1519165,-0.3769379,0.913681,0.8084084,-0.1592865,-0.3495636,0.9232635,-33.03355,-2.282623,-29.27773,4.690247,0.5678631,0.7328573,0.5900116,-0.1426239,-0.4103545999999999,0.9006958,35.644940000000005,-5.360016000000001,-29.32416,4.910858,0.4154689,0.8607215,-0.4498273,1.044682,-0.1471093,-0.001816757,0.6529457,-0.04321332,0.02265472563259219,113.1159,26.41
3,-0.1519165,-0.3769379,0.913681,0.8084084,-0.1592865,-0.3495636,0.9232635,-33.03355,-2.282623,-29.27773,4.690247,0.5678631,0.7328573,0.5900116,-0.1426239,-0.4103545999999999,0.9006958,35.644940000000005,-5.360016000000001,-29.32416,4.910858,0.4154689,0.8607215,-0.4498273,1.044682,-0.1471093,-0.001816757,0.6529457,-0.04321332,0.02265472563259219,113.1159,26.41
3,-0.166153,-0.3885192999999999,0.9063263,0.7591236,-0.1558227999999999,-0.4030609,0.9017944,-33.083420000000004,-2.245041,-29.26524,4.460739,0.5691328,0.7418224,0.5566014,-0.1841277999999999,-0.3626862,0.9135284,35.884409999999995,-5.863586,-29.6069,4.511658000000001,0.4140837999999999,0.8739706,-0.450024,1.044776,-0.147125,-0.0023559889999999,0.6529096999999999,-0.04305873,0.02265472563259219,200.4124,26.41
3,-0.166153,-0.3885192999999999,0.9063263,0.7591236,-0.1558227999999999,-0.4030609,0.9017944,-33.083420000000004,-2.245041,-29.26524,4.460739,0.5691328,0.7418224,0.5566014,-0.1841277999999999,-0.3626862,0.9135284,35.884409999999995,-5.863586,-29.6069,4.511658000000001,0.4140837999999999,0.8739706,-0.450024,1.044776,-0.147125,-0.0023559889999999,0.6529096999999999,-0.04305873,0.02265472563259219,200.4124,26.41
3,-0.166153,-0.3885192999999999,0.9063263,0.7591236,-0.1558227999999999,-0.4030609,0.9017944,-33.083420000000004,-2.245041,-29.26524,4.460739,0.5691328,0.7418224,0.5566014,-0.1841277999999999,-0.3626862,0.9135284,35.884409999999995,-5.863586,-29.6069,4.511658000000001,0.4140837999999999,0.8739706,-0.450024,1.044776,-0.147125,-0.0023559889999999,0.6529096999999999,-0.04305873,0.02265472563259219,200.4124,26.41
3,-1.0,-1.0,-1.0,0.4971733,0.0,0.0,0.0,-33.012240000000006,-2.194763,-29.2256,-1.0,0.5479345,0.7375178000000001,0.2279032,0.0,0.0,0.0,35.69562,-6.058929,-29.582490000000004,-1.0,0.4059075,0.9333317,-0.4503195,1.044975,-0.1472005,-0.002743868,0.6531385000000001,-0.0425458,0.02265472563259219,200.4124,26.41
3,-1.0,-1.0,-1.0,0.4971733,0.0,0.0,0.0,-33.012240000000006,-2.194763,-29.2256,-1.0,0.5479345,0.7375178000000001,0.2279032,0.0,0.0,0.0,35.69562,-6.058929,-29.582490000000004,-1.0,0.4059075,0.9333317,-0.4503195,1.044975,-0.1472005,-0.002743868,0.6531385000000001,-0.0425458,0.02265472563259219,200.4124,26.41
3,-1.0,-1.0,-1.0,0.4971733,0.0,0.0,0.0,-33.012240000000006,-2.194763,-29.2256,-1.0,0.5479345,0.7375178000000001,0.2279032,0.0,0.0,0.0,35.69562,-6.058929,-29.582490000000004,-1.0,0.4059075,0.9333317,-0.4503195,1.044975,-0.1472005,-0.002743868,0.6531385000000001,-0.0425458,0.02265472563259219,200.4124,26.41
3,-1.0,-1.0,-1.0,0.3551095999999999,0.0,0.0,0.0,-32.42885,-2.463837,-29.27141,-1.0,0.5292825,0.741156,0.1427858,0.0,0.0,0.0,35.69562,-6.058929,-29.582490000000004,-1.0,0.3927538,0.8236191999999999,-0.4506108,1.045505,-0.147333,-0.004152185,0.6534693,-0.04141387,0.02265472563259219,200.4124,26.41
3,-1.0,-1.0,-1.0,0.3551095999999999,0.0,0.0,0.0,-32.42885,-2.463837,-29.27141,-1.0,0.5292825,0.741156,0.1427858,0.0,0.0,0.0,35.69562,-6.058929,-29.582490000000004,-1.0,0.3927538,0.8236191999999999,-0.4506108,1.045505,-0.147333,-0.004152185,0.6534693,-0.04141387,0.02265472563259219,200.4124,26.41
3,-1.0,-1.0,-1.0,0.3551095999999999,0.0,0.0,0.0,-32.42885,-2.463837,-29.27141,-1.0,0.5292825,0.741156,0.1427858,0.0,0.0,0.0,35.69562,-6.058929,-29.582490000000004,-1.0,0.3927538,0.8236191999999999,-0.4506108,1.045505,-0.147333,-0.004152185,0.6534693,-0.04141387,0.02265472563259219,200.4124,26.41
3,-1.0,-1.0,-1.0,0.7271994,0.0,0.0,0.0,-31.95796,-0.754364,-29.41075,-1.0,0.5066874,0.6119923,0.6348847,0.0,0.0,0.0,36.40845,-3.702621,-29.4339,-1.0,0.3644602,0.7250865,-0.4510239,1.045756,-0.1474291,-0.005146896,0.6538061,-0.04038448,0.02265472563259219,200.4124,26.41
3,-1.0,-1.0,-1.0,0.7271994,0.0,0.0,0.0,-31.95796,-0.754364,-29.41075,-1.0,0.5066874,0.6119923,0.6348847,0.0,0.0,0.0,36.40845,-3.702621,-29.4339,-1.0,0.3644602,0.7250865,-0.4510239,1.045756,-0.1474291,-0.005146896,0.6538061,-0.04038448,0.02265472563259219,200.4124,26.41
3,-1.0,-1.0,-1.0,0.7271994,0.0,0.0,0.0,-31.95796,-0.754364,-29.41075,-1.0,0.5066874,0.6119923,0.6348847,0.0,0.0,0.0,36.40845,-3.702621,-29.4339,-1.0,0.3644602,0.7250865,-0.4510239,1.045756,-0.1474291,-0.005146896,0.6538061,-0.04038448,0.02265472563259219,200.4124,26.41
3,-1.0,-1.0,-1.0,0.7271994,0.0,0.0,0.0,-31.95796,-0.754364,-29.41075,-1.0,0.5066874,0.6119923,0.6348847,0.0,0.0,0.0,36.40845,-3.702621,-29.4339,-1.0,0.3644602,0.7250865,-0.4515629,1.04605,-0.1475095,-0.005859694,0.6539883000000001,-0.03928726,0.02265472563259219,-124.5452,26.41
3,-1.0,-1.0,-1.0,0.7271994,0.0,0.0,0.0,-31.95796,-0.754364,-29.41075,-1.0,0.5066874,0.6119923,0.6348847,0.0,0.0,0.0,36.40845,-3.702621,-29.4339,-1.0,0.3644602,0.7250865,-0.4515629,1.04605,-0.1475095,-0.005859694,0.6539883000000001,-0.03928726,0.02265472563259219,-124.5452,26.41
3,-1.0,-1.0,-1.0,0.7271994,0.0,0.0,0.0,-31.95796,-0.754364,-29.41075,-1.0,0.5066874,0.6119923,0.6348847,0.0,0.0,0.0,36.40845,-3.702621,-29.4339,-1.0,0.3644602,0.7250865,-0.4515629,1.04605,-0.1475095,-0.005859694,0.6539883000000001,-0.03928726,0.02265472563259219,-124.5452,26.41
3,-1.0,-1.0,-1.0,0.7271994,0.0,0.0,0.0,-31.95796,-0.754364,-29.41075,-1.0,0.5066874,0.6119923,0.6348847,0.0,0.0,0.0,36.40845,-3.702621,-29.4339,-1.0,0.3644602,0.7250865,-0.4518839,1.046173,-0.1477176,-0.006420016,0.6539772,-0.03809611,0.02265472563259219,-124.5452,26.41
3,-1.0,-1.0,-1.0,0.7271994,0.0,0.0,0.0,-31.95796,-0.754364,-29.41075,-1.0,0.5066874,0.6119923,0.6348847,0.0,0.0,0.0,36.40845,-3.702621,-29.4339,-1.0,0.3644602,0.7250865,-0.4518839,1.046173,-0.1477176,-0.006420016,0.6539772,-0.03809611,0.02265472563259219,-124.5452,26.41
3,-1.0,-1.0,-1.0,0.7271994,0.0,0.0,0.0,-31.95796,-0.754364,-29.41075,-1.0,0.5066874,0.6119923,0.6348847,0.0,0.0,0.0,36.40845,-3.702621,-29.4339,-1.0,0.3644602,0.7250865,-0.4518839,1.046173,-0.1477176,-0.006420016,0.6539772,-0.03809611,0.02265472563259219,-124.5452,26.41
3,-0.005477905,0.0355835,0.9993439,0.8947669,-0.01222229,0.03224182,0.9994049,-32.054759999999995,-1.286316,-28.641240000000003,4.784912,0.5091482,0.6221509,0.9178932,-0.0002593994,0.03817749,0.9992676,36.55659,-4.502258,-28.24762,4.965836,0.3632597,0.7286229000000001,-0.4524651,1.046718,-0.1479441,-0.008194637,0.6539993000000001,-0.03785745,0.02265472563259219,-124.5452,26.41
3,-0.005477905,0.0355835,0.9993439,0.8947669,-0.01222229,0.03224182,0.9994049,-32.054759999999995,-1.286316,-28.641240000000003,4.784912,0.5091482,0.6221509,0.9178932,-0.0002593994,0.03817749,0.9992676,36.55659,-4.502258,-28.24762,4.965836,0.3632597,0.7286229000000001,-0.4524651,1.046718,-0.1479441,-0.008194637,0.6539993000000001,-0.03785745,0.02265472563259219,-124.5452,26.41
3,-0.005477905,0.0355835,0.9993439,0.8947669,-0.01222229,0.03224182,0.9994049,-32.054759999999995,-1.286316,-28.641240000000003,4.784912,0.5091482,0.6221509,0.9178932,-0.0002593994,0.03817749,0.9992676,36.55659,-4.502258,-28.24762,4.965836,0.3632597,0.7286229000000001,-0.4524651,1.046718,-0.1479441,-0.008194637,0.6539993000000001,-0.03785745,0.02265472563259219,-124.5452,26.41
3,-0.006134033,0.05323792,0.9985504,0.914901,-0.009078979,0.04301453,0.9990234,-32.07417,-1.474091,-28.202440000000003,4.806412,0.5091482,0.6222714,0.9518906,-0.006088257,0.05340576,0.9985504,36.6017,-4.554214,-28.36205,5.040543,0.3625377,0.7292021,-0.4526777,1.046791,-0.1482023999999999,-0.008579945,0.6543889,-0.03792474,0.02265472563259219,-124.5452,26.41
3,-0.006134033,0.05323792,0.9985504,0.914901,-0.009078979,0.04301453,0.9990234,-32.07417,-1.474091,-28.202440000000003,4.806412,0.5091482,0.6222714,0.9518906,-0.006088257,0.05340576,0.9985504,36.6017,-4.554214,-28.36205,5.040543,0.3625377,0.7292021,-0.4526777,1.046791,-0.1482023999999999,-0.008579945,0.6543889,-0.03792474,0.02265472563259219,-124.5452,26.41
3,-0.006134033,0.05323792,0.9985504,0.914901,-0.009078979,0.04301453,0.9990234,-32.07417,-1.474091,-28.202440000000003,4.806412,0.5091482,0.6222714,0.9518906,-0.006088257,0.05340576,0.9985504,36.6017,-4.554214,-28.36205,5.040543,0.3625377,0.7292021,-0.4526777,1.046791,-0.1482023999999999,-0.008579945,0.6543889,-0.03792474,0.02265472563259219,-124.5452,26.41
3,-0.0011749269999999,0.03140259,0.9994965,0.915263,-0.003219604,0.04766846,0.9988556,-32.112759999999994,-1.666504,-27.64127,4.809508999999999,0.5093027,0.6223126999999999,0.9416423,-0.0011749269999999,0.03140259,0.9994965,36.60419,-4.5795900000000005,-28.35356,4.934235,0.3615180999999999,0.7337334,-0.4528465999999999,1.046663,-0.1483934,-0.008166404,0.654612,-0.03811068,0.02265472563259219,-124.5452,26.41
3,-0.0011749269999999,0.03140259,0.9994965,0.915263,-0.003219604,0.04766846,0.9988556,-32.112759999999994,-1.666504,-27.64127,4.809508999999999,0.5093027,0.6223126999999999,0.9416423,-0.0011749269999999,0.03140259,0.9994965,36.60419,-4.5795900000000005,-28.35356,4.934235,0.3615180999999999,0.7337334,-0.4528465999999999,1.046663,-0.1483934,-0.008166404,0.654612,-0.03811068,0.02265472563259219,-124.5452,26.41
3,-0.0011749269999999,0.03140259,0.9994965,0.915263,-0.003219604,0.04766846,0.9988556,-32.112759999999994,-1.666504,-27.64127,4.809508999999999,0.5093027,0.6223126999999999,0.9416423,-0.0011749269999999,0.03140259,0.9994965,36.60419,-4.5795900000000005,-28.35356,4.934235,0.3615180999999999,0.7337334,-0.4528465999999999,1.046663,-0.1483934,-0.008166404,0.654612,-0.03811068,0.02265472563259219,-124.5452,26.41
3,-0.0011749269999999,0.03140259,0.9994965,0.915263,-0.003219604,0.04766846,0.9988556,-32.112759999999994,-1.666504,-27.64127,4.809508999999999,0.5093027,0.6223126999999999,0.9416423,-0.0011749269999999,0.03140259,0.9994965,36.60419,-4.5795900000000005,-28.35356,4.934235,0.3615180999999999,0.7337334,-0.4528793,1.046502,-0.1484924,-0.008222095,0.6550382,-0.03859956,0.02265472563259219,-103.1467,26.41
3,-0.0011749269999999,0.03140259,0.9994965,0.915263,-0.003219604,0.04766846,0.9988556,-32.112759999999994,-1.666504,-27.64127,4.809508999999999,0.5093027,0.6223126999999999,0.9416423,-0.0011749269999999,0.03140259,0.9994965,36.60419,-4.5795900000000005,-28.35356,4.934235,0.3615180999999999,0.7337334,-0.4528793,1.046502,-0.1484924,-0.008222095,0.6550382,-0.03859956,0.02265472563259219,-103.1467,26.41
3,-0.0011749269999999,0.03140259,0.9994965,0.915263,-0.003219604,0.04766846,0.9988556,-32.112759999999994,-1.666504,-27.64127,4.809508999999999,0.5093027,0.6223126999999999,0.9416423,-0.0011749269999999,0.03140259,0.9994965,36.60419,-4.5795900000000005,-28.35356,4.934235,0.3615180999999999,0.7337334,-0.4528793,1.046502,-0.1484924,-0.008222095,0.6550382,-0.03859956,0.02265472563259219,-103.1467,26.41
3,0.003341675,0.01965332,0.9997864,0.9239402,-0.008056641,0.05201721,0.9986115,-32.08357,-1.576538,-28.06172,4.765518,0.5092524,0.6227474000000001,0.9449679,0.003372192,0.01957703,0.9998016,36.59023,-4.530869,-28.3499,4.929153,0.3612082,0.7340593000000001,-0.4528002,1.046317,-0.1486572,-0.007673942,0.6551475,-0.03869379,0.02265472563259219,-103.1467,26.41
3,0.003341675,0.01965332,0.9997864,0.9239402,-0.008056641,0.05201721,0.9986115,-32.08357,-1.576538,-28.06172,4.765518,0.5092524,0.6227474000000001,0.9449679,0.003372192,0.01957703,0.9998016,36.59023,-4.530869,-28.3499,4.929153,0.3612082,0.7340593000000001,-0.4528002,1.046317,-0.1486572,-0.007673942,0.6551475,-0.03869379,0.02265472563259219,-103.1467,26.41
3,0.003341675,0.01965332,0.9997864,0.9239402,-0.008056641,0.05201721,0.9986115,-32.08357,-1.576538,-28.06172,4.765518,0.5092524,0.6227474000000001,0.9449679,0.003372192,0.01957703,0.9998016,36.59023,-4.530869,-28.3499,4.929153,0.3612082,0.7340593000000001,-0.4528002,1.046317,-0.1486572,-0.007673942,0.6551475,-0.03869379,0.02265472563259219,-103.1467,26.41
3,-0.003204346,0.03718567,0.9992981,0.9395886,-0.006942749,0.04598999,0.9989166,-32.07864,-1.583145,-28.03687,4.719696,0.5088874,0.6236745,0.9424396,0.0007171631,0.02792358,0.9996033,36.60669,-4.522903,-28.53021,4.922821,0.3608984,0.7343851,-0.4526545,1.046089,-0.1486794,-0.006867744,0.6551835,-0.03930678,0.02265472563259219,-103.1467,26.41
3,-0.003204346,0.03718567,0.9992981,0.9395886,-0.006942749,0.04598999,0.9989166,-32.07864,-1.583145,-28.03687,4.719696,0.5088874,0.6236745,0.9424396,0.0007171631,0.02792358,0.9996033,36.60669,-4.522903,-28.53021,4.922821,0.3608984,0.7343851,-0.4526545,1.046089,-0.1486794,-0.006867744,0.6551835,-0.03930678,0.02265472563259219,-103.1467,26.41
3,-0.003204346,0.03718567,0.9992981,0.9395886,-0.006942749,0.04598999,0.9989166,-32.07864,-1.583145,-28.03687,4.719696,0.5088874,0.6236745,0.9424396,0.0007171631,0.02792358,0.9996033,36.60669,-4.522903,-28.53021,4.922821,0.3608984,0.7343851,-0.4526545,1.046089,-0.1486794,-0.006867744,0.6551835,-0.03930678,0.02265472563259219,-103.1467,26.41
3,-0.003662109,0.04031372,0.999176,0.9304706,-0.005111694,0.04444885,0.9989929,-32.0759,-1.583145,-28.03687,4.715088,0.5084888,0.6239222,0.940286,0.0003204346,0.02896118,0.9995728000000002,36.61113,-4.520676,-28.5432,4.929199,0.3607960999999999,0.7342854,-0.4524317,1.045986,-0.1487695,-0.006464831,0.6551728,-0.03972657,0.02265472563259219,-103.1467,26.41
3,-0.003662109,0.04031372,0.999176,0.9304706,-0.005111694,0.04444885,0.9989929,-32.0759,-1.583145,-28.03687,4.715088,0.5084888,0.6239222,0.940286,0.0003204346,0.02896118,0.9995728000000002,36.61113,-4.520676,-28.5432,4.929199,0.3607960999999999,0.7342854,-0.4524317,1.045986,-0.1487695,-0.006464831,0.6551728,-0.03972657,0.02265472563259219,-103.1467,26.41
3,-0.003662109,0.04031372,0.999176,0.9304706,-0.005111694,0.04444885,0.9989929,-32.0759,-1.583145,-28.03687,4.715088,0.5084888,0.6239222,0.940286,0.0003204346,0.02896118,0.9995728000000002,36.61113,-4.520676,-28.5432,4.929199,0.3607960999999999,0.7342854,-0.4524317,1.045986,-0.1487695,-0.006464831,0.6551728,-0.03972657,0.02265472563259219,-103.1467,26.41
3,0.0002441406,0.03051758,0.999527,0.9233418,-0.002502441,0.04182434,0.999115,-32.07477,-1.627487,-27.88358,4.734207,0.5079717,0.6243361999999999,0.9594089,0.0018463129999999,0.02391052,0.9997101,36.61464,-4.5159910000000005,-28.53448,4.918289,0.3603999,0.7348984000000001,-0.4519521999999999,1.0458,-0.1487366,-0.005588968,0.6552926,-0.03975254,0.02265472563259219,50.51543,26.41
3,0.0002441406,0.03051758,0.999527,0.9233418,-0.002502441,0.04182434,0.999115,-32.07477,-1.627487,-27.88358,4.734207,0.5079717,0.6243361999999999,0.9594089,0.0018463129999999,0.02391052,0.9997101,36.61464,-4.5159910000000005,-28.53448,4.918289,0.3603999,0.7348984000000001,-0.4519521999999999,1.0458,-0.1487366,-0.005588968,0.6552926,-0.03975254,0.02265472563259219,50.51543,26.41
3,0.0002441406,0.03051758,0.999527,0.9233418,-0.002502441,0.04182434,0.999115,-32.07477,-1.627487,-27.88358,4.734207,0.5079717,0.6243361999999999,0.9594089,0.0018463129999999,0.02391052,0.9997101,36.61464,-4.5159910000000005,-28.53448,4.918289,0.3603999,0.7348984000000001,-0.4519521999999999,1.0458,-0.1487366,-0.005588968,0.6552926,-0.03975254,0.02265472563259219,50.51543,26.41
3,0.001403809,0.03132629,0.9994965,0.9350511,-0.0001831054999999,0.04031372,0.999176,-32.07477,-1.62883,-27.88358,4.73819,0.5075826,0.6246275,0.9485376,0.002563477,0.02478027,0.9996796,36.6116,-4.521118,-28.52106,4.919479,0.3603999,0.7347794,-0.4517430999999999,1.045629,-0.1487285,-0.0052607209999999,0.6554167,-0.03984221,0.02265472563259219,50.51543,26.41
3,0.001403809,0.03132629,0.9994965,0.9350511,-0.0001831054999999,0.04031372,0.999176,-32.07477,-1.62883,-27.88358,4.73819,0.5075826,0.6246275,0.9485376,0.002563477,0.02478027,0.9996796,36.6116,-4.521118,-28.52106,4.919479,0.3603999,0.7347794,-0.4517430999999999,1.045629,-0.1487285,-0.0052607209999999,0.6554167,-0.03984221,0.02265472563259219,50.51543,26.41
3,0.001403809,0.03132629,0.9994965,0.9350511,-0.0001831054999999,0.04031372,0.999176,-32.07477,-1.62883,-27.88358,4.73819,0.5075826,0.6246275,0.9485376,0.002563477,0.02478027,0.9996796,36.6116,-4.521118,-28.52106,4.919479,0.3603999,0.7347794,-0.4517430999999999,1.045629,-0.1487285,-0.0052607209999999,0.6554167,-0.03984221,0.02265472563259219,50.51543,26.41
3,0.001434326,0.03208923,0.9994812,0.9406748,-9.155273e-05,0.03974915,0.9992065,-32.07423,-1.621078,-27.94374,4.735138,0.5075683,0.6250678000000001,0.9434309,0.002853394,0.02510071,0.9996796,36.61087,-4.531052,-28.495990000000003,4.920639,0.3603999,0.7347794,-0.4515170999999999,1.045424,-0.1486608999999999,-0.004852583,0.6555705,-0.04016906,0.02265472563259219,50.51543,26.41
3,0.001434326,0.03208923,0.9994812,0.9406748,-9.155273e-05,0.03974915,0.9992065,-32.07423,-1.621078,-27.94374,4.735138,0.5075683,0.6250678000000001,0.9434309,0.002853394,0.02510071,0.9996796,36.61087,-4.531052,-28.495990000000003,4.920639,0.3603999,0.7347794,-0.4515170999999999,1.045424,-0.1486608999999999,-0.004852583,0.6555705,-0.04016906,0.02265472563259219,50.51543,26.41
3,0.001434326,0.03208923,0.9994812,0.9406748,-9.155273e-05,0.03974915,0.9992065,-32.07423,-1.621078,-27.94374,4.735138,0.5075683,0.6250678000000001,0.9434309,0.002853394,0.02510071,0.9996796,36.61087,-4.531052,-28.495990000000003,4.920639,0.3603999,0.7347794,-0.4515170999999999,1.045424,-0.1486608999999999,-0.004852583,0.6555705,-0.04016906,0.02265472563259219,50.51543,26.41
3,0.0008239746,0.02874756,0.9995728000000002,0.9330372,-0.0008850097999999,0.03649902,0.9993286,-32.07274,-1.563385,-28.12866,4.710098,0.5077007,0.6255187,0.9511026,0.001281738,0.02664185,0.9996338,36.60968,-4.552169999999999,-28.44023,4.909927,0.3607835,0.7345903,-0.4513170999999999,1.045327,-0.1487344,-0.004866764,0.6559833,-0.0405561,0.02265472563259219,50.51543,26.41
3,0.0008239746,0.02874756,0.9995728000000002,0.9330372,-0.0008850097999999,0.03649902,0.9993286,-32.07274,-1.563385,-28.12866,4.710098,0.5077007,0.6255187,0.9511026,0.001281738,0.02664185,0.9996338,36.60968,-4.552169999999999,-28.44023,4.909927,0.3607835,0.7345903,-0.4513170999999999,1.045327,-0.1487344,-0.004866764,0.6559833,-0.0405561,0.02265472563259219,50.51543,26.41
3,0.0008239746,0.02874756,0.9995728000000002,0.9330372,-0.0008850097999999,0.03649902,0.9993286,-32.07274,-1.563385,-28.12866,4.710098,0.5077007,0.6255187,0.9511026,0.001281738,0.02664185,0.9996338,36.60968,-4.552169999999999,-28.44023,4.909927,0.3607835,0.7345903,-0.4513170999999999,1.045327,-0.1487344,-0.004866764,0.6559833,-0.0405561,0.02265472563259219,50.51543,26.41
3,-0.00112915,0.02919006,0.9995728000000002,0.9346495,-0.0003967285,0.03494263,0.9993744,-32.07193,-1.544037,-28.18085,4.703064,0.5076087,0.6256477,0.9608738,-0.001434326,0.02676392,0.9996338,36.60912,-4.555161,-28.41852,4.918686,0.3613020999999999,0.7344255000000001,-0.4509563,1.045117,-0.1489812999999999,-0.004798932,0.6571638000000001,-0.04070501,0.02265472563259219,50.51543,26.41
3,-0.00112915,0.02919006,0.9995728000000002,0.9346495,-0.0003967285,0.03494263,0.9993744,-32.07193,-1.544037,-28.18085,4.703064,0.5076087,0.6256477,0.9608738,-0.001434326,0.02676392,0.9996338,36.60912,-4.555161,-28.41852,4.918686,0.3613020999999999,0.7344255000000001,-0.4509563,1.045117,-0.1489812999999999,-0.004798932,0.6571638000000001,-0.04070501,0.02265472563259219,50.51543,26.41
3,-0.00112915,0.02919006,0.9995728000000002,0.9346495,-0.0003967285,0.03494263,0.9993744,-32.07193,-1.544037,-28.18085,4.703064,0.5076087,0.6256477,0.9608738,-0.001434326,0.02676392,0.9996338,36.60912,-4.555161,-28.41852,4.918686,0.3613020999999999,0.7344255000000001,-0.4509563,1.045117,-0.1489812999999999,-0.004798932,0.6571638000000001,-0.04070501,0.02265472563259219,50.51543,26.41
3,-0.00112915,0.02919006,0.9995728000000002,0.9294779,-0.0003967285,0.03494263,0.9993744,-32.07193,-1.544037,-28.18085,4.703064,0.5076087,0.6256477,0.9575624,-0.001434326,0.02676392,0.9996338,36.60912,-4.555161,-28.41852,4.918686,0.3613020999999999,0.7344255000000001,-0.4509563,1.045117,-0.1489812999999999,-0.004798932,0.6571638000000001,-0.04070501,0.02265472563259219,-25.14702,26.41
3,-0.00112915,0.02919006,0.9995728000000002,0.9294779,-0.0003967285,0.03494263,0.9993744,-32.07193,-1.544037,-28.18085,4.703064,0.5076087,0.6256477,0.9575624,-0.001434326,0.02676392,0.9996338,36.60912,-4.555161,-28.41852,4.918686,0.3613020999999999,0.7344255000000001,-0.4509563,1.045117,-0.1489812999999999,-0.004798932,0.6571638000000001,-0.04070501,0.02265472563259219,-25.14702,26.41
3,-0.00112915,0.02919006,0.9995728000000002,0.9294779,-0.0003967285,0.03494263,0.9993744,-32.07193,-1.544037,-28.18085,4.703064,0.5076087,0.6256477,0.9575624,-0.001434326,0.02676392,0.9996338,36.60912,-4.555161,-28.41852,4.918686,0.3613020999999999,0.7344255000000001,-0.4509563,1.045117,-0.1489812999999999,-0.004798932,0.6571638000000001,-0.04070501,0.02265472563259219,-25.14702,26.41
3,-0.00112915,0.02919006,0.9995728000000002,0.9294779,-0.0003967285,0.03494263,0.9993744,-32.07193,-1.544037,-28.18085,4.703064,0.5076087,0.6256477,0.9575624,-0.001434326,0.02676392,0.9996338,36.60912,-4.555161,-28.41852,4.918686,0.3613020999999999,0.7344255000000001,-0.4508443,1.044955,-0.1492086,-0.004694155,0.6582413,-0.04064799,0.02265472563259219,-25.14702,26.41
3,-0.00112915,0.02919006,0.9995728000000002,0.9294779,-0.0003967285,0.03494263,0.9993744,-32.07193,-1.544037,-28.18085,4.703064,0.5076087,0.6256477,0.9575624,-0.001434326,0.02676392,0.9996338,36.60912,-4.555161,-28.41852,4.918686,0.3613020999999999,0.7344255000000001,-0.4508443,1.044955,-0.1492086,-0.004694155,0.6582413,-0.04064799,0.02265472563259219,-25.14702,26.41
3,-0.00112915,0.02919006,0.9995728000000002,0.9294779,-0.0003967285,0.03494263,0.9993744,-32.07193,-1.544037,-28.18085,4.703064,0.5076087,0.6256477,0.9575624,-0.001434326,0.02676392,0.9996338,36.60912,-4.555161,-28.41852,4.918686,0.3613020999999999,0.7344255000000001,-0.4508443,1.044955,-0.1492086,-0.004694155,0.6582413,-0.04064799,0.02265472563259219,-25.14702,26.41
3,-0.0009613037,0.02980042,0.9995421999999998,0.9294779,-0.0004119873,0.0355835,0.9993591,-32.07193,-1.550369,-28.170140000000004,4.7034910000000005,0.5076087,0.6256477,0.9575624,-0.001235962,0.02676392,0.9996338,36.60912,-4.555161,-28.41852,4.918503,0.3612692,0.7344255000000001,-0.4507909,1.044859,-0.1493734,-0.005230182,0.6587435,-0.04031209,0.02265472563259219,-25.14702,26.49
3,-0.0009613037,0.02980042,0.9995421999999998,0.9294779,-0.0004119873,0.0355835,0.9993591,-32.07193,-1.550369,-28.170140000000004,4.7034910000000005,0.5076087,0.6256477,0.9575624,-0.001235962,0.02676392,0.9996338,36.60912,-4.555161,-28.41852,4.918503,0.3612692,0.7344255000000001,-0.4507909,1.044859,-0.1493734,-0.005230182,0.6587435,-0.04031209,0.02265472563259219,-25.14702,26.49
3,-0.0009613037,0.02980042,0.9995421999999998,0.9294779,-0.0004119873,0.0355835,0.9993591,-32.07193,-1.550369,-28.170140000000004,4.7034910000000005,0.5076087,0.6256477,0.9575624,-0.001235962,0.02676392,0.9996338,36.60912,-4.555161,-28.41852,4.918503,0.3612692,0.7344255000000001,-0.4507909,1.044859,-0.1493734,-0.005230182,0.6587435,-0.04031209,0.02265472563259219,-25.14702,26.49
3,-0.0009002686,0.03050232,0.999527,0.9344374,-0.0004119873,0.0355835,0.9993591,-32.07196,-1.550369,-28.170140000000004,4.702667,0.5076087,0.6256477,0.950685,-0.001235962,0.02682495,0.9996338,36.60912,-4.555161,-28.41852,4.918762,0.3612692,0.7344175999999999,-0.4507804,1.044959,-0.1495146,-0.006098631,0.6591035,-0.03998394,0.02265472563259219,-25.14702,26.49
3,-0.0009002686,0.03050232,0.999527,0.9344374,-0.0004119873,0.0355835,0.9993591,-32.07196,-1.550369,-28.170140000000004,4.702667,0.5076087,0.6256477,0.950685,-0.001235962,0.02682495,0.9996338,36.60912,-4.555161,-28.41852,4.918762,0.3612692,0.7344175999999999,-0.4507804,1.044959,-0.1495146,-0.006098631,0.6591035,-0.03998394,0.02265472563259219,-25.14702,26.49
3,-0.0009002686,0.03050232,0.999527,0.9344374,-0.0004119873,0.0355835,0.9993591,-32.07196,-1.550369,-28.170140000000004,4.702667,0.5076087,0.6256477,0.950685,-0.001235962,0.02682495,0.9996338,36.60912,-4.555161,-28.41852,4.918762,0.3612692,0.7344175999999999,-0.4507804,1.044959,-0.1495146,-0.006098631,0.6591035,-0.03998394,0.02265472563259219,-25.14702,26.49
3,-0.0009002686,0.03050232,0.999527,0.9344374,-0.0004119873,0.0355835,0.9993591,-32.07196,-1.550369,-28.170140000000004,4.702667,0.5076087,0.6256477,0.950685,-0.001235962,0.02682495,0.9996338,36.60912,-4.555161,-28.41852,4.918762,0.3612692,0.7344175999999999,-0.4510988,1.045084,-0.1499865,-0.006634328,0.6599881999999999,-0.04053364,0.02265472563259219,-35.2309,26.49
3,-0.0009002686,0.03050232,0.999527,0.9344374,-0.0004119873,0.0355835,0.9993591,-32.07196,-1.550369,-28.170140000000004,4.702667,0.5076087,0.6256477,0.950685,-0.001235962,0.02682495,0.9996338,36.60912,-4.555161,-28.41852,4.918762,0.3612692,0.7344175999999999,-0.4510988,1.045084,-0.1499865,-0.006634328,0.6599881999999999,-0.04053364,0.02265472563259219,-35.2309,26.49
3,-0.0009002686,0.03050232,0.999527,0.9344374,-0.0004119873,0.0355835,0.9993591,-32.07196,-1.550369,-28.170140000000004,4.702667,0.5076087,0.6256477,0.950685,-0.001235962,0.02682495,0.9996338,36.60912,-4.555161,-28.41852,4.918762,0.3612692,0.7344175999999999,-0.4510988,1.045084,-0.1499865,-0.006634328,0.6599881999999999,-0.04053364,0.02265472563259219,-35.2309,26.49
3,-0.1215972999999999,0.046875,0.9914703,1.0,-0.1217346,0.04740906,0.9914246,-32.9044,-1.133209,-29.23099,4.681915,0.5567840000000001,0.620833,1.0,-0.1114655,0.008956909,0.9937134,35.52686,-3.626495,-30.04532,4.845276,0.4177577,0.7235272,-0.4512451,1.045279,-0.1500944,-0.007328033,0.6603969,-0.03950635,0.02265472563259219,-35.2309,26.49
3,-0.1215972999999999,0.046875,0.9914703,1.0,-0.1217346,0.04740906,0.9914246,-32.9044,-1.133209,-29.23099,4.681915,0.5567840000000001,0.620833,1.0,-0.1114655,0.008956909,0.9937134,35.52686,-3.626495,-30.04532,4.845276,0.4177577,0.7235272,-0.4512451,1.045279,-0.1500944,-0.007328033,0.6603969,-0.03950635,0.02265472563259219,-35.2309,26.49
3,-0.1215972999999999,0.046875,0.9914703,1.0,-0.1217346,0.04740906,0.9914246,-32.9044,-1.133209,-29.23099,4.681915,0.5567840000000001,0.620833,1.0,-0.1114655,0.008956909,0.9937134,35.52686,-3.626495,-30.04532,4.845276,0.4177577,0.7235272,-0.4512451,1.045279,-0.1500944,-0.007328033,0.6603969,-0.03950635,0.02265472563259219,-35.2309,26.49
4,-0.1215972999999999,0.046875,0.9914703,1.0,-0.1217346,0.04740906,0.9914246,-32.9044,-1.133209,-29.23099,4.681915,0.5567840000000001,0.620833,1.0,-0.1114655,0.008956909,0.9937134,35.52686,-3.626495,-30.04532,4.845276,0.4177577,0.7235272,-0.4513844,1.04544,-0.1501385,-0.0083798409999999,0.6605713000000001,-0.03881212,0.02265472563259219,-35.2309,26.49
4,-0.1215972999999999,0.046875,0.9914703,1.0,-0.1217346,0.04740906,0.9914246,-32.9044,-1.133209,-29.23099,4.681915,0.5567840000000001,0.620833,1.0,-0.1114655,0.008956909,0.9937134,35.52686,-3.626495,-30.04532,4.845276,0.4177577,0.7235272,-0.4513844,1.04544,-0.1501385,-0.0083798409999999,0.6605713000000001,-0.03881212,0.02265472563259219,-35.2309,26.49
4,-0.1215972999999999,0.046875,0.9914703,1.0,-0.1217346,0.04740906,0.9914246,-32.9044,-1.133209,-29.23099,4.681915,0.5567840000000001,0.620833,1.0,-0.1114655,0.008956909,0.9937134,35.52686,-3.626495,-30.04532,4.845276,0.4177577,0.7235272,-0.4513844,1.04544,-0.1501385,-0.0083798409999999,0.6605713000000001,-0.03881212,0.02265472563259219,-35.2309,26.49
4,-0.1196898999999999,0.015625,0.9926758,1.0,-0.1224213,0.02755737,0.9920807,-32.92992,-1.217926,-29.11076,4.716187000000001,0.5576571,0.6259272,1.0,-0.1153107,-0.003341675,0.9933167,35.54831,-3.715179,-29.90451,4.923157,0.4176102,0.7274013,-0.4514815,1.045994,-0.1505,-0.01034415,0.6607352,-0.03721308,0.02265472563259219,-13.65799,26.49
4,-0.1196898999999999,0.015625,0.9926758,1.0,-0.1224213,0.02755737,0.9920807,-32.92992,-1.217926,-29.11076,4.716187000000001,0.5576571,0.6259272,1.0,-0.1153107,-0.003341675,0.9933167,35.54831,-3.715179,-29.90451,4.923157,0.4176102,0.7274013,-0.4514815,1.045994,-0.1505,-0.01034415,0.6607352,-0.03721308,0.02265472563259219,-13.65799,26.49
4,-0.1196898999999999,0.015625,0.9926758,1.0,-0.1224213,0.02755737,0.9920807,-32.92992,-1.217926,-29.11076,4.716187000000001,0.5576571,0.6259272,1.0,-0.1153107,-0.003341675,0.9933167,35.54831,-3.715179,-29.90451,4.923157,0.4176102,0.7274013,-0.4514815,1.045994,-0.1505,-0.01034415,0.6607352,-0.03721308,0.02265472563259219,-13.65799,26.49
4,-0.1165619,-0.002380371,0.9931793,1.0,-0.1266632,0.02832031,0.9915314,-32.979890000000005,-1.152969,-29.50861,4.727631,0.5603741999999999,0.6277024999999999,1.0,-0.1161346,-0.0036468509999999,0.9932251,35.54831,-3.733597,-29.89326,4.932114,0.4177443,0.7279951,-0.4515722,1.046267,-0.1508402,-0.01139446,0.6611736,-0.03728384,0.02265472563259219,-13.65799,26.49
4,-0.1165619,-0.002380371,0.9931793,1.0,-0.1266632,0.02832031,0.9915314,-32.979890000000005,-1.152969,-29.50861,4.727631,0.5603741999999999,0.6277024999999999,1.0,-0.1161346,-0.0036468509999999,0.9932251,35.54831,-3.733597,-29.89326,4.932114,0.4177443,0.7279951,-0.4515722,1.046267,-0.1508402,-0.01139446,0.6611736,-0.03728384,0.02265472563259219,-13.65799,26.49
4,-0.1165619,-0.002380371,0.9931793,1.0,-0.1266632,0.02832031,0.9915314,-32.979890000000005,-1.152969,-29.50861,4.727631,0.5603741999999999,0.6277024999999999,1.0,-0.1161346,-0.0036468509999999,0.9932251,35.54831,-3.733597,-29.89326,4.932114,0.4177443,0.7279951,-0.4515722,1.046267,-0.1508402,-0.01139446,0.6611736,-0.03728384,0.02265472563259219,-13.65799,26.49
4,-0.1168823,-0.00112915,0.9931335,1.0,-0.1230316,0.03083801,0.9919128,-32.978,-1.146072,-29.51537,4.767044,0.5596934,0.6271329000000001,1.0,-0.1165313999999999,-0.0029296879999999,0.9931793,35.55553,-3.691025,-30.31734,4.951233,0.4173099,0.7312807,-0.4517274,1.046372,-0.1511872,-0.01151868,0.6615379,-0.03707563,0.02265472563259219,-13.65799,26.49
4,-0.1168823,-0.00112915,0.9931335,1.0,-0.1230316,0.03083801,0.9919128,-32.978,-1.146072,-29.51537,4.767044,0.5596934,0.6271329000000001,1.0,-0.1165313999999999,-0.0029296879999999,0.9931793,35.55553,-3.691025,-30.31734,4.951233,0.4173099,0.7312807,-0.4517274,1.046372,-0.1511872,-0.01151868,0.6615379,-0.03707563,0.02265472563259219,-13.65799,26.49
4,-0.1168823,-0.00112915,0.9931335,1.0,-0.1230316,0.03083801,0.9919128,-32.978,-1.146072,-29.51537,4.767044,0.5596934,0.6271329000000001,1.0,-0.1165313999999999,-0.0029296879999999,0.9931793,35.55553,-3.691025,-30.31734,4.951233,0.4173099,0.7312807,-0.4517274,1.046372,-0.1511872,-0.01151868,0.6615379,-0.03707563,0.02265472563259219,-13.65799,26.49
4,-1.0,-1.0,-1.0,0.5526876000000001,0.0,0.0,0.0,-33.10188,-0.09088135,-32.13304,-1.0,0.5292435999999999,0.6709714,0.4488592999999999,0.0,0.0,0.0,35.7382,-2.955612,-31.52618,-1.0,0.4212997999999999,0.8362009,-0.4520555999999999,1.046366,-0.1517829,-0.0130283999999999,0.6623604999999999,-0.03734015,0.02265472563259219,-13.65799,26.49
4,-1.0,-1.0,-1.0,0.5526876000000001,0.0,0.0,0.0,-33.10188,-0.09088135,-32.13304,-1.0,0.5292435999999999,0.6709714,0.4488592999999999,0.0,0.0,0.0,35.7382,-2.955612,-31.52618,-1.0,0.4212997999999999,0.8362009,-0.4520555999999999,1.046366,-0.1517829,-0.0130283999999999,0.6623604999999999,-0.03734015,0.02265472563259219,-13.65799,26.49
4,-1.0,-1.0,-1.0,0.5526876000000001,0.0,0.0,0.0,-33.10188,-0.09088135,-32.13304,-1.0,0.5292435999999999,0.6709714,0.4488592999999999,0.0,0.0,0.0,35.7382,-2.955612,-31.52618,-1.0,0.4212997999999999,0.8362009,-0.4520555999999999,1.046366,-0.1517829,-0.0130283999999999,0.6623604999999999,-0.03734015,0.02265472563259219,-13.65799,26.49
4,0.1752167,-0.08100891,0.9811859,0.4215292999999999,0.07479858,-0.09300232,0.9928436,-31.450840000000003,-0.3520508,-31.27405,4.300629,0.4741361,0.6385206,0.2297405,0.1752167,-0.08100891,0.9811859,37.30312,-4.287079,-29.7937,3.956772,0.3060832,0.7578052,-0.4521497,1.046418,-0.1520625,-0.01344714,0.6628493000000001,-0.03729423,0.02265472563259219,20.62941,26.49
4,0.1752167,-0.08100891,0.9811859,0.4215292999999999,0.07479858,-0.09300232,0.9928436,-31.450840000000003,-0.3520508,-31.27405,4.300629,0.4741361,0.6385206,0.2297405,0.1752167,-0.08100891,0.9811859,37.30312,-4.287079,-29.7937,3.956772,0.3060832,0.7578052,-0.4521497,1.046418,-0.1520625,-0.01344714,0.6628493000000001,-0.03729423,0.02265472563259219,20.62941,26.49
4,0.1752167,-0.08100891,0.9811859,0.4215292999999999,0.07479858,-0.09300232,0.9928436,-31.450840000000003,-0.3520508,-31.27405,4.300629,0.4741361,0.6385206,0.2297405,0.1752167,-0.08100891,0.9811859,37.30312,-4.287079,-29.7937,3.956772,0.3060832,0.7578052,-0.4521497,1.046418,-0.1520625,-0.01344714,0.6628493000000001,-0.03729423,0.02265472563259219,20.62941,26.49
4,0.132843,-0.09721375,0.9863434,0.8488673000000001,0.07275391,-0.01574707,0.9972229,-31.34982,-0.7716826999999999,-30.639740000000003,4.746582,0.4710314,0.6331773,0.5858524,0.132843,-0.09721375,0.9863434,37.32545,-4.065567,-29.78476,4.72052,0.30925,0.756309,-0.4522692,1.04663,-0.152397,-0.01414805,0.6638035,-0.03689291,0.02265472563259219,20.62941,26.49
4,0.132843,-0.09721375,0.9863434,0.8488673000000001,0.07275391,-0.01574707,0.9972229,-31.34982,-0.7716826999999999,-30.639740000000003,4.746582,0.4710314,0.6331773,0.5858524,0.132843,-0.09721375,0.9863434,37.32545,-4.065567,-29.78476,4.72052,0.30925,0.756309,-0.4522692,1.04663,-0.152397,-0.01414805,0.6638035,-0.03689291,0.02265472563259219,20.62941,26.49
4,0.132843,-0.09721375,0.9863434,0.8488673000000001,0.07275391,-0.01574707,0.9972229,-31.34982,-0.7716826999999999,-30.639740000000003,4.746582,0.4710314,0.6331773,0.5858524,0.132843,-0.09721375,0.9863434,37.32545,-4.065567,-29.78476,4.72052,0.30925,0.756309,-0.4522692,1.04663,-0.152397,-0.01414805,0.6638035,-0.03689291,0.02265472563259219,20.62941,26.49
4,0.1101684999999999,-0.04554749,0.9928589,0.9554756,0.06980896,-0.04489136,0.9965363000000002,-31.37947,-0.8790283000000001,-30.27693,4.681671,0.4725377,0.638099,0.7172310000000001,0.1102752999999999,-0.04554749,0.9928436,37.34645,-4.105652,-29.95171,5.221268,0.3122808,0.7507648,-0.4522715,1.046731,-0.1525123,-0.01428627,0.6639639,-0.03641692,0.02265472563259219,20.62941,26.49
4,0.1101684999999999,-0.04554749,0.9928589,0.9554756,0.06980896,-0.04489136,0.9965363000000002,-31.37947,-0.8790283000000001,-30.27693,4.681671,0.4725377,0.638099,0.7172310000000001,0.1102752999999999,-0.04554749,0.9928436,37.34645,-4.105652,-29.95171,5.221268,0.3122808,0.7507648,-0.4522715,1.046731,-0.1525123,-0.01428627,0.6639639,-0.03641692,0.02265472563259219,20.62941,26.49
4,0.1101684999999999,-0.04554749,0.9928589,0.9554756,0.06980896,-0.04489136,0.9965363000000002,-31.37947,-0.8790283000000001,-30.27693,4.681671,0.4725377,0.638099,0.7172310000000001,0.1102752999999999,-0.04554749,0.9928436,37.34645,-4.105652,-29.95171,5.221268,0.3122808,0.7507648,-0.4522715,1.046731,-0.1525123,-0.01428627,0.6639639,-0.03641692,0.02265472563259219,20.62941,26.49
4,0.1101226999999999,-0.0269165,0.9935455,0.9690157,0.08474731,-0.02108765,0.99617,-31.3812,-0.8815613000000001,-30.44366,4.881668,0.4701010999999999,0.6360064999999999,0.7223703,0.1106414999999999,-0.02703857,0.9934845,37.34596,-4.081131,-30.12935,5.357285,0.3119859,0.7488151999999999,-0.4522715,1.046731,-0.1525123,-0.01428627,0.6639639,-0.03641692,0.02265472563259219,20.62941,26.49
4,0.1101226999999999,-0.0269165,0.9935455,0.9690157,0.08474731,-0.02108765,0.99617,-31.3812,-0.8815613000000001,-30.44366,4.881668,0.4701010999999999,0.6360064999999999,0.7223703,0.1106414999999999,-0.02703857,0.9934845,37.34596,-4.081131,-30.12935,5.357285,0.3119859,0.7488151999999999,-0.4522715,1.046731,-0.1525123,-0.01428627,0.6639639,-0.03641692,0.02265472563259219,20.62941,26.49
4,0.1101226999999999,-0.0269165,0.9935455,0.9690157,0.08474731,-0.02108765,0.99617,-31.3812,-0.8815613000000001,-30.44366,4.881668,0.4701010999999999,0.6360064999999999,0.7223703,0.1106414999999999,-0.02703857,0.9934845,37.34596,-4.081131,-30.12935,5.357285,0.3119859,0.7488151999999999,-0.4522715,1.046731,-0.1525123,-0.01428627,0.6639639,-0.03641692,0.02265472563259219,20.62941,26.49
4,0.0940093999999999,-0.02746582,0.9951782,0.9707958,0.07936096,-0.03103638,0.9963531,-31.390490000000003,-0.9838715,-30.15648,4.816315,0.4713151,0.6381852,0.7564948,0.1069946,-0.02429199,0.9939575,37.35265,-4.135773,-30.11995,5.290909,0.3123237,0.7501135,-0.4522551999999999,1.046677,-0.1524525,-0.01432442,0.6639421999999999,-0.03585004,0.02265472563259219,20.62941,26.49
4,0.0940093999999999,-0.02746582,0.9951782,0.9707958,0.07936096,-0.03103638,0.9963531,-31.390490000000003,-0.9838715,-30.15648,4.816315,0.4713151,0.6381852,0.7564948,0.1069946,-0.02429199,0.9939575,37.35265,-4.135773,-30.11995,5.290909,0.3123237,0.7501135,-0.4522551999999999,1.046677,-0.1524525,-0.01432442,0.6639421999999999,-0.03585004,0.02265472563259219,20.62941,26.49
4,0.0940093999999999,-0.02746582,0.9951782,0.9707958,0.07936096,-0.03103638,0.9963531,-31.390490000000003,-0.9838715,-30.15648,4.816315,0.4713151,0.6381852,0.7564948,0.1069946,-0.02429199,0.9939575,37.35265,-4.135773,-30.11995,5.290909,0.3123237,0.7501135,-0.4522551999999999,1.046677,-0.1524525,-0.01432442,0.6639421999999999,-0.03585004,0.02265472563259219,20.62941,26.49
4,0.09666443,-0.02319336,0.9950409,0.9681658,0.08668518,-0.01683044,0.9960785,-31.39751,-0.9910583,-30.18829,4.922089,0.4703385999999999,0.6364276999999999,0.7703641999999999,0.1075134,-0.03010559,0.9937439,37.35487,-4.172516000000001,-30.06587,5.342926,0.3121410999999999,0.7519581,-0.4521204000000001,1.046584,-0.1522756,-0.01455852,0.6637444,-0.03608004,0.02265472563259219,20.62941,26.49
4,0.09666443,-0.02319336,0.9950409,0.9681658,0.08668518,-0.01683044,0.9960785,-31.39751,-0.9910583,-30.18829,4.922089,0.4703385999999999,0.6364276999999999,0.7703641999999999,0.1075134,-0.03010559,0.9937439,37.35487,-4.172516000000001,-30.06587,5.342926,0.3121410999999999,0.7519581,-0.4521204000000001,1.046584,-0.1522756,-0.01455852,0.6637444,-0.03608004,0.02265472563259219,20.62941,26.49
4,0.09666443,-0.02319336,0.9950409,0.9681658,0.08668518,-0.01683044,0.9960785,-31.39751,-0.9910583,-30.18829,4.922089,0.4703385999999999,0.6364276999999999,0.7703641999999999,0.1075134,-0.03010559,0.9937439,37.35487,-4.172516000000001,-30.06587,5.342926,0.3121410999999999,0.7519581,-0.4521204000000001,1.046584,-0.1522756,-0.01455852,0.6637444,-0.03608004,0.02265472563259219,20.62941,26.49
4,0.09637451,-0.0242157,0.9950409,0.9713798,0.0866393999999999,-0.02076721,0.9960175,-31.39909,-0.9987335,-30.19197,4.921814,0.4703992999999999,0.6374079,0.782187,0.1102448,-0.02915955,0.9934692,37.35217,-4.185608,-30.03932,5.390823,0.3117582,0.7520456,-0.4521204000000001,1.046584,-0.1522756,-0.01455852,0.6637444,-0.03608004,0.02265472563259219,-7.71492,26.49
4,0.09637451,-0.0242157,0.9950409,0.9713798,0.0866393999999999,-0.02076721,0.9960175,-31.39909,-0.9987335,-30.19197,4.921814,0.4703992999999999,0.6374079,0.782187,0.1102448,-0.02915955,0.9934692,37.35217,-4.185608,-30.03932,5.390823,0.3117582,0.7520456,-0.4521204000000001,1.046584,-0.1522756,-0.01455852,0.6637444,-0.03608004,0.02265472563259219,-7.71492,26.49
4,0.09637451,-0.0242157,0.9950409,0.9713798,0.0866393999999999,-0.02076721,0.9960175,-31.39909,-0.9987335,-30.19197,4.921814,0.4703992999999999,0.6374079,0.782187,0.1102448,-0.02915955,0.9934692,37.35217,-4.185608,-30.03932,5.390823,0.3117582,0.7520456,-0.4521204000000001,1.046584,-0.1522756,-0.01455852,0.6637444,-0.03608004,0.02265472563259219,-7.71492,26.49
4,0.09617615,-0.02191162,0.9951171999999998,0.9624282,0.08409119,-0.0194397,0.9962616,-31.40547,-1.0145110000000002,-30.19197,4.921021,0.4710456,0.6377188,0.8146469,0.115799,-0.02592468,0.9929199,37.33932,-4.235123000000001,-29.93607,5.4202580000000005,0.3113754,0.7520896,-0.4521507999999999,1.046524,-0.1519779,-0.01326332,0.6637270000000001,-0.03603546,0.02265472563259219,-7.71492,26.49
4,0.09617615,-0.02191162,0.9951171999999998,0.9624282,0.08409119,-0.0194397,0.9962616,-31.40547,-1.0145110000000002,-30.19197,4.921021,0.4710456,0.6377188,0.8146469,0.115799,-0.02592468,0.9929199,37.33932,-4.235123000000001,-29.93607,5.4202580000000005,0.3113754,0.7520896,-0.4521507999999999,1.046524,-0.1519779,-0.01326332,0.6637270000000001,-0.03603546,0.02265472563259219,-7.71492,26.49
4,0.09617615,-0.02191162,0.9951171999999998,0.9624282,0.08409119,-0.0194397,0.9962616,-31.40547,-1.0145110000000002,-30.19197,4.921021,0.4710456,0.6377188,0.8146469,0.115799,-0.02592468,0.9929199,37.33932,-4.235123000000001,-29.93607,5.4202580000000005,0.3113754,0.7520896,-0.4521507999999999,1.046524,-0.1519779,-0.01326332,0.6637270000000001,-0.03603546,0.02265472563259219,-7.71492,26.49
4,0.09939575,-0.02178955,0.9947968,0.9658282,0.08357239,-0.01940918,0.9963074,-31.40883,-1.018677,-30.21475,4.924881,0.4712484999999999,0.6380939,0.8057526999999999,0.1163788,-0.02435303,0.9929047,37.33546,-4.243256,-29.924190000000003,5.508942,0.3113807,0.752097,-0.4521492999999999,1.046306,-0.1519092,-0.01301395,0.6637729,-0.03591487,0.02265472563259219,-7.71492,26.49
4,0.09939575,-0.02178955,0.9947968,0.9658282,0.08357239,-0.01940918,0.9963074,-31.40883,-1.018677,-30.21475,4.924881,0.4712484999999999,0.6380939,0.8057526999999999,0.1163788,-0.02435303,0.9929047,37.33546,-4.243256,-29.924190000000003,5.508942,0.3113807,0.752097,-0.4521492999999999,1.046306,-0.1519092,-0.01301395,0.6637729,-0.03591487,0.02265472563259219,-7.71492,26.49
4,0.09939575,-0.02178955,0.9947968,0.9658282,0.08357239,-0.01940918,0.9963074,-31.40883,-1.018677,-30.21475,4.924881,0.4712484999999999,0.6380939,0.8057526999999999,0.1163788,-0.02435303,0.9929047,37.33546,-4.243256,-29.924190000000003,5.508942,0.3113807,0.752097,-0.4521492999999999,1.046306,-0.1519092,-0.01301395,0.6637729,-0.03591487,0.02265472563259219,-7.71492,26.49
