Second,eye_comb_direction_x,eye_comb_direction_y,eye_comb_direction_z,eye_r_openness,eye_r_direction_x,eye_r_direction_y,eye_r_direction_z,eye_r_origin_x,eye_r_origin_y,eye_r_origin_z,eye_r_pupil_diameter,eye_r_pupil_position_x,eye_r_pupil_position_y,eye_l_openness,eye_l_direction_x,eye_l_direction_y,eye_l_direction_z,eye_l_origin_x,eye_l_origin_y,eye_l_origin_z,eye_l_pupil_diameter,eye_l_pupil_position_x,eye_l_pupil_position_y,head_position_x,head_position_y,head_position_z,head_rotation_roll,head_rotation_pitch,head_rotation_yaw,EDA,BVP,TMP
0,-0.03857422,0.06491089,0.9971313,1.0,-0.04240417,0.06459045,0.9970093,-32.18257,-2.039948,-28.73599,5.603088,0.5185081,0.6443476,1.0,-0.0302124,0.06558228,0.9973755,36.78981,-4.137436,-28.23572,5.917435,0.3601753,0.7123384,-0.4039920999999999,1.0412860000000002,-0.1530272999999999,0.006280989,0.7503898,-0.01319292,0.0009833233680065182,-3.0973701501901147,29.461493753394894
0,-0.03857422,0.06491089,0.9971313,1.0,-0.04240417,0.06459045,0.9970093,-32.18257,-2.039948,-28.73599,5.603088,0.5185081,0.6443476,1.0,-0.0302124,0.06558228,0.9973755,36.78981,-4.137436,-28.23572,5.917435,0.3601753,0.7123384,-0.4039920999999999,1.0412860000000002,-0.1530272999999999,0.006280989,0.7503898,-0.01319292,0.0009833233680065182,-3.0973701501901147,29.461493753394894
0,-0.03857422,0.06491089,0.9971313,1.0,-0.04240417,0.06459045,0.9970093,-32.18257,-2.039948,-28.73599,5.603088,0.5185081,0.6443476,1.0,-0.0302124,0.06558228,0.9973755,36.78981,-4.137436,-28.23572,5.917435,0.3601753,0.7123384,-0.4039920999999999,1.0412860000000002,-0.1530272999999999,0.006280989,0.7503898,-0.01319292,0.0009833233680065182,-3.0973701501901147,29.461493753394894
0,-0.03857422,0.06491089,0.9971313,1.0,-0.04240417,0.06459045,0.9970093,-32.18257,-2.039948,-28.73599,5.603088,0.5185081,0.6443476,1.0,-0.0302124,0.06558228,0.9973755,36.78981,-4.137436,-28.23572,5.917435,0.3601753,0.7123384,-0.4039920999999999,1.0412860000000002,-0.1530272999999999,0.006280989,0.7503898,-0.01319292,0.0009833233680065182,-3.0973701501901147,29.461493753394894
0,-0.03675842,0.06613159,0.9971313,1.0,-0.04226685,0.06494141,0.9969788,-32.19162,-2.0312810000000003,-28.77481,5.582962,0.5188086,0.6443763000000001,1.0,-0.03144836,0.067276,0.9972229,36.78645,-4.138565,-28.23601,5.919098,0.3605122,0.7120947,-0.4040182,1.041313,-0.1529284,0.00641305,0.7503709,-0.01302325,0.0009833233680065182,-3.0973701501901147,29.461493753394894
0,-0.03675842,0.06613159,0.9971313,1.0,-0.04226685,0.06494141,0.9969788,-32.19162,-2.0312810000000003,-28.77481,5.582962,0.5188086,0.6443763000000001,1.0,-0.03144836,0.067276,0.9972229,36.78645,-4.138565,-28.23601,5.919098,0.3605122,0.7120947,-0.4040182,1.041313,-0.1529284,0.00641305,0.7503709,-0.01302325,0.0009833233680065182,-3.0973701501901147,29.461493753394894
0,-0.03675842,0.06613159,0.9971313,1.0,-0.04226685,0.06494141,0.9969788,-32.19162,-2.0312810000000003,-28.77481,5.582962,0.5188086,0.6443763000000001,1.0,-0.03144836,0.067276,0.9972229,36.78645,-4.138565,-28.23601,5.919098,0.3605122,0.7120947,-0.4040182,1.041313,-0.1529284,0.00641305,0.7503709,-0.01302325,0.0009833233680065182,-3.0973701501901147,29.461493753394894
0,-0.03636169,0.06646729,0.9971161,1.0,-0.04371643,0.06210327,0.9971008,-32.20247,-2.009247,-28.845370000000003,5.553574,0.5194466,0.6447964,1.0,-0.03134155,0.06944275,0.9970856,36.78055,-4.141144000000001,-28.246170000000003,5.915344,0.3607024,0.711919,-0.4040805,1.041348,-0.1528455,0.006561209,0.7504155,-0.01296419,0.0009833233680065182,-3.0973701501901147,29.461493753394894
0,-0.03636169,0.06646729,0.9971161,1.0,-0.04371643,0.06210327,0.9971008,-32.20247,-2.009247,-28.845370000000003,5.553574,0.5194466,0.6447964,1.0,-0.03134155,0.06944275,0.9970856,36.78055,-4.141144000000001,-28.246170000000003,5.915344,0.3607024,0.711919,-0.4040805,1.041348,-0.1528455,0.006561209,0.7504155,-0.01296419,0.0009833233680065182,-3.0973701501901147,29.461493753394894
0,-0.03636169,0.06646729,0.9971161,1.0,-0.04371643,0.06210327,0.9971008,-32.20247,-2.009247,-28.845370000000003,5.553574,0.5194466,0.6447964,1.0,-0.03134155,0.06944275,0.9970856,36.78055,-4.141144000000001,-28.246170000000003,5.915344,0.3607024,0.711919,-0.4040805,1.041348,-0.1528455,0.006561209,0.7504155,-0.01296419,0.0009833233680065182,-3.0973701501901147,29.461493753394894
0,-0.03564453,0.06808472,0.9970398,1.0,-0.04302979,0.06141663,0.9971771,-32.20943,-2.00087,-28.8873,5.537689,0.5195871,0.6450489,1.0,-0.03105164,0.07221985,0.9969025,36.77733,-4.142868,-28.246170000000003,5.908386,0.3607813,0.7114909,-0.4040582,1.041307,-0.152799,0.00661042,0.7504476,-0.01297367,0.0009833233680065182,-3.0973701501901147,29.461493753394894
0,-0.03564453,0.06808472,0.9970398,1.0,-0.04302979,0.06141663,0.9971771,-32.20943,-2.00087,-28.8873,5.537689,0.5195871,0.6450489,1.0,-0.03105164,0.07221985,0.9969025,36.77733,-4.142868,-28.246170000000003,5.908386,0.3607813,0.7114909,-0.4040582,1.041307,-0.152799,0.00661042,0.7504476,-0.01297367,0.0009833233680065182,-3.0973701501901147,29.461493753394894
0,-0.03564453,0.06808472,0.9970398,1.0,-0.04302979,0.06141663,0.9971771,-32.20943,-2.00087,-28.8873,5.537689,0.5195871,0.6450489,1.0,-0.03105164,0.07221985,0.9969025,36.77733,-4.142868,-28.246170000000003,5.908386,0.3607813,0.7114909,-0.4040582,1.041307,-0.152799,0.00661042,0.7504476,-0.01297367,0.0009833233680065182,-3.0973701501901147,29.461493753394894
0,-0.03640747,0.06919861,0.996933,1.0,-0.04344177,0.06092834,0.9971924,-32.21063,-1.99736,-28.89456,5.519928,0.5196989000000001,0.6450667,1.0,-0.03102112,0.07551575,0.9966583,36.7771,-4.142868,-28.246170000000003,5.903061,0.3608042999999999,0.7109087,-0.4040882999999999,1.041247,-0.1526908,0.0065504119999999,0.7504594,-0.01278799,0.0009833233680065182,-3.0973701501901147,29.461493753394894
0,-0.03640747,0.06919861,0.996933,1.0,-0.04344177,0.06092834,0.9971924,-32.21063,-1.99736,-28.89456,5.519928,0.5196989000000001,0.6450667,1.0,-0.03102112,0.07551575,0.9966583,36.7771,-4.142868,-28.246170000000003,5.903061,0.3608042999999999,0.7109087,-0.4040882999999999,1.041247,-0.1526908,0.0065504119999999,0.7504594,-0.01278799,0.0009833233680065182,-3.0973701501901147,29.461493753394894
0,-0.03640747,0.06919861,0.996933,1.0,-0.04344177,0.06092834,0.9971924,-32.21063,-1.99736,-28.89456,5.519928,0.5196989000000001,0.6450667,1.0,-0.03102112,0.07551575,0.9966583,36.7771,-4.142868,-28.246170000000003,5.903061,0.3608042999999999,0.7109087,-0.4040882999999999,1.041247,-0.1526908,0.0065504119999999,0.7504594,-0.01278799,0.0009833233680065182,-3.0973701501901147,29.461493753394894
0,-0.03692627,0.06842041,0.9969635,1.0,-0.0430603,0.06036377,0.9972382,-32.21063,-1.99646,-28.89456,5.515579,0.519637,0.6451151999999999,1.0,-0.03149414,0.07554626,0.9966431,36.776990000000005,-4.142868,-28.246170000000003,5.903168,0.3608887,0.7109087,-0.4040594999999999,1.041298,-0.1526857,0.006508763,0.7504377,-0.01269355,0.0009833233680065182,-3.0973701501901147,29.461493753394894
0,-0.03692627,0.06842041,0.9969635,1.0,-0.0430603,0.06036377,0.9972382,-32.21063,-1.99646,-28.89456,5.515579,0.519637,0.6451151999999999,1.0,-0.03149414,0.07554626,0.9966431,36.776990000000005,-4.142868,-28.246170000000003,5.903168,0.3608887,0.7109087,-0.4040594999999999,1.041298,-0.1526857,0.006508763,0.7504377,-0.01269355,0.0009833233680065182,-3.0973701501901147,29.461493753394894
0,-0.03692627,0.06842041,0.9969635,1.0,-0.0430603,0.06036377,0.9972382,-32.21063,-1.99646,-28.89456,5.515579,0.519637,0.6451151999999999,1.0,-0.03149414,0.07554626,0.9966431,36.776990000000005,-4.142868,-28.246170000000003,5.903168,0.3608887,0.7109087,-0.4040594999999999,1.041298,-0.1526857,0.006508763,0.7504377,-0.01269355,0.0009833233680065182,-3.0973701501901147,29.461493753394894
1,-0.03736877,0.06922913,0.9968872,1.0,-0.04344177,0.06033325,0.9972229,-32.21063,-1.9963990000000005,-28.89456,5.515442,0.5196989000000001,0.6451233000000001,1.0,-0.03155518,0.07772827,0.99646,36.776990000000005,-4.141815,-28.24921,5.904602,0.3609079,0.7105272,-0.4040565,1.041402,-0.1526385,0.0063034869999999,0.7504227,-0.01256287,0.0009833233680065182,-3.0973701501901147,29.461493753394894
1,-0.03736877,0.06922913,0.9968872,1.0,-0.04344177,0.06033325,0.9972229,-32.21063,-1.9963990000000005,-28.89456,5.515442,0.5196989000000001,0.6451233000000001,1.0,-0.03155518,0.07772827,0.99646,36.776990000000005,-4.141815,-28.24921,5.904602,0.3609079,0.7105272,-0.4040565,1.041402,-0.1526385,0.0063034869999999,0.7504227,-0.01256287,0.0009833233680065182,-3.0973701501901147,29.461493753394894
1,-0.03736877,0.06922913,0.9968872,1.0,-0.04344177,0.06033325,0.9972229,-32.21063,-1.9963990000000005,-28.89456,5.515442,0.5196989000000001,0.6451233000000001,1.0,-0.03155518,0.07772827,0.99646,36.776990000000005,-4.141815,-28.24921,5.904602,0.3609079,0.7105272,-0.4040565,1.041402,-0.1526385,0.0063034869999999,0.7504227,-0.01256287,0.0009833233680065182,-3.0973701501901147,29.461493753394894
1,-0.03736877,0.06922913,0.9968872,1.0,-0.04344177,0.06033325,0.9972229,-32.21063,-1.9963990000000005,-28.89456,5.515442,0.5196989000000001,0.6451233000000001,1.0,-0.03155518,0.07772827,0.99646,36.776990000000005,-4.141815,-28.24921,5.904602,0.3609079,0.7105272,-0.4040912,1.0414139999999998,-0.1525299,0.006280989,0.7504006999999999,-0.01246821,0.0009833233680065182,-3.0973701501901147,29.461493753394894
1,-0.03736877,0.06922913,0.9968872,1.0,-0.04344177,0.06033325,0.9972229,-32.21063,-1.9963990000000005,-28.89456,5.515442,0.5196989000000001,0.6451233000000001,1.0,-0.03155518,0.07772827,0.99646,36.776990000000005,-4.141815,-28.24921,5.904602,0.3609079,0.7105272,-0.4040912,1.0414139999999998,-0.1525299,0.006280989,0.7504006999999999,-0.01246821,0.0009833233680065182,-3.0973701501901147,29.461493753394894
1,-0.03736877,0.06922913,0.9968872,1.0,-0.04344177,0.06033325,0.9972229,-32.21063,-1.9963990000000005,-28.89456,5.515442,0.5196989000000001,0.6451233000000001,1.0,-0.03155518,0.07772827,0.99646,36.776990000000005,-4.141815,-28.24921,5.904602,0.3609079,0.7105272,-0.4040912,1.0414139999999998,-0.1525299,0.006280989,0.7504006999999999,-0.01246821,0.0009833233680065182,-3.0973701501901147,29.461493753394894
1,-0.0375824,0.06855774,0.996933,1.0,-0.04350281,0.06011963,0.9972382,-32.21063,-1.9963990000000005,-28.89116,5.515549,0.5197072,0.6451233000000001,1.0,-0.03147888,0.07723999,0.9965057,36.776990000000005,-4.136215,-28.26103,5.895676,0.3608887,0.7105272,-0.4040882999999999,1.041482,-0.1525222,0.006368164,0.7504251000000001,-0.01239149,0.0009833233680065182,-50.46124,29.461493753394894
1,-0.0375824,0.06855774,0.996933,1.0,-0.04350281,0.06011963,0.9972382,-32.21063,-1.9963990000000005,-28.89116,5.515549,0.5197072,0.6451233000000001,1.0,-0.03147888,0.07723999,0.9965057,36.776990000000005,-4.136215,-28.26103,5.895676,0.3608887,0.7105272,-0.4040882999999999,1.041482,-0.1525222,0.006368164,0.7504251000000001,-0.01239149,0.0009833233680065182,-50.46124,29.461493753394894
1,-0.0375824,0.06855774,0.996933,1.0,-0.04350281,0.06011963,0.9972382,-32.21063,-1.9963990000000005,-28.89116,5.515549,0.5197072,0.6451233000000001,1.0,-0.03147888,0.07723999,0.9965057,36.776990000000005,-4.136215,-28.26103,5.895676,0.3608887,0.7105272,-0.4040882999999999,1.041482,-0.1525222,0.006368164,0.7504251000000001,-0.01239149,0.0009833233680065182,-50.46124,29.461493753394894
1,-0.03875732,0.06762695,0.9969482,1.0,-0.0450592,0.05964661,0.9971924,-32.208859999999994,-1.994354,-28.89456,5.512633999999999,0.5199090999999999,0.6451657,1.0,-0.03157043,0.07672119,0.9965515,36.77629,-4.122253,-28.28723,5.884964,0.3609079,0.7104118,-0.4041035999999999,1.041516,-0.1524873,0.006504183,0.7504155,-0.01235325,0.0009833233680065182,-50.46124,29.461493753394894
1,-0.03875732,0.06762695,0.9969482,1.0,-0.0450592,0.05964661,0.9971924,-32.208859999999994,-1.994354,-28.89456,5.512633999999999,0.5199090999999999,0.6451657,1.0,-0.03157043,0.07672119,0.9965515,36.77629,-4.122253,-28.28723,5.884964,0.3609079,0.7104118,-0.4041035999999999,1.041516,-0.1524873,0.006504183,0.7504155,-0.01235325,0.0009833233680065182,-50.46124,29.461493753394894
1,-0.03875732,0.06762695,0.9969482,1.0,-0.0450592,0.05964661,0.9971924,-32.208859999999994,-1.994354,-28.89456,5.512633999999999,0.5199090999999999,0.6451657,1.0,-0.03157043,0.07672119,0.9965515,36.77629,-4.122253,-28.28723,5.884964,0.3609079,0.7104118,-0.4041035999999999,1.041516,-0.1524873,0.006504183,0.7504155,-0.01235325,0.0009833233680065182,-50.46124,29.461493753394894
1,-0.03875732,0.06762695,0.9969482,1.0,-0.0450592,0.05964661,0.9971924,-32.208859999999994,-1.994354,-28.89456,5.512633999999999,0.5199090999999999,0.6451657,1.0,-0.03157043,0.07672119,0.9965515,36.77629,-4.122253,-28.28723,5.884964,0.3609079,0.7104118,-0.4040965,1.041513,-0.1523979,0.006662624,0.7503936999999999,-0.01219543,0.0009833233680065182,-50.46124,29.461493753394894
1,-0.03875732,0.06762695,0.9969482,1.0,-0.0450592,0.05964661,0.9971924,-32.208859999999994,-1.994354,-28.89456,5.512633999999999,0.5199090999999999,0.6451657,1.0,-0.03157043,0.07672119,0.9965515,36.77629,-4.122253,-28.28723,5.884964,0.3609079,0.7104118,-0.4040965,1.041513,-0.1523979,0.006662624,0.7503936999999999,-0.01219543,0.0009833233680065182,-50.46124,29.461493753394894
1,-0.03875732,0.06762695,0.9969482,1.0,-0.0450592,0.05964661,0.9971924,-32.208859999999994,-1.994354,-28.89456,5.512633999999999,0.5199090999999999,0.6451657,1.0,-0.03157043,0.07672119,0.9965515,36.77629,-4.122253,-28.28723,5.884964,0.3609079,0.7104118,-0.4040965,1.041513,-0.1523979,0.006662624,0.7503936999999999,-0.01219543,0.0009833233680065182,-50.46124,29.461493753394894
1,-0.03875732,0.06762695,0.9969482,1.0,-0.0450592,0.05964661,0.9971924,-32.208859999999994,-1.994354,-28.89456,5.512633999999999,0.5199090999999999,0.6451657,1.0,-0.03157043,0.07672119,0.9965515,36.77629,-4.122253,-28.28723,5.884964,0.3609079,0.7104118,-0.4040512,1.041444,-0.1523043999999999,0.006772428,0.7504085,-0.01209421,0.0009833233680065182,-50.46124,29.461493753394894
1,-0.03875732,0.06762695,0.9969482,1.0,-0.0450592,0.05964661,0.9971924,-32.208859999999994,-1.994354,-28.89456,5.512633999999999,0.5199090999999999,0.6451657,1.0,-0.03157043,0.07672119,0.9965515,36.77629,-4.122253,-28.28723,5.884964,0.3609079,0.7104118,-0.4040512,1.041444,-0.1523043999999999,0.006772428,0.7504085,-0.01209421,0.0009833233680065182,-50.46124,29.461493753394894
1,-0.03875732,0.06762695,0.9969482,1.0,-0.0450592,0.05964661,0.9971924,-32.208859999999994,-1.994354,-28.89456,5.512633999999999,0.5199090999999999,0.6451657,1.0,-0.03157043,0.07672119,0.9965515,36.77629,-4.122253,-28.28723,5.884964,0.3609079,0.7104118,-0.4040512,1.041444,-0.1523043999999999,0.006772428,0.7504085,-0.01209421,0.0009833233680065182,-50.46124,29.461493753394894
1,-0.03875732,0.06762695,0.9969482,1.0,-0.0450592,0.05964661,0.9971924,-32.208859999999994,-1.994354,-28.89456,5.512633999999999,0.5199090999999999,0.6451657,1.0,-0.03157043,0.07672119,0.9965515,36.77629,-4.122253,-28.28723,5.884964,0.3609079,0.7104118,-0.4040626,1.0414370000000002,-0.1522921,0.00682503,0.7503352,-0.0119392,0.0009833233680065182,-50.46124,29.461493753394894
1,-0.03875732,0.06762695,0.9969482,1.0,-0.0450592,0.05964661,0.9971924,-32.208859999999994,-1.994354,-28.89456,5.512633999999999,0.5199090999999999,0.6451657,1.0,-0.03157043,0.07672119,0.9965515,36.77629,-4.122253,-28.28723,5.884964,0.3609079,0.7104118,-0.4040626,1.0414370000000002,-0.1522921,0.00682503,0.7503352,-0.0119392,0.0009833233680065182,-50.46124,29.461493753394894
1,-0.03875732,0.06762695,0.9969482,1.0,-0.0450592,0.05964661,0.9971924,-32.208859999999994,-1.994354,-28.89456,5.512633999999999,0.5199090999999999,0.6451657,1.0,-0.03157043,0.07672119,0.9965515,36.77629,-4.122253,-28.28723,5.884964,0.3609079,0.7104118,-0.4040626,1.0414370000000002,-0.1522921,0.00682503,0.7503352,-0.0119392,0.0009833233680065182,-50.46124,29.461493753394894
1,-0.0383606,0.06596375,0.9970703000000002,1.0,-0.04429626,0.05735779,0.9973602,-32.20775,-1.990097,-28.89456,5.487228,0.5197437,0.6453812,1.0,-0.03157043,0.07579041,0.9966125,36.77666,-4.118607,-28.29187,5.890305000000001,0.3608850999999999,0.7105031999999999,-0.4040098,1.041466,-0.1523487999999999,0.006796587,0.7503536,-0.01199772,0.0009833233680065182,-50.46124,29.461493753394894
1,-0.0383606,0.06596375,0.9970703000000002,1.0,-0.04429626,0.05735779,0.9973602,-32.20775,-1.990097,-28.89456,5.487228,0.5197437,0.6453812,1.0,-0.03157043,0.07579041,0.9966125,36.77666,-4.118607,-28.29187,5.890305000000001,0.3608850999999999,0.7105031999999999,-0.4040098,1.041466,-0.1523487999999999,0.006796587,0.7503536,-0.01199772,0.0009833233680065182,-50.46124,29.461493753394894
1,-0.0383606,0.06596375,0.9970703000000002,1.0,-0.04429626,0.05735779,0.9973602,-32.20775,-1.990097,-28.89456,5.487228,0.5197437,0.6453812,1.0,-0.03157043,0.07579041,0.9966125,36.77666,-4.118607,-28.29187,5.890305000000001,0.3608850999999999,0.7105031999999999,-0.4040098,1.041466,-0.1523487999999999,0.006796587,0.7503536,-0.01199772,0.0009833233680065182,-50.46124,29.461493753394894
1,-0.02606201,0.07312012,0.9969788,1.0,-0.0504303,0.04711914,0.9976044,-32.13547,-1.844193,-29.25285,5.445023,0.5184369000000001,0.6457974,1.0,-0.02497864,0.07427979,0.9969177,36.81746,-4.13945,-28.14592,5.846466,0.3585039,0.709765,-0.403989,1.041572,-0.1524082,0.006732706,0.7506164000000001,-0.01248344,0.0009833233680065182,-50.46124,29.461493753394894
1,-0.02606201,0.07312012,0.9969788,1.0,-0.0504303,0.04711914,0.9976044,-32.13547,-1.844193,-29.25285,5.445023,0.5184369000000001,0.6457974,1.0,-0.02497864,0.07427979,0.9969177,36.81746,-4.13945,-28.14592,5.846466,0.3585039,0.709765,-0.403989,1.041572,-0.1524082,0.006732706,0.7506164000000001,-0.01248344,0.0009833233680065182,-50.46124,29.461493753394894
1,-0.02606201,0.07312012,0.9969788,1.0,-0.0504303,0.04711914,0.9976044,-32.13547,-1.844193,-29.25285,5.445023,0.5184369000000001,0.6457974,1.0,-0.02497864,0.07427979,0.9969177,36.81746,-4.13945,-28.14592,5.846466,0.3585039,0.709765,-0.403989,1.041572,-0.1524082,0.006732706,0.7506164000000001,-0.01248344,0.0009833233680065182,-50.46124,29.461493753394894
1,-0.03269958,0.06190491,0.9975433,1.0,-0.04806519,0.04440308,0.9978485,-32.13956,-1.908707,-29.07608,5.343735,0.5181198,0.6465043,1.0,-0.02085876,0.07536316,0.996933,36.82663,-4.154556,-28.10603,5.788589,0.3575514,0.70957,-0.4039854,1.041538,-0.1524816,0.007012406,0.7508045,-0.01207571,0.0009833233680065182,-48.55264,29.461493753394894
1,-0.03269958,0.06190491,0.9975433,1.0,-0.04806519,0.04440308,0.9978485,-32.13956,-1.908707,-29.07608,5.343735,0.5181198,0.6465043,1.0,-0.02085876,0.07536316,0.996933,36.82663,-4.154556,-28.10603,5.788589,0.3575514,0.70957,-0.4039854,1.041538,-0.1524816,0.007012406,0.7508045,-0.01207571,0.0009833233680065182,-48.55264,29.461493753394894
1,-0.03269958,0.06190491,0.9975433,1.0,-0.04806519,0.04440308,0.9978485,-32.13956,-1.908707,-29.07608,5.343735,0.5181198,0.6465043,1.0,-0.02085876,0.07536316,0.996933,36.82663,-4.154556,-28.10603,5.788589,0.3575514,0.70957,-0.4039854,1.041538,-0.1524816,0.007012406,0.7508045,-0.01207571,0.0009833233680065182,-48.55264,29.461493753394894
1,-0.02325439,0.07487488,0.9969177,1.0,-0.0431366,0.04598999,0.9980011,-32.1355,-1.966415,-28.93857,5.303344999999999,0.5171054,0.6466938,1.0,-0.02209473,0.07655334,0.9968109,36.83771,-4.171661,-28.07532,5.779892,0.3574117,0.7096015999999999,-0.4040695,1.041582,-0.1524627999999999,0.006741554,0.7508887,-0.01195791,0.0009833233680065182,-48.55264,29.461493753394894
1,-0.02325439,0.07487488,0.9969177,1.0,-0.0431366,0.04598999,0.9980011,-32.1355,-1.966415,-28.93857,5.303344999999999,0.5171054,0.6466938,1.0,-0.02209473,0.07655334,0.9968109,36.83771,-4.171661,-28.07532,5.779892,0.3574117,0.7096015999999999,-0.4040695,1.041582,-0.1524627999999999,0.006741554,0.7508887,-0.01195791,0.0009833233680065182,-48.55264,29.461493753394894
1,-0.02325439,0.07487488,0.9969177,1.0,-0.0431366,0.04598999,0.9980011,-32.1355,-1.966415,-28.93857,5.303344999999999,0.5171054,0.6466938,1.0,-0.02209473,0.07655334,0.9968109,36.83771,-4.171661,-28.07532,5.779892,0.3574117,0.7096015999999999,-0.4040695,1.041582,-0.1524627999999999,0.006741554,0.7508887,-0.01195791,0.0009833233680065182,-48.55264,29.461493753394894
1,-0.02407837,0.07423401,0.9969482,1.0,-0.0355071999999999,0.04188538,0.9984894,-32.13548,-1.9729,-28.93407,5.254379,0.5158295999999999,0.6474906,1.0,-0.02304077,0.07714844,0.9967499,36.84703,-4.187561,-28.04852,5.690079,0.3573174,0.7096155,-0.4042032,1.041517,-0.1523656,0.00660873,0.7505724,-0.01177014,0.0009833233680065182,-48.55264,29.461493753394894
1,-0.02407837,0.07423401,0.9969482,1.0,-0.0355071999999999,0.04188538,0.9984894,-32.13548,-1.9729,-28.93407,5.254379,0.5158295999999999,0.6474906,1.0,-0.02304077,0.07714844,0.9967499,36.84703,-4.187561,-28.04852,5.690079,0.3573174,0.7096155,-0.4042032,1.041517,-0.1523656,0.00660873,0.7505724,-0.01177014,0.0009833233680065182,-48.55264,29.461493753394894
1,-0.02407837,0.07423401,0.9969482,1.0,-0.0355071999999999,0.04188538,0.9984894,-32.13548,-1.9729,-28.93407,5.254379,0.5158295999999999,0.6474906,1.0,-0.02304077,0.07714844,0.9967499,36.84703,-4.187561,-28.04852,5.690079,0.3573174,0.7096155,-0.4042032,1.041517,-0.1523656,0.00660873,0.7505724,-0.01177014,0.0009833233680065182,-48.55264,29.461493753394894
1,-0.06881714,0.1138,0.9911041,1.0,-0.08784485,0.1174622,0.9891815,-32.51234,-1.125565,-30.40868,5.24147,0.5383329000000001,0.6211852,1.0,-0.06744385,0.1135405999999999,0.9912261999999998,36.10495,-3.118088,-29.56519,5.546341,0.3904965999999999,0.6824872,-0.4041708,1.041595,-0.1521689,0.006857158,0.7502087,-0.01147753,0.0009833233680065182,-48.55264,29.461493753394894
1,-0.06881714,0.1138,0.9911041,1.0,-0.08784485,0.1174622,0.9891815,-32.51234,-1.125565,-30.40868,5.24147,0.5383329000000001,0.6211852,1.0,-0.06744385,0.1135405999999999,0.9912261999999998,36.10495,-3.118088,-29.56519,5.546341,0.3904965999999999,0.6824872,-0.4041708,1.041595,-0.1521689,0.006857158,0.7502087,-0.01147753,0.0009833233680065182,-48.55264,29.461493753394894
1,-0.06881714,0.1138,0.9911041,1.0,-0.08784485,0.1174622,0.9891815,-32.51234,-1.125565,-30.40868,5.24147,0.5383329000000001,0.6211852,1.0,-0.06744385,0.1135405999999999,0.9912261999999998,36.10495,-3.118088,-29.56519,5.546341,0.3904965999999999,0.6824872,-0.4041708,1.041595,-0.1521689,0.006857158,0.7502087,-0.01147753,0.0009833233680065182,-48.55264,29.461493753394894
1,-0.08183289,0.1093903,0.9906158000000002,1.0,-0.0834198,0.1091461,0.990509,-32.51715,-1.186615,-30.25177,5.122482,0.5376593000000001,0.6228973000000001,1.0,-0.07023621,0.1110839999999999,0.9913177,36.11772,-3.098587,-29.63478,5.489273000000001,0.3904965999999999,0.6829183000000001,-0.4041790999999999,1.041694,-0.1520516,0.007010811,0.7499595,-0.01137123,0.0009833233680065182,-88.88687,29.461493753394894
1,-0.08183289,0.1093903,0.9906158000000002,1.0,-0.0834198,0.1091461,0.990509,-32.51715,-1.186615,-30.25177,5.122482,0.5376593000000001,0.6228973000000001,1.0,-0.07023621,0.1110839999999999,0.9913177,36.11772,-3.098587,-29.63478,5.489273000000001,0.3904965999999999,0.6829183000000001,-0.4041790999999999,1.041694,-0.1520516,0.007010811,0.7499595,-0.01137123,0.0009833233680065182,-88.88687,29.461493753394894
1,-0.08183289,0.1093903,0.9906158000000002,1.0,-0.0834198,0.1091461,0.990509,-32.51715,-1.186615,-30.25177,5.122482,0.5376593000000001,0.6228973000000001,1.0,-0.07023621,0.1110839999999999,0.9913177,36.11772,-3.098587,-29.63478,5.489273000000001,0.3904965999999999,0.6829183000000001,-0.4041790999999999,1.041694,-0.1520516,0.007010811,0.7499595,-0.01137123,0.0009833233680065182,-88.88687,29.461493753394894
1,-0.08183289,0.1093903,0.9906158000000002,1.0,-0.0834198,0.1091461,0.990509,-32.51715,-1.186615,-30.25177,5.122482,0.5376593000000001,0.6228973000000001,1.0,-0.07023621,0.1110839999999999,0.9913177,36.11772,-3.098587,-29.63478,5.489273000000001,0.3904965999999999,0.6829183000000001,-0.4042226,1.041712,-0.1520253999999999,0.007025674,0.7499683000000001,-0.01147169,0.0009833233680065182,-88.88687,29.461493753394894
1,-0.08183289,0.1093903,0.9906158000000002,1.0,-0.0834198,0.1091461,0.990509,-32.51715,-1.186615,-30.25177,5.122482,0.5376593000000001,0.6228973000000001,1.0,-0.07023621,0.1110839999999999,0.9913177,36.11772,-3.098587,-29.63478,5.489273000000001,0.3904965999999999,0.6829183000000001,-0.4042226,1.041712,-0.1520253999999999,0.007025674,0.7499683000000001,-0.01147169,0.0009833233680065182,-88.88687,29.461493753394894
1,-0.08183289,0.1093903,0.9906158000000002,1.0,-0.0834198,0.1091461,0.990509,-32.51715,-1.186615,-30.25177,5.122482,0.5376593000000001,0.6228973000000001,1.0,-0.07023621,0.1110839999999999,0.9913177,36.11772,-3.098587,-29.63478,5.489273000000001,0.3904965999999999,0.6829183000000001,-0.4042226,1.041712,-0.1520253999999999,0.007025674,0.7499683000000001,-0.01147169,0.0009833233680065182,-88.88687,29.461493753394894
1,-0.08499146,0.1162872,0.989563,1.0,-0.08546448,0.116394,0.9895172,-32.52686,-1.194412,-30.26131,5.198212,0.5383475000000001,0.6221483,1.0,-0.0647583,0.1122741999999999,0.9915619,36.13304,-3.095642,-29.64117,5.488403,0.3890024,0.6826616,-0.4042338,1.041679,-0.1520884,0.00716325,0.7500224,-0.01122815,0.0009833233680065182,-88.88687,29.461493753394894
1,-0.08499146,0.1162872,0.989563,1.0,-0.08546448,0.116394,0.9895172,-32.52686,-1.194412,-30.26131,5.198212,0.5383475000000001,0.6221483,1.0,-0.0647583,0.1122741999999999,0.9915619,36.13304,-3.095642,-29.64117,5.488403,0.3890024,0.6826616,-0.4042338,1.041679,-0.1520884,0.00716325,0.7500224,-0.01122815,0.0009833233680065182,-88.88687,29.461493753394894
1,-0.08499146,0.1162872,0.989563,1.0,-0.08546448,0.116394,0.9895172,-32.52686,-1.194412,-30.26131,5.198212,0.5383475000000001,0.6221483,1.0,-0.0647583,0.1122741999999999,0.9915619,36.13304,-3.095642,-29.64117,5.488403,0.3890024,0.6826616,-0.4042338,1.041679,-0.1520884,0.00716325,0.7500224,-0.01122815,0.0009833233680065182,-88.88687,29.461493753394894
1,-0.08537292,0.100647,0.9912415,1.0,-0.08633423,0.09973145,0.9912567,-32.48386,-1.2457120000000002,-30.05235,5.112488,0.5368914,0.6244538000000001,1.0,-0.0753479,0.1101684999999999,0.9910431,36.23201,-3.0738220000000003,-29.95811,5.247086,0.3871671,0.6854321,-0.4042875,1.0416040000000002,-0.1521236,0.007325236,0.7501366,-0.01119392,0.0009833233680065182,-88.88687,29.461493753394894
1,-0.08537292,0.100647,0.9912415,1.0,-0.08633423,0.09973145,0.9912567,-32.48386,-1.2457120000000002,-30.05235,5.112488,0.5368914,0.6244538000000001,1.0,-0.0753479,0.1101684999999999,0.9910431,36.23201,-3.0738220000000003,-29.95811,5.247086,0.3871671,0.6854321,-0.4042875,1.0416040000000002,-0.1521236,0.007325236,0.7501366,-0.01119392,0.0009833233680065182,-88.88687,29.461493753394894
1,-0.08537292,0.100647,0.9912415,1.0,-0.08633423,0.09973145,0.9912567,-32.48386,-1.2457120000000002,-30.05235,5.112488,0.5368914,0.6244538000000001,1.0,-0.0753479,0.1101684999999999,0.9910431,36.23201,-3.0738220000000003,-29.95811,5.247086,0.3871671,0.6854321,-0.4042875,1.0416040000000002,-0.1521236,0.007325236,0.7501366,-0.01119392,0.0009833233680065182,-88.88687,29.461493753394894
1,-0.08178711,0.1048279,0.9911041,1.0,-0.08564758,0.09516907,0.9917603000000002,-32.4679,-1.260452,-30.00046,5.070114,0.5361989,0.6251422,1.0,-0.07658386,0.1178436,0.9900665,36.25935,-3.125763,-29.8602,5.285828,0.3864862,0.6849121,-0.4043487,1.041642,-0.1521378,0.0072351759999999,0.7503058000000001,-0.01128144,0.0009833233680065182,-88.88687,29.461493753394894
1,-0.08178711,0.1048279,0.9911041,1.0,-0.08564758,0.09516907,0.9917603000000002,-32.4679,-1.260452,-30.00046,5.070114,0.5361989,0.6251422,1.0,-0.07658386,0.1178436,0.9900665,36.25935,-3.125763,-29.8602,5.285828,0.3864862,0.6849121,-0.4043487,1.041642,-0.1521378,0.0072351759999999,0.7503058000000001,-0.01128144,0.0009833233680065182,-88.88687,29.461493753394894
1,-0.08178711,0.1048279,0.9911041,1.0,-0.08564758,0.09516907,0.9917603000000002,-32.4679,-1.260452,-30.00046,5.070114,0.5361989,0.6251422,1.0,-0.07658386,0.1178436,0.9900665,36.25935,-3.125763,-29.8602,5.285828,0.3864862,0.6849121,-0.4043487,1.041642,-0.1521378,0.0072351759999999,0.7503058000000001,-0.01128144,0.0009833233680065182,-88.88687,29.461493753394894
1,-0.08103943,0.09536743,0.9921265,1.0,-0.08120728,0.09516907,0.9921265,-32.457,-1.259781,-30.01091,5.020919999999999,0.5350815999999999,0.6251422,1.0,-0.06791687,0.1102448,0.9915771,36.27661,-3.224518,-29.39903,5.300186,0.3847118,0.6845865,-0.4043910999999999,1.041635,-0.1521858999999999,0.007056889,0.7503911999999999,-0.01125698,0.0009833233680065182,-88.88687,29.461493753394894
1,-0.08103943,0.09536743,0.9921265,1.0,-0.08120728,0.09516907,0.9921265,-32.457,-1.259781,-30.01091,5.020919999999999,0.5350815999999999,0.6251422,1.0,-0.06791687,0.1102448,0.9915771,36.27661,-3.224518,-29.39903,5.300186,0.3847118,0.6845865,-0.4043910999999999,1.041635,-0.1521858999999999,0.007056889,0.7503911999999999,-0.01125698,0.0009833233680065182,-88.88687,29.461493753394894
1,-0.08103943,0.09536743,0.9921265,1.0,-0.08120728,0.09516907,0.9921265,-32.457,-1.259781,-30.01091,5.020919999999999,0.5350815999999999,0.6251422,1.0,-0.06791687,0.1102448,0.9915771,36.27661,-3.224518,-29.39903,5.300186,0.3847118,0.6845865,-0.4043910999999999,1.041635,-0.1521858999999999,0.007056889,0.7503911999999999,-0.01125698,0.0009833233680065182,-88.88687,29.461493753394894
1,-0.08204651,0.09870911,0.9917145,1.0,-0.0821228,0.09864807,0.9917145,-32.44336,-1.25946,-30.0177,5.01561,0.5347776,0.6246008000000001,1.0,-0.06434631,0.1107025,0.9917603000000002,36.29182,-3.234894,-29.37285,5.292847,0.3835777999999999,0.6845595999999999,-0.4044112,1.041643,-0.1521677,0.006678262,0.750441,-0.01114456,0.0009833233680065182,-79.3259,29.461493753394894
1,-0.08204651,0.09870911,0.9917145,1.0,-0.0821228,0.09864807,0.9917145,-32.44336,-1.25946,-30.0177,5.01561,0.5347776,0.6246008000000001,1.0,-0.06434631,0.1107025,0.9917603000000002,36.29182,-3.234894,-29.37285,5.292847,0.3835777999999999,0.6845595999999999,-0.4044112,1.041643,-0.1521677,0.006678262,0.750441,-0.01114456,0.0009833233680065182,-79.3259,29.461493753394894
1,-0.08204651,0.09870911,0.9917145,1.0,-0.0821228,0.09864807,0.9917145,-32.44336,-1.25946,-30.0177,5.01561,0.5347776,0.6246008000000001,1.0,-0.06434631,0.1107025,0.9917603000000002,36.29182,-3.234894,-29.37285,5.292847,0.3835777999999999,0.6845595999999999,-0.4044112,1.041643,-0.1521677,0.006678262,0.750441,-0.01114456,0.0009833233680065182,-79.3259,29.461493753394894
1,-0.07200623,0.1022643999999999,0.9921417,1.0,-0.07521057,0.09828186,0.9923096,-32.4026,-1.243927,-30.04623,4.966339,0.5322236,0.6243276999999999,1.0,-0.06291199,0.1134948999999999,0.9915314,36.3544,-3.295975,-29.19919,5.289505,0.3812690999999999,0.6842869,-0.4043573,1.041727,-0.1521723999999999,0.006709982,0.750536,-0.0111776,0.0009833233680065182,-79.3259,29.461493753394894
1,-0.07200623,0.1022643999999999,0.9921417,1.0,-0.07521057,0.09828186,0.9923096,-32.4026,-1.243927,-30.04623,4.966339,0.5322236,0.6243276999999999,1.0,-0.06291199,0.1134948999999999,0.9915314,36.3544,-3.295975,-29.19919,5.289505,0.3812690999999999,0.6842869,-0.4043573,1.041727,-0.1521723999999999,0.006709982,0.750536,-0.0111776,0.0009833233680065182,-79.3259,29.461493753394894
1,-0.07200623,0.1022643999999999,0.9921417,1.0,-0.07521057,0.09828186,0.9923096,-32.4026,-1.243927,-30.04623,4.966339,0.5322236,0.6243276999999999,1.0,-0.06291199,0.1134948999999999,0.9915314,36.3544,-3.295975,-29.19919,5.289505,0.3812690999999999,0.6842869,-0.4043573,1.041727,-0.1521723999999999,0.006709982,0.750536,-0.0111776,0.0009833233680065182,-79.3259,29.461493753394894
1,-0.06626892,0.101181,0.9926453000000002,1.0,-0.06724548,0.09893799,0.9928131,-32.39091,-1.243927,-30.04623,4.96344,0.5304688,0.6241791,1.0,-0.06007385,0.1154022,0.9914856,36.38878,-3.365875,-29.00624,5.298645,0.3797193,0.6842869,-0.4042192,1.041783,-0.1520458999999999,0.006643586,0.7505888000000001,-0.01106876,0.0009833233680065182,-79.3259,29.461493753394894
1,-0.06626892,0.101181,0.9926453000000002,1.0,-0.06724548,0.09893799,0.9928131,-32.39091,-1.243927,-30.04623,4.96344,0.5304688,0.6241791,1.0,-0.06007385,0.1154022,0.9914856,36.38878,-3.365875,-29.00624,5.298645,0.3797193,0.6842869,-0.4042192,1.041783,-0.1520458999999999,0.006643586,0.7505888000000001,-0.01106876,0.0009833233680065182,-79.3259,29.461493753394894
1,-0.06626892,0.101181,0.9926453000000002,1.0,-0.06724548,0.09893799,0.9928131,-32.39091,-1.243927,-30.04623,4.96344,0.5304688,0.6241791,1.0,-0.06007385,0.1154022,0.9914856,36.38878,-3.365875,-29.00624,5.298645,0.3797193,0.6842869,-0.4042192,1.041783,-0.1520458999999999,0.006643586,0.7505888000000001,-0.01106876,0.0009833233680065182,-79.3259,29.461493753394894
1,-0.05682373,0.1045685,0.9928894,1.0,-0.05670166,0.102417,0.9931183,-32.37761,-1.296524,-29.89606,4.973785,0.5281549,0.6238281999999999,1.0,-0.05741882,0.116272,0.9915466,36.421490000000006,-3.388779,-28.958040000000004,5.290359,0.3781522,0.684392,-0.4041060999999999,1.041731,-0.1520058,0.007039447,0.7505103,-0.01108792,0.0009833233680065182,-79.3259,29.461493753394894
1,-0.05682373,0.1045685,0.9928894,1.0,-0.05670166,0.102417,0.9931183,-32.37761,-1.296524,-29.89606,4.973785,0.5281549,0.6238281999999999,1.0,-0.05741882,0.116272,0.9915466,36.421490000000006,-3.388779,-28.958040000000004,5.290359,0.3781522,0.684392,-0.4041060999999999,1.041731,-0.1520058,0.007039447,0.7505103,-0.01108792,0.0009833233680065182,-79.3259,29.461493753394894
1,-0.05682373,0.1045685,0.9928894,1.0,-0.05670166,0.102417,0.9931183,-32.37761,-1.296524,-29.89606,4.973785,0.5281549,0.6238281999999999,1.0,-0.05741882,0.116272,0.9915466,36.421490000000006,-3.388779,-28.958040000000004,5.290359,0.3781522,0.684392,-0.4041060999999999,1.041731,-0.1520058,0.007039447,0.7505103,-0.01108792,0.0009833233680065182,-79.3259,29.461493753394894
1,-0.05488586,0.1152191,0.9918213,1.0,-0.05250549,0.1044006,0.9931335,-32.362759999999994,-1.317276,-29.81842,4.987717,0.5268965,0.6234049,1.0,-0.05596924,0.120163,0.9911652,36.4608,-3.453156,-28.80296,5.299057,0.376651,0.6842678000000001,-0.4040849999999999,1.041669,-0.152003,0.0074252469999999,0.7503169,-0.01115057,0.0009833233680065182,-79.3259,29.63
1,-0.05488586,0.1152191,0.9918213,1.0,-0.05250549,0.1044006,0.9931335,-32.362759999999994,-1.317276,-29.81842,4.987717,0.5268965,0.6234049,1.0,-0.05596924,0.120163,0.9911652,36.4608,-3.453156,-28.80296,5.299057,0.376651,0.6842678000000001,-0.4040849999999999,1.041669,-0.152003,0.0074252469999999,0.7503169,-0.01115057,0.0009833233680065182,-79.3259,29.63
1,-0.05488586,0.1152191,0.9918213,1.0,-0.05250549,0.1044006,0.9931335,-32.362759999999994,-1.317276,-29.81842,4.987717,0.5268965,0.6234049,1.0,-0.05596924,0.120163,0.9911652,36.4608,-3.453156,-28.80296,5.299057,0.376651,0.6842678000000001,-0.4040849999999999,1.041669,-0.152003,0.0074252469999999,0.7503169,-0.01115057,0.0009833233680065182,-79.3259,29.63
1,-0.05209351,0.1120453,0.9923248,1.0,-0.0484314,0.103302,0.993454,-32.34998,-1.321198,-29.79887,5.04599,0.5257553,0.6235831000000001,1.0,-0.05513,0.119278,0.9913177,36.47299,-3.457245,-28.78648,5.298721,0.3760904,0.6843803,-0.4040878,1.041538,-0.1518924,0.007530858,0.7503325,-0.0111372,0.0009833233680065182,-77.14215,29.63
1,-0.05209351,0.1120453,0.9923248,1.0,-0.0484314,0.103302,0.993454,-32.34998,-1.321198,-29.79887,5.04599,0.5257553,0.6235831000000001,1.0,-0.05513,0.119278,0.9913177,36.47299,-3.457245,-28.78648,5.298721,0.3760904,0.6843803,-0.4040878,1.041538,-0.1518924,0.007530858,0.7503325,-0.0111372,0.0009833233680065182,-77.14215,29.63
1,-0.05209351,0.1120453,0.9923248,1.0,-0.0484314,0.103302,0.993454,-32.34998,-1.321198,-29.79887,5.04599,0.5257553,0.6235831000000001,1.0,-0.05513,0.119278,0.9913177,36.47299,-3.457245,-28.78648,5.298721,0.3760904,0.6843803,-0.4040878,1.041538,-0.1518924,0.007530858,0.7503325,-0.0111372,0.0009833233680065182,-77.14215,29.63
1,-0.06643677,0.1073761,0.9919891,1.0,-0.07687378,0.101059,0.9918976,-32.41611,-1.344376,-29.89322,5.195648,0.5328582,0.6260201,1.0,-0.05386353,0.1149597,0.9918976,36.32578,-3.3137510000000003,-29.282090000000004,5.372513,0.3806262,0.6856507,-0.4040678,1.041576,-0.1520025,0.007810115,0.7500581000000001,-0.01088173,0.0009833233680065182,-77.14215,29.63
1,-0.06643677,0.1073761,0.9919891,1.0,-0.07687378,0.101059,0.9918976,-32.41611,-1.344376,-29.89322,5.195648,0.5328582,0.6260201,1.0,-0.05386353,0.1149597,0.9918976,36.32578,-3.3137510000000003,-29.282090000000004,5.372513,0.3806262,0.6856507,-0.4040678,1.041576,-0.1520025,0.007810115,0.7500581000000001,-0.01088173,0.0009833233680065182,-77.14215,29.63
1,-0.06643677,0.1073761,0.9919891,1.0,-0.07687378,0.101059,0.9918976,-32.41611,-1.344376,-29.89322,5.195648,0.5328582,0.6260201,1.0,-0.05386353,0.1149597,0.9918976,36.32578,-3.3137510000000003,-29.282090000000004,5.372513,0.3806262,0.6856507,-0.4040678,1.041576,-0.1520025,0.007810115,0.7500581000000001,-0.01088173,0.0009833233680065182,-77.14215,29.63
1,-0.2457275,0.1051025,0.9636078,1.0,-0.2466431,0.1084747,0.9630127,-33.32478,-1.526413,-29.9727,5.44487,0.5932782,0.6336771,1.0,-0.2424927,0.09332275,0.9656372,35.28598,-3.449646,-29.12703,5.467316,0.4496745,0.6939761999999999,-0.403966,1.041493,-0.1519106,0.007851978,0.7499180000000001,-0.01105966,0.0009833233680065182,-77.14215,29.63
1,-0.2457275,0.1051025,0.9636078,1.0,-0.2466431,0.1084747,0.9630127,-33.32478,-1.526413,-29.9727,5.44487,0.5932782,0.6336771,1.0,-0.2424927,0.09332275,0.9656372,35.28598,-3.449646,-29.12703,5.467316,0.4496745,0.6939761999999999,-0.403966,1.041493,-0.1519106,0.007851978,0.7499180000000001,-0.01105966,0.0009833233680065182,-77.14215,29.63
1,-0.2457275,0.1051025,0.9636078,1.0,-0.2466431,0.1084747,0.9630127,-33.32478,-1.526413,-29.9727,5.44487,0.5932782,0.6336771,1.0,-0.2424927,0.09332275,0.9656372,35.28598,-3.449646,-29.12703,5.467316,0.4496745,0.6939761999999999,-0.403966,1.041493,-0.1519106,0.007851978,0.7499180000000001,-0.01105966,0.0009833233680065182,-77.14215,29.63
1,-0.2420197,0.0993042,0.9651642,1.0,-0.2467957,0.1086273,0.9629517,-33.32632,-1.5288389999999998,-29.97244,5.444916,0.5933601,0.6337335999999999,1.0,-0.2336121,0.08299255,0.9687653,35.31865,-3.449707,-29.11528,5.382996,0.4469876,0.6954201,-0.4038117,1.041635,-0.1519902,0.007715095,0.7505161,-0.01153258,0.0009833233680065182,-52.20032,29.63
1,-0.2420197,0.0993042,0.9651642,1.0,-0.2467957,0.1086273,0.9629517,-33.32632,-1.5288389999999998,-29.97244,5.444916,0.5933601,0.6337335999999999,1.0,-0.2336121,0.08299255,0.9687653,35.31865,-3.449707,-29.11528,5.382996,0.4469876,0.6954201,-0.4038117,1.041635,-0.1519902,0.007715095,0.7505161,-0.01153258,0.0009833233680065182,-52.20032,29.63
1,-0.2420197,0.0993042,0.9651642,1.0,-0.2467957,0.1086273,0.9629517,-33.32632,-1.5288389999999998,-29.97244,5.444916,0.5933601,0.6337335999999999,1.0,-0.2336121,0.08299255,0.9687653,35.31865,-3.449707,-29.11528,5.382996,0.4469876,0.6954201,-0.4038117,1.041635,-0.1519902,0.007715095,0.7505161,-0.01153258,0.0009833233680065182,-52.20032,29.63
1,-0.2290649,0.09622192,0.9686279,1.0,-0.2370605,0.08602905,0.9676666,-33.30989,-1.56543,-29.9445,5.3591,0.5910488,0.6383224000000001,1.0,-0.2207030999999999,0.106842,0.9694672,35.39217,-3.511932,-29.16028,5.484467,0.4421877,0.6939605,-0.4038906,1.0416040000000002,-0.1520194,0.007996304,0.7508491,-0.01139839,0.0009833233680065182,-52.20032,29.63
1,-0.2290649,0.09622192,0.9686279,1.0,-0.2370605,0.08602905,0.9676666,-33.30989,-1.56543,-29.9445,5.3591,0.5910488,0.6383224000000001,1.0,-0.2207030999999999,0.106842,0.9694672,35.39217,-3.511932,-29.16028,5.484467,0.4421877,0.6939605,-0.4038906,1.0416040000000002,-0.1520194,0.007996304,0.7508491,-0.01139839,0.0009833233680065182,-52.20032,29.63
1,-0.2290649,0.09622192,0.9686279,1.0,-0.2370605,0.08602905,0.9676666,-33.30989,-1.56543,-29.9445,5.3591,0.5910488,0.6383224000000001,1.0,-0.2207030999999999,0.106842,0.9694672,35.39217,-3.511932,-29.16028,5.484467,0.4421877,0.6939605,-0.4038906,1.0416040000000002,-0.1520194,0.007996304,0.7508491,-0.01139839,0.0009833233680065182,-52.20032,29.63
2,-0.2233734,0.09159851,0.9704132,1.0,-0.2288817999999999,0.08825684,0.9694366,-33.28987,-1.584686,-29.94861,5.478928,0.5889116999999999,0.6387076,1.0,-0.2175598,0.09509277,0.9713898,35.43733,-3.542755,-29.165940000000003,5.602448000000001,0.4398867999999999,0.6972838000000001,-0.4038957,1.041529,-0.1519138,0.00767831,0.7507311,-0.01127384,0.0009833233680065182,-52.20032,29.63
2,-0.2233734,0.09159851,0.9704132,1.0,-0.2288817999999999,0.08825684,0.9694366,-33.28987,-1.584686,-29.94861,5.478928,0.5889116999999999,0.6387076,1.0,-0.2175598,0.09509277,0.9713898,35.43733,-3.542755,-29.165940000000003,5.602448000000001,0.4398867999999999,0.6972838000000001,-0.4038957,1.041529,-0.1519138,0.00767831,0.7507311,-0.01127384,0.0009833233680065182,-52.20032,29.63
2,-0.2233734,0.09159851,0.9704132,1.0,-0.2288817999999999,0.08825684,0.9694366,-33.28987,-1.584686,-29.94861,5.478928,0.5889116999999999,0.6387076,1.0,-0.2175598,0.09509277,0.9713898,35.43733,-3.542755,-29.165940000000003,5.602448000000001,0.4398867999999999,0.6972838000000001,-0.4038957,1.041529,-0.1519138,0.00767831,0.7507311,-0.01127384,0.0009833233680065182,-52.20032,29.63
2,-0.2157288,0.08459473,0.9727783,1.0,-0.2259827,0.08634949,0.9702911,-33.274440000000006,-1.594849,-29.94534,5.484879,0.5878661000000001,0.6393228,1.0,-0.2021484,0.08227539,0.9758759,35.507,-3.55571,-29.231540000000003,5.616623000000001,0.4346481,0.7005588,-0.4039360999999999,1.041647,-0.1516707,0.007756509,0.7499038,-0.01122815,0.0009833233680065182,-52.20032,29.63
2,-0.2157288,0.08459473,0.9727783,1.0,-0.2259827,0.08634949,0.9702911,-33.274440000000006,-1.594849,-29.94534,5.484879,0.5878661000000001,0.6393228,1.0,-0.2021484,0.08227539,0.9758759,35.507,-3.55571,-29.231540000000003,5.616623000000001,0.4346481,0.7005588,-0.4039360999999999,1.041647,-0.1516707,0.007756509,0.7499038,-0.01122815,0.0009833233680065182,-52.20032,29.63
2,-0.2157288,0.08459473,0.9727783,1.0,-0.2259827,0.08634949,0.9702911,-33.274440000000006,-1.594849,-29.94534,5.484879,0.5878661000000001,0.6393228,1.0,-0.2021484,0.08227539,0.9758759,35.507,-3.55571,-29.231540000000003,5.616623000000001,0.4346481,0.7005588,-0.4039360999999999,1.041647,-0.1516707,0.007756509,0.7499038,-0.01122815,0.0009833233680065182,-52.20032,29.63
2,-0.1976318,0.09640503,0.9755096,1.0,-0.197937,0.09667969,0.9754333,-33.09248,-1.597015,-29.8804,5.496857,0.5767007,0.6366626999999999,1.0,-0.162735,0.06529236,0.9844971,35.605709999999995,-3.173569,-30.27118,5.680115,0.4238635999999999,0.7014134,-0.4039775,1.041701,-0.151679,0.007862409,0.7496541,-0.01109128,0.0009833233680065182,-7.906219,29.63
2,-0.1976318,0.09640503,0.9755096,1.0,-0.197937,0.09667969,0.9754333,-33.09248,-1.597015,-29.8804,5.496857,0.5767007,0.6366626999999999,1.0,-0.162735,0.06529236,0.9844971,35.605709999999995,-3.173569,-30.27118,5.680115,0.4238635999999999,0.7014134,-0.4039775,1.041701,-0.151679,0.007862409,0.7496541,-0.01109128,0.0009833233680065182,-7.906219,29.63
2,-0.1976318,0.09640503,0.9755096,1.0,-0.197937,0.09667969,0.9754333,-33.09248,-1.597015,-29.8804,5.496857,0.5767007,0.6366626999999999,1.0,-0.162735,0.06529236,0.9844971,35.605709999999995,-3.173569,-30.27118,5.680115,0.4238635999999999,0.7014134,-0.4039775,1.041701,-0.151679,0.007862409,0.7496541,-0.01109128,0.0009833233680065182,-7.906219,29.63
2,-0.004272461,0.1474762,0.9890442,1.0,-0.004272461,0.1474762,0.9890442,-31.85583,-0.7456512,-30.454390000000004,5.383636,0.5015972,0.6033816,1.0,-0.002639771,0.1654205,0.9862061,36.72427,-2.2118990000000003,-31.4268,5.540024,0.3558261,0.6617205,-0.4039832,1.041808,-0.1516188999999999,0.008046925,0.7499020000000001,-0.01074947,0.0009833233680065182,-7.906219,29.63
2,-0.004272461,0.1474762,0.9890442,1.0,-0.004272461,0.1474762,0.9890442,-31.85583,-0.7456512,-30.454390000000004,5.383636,0.5015972,0.6033816,1.0,-0.002639771,0.1654205,0.9862061,36.72427,-2.2118990000000003,-31.4268,5.540024,0.3558261,0.6617205,-0.4039832,1.041808,-0.1516188999999999,0.008046925,0.7499020000000001,-0.01074947,0.0009833233680065182,-7.906219,29.63
2,-0.004272461,0.1474762,0.9890442,1.0,-0.004272461,0.1474762,0.9890442,-31.85583,-0.7456512,-30.454390000000004,5.383636,0.5015972,0.6033816,1.0,-0.002639771,0.1654205,0.9862061,36.72427,-2.2118990000000003,-31.4268,5.540024,0.3558261,0.6617205,-0.4039832,1.041808,-0.1516188999999999,0.008046925,0.7499020000000001,-0.01074947,0.0009833233680065182,-7.906219,29.63
2,-0.02027893,0.1561127,0.9875183,1.0,-0.02259827,0.149826,0.9884491,-31.80321,-0.6178435999999999,-30.83212,5.4623870000000005,0.5029915,0.6025348,1.0,-0.0079803469999999,0.1894989,0.981842,36.86189,-2.3564,-31.207,5.579941000000001,0.3520342999999999,0.6603304,-0.4040257,1.041775,-0.1515351,0.007919062,0.7500071999999999,-0.01085637,0.0009833233680065182,-7.906219,29.63
2,-0.02027893,0.1561127,0.9875183,1.0,-0.02259827,0.149826,0.9884491,-31.80321,-0.6178435999999999,-30.83212,5.4623870000000005,0.5029915,0.6025348,1.0,-0.0079803469999999,0.1894989,0.981842,36.86189,-2.3564,-31.207,5.579941000000001,0.3520342999999999,0.6603304,-0.4040257,1.041775,-0.1515351,0.007919062,0.7500071999999999,-0.01085637,0.0009833233680065182,-7.906219,29.63
2,-0.02027893,0.1561127,0.9875183,1.0,-0.02259827,0.149826,0.9884491,-31.80321,-0.6178435999999999,-30.83212,5.4623870000000005,0.5029915,0.6025348,1.0,-0.0079803469999999,0.1894989,0.981842,36.86189,-2.3564,-31.207,5.579941000000001,0.3520342999999999,0.6603304,-0.4040257,1.041775,-0.1515351,0.007919062,0.7500071999999999,-0.01085637,0.0009833233680065182,-7.906219,29.63
2,0.005508423,0.1846313,0.9827881,1.0,-0.0034484859999999,0.1530914,0.9881897,-31.87178,-0.8668213,-30.11882,5.49765,0.5019238,0.6033449000000001,1.0,0.0055999759999999,0.1849365,0.9827271,36.89796,-2.419449,-31.08107,5.726807,0.3483160999999999,0.6622366,-0.4040682,1.041757,-0.1516132999999999,0.007670058,0.7499869,-0.01098497,0.0009833233680065182,-7.906219,29.63
2,0.005508423,0.1846313,0.9827881,1.0,-0.0034484859999999,0.1530914,0.9881897,-31.87178,-0.8668213,-30.11882,5.49765,0.5019238,0.6033449000000001,1.0,0.0055999759999999,0.1849365,0.9827271,36.89796,-2.419449,-31.08107,5.726807,0.3483160999999999,0.6622366,-0.4040682,1.041757,-0.1516132999999999,0.007670058,0.7499869,-0.01098497,0.0009833233680065182,-7.906219,29.63
2,0.005508423,0.1846313,0.9827881,1.0,-0.0034484859999999,0.1530914,0.9881897,-31.87178,-0.8668213,-30.11882,5.49765,0.5019238,0.6033449000000001,1.0,0.0055999759999999,0.1849365,0.9827271,36.89796,-2.419449,-31.08107,5.726807,0.3483160999999999,0.6622366,-0.4040682,1.041757,-0.1516132999999999,0.007670058,0.7499869,-0.01098497,0.0009833233680065182,-7.906219,29.63
2,0.005508423,0.1846313,0.9827881,1.0,-0.0034484859999999,0.1530914,0.9881897,-31.87178,-0.8668213,-30.11882,5.49765,0.5019238,0.6033449000000001,1.0,0.0055999759999999,0.1849365,0.9827271,36.89796,-2.419449,-31.08107,5.726807,0.3483160999999999,0.6622366,-0.4040452,1.041745,-0.151609,0.007472758,0.7500661999999999,-0.01098124,0.0009833233680065182,55.55859,29.63
2,0.005508423,0.1846313,0.9827881,1.0,-0.0034484859999999,0.1530914,0.9881897,-31.87178,-0.8668213,-30.11882,5.49765,0.5019238,0.6033449000000001,1.0,0.0055999759999999,0.1849365,0.9827271,36.89796,-2.419449,-31.08107,5.726807,0.3483160999999999,0.6622366,-0.4040452,1.041745,-0.151609,0.007472758,0.7500661999999999,-0.01098124,0.0009833233680065182,55.55859,29.63
2,0.005508423,0.1846313,0.9827881,1.0,-0.0034484859999999,0.1530914,0.9881897,-31.87178,-0.8668213,-30.11882,5.49765,0.5019238,0.6033449000000001,1.0,0.0055999759999999,0.1849365,0.9827271,36.89796,-2.419449,-31.08107,5.726807,0.3483160999999999,0.6622366,-0.4040452,1.041745,-0.151609,0.007472758,0.7500661999999999,-0.01098124,0.0009833233680065182,55.55859,29.63
2,0.009063721,0.1716766,0.9851074,1.0,0.007614136,0.1655121,0.9861755,-31.81491,-1.231155,-29.31091,5.605148000000001,0.4979206,0.605695,1.0,0.0138092,0.1920319,0.9812775,36.91864,-2.79567,-29.97549,5.846725,0.3473094,0.6624418000000001,-0.4040337,1.041734,-0.1518112999999999,0.007379956,0.7502474,-0.01118593,0.0009833233680065182,55.55859,29.63
2,0.009063721,0.1716766,0.9851074,1.0,0.007614136,0.1655121,0.9861755,-31.81491,-1.231155,-29.31091,5.605148000000001,0.4979206,0.605695,1.0,0.0138092,0.1920319,0.9812775,36.91864,-2.79567,-29.97549,5.846725,0.3473094,0.6624418000000001,-0.4040337,1.041734,-0.1518112999999999,0.007379956,0.7502474,-0.01118593,0.0009833233680065182,55.55859,29.63
2,0.009063721,0.1716766,0.9851074,1.0,0.007614136,0.1655121,0.9861755,-31.81491,-1.231155,-29.31091,5.605148000000001,0.4979206,0.605695,1.0,0.0138092,0.1920319,0.9812775,36.91864,-2.79567,-29.97549,5.846725,0.3473094,0.6624418000000001,-0.4040337,1.041734,-0.1518112999999999,0.007379956,0.7502474,-0.01118593,0.0009833233680065182,55.55859,29.63
2,0.01356506,0.1897736,0.98172,1.0,0.00920105,0.1659241,0.986084,-31.79988,-1.2335969999999998,-29.31941,5.608994,0.4971438,0.6058031,1.0,0.01405334,0.1924744,0.9811859,36.95372,-2.836594,-29.94417,5.862915,0.3460204,0.6634880999999999,-0.4038843,1.041582,-0.1517067,0.007846283,0.7505445,-0.01145804,0.0009833233680065182,55.55859,29.63
2,0.01356506,0.1897736,0.98172,1.0,0.00920105,0.1659241,0.986084,-31.79988,-1.2335969999999998,-29.31941,5.608994,0.4971438,0.6058031,1.0,0.01405334,0.1924744,0.9811859,36.95372,-2.836594,-29.94417,5.862915,0.3460204,0.6634880999999999,-0.4038843,1.041582,-0.1517067,0.007846283,0.7505445,-0.01145804,0.0009833233680065182,55.55859,29.63
2,0.01356506,0.1897736,0.98172,1.0,0.00920105,0.1659241,0.986084,-31.79988,-1.2335969999999998,-29.31941,5.608994,0.4971438,0.6058031,1.0,0.01405334,0.1924744,0.9811859,36.95372,-2.836594,-29.94417,5.862915,0.3460204,0.6634880999999999,-0.4038843,1.041582,-0.1517067,0.007846283,0.7505445,-0.01145804,0.0009833233680065182,55.55859,29.63
2,0.02142334,0.1759186,0.9841614,1.0,0.009979248,0.1717072,0.9850922,-31.784440000000004,-1.259125,-29.2541,5.631469999999999,0.4964761,0.6050808000000001,1.0,0.03263855,0.1800385,0.9831085,37.02036,-2.836594,-29.94417,5.933502,0.3402620999999999,0.6657637,-0.4038155,1.041486,-0.1517079999999999,0.008429041,0.7504468000000001,-0.01128474,0.0009833233680065182,55.55859,29.63
2,0.02142334,0.1759186,0.9841614,1.0,0.009979248,0.1717072,0.9850922,-31.784440000000004,-1.259125,-29.2541,5.631469999999999,0.4964761,0.6050808000000001,1.0,0.03263855,0.1800385,0.9831085,37.02036,-2.836594,-29.94417,5.933502,0.3402620999999999,0.6657637,-0.4038155,1.041486,-0.1517079999999999,0.008429041,0.7504468000000001,-0.01128474,0.0009833233680065182,55.55859,29.63
2,0.02142334,0.1759186,0.9841614,1.0,0.009979248,0.1717072,0.9850922,-31.784440000000004,-1.259125,-29.2541,5.631469999999999,0.4964761,0.6050808000000001,1.0,0.03263855,0.1800385,0.9831085,37.02036,-2.836594,-29.94417,5.933502,0.3402620999999999,0.6657637,-0.4038155,1.041486,-0.1517079999999999,0.008429041,0.7504468000000001,-0.01128474,0.0009833233680065182,55.55859,29.63
2,0.01489258,0.1716918999999999,0.9850311,1.0,0.01486206,0.1716766,0.9850311,-31.78195,-1.236984,-29.31091,5.642608999999999,0.4955857,0.6049131999999999,1.0,0.01976013,0.1753693,0.9842987,37.05878,-2.462173,-31.10925,5.883591,0.3399056,0.6659639,-0.4037783,1.041412,-0.1516225,0.008531833,0.7501874,-0.01143624,0.0009833233680065182,55.55859,29.63
2,0.01489258,0.1716918999999999,0.9850311,1.0,0.01486206,0.1716766,0.9850311,-31.78195,-1.236984,-29.31091,5.642608999999999,0.4955857,0.6049131999999999,1.0,0.01976013,0.1753693,0.9842987,37.05878,-2.462173,-31.10925,5.883591,0.3399056,0.6659639,-0.4037783,1.041412,-0.1516225,0.008531833,0.7501874,-0.01143624,0.0009833233680065182,55.55859,29.63
2,0.01489258,0.1716918999999999,0.9850311,1.0,0.01486206,0.1716766,0.9850311,-31.78195,-1.236984,-29.31091,5.642608999999999,0.4955857,0.6049131999999999,1.0,0.01976013,0.1753693,0.9842987,37.05878,-2.462173,-31.10925,5.883591,0.3399056,0.6659639,-0.4037783,1.041412,-0.1516225,0.008531833,0.7501874,-0.01143624,0.0009833233680065182,55.55859,29.63
2,0.01739502,0.1751556,0.984375,1.0,0.01739502,0.1751556,0.984375,-31.756870000000003,-1.235916,-29.31912,5.70134,0.4943112,0.6044625,1.0,0.02305603,0.180069,0.9833679,37.07666,-2.439346,-31.17938,5.892059,0.3384463,0.665171,-0.4037845999999999,1.041446,-0.1514092,0.008835563,0.7498811,-0.01124969,0.0009833233680065182,58.84479,29.63
2,0.01739502,0.1751556,0.984375,1.0,0.01739502,0.1751556,0.984375,-31.756870000000003,-1.235916,-29.31912,5.70134,0.4943112,0.6044625,1.0,0.02305603,0.180069,0.9833679,37.07666,-2.439346,-31.17938,5.892059,0.3384463,0.665171,-0.4037845999999999,1.041446,-0.1514092,0.008835563,0.7498811,-0.01124969,0.0009833233680065182,58.84479,29.63
2,0.01739502,0.1751556,0.984375,1.0,0.01739502,0.1751556,0.984375,-31.756870000000003,-1.235916,-29.31912,5.70134,0.4943112,0.6044625,1.0,0.02305603,0.180069,0.9833679,37.07666,-2.439346,-31.17938,5.892059,0.3384463,0.665171,-0.4037845999999999,1.041446,-0.1514092,0.008835563,0.7498811,-0.01124969,0.0009833233680065182,58.84479,29.63
2,0.02308655,0.1760864,0.9841003,1.0,0.01657104,0.1658325,0.9860077,-31.71317,-1.134872,-29.51056,5.68869,0.4929960999999999,0.6044625,1.0,0.02731323,0.182724,0.9827728,37.08635,-2.4220580000000003,-31.2551,5.926849,0.3372169,0.6649983,-0.4037378,1.0414290000000002,-0.151409,0.008921161,0.7495630999999999,-0.01109498,0.0009833233680065182,58.84479,29.63
2,0.02308655,0.1760864,0.9841003,1.0,0.01657104,0.1658325,0.9860077,-31.71317,-1.134872,-29.51056,5.68869,0.4929960999999999,0.6044625,1.0,0.02731323,0.182724,0.9827728,37.08635,-2.4220580000000003,-31.2551,5.926849,0.3372169,0.6649983,-0.4037378,1.0414290000000002,-0.151409,0.008921161,0.7495630999999999,-0.01109498,0.0009833233680065182,58.84479,29.63
2,0.02308655,0.1760864,0.9841003,1.0,0.01657104,0.1658325,0.9860077,-31.71317,-1.134872,-29.51056,5.68869,0.4929960999999999,0.6044625,1.0,0.02731323,0.182724,0.9827728,37.08635,-2.4220580000000003,-31.2551,5.926849,0.3372169,0.6649983,-0.4037378,1.0414290000000002,-0.151409,0.008921161,0.7495630999999999,-0.01109498,0.0009833233680065182,58.84479,29.63
2,0.02627563,0.1797484999999999,0.9833527,1.0,0.02058411,0.1637267999999999,0.9862823,-31.70673,-1.112274,-29.54762,5.685364,0.4921092999999999,0.6044169,1.0,0.02891541,0.1871642999999999,0.9818878,37.08966,-2.420914,-31.33018,5.917648000000001,0.3367165,0.6649983,-0.4036034,1.041411,-0.1513259,0.008686312,0.7494618000000001,-0.01158607,0.0009833233680065182,58.84479,29.63
2,0.02627563,0.1797484999999999,0.9833527,1.0,0.02058411,0.1637267999999999,0.9862823,-31.70673,-1.112274,-29.54762,5.685364,0.4921092999999999,0.6044169,1.0,0.02891541,0.1871642999999999,0.9818878,37.08966,-2.420914,-31.33018,5.917648000000001,0.3367165,0.6649983,-0.4036034,1.041411,-0.1513259,0.008686312,0.7494618000000001,-0.01158607,0.0009833233680065182,58.84479,29.63
2,0.02627563,0.1797484999999999,0.9833527,1.0,0.02058411,0.1637267999999999,0.9862823,-31.70673,-1.112274,-29.54762,5.685364,0.4921092999999999,0.6044169,1.0,0.02891541,0.1871642999999999,0.9818878,37.08966,-2.420914,-31.33018,5.917648000000001,0.3367165,0.6649983,-0.4036034,1.041411,-0.1513259,0.008686312,0.7494618000000001,-0.01158607,0.0009833233680065182,58.84479,29.63
2,0.02461243,0.1713562,0.9848938,1.0,0.02110291,0.1623993,0.986496,-31.695190000000004,-1.112274,-29.54762,5.683395,0.4916284000000001,0.6046255,1.0,0.03010559,0.185318,0.9822083,37.09744,-2.388733,-31.41806,5.885025,0.3361277,0.6650905,-0.4035842,1.041466,-0.1512965,0.008448466,0.7497729999999999,-0.01203244,0.0009833233680065182,58.84479,29.63
2,0.02461243,0.1713562,0.9848938,1.0,0.02110291,0.1623993,0.986496,-31.695190000000004,-1.112274,-29.54762,5.683395,0.4916284000000001,0.6046255,1.0,0.03010559,0.185318,0.9822083,37.09744,-2.388733,-31.41806,5.885025,0.3361277,0.6650905,-0.4035842,1.041466,-0.1512965,0.008448466,0.7497729999999999,-0.01203244,0.0009833233680065182,58.84479,29.63
2,0.02461243,0.1713562,0.9848938,1.0,0.02110291,0.1623993,0.986496,-31.695190000000004,-1.112274,-29.54762,5.683395,0.4916284000000001,0.6046255,1.0,0.03010559,0.185318,0.9822083,37.09744,-2.388733,-31.41806,5.885025,0.3361277,0.6650905,-0.4035842,1.041466,-0.1512965,0.008448466,0.7497729999999999,-0.01203244,0.0009833233680065182,58.84479,29.63
2,0.02685547,0.174057,0.9843597,1.0,0.02087402,0.1629028,0.9864044,-31.69363,-1.135117,-29.47798,5.6867220000000005,0.4916005,0.6046255,1.0,0.03312683,0.1856842,0.9820404,37.10303,-2.3792720000000003,-31.43184,5.875198,0.3353725,0.6648145999999999,-0.403636,1.041397,-0.1511995,0.009009666,0.750138,-0.01168469,0.0009833233680065182,58.84479,29.63
2,0.02685547,0.174057,0.9843597,1.0,0.02087402,0.1629028,0.9864044,-31.69363,-1.135117,-29.47798,5.6867220000000005,0.4916005,0.6046255,1.0,0.03312683,0.1856842,0.9820404,37.10303,-2.3792720000000003,-31.43184,5.875198,0.3353725,0.6648145999999999,-0.403636,1.041397,-0.1511995,0.009009666,0.750138,-0.01168469,0.0009833233680065182,58.84479,29.63
2,0.02685547,0.174057,0.9843597,1.0,0.02087402,0.1629028,0.9864044,-31.69363,-1.135117,-29.47798,5.6867220000000005,0.4916005,0.6046255,1.0,0.03312683,0.1856842,0.9820404,37.10303,-2.3792720000000003,-31.43184,5.875198,0.3353725,0.6648145999999999,-0.403636,1.041397,-0.1511995,0.009009666,0.750138,-0.01168469,0.0009833233680065182,58.84479,29.63
2,0.0295105,0.181076,0.983017,1.0,0.01800537,0.1685181,0.9855194,-31.67943,-1.199783,-29.34895,5.7061,0.4915739999999999,0.6046255,1.0,0.03433228,0.1863403,0.9818726,37.10524,-2.3792720000000003,-31.43184,5.870193,0.3350774,0.6646930999999999,-0.4036946,1.041316,-0.1511765,0.008903605,0.7504833000000001,-0.01162684,0.0009833233680065182,58.84479,29.63
2,0.0295105,0.181076,0.983017,1.0,0.01800537,0.1685181,0.9855194,-31.67943,-1.199783,-29.34895,5.7061,0.4915739999999999,0.6046255,1.0,0.03433228,0.1863403,0.9818726,37.10524,-2.3792720000000003,-31.43184,5.870193,0.3350774,0.6646930999999999,-0.4036946,1.041316,-0.1511765,0.008903605,0.7504833000000001,-0.01162684,0.0009833233680065182,58.84479,29.63
2,0.0295105,0.181076,0.983017,1.0,0.01800537,0.1685181,0.9855194,-31.67943,-1.199783,-29.34895,5.7061,0.4915739999999999,0.6046255,1.0,0.03433228,0.1863403,0.9818726,37.10524,-2.3792720000000003,-31.43184,5.870193,0.3350774,0.6646930999999999,-0.4036946,1.041316,-0.1511765,0.008903605,0.7504833000000001,-0.01162684,0.0009833233680065182,58.84479,29.63
2,0.03300476,0.1818847999999999,0.9827576,1.0,0.01983643,0.1666565,0.9858093,-31.67499,-1.204834,-29.346940000000004,5.704422,0.4911166,0.6050828,1.0,0.03895569,0.1887207,0.9812469,37.11661,-2.410965,-31.36505,5.87439,0.3339072,0.6646969,-0.4037082,1.041222,-0.1511722,0.008853254,0.7501901,-0.0117504999999999,0.0009833233680065182,-10.37378,29.63
2,0.03300476,0.1818847999999999,0.9827576,1.0,0.01983643,0.1666565,0.9858093,-31.67499,-1.204834,-29.346940000000004,5.704422,0.4911166,0.6050828,1.0,0.03895569,0.1887207,0.9812469,37.11661,-2.410965,-31.36505,5.87439,0.3339072,0.6646969,-0.4037082,1.041222,-0.1511722,0.008853254,0.7501901,-0.0117504999999999,0.0009833233680065182,-10.37378,29.63
2,0.03300476,0.1818847999999999,0.9827576,1.0,0.01983643,0.1666565,0.9858093,-31.67499,-1.204834,-29.346940000000004,5.704422,0.4911166,0.6050828,1.0,0.03895569,0.1887207,0.9812469,37.11661,-2.410965,-31.36505,5.87439,0.3339072,0.6646969,-0.4037082,1.041222,-0.1511722,0.008853254,0.7501901,-0.0117504999999999,0.0009833233680065182,-10.37378,29.63
2,0.0249939,0.1758728,0.9840851,1.0,0.01657104,0.1684418,0.9855652,-31.6546,-1.204834,-29.37665,5.705032,0.4909724,0.6050828,1.0,0.03993225,0.1889648,0.9811554,37.13454,-2.421768,-31.32599,5.894089,0.3331242,0.6646297,-0.4037609,1.041334,-0.1510795,0.009085427,0.7497087,-0.0117849999999999,0.0009833233680065182,-10.37378,29.63
2,0.0249939,0.1758728,0.9840851,1.0,0.01657104,0.1684418,0.9855652,-31.6546,-1.204834,-29.37665,5.705032,0.4909724,0.6050828,1.0,0.03993225,0.1889648,0.9811554,37.13454,-2.421768,-31.32599,5.894089,0.3331242,0.6646297,-0.4037609,1.041334,-0.1510795,0.009085427,0.7497087,-0.0117849999999999,0.0009833233680065182,-10.37378,29.63
2,0.0249939,0.1758728,0.9840851,1.0,0.01657104,0.1684418,0.9855652,-31.6546,-1.204834,-29.37665,5.705032,0.4909724,0.6050828,1.0,0.03993225,0.1889648,0.9811554,37.13454,-2.421768,-31.32599,5.894089,0.3331242,0.6646297,-0.4037609,1.041334,-0.1510795,0.009085427,0.7497087,-0.0117849999999999,0.0009833233680065182,-10.37378,29.63
2,0.03431702,0.180954,0.9828796,1.0,0.01950073,0.1655731,0.9859924,-31.61246,-1.157562,-29.5101,5.6963040000000005,0.4890626,0.605267,1.0,0.04222107,0.1891174,0.9810333,37.14738,-2.421768,-31.32599,5.900787,0.3322383,0.6646297,-0.403775,1.041307,-0.1510068,0.009156494,0.7493270000000001,-0.01164445,0.0009833233680065182,-10.37378,29.63
2,0.03431702,0.180954,0.9828796,1.0,0.01950073,0.1655731,0.9859924,-31.61246,-1.157562,-29.5101,5.6963040000000005,0.4890626,0.605267,1.0,0.04222107,0.1891174,0.9810333,37.14738,-2.421768,-31.32599,5.900787,0.3322383,0.6646297,-0.403775,1.041307,-0.1510068,0.009156494,0.7493270000000001,-0.01164445,0.0009833233680065182,-10.37378,29.63
2,0.03431702,0.180954,0.9828796,1.0,0.01950073,0.1655731,0.9859924,-31.61246,-1.157562,-29.5101,5.6963040000000005,0.4890626,0.605267,1.0,0.04222107,0.1891174,0.9810333,37.14738,-2.421768,-31.32599,5.900787,0.3322383,0.6646297,-0.403775,1.041307,-0.1510068,0.009156494,0.7493270000000001,-0.01164445,0.0009833233680065182,-10.37378,29.63
2,0.03871155,0.1823273,0.9824677,1.0,0.02694702,0.1632385,0.9862061,-31.59288,-1.142319,-29.5266,5.678513,0.4871463,0.605267,1.0,0.04293823,0.1891937,0.9809875,37.162290000000006,-2.417374,-31.34119,5.904343,0.3315417999999999,0.6646297,-0.4038300999999999,1.041354,-0.1509637,0.009079275,0.7492153,-0.01167288,0.0009833233680065182,-10.37378,29.63
2,0.03871155,0.1823273,0.9824677,1.0,0.02694702,0.1632385,0.9862061,-31.59288,-1.142319,-29.5266,5.678513,0.4871463,0.605267,1.0,0.04293823,0.1891937,0.9809875,37.162290000000006,-2.417374,-31.34119,5.904343,0.3315417999999999,0.6646297,-0.4038300999999999,1.041354,-0.1509637,0.009079275,0.7492153,-0.01167288,0.0009833233680065182,-10.37378,29.63
2,0.03871155,0.1823273,0.9824677,1.0,0.02694702,0.1632385,0.9862061,-31.59288,-1.142319,-29.5266,5.678513,0.4871463,0.605267,1.0,0.04293823,0.1891937,0.9809875,37.162290000000006,-2.417374,-31.34119,5.904343,0.3315417999999999,0.6646297,-0.4038300999999999,1.041354,-0.1509637,0.009079275,0.7492153,-0.01167288,0.0009833233680065182,-10.37378,29.63
2,0.03045654,0.1690369,0.9851227,1.0,0.02708435,0.1651154,0.9859009,-31.59288,-1.139679,-29.534,5.680099,0.4871231,0.604951,1.0,0.05796814,0.2009735,0.9778748,37.16374,-2.616989,-30.75504,5.937515,0.3294698,0.6633446,-0.4038477,1.041379,-0.1510658,0.009282963,0.7492886999999999,-0.01144535,0.0009833233680065182,-10.37378,29.63
2,0.03045654,0.1690369,0.9851227,1.0,0.02708435,0.1651154,0.9859009,-31.59288,-1.139679,-29.534,5.680099,0.4871231,0.604951,1.0,0.05796814,0.2009735,0.9778748,37.16374,-2.616989,-30.75504,5.937515,0.3294698,0.6633446,-0.4038477,1.041379,-0.1510658,0.009282963,0.7492886999999999,-0.01144535,0.0009833233680065182,-10.37378,29.63
2,0.03045654,0.1690369,0.9851227,1.0,0.02708435,0.1651154,0.9859009,-31.59288,-1.139679,-29.534,5.680099,0.4871231,0.604951,1.0,0.05796814,0.2009735,0.9778748,37.16374,-2.616989,-30.75504,5.937515,0.3294698,0.6633446,-0.4038477,1.041379,-0.1510658,0.009282963,0.7492886999999999,-0.01144535,0.0009833233680065182,-10.37378,29.63
2,-1.0,-1.0,-1.0,0.8209738000000001,0.0,0.0,0.0,-31.70232,-0.4563140999999999,-31.20683,-1.0,0.4932784,0.6048278,0.8836546000000001,0.0,0.0,0.0,37.20946,-2.061066,-31.92244,-1.0,0.3276297999999999,0.6642055,-0.4038901,1.041346,-0.1511607,0.009397829,0.7494025,-0.01143233,0.0009833233680065182,-9.172485,29.63
2,-1.0,-1.0,-1.0,0.8209738000000001,0.0,0.0,0.0,-31.70232,-0.4563140999999999,-31.20683,-1.0,0.4932784,0.6048278,0.8836546000000001,0.0,0.0,0.0,37.20946,-2.061066,-31.92244,-1.0,0.3276297999999999,0.6642055,-0.4038901,1.041346,-0.1511607,0.009397829,0.7494025,-0.01143233,0.0009833233680065182,-9.172485,29.63
2,-1.0,-1.0,-1.0,0.8209738000000001,0.0,0.0,0.0,-31.70232,-0.4563140999999999,-31.20683,-1.0,0.4932784,0.6048278,0.8836546000000001,0.0,0.0,0.0,37.20946,-2.061066,-31.92244,-1.0,0.3276297999999999,0.6642055,-0.4038901,1.041346,-0.1511607,0.009397829,0.7494025,-0.01143233,0.0009833233680065182,-9.172485,29.63
2,-1.0,-1.0,-1.0,0.6142719,0.0,0.0,0.0,-32.06128,3.728943,-45.44283,-1.0,0.4853245,0.6583797,0.3539399,0.0,0.0,0.0,36.94148,-3.30986,-31.25836,-1.0,-1.0,-1.0,-0.4039134,1.041288,-0.1511932,0.009072707,0.7495539999999999,-0.01181878,0.0009833233680065182,-9.172485,29.63
2,-1.0,-1.0,-1.0,0.6142719,0.0,0.0,0.0,-32.06128,3.728943,-45.44283,-1.0,0.4853245,0.6583797,0.3539399,0.0,0.0,0.0,36.94148,-3.30986,-31.25836,-1.0,-1.0,-1.0,-0.4039134,1.041288,-0.1511932,0.009072707,0.7495539999999999,-0.01181878,0.0009833233680065182,-9.172485,29.63
2,-1.0,-1.0,-1.0,0.6142719,0.0,0.0,0.0,-32.06128,3.728943,-45.44283,-1.0,0.4853245,0.6583797,0.3539399,0.0,0.0,0.0,36.94148,-3.30986,-31.25836,-1.0,-1.0,-1.0,-0.4039134,1.041288,-0.1511932,0.009072707,0.7495539999999999,-0.01181878,0.0009833233680065182,-9.172485,29.63
2,-1.0,-1.0,-1.0,0.6056859,0.0,0.0,0.0,-32.020509999999994,-0.04086304,-31.31525,-1.0,0.5111886,0.6085361,0.2676164,0.0,0.0,0.0,37.07722,-3.518555,-31.26756,-1.0,0.3371781,0.7374779,-0.403863,1.041317,-0.1512726,0.00886881,0.7496501,-0.0119264,0.0009833233680065182,-9.172485,29.63
2,-1.0,-1.0,-1.0,0.6056859,0.0,0.0,0.0,-32.020509999999994,-0.04086304,-31.31525,-1.0,0.5111886,0.6085361,0.2676164,0.0,0.0,0.0,37.07722,-3.518555,-31.26756,-1.0,0.3371781,0.7374779,-0.403863,1.041317,-0.1512726,0.00886881,0.7496501,-0.0119264,0.0009833233680065182,-9.172485,29.63
2,-1.0,-1.0,-1.0,0.6056859,0.0,0.0,0.0,-32.020509999999994,-0.04086304,-31.31525,-1.0,0.5111886,0.6085361,0.2676164,0.0,0.0,0.0,37.07722,-3.518555,-31.26756,-1.0,0.3371781,0.7374779,-0.403863,1.041317,-0.1512726,0.00886881,0.7496501,-0.0119264,0.0009833233680065182,-9.172485,29.63
2,-1.0,-1.0,-1.0,0.786328,0.0,0.0,0.0,-32.0696,-0.49823,-31.00952,-1.0,0.5146883,0.6089372,0.6587564,0.0,0.0,0.0,36.67273,-1.90654,-31.40062,-1.0,0.3576185,0.6761461,-0.4038904,1.041352,-0.151427,0.00858407,0.749765,-0.01210098,0.0009833233680065182,-9.172485,29.63
2,-1.0,-1.0,-1.0,0.786328,0.0,0.0,0.0,-32.0696,-0.49823,-31.00952,-1.0,0.5146883,0.6089372,0.6587564,0.0,0.0,0.0,36.67273,-1.90654,-31.40062,-1.0,0.3576185,0.6761461,-0.4038904,1.041352,-0.151427,0.00858407,0.749765,-0.01210098,0.0009833233680065182,-9.172485,29.63
2,-1.0,-1.0,-1.0,0.786328,0.0,0.0,0.0,-32.0696,-0.49823,-31.00952,-1.0,0.5146883,0.6089372,0.6587564,0.0,0.0,0.0,36.67273,-1.90654,-31.40062,-1.0,0.3576185,0.6761461,-0.4038904,1.041352,-0.151427,0.00858407,0.749765,-0.01210098,0.0009833233680065182,-9.172485,29.63
2,-1.0,-1.0,-1.0,0.8153014000000001,0.0,0.0,0.0,-32.062740000000005,-0.5753784000000001,-30.98451,-1.0,0.5136284000000001,0.6095383000000001,0.8085167,0.0,0.0,0.0,36.71202,-2.188492,-30.90105,-1.0,0.3531493,0.6704996999999999,-0.4038370999999999,1.04137,-0.1515019,0.008663983,0.7499509,-0.01220978,0.0009833233680065182,-9.172485,29.63
2,-1.0,-1.0,-1.0,0.8153014000000001,0.0,0.0,0.0,-32.062740000000005,-0.5753784000000001,-30.98451,-1.0,0.5136284000000001,0.6095383000000001,0.8085167,0.0,0.0,0.0,36.71202,-2.188492,-30.90105,-1.0,0.3531493,0.6704996999999999,-0.4038370999999999,1.04137,-0.1515019,0.008663983,0.7499509,-0.01220978,0.0009833233680065182,-9.172485,29.63
2,-1.0,-1.0,-1.0,0.8153014000000001,0.0,0.0,0.0,-32.062740000000005,-0.5753784000000001,-30.98451,-1.0,0.5136284000000001,0.6095383000000001,0.8085167,0.0,0.0,0.0,36.71202,-2.188492,-30.90105,-1.0,0.3531493,0.6704996999999999,-0.4038370999999999,1.04137,-0.1515019,0.008663983,0.7499509,-0.01220978,0.0009833233680065182,-9.172485,29.63
2,-0.0315094,0.0975646999999999,0.9947205,1.0,-0.03184509,0.09732056,0.9947357,-32.03979,-0.6970978,-30.80948,5.358963,0.5126715000000001,0.6138228,1.0,-0.004852295,0.1168365,0.9931335,36.75891,-2.30806,-31.04721,5.769623,0.3550367,0.6698288,-0.4036798,1.041313,-0.1515505,0.0085671269999999,0.7500374,-0.01242392,0.0009833233680065182,-9.172485,29.63
2,-0.0315094,0.0975646999999999,0.9947205,1.0,-0.03184509,0.09732056,0.9947357,-32.03979,-0.6970978,-30.80948,5.358963,0.5126715000000001,0.6138228,1.0,-0.004852295,0.1168365,0.9931335,36.75891,-2.30806,-31.04721,5.769623,0.3550367,0.6698288,-0.4036798,1.041313,-0.1515505,0.0085671269999999,0.7500374,-0.01242392,0.0009833233680065182,-9.172485,29.63
2,-0.0315094,0.0975646999999999,0.9947205,1.0,-0.03184509,0.09732056,0.9947357,-32.03979,-0.6970978,-30.80948,5.358963,0.5126715000000001,0.6138228,1.0,-0.004852295,0.1168365,0.9931335,36.75891,-2.30806,-31.04721,5.769623,0.3550367,0.6698288,-0.4036798,1.041313,-0.1515505,0.0085671269999999,0.7500374,-0.01242392,0.0009833233680065182,-9.172485,29.63
3,-0.04484558,0.1032104,0.9936371,1.0,-0.04553223,0.10289,0.9936371,-32.02745,-0.764389,-30.72067,5.524597,0.5145301,0.6145418,1.0,-0.009628296,0.1190948,0.9928284,36.781940000000006,-2.542007,-30.62686,5.832993,0.3553805,0.6732363,-0.4036467,1.041254,-0.1516783,0.008855358,0.7500338000000001,-0.01258894,0.0009833233680065182,-9.172485,29.63
3,-0.04484558,0.1032104,0.9936371,1.0,-0.04553223,0.10289,0.9936371,-32.02745,-0.764389,-30.72067,5.524597,0.5145301,0.6145418,1.0,-0.009628296,0.1190948,0.9928284,36.781940000000006,-2.542007,-30.62686,5.832993,0.3553805,0.6732363,-0.4036467,1.041254,-0.1516783,0.008855358,0.7500338000000001,-0.01258894,0.0009833233680065182,-9.172485,29.63
3,-0.04484558,0.1032104,0.9936371,1.0,-0.04553223,0.10289,0.9936371,-32.02745,-0.764389,-30.72067,5.524597,0.5145301,0.6145418,1.0,-0.009628296,0.1190948,0.9928284,36.781940000000006,-2.542007,-30.62686,5.832993,0.3553805,0.6732363,-0.4036467,1.041254,-0.1516783,0.008855358,0.7500338000000001,-0.01258894,0.0009833233680065182,-9.172485,29.63
3,-0.0063323969999999,0.1258392,0.9920197,1.0,-0.03335571,0.09550476,0.9948578,-32.00877,-1.162384,-29.820940000000004,5.555084,0.5115128,0.6202633000000001,1.0,-0.002624512,0.1300049,0.9915009,36.78352,-2.629532,-30.600690000000004,5.896179,0.3540772,0.6742497,-0.4035391,1.041126,-0.1516401,0.009152832,0.7498570999999999,-0.0127176,0.0009833233680065182,145.2866,29.63
3,-0.0063323969999999,0.1258392,0.9920197,1.0,-0.03335571,0.09550476,0.9948578,-32.00877,-1.162384,-29.820940000000004,5.555084,0.5115128,0.6202633000000001,1.0,-0.002624512,0.1300049,0.9915009,36.78352,-2.629532,-30.600690000000004,5.896179,0.3540772,0.6742497,-0.4035391,1.041126,-0.1516401,0.009152832,0.7498570999999999,-0.0127176,0.0009833233680065182,145.2866,29.63
3,-0.0063323969999999,0.1258392,0.9920197,1.0,-0.03335571,0.09550476,0.9948578,-32.00877,-1.162384,-29.820940000000004,5.555084,0.5115128,0.6202633000000001,1.0,-0.002624512,0.1300049,0.9915009,36.78352,-2.629532,-30.600690000000004,5.896179,0.3540772,0.6742497,-0.4035391,1.041126,-0.1516401,0.009152832,0.7498570999999999,-0.0127176,0.0009833233680065182,145.2866,29.63
3,-0.0032348629999999,0.1322784,0.9911957,1.0,-0.03605652,0.09494019,0.9948273,-32.00891,-1.140259,-29.894240000000003,5.5737760000000005,0.5119901,0.6203566,1.0,-0.003158569,0.1323547,0.9911804,36.83418,-3.0947880000000003,-29.4913,5.875808999999999,0.3533423,0.6780739,-0.4034708,1.041024,-0.1516683,0.0091071319999999,0.7497144,-0.01286091,0.0009833233680065182,145.2866,29.63
3,-0.0032348629999999,0.1322784,0.9911957,1.0,-0.03605652,0.09494019,0.9948273,-32.00891,-1.140259,-29.894240000000003,5.5737760000000005,0.5119901,0.6203566,1.0,-0.003158569,0.1323547,0.9911804,36.83418,-3.0947880000000003,-29.4913,5.875808999999999,0.3533423,0.6780739,-0.4034708,1.041024,-0.1516683,0.0091071319999999,0.7497144,-0.01286091,0.0009833233680065182,145.2866,29.63
3,-0.0032348629999999,0.1322784,0.9911957,1.0,-0.03605652,0.09494019,0.9948273,-32.00891,-1.140259,-29.894240000000003,5.5737760000000005,0.5119901,0.6203566,1.0,-0.003158569,0.1323547,0.9911804,36.83418,-3.0947880000000003,-29.4913,5.875808999999999,0.3533423,0.6780739,-0.4034708,1.041024,-0.1516683,0.0091071319999999,0.7497144,-0.01286091,0.0009833233680065182,145.2866,29.63
3,-0.03538513,0.1017456,0.9941711,1.0,-0.03540039,0.1017456,0.9941711,-31.99055,-1.220428,-29.89095,5.562286,0.5112497,0.6219158,1.0,-0.002975464,0.1347046,0.9908752,36.84439,-3.212234,-29.29016,5.838043,0.3532915,0.6794623000000001,-0.4033357,1.040973,-0.151644,0.009160154,0.7494534,-0.01317624,0.0009833233680065182,145.2866,29.63
3,-0.03538513,0.1017456,0.9941711,1.0,-0.03540039,0.1017456,0.9941711,-31.99055,-1.220428,-29.89095,5.562286,0.5112497,0.6219158,1.0,-0.002975464,0.1347046,0.9908752,36.84439,-3.212234,-29.29016,5.838043,0.3532915,0.6794623000000001,-0.4033357,1.040973,-0.151644,0.009160154,0.7494534,-0.01317624,0.0009833233680065182,145.2866,29.63
3,-0.03538513,0.1017456,0.9941711,1.0,-0.03540039,0.1017456,0.9941711,-31.99055,-1.220428,-29.89095,5.562286,0.5112497,0.6219158,1.0,-0.002975464,0.1347046,0.9908752,36.84439,-3.212234,-29.29016,5.838043,0.3532915,0.6794623000000001,-0.4033357,1.040973,-0.151644,0.009160154,0.7494534,-0.01317624,0.0009833233680065182,145.2866,29.63
3,-0.01431274,0.1181183,0.9928894,1.0,-0.03117371,0.09936523,0.9945526,-31.99475,-1.249771,-29.82996,5.528366,0.5106648,0.6226341999999999,1.0,-0.002563477,0.131134,0.9913483,36.83287,-3.2187810000000003,-29.29395,5.843216,0.3535935,0.6803526,-0.4032265999999999,1.041008,-0.151642,0.009210446,0.7495022,-0.0137029,0.0009833233680065182,94.66205,29.63
3,-0.01431274,0.1181183,0.9928894,1.0,-0.03117371,0.09936523,0.9945526,-31.99475,-1.249771,-29.82996,5.528366,0.5106648,0.6226341999999999,1.0,-0.002563477,0.131134,0.9913483,36.83287,-3.2187810000000003,-29.29395,5.843216,0.3535935,0.6803526,-0.4032265999999999,1.041008,-0.151642,0.009210446,0.7495022,-0.0137029,0.0009833233680065182,94.66205,29.63
3,-0.01431274,0.1181183,0.9928894,1.0,-0.03117371,0.09936523,0.9945526,-31.99475,-1.249771,-29.82996,5.528366,0.5106648,0.6226341999999999,1.0,-0.002563477,0.131134,0.9913483,36.83287,-3.2187810000000003,-29.29395,5.843216,0.3535935,0.6803526,-0.4032265999999999,1.041008,-0.151642,0.009210446,0.7495022,-0.0137029,0.0009833233680065182,94.66205,29.63
3,-0.01364136,0.1056671,0.9942932,1.0,-0.02493286,0.1021729,0.9944458,-31.99536,-1.268707,-29.82352,5.573608,0.509634,0.622794,1.0,-0.0009765625,0.1095581,0.9939728,36.77966,-3.148788,-29.343120000000003,5.839035,0.3551336,0.6821348,-0.4031723,1.041061,-0.1515358,0.009451191,0.7496281,-0.01323408,0.0009833233680065182,94.66205,29.63
3,-0.01364136,0.1056671,0.9942932,1.0,-0.02493286,0.1021729,0.9944458,-31.99536,-1.268707,-29.82352,5.573608,0.509634,0.622794,1.0,-0.0009765625,0.1095581,0.9939728,36.77966,-3.148788,-29.343120000000003,5.839035,0.3551336,0.6821348,-0.4031723,1.041061,-0.1515358,0.009451191,0.7496281,-0.01323408,0.0009833233680065182,94.66205,29.63
3,-0.01364136,0.1056671,0.9942932,1.0,-0.02493286,0.1021729,0.9944458,-31.99536,-1.268707,-29.82352,5.573608,0.509634,0.622794,1.0,-0.0009765625,0.1095581,0.9939728,36.77966,-3.148788,-29.343120000000003,5.839035,0.3551336,0.6821348,-0.4031723,1.041061,-0.1515358,0.009451191,0.7496281,-0.01323408,0.0009833233680065182,94.66205,29.63
3,-0.02000427,0.1031188999999999,0.9944611,1.0,-0.02493286,0.09606934,0.9950562,-31.99416,-1.296814,-29.79562,5.56955,0.5095769,0.6244884,1.0,-0.003128052,0.127243,0.9918518,36.82458,-3.3385620000000005,-29.13931,5.934158,0.3540347,0.6836864,-0.4032178,1.040975,-0.1515818,0.009119804,0.7497359,-0.01316578,0.0009833233680065182,94.66205,29.63
3,-0.02000427,0.1031188999999999,0.9944611,1.0,-0.02493286,0.09606934,0.9950562,-31.99416,-1.296814,-29.79562,5.56955,0.5095769,0.6244884,1.0,-0.003128052,0.127243,0.9918518,36.82458,-3.3385620000000005,-29.13931,5.934158,0.3540347,0.6836864,-0.4032178,1.040975,-0.1515818,0.009119804,0.7497359,-0.01316578,0.0009833233680065182,94.66205,29.63
3,-0.02000427,0.1031188999999999,0.9944611,1.0,-0.02493286,0.09606934,0.9950562,-31.99416,-1.296814,-29.79562,5.56955,0.5095769,0.6244884,1.0,-0.003128052,0.127243,0.9918518,36.82458,-3.3385620000000005,-29.13931,5.934158,0.3540347,0.6836864,-0.4032178,1.040975,-0.1515818,0.009119804,0.7497359,-0.01316578,0.0009833233680065182,94.66205,29.63
3,-0.0196228,0.1035614,0.9944153,1.0,-0.02467346,0.09623718,0.9950409,-31.99626,-1.353058,-29.704390000000004,5.573013,0.5095769,0.625448,1.0,-0.002670288,0.1280823,0.991745,36.82457,-3.354477,-29.12627,5.916229,0.3539691,0.6839346,-0.403316,1.0409469999999998,-0.1515858,0.009134497,0.7496983,-0.01301552,0.0009833233680065182,94.66205,29.63
3,-0.0196228,0.1035614,0.9944153,1.0,-0.02467346,0.09623718,0.9950409,-31.99626,-1.353058,-29.704390000000004,5.573013,0.5095769,0.625448,1.0,-0.002670288,0.1280823,0.991745,36.82457,-3.354477,-29.12627,5.916229,0.3539691,0.6839346,-0.403316,1.0409469999999998,-0.1515858,0.009134497,0.7496983,-0.01301552,0.0009833233680065182,94.66205,29.63
3,-0.0196228,0.1035614,0.9944153,1.0,-0.02467346,0.09623718,0.9950409,-31.99626,-1.353058,-29.704390000000004,5.573013,0.5095769,0.625448,1.0,-0.002670288,0.1280823,0.991745,36.82457,-3.354477,-29.12627,5.916229,0.3539691,0.6839346,-0.403316,1.0409469999999998,-0.1515858,0.009134497,0.7496983,-0.01301552,0.0009833233680065182,94.66205,29.63
3,-0.003936768,0.1211853,0.9926146999999998,1.0,-0.02095032,0.1045073999999999,0.9942932,-32.020579999999995,-1.668793,-28.85149,5.601563,0.5095181,0.626139,1.0,-0.003936768,0.1211853,0.9926146999999998,36.82893,-3.367538,-29.15132,5.903366,0.3539691,0.6858359,-0.4032711,1.040949,-0.1515146,0.009178031,0.7492754,-0.01294118,0.0009833233680065182,10.09613,29.63
3,-0.003936768,0.1211853,0.9926146999999998,1.0,-0.02095032,0.1045073999999999,0.9942932,-32.020579999999995,-1.668793,-28.85149,5.601563,0.5095181,0.626139,1.0,-0.003936768,0.1211853,0.9926146999999998,36.82893,-3.367538,-29.15132,5.903366,0.3539691,0.6858359,-0.4032711,1.040949,-0.1515146,0.009178031,0.7492754,-0.01294118,0.0009833233680065182,10.09613,29.63
3,-0.003936768,0.1211853,0.9926146999999998,1.0,-0.02095032,0.1045073999999999,0.9942932,-32.020579999999995,-1.668793,-28.85149,5.601563,0.5095181,0.626139,1.0,-0.003936768,0.1211853,0.9926146999999998,36.82893,-3.367538,-29.15132,5.903366,0.3539691,0.6858359,-0.4032711,1.040949,-0.1515146,0.009178031,0.7492754,-0.01294118,0.0009833233680065182,10.09613,29.63
3,-0.005096436,0.1180267,0.9929962,1.0,-0.02075195,0.106842,0.9940491,-32.0222,-1.708359,-28.7868,5.566666000000001,0.5095181,0.6263893,1.0,-0.005096436,0.1180267,0.9929962,36.83195,-3.383896,-29.1552,5.896332,0.3540347,0.6869945,-0.4033388,1.041009,-0.1514416,0.00954298,0.7491667,-0.01291784,0.0009833233680065182,10.09613,29.63
3,-0.005096436,0.1180267,0.9929962,1.0,-0.02075195,0.106842,0.9940491,-32.0222,-1.708359,-28.7868,5.566666000000001,0.5095181,0.6263893,1.0,-0.005096436,0.1180267,0.9929962,36.83195,-3.383896,-29.1552,5.896332,0.3540347,0.6869945,-0.4033388,1.041009,-0.1514416,0.00954298,0.7491667,-0.01291784,0.0009833233680065182,10.09613,29.63
3,-0.005096436,0.1180267,0.9929962,1.0,-0.02075195,0.106842,0.9940491,-32.0222,-1.708359,-28.7868,5.566666000000001,0.5095181,0.6263893,1.0,-0.005096436,0.1180267,0.9929962,36.83195,-3.383896,-29.1552,5.896332,0.3540347,0.6869945,-0.4033388,1.041009,-0.1514416,0.00954298,0.7491667,-0.01291784,0.0009833233680065182,10.09613,29.63
3,-0.01405334,0.09802246,0.9950714,1.0,-0.0138854999999999,0.08804321,0.9960175,-32.02391,-1.746765,-28.73978,5.438583,0.5084057,0.6301749,1.0,-0.01420593,0.1074371,0.9940948,36.83836,-3.4399870000000004,-29.11731,5.766891,0.3554099,0.6901706,-0.4035163,1.04114,-0.1513928,0.009014213,0.7491395000000001,-0.01249597,0.0009833233680065182,10.09613,29.63
3,-0.01405334,0.09802246,0.9950714,1.0,-0.0138854999999999,0.08804321,0.9960175,-32.02391,-1.746765,-28.73978,5.438583,0.5084057,0.6301749,1.0,-0.01420593,0.1074371,0.9940948,36.83836,-3.4399870000000004,-29.11731,5.766891,0.3554099,0.6901706,-0.4035163,1.04114,-0.1513928,0.009014213,0.7491395000000001,-0.01249597,0.0009833233680065182,10.09613,29.63
3,-0.01405334,0.09802246,0.9950714,1.0,-0.0138854999999999,0.08804321,0.9960175,-32.02391,-1.746765,-28.73978,5.438583,0.5084057,0.6301749,1.0,-0.01420593,0.1074371,0.9940948,36.83836,-3.4399870000000004,-29.11731,5.766891,0.3554099,0.6901706,-0.4035163,1.04114,-0.1513928,0.009014213,0.7491395000000001,-0.01249597,0.0009833233680065182,10.09613,29.63
3,-0.0144043,0.09623718,0.9952393,1.0,-0.01316833,0.0874176,0.9960785,-32.02574,-1.75528,-28.72826,5.416351000000001,0.5083429,0.6304228000000001,1.0,-0.01570129,0.1054382,0.9942932,36.83836,-3.44455,-29.11533,5.675049,0.3557105,0.690503,-0.4036657,1.0411979999999998,-0.1513948999999999,0.008973621,0.7493154000000001,-0.01224725,0.0009833233680065182,10.09613,29.63
3,-0.0144043,0.09623718,0.9952393,1.0,-0.01316833,0.0874176,0.9960785,-32.02574,-1.75528,-28.72826,5.416351000000001,0.5083429,0.6304228000000001,1.0,-0.01570129,0.1054382,0.9942932,36.83836,-3.44455,-29.11533,5.675049,0.3557105,0.690503,-0.4036657,1.0411979999999998,-0.1513948999999999,0.008973621,0.7493154000000001,-0.01224725,0.0009833233680065182,10.09613,29.63
3,-0.0144043,0.09623718,0.9952393,1.0,-0.01316833,0.0874176,0.9960785,-32.02574,-1.75528,-28.72826,5.416351000000001,0.5083429,0.6304228000000001,1.0,-0.01570129,0.1054382,0.9942932,36.83836,-3.44455,-29.11533,5.675049,0.3557105,0.690503,-0.4036657,1.0411979999999998,-0.1513948999999999,0.008973621,0.7493154000000001,-0.01224725,0.0009833233680065182,10.09613,29.63
3,-0.01394653,0.09411621,0.9954529,1.0,-0.01121521,0.08642578,0.9961853,-32.028,-1.811264,-28.653170000000003,5.3229370000000005,0.50807,0.631592,1.0,-0.01651001,0.1013184,0.9947052,36.83571,-3.488953,-29.063340000000004,5.576141000000001,0.3560105999999999,0.6920462,-0.4037942,1.041262,-0.1514144,0.008688457,0.7494206999999999,-0.01208558,0.0009833233680065182,10.09613,29.63
3,-0.01394653,0.09411621,0.9954529,1.0,-0.01121521,0.08642578,0.9961853,-32.028,-1.811264,-28.653170000000003,5.3229370000000005,0.50807,0.631592,1.0,-0.01651001,0.1013184,0.9947052,36.83571,-3.488953,-29.063340000000004,5.576141000000001,0.3560105999999999,0.6920462,-0.4037942,1.041262,-0.1514144,0.008688457,0.7494206999999999,-0.01208558,0.0009833233680065182,10.09613,29.63
3,-0.01394653,0.09411621,0.9954529,1.0,-0.01121521,0.08642578,0.9961853,-32.028,-1.811264,-28.653170000000003,5.3229370000000005,0.50807,0.631592,1.0,-0.01651001,0.1013184,0.9947052,36.83571,-3.488953,-29.063340000000004,5.576141000000001,0.3560105999999999,0.6920462,-0.4037942,1.041262,-0.1514144,0.008688457,0.7494206999999999,-0.01208558,0.0009833233680065182,10.09613,29.63
3,-0.01475525,0.09632874,0.9952393,1.0,-0.01257324,0.08822632,0.9960175,-32.02881,-1.833313,-28.63477,5.318436,0.5083168,0.6318581,1.0,-0.01647949,0.1027678999999999,0.9945679,36.83571,-3.500443,-29.063340000000004,5.507721,0.3560397999999999,0.6920896,-0.4039582,1.041474,-0.1514688,0.0082738109999999,0.7493613,-0.01166011,0.0009833233680065182,94.88214,29.63
3,-0.01475525,0.09632874,0.9952393,1.0,-0.01257324,0.08822632,0.9960175,-32.02881,-1.833313,-28.63477,5.318436,0.5083168,0.6318581,1.0,-0.01647949,0.1027678999999999,0.9945679,36.83571,-3.500443,-29.063340000000004,5.507721,0.3560397999999999,0.6920896,-0.4039582,1.041474,-0.1514688,0.0082738109999999,0.7493613,-0.01166011,0.0009833233680065182,94.88214,29.63
3,-0.01475525,0.09632874,0.9952393,1.0,-0.01257324,0.08822632,0.9960175,-32.02881,-1.833313,-28.63477,5.318436,0.5083168,0.6318581,1.0,-0.01647949,0.1027678999999999,0.9945679,36.83571,-3.500443,-29.063340000000004,5.507721,0.3560397999999999,0.6920896,-0.4039582,1.041474,-0.1514688,0.0082738109999999,0.7493613,-0.01166011,0.0009833233680065182,94.88214,29.63
3,-0.01493835,0.09620667,0.9952393,1.0,-0.01261902,0.08947754,0.9958954,-32.028929999999995,-1.855637,-28.59315,5.277664,0.5083168,0.6319265000000001,1.0,-0.01672363,0.1014252,0.9946899,36.83705,-3.500443,-29.063340000000004,5.432938,0.356066,0.6922067,-0.4041024,1.041685,-0.1514628999999999,0.0075934209999999,0.7493460999999999,-0.01124141,0.0009833233680065182,94.88214,29.63
3,-0.01493835,0.09620667,0.9952393,1.0,-0.01261902,0.08947754,0.9958954,-32.028929999999995,-1.855637,-28.59315,5.277664,0.5083168,0.6319265000000001,1.0,-0.01672363,0.1014252,0.9946899,36.83705,-3.500443,-29.063340000000004,5.432938,0.356066,0.6922067,-0.4041024,1.041685,-0.1514628999999999,0.0075934209999999,0.7493460999999999,-0.01124141,0.0009833233680065182,94.88214,29.63
3,-0.01493835,0.09620667,0.9952393,1.0,-0.01261902,0.08947754,0.9958954,-32.028929999999995,-1.855637,-28.59315,5.277664,0.5083168,0.6319265000000001,1.0,-0.01672363,0.1014252,0.9946899,36.83705,-3.500443,-29.063340000000004,5.432938,0.356066,0.6922067,-0.4041024,1.041685,-0.1514628999999999,0.0075934209999999,0.7493460999999999,-0.01124141,0.0009833233680065182,94.88214,29.63
3,-0.01504517,0.09336853,0.9955139,1.0,-0.01239014,0.08647156,0.99617,-32.03041,-1.865875,-28.56821,5.202454,0.5083168,0.6324270000000001,1.0,-0.01780701,0.1005402,0.9947662,36.84044,-3.490158,-29.11815,5.407089,0.3560796,0.6925699000000001,-0.4042591,1.041789,-0.1513608,0.007001241,0.7493085,-0.01095679,0.0009833233680065182,94.88214,29.63
3,-0.01504517,0.09336853,0.9955139,1.0,-0.01239014,0.08647156,0.99617,-32.03041,-1.865875,-28.56821,5.202454,0.5083168,0.6324270000000001,1.0,-0.01780701,0.1005402,0.9947662,36.84044,-3.490158,-29.11815,5.407089,0.3560796,0.6925699000000001,-0.4042591,1.041789,-0.1513608,0.007001241,0.7493085,-0.01095679,0.0009833233680065182,94.88214,29.63
3,-0.01504517,0.09336853,0.9955139,1.0,-0.01239014,0.08647156,0.99617,-32.03041,-1.865875,-28.56821,5.202454,0.5083168,0.6324270000000001,1.0,-0.01780701,0.1005402,0.9947662,36.84044,-3.490158,-29.11815,5.407089,0.3560796,0.6925699000000001,-0.4042591,1.041789,-0.1513608,0.007001241,0.7493085,-0.01095679,0.0009833233680065182,94.88214,29.63
3,-0.01647949,0.09355164,0.9954681,1.0,-0.01255798,0.08934021,0.9959106,-32.03761,-1.888321,-28.561770000000003,5.197067,0.5085886,0.6326334,1.0,-0.02125549,0.09867859,0.9948883,36.84044,-3.484406,-29.14742,5.343124,0.3566705999999999,0.6929263000000001,-0.4044455,1.041811,-0.1513538999999999,0.007081657,0.7493598000000001,-0.01085568,0.0009833233680065182,94.88214,29.63
3,-0.01647949,0.09355164,0.9954681,1.0,-0.01255798,0.08934021,0.9959106,-32.03761,-1.888321,-28.561770000000003,5.197067,0.5085886,0.6326334,1.0,-0.02125549,0.09867859,0.9948883,36.84044,-3.484406,-29.14742,5.343124,0.3566705999999999,0.6929263000000001,-0.4044455,1.041811,-0.1513538999999999,0.007081657,0.7493598000000001,-0.01085568,0.0009833233680065182,94.88214,29.63
3,-0.01647949,0.09355164,0.9954681,1.0,-0.01255798,0.08934021,0.9959106,-32.03761,-1.888321,-28.561770000000003,5.197067,0.5085886,0.6326334,1.0,-0.02125549,0.09867859,0.9948883,36.84044,-3.484406,-29.14742,5.343124,0.3566705999999999,0.6929263000000001,-0.4044455,1.041811,-0.1513538999999999,0.007081657,0.7493598000000001,-0.01085568,0.0009833233680065182,94.88214,29.63
3,-0.01628113,0.09078979,0.9957275,1.0,-0.01106262,0.09034729,0.9958344,-32.04829,-1.924957,-28.51065,5.191742,0.508684,0.633181,1.0,-0.02096558,0.09118652,0.9956055,36.83325,-3.490082,-29.145190000000003,5.309219000000001,0.3568558,0.6943469,-0.4044974,1.041805,-0.1512571,0.007357205,0.7492969,-0.01080822,0.0009833233680065182,19.01672,29.63
3,-0.01628113,0.09078979,0.9957275,1.0,-0.01106262,0.09034729,0.9958344,-32.04829,-1.924957,-28.51065,5.191742,0.508684,0.633181,1.0,-0.02096558,0.09118652,0.9956055,36.83325,-3.490082,-29.145190000000003,5.309219000000001,0.3568558,0.6943469,-0.4044974,1.041805,-0.1512571,0.007357205,0.7492969,-0.01080822,0.0009833233680065182,19.01672,29.63
3,-0.01628113,0.09078979,0.9957275,1.0,-0.01106262,0.09034729,0.9958344,-32.04829,-1.924957,-28.51065,5.191742,0.508684,0.633181,1.0,-0.02096558,0.09118652,0.9956055,36.83325,-3.490082,-29.145190000000003,5.309219000000001,0.3568558,0.6943469,-0.4044974,1.041805,-0.1512571,0.007357205,0.7492969,-0.01080822,0.0009833233680065182,19.01672,29.63
3,-0.01673889,0.09313965,0.9954987,1.0,-0.010849,0.09251404,0.9956511999999998,-32.05321,-1.953598,-28.47528,5.168594000000001,0.5088033,0.6334022,1.0,-0.02085876,0.09358215,0.9953918,36.8304,-3.521957,-29.13339,5.275894,0.3569556,0.694869,-0.404519,1.041722,-0.151134,0.007746898,0.7493048000000001,-0.01060432,0.0009833233680065182,19.01672,29.63
3,-0.01673889,0.09313965,0.9954987,1.0,-0.010849,0.09251404,0.9956511999999998,-32.05321,-1.953598,-28.47528,5.168594000000001,0.5088033,0.6334022,1.0,-0.02085876,0.09358215,0.9953918,36.8304,-3.521957,-29.13339,5.275894,0.3569556,0.694869,-0.404519,1.041722,-0.151134,0.007746898,0.7493048000000001,-0.01060432,0.0009833233680065182,19.01672,29.63
3,-0.01673889,0.09313965,0.9954987,1.0,-0.010849,0.09251404,0.9956511999999998,-32.05321,-1.953598,-28.47528,5.168594000000001,0.5088033,0.6334022,1.0,-0.02085876,0.09358215,0.9953918,36.8304,-3.521957,-29.13339,5.275894,0.3569556,0.694869,-0.404519,1.041722,-0.151134,0.007746898,0.7493048000000001,-0.01060432,0.0009833233680065182,19.01672,29.63
3,-0.01504517,0.08851624,0.9959564,1.0,-0.01095581,0.08482361,0.9963226,-32.053740000000005,-1.955444,-28.45784,5.116013,0.50883,0.6345031,1.0,-0.02059937,0.09353638,0.9953918,36.823170000000005,-3.574295,-29.011540000000004,5.261368,0.3572898,0.6953359,-0.4045584,1.041656,-0.1511041,0.008015382,0.7490770999999999,-0.01065479,0.0009833233680065182,19.01672,29.63
3,-0.01504517,0.08851624,0.9959564,1.0,-0.01095581,0.08482361,0.9963226,-32.053740000000005,-1.955444,-28.45784,5.116013,0.50883,0.6345031,1.0,-0.02059937,0.09353638,0.9953918,36.823170000000005,-3.574295,-29.011540000000004,5.261368,0.3572898,0.6953359,-0.4045584,1.041656,-0.1511041,0.008015382,0.7490770999999999,-0.01065479,0.0009833233680065182,19.01672,29.63
3,-0.01504517,0.08851624,0.9959564,1.0,-0.01095581,0.08482361,0.9963226,-32.053740000000005,-1.955444,-28.45784,5.116013,0.50883,0.6345031,1.0,-0.02059937,0.09353638,0.9953918,36.823170000000005,-3.574295,-29.011540000000004,5.261368,0.3572898,0.6953359,-0.4045584,1.041656,-0.1511041,0.008015382,0.7490770999999999,-0.01065479,0.0009833233680065182,19.01672,29.63
3,-0.01933289,0.08909607,0.9958190999999998,1.0,-0.01356506,0.08074951,0.9966278,-32.04404,-1.778259,-29.04744,5.027298,0.5091116,0.6350943,1.0,-0.02076721,0.09120178,0.9956055,36.81873,-3.6024480000000003,-28.95377,5.183075,0.357558,0.6959715,-0.4044627999999999,1.041554,-0.151069,0.00837406,0.748807,-0.01043683,0.0009833233680065182,19.01672,29.71
3,-0.01933289,0.08909607,0.9958190999999998,1.0,-0.01356506,0.08074951,0.9966278,-32.04404,-1.778259,-29.04744,5.027298,0.5091116,0.6350943,1.0,-0.02076721,0.09120178,0.9956055,36.81873,-3.6024480000000003,-28.95377,5.183075,0.357558,0.6959715,-0.4044627999999999,1.041554,-0.151069,0.00837406,0.748807,-0.01043683,0.0009833233680065182,19.01672,29.71
3,-0.01933289,0.08909607,0.9958190999999998,1.0,-0.01356506,0.08074951,0.9966278,-32.04404,-1.778259,-29.04744,5.027298,0.5091116,0.6350943,1.0,-0.02076721,0.09120178,0.9956055,36.81873,-3.6024480000000003,-28.95377,5.183075,0.357558,0.6959715,-0.4044627999999999,1.041554,-0.151069,0.00837406,0.748807,-0.01043683,0.0009833233680065182,19.01672,29.71
3,-0.01959229,0.09043884,0.995697,1.0,-0.02217102,0.07525635,0.9969025,-32.04404,-1.769394,-29.07851,4.974808,0.51057,0.6360109,1.0,-0.01959229,0.0904541,0.995697,36.81262,-3.629669,-28.909,5.112152,0.3576351,0.696449,-0.404192,1.041603,-0.1512474,0.008400265,0.7489186,-0.01121752,0.0009833233680065182,19.01672,29.71
3,-0.01959229,0.09043884,0.995697,1.0,-0.02217102,0.07525635,0.9969025,-32.04404,-1.769394,-29.07851,4.974808,0.51057,0.6360109,1.0,-0.01959229,0.0904541,0.995697,36.81262,-3.629669,-28.909,5.112152,0.3576351,0.696449,-0.404192,1.041603,-0.1512474,0.008400265,0.7489186,-0.01121752,0.0009833233680065182,19.01672,29.71
3,-0.01959229,0.09043884,0.995697,1.0,-0.02217102,0.07525635,0.9969025,-32.04404,-1.769394,-29.07851,4.974808,0.51057,0.6360109,1.0,-0.01959229,0.0904541,0.995697,36.81262,-3.629669,-28.909,5.112152,0.3576351,0.696449,-0.404192,1.041603,-0.1512474,0.008400265,0.7489186,-0.01121752,0.0009833233680065182,19.01672,29.71
3,0.02624512,0.1245117,0.9918671,1.0,0.02624512,0.1245117,0.9918671,-31.45605,-1.281342,-29.73863,4.967285,0.4825279,0.6176414000000001,1.0,0.03579712,0.1512146,0.9878386999999998,37.25258,-2.741852,-31.14168,5.034744,0.3298696,0.6792,-0.404142,1.041636,-0.1512822,0.008723971,0.7491372,-0.01086254,0.0009833233680065182,-30.2832,29.71
3,0.02624512,0.1245117,0.9918671,1.0,0.02624512,0.1245117,0.9918671,-31.45605,-1.281342,-29.73863,4.967285,0.4825279,0.6176414000000001,1.0,0.03579712,0.1512146,0.9878386999999998,37.25258,-2.741852,-31.14168,5.034744,0.3298696,0.6792,-0.404142,1.041636,-0.1512822,0.008723971,0.7491372,-0.01086254,0.0009833233680065182,-30.2832,29.71
3,0.02624512,0.1245117,0.9918671,1.0,0.02624512,0.1245117,0.9918671,-31.45605,-1.281342,-29.73863,4.967285,0.4825279,0.6176414000000001,1.0,0.03579712,0.1512146,0.9878386999999998,37.25258,-2.741852,-31.14168,5.034744,0.3298696,0.6792,-0.404142,1.041636,-0.1512822,0.008723971,0.7491372,-0.01086254,0.0009833233680065182,-30.2832,29.71
3,0.02693176,0.1508484,0.9881744,1.0,0.02693176,0.1508484,0.9881744,-31.4884,-1.643341,-28.90193,4.987305,0.4834227,0.6170760000000001,1.0,0.04133606,0.1490631,0.9879608,37.25693,-2.767471,-31.10106,5.052917,0.3287443,0.6800778000000001,-0.4040707,1.041618,-0.1512987999999999,0.00849727,0.7493793000000001,-0.01082131,0.0009833233680065182,-30.2832,29.71
3,0.02693176,0.1508484,0.9881744,1.0,0.02693176,0.1508484,0.9881744,-31.4884,-1.643341,-28.90193,4.987305,0.4834227,0.6170760000000001,1.0,0.04133606,0.1490631,0.9879608,37.25693,-2.767471,-31.10106,5.052917,0.3287443,0.6800778000000001,-0.4040707,1.041618,-0.1512987999999999,0.00849727,0.7493793000000001,-0.01082131,0.0009833233680065182,-30.2832,29.71
3,0.02693176,0.1508484,0.9881744,1.0,0.02693176,0.1508484,0.9881744,-31.4884,-1.643341,-28.90193,4.987305,0.4834227,0.6170760000000001,1.0,0.04133606,0.1490631,0.9879608,37.25693,-2.767471,-31.10106,5.052917,0.3287443,0.6800778000000001,-0.4040707,1.041618,-0.1512987999999999,0.00849727,0.7493793000000001,-0.01082131,0.0009833233680065182,-30.2832,29.71
3,0.03196716,0.1490631,0.9882965,1.0,0.02902222,0.1460266,0.9888458,-31.50589,-1.6611479999999998,-28.85083,5.027008,0.4836612,0.6180336,1.0,0.03196716,0.1490631,0.9882965,37.29749,-2.823593,-31.06908,4.976685,0.3290126,0.6815858,-0.4040061,1.041588,-0.1512781,0.008525718,0.7492788,-0.01077266,0.0009833233680065182,-30.2832,29.71
3,0.03196716,0.1490631,0.9882965,1.0,0.02902222,0.1460266,0.9888458,-31.50589,-1.6611479999999998,-28.85083,5.027008,0.4836612,0.6180336,1.0,0.03196716,0.1490631,0.9882965,37.29749,-2.823593,-31.06908,4.976685,0.3290126,0.6815858,-0.4040061,1.041588,-0.1512781,0.008525718,0.7492788,-0.01077266,0.0009833233680065182,-30.2832,29.71
3,0.03196716,0.1490631,0.9882965,1.0,0.02902222,0.1460266,0.9888458,-31.50589,-1.6611479999999998,-28.85083,5.027008,0.4836612,0.6180336,1.0,0.03196716,0.1490631,0.9882965,37.29749,-2.823593,-31.06908,4.976685,0.3290126,0.6815858,-0.4040061,1.041588,-0.1512781,0.008525718,0.7492788,-0.01077266,0.0009833233680065182,-30.2832,29.71
3,0.03163147,0.1420135,0.9893494,1.0,0.02944946,0.1469727,0.9886932,-31.51337,-1.6790009999999995,-28.80672,5.027496,0.4838362,0.6180336,1.0,0.03163147,0.1419983,0.9893494,37.3051,-2.872437,-30.9637,5.019684,0.3288513,0.6834746,-0.4038962,1.041526,-0.1513578,0.008902768,0.7491074000000001,-0.01084779,0.0009833233680065182,-30.2832,29.71
3,0.03163147,0.1420135,0.9893494,1.0,0.02944946,0.1469727,0.9886932,-31.51337,-1.6790009999999995,-28.80672,5.027496,0.4838362,0.6180336,1.0,0.03163147,0.1419983,0.9893494,37.3051,-2.872437,-30.9637,5.019684,0.3288513,0.6834746,-0.4038962,1.041526,-0.1513578,0.008902768,0.7491074000000001,-0.01084779,0.0009833233680065182,-30.2832,29.71
4,0.03163147,0.1420135,0.9893494,1.0,0.02944946,0.1469727,0.9886932,-31.51337,-1.6790009999999995,-28.80672,5.027496,0.4838362,0.6180336,1.0,0.03163147,0.1419983,0.9893494,37.3051,-2.872437,-30.9637,5.019684,0.3288513,0.6834746,-0.4038962,1.041526,-0.1513578,0.008902768,0.7491074000000001,-0.01084779,0.0009833233680065182,-30.2832,29.71
4,0.02275085,0.1419525,0.9896088,1.0,0.01152039,0.1318359,0.9911957,-31.5414,-1.316162,-29.96733,4.918961,0.4879594,0.6198825,1.0,0.02275085,0.1419525,0.9896088,37.25734,-2.842896,-31.13527,5.054199,0.3319312,0.6843935999999999,-0.4038855,1.041587,-0.1514096,0.008885176,0.7491283000000001,-0.01108355,0.0009833233680065182,-90.71481,29.71
4,0.02275085,0.1419525,0.9896088,1.0,0.01152039,0.1318359,0.9911957,-31.5414,-1.316162,-29.96733,4.918961,0.4879594,0.6198825,1.0,0.02275085,0.1419525,0.9896088,37.25734,-2.842896,-31.13527,5.054199,0.3319312,0.6843935999999999,-0.4038855,1.041587,-0.1514096,0.008885176,0.7491283000000001,-0.01108355,0.0009833233680065182,-90.71481,29.71
4,0.02275085,0.1419525,0.9896088,1.0,0.01152039,0.1318359,0.9911957,-31.5414,-1.316162,-29.96733,4.918961,0.4879594,0.6198825,1.0,0.02275085,0.1419525,0.9896088,37.25734,-2.842896,-31.13527,5.054199,0.3319312,0.6843935999999999,-0.4038855,1.041587,-0.1514096,0.008885176,0.7491283000000001,-0.01108355,0.0009833233680065182,-90.71481,29.71
4,0.02198792,0.1404418999999999,0.9898376,1.0,0.01077271,0.1330109,0.9910431,-31.556,-1.309097,-30.01141,4.96434,0.4885942,0.6199646,1.0,0.02198792,0.1404418999999999,0.9898376,37.24539,-2.836014,-31.15826,5.065292,0.3324549,0.6846974,-0.4037697,1.041474,-0.1513436,0.008823328,0.7492085,-0.01109128,0.0009833233680065182,-90.71481,29.71
4,0.02198792,0.1404418999999999,0.9898376,1.0,0.01077271,0.1330109,0.9910431,-31.556,-1.309097,-30.01141,4.96434,0.4885942,0.6199646,1.0,0.02198792,0.1404418999999999,0.9898376,37.24539,-2.836014,-31.15826,5.065292,0.3324549,0.6846974,-0.4037697,1.041474,-0.1513436,0.008823328,0.7492085,-0.01109128,0.0009833233680065182,-90.71481,29.71
4,0.02198792,0.1404418999999999,0.9898376,1.0,0.01077271,0.1330109,0.9910431,-31.556,-1.309097,-30.01141,4.96434,0.4885942,0.6199646,1.0,0.02198792,0.1404418999999999,0.9898376,37.24539,-2.836014,-31.15826,5.065292,0.3324549,0.6846974,-0.4037697,1.041474,-0.1513436,0.008823328,0.7492085,-0.01109128,0.0009833233680065182,-90.71481,29.71
4,0.01695251,0.136795,0.990448,1.0,0.008590698,0.1318665,0.9912261999999998,-31.5697,-1.288589,-30.09918,4.985626,0.4894479999999999,0.6203827,1.0,0.02217102,0.1398772999999999,0.9899139,37.23032,-2.827209,-31.211270000000003,5.073929,0.3328853,0.6850934000000001,-0.4038752,1.04149,-0.1513464,0.008993939,0.7492988,-0.01094114,0.0009833233680065182,-90.71481,29.71
4,0.01695251,0.136795,0.990448,1.0,0.008590698,0.1318665,0.9912261999999998,-31.5697,-1.288589,-30.09918,4.985626,0.4894479999999999,0.6203827,1.0,0.02217102,0.1398772999999999,0.9899139,37.23032,-2.827209,-31.211270000000003,5.073929,0.3328853,0.6850934000000001,-0.4038752,1.04149,-0.1513464,0.008993939,0.7492988,-0.01094114,0.0009833233680065182,-90.71481,29.71
4,0.01695251,0.136795,0.990448,1.0,0.008590698,0.1318665,0.9912261999999998,-31.5697,-1.288589,-30.09918,4.985626,0.4894479999999999,0.6203827,1.0,0.02217102,0.1398772999999999,0.9899139,37.23032,-2.827209,-31.211270000000003,5.073929,0.3328853,0.6850934000000001,-0.4038752,1.04149,-0.1513464,0.008993939,0.7492988,-0.01094114,0.0009833233680065182,-90.71481,29.71
4,0.01452637,0.1356964,0.9906311,1.0,0.008041382,0.1304932,0.9914093,-31.57375,-1.291779,-30.09258,4.992432,0.489678,0.620658,1.0,0.01922607,0.1394653,0.990036,37.22813,-2.827209,-31.211270000000003,5.09726,0.3334782,0.6852111999999999,-0.4040347,1.041565,-0.1513659,0.008880563,0.7494183000000001,-0.01089063,0.0009833233680065182,-90.71481,29.71
4,0.01452637,0.1356964,0.9906311,1.0,0.008041382,0.1304932,0.9914093,-31.57375,-1.291779,-30.09258,4.992432,0.489678,0.620658,1.0,0.01922607,0.1394653,0.990036,37.22813,-2.827209,-31.211270000000003,5.09726,0.3334782,0.6852111999999999,-0.4040347,1.041565,-0.1513659,0.008880563,0.7494183000000001,-0.01089063,0.0009833233680065182,-90.71481,29.71
4,0.01452637,0.1356964,0.9906311,1.0,0.008041382,0.1304932,0.9914093,-31.57375,-1.291779,-30.09258,4.992432,0.489678,0.620658,1.0,0.01922607,0.1394653,0.990036,37.22813,-2.827209,-31.211270000000003,5.09726,0.3334782,0.6852111999999999,-0.4040347,1.041565,-0.1513659,0.008880563,0.7494183000000001,-0.01089063,0.0009833233680065182,-90.71481,29.71
4,0.01135254,0.1293945,0.9915161,1.0,0.02308655,0.1312256,0.9910736,-31.6795,-1.801468,-28.58673,5.088318,0.490508,0.6227384,1.0,0.01133728,0.1293945,0.9915161,37.22195,-2.829712,-31.19516,5.125092,0.3350875,0.6869373000000001,-0.4041295,1.041628,-0.1515028,0.008736772,0.7494206999999999,-0.01083851,0.0009833233680065182,-90.71481,29.71
4,0.01135254,0.1293945,0.9915161,1.0,0.02308655,0.1312256,0.9910736,-31.6795,-1.801468,-28.58673,5.088318,0.490508,0.6227384,1.0,0.01133728,0.1293945,0.9915161,37.22195,-2.829712,-31.19516,5.125092,0.3350875,0.6869373000000001,-0.4041295,1.041628,-0.1515028,0.008736772,0.7494206999999999,-0.01083851,0.0009833233680065182,-90.71481,29.71
4,0.01135254,0.1293945,0.9915161,1.0,0.02308655,0.1312256,0.9910736,-31.6795,-1.801468,-28.58673,5.088318,0.490508,0.6227384,1.0,0.01133728,0.1293945,0.9915161,37.22195,-2.829712,-31.19516,5.125092,0.3350875,0.6869373000000001,-0.4041295,1.041628,-0.1515028,0.008736772,0.7494206999999999,-0.01083851,0.0009833233680065182,-90.71481,29.71
4,0.008529663,0.1280059999999999,0.9917296999999998,1.0,0.01847839,0.1251831,0.9919586,-31.69681,-1.848068,-28.47701,5.113785,0.4918462999999999,0.6242119,1.0,0.008529663,0.1280059999999999,0.9917296999999998,37.21199,-2.860382,-31.15555,5.162383999999999,0.3359551,0.6879025,-0.404267,1.041701,-0.1517287999999999,0.008500776,0.7494090999999999,-0.01085431,0.0009833233680065182,-135.6652,29.71
4,0.008529663,0.1280059999999999,0.9917296999999998,1.0,0.01847839,0.1251831,0.9919586,-31.69681,-1.848068,-28.47701,5.113785,0.4918462999999999,0.6242119,1.0,0.008529663,0.1280059999999999,0.9917296999999998,37.21199,-2.860382,-31.15555,5.162383999999999,0.3359551,0.6879025,-0.404267,1.041701,-0.1517287999999999,0.008500776,0.7494090999999999,-0.01085431,0.0009833233680065182,-135.6652,29.71
4,0.008529663,0.1280059999999999,0.9917296999999998,1.0,0.01847839,0.1251831,0.9919586,-31.69681,-1.848068,-28.47701,5.113785,0.4918462999999999,0.6242119,1.0,0.008529663,0.1280059999999999,0.9917296999999998,37.21199,-2.860382,-31.15555,5.162383999999999,0.3359551,0.6879025,-0.404267,1.041701,-0.1517287999999999,0.008500776,0.7494090999999999,-0.01085431,0.0009833233680065182,-135.6652,29.71
4,0.00843811,0.1246948,0.992157,1.0,0.0136261,0.1196442,0.9927216,-31.70953,-1.883179,-28.39398,5.167557,0.4930727,0.6255611999999999,1.0,0.00843811,0.1246948,0.992157,37.19618,-2.926468,-30.98126,5.168091,0.3367324,0.6888926,-0.4043279,1.041758,-0.151738,0.008086179,0.74957,-0.01085946,0.0009833233680065182,-135.6652,29.71
4,0.00843811,0.1246948,0.992157,1.0,0.0136261,0.1196442,0.9927216,-31.70953,-1.883179,-28.39398,5.167557,0.4930727,0.6255611999999999,1.0,0.00843811,0.1246948,0.992157,37.19618,-2.926468,-30.98126,5.168091,0.3367324,0.6888926,-0.4043279,1.041758,-0.151738,0.008086179,0.74957,-0.01085946,0.0009833233680065182,-135.6652,29.71
4,0.00843811,0.1246948,0.992157,1.0,0.0136261,0.1196442,0.9927216,-31.70953,-1.883179,-28.39398,5.167557,0.4930727,0.6255611999999999,1.0,0.00843811,0.1246948,0.992157,37.19618,-2.926468,-30.98126,5.168091,0.3367324,0.6888926,-0.4043279,1.041758,-0.151738,0.008086179,0.74957,-0.01085946,0.0009833233680065182,-135.6652,29.71
4,0.007003784,0.1122436999999999,0.9936523000000002,1.0,0.0071105959999999,0.1110535,0.9937744,-31.72617,-1.884888,-28.38936,5.175629,0.4947190999999999,0.6270133000000001,1.0,0.006027222,0.1224365,0.9924469,37.16167,-2.982422,-30.80971,5.200577,0.3386007,0.6894013000000001,-0.4043723,1.041749,-0.1516828,0.008174155,0.7495863,-0.01071302,0.0009833233680065182,-135.6652,29.71
4,0.007003784,0.1122436999999999,0.9936523000000002,1.0,0.0071105959999999,0.1110535,0.9937744,-31.72617,-1.884888,-28.38936,5.175629,0.4947190999999999,0.6270133000000001,1.0,0.006027222,0.1224365,0.9924469,37.16167,-2.982422,-30.80971,5.200577,0.3386007,0.6894013000000001,-0.4043723,1.041749,-0.1516828,0.008174155,0.7495863,-0.01071302,0.0009833233680065182,-135.6652,29.71
4,0.007003784,0.1122436999999999,0.9936523000000002,1.0,0.0071105959999999,0.1110535,0.9937744,-31.72617,-1.884888,-28.38936,5.175629,0.4947190999999999,0.6270133000000001,1.0,0.006027222,0.1224365,0.9924469,37.16167,-2.982422,-30.80971,5.200577,0.3386007,0.6894013000000001,-0.4043723,1.041749,-0.1516828,0.008174155,0.7495863,-0.01071302,0.0009833233680065182,-135.6652,29.71
4,0.004928589,0.10849,0.9940796,1.0,0.00428772,0.1062317,0.9943237,-31.74326,-1.883179,-28.39398,5.182358,0.4957689,0.6278238,1.0,0.008392334,0.1207428,0.9926453000000002,37.12766,-2.98613,-30.792790000000004,5.205353,0.3394237,0.6896526,-0.4043396999999999,1.0416530000000002,-0.1516958,0.00835357,0.7496708000000001,-0.01096936,0.0009833233680065182,-135.6652,29.71
4,0.004928589,0.10849,0.9940796,1.0,0.00428772,0.1062317,0.9943237,-31.74326,-1.883179,-28.39398,5.182358,0.4957689,0.6278238,1.0,0.008392334,0.1207428,0.9926453000000002,37.12766,-2.98613,-30.792790000000004,5.205353,0.3394237,0.6896526,-0.4043396999999999,1.0416530000000002,-0.1516958,0.00835357,0.7496708000000001,-0.01096936,0.0009833233680065182,-135.6652,29.71
4,0.004928589,0.10849,0.9940796,1.0,0.00428772,0.1062317,0.9943237,-31.74326,-1.883179,-28.39398,5.182358,0.4957689,0.6278238,1.0,0.008392334,0.1207428,0.9926453000000002,37.12766,-2.98613,-30.792790000000004,5.205353,0.3394237,0.6896526,-0.4043396999999999,1.0416530000000002,-0.1516958,0.00835357,0.7496708000000001,-0.01096936,0.0009833233680065182,-135.6652,29.71
4,0.001953125,0.1125793,0.9936371,1.0,0.00239563,0.09976196,0.9949951,-31.75974,-1.834366,-28.56851,5.1758120000000005,0.4966747,0.629025,1.0,0.001678467,0.1204071,0.9927063,37.09779,-3.013306,-30.73701,5.252579,0.3417294,0.6901281,-0.404303,1.04156,-0.1517134,0.008651504,0.7496430000000001,-0.01096664,0.0009833233680065182,-135.6652,29.71
4,0.001953125,0.1125793,0.9936371,1.0,0.00239563,0.09976196,0.9949951,-31.75974,-1.834366,-28.56851,5.1758120000000005,0.4966747,0.629025,1.0,0.001678467,0.1204071,0.9927063,37.09779,-3.013306,-30.73701,5.252579,0.3417294,0.6901281,-0.404303,1.04156,-0.1517134,0.008651504,0.7496430000000001,-0.01096664,0.0009833233680065182,-135.6652,29.71
4,0.001953125,0.1125793,0.9936371,1.0,0.00239563,0.09976196,0.9949951,-31.75974,-1.834366,-28.56851,5.1758120000000005,0.4966747,0.629025,1.0,0.001678467,0.1204071,0.9927063,37.09779,-3.013306,-30.73701,5.252579,0.3417294,0.6901281,-0.404303,1.04156,-0.1517134,0.008651504,0.7496430000000001,-0.01096664,0.0009833233680065182,-135.6652,29.71
4,-0.0032348629999999,0.09359741,0.9955902,1.0,-0.0032348629999999,0.09359741,0.9955902,-31.80472,-1.829834,-28.60745,5.193924,0.4991497,0.6303383,1.0,-0.005844116,0.1114807,0.9937439,37.03703,-3.585449,-28.902240000000003,5.476807,0.347247,0.6917369000000001,-0.4043001,1.041493,-0.1515846,0.00883219,0.7495748000000001,-0.01082991,0.0009833233680065182,-121.6648,29.71
4,-0.0032348629999999,0.09359741,0.9955902,1.0,-0.0032348629999999,0.09359741,0.9955902,-31.80472,-1.829834,-28.60745,5.193924,0.4991497,0.6303383,1.0,-0.005844116,0.1114807,0.9937439,37.03703,-3.585449,-28.902240000000003,5.476807,0.347247,0.6917369000000001,-0.4043001,1.041493,-0.1515846,0.00883219,0.7495748000000001,-0.01082991,0.0009833233680065182,-121.6648,29.71
4,-0.0032348629999999,0.09359741,0.9955902,1.0,-0.0032348629999999,0.09359741,0.9955902,-31.80472,-1.829834,-28.60745,5.193924,0.4991497,0.6303383,1.0,-0.005844116,0.1114807,0.9937439,37.03703,-3.585449,-28.902240000000003,5.476807,0.347247,0.6917369000000001,-0.4043001,1.041493,-0.1515846,0.00883219,0.7495748000000001,-0.01082991,0.0009833233680065182,-121.6648,29.71
4,-0.0047760009999999,0.09289551,0.9956511999999998,1.0,-0.0047760009999999,0.09289551,0.9956511999999998,-31.83168,-1.830215,-28.6033,5.2025760000000005,0.5003207000000001,0.6304460999999999,1.0,-0.0005950928,0.1096801999999999,0.9939575,37.01688,-3.573471,-28.92943,5.386871,0.3470517,0.6917906999999999,-0.404343,1.041497,-0.1514703,0.009143466,0.7493148000000001,-0.01065968,0.0009833233680065182,-121.6648,29.71
4,-0.0047760009999999,0.09289551,0.9956511999999998,1.0,-0.0047760009999999,0.09289551,0.9956511999999998,-31.83168,-1.830215,-28.6033,5.2025760000000005,0.5003207000000001,0.6304460999999999,1.0,-0.0005950928,0.1096801999999999,0.9939575,37.01688,-3.573471,-28.92943,5.386871,0.3470517,0.6917906999999999,-0.404343,1.041497,-0.1514703,0.009143466,0.7493148000000001,-0.01065968,0.0009833233680065182,-121.6648,29.71
4,-0.0047760009999999,0.09289551,0.9956511999999998,1.0,-0.0047760009999999,0.09289551,0.9956511999999998,-31.83168,-1.830215,-28.6033,5.2025760000000005,0.5003207000000001,0.6304460999999999,1.0,-0.0005950928,0.1096801999999999,0.9939575,37.01688,-3.573471,-28.92943,5.386871,0.3470517,0.6917906999999999,-0.404343,1.041497,-0.1514703,0.009143466,0.7493148000000001,-0.01065968,0.0009833233680065182,-121.6648,29.71
4,0.0003051758,0.09939575,0.9950409,1.0,-0.001800537,0.08831787,0.9960785,-31.86766,-1.856018,-28.54376,5.218399,0.5010282,0.6315066999999999,1.0,0.00239563,0.1102295,0.9938965,36.99832,-3.583328,-28.91318,5.427658,0.3471874,0.6919233,-0.4042217999999999,1.041512,-0.1514158,0.0090233,0.7492878000000001,-0.01107414,0.0009833233680065182,-121.6648,29.71
4,0.0003051758,0.09939575,0.9950409,1.0,-0.001800537,0.08831787,0.9960785,-31.86766,-1.856018,-28.54376,5.218399,0.5010282,0.6315066999999999,1.0,0.00239563,0.1102295,0.9938965,36.99832,-3.583328,-28.91318,5.427658,0.3471874,0.6919233,-0.4042217999999999,1.041512,-0.1514158,0.0090233,0.7492878000000001,-0.01107414,0.0009833233680065182,-121.6648,29.71
4,0.0003051758,0.09939575,0.9950409,1.0,-0.001800537,0.08831787,0.9960785,-31.86766,-1.856018,-28.54376,5.218399,0.5010282,0.6315066999999999,1.0,0.00239563,0.1102295,0.9938965,36.99832,-3.583328,-28.91318,5.427658,0.3471874,0.6919233,-0.4042217999999999,1.041512,-0.1514158,0.0090233,0.7492878000000001,-0.01107414,0.0009833233680065182,-121.6648,29.71
4,-0.006454468,0.09811401,0.9951477,1.0,-0.0068511959999999,0.08422852,0.9964142,-31.8847,-1.856018,-28.54376,5.218597,0.5024436,0.6321979999999999,1.0,-0.006149292,0.1086731,0.9940491,36.98532,-3.5784,-28.92131,5.429077,0.3491232,0.6921106,-0.4041256,1.041529,-0.1514348,0.00876487,0.7494055000000001,-0.01162844,0.0009833233680065182,-121.6648,29.71
4,-0.006454468,0.09811401,0.9951477,1.0,-0.0068511959999999,0.08422852,0.9964142,-31.8847,-1.856018,-28.54376,5.218597,0.5024436,0.6321979999999999,1.0,-0.006149292,0.1086731,0.9940491,36.98532,-3.5784,-28.92131,5.429077,0.3491232,0.6921106,-0.4041256,1.041529,-0.1514348,0.00876487,0.7494055000000001,-0.01162844,0.0009833233680065182,-121.6648,29.71
4,-0.006454468,0.09811401,0.9951477,1.0,-0.0068511959999999,0.08422852,0.9964142,-31.8847,-1.856018,-28.54376,5.218597,0.5024436,0.6321979999999999,1.0,-0.006149292,0.1086731,0.9940491,36.98532,-3.5784,-28.92131,5.429077,0.3491232,0.6921106,-0.4041256,1.041529,-0.1514348,0.00876487,0.7494055000000001,-0.01162844,0.0009833233680065182,-121.6648,29.71
4,-0.008071899,0.09161377,0.9957581,1.0,-0.00819397,0.08270264,0.9965363000000002,-31.90643,-1.870468,-28.49396,5.216568,0.5033923,0.6324352,1.0,-0.007904053,0.1026458999999999,0.9946747,36.89015,-3.623352,-28.81435,5.396851,0.3529042999999999,0.6934871,-0.4040177,1.041488,-0.1514478,0.009498373,0.7497038,-0.01138825,0.0009833233680065182,-121.6648,29.71
4,-0.008071899,0.09161377,0.9957581,1.0,-0.00819397,0.08270264,0.9965363000000002,-31.90643,-1.870468,-28.49396,5.216568,0.5033923,0.6324352,1.0,-0.007904053,0.1026458999999999,0.9946747,36.89015,-3.623352,-28.81435,5.396851,0.3529042999999999,0.6934871,-0.4040177,1.041488,-0.1514478,0.009498373,0.7497038,-0.01138825,0.0009833233680065182,-121.6648,29.71
4,-0.008071899,0.09161377,0.9957581,1.0,-0.00819397,0.08270264,0.9965363000000002,-31.90643,-1.870468,-28.49396,5.216568,0.5033923,0.6324352,1.0,-0.007904053,0.1026458999999999,0.9946747,36.89015,-3.623352,-28.81435,5.396851,0.3529042999999999,0.6934871,-0.4040177,1.041488,-0.1514478,0.009498373,0.7497038,-0.01138825,0.0009833233680065182,-121.6648,29.71
4,-0.01153564,0.08918762,0.9959412,1.0,-0.008529663,0.08222961,0.9965668,-31.95598,-1.870834,-28.49396,5.20015,0.5051283,0.6325187,1.0,-0.01681519,0.1014557,0.9946899,36.88171,-3.623352,-28.81435,5.404266000000001,0.3547427999999999,0.6937118,-0.4040071,1.041405,-0.1513464,0.009669787,0.7499070999999999,-0.01138923,0.0009833233680065182,-105.8843,29.71
4,-0.01153564,0.08918762,0.9959412,1.0,-0.008529663,0.08222961,0.9965668,-31.95598,-1.870834,-28.49396,5.20015,0.5051283,0.6325187,1.0,-0.01681519,0.1014557,0.9946899,36.88171,-3.623352,-28.81435,5.404266000000001,0.3547427999999999,0.6937118,-0.4040071,1.041405,-0.1513464,0.009669787,0.7499070999999999,-0.01138923,0.0009833233680065182,-105.8843,29.71
4,-0.01153564,0.08918762,0.9959412,1.0,-0.008529663,0.08222961,0.9965668,-31.95598,-1.870834,-28.49396,5.20015,0.5051283,0.6325187,1.0,-0.01681519,0.1014557,0.9946899,36.88171,-3.623352,-28.81435,5.404266000000001,0.3547427999999999,0.6937118,-0.4040071,1.041405,-0.1513464,0.009669787,0.7499070999999999,-0.01138923,0.0009833233680065182,-105.8843,29.71
4,-0.008575439,0.08583069,0.9962616,1.0,-0.008575439,0.08583069,0.9962616,-31.992390000000004,-1.895584,-28.47212,5.220062,0.506362,0.6325611999999999,1.0,-0.02198792,0.09788513,0.9949493,36.87239,-3.375824,-29.59171,5.3753660000000005,0.3551828,0.6942404000000001,-0.4039664,1.041343,-0.1512617,0.009772872,0.7497326999999999,-0.01129827,0.0009833233680065182,-105.8843,29.71
4,-0.008575439,0.08583069,0.9962616,1.0,-0.008575439,0.08583069,0.9962616,-31.992390000000004,-1.895584,-28.47212,5.220062,0.506362,0.6325611999999999,1.0,-0.02198792,0.09788513,0.9949493,36.87239,-3.375824,-29.59171,5.3753660000000005,0.3551828,0.6942404000000001,-0.4039664,1.041343,-0.1512617,0.009772872,0.7497326999999999,-0.01129827,0.0009833233680065182,-105.8843,29.71
4,-0.008575439,0.08583069,0.9962616,1.0,-0.008575439,0.08583069,0.9962616,-31.992390000000004,-1.895584,-28.47212,5.220062,0.506362,0.6325611999999999,1.0,-0.02198792,0.09788513,0.9949493,36.87239,-3.375824,-29.59171,5.3753660000000005,0.3551828,0.6942404000000001,-0.4039664,1.041343,-0.1512617,0.009772872,0.7497326999999999,-0.01129827,0.0009833233680065182,-105.8843,29.71
4,-0.008392334,0.08757019,0.996109,1.0,-0.008346558,0.08753967,0.9961243,-32.01872,-1.896851,-28.47212,5.226715,0.5072202,0.6323327,1.0,-0.02233887,0.09544373,0.9951782,36.85902,-3.343704,-29.68271,5.370163,0.355581,0.6945618,-0.4038607999999999,1.041316,-0.151044,0.009978081,0.749328,-0.01119359,0.0009833233680065182,-105.8843,29.71
4,-0.008392334,0.08757019,0.996109,1.0,-0.008346558,0.08753967,0.9961243,-32.01872,-1.896851,-28.47212,5.226715,0.5072202,0.6323327,1.0,-0.02233887,0.09544373,0.9951782,36.85902,-3.343704,-29.68271,5.370163,0.355581,0.6945618,-0.4038607999999999,1.041316,-0.151044,0.009978081,0.749328,-0.01119359,0.0009833233680065182,-105.8843,29.71
4,-0.008392334,0.08757019,0.996109,1.0,-0.008346558,0.08753967,0.9961243,-32.01872,-1.896851,-28.47212,5.226715,0.5072202,0.6323327,1.0,-0.02233887,0.09544373,0.9951782,36.85902,-3.343704,-29.68271,5.370163,0.355581,0.6945618,-0.4038607999999999,1.041316,-0.151044,0.009978081,0.749328,-0.01119359,0.0009833233680065182,-105.8843,29.71
4,-0.01269531,0.08920288,0.9959259,1.0,-0.0116272,0.08872986,0.9959717,-32.02588,-1.905807,-28.47952,5.2640080000000005,0.5080096,0.6325611999999999,1.0,-0.02453613,0.09436035,0.995224,36.80701,-3.2031560000000003,-30.246140000000004,5.428391,0.3572535,0.6961579000000001,-0.4037966,1.041349,-0.1507347,0.0105649,0.7489687,-0.01117294,0.0009833233680065182,-105.8843,29.71
4,-0.01269531,0.08920288,0.9959259,1.0,-0.0116272,0.08872986,0.9959717,-32.02588,-1.905807,-28.47952,5.2640080000000005,0.5080096,0.6325611999999999,1.0,-0.02453613,0.09436035,0.995224,36.80701,-3.2031560000000003,-30.246140000000004,5.428391,0.3572535,0.6961579000000001,-0.4037966,1.041349,-0.1507347,0.0105649,0.7489687,-0.01117294,0.0009833233680065182,-105.8843,29.71
4,-0.01269531,0.08920288,0.9959259,1.0,-0.0116272,0.08872986,0.9959717,-32.02588,-1.905807,-28.47952,5.2640080000000005,0.5080096,0.6325611999999999,1.0,-0.02453613,0.09436035,0.995224,36.80701,-3.2031560000000003,-30.246140000000004,5.428391,0.3572535,0.6961579000000001,-0.4037966,1.041349,-0.1507347,0.0105649,0.7489687,-0.01117294,0.0009833233680065182,-105.8843,29.71
4,-0.01184082,0.09080505,0.9957886,1.0,-0.01182556,0.09080505,0.9957886,-32.05565,-1.908829,-28.47798,5.280777,0.5090523,0.6323390999999999,1.0,-0.03257751,0.09085083,0.9953308,36.78801,-3.4802089999999994,-29.31137,5.461487,0.3601944,0.6961713,-0.40371,1.041358,-0.1506101,0.01047993,0.7488562,-0.01103606,0.0009833233680065182,-105.8843,29.71
4,-0.01184082,0.09080505,0.9957886,1.0,-0.01182556,0.09080505,0.9957886,-32.05565,-1.908829,-28.47798,5.280777,0.5090523,0.6323390999999999,1.0,-0.03257751,0.09085083,0.9953308,36.78801,-3.4802089999999994,-29.31137,5.461487,0.3601944,0.6961713,-0.40371,1.041358,-0.1506101,0.01047993,0.7488562,-0.01103606,0.0009833233680065182,-105.8843,29.71
4,-0.01184082,0.09080505,0.9957886,1.0,-0.01182556,0.09080505,0.9957886,-32.05565,-1.908829,-28.47798,5.280777,0.5090523,0.6323390999999999,1.0,-0.03257751,0.09085083,0.9953308,36.78801,-3.4802089999999994,-29.31137,5.461487,0.3601944,0.6961713,-0.40371,1.041358,-0.1506101,0.01047993,0.7488562,-0.01103606,0.0009833233680065182,-105.8843,29.71
4,-0.01246643,0.08662415,0.9961548,1.0,-0.01246643,0.08662415,0.9961548,-32.10289,-1.920074,-28.458040000000004,5.282318,0.5107523,0.6332255,1.0,-0.02748108,0.09594727,0.9949951,36.7562,-3.692001,-28.734440000000003,5.494019000000001,0.3610105,0.6963276999999999,-0.4037747,1.041393,-0.1505454,0.01060783,0.7487701999999999,-0.01089952,0.0009833233680065182,-28.61542,29.71
4,-0.01246643,0.08662415,0.9961548,1.0,-0.01246643,0.08662415,0.9961548,-32.10289,-1.920074,-28.458040000000004,5.282318,0.5107523,0.6332255,1.0,-0.02748108,0.09594727,0.9949951,36.7562,-3.692001,-28.734440000000003,5.494019000000001,0.3610105,0.6963276999999999,-0.4037747,1.041393,-0.1505454,0.01060783,0.7487701999999999,-0.01089952,0.0009833233680065182,-28.61542,29.71
4,-0.01246643,0.08662415,0.9961548,1.0,-0.01246643,0.08662415,0.9961548,-32.10289,-1.920074,-28.458040000000004,5.282318,0.5107523,0.6332255,1.0,-0.02748108,0.09594727,0.9949951,36.7562,-3.692001,-28.734440000000003,5.494019000000001,0.3610105,0.6963276999999999,-0.4037747,1.041393,-0.1505454,0.01060783,0.7487701999999999,-0.01089952,0.0009833233680065182,-28.61542,29.71
4,-0.01818848,0.08781433,0.9959564,1.0,-0.01817322,0.08779907,0.9959717,-32.12865,-1.925369,-28.43852,5.317566,0.5125712,0.6330751,1.0,-0.0267334,0.09657288,0.9949646,36.74918,-3.694321,-28.73605,5.501983999999999,0.3611223,0.6963285,-0.4038218,1.0414,-0.1505174,0.01085431,0.7487010999999999,-0.01069597,0.0009833233680065182,-28.61542,29.71
4,-0.01818848,0.08781433,0.9959564,1.0,-0.01817322,0.08779907,0.9959717,-32.12865,-1.925369,-28.43852,5.317566,0.5125712,0.6330751,1.0,-0.0267334,0.09657288,0.9949646,36.74918,-3.694321,-28.73605,5.501983999999999,0.3611223,0.6963285,-0.4038218,1.0414,-0.1505174,0.01085431,0.7487010999999999,-0.01069597,0.0009833233680065182,-28.61542,29.71
4,-0.01818848,0.08781433,0.9959564,1.0,-0.01817322,0.08779907,0.9959717,-32.12865,-1.925369,-28.43852,5.317566,0.5125712,0.6330751,1.0,-0.0267334,0.09657288,0.9949646,36.74918,-3.694321,-28.73605,5.501983999999999,0.3611223,0.6963285,-0.4038218,1.0414,-0.1505174,0.01085431,0.7487010999999999,-0.01069597,0.0009833233680065182,-28.61542,29.71
