Second,eye_comb_direction_x,eye_comb_direction_y,eye_comb_direction_z,eye_r_openness,eye_r_direction_x,eye_r_direction_y,eye_r_direction_z,eye_r_origin_x,eye_r_origin_y,eye_r_origin_z,eye_r_pupil_diameter,eye_r_pupil_position_x,eye_r_pupil_position_y,eye_l_openness,eye_l_direction_x,eye_l_direction_y,eye_l_direction_z,eye_l_origin_x,eye_l_origin_y,eye_l_origin_z,eye_l_pupil_diameter,eye_l_pupil_position_x,eye_l_pupil_position_y,head_position_x,head_position_y,head_position_z,head_rotation_roll,head_rotation_pitch,head_rotation_yaw,EDA,BVP,TMP
0,-0.02186584,-0.0015411379999999,0.9997559,1.0,-0.03405762,0.004745483,0.9994049,-32.13544,-2.590881,-27.88896,5.140259,0.5151697000000001,0.6637443000000001,1.0,-0.01863098,-0.0032348629999999,0.9998169,36.96744,-4.5760190000000005,-27.79631,5.35231,0.3520716,0.7339685,-0.4116697,1.042338,-0.1577348,-0.01282929,0.7240919,-0.01827083,0.0,1.2317234205217857,30.465473372781066
0,-0.02186584,-0.0015411379999999,0.9997559,1.0,-0.03405762,0.004745483,0.9994049,-32.13544,-2.590881,-27.88896,5.140259,0.5151697000000001,0.6637443000000001,1.0,-0.01863098,-0.0032348629999999,0.9998169,36.96744,-4.5760190000000005,-27.79631,5.35231,0.3520716,0.7339685,-0.4116697,1.042338,-0.1577348,-0.01282929,0.7240919,-0.01827083,0.0,1.2317234205217857,30.465473372781066
0,-0.02186584,-0.0015411379999999,0.9997559,1.0,-0.03405762,0.004745483,0.9994049,-32.13544,-2.590881,-27.88896,5.140259,0.5151697000000001,0.6637443000000001,1.0,-0.01863098,-0.0032348629999999,0.9998169,36.96744,-4.5760190000000005,-27.79631,5.35231,0.3520716,0.7339685,-0.4116697,1.042338,-0.1577348,-0.01282929,0.7240919,-0.01827083,0.0,1.2317234205217857,30.465473372781066
0,-0.02186584,-0.0015411379999999,0.9997559,1.0,-0.03405762,0.004745483,0.9994049,-32.13544,-2.590881,-27.88896,5.140259,0.5151697000000001,0.6637443000000001,1.0,-0.01863098,-0.0032348629999999,0.9998169,36.96744,-4.5760190000000005,-27.79631,5.35231,0.3520716,0.7339685,-0.4116697,1.042338,-0.1577348,-0.01282929,0.7240919,-0.01827083,0.0,1.2317234205217857,30.465473372781066
0,-0.02432251,0.004211426,0.9996948,1.0,-0.03390503,0.008895874,0.9993744,-32.13535,-2.590881,-27.88896,5.074294999999999,0.5151463,0.6629710999999999,1.0,-0.01930237,0.001739502,0.9998016,36.9726,-4.555161,-27.919690000000003,5.340881,0.351884,0.7337633000000001,-0.4116527,1.042255,-0.1575526,-0.01247986,0.7239075,-0.01823225,0.0,1.2317234205217857,30.465473372781066
0,-0.02432251,0.004211426,0.9996948,1.0,-0.03390503,0.008895874,0.9993744,-32.13535,-2.590881,-27.88896,5.074294999999999,0.5151463,0.6629710999999999,1.0,-0.01930237,0.001739502,0.9998016,36.9726,-4.555161,-27.919690000000003,5.340881,0.351884,0.7337633000000001,-0.4116527,1.042255,-0.1575526,-0.01247986,0.7239075,-0.01823225,0.0,1.2317234205217857,30.465473372781066
0,-0.02432251,0.004211426,0.9996948,1.0,-0.03390503,0.008895874,0.9993744,-32.13535,-2.590881,-27.88896,5.074294999999999,0.5151463,0.6629710999999999,1.0,-0.01930237,0.001739502,0.9998016,36.9726,-4.555161,-27.919690000000003,5.340881,0.351884,0.7337633000000001,-0.4116527,1.042255,-0.1575526,-0.01247986,0.7239075,-0.01823225,0.0,1.2317234205217857,30.465473372781066
0,-0.02882385,0.005950928,0.9995575,1.0,-0.03482056,0.0096740719999999,0.9993439,-32.13087,-2.590881,-27.88896,5.0606230000000005,0.5151463,0.6628253000000001,1.0,-0.0193634,7.629395000000001e-05,0.9998016,36.9726,-4.548798000000001,-27.93488,5.311858999999999,0.351884,0.7339685,-0.4116275,1.042234,-0.1574777,-0.01234058,0.7237856,-0.01811665,0.0,1.2317234205217857,30.465473372781066
0,-0.02882385,0.005950928,0.9995575,1.0,-0.03482056,0.0096740719999999,0.9993439,-32.13087,-2.590881,-27.88896,5.0606230000000005,0.5151463,0.6628253000000001,1.0,-0.0193634,7.629395000000001e-05,0.9998016,36.9726,-4.548798000000001,-27.93488,5.311858999999999,0.351884,0.7339685,-0.4116275,1.042234,-0.1574777,-0.01234058,0.7237856,-0.01811665,0.0,1.2317234205217857,30.465473372781066
0,-0.02882385,0.005950928,0.9995575,1.0,-0.03482056,0.0096740719999999,0.9993439,-32.13087,-2.590881,-27.88896,5.0606230000000005,0.5151463,0.6628253000000001,1.0,-0.0193634,7.629395000000001e-05,0.9998016,36.9726,-4.548798000000001,-27.93488,5.311858999999999,0.351884,0.7339685,-0.4116275,1.042234,-0.1574777,-0.01234058,0.7237856,-0.01811665,0.0,1.2317234205217857,30.465473372781066
0,-0.02720642,0.004547119,0.9996185,1.0,-0.03384399,0.009109497,0.9993744,-32.13087,-2.567215,-27.95563,5.012862999999999,0.5150117999999999,0.6627598000000001,1.0,-0.02110291,0.0003662109,0.9997711,36.97064,-4.543869,-27.938540000000003,5.269241,0.3522784,0.7337249,-0.4115566,1.042188,-0.1573504,-0.01221222,0.7234235999999999,-0.01794787,0.0,1.2317234205217857,30.465473372781066
0,-0.02720642,0.004547119,0.9996185,1.0,-0.03384399,0.009109497,0.9993744,-32.13087,-2.567215,-27.95563,5.012862999999999,0.5150117999999999,0.6627598000000001,1.0,-0.02110291,0.0003662109,0.9997711,36.97064,-4.543869,-27.938540000000003,5.269241,0.3522784,0.7337249,-0.4115566,1.042188,-0.1573504,-0.01221222,0.7234235999999999,-0.01794787,0.0,1.2317234205217857,30.465473372781066
0,-0.02720642,0.004547119,0.9996185,1.0,-0.03384399,0.009109497,0.9993744,-32.13087,-2.567215,-27.95563,5.012862999999999,0.5150117999999999,0.6627598000000001,1.0,-0.02110291,0.0003662109,0.9997711,36.97064,-4.543869,-27.938540000000003,5.269241,0.3522784,0.7337249,-0.4115566,1.042188,-0.1573504,-0.01221222,0.7234235999999999,-0.01794787,0.0,1.2317234205217857,30.465473372781066
0,-0.02540588,0.003829956,0.9996643,1.0,-0.03379822,0.009872437,0.9993744,-32.134640000000005,-2.557114,-27.98419,4.934235,0.5151463,0.6625023,1.0,-0.01913452,-0.0006713867,0.9998016,36.961940000000006,-4.544052,-27.93115,5.205811,0.3522865,0.7337249,-0.4115015999999999,1.042208,-0.1572689,-0.01204575,0.7232403000000001,-0.01788924,0.0,1.2317234205217857,30.465473372781066
0,-0.02540588,0.003829956,0.9996643,1.0,-0.03379822,0.009872437,0.9993744,-32.134640000000005,-2.557114,-27.98419,4.934235,0.5151463,0.6625023,1.0,-0.01913452,-0.0006713867,0.9998016,36.961940000000006,-4.544052,-27.93115,5.205811,0.3522865,0.7337249,-0.4115015999999999,1.042208,-0.1572689,-0.01204575,0.7232403000000001,-0.01788924,0.0,1.2317234205217857,30.465473372781066
0,-0.02540588,0.003829956,0.9996643,1.0,-0.03379822,0.009872437,0.9993744,-32.134640000000005,-2.557114,-27.98419,4.934235,0.5151463,0.6625023,1.0,-0.01913452,-0.0006713867,0.9998016,36.961940000000006,-4.544052,-27.93115,5.205811,0.3522865,0.7337249,-0.4115015999999999,1.042208,-0.1572689,-0.01204575,0.7232403000000001,-0.01788924,0.0,1.2317234205217857,30.465473372781066
0,-0.02540588,0.003829956,0.9996643,1.0,-0.03379822,0.009872437,0.9993744,-32.134640000000005,-2.557114,-27.98419,4.934235,0.5151463,0.6625023,1.0,-0.01913452,-0.0006713867,0.9998016,36.961940000000006,-4.544052,-27.93115,5.205811,0.3522865,0.7337249,-0.4113720999999999,1.042268,-0.1571669,-0.01215964,0.7232076,-0.01832499,0.0,1.2317234205217857,30.465473372781066
0,-0.02540588,0.003829956,0.9996643,1.0,-0.03379822,0.009872437,0.9993744,-32.134640000000005,-2.557114,-27.98419,4.934235,0.5151463,0.6625023,1.0,-0.01913452,-0.0006713867,0.9998016,36.961940000000006,-4.544052,-27.93115,5.205811,0.3522865,0.7337249,-0.4113720999999999,1.042268,-0.1571669,-0.01215964,0.7232076,-0.01832499,0.0,1.2317234205217857,30.465473372781066
0,-0.02540588,0.003829956,0.9996643,1.0,-0.03379822,0.009872437,0.9993744,-32.134640000000005,-2.557114,-27.98419,4.934235,0.5151463,0.6625023,1.0,-0.01913452,-0.0006713867,0.9998016,36.961940000000006,-4.544052,-27.93115,5.205811,0.3522865,0.7337249,-0.4113720999999999,1.042268,-0.1571669,-0.01215964,0.7232076,-0.01832499,0.0,1.2317234205217857,30.465473372781066
0,-0.02540588,0.003829956,0.9996643,1.0,-0.03379822,0.009872437,0.9993744,-32.134640000000005,-2.557114,-27.98419,4.934235,0.5151463,0.6625023,1.0,-0.01913452,-0.0006713867,0.9998016,36.961940000000006,-4.544052,-27.93115,5.205811,0.3522865,0.7337249,-0.4114089,1.042283,-0.1571101,-0.01184868,0.7232715000000001,-0.018239,0.0,1.2317234205217857,30.465473372781066
0,-0.02540588,0.003829956,0.9996643,1.0,-0.03379822,0.009872437,0.9993744,-32.134640000000005,-2.557114,-27.98419,4.934235,0.5151463,0.6625023,1.0,-0.01913452,-0.0006713867,0.9998016,36.961940000000006,-4.544052,-27.93115,5.205811,0.3522865,0.7337249,-0.4114089,1.042283,-0.1571101,-0.01184868,0.7232715000000001,-0.018239,0.0,1.2317234205217857,30.465473372781066
0,-0.02540588,0.003829956,0.9996643,1.0,-0.03379822,0.009872437,0.9993744,-32.134640000000005,-2.557114,-27.98419,4.934235,0.5151463,0.6625023,1.0,-0.01913452,-0.0006713867,0.9998016,36.961940000000006,-4.544052,-27.93115,5.205811,0.3522865,0.7337249,-0.4114089,1.042283,-0.1571101,-0.01184868,0.7232715000000001,-0.018239,0.0,1.2317234205217857,30.465473372781066
0,-0.02520752,0.0056457519999999,0.9996643,1.0,-0.03385925,0.01252747,0.9993439,-32.136990000000004,-2.556763,-28.00102,4.911316,0.5152448000000001,0.6621975999999999,1.0,-0.01800537,-6.103516e-05,0.9998322,36.95711,-4.547943,-27.92253,5.18544,0.3522865,0.7336366,-0.4113942,1.042266,-0.1569669,-0.01173495,0.7233453000000001,-0.01813987,0.0,35.34338,30.465473372781066
0,-0.02520752,0.0056457519999999,0.9996643,1.0,-0.03385925,0.01252747,0.9993439,-32.136990000000004,-2.556763,-28.00102,4.911316,0.5152448000000001,0.6621975999999999,1.0,-0.01800537,-6.103516e-05,0.9998322,36.95711,-4.547943,-27.92253,5.18544,0.3522865,0.7336366,-0.4113942,1.042266,-0.1569669,-0.01173495,0.7233453000000001,-0.01813987,0.0,35.34338,30.465473372781066
0,-0.02520752,0.0056457519999999,0.9996643,1.0,-0.03385925,0.01252747,0.9993439,-32.136990000000004,-2.556763,-28.00102,4.911316,0.5152448000000001,0.6621975999999999,1.0,-0.01800537,-6.103516e-05,0.9998322,36.95711,-4.547943,-27.92253,5.18544,0.3522865,0.7336366,-0.4113942,1.042266,-0.1569669,-0.01173495,0.7233453000000001,-0.01813987,0.0,35.34338,30.465473372781066
0,-0.02511597,0.005615234,0.9996643,1.0,-0.03393555,0.0125885,0.9993439,-32.13766,-2.552582,-28.006970000000003,4.905518,0.5152827999999999,0.6620951,1.0,-0.01739502,-0.0004882813,0.9998474,36.95456,-4.547943,-27.91946,5.165466,0.3522865,0.7336366,-0.4114573,1.042233,-0.1567368999999999,-0.0115148,0.7231236,-0.01805816,0.0,35.34338,30.465473372781066
0,-0.02511597,0.005615234,0.9996643,1.0,-0.03393555,0.0125885,0.9993439,-32.13766,-2.552582,-28.006970000000003,4.905518,0.5152827999999999,0.6620951,1.0,-0.01739502,-0.0004882813,0.9998474,36.95456,-4.547943,-27.91946,5.165466,0.3522865,0.7336366,-0.4114573,1.042233,-0.1567368999999999,-0.0115148,0.7231236,-0.01805816,0.0,35.34338,30.465473372781066
0,-0.02511597,0.005615234,0.9996643,1.0,-0.03393555,0.0125885,0.9993439,-32.13766,-2.552582,-28.006970000000003,4.905518,0.5152827999999999,0.6620951,1.0,-0.01739502,-0.0004882813,0.9998474,36.95456,-4.547943,-27.91946,5.165466,0.3522865,0.7336366,-0.4114573,1.042233,-0.1567368999999999,-0.0115148,0.7231236,-0.01805816,0.0,35.34338,30.465473372781066
0,-0.02993774,0.0067749019999999,0.999527,1.0,-0.0425415,0.02111816,0.9988556,-32.14781,-2.588043,-27.97858,4.825531,0.5170570999999999,0.6614905,1.0,-0.01383972,-0.01150513,0.9998322,36.89752,-4.528183,-27.8501,5.061584,0.3537982999999999,0.7339331,-0.4115367999999999,1.042255,-0.1565793999999999,-0.01158382,0.7228555,-0.01806517,0.0,35.34338,30.465473372781066
0,-0.02993774,0.0067749019999999,0.999527,1.0,-0.0425415,0.02111816,0.9988556,-32.14781,-2.588043,-27.97858,4.825531,0.5170570999999999,0.6614905,1.0,-0.01383972,-0.01150513,0.9998322,36.89752,-4.528183,-27.8501,5.061584,0.3537982999999999,0.7339331,-0.4115367999999999,1.042255,-0.1565793999999999,-0.01158382,0.7228555,-0.01806517,0.0,35.34338,30.465473372781066
0,-0.02993774,0.0067749019999999,0.999527,1.0,-0.0425415,0.02111816,0.9988556,-32.14781,-2.588043,-27.97858,4.825531,0.5170570999999999,0.6614905,1.0,-0.01383972,-0.01150513,0.9998322,36.89752,-4.528183,-27.8501,5.061584,0.3537982999999999,0.7339331,-0.4115367999999999,1.042255,-0.1565793999999999,-0.01158382,0.7228555,-0.01806517,0.0,35.34338,30.465473372781066
0,-0.02993774,0.0067749019999999,0.999527,1.0,-0.0425415,0.02111816,0.9988556,-32.14781,-2.588043,-27.97858,4.825531,0.5170570999999999,0.6614905,1.0,-0.01383972,-0.01150513,0.9998322,36.89752,-4.528183,-27.8501,5.061584,0.3537982999999999,0.7339331,-0.4115924,1.042282,-0.15646,-0.01152611,0.7225741999999999,-0.01797814,0.0,35.34338,30.465473372781066
0,-0.02993774,0.0067749019999999,0.999527,1.0,-0.0425415,0.02111816,0.9988556,-32.14781,-2.588043,-27.97858,4.825531,0.5170570999999999,0.6614905,1.0,-0.01383972,-0.01150513,0.9998322,36.89752,-4.528183,-27.8501,5.061584,0.3537982999999999,0.7339331,-0.4115924,1.042282,-0.15646,-0.01152611,0.7225741999999999,-0.01797814,0.0,35.34338,30.465473372781066
0,-0.02993774,0.0067749019999999,0.999527,1.0,-0.0425415,0.02111816,0.9988556,-32.14781,-2.588043,-27.97858,4.825531,0.5170570999999999,0.6614905,1.0,-0.01383972,-0.01150513,0.9998322,36.89752,-4.528183,-27.8501,5.061584,0.3537982999999999,0.7339331,-0.4115924,1.042282,-0.15646,-0.01152611,0.7225741999999999,-0.01797814,0.0,35.34338,30.465473372781066
0,-0.02981567,0.006439209,0.999527,1.0,-0.04103088,0.01792908,0.9989929,-32.14656,-2.588715,-27.9709,4.833588,0.5167563000000001,0.6619818000000001,1.0,-0.01338196,-0.01036072,0.9998474,36.89868,-4.527786,-27.85033,5.072876,0.3536814,0.7337296999999999,-0.4116478,1.042284,-0.1563061,-0.01107649,0.7222582,-0.01780407,0.0,35.34338,30.465473372781066
0,-0.02981567,0.006439209,0.999527,1.0,-0.04103088,0.01792908,0.9989929,-32.14656,-2.588715,-27.9709,4.833588,0.5167563000000001,0.6619818000000001,1.0,-0.01338196,-0.01036072,0.9998474,36.89868,-4.527786,-27.85033,5.072876,0.3536814,0.7337296999999999,-0.4116478,1.042284,-0.1563061,-0.01107649,0.7222582,-0.01780407,0.0,35.34338,30.465473372781066
0,-0.02981567,0.006439209,0.999527,1.0,-0.04103088,0.01792908,0.9989929,-32.14656,-2.588715,-27.9709,4.833588,0.5167563000000001,0.6619818000000001,1.0,-0.01338196,-0.01036072,0.9998474,36.89868,-4.527786,-27.85033,5.072876,0.3536814,0.7337296999999999,-0.4116478,1.042284,-0.1563061,-0.01107649,0.7222582,-0.01780407,0.0,35.34338,30.465473372781066
0,-0.02981567,0.006439209,0.999527,1.0,-0.04103088,0.01792908,0.9989929,-32.14656,-2.588715,-27.9709,4.833588,0.5167563000000001,0.6619818000000001,1.0,-0.01338196,-0.01036072,0.9998474,36.89868,-4.527786,-27.85033,5.072876,0.3536814,0.7337296999999999,-0.4116877,1.042323,-0.1563461,-0.01108187,0.7221034000000001,-0.01796239,0.0,170.0356,30.465473372781066
0,-0.02981567,0.006439209,0.999527,1.0,-0.04103088,0.01792908,0.9989929,-32.14656,-2.588715,-27.9709,4.833588,0.5167563000000001,0.6619818000000001,1.0,-0.01338196,-0.01036072,0.9998474,36.89868,-4.527786,-27.85033,5.072876,0.3536814,0.7337296999999999,-0.4116877,1.042323,-0.1563461,-0.01108187,0.7221034000000001,-0.01796239,0.0,170.0356,30.465473372781066
0,-0.02981567,0.006439209,0.999527,1.0,-0.04103088,0.01792908,0.9989929,-32.14656,-2.588715,-27.9709,4.833588,0.5167563000000001,0.6619818000000001,1.0,-0.01338196,-0.01036072,0.9998474,36.89868,-4.527786,-27.85033,5.072876,0.3536814,0.7337296999999999,-0.4116877,1.042323,-0.1563461,-0.01108187,0.7221034000000001,-0.01796239,0.0,170.0356,30.465473372781066
0,-0.02967834,0.006896973,0.999527,1.0,-0.0402832,0.01817322,0.9990082,-32.14532,-2.589386,-27.96323,4.824722,0.516588,0.6618626,1.0,-0.01298523,-0.01083374,0.9998474,36.899840000000005,-4.5273900000000005,-27.85057,5.083008,0.3535644,0.7338172,-0.411639,1.042276,-0.1562311,-0.01090157,0.7222502,-0.01767893,0.0,170.0356,30.465473372781066
0,-0.02967834,0.006896973,0.999527,1.0,-0.0402832,0.01817322,0.9990082,-32.14532,-2.589386,-27.96323,4.824722,0.516588,0.6618626,1.0,-0.01298523,-0.01083374,0.9998474,36.899840000000005,-4.5273900000000005,-27.85057,5.083008,0.3535644,0.7338172,-0.411639,1.042276,-0.1562311,-0.01090157,0.7222502,-0.01767893,0.0,170.0356,30.465473372781066
0,-0.02967834,0.006896973,0.999527,1.0,-0.0402832,0.01817322,0.9990082,-32.14532,-2.589386,-27.96323,4.824722,0.516588,0.6618626,1.0,-0.01298523,-0.01083374,0.9998474,36.899840000000005,-4.5273900000000005,-27.85057,5.083008,0.3535644,0.7338172,-0.411639,1.042276,-0.1562311,-0.01090157,0.7222502,-0.01767893,0.0,170.0356,30.465473372781066
0,-0.02967834,0.006896973,0.999527,1.0,-0.0402832,0.01817322,0.9990082,-32.14532,-2.589386,-27.96323,4.824722,0.516588,0.6618626,1.0,-0.01298523,-0.01083374,0.9998474,36.899840000000005,-4.5273900000000005,-27.85057,5.083008,0.3535644,0.7338172,-0.4117073,1.042226,-0.1562718,-0.01089302,0.7222881,-0.01768166,0.0,170.0356,30.465473372781066
0,-0.02967834,0.006896973,0.999527,1.0,-0.0402832,0.01817322,0.9990082,-32.14532,-2.589386,-27.96323,4.824722,0.516588,0.6618626,1.0,-0.01298523,-0.01083374,0.9998474,36.899840000000005,-4.5273900000000005,-27.85057,5.083008,0.3535644,0.7338172,-0.4117073,1.042226,-0.1562718,-0.01089302,0.7222881,-0.01768166,0.0,170.0356,30.465473372781066
0,-0.02967834,0.006896973,0.999527,1.0,-0.0402832,0.01817322,0.9990082,-32.14532,-2.589386,-27.96323,4.824722,0.516588,0.6618626,1.0,-0.01298523,-0.01083374,0.9998474,36.899840000000005,-4.5273900000000005,-27.85057,5.083008,0.3535644,0.7338172,-0.4117073,1.042226,-0.1562718,-0.01089302,0.7222881,-0.01768166,0.0,170.0356,30.465473372781066
0,-0.02912903,0.006134033,0.9995421999999998,1.0,-0.0397644,0.01753235,0.999054,-32.14586,-2.588715,-27.96234,4.780869,0.5165218,0.6618878,1.0,-0.01271057,-0.01144409,0.9998474,36.89868,-4.522812,-27.86168,5.071609,0.353551,0.7338751,-0.4116782,1.042232,-0.1563667,-0.01115825,0.722316,-0.01783083,0.0,170.0356,30.465473372781066
0,-0.02912903,0.006134033,0.9995421999999998,1.0,-0.0397644,0.01753235,0.999054,-32.14586,-2.588715,-27.96234,4.780869,0.5165218,0.6618878,1.0,-0.01271057,-0.01144409,0.9998474,36.89868,-4.522812,-27.86168,5.071609,0.353551,0.7338751,-0.4116782,1.042232,-0.1563667,-0.01115825,0.722316,-0.01783083,0.0,170.0356,30.465473372781066
0,-0.02912903,0.006134033,0.9995421999999998,1.0,-0.0397644,0.01753235,0.999054,-32.14586,-2.588715,-27.96234,4.780869,0.5165218,0.6618878,1.0,-0.01271057,-0.01144409,0.9998474,36.89868,-4.522812,-27.86168,5.071609,0.353551,0.7338751,-0.4116782,1.042232,-0.1563667,-0.01115825,0.722316,-0.01783083,0.0,170.0356,30.465473372781066
0,-0.02912903,0.006134033,0.9995421999999998,1.0,-0.0397644,0.01753235,0.999054,-32.14586,-2.588715,-27.96234,4.780869,0.5165218,0.6618878,1.0,-0.01271057,-0.01144409,0.9998474,36.89868,-4.522812,-27.86168,5.071609,0.353551,0.7338751,-0.4116457,1.042299,-0.1564954,-0.01141211,0.7224765999999999,-0.017849,0.0,170.0356,30.465473372781066
0,-0.02912903,0.006134033,0.9995421999999998,1.0,-0.0397644,0.01753235,0.999054,-32.14586,-2.588715,-27.96234,4.780869,0.5165218,0.6618878,1.0,-0.01271057,-0.01144409,0.9998474,36.89868,-4.522812,-27.86168,5.071609,0.353551,0.7338751,-0.4116457,1.042299,-0.1564954,-0.01141211,0.7224765999999999,-0.017849,0.0,170.0356,30.465473372781066
0,-0.02912903,0.006134033,0.9995421999999998,1.0,-0.0397644,0.01753235,0.999054,-32.14586,-2.588715,-27.96234,4.780869,0.5165218,0.6618878,1.0,-0.01271057,-0.01144409,0.9998474,36.89868,-4.522812,-27.86168,5.071609,0.353551,0.7338751,-0.4116457,1.042299,-0.1564954,-0.01141211,0.7224765999999999,-0.017849,0.0,170.0356,30.465473372781066
0,-0.02890015,0.005371094,0.9995575,1.0,-0.04325867,0.01605225,0.9989319,-32.14693,-2.545502,-28.12241,4.769684,0.5171971,0.662349,1.0,-0.009033203,-0.009384155,0.9999084,36.853840000000005,-4.47406,-27.980320000000003,5.0028690000000005,0.3544425,0.7330390999999999,-0.4116457,1.042299,-0.1564954,-0.01141211,0.7224765999999999,-0.017849,0.0,170.0356,30.465473372781066
0,-0.02890015,0.005371094,0.9995575,1.0,-0.04325867,0.01605225,0.9989319,-32.14693,-2.545502,-28.12241,4.769684,0.5171971,0.662349,1.0,-0.009033203,-0.009384155,0.9999084,36.853840000000005,-4.47406,-27.980320000000003,5.0028690000000005,0.3544425,0.7330390999999999,-0.4116457,1.042299,-0.1564954,-0.01141211,0.7224765999999999,-0.017849,0.0,170.0356,30.465473372781066
0,-0.02890015,0.005371094,0.9995575,1.0,-0.04325867,0.01605225,0.9989319,-32.14693,-2.545502,-28.12241,4.769684,0.5171971,0.662349,1.0,-0.009033203,-0.009384155,0.9999084,36.853840000000005,-4.47406,-27.980320000000003,5.0028690000000005,0.3544425,0.7330390999999999,-0.4116457,1.042299,-0.1564954,-0.01141211,0.7224765999999999,-0.017849,0.0,170.0356,30.465473372781066
0,-0.02890015,0.005371094,0.9995575,1.0,-0.04325867,0.01605225,0.9989319,-32.14693,-2.545502,-28.12241,4.769684,0.5171971,0.662349,1.0,-0.009033203,-0.009384155,0.9999084,36.853840000000005,-4.47406,-27.980320000000003,5.0028690000000005,0.3544425,0.7330390999999999,-0.4117015999999999,1.0423790000000002,-0.1566757,-0.01206738,0.7227003000000001,-0.01784378,0.0,170.0356,30.465473372781066
0,-0.02890015,0.005371094,0.9995575,1.0,-0.04325867,0.01605225,0.9989319,-32.14693,-2.545502,-28.12241,4.769684,0.5171971,0.662349,1.0,-0.009033203,-0.009384155,0.9999084,36.853840000000005,-4.47406,-27.980320000000003,5.0028690000000005,0.3544425,0.7330390999999999,-0.4117015999999999,1.0423790000000002,-0.1566757,-0.01206738,0.7227003000000001,-0.01784378,0.0,170.0356,30.465473372781066
0,-0.02890015,0.005371094,0.9995575,1.0,-0.04325867,0.01605225,0.9989319,-32.14693,-2.545502,-28.12241,4.769684,0.5171971,0.662349,1.0,-0.009033203,-0.009384155,0.9999084,36.853840000000005,-4.47406,-27.980320000000003,5.0028690000000005,0.3544425,0.7330390999999999,-0.4117015999999999,1.0423790000000002,-0.1566757,-0.01206738,0.7227003000000001,-0.01784378,0.0,170.0356,30.465473372781066
0,-0.02890015,0.005371094,0.9995575,1.0,-0.04325867,0.01605225,0.9989319,-32.14693,-2.545502,-28.12241,4.769684,0.5171971,0.662349,1.0,-0.009033203,-0.009384155,0.9999084,36.853840000000005,-4.47406,-27.980320000000003,5.0028690000000005,0.3544425,0.7330390999999999,-0.4115395999999999,1.042388,-0.1568918,-0.01230975,0.7229505999999999,-0.01806105,0.0,76.46582,30.465473372781066
0,-0.02890015,0.005371094,0.9995575,1.0,-0.04325867,0.01605225,0.9989319,-32.14693,-2.545502,-28.12241,4.769684,0.5171971,0.662349,1.0,-0.009033203,-0.009384155,0.9999084,36.853840000000005,-4.47406,-27.980320000000003,5.0028690000000005,0.3544425,0.7330390999999999,-0.4115395999999999,1.042388,-0.1568918,-0.01230975,0.7229505999999999,-0.01806105,0.0,76.46582,30.465473372781066
0,-0.02890015,0.005371094,0.9995575,1.0,-0.04325867,0.01605225,0.9989319,-32.14693,-2.545502,-28.12241,4.769684,0.5171971,0.662349,1.0,-0.009033203,-0.009384155,0.9999084,36.853840000000005,-4.47406,-27.980320000000003,5.0028690000000005,0.3544425,0.7330390999999999,-0.4115395999999999,1.042388,-0.1568918,-0.01230975,0.7229505999999999,-0.01806105,0.0,76.46582,30.465473372781066
0,-0.03392029,0.007019043,0.9993896,1.0,-0.04364014,0.0125885,0.9989624,-32.15088,-2.599792,-27.96092,4.6412510000000005,0.5173424,0.6629494,1.0,-0.01478577,-0.003921509,0.9998779,36.85121,-4.487747,-28.047940000000004,4.989853,0.3554469,0.7333238000000001,-0.4115494,1.042278,-0.1570109999999999,-0.01222563,0.7230816999999999,-0.01843848,0.0,76.46582,30.465473372781066
0,-0.03392029,0.007019043,0.9993896,1.0,-0.04364014,0.0125885,0.9989624,-32.15088,-2.599792,-27.96092,4.6412510000000005,0.5173424,0.6629494,1.0,-0.01478577,-0.003921509,0.9998779,36.85121,-4.487747,-28.047940000000004,4.989853,0.3554469,0.7333238000000001,-0.4115494,1.042278,-0.1570109999999999,-0.01222563,0.7230816999999999,-0.01843848,0.0,76.46582,30.465473372781066
0,-0.03392029,0.007019043,0.9993896,1.0,-0.04364014,0.0125885,0.9989624,-32.15088,-2.599792,-27.96092,4.6412510000000005,0.5173424,0.6629494,1.0,-0.01478577,-0.003921509,0.9998779,36.85121,-4.487747,-28.047940000000004,4.989853,0.3554469,0.7333238000000001,-0.4115494,1.042278,-0.1570109999999999,-0.01222563,0.7230816999999999,-0.01843848,0.0,76.46582,30.465473372781066
0,-0.03392029,0.007019043,0.9993896,1.0,-0.04364014,0.0125885,0.9989624,-32.15088,-2.599792,-27.96092,4.6412510000000005,0.5173424,0.6629494,1.0,-0.01478577,-0.003921509,0.9998779,36.85121,-4.487747,-28.047940000000004,4.989853,0.3554469,0.7333238000000001,-0.4115268,1.042155,-0.1570973,-0.01203182,0.7231866,-0.01860802,0.0,76.46582,30.465473372781066
0,-0.03392029,0.007019043,0.9993896,1.0,-0.04364014,0.0125885,0.9989624,-32.15088,-2.599792,-27.96092,4.6412510000000005,0.5173424,0.6629494,1.0,-0.01478577,-0.003921509,0.9998779,36.85121,-4.487747,-28.047940000000004,4.989853,0.3554469,0.7333238000000001,-0.4115268,1.042155,-0.1570973,-0.01203182,0.7231866,-0.01860802,0.0,76.46582,30.465473372781066
0,-0.03392029,0.007019043,0.9993896,1.0,-0.04364014,0.0125885,0.9989624,-32.15088,-2.599792,-27.96092,4.6412510000000005,0.5173424,0.6629494,1.0,-0.01478577,-0.003921509,0.9998779,36.85121,-4.487747,-28.047940000000004,4.989853,0.3554469,0.7333238000000001,-0.4115268,1.042155,-0.1570973,-0.01203182,0.7231866,-0.01860802,0.0,76.46582,30.465473372781066
0,0.3729553,-0.06268311,0.9257202,1.0,0.2763824,-0.07533264,0.9580841,-30.15463,-2.907013,-28.52682,4.7738190000000005,0.3954156,0.6960381999999999,1.0,0.3733825999999999,-0.06263733,0.9255524,38.70688,-5.304825,-28.44037,5.289291,0.21138,0.7865034000000001,-0.4112509,1.041938,-0.157081,-0.01123279,0.7231036999999999,-0.01880854,0.0,76.46582,30.465473372781066
0,0.3729553,-0.06268311,0.9257202,1.0,0.2763824,-0.07533264,0.9580841,-30.15463,-2.907013,-28.52682,4.7738190000000005,0.3954156,0.6960381999999999,1.0,0.3733825999999999,-0.06263733,0.9255524,38.70688,-5.304825,-28.44037,5.289291,0.21138,0.7865034000000001,-0.4112509,1.041938,-0.157081,-0.01123279,0.7231036999999999,-0.01880854,0.0,76.46582,30.465473372781066
0,0.3729553,-0.06268311,0.9257202,1.0,0.2763824,-0.07533264,0.9580841,-30.15463,-2.907013,-28.52682,4.7738190000000005,0.3954156,0.6960381999999999,1.0,0.3733825999999999,-0.06263733,0.9255524,38.70688,-5.304825,-28.44037,5.289291,0.21138,0.7865034000000001,-0.4112509,1.041938,-0.157081,-0.01123279,0.7231036999999999,-0.01880854,0.0,76.46582,30.465473372781066
0,0.3210449,-0.05410767,0.9455109,1.0,0.3119812,-0.0499115,0.948761,-30.112440000000003,-2.975632,-28.589920000000003,4.9409790000000005,0.3878092,0.69528,1.0,0.4232483,-0.1021271,0.9002228000000001,38.92583,-5.423843,-28.55826,5.440582,0.1899015,0.8036678,-0.4110578,1.0419200000000002,-0.1569963,-0.0109731,0.7229413,-0.01847481,0.0,293.019,30.465473372781066
0,0.3210449,-0.05410767,0.9455109,1.0,0.3119812,-0.0499115,0.948761,-30.112440000000003,-2.975632,-28.589920000000003,4.9409790000000005,0.3878092,0.69528,1.0,0.4232483,-0.1021271,0.9002228000000001,38.92583,-5.423843,-28.55826,5.440582,0.1899015,0.8036678,-0.4110578,1.0419200000000002,-0.1569963,-0.0109731,0.7229413,-0.01847481,0.0,293.019,30.465473372781066
0,0.3210449,-0.05410767,0.9455109,1.0,0.3119812,-0.0499115,0.948761,-30.112440000000003,-2.975632,-28.589920000000003,4.9409790000000005,0.3878092,0.69528,1.0,0.4232483,-0.1021271,0.9002228000000001,38.92583,-5.423843,-28.55826,5.440582,0.1899015,0.8036678,-0.4110578,1.0419200000000002,-0.1569963,-0.0109731,0.7229413,-0.01847481,0.0,293.019,30.465473372781066
1,0.3653412,-0.08552551,0.9269257,1.0,0.3073425,-0.05267334,0.9501343,-30.12544,-2.973282,-28.58374,4.916656,0.389052,0.6955292,1.0,0.4351654,-0.1259308,0.8914948,38.94553,-5.423309,-28.56606,5.270308999999999,0.1862611,0.8089314000000001,-0.4110277,1.041956,-0.1568056,-0.01079581,0.7228147,-0.01836844,0.0,293.019,30.465473372781066
1,0.3653412,-0.08552551,0.9269257,1.0,0.3073425,-0.05267334,0.9501343,-30.12544,-2.973282,-28.58374,4.916656,0.389052,0.6955292,1.0,0.4351654,-0.1259308,0.8914948,38.94553,-5.423309,-28.56606,5.270308999999999,0.1862611,0.8089314000000001,-0.4110277,1.041956,-0.1568056,-0.01079581,0.7228147,-0.01836844,0.0,293.019,30.465473372781066
1,0.3653412,-0.08552551,0.9269257,1.0,0.3073425,-0.05267334,0.9501343,-30.12544,-2.973282,-28.58374,4.916656,0.389052,0.6955292,1.0,0.4351654,-0.1259308,0.8914948,38.94553,-5.423309,-28.56606,5.270308999999999,0.1862611,0.8089314000000001,-0.4110277,1.041956,-0.1568056,-0.01079581,0.7228147,-0.01836844,0.0,293.019,30.465473372781066
1,0.3673706,-0.0901947,0.9256744,1.0,0.3069763,-0.05752563,0.9499664,-30.13715,-2.969284,-28.58122,4.924423,0.3895296,0.6962151999999999,1.0,0.4313507,-0.1254578,0.8934021000000001,38.9558,-5.422806,-28.5648,5.285049,0.1866568,0.8086888000000001,-0.4110253,1.042054,-0.1566825,-0.01068516,0.7226569,-0.01867636,0.0,293.019,30.465473372781066
1,0.3673706,-0.0901947,0.9256744,1.0,0.3069763,-0.05752563,0.9499664,-30.13715,-2.969284,-28.58122,4.924423,0.3895296,0.6962151999999999,1.0,0.4313507,-0.1254578,0.8934021000000001,38.9558,-5.422806,-28.5648,5.285049,0.1866568,0.8086888000000001,-0.4110253,1.042054,-0.1566825,-0.01068516,0.7226569,-0.01867636,0.0,293.019,30.465473372781066
1,0.3673706,-0.0901947,0.9256744,1.0,0.3069763,-0.05752563,0.9499664,-30.13715,-2.969284,-28.58122,4.924423,0.3895296,0.6962151999999999,1.0,0.4313507,-0.1254578,0.8934021000000001,38.9558,-5.422806,-28.5648,5.285049,0.1866568,0.8086888000000001,-0.4110253,1.042054,-0.1566825,-0.01068516,0.7226569,-0.01867636,0.0,293.019,30.465473372781066
1,0.3701782,-0.09069824,0.9245148,1.0,0.3136139,-0.06022644,0.9476318,-30.17598,-2.957123,-28.58231,4.943008,0.389732,0.6964076,1.0,0.4292603,-0.1230773999999999,0.8947449000000001,38.9707,-5.42366,-28.56606,5.319656,0.1864689,0.8082736,-0.4111738,1.042118,-0.1562684,-0.01039212,0.7222807,-0.01785172,0.0,293.019,30.465473372781066
1,0.3701782,-0.09069824,0.9245148,1.0,0.3136139,-0.06022644,0.9476318,-30.17598,-2.957123,-28.58231,4.943008,0.389732,0.6964076,1.0,0.4292603,-0.1230773999999999,0.8947449000000001,38.9707,-5.42366,-28.56606,5.319656,0.1864689,0.8082736,-0.4111738,1.042118,-0.1562684,-0.01039212,0.7222807,-0.01785172,0.0,293.019,30.465473372781066
1,0.3701782,-0.09069824,0.9245148,1.0,0.3136139,-0.06022644,0.9476318,-30.17598,-2.957123,-28.58231,4.943008,0.389732,0.6964076,1.0,0.4292603,-0.1230773999999999,0.8947449000000001,38.9707,-5.42366,-28.56606,5.319656,0.1864689,0.8082736,-0.4111738,1.042118,-0.1562684,-0.01039212,0.7222807,-0.01785172,0.0,293.019,30.465473372781066
1,0.3667755,-0.0952301,0.925415,1.0,0.3127136,-0.06678772,0.9474945,-30.20251,-2.960617,-28.5867,5.034607,0.3908491,0.6978109,1.0,0.4229736,-0.1252289,0.8974304,38.99416,-5.428268,-28.56738,5.401001,0.1866568,0.8089107,-0.4113052,1.0422559999999998,-0.1560786,-0.01083851,0.7220227,-0.01761983,0.0,141.175,30.465473372781066
1,0.3667755,-0.0952301,0.925415,1.0,0.3127136,-0.06678772,0.9474945,-30.20251,-2.960617,-28.5867,5.034607,0.3908491,0.6978109,1.0,0.4229736,-0.1252289,0.8974304,38.99416,-5.428268,-28.56738,5.401001,0.1866568,0.8089107,-0.4113052,1.0422559999999998,-0.1560786,-0.01083851,0.7220227,-0.01761983,0.0,141.175,30.465473372781066
1,0.3667755,-0.0952301,0.925415,1.0,0.3127136,-0.06678772,0.9474945,-30.20251,-2.960617,-28.5867,5.034607,0.3908491,0.6978109,1.0,0.4229736,-0.1252289,0.8974304,38.99416,-5.428268,-28.56738,5.401001,0.1866568,0.8089107,-0.4113052,1.0422559999999998,-0.1560786,-0.01083851,0.7220227,-0.01761983,0.0,141.175,30.465473372781066
1,0.3668823,-0.09921265,0.9249573,1.0,0.3108978,-0.07246399,0.9476624,-30.2139,-2.964676,-28.5867,5.053085,0.3915637,0.6989506,1.0,0.4263916,-0.1280059999999999,0.8954315,39.00366,-5.434357,-28.56815,5.401917,0.1854247999999999,0.8099451999999999,-0.4114751,1.042264,-0.1558975,-0.01094318,0.7218658,-0.01738013,0.0,141.175,30.465473372781066
1,0.3668823,-0.09921265,0.9249573,1.0,0.3108978,-0.07246399,0.9476624,-30.2139,-2.964676,-28.5867,5.053085,0.3915637,0.6989506,1.0,0.4263916,-0.1280059999999999,0.8954315,39.00366,-5.434357,-28.56815,5.401917,0.1854247999999999,0.8099451999999999,-0.4114751,1.042264,-0.1558975,-0.01094318,0.7218658,-0.01738013,0.0,141.175,30.465473372781066
1,0.3668823,-0.09921265,0.9249573,1.0,0.3108978,-0.07246399,0.9476624,-30.2139,-2.964676,-28.5867,5.053085,0.3915637,0.6989506,1.0,0.4263916,-0.1280059999999999,0.8954315,39.00366,-5.434357,-28.56815,5.401917,0.1854247999999999,0.8099451999999999,-0.4114751,1.042264,-0.1558975,-0.01094318,0.7218658,-0.01738013,0.0,141.175,30.465473372781066
1,0.2895966,-0.1033478,0.9515381,1.0,0.2243804999999999,-0.09004211,0.9703216999999998,-30.48997,-2.899445,-28.4832,5.0858,0.4159819999999999,0.6975793,1.0,0.3721924,-0.1198883,0.9203644,38.71381,-5.435791,-28.441540000000003,5.5046230000000005,0.2094926,0.8036651,-0.4116965999999999,1.042448,-0.1554987,-0.01054902,0.7219238,-0.01692953,0.0,141.175,30.465473372781066
1,0.2895966,-0.1033478,0.9515381,1.0,0.2243804999999999,-0.09004211,0.9703216999999998,-30.48997,-2.899445,-28.4832,5.0858,0.4159819999999999,0.6975793,1.0,0.3721924,-0.1198883,0.9203644,38.71381,-5.435791,-28.441540000000003,5.5046230000000005,0.2094926,0.8036651,-0.4116965999999999,1.042448,-0.1554987,-0.01054902,0.7219238,-0.01692953,0.0,141.175,30.465473372781066
1,0.2895966,-0.1033478,0.9515381,1.0,0.2243804999999999,-0.09004211,0.9703216999999998,-30.48997,-2.899445,-28.4832,5.0858,0.4159819999999999,0.6975793,1.0,0.3721924,-0.1198883,0.9203644,38.71381,-5.435791,-28.441540000000003,5.5046230000000005,0.2094926,0.8036651,-0.4116965999999999,1.042448,-0.1554987,-0.01054902,0.7219238,-0.01692953,0.0,141.175,30.465473372781066
1,0.08486938,-0.09925842,0.9914246,1.0,0.007461548,-0.03353882,0.9994049,-31.67035,-2.938385,-28.02924,5.0202480000000005,0.4925405,0.6834054,1.0,0.08543396,-0.0997467,0.991333,37.41154,-5.052063,-28.33,5.46817,0.3157407,0.7756925,-0.4117702,1.042499,-0.1553762,-0.01063064,0.7220213000000001,-0.01663653,0.0,141.175,30.465473372781066
1,0.08486938,-0.09925842,0.9914246,1.0,0.007461548,-0.03353882,0.9994049,-31.67035,-2.938385,-28.02924,5.0202480000000005,0.4925405,0.6834054,1.0,0.08543396,-0.0997467,0.991333,37.41154,-5.052063,-28.33,5.46817,0.3157407,0.7756925,-0.4117702,1.042499,-0.1553762,-0.01063064,0.7220213000000001,-0.01663653,0.0,141.175,30.465473372781066
1,0.08486938,-0.09925842,0.9914246,1.0,0.007461548,-0.03353882,0.9994049,-31.67035,-2.938385,-28.02924,5.0202480000000005,0.4925405,0.6834054,1.0,0.08543396,-0.0997467,0.991333,37.41154,-5.052063,-28.33,5.46817,0.3157407,0.7756925,-0.4117702,1.042499,-0.1553762,-0.01063064,0.7220213000000001,-0.01663653,0.0,141.175,30.465473372781066
1,-0.006484985,-0.09184265,0.9957428,1.0,-0.05615234,-0.07603455,0.9955139,-32.17586,-3.120178,-27.62436,5.069717,0.5200321,0.6927519,1.0,-0.006454468,-0.09185791,0.9957428,36.82042,-5.376831,-27.374340000000004,5.605118,0.3542263,0.7737418,-0.4118602,1.042514,-0.1550692,-0.009802558,0.7218787,-0.01596813,0.0,10.8125,30.465473372781066
1,-0.006484985,-0.09184265,0.9957428,1.0,-0.05615234,-0.07603455,0.9955139,-32.17586,-3.120178,-27.62436,5.069717,0.5200321,0.6927519,1.0,-0.006454468,-0.09185791,0.9957428,36.82042,-5.376831,-27.374340000000004,5.605118,0.3542263,0.7737418,-0.4118602,1.042514,-0.1550692,-0.009802558,0.7218787,-0.01596813,0.0,10.8125,30.465473372781066
1,-0.006484985,-0.09184265,0.9957428,1.0,-0.05615234,-0.07603455,0.9955139,-32.17586,-3.120178,-27.62436,5.069717,0.5200321,0.6927519,1.0,-0.006454468,-0.09185791,0.9957428,36.82042,-5.376831,-27.374340000000004,5.605118,0.3542263,0.7737418,-0.4118602,1.042514,-0.1550692,-0.009802558,0.7218787,-0.01596813,0.0,10.8125,30.465473372781066
1,-0.006561279,-0.08361816,0.9964752,1.0,-0.05651855,-0.07423401,0.995636,-32.17607,-3.17572,-27.54428,5.052719000000001,0.5200689000000001,0.6934706,1.0,-0.006546021,-0.08361816,0.9964752,36.84938,-5.4168400000000005,-27.299,5.612137000000001,0.3533292999999999,0.7727933000000001,-0.4118602,1.042514,-0.1550692,-0.009802558,0.7218787,-0.01596813,0.0,10.8125,30.465473372781066
1,-0.006561279,-0.08361816,0.9964752,1.0,-0.05651855,-0.07423401,0.995636,-32.17607,-3.17572,-27.54428,5.052719000000001,0.5200689000000001,0.6934706,1.0,-0.006546021,-0.08361816,0.9964752,36.84938,-5.4168400000000005,-27.299,5.612137000000001,0.3533292999999999,0.7727933000000001,-0.4118602,1.042514,-0.1550692,-0.009802558,0.7218787,-0.01596813,0.0,10.8125,30.465473372781066
1,-0.006561279,-0.08361816,0.9964752,1.0,-0.05651855,-0.07423401,0.995636,-32.17607,-3.17572,-27.54428,5.052719000000001,0.5200689000000001,0.6934706,1.0,-0.006546021,-0.08361816,0.9964752,36.84938,-5.4168400000000005,-27.299,5.612137000000001,0.3533292999999999,0.7727933000000001,-0.4118602,1.042514,-0.1550692,-0.009802558,0.7218787,-0.01596813,0.0,10.8125,30.465473372781066
1,-0.03086853,-0.08128357,0.9962006,1.0,-0.06025696,-0.08100891,0.9948883,-32.21346,-3.162186,-27.5544,5.072128,0.5219484999999999,0.6943232,1.0,-0.008560181,-0.08143616,0.9966278,36.876540000000006,-5.417816,-27.28801,5.63176,0.3527342,0.7723356,-0.4119092,1.042466,-0.1545833999999999,-0.008568866,0.7211699,-0.01510839,0.0,10.8125,30.465473372781066
1,-0.03086853,-0.08128357,0.9962006,1.0,-0.06025696,-0.08100891,0.9948883,-32.21346,-3.162186,-27.5544,5.072128,0.5219484999999999,0.6943232,1.0,-0.008560181,-0.08143616,0.9966278,36.876540000000006,-5.417816,-27.28801,5.63176,0.3527342,0.7723356,-0.4119092,1.042466,-0.1545833999999999,-0.008568866,0.7211699,-0.01510839,0.0,10.8125,30.465473372781066
1,-0.03086853,-0.08128357,0.9962006,1.0,-0.06025696,-0.08100891,0.9948883,-32.21346,-3.162186,-27.5544,5.072128,0.5219484999999999,0.6943232,1.0,-0.008560181,-0.08143616,0.9966278,36.876540000000006,-5.417816,-27.28801,5.63176,0.3527342,0.7723356,-0.4119092,1.042466,-0.1545833999999999,-0.008568866,0.7211699,-0.01510839,0.0,10.8125,30.465473372781066
1,-0.03253174,-0.07971191,0.9962769,1.0,-0.06771851,-0.07592773,0.9947968,-32.218990000000005,-3.165512,-27.54208,5.0583800000000005,0.5233663,0.6934404000000001,1.0,-0.007400513,-0.08236694,0.9965668,36.8793,-5.418228,-27.28476,5.652908,0.3524207,0.772512,-0.4119585,1.042455,-0.1538507999999999,-0.00696336,0.7201744000000001,-0.01398118,0.0,10.8125,30.465473372781066
1,-0.03253174,-0.07971191,0.9962769,1.0,-0.06771851,-0.07592773,0.9947968,-32.218990000000005,-3.165512,-27.54208,5.0583800000000005,0.5233663,0.6934404000000001,1.0,-0.007400513,-0.08236694,0.9965668,36.8793,-5.418228,-27.28476,5.652908,0.3524207,0.772512,-0.4119585,1.042455,-0.1538507999999999,-0.00696336,0.7201744000000001,-0.01398118,0.0,10.8125,30.465473372781066
1,-0.03253174,-0.07971191,0.9962769,1.0,-0.06771851,-0.07592773,0.9947968,-32.218990000000005,-3.165512,-27.54208,5.0583800000000005,0.5233663,0.6934404000000001,1.0,-0.007400513,-0.08236694,0.9965668,36.8793,-5.418228,-27.28476,5.652908,0.3524207,0.772512,-0.4119585,1.042455,-0.1538507999999999,-0.00696336,0.7201744000000001,-0.01398118,0.0,10.8125,30.465473372781066
1,-0.03253174,-0.07971191,0.9962769,1.0,-0.06771851,-0.07592773,0.9947968,-32.218990000000005,-3.165512,-27.54208,5.0583800000000005,0.5233663,0.6934404000000001,1.0,-0.007400513,-0.08236694,0.9965668,36.8793,-5.418228,-27.28476,5.652908,0.3524207,0.772512,-0.411901,1.042478,-0.152351,-0.003988357,0.7181183000000001,-0.01147623,0.0,10.8125,30.465473372781066
1,-0.03253174,-0.07971191,0.9962769,1.0,-0.06771851,-0.07592773,0.9947968,-32.218990000000005,-3.165512,-27.54208,5.0583800000000005,0.5233663,0.6934404000000001,1.0,-0.007400513,-0.08236694,0.9965668,36.8793,-5.418228,-27.28476,5.652908,0.3524207,0.772512,-0.411901,1.042478,-0.152351,-0.003988357,0.7181183000000001,-0.01147623,0.0,10.8125,30.465473372781066
1,-0.03253174,-0.07971191,0.9962769,1.0,-0.06771851,-0.07592773,0.9947968,-32.218990000000005,-3.165512,-27.54208,5.0583800000000005,0.5233663,0.6934404000000001,1.0,-0.007400513,-0.08236694,0.9965668,36.8793,-5.418228,-27.28476,5.652908,0.3524207,0.772512,-0.411901,1.042478,-0.152351,-0.003988357,0.7181183000000001,-0.01147623,0.0,10.8125,30.465473372781066
1,-0.04806519,-0.08938599,0.9948273,1.0,-0.06982422,-0.09661865,0.9928589,-32.28023,-3.094955,-27.70229,4.908875,0.5258687,0.6962355,1.0,-0.01399231,-0.07798767,0.9968414,36.85258,-5.425155999999999,-27.15465,5.517654,0.3548255,0.7701352,-0.4118356999999999,1.042512,-0.1514835,-0.002471735,0.716975,-0.01010017,0.0,10.8125,30.465473372781066
1,-0.04806519,-0.08938599,0.9948273,1.0,-0.06982422,-0.09661865,0.9928589,-32.28023,-3.094955,-27.70229,4.908875,0.5258687,0.6962355,1.0,-0.01399231,-0.07798767,0.9968414,36.85258,-5.425155999999999,-27.15465,5.517654,0.3548255,0.7701352,-0.4118356999999999,1.042512,-0.1514835,-0.002471735,0.716975,-0.01010017,0.0,10.8125,30.465473372781066
1,-0.04806519,-0.08938599,0.9948273,1.0,-0.06982422,-0.09661865,0.9928589,-32.28023,-3.094955,-27.70229,4.908875,0.5258687,0.6962355,1.0,-0.01399231,-0.07798767,0.9968414,36.85258,-5.425155999999999,-27.15465,5.517654,0.3548255,0.7701352,-0.4118356999999999,1.042512,-0.1514835,-0.002471735,0.716975,-0.01010017,0.0,10.8125,30.465473372781066
1,-0.03196716,-0.08729553,0.9956665,1.0,-0.07313538,-0.09410095,0.9928589,-32.29805,-3.041168,-27.89818,4.92952,0.5271151999999999,0.6961307,1.0,-0.02185059,-0.08560181,0.9960785,36.83788,-5.377258,-27.25633,5.519394,0.3565238,0.7710306,-0.4117527,1.042405,-0.1504681,-0.0005593965,0.7159274,-0.00864289,0.0,-133.0,30.465473372781066
1,-0.03196716,-0.08729553,0.9956665,1.0,-0.07313538,-0.09410095,0.9928589,-32.29805,-3.041168,-27.89818,4.92952,0.5271151999999999,0.6961307,1.0,-0.02185059,-0.08560181,0.9960785,36.83788,-5.377258,-27.25633,5.519394,0.3565238,0.7710306,-0.4117527,1.042405,-0.1504681,-0.0005593965,0.7159274,-0.00864289,0.0,-133.0,30.465473372781066
1,-0.03196716,-0.08729553,0.9956665,1.0,-0.07313538,-0.09410095,0.9928589,-32.29805,-3.041168,-27.89818,4.92952,0.5271151999999999,0.6961307,1.0,-0.02185059,-0.08560181,0.9960785,36.83788,-5.377258,-27.25633,5.519394,0.3565238,0.7710306,-0.4117527,1.042405,-0.1504681,-0.0005593965,0.7159274,-0.00864289,0.0,-133.0,30.465473372781066
1,-0.03594971,-0.08605957,0.995636,1.0,-0.07237244,-0.09207153,0.993103,-32.30203,-3.041138,-27.91203,4.946212999999999,0.5271300999999999,0.6959482,1.0,-0.02185059,-0.08369446,0.9962463,36.83661,-5.376373,-27.2663,5.533096,0.3565584,0.7708013000000001,-0.4116194,1.042245,-0.1493937,0.001728492,0.7148175,-0.00744879,0.0,-133.0,30.465473372781066
1,-0.03594971,-0.08605957,0.995636,1.0,-0.07237244,-0.09207153,0.993103,-32.30203,-3.041138,-27.91203,4.946212999999999,0.5271300999999999,0.6959482,1.0,-0.02185059,-0.08369446,0.9962463,36.83661,-5.376373,-27.2663,5.533096,0.3565584,0.7708013000000001,-0.4116194,1.042245,-0.1493937,0.001728492,0.7148175,-0.00744879,0.0,-133.0,30.465473372781066
1,-0.03594971,-0.08605957,0.995636,1.0,-0.07237244,-0.09207153,0.993103,-32.30203,-3.041138,-27.91203,4.946212999999999,0.5271300999999999,0.6959482,1.0,-0.02185059,-0.08369446,0.9962463,36.83661,-5.376373,-27.2663,5.533096,0.3565584,0.7708013000000001,-0.4116194,1.042245,-0.1493937,0.001728492,0.7148175,-0.00744879,0.0,-133.0,30.465473372781066
1,-0.03594971,-0.08605957,0.995636,1.0,-0.07237244,-0.09207153,0.993103,-32.30203,-3.041138,-27.91203,4.946212999999999,0.5271300999999999,0.6959482,1.0,-0.02185059,-0.08369446,0.9962463,36.83661,-5.376373,-27.2663,5.533096,0.3565584,0.7708013000000001,-0.4112752999999999,1.041948,-0.1484322,0.004748206,0.713544,-0.006581617,0.0,-133.0,30.465473372781066
1,-0.03594971,-0.08605957,0.995636,1.0,-0.07237244,-0.09207153,0.993103,-32.30203,-3.041138,-27.91203,4.946212999999999,0.5271300999999999,0.6959482,1.0,-0.02185059,-0.08369446,0.9962463,36.83661,-5.376373,-27.2663,5.533096,0.3565584,0.7708013000000001,-0.4112752999999999,1.041948,-0.1484322,0.004748206,0.713544,-0.006581617,0.0,-133.0,30.465473372781066
1,-0.03594971,-0.08605957,0.995636,1.0,-0.07237244,-0.09207153,0.993103,-32.30203,-3.041138,-27.91203,4.946212999999999,0.5271300999999999,0.6959482,1.0,-0.02185059,-0.08369446,0.9962463,36.83661,-5.376373,-27.2663,5.533096,0.3565584,0.7708013000000001,-0.4112752999999999,1.041948,-0.1484322,0.004748206,0.713544,-0.006581617,0.0,-133.0,30.465473372781066
1,-0.03163147,-0.08395386,0.9959564,1.0,-0.0712738,-0.09822083,0.9925995,-32.39848,-3.102982,-27.66396,4.857864,0.5301058000000001,0.6963774,1.0,-0.02093506,-0.08007813,0.9965668,36.82379,-5.373412999999999,-27.24637,5.511642,0.3569233,0.7697636999999999,-0.4107972,1.041539,-0.1472347,0.008706019,0.7121943000000001,-0.0054063509999999,0.0,-133.0,30.465473372781066
1,-0.03163147,-0.08395386,0.9959564,1.0,-0.0712738,-0.09822083,0.9925995,-32.39848,-3.102982,-27.66396,4.857864,0.5301058000000001,0.6963774,1.0,-0.02093506,-0.08007813,0.9965668,36.82379,-5.373412999999999,-27.24637,5.511642,0.3569233,0.7697636999999999,-0.4107972,1.041539,-0.1472347,0.008706019,0.7121943000000001,-0.0054063509999999,0.0,-133.0,30.465473372781066
1,-0.03163147,-0.08395386,0.9959564,1.0,-0.0712738,-0.09822083,0.9925995,-32.39848,-3.102982,-27.66396,4.857864,0.5301058000000001,0.6963774,1.0,-0.02093506,-0.08007813,0.9965668,36.82379,-5.373412999999999,-27.24637,5.511642,0.3569233,0.7697636999999999,-0.4107972,1.041539,-0.1472347,0.008706019,0.7121943000000001,-0.0054063509999999,0.0,-133.0,30.465473372781066
1,-0.02870178,-0.07951355,0.9964142,1.0,-0.07759094,-0.08648682,0.9932251,-32.412890000000004,-3.131485,-27.56769,4.940826,0.5315835,0.6943619000000001,1.0,-0.02545166,-0.07904053,0.9965363000000002,36.80989,-5.368835,-27.24448,5.533966,0.3581872,0.7694101999999999,-0.4100424,1.0408540000000002,-0.1460015,0.01327287,0.7104498,-0.004726975,0.0,-133.0,30.465473372781066
1,-0.02870178,-0.07951355,0.9964142,1.0,-0.07759094,-0.08648682,0.9932251,-32.412890000000004,-3.131485,-27.56769,4.940826,0.5315835,0.6943619000000001,1.0,-0.02545166,-0.07904053,0.9965363000000002,36.80989,-5.368835,-27.24448,5.533966,0.3581872,0.7694101999999999,-0.4100424,1.0408540000000002,-0.1460015,0.01327287,0.7104498,-0.004726975,0.0,-133.0,30.465473372781066
1,-0.02870178,-0.07951355,0.9964142,1.0,-0.07759094,-0.08648682,0.9932251,-32.412890000000004,-3.131485,-27.56769,4.940826,0.5315835,0.6943619000000001,1.0,-0.02545166,-0.07904053,0.9965363000000002,36.80989,-5.368835,-27.24448,5.533966,0.3581872,0.7694101999999999,-0.4100424,1.0408540000000002,-0.1460015,0.01327287,0.7104498,-0.004726975,0.0,-133.0,30.465473372781066
1,0.07987976,-0.1706085,0.9820862,1.0,0.01502991,-0.172699,0.984848,-31.73409,-3.432083,-27.66531,4.909241000000001,0.4932843,0.7204321,1.0,0.1013031,-0.169754,0.9802551,37.28258,-5.697495,-27.43861,5.440109,0.3178395,0.8012238,-0.408933,1.039948,-0.1446694,0.01952324,0.7080816999999999,-0.004760742,0.0,-134.9109,30.465473372781066
1,0.07987976,-0.1706085,0.9820862,1.0,0.01502991,-0.172699,0.984848,-31.73409,-3.432083,-27.66531,4.909241000000001,0.4932843,0.7204321,1.0,0.1013031,-0.169754,0.9802551,37.28258,-5.697495,-27.43861,5.440109,0.3178395,0.8012238,-0.408933,1.039948,-0.1446694,0.01952324,0.7080816999999999,-0.004760742,0.0,-134.9109,30.465473372781066
1,0.07987976,-0.1706085,0.9820862,1.0,0.01502991,-0.172699,0.984848,-31.73409,-3.432083,-27.66531,4.909241000000001,0.4932843,0.7204321,1.0,0.1013031,-0.169754,0.9802551,37.28258,-5.697495,-27.43861,5.440109,0.3178395,0.8012238,-0.408933,1.039948,-0.1446694,0.01952324,0.7080816999999999,-0.004760742,0.0,-134.9109,30.465473372781066
1,0.1112976,-0.2360534999999999,0.965332,1.0,0.09298706,-0.2257843,0.9697266,-31.206740000000003,-3.647125,-27.89975,5.008575,0.4623677,0.7402743,1.0,0.1782532,-0.2729187,0.9453735,37.78081,-6.009491000000001,-27.59314,5.483749,0.2829098,0.8377208,-0.4078453,1.038371,-0.143586,0.02898354,0.7049938,-0.005724955,0.0,-134.9109,30.465473372781066
1,0.1112976,-0.2360534999999999,0.965332,1.0,0.09298706,-0.2257843,0.9697266,-31.206740000000003,-3.647125,-27.89975,5.008575,0.4623677,0.7402743,1.0,0.1782532,-0.2729187,0.9453735,37.78081,-6.009491000000001,-27.59314,5.483749,0.2829098,0.8377208,-0.4078453,1.038371,-0.143586,0.02898354,0.7049938,-0.005724955,0.0,-134.9109,30.465473372781066
1,0.1112976,-0.2360534999999999,0.965332,1.0,0.09298706,-0.2257843,0.9697266,-31.206740000000003,-3.647125,-27.89975,5.008575,0.4623677,0.7402743,1.0,0.1782532,-0.2729187,0.9453735,37.78081,-6.009491000000001,-27.59314,5.483749,0.2829098,0.8377208,-0.4078453,1.038371,-0.143586,0.02898354,0.7049938,-0.005724955,0.0,-134.9109,30.465473372781066
1,0.1729126,-0.270462,0.9470673,1.0,0.08750916,-0.2115478999999999,0.9734344,-31.2775,-3.650467,-27.89281,5.145935,0.4657358,0.7377959,1.0,0.1811066,-0.2760162,0.943924,37.79987,-6.020706,-27.60643,5.459747,0.2815594999999999,0.8390476999999998,-0.4070904,1.036912,-0.1426459,0.03701459,0.7027191999999999,-0.0072665169999999,0.0,-134.9109,31.37
1,0.1729126,-0.270462,0.9470673,1.0,0.08750916,-0.2115478999999999,0.9734344,-31.2775,-3.650467,-27.89281,5.145935,0.4657358,0.7377959,1.0,0.1811066,-0.2760162,0.943924,37.79987,-6.020706,-27.60643,5.459747,0.2815594999999999,0.8390476999999998,-0.4070904,1.036912,-0.1426459,0.03701459,0.7027191999999999,-0.0072665169999999,0.0,-134.9109,31.37
1,0.1729126,-0.270462,0.9470673,1.0,0.08750916,-0.2115478999999999,0.9734344,-31.2775,-3.650467,-27.89281,5.145935,0.4657358,0.7377959,1.0,0.1811066,-0.2760162,0.943924,37.79987,-6.020706,-27.60643,5.459747,0.2815594999999999,0.8390476999999998,-0.4070904,1.036912,-0.1426459,0.03701459,0.7027191999999999,-0.0072665169999999,0.0,-134.9109,31.37
1,0.1161956999999999,-0.224762,0.967453,1.0,0.07673645,-0.1973877,0.9773102,-31.35236,-3.570419,-27.8727,5.19957,0.4701222,0.7322488,1.0,0.1656647,-0.2585754,0.9516601999999998,37.76978,-5.855544999999999,-27.55231,5.452103,0.2864090999999999,0.8279379000000001,-0.4063765,1.036229,-0.1419464,0.03957545,0.7011956,-0.008390947,0.0,-134.9109,31.37
1,0.1161956999999999,-0.224762,0.967453,1.0,0.07673645,-0.1973877,0.9773102,-31.35236,-3.570419,-27.8727,5.19957,0.4701222,0.7322488,1.0,0.1656647,-0.2585754,0.9516601999999998,37.76978,-5.855544999999999,-27.55231,5.452103,0.2864090999999999,0.8279379000000001,-0.4063765,1.036229,-0.1419464,0.03957545,0.7011956,-0.008390947,0.0,-134.9109,31.37
1,0.1161956999999999,-0.224762,0.967453,1.0,0.07673645,-0.1973877,0.9773102,-31.35236,-3.570419,-27.8727,5.19957,0.4701222,0.7322488,1.0,0.1656647,-0.2585754,0.9516601999999998,37.76978,-5.855544999999999,-27.55231,5.452103,0.2864090999999999,0.8279379000000001,-0.4063765,1.036229,-0.1419464,0.03957545,0.7011956,-0.008390947,0.0,-134.9109,31.37
1,0.1133728,-0.2107391,0.970932,1.0,0.08236694,-0.1895447,0.9784088,-31.39017,-3.485199,-27.87302,5.031799,0.470471,0.7277760999999999,1.0,0.1568146,-0.2400665,0.9579926,37.7354,-5.745056,-27.51402,5.543915,0.289877,0.8193507999999999,-0.405725,1.036375,-0.1415635,0.03793786,0.7003649000000001,-0.007727639,0.0,-134.9109,31.37
1,0.1133728,-0.2107391,0.970932,1.0,0.08236694,-0.1895447,0.9784088,-31.39017,-3.485199,-27.87302,5.031799,0.470471,0.7277760999999999,1.0,0.1568146,-0.2400665,0.9579926,37.7354,-5.745056,-27.51402,5.543915,0.289877,0.8193507999999999,-0.405725,1.036375,-0.1415635,0.03793786,0.7003649000000001,-0.007727639,0.0,-134.9109,31.37
1,0.1133728,-0.2107391,0.970932,1.0,0.08236694,-0.1895447,0.9784088,-31.39017,-3.485199,-27.87302,5.031799,0.470471,0.7277760999999999,1.0,0.1568146,-0.2400665,0.9579926,37.7354,-5.745056,-27.51402,5.543915,0.289877,0.8193507999999999,-0.405725,1.036375,-0.1415635,0.03793786,0.7003649000000001,-0.007727639,0.0,-134.9109,31.37
1,0.1180725,-0.2128754,0.9699097,1.0,0.08074951,-0.182724,0.9798279,-31.432340000000003,-3.392181,-27.88167,5.008621,0.4721917,0.7234255999999999,1.0,0.1631775,-0.2489318999999999,0.9546661,37.71338,-5.655044999999999,-27.47923,5.2171330000000005,0.2900473,0.8167929,-0.4052567,1.0368,-0.1415901,0.03545087,0.7002586,-0.007425248,0.0,59.90845,31.37
1,0.1180725,-0.2128754,0.9699097,1.0,0.08074951,-0.182724,0.9798279,-31.432340000000003,-3.392181,-27.88167,5.008621,0.4721917,0.7234255999999999,1.0,0.1631775,-0.2489318999999999,0.9546661,37.71338,-5.655044999999999,-27.47923,5.2171330000000005,0.2900473,0.8167929,-0.4052567,1.0368,-0.1415901,0.03545087,0.7002586,-0.007425248,0.0,59.90845,31.37
1,0.1180725,-0.2128754,0.9699097,1.0,0.08074951,-0.182724,0.9798279,-31.432340000000003,-3.392181,-27.88167,5.008621,0.4721917,0.7234255999999999,1.0,0.1631775,-0.2489318999999999,0.9546661,37.71338,-5.655044999999999,-27.47923,5.2171330000000005,0.2900473,0.8167929,-0.4052567,1.0368,-0.1415901,0.03545087,0.7002586,-0.007425248,0.0,59.90845,31.37
1,0.1143646,-0.2114105,0.9706726,1.0,0.0821991,-0.1806487999999999,0.9801025,-31.4431,-3.4011690000000003,-27.88452,5.034393,0.4723237,0.7234255999999999,1.0,0.1504517,-0.2456817999999999,0.9575958,37.70528,-5.656586,-27.4751,5.28862,0.2926425,0.8160313,-0.4052567,1.0368,-0.1415901,0.03545087,0.7002586,-0.007425248,0.0,59.90845,31.37
1,0.1143646,-0.2114105,0.9706726,1.0,0.0821991,-0.1806487999999999,0.9801025,-31.4431,-3.4011690000000003,-27.88452,5.034393,0.4723237,0.7234255999999999,1.0,0.1504517,-0.2456817999999999,0.9575958,37.70528,-5.656586,-27.4751,5.28862,0.2926425,0.8160313,-0.4052567,1.0368,-0.1415901,0.03545087,0.7002586,-0.007425248,0.0,59.90845,31.37
1,0.1143646,-0.2114105,0.9706726,1.0,0.0821991,-0.1806487999999999,0.9801025,-31.4431,-3.4011690000000003,-27.88452,5.034393,0.4723237,0.7234255999999999,1.0,0.1504517,-0.2456817999999999,0.9575958,37.70528,-5.656586,-27.4751,5.28862,0.2926425,0.8160313,-0.4052567,1.0368,-0.1415901,0.03545087,0.7002586,-0.007425248,0.0,59.90845,31.37
1,-0.1163177,-0.1886444,0.9751282,1.0,-0.128418,-0.1832886,0.9746246,-32.76912,-3.381073,-27.88567,5.020462,0.5523798000000001,0.7240051,1.0,-0.07672119,-0.2058716,0.9755554,36.04327,-5.433182,-27.42998,5.585999,0.39284,0.7971933000000001,-0.4049506,1.038525,-0.1425854,0.0255856,0.7014331,-0.0072619009999999,0.0,59.90845,31.37
1,-0.1163177,-0.1886444,0.9751282,1.0,-0.128418,-0.1832886,0.9746246,-32.76912,-3.381073,-27.88567,5.020462,0.5523798000000001,0.7240051,1.0,-0.07672119,-0.2058716,0.9755554,36.04327,-5.433182,-27.42998,5.585999,0.39284,0.7971933000000001,-0.4049506,1.038525,-0.1425854,0.0255856,0.7014331,-0.0072619009999999,0.0,59.90845,31.37
1,-0.1163177,-0.1886444,0.9751282,1.0,-0.128418,-0.1832886,0.9746246,-32.76912,-3.381073,-27.88567,5.020462,0.5523798000000001,0.7240051,1.0,-0.07672119,-0.2058716,0.9755554,36.04327,-5.433182,-27.42998,5.585999,0.39284,0.7971933000000001,-0.4049506,1.038525,-0.1425854,0.0255856,0.7014331,-0.0072619009999999,0.0,59.90845,31.37
1,-0.3384399,-0.1976318,0.9199982,1.0,-0.3455811,-0.1879578,0.9193573,-33.55688,-3.624466,-28.19429,5.32135,0.6168376,0.7407971,1.0,-0.2975922,-0.2511139,0.9210663,34.9431,-5.294571,-27.6479,5.721222,0.4689151,0.8058121,-0.405021,1.039299,-0.1437026,0.01927339,0.7025684,-0.008558426,0.0,59.90845,31.37
1,-0.3384399,-0.1976318,0.9199982,1.0,-0.3455811,-0.1879578,0.9193573,-33.55688,-3.624466,-28.19429,5.32135,0.6168376,0.7407971,1.0,-0.2975922,-0.2511139,0.9210663,34.9431,-5.294571,-27.6479,5.721222,0.4689151,0.8058121,-0.405021,1.039299,-0.1437026,0.01927339,0.7025684,-0.008558426,0.0,59.90845,31.37
1,-0.3384399,-0.1976318,0.9199982,1.0,-0.3455811,-0.1879578,0.9193573,-33.55688,-3.624466,-28.19429,5.32135,0.6168376,0.7407971,1.0,-0.2975922,-0.2511139,0.9210663,34.9431,-5.294571,-27.6479,5.721222,0.4689151,0.8058121,-0.405021,1.039299,-0.1437026,0.01927339,0.7025684,-0.008558426,0.0,59.90845,31.37
1,-0.3419189,-0.2327576,0.9104309000000002,0.9711987,-0.3634338,-0.2284087999999999,0.9031677,-33.72874,-3.619629,-28.25833,5.229782,0.6261866999999999,0.7494453000000001,0.7292139,-0.3251495,-0.2360534999999999,0.9157104,34.954190000000004,-5.321747,-27.69643,5.748459,0.4733059,0.8050786,-0.4052565,1.0397299999999998,-0.1450399,0.014418,0.7041563,-0.01072796,0.0,59.90845,31.37
1,-0.3419189,-0.2327576,0.9104309000000002,0.9711987,-0.3634338,-0.2284087999999999,0.9031677,-33.72874,-3.619629,-28.25833,5.229782,0.6261866999999999,0.7494453000000001,0.7292139,-0.3251495,-0.2360534999999999,0.9157104,34.954190000000004,-5.321747,-27.69643,5.748459,0.4733059,0.8050786,-0.4052565,1.0397299999999998,-0.1450399,0.014418,0.7041563,-0.01072796,0.0,59.90845,31.37
1,-0.3419189,-0.2327576,0.9104309000000002,0.9711987,-0.3634338,-0.2284087999999999,0.9031677,-33.72874,-3.619629,-28.25833,5.229782,0.6261866999999999,0.7494453000000001,0.7292139,-0.3251495,-0.2360534999999999,0.9157104,34.954190000000004,-5.321747,-27.69643,5.748459,0.4733059,0.8050786,-0.4052565,1.0397299999999998,-0.1450399,0.014418,0.7041563,-0.01072796,0.0,59.90845,31.37
2,-0.3444824,-0.2235869999999999,0.9117737,0.975717,-0.3700562,-0.2145081,0.9038849,-33.733979999999995,-3.650375,-28.27734,5.314926,0.6275276999999999,0.7483776999999999,0.7337776999999999,-0.322937,-0.2310027999999999,0.9177856,34.96884,-5.325027,-27.703190000000003,5.699814,0.472472,0.8042093000000001,-0.4055995,1.0398459999999998,-0.1466743,0.009985918,0.7061168999999999,-0.01352944,0.0,88.20581,31.37
2,-0.3444824,-0.2235869999999999,0.9117737,0.975717,-0.3700562,-0.2145081,0.9038849,-33.733979999999995,-3.650375,-28.27734,5.314926,0.6275276999999999,0.7483776999999999,0.7337776999999999,-0.322937,-0.2310027999999999,0.9177856,34.96884,-5.325027,-27.703190000000003,5.699814,0.472472,0.8042093000000001,-0.4055995,1.0398459999999998,-0.1466743,0.009985918,0.7061168999999999,-0.01352944,0.0,88.20581,31.37
2,-0.3444824,-0.2235869999999999,0.9117737,0.975717,-0.3700562,-0.2145081,0.9038849,-33.733979999999995,-3.650375,-28.27734,5.314926,0.6275276999999999,0.7483776999999999,0.7337776999999999,-0.322937,-0.2310027999999999,0.9177856,34.96884,-5.325027,-27.703190000000003,5.699814,0.472472,0.8042093000000001,-0.4055995,1.0398459999999998,-0.1466743,0.009985918,0.7061168999999999,-0.01352944,0.0,88.20581,31.37
2,-0.3282776,-0.2200775,0.9185791,0.9893435,-0.3563538,-0.2162323,0.9089661,-33.75999,-3.667557,-28.27927,5.312515,0.6260483,0.7489967,0.729444,-0.2979584,-0.2239685,0.9279175,35.05258,-5.402206,-27.71452,5.782516,0.4651308,0.8054111999999999,-0.4064627999999999,1.039671,-0.1508579,0.002580856,0.7121241999999999,-0.02114778,0.0,88.20581,31.37
2,-0.3282776,-0.2200775,0.9185791,0.9893435,-0.3563538,-0.2162323,0.9089661,-33.75999,-3.667557,-28.27927,5.312515,0.6260483,0.7489967,0.729444,-0.2979584,-0.2239685,0.9279175,35.05258,-5.402206,-27.71452,5.782516,0.4651308,0.8054111999999999,-0.4064627999999999,1.039671,-0.1508579,0.002580856,0.7121241999999999,-0.02114778,0.0,88.20581,31.37
2,-0.3282776,-0.2200775,0.9185791,0.9893435,-0.3563538,-0.2162323,0.9089661,-33.75999,-3.667557,-28.27927,5.312515,0.6260483,0.7489967,0.729444,-0.2979584,-0.2239685,0.9279175,35.05258,-5.402206,-27.71452,5.782516,0.4651308,0.8054111999999999,-0.4064627999999999,1.039671,-0.1508579,0.002580856,0.7121241999999999,-0.02114778,0.0,88.20581,31.37
2,-0.3238525,-0.2096251999999999,0.9225769,0.9950134,-0.3489075,-0.1984862999999999,0.9158936,-33.7301,-3.645248000000001,-28.26515,5.402176,0.6235852,0.7445949000000001,0.7609625,-0.2980347,-0.2208099,0.9286499,35.13966,-5.387314,-27.7235,5.687592,0.4621832999999999,0.8042539000000001,-0.4067588,1.039627,-0.153344,-0.0008760194,0.7159458000000001,-0.02511106,0.0,88.20581,31.37
2,-0.3238525,-0.2096251999999999,0.9225769,0.9950134,-0.3489075,-0.1984862999999999,0.9158936,-33.7301,-3.645248000000001,-28.26515,5.402176,0.6235852,0.7445949000000001,0.7609625,-0.2980347,-0.2208099,0.9286499,35.13966,-5.387314,-27.7235,5.687592,0.4621832999999999,0.8042539000000001,-0.4067588,1.039627,-0.153344,-0.0008760194,0.7159458000000001,-0.02511106,0.0,88.20581,31.37
2,-0.3238525,-0.2096251999999999,0.9225769,0.9950134,-0.3489075,-0.1984862999999999,0.9158936,-33.7301,-3.645248000000001,-28.26515,5.402176,0.6235852,0.7445949000000001,0.7609625,-0.2980347,-0.2208099,0.9286499,35.13966,-5.387314,-27.7235,5.687592,0.4621832999999999,0.8042539000000001,-0.4067588,1.039627,-0.153344,-0.0008760194,0.7159458000000001,-0.02511106,0.0,88.20581,31.37
2,-0.3238525,-0.2096251999999999,0.9225769,0.9950134,-0.3489075,-0.1984862999999999,0.9158936,-33.7301,-3.645248000000001,-28.26515,5.402176,0.6235852,0.7445949000000001,0.7609625,-0.2980347,-0.2208099,0.9286499,35.13966,-5.387314,-27.7235,5.687592,0.4621832999999999,0.8042539000000001,-0.4070414,1.0395370000000002,-0.1558164,-0.005447538,0.7199401,-0.02952803,0.0,88.20581,31.37
2,-0.3238525,-0.2096251999999999,0.9225769,0.9950134,-0.3489075,-0.1984862999999999,0.9158936,-33.7301,-3.645248000000001,-28.26515,5.402176,0.6235852,0.7445949000000001,0.7609625,-0.2980347,-0.2208099,0.9286499,35.13966,-5.387314,-27.7235,5.687592,0.4621832999999999,0.8042539000000001,-0.4070414,1.0395370000000002,-0.1558164,-0.005447538,0.7199401,-0.02952803,0.0,88.20581,31.37
2,-0.3238525,-0.2096251999999999,0.9225769,0.9950134,-0.3489075,-0.1984862999999999,0.9158936,-33.7301,-3.645248000000001,-28.26515,5.402176,0.6235852,0.7445949000000001,0.7609625,-0.2980347,-0.2208099,0.9286499,35.13966,-5.387314,-27.7235,5.687592,0.4621832999999999,0.8042539000000001,-0.4070414,1.0395370000000002,-0.1558164,-0.005447538,0.7199401,-0.02952803,0.0,88.20581,31.37
2,-0.3106079,-0.2151794,0.9258575,1.0,-0.3295288,-0.2083282,0.9208679,-33.71736,-3.646301,-28.24377,5.275726000000001,0.6197845000000001,0.7456529000000001,1.0,-0.2922210999999999,-0.2216949,0.9302826,35.15019,-5.392853,-27.72253,5.683289,0.4608089,0.804517,-0.4072496,1.039683,-0.1583253999999999,-0.01159957,0.7236208000000001,-0.03434463,0.0,63.823,31.37
2,-0.3106079,-0.2151794,0.9258575,1.0,-0.3295288,-0.2083282,0.9208679,-33.71736,-3.646301,-28.24377,5.275726000000001,0.6197845000000001,0.7456529000000001,1.0,-0.2922210999999999,-0.2216949,0.9302826,35.15019,-5.392853,-27.72253,5.683289,0.4608089,0.804517,-0.4072496,1.039683,-0.1583253999999999,-0.01159957,0.7236208000000001,-0.03434463,0.0,63.823,31.37
2,-0.3106079,-0.2151794,0.9258575,1.0,-0.3295288,-0.2083282,0.9208679,-33.71736,-3.646301,-28.24377,5.275726000000001,0.6197845000000001,0.7456529000000001,1.0,-0.2922210999999999,-0.2216949,0.9302826,35.15019,-5.392853,-27.72253,5.683289,0.4608089,0.804517,-0.4072496,1.039683,-0.1583253999999999,-0.01159957,0.7236208000000001,-0.03434463,0.0,63.823,31.37
2,0.0171814,-0.109848,0.9937897,0.955386,-0.05581665,-0.1194,0.991272,-32.08502,-3.2770080000000004,-27.51205,5.084671,0.5168465,0.7044659000000001,0.7818896,0.02404785,-0.1089172,0.9937439,36.94887,-5.121658,-27.4287,5.545273,0.3445696,0.7683747,-0.4073179999999999,1.040365,-0.1624242,-0.02812748,0.7275121999999999,-0.04419359,0.0,63.823,31.37
2,0.0171814,-0.109848,0.9937897,0.955386,-0.05581665,-0.1194,0.991272,-32.08502,-3.2770080000000004,-27.51205,5.084671,0.5168465,0.7044659000000001,0.7818896,0.02404785,-0.1089172,0.9937439,36.94887,-5.121658,-27.4287,5.545273,0.3445696,0.7683747,-0.4073179999999999,1.040365,-0.1624242,-0.02812748,0.7275121999999999,-0.04419359,0.0,63.823,31.37
2,0.0171814,-0.109848,0.9937897,0.955386,-0.05581665,-0.1194,0.991272,-32.08502,-3.2770080000000004,-27.51205,5.084671,0.5168465,0.7044659000000001,0.7818896,0.02404785,-0.1089172,0.9937439,36.94887,-5.121658,-27.4287,5.545273,0.3445696,0.7683747,-0.4073179999999999,1.040365,-0.1624242,-0.02812748,0.7275121999999999,-0.04419359,0.0,63.823,31.37
2,0.3457642,-0.03674316,0.9375916,1.0,0.2295532,-0.06040955,0.971405,-30.31677,-2.90834,-28.11711,5.345139,0.4095402999999999,0.6889858,1.0,0.3462372,-0.03665161,0.9374237,38.49832,-5.10672,-27.79538,5.754226999999999,0.2283033,0.7651898,-0.4072777,1.0404520000000002,-0.1640549,-0.0351966,0.7280797,-0.0497702,0.0,63.823,31.37
2,0.3457642,-0.03674316,0.9375916,1.0,0.2295532,-0.06040955,0.971405,-30.31677,-2.90834,-28.11711,5.345139,0.4095402999999999,0.6889858,1.0,0.3462372,-0.03665161,0.9374237,38.49832,-5.10672,-27.79538,5.754226999999999,0.2283033,0.7651898,-0.4072777,1.0404520000000002,-0.1640549,-0.0351966,0.7280797,-0.0497702,0.0,63.823,31.37
2,0.3457642,-0.03674316,0.9375916,1.0,0.2295532,-0.06040955,0.971405,-30.31677,-2.90834,-28.11711,5.345139,0.4095402999999999,0.6889858,1.0,0.3462372,-0.03665161,0.9374237,38.49832,-5.10672,-27.79538,5.754226999999999,0.2283033,0.7651898,-0.4072777,1.0404520000000002,-0.1640549,-0.0351966,0.7280797,-0.0497702,0.0,63.823,31.37
2,0.4234314,-0.03878784,0.9050903,1.0,0.4102936,-0.04064941,0.9110413,-29.64035,-2.947861,-28.392840000000003,5.422791,0.3548053,0.692813,1.0,0.5469055,-0.0202179,0.8369446,39.24232,-5.184174,-28.29288,5.93454,0.1520908,0.7816772,-0.4071542999999999,1.040383,-0.1653898999999999,-0.04035527,0.7279609,-0.05502108,0.0,127.5692,31.37
2,0.4234314,-0.03878784,0.9050903,1.0,0.4102936,-0.04064941,0.9110413,-29.64035,-2.947861,-28.392840000000003,5.422791,0.3548053,0.692813,1.0,0.5469055,-0.0202179,0.8369446,39.24232,-5.184174,-28.29288,5.93454,0.1520908,0.7816772,-0.4071542999999999,1.040383,-0.1653898999999999,-0.04035527,0.7279609,-0.05502108,0.0,127.5692,31.37
2,0.4234314,-0.03878784,0.9050903,1.0,0.4102936,-0.04064941,0.9110413,-29.64035,-2.947861,-28.392840000000003,5.422791,0.3548053,0.692813,1.0,0.5469055,-0.0202179,0.8369446,39.24232,-5.184174,-28.29288,5.93454,0.1520908,0.7816772,-0.4071542999999999,1.040383,-0.1653898999999999,-0.04035527,0.7279609,-0.05502108,0.0,127.5692,31.37
2,0.4280395999999999,-0.03007507,0.903244,0.9515999,0.4280395999999999,-0.03007507,0.903244,-29.58072,-2.999802,-28.4371,5.456314,0.3494722,0.69367,0.5955835999999999,0.0,0.0,0.0,39.89713,-5.179138,-29.19675,-1.0,0.06602576,0.8262506,-0.4068134,1.039872,-0.1674322999999999,-0.04720839,0.7273722,-0.06523525,0.0,127.5692,31.37
2,0.4280395999999999,-0.03007507,0.903244,0.9515999,0.4280395999999999,-0.03007507,0.903244,-29.58072,-2.999802,-28.4371,5.456314,0.3494722,0.69367,0.5955835999999999,0.0,0.0,0.0,39.89713,-5.179138,-29.19675,-1.0,0.06602576,0.8262506,-0.4068134,1.039872,-0.1674322999999999,-0.04720839,0.7273722,-0.06523525,0.0,127.5692,31.37
2,0.4280395999999999,-0.03007507,0.903244,0.9515999,0.4280395999999999,-0.03007507,0.903244,-29.58072,-2.999802,-28.4371,5.456314,0.3494722,0.69367,0.5955835999999999,0.0,0.0,0.0,39.89713,-5.179138,-29.19675,-1.0,0.06602576,0.8262506,-0.4068134,1.039872,-0.1674322999999999,-0.04720839,0.7273722,-0.06523525,0.0,127.5692,31.37
2,0.4210205,-0.02813721,0.906601,0.9326528,0.4205627,-0.02818298,0.9068146,-29.61426,-3.013443,-28.427840000000003,5.458542,0.3519705999999999,0.6935581999999999,0.62274,0.5288239,-0.01620483,0.8485718000000001,39.54211,-5.468323000000001,-28.42621,5.964233,0.1404925,0.7944034000000001,-0.4065564,1.039362,-0.16817,-0.04767615,0.7273377,-0.06875393,0.0,127.5692,31.37
2,0.4210205,-0.02813721,0.906601,0.9326528,0.4205627,-0.02818298,0.9068146,-29.61426,-3.013443,-28.427840000000003,5.458542,0.3519705999999999,0.6935581999999999,0.62274,0.5288239,-0.01620483,0.8485718000000001,39.54211,-5.468323000000001,-28.42621,5.964233,0.1404925,0.7944034000000001,-0.4065564,1.039362,-0.16817,-0.04767615,0.7273377,-0.06875393,0.0,127.5692,31.37
2,0.4210205,-0.02813721,0.906601,0.9326528,0.4205627,-0.02818298,0.9068146,-29.61426,-3.013443,-28.427840000000003,5.458542,0.3519705999999999,0.6935581999999999,0.62274,0.5288239,-0.01620483,0.8485718000000001,39.54211,-5.468323000000001,-28.42621,5.964233,0.1404925,0.7944034000000001,-0.4065564,1.039362,-0.16817,-0.04767615,0.7273377,-0.06875393,0.0,127.5692,31.37
2,0.4120026,-0.04449463,0.91008,0.9765744,0.4118805,-0.04469299,0.9101257,-29.58383,-3.014359,-28.42058,5.369553,0.3524334,0.696133,0.6348239,0.4763489000000001,0.05436707,0.8775635,39.53487,-5.493073000000001,-28.39017,6.029526000000001,0.1534679,0.7783011,-0.4063585,1.038887,-0.1685292,-0.04645028,0.7272105999999999,-0.07038749,0.0,127.5692,31.37
2,0.4120026,-0.04449463,0.91008,0.9765744,0.4118805,-0.04469299,0.9101257,-29.58383,-3.014359,-28.42058,5.369553,0.3524334,0.696133,0.6348239,0.4763489000000001,0.05436707,0.8775635,39.53487,-5.493073000000001,-28.39017,6.029526000000001,0.1534679,0.7783011,-0.4063585,1.038887,-0.1685292,-0.04645028,0.7272105999999999,-0.07038749,0.0,127.5692,31.37
2,0.4120026,-0.04449463,0.91008,0.9765744,0.4118805,-0.04469299,0.9101257,-29.58383,-3.014359,-28.42058,5.369553,0.3524334,0.696133,0.6348239,0.4763489000000001,0.05436707,0.8775635,39.53487,-5.493073000000001,-28.39017,6.029526000000001,0.1534679,0.7783011,-0.4063585,1.038887,-0.1685292,-0.04645028,0.7272105999999999,-0.07038749,0.0,127.5692,31.37
2,0.4091187,-0.04801941,0.9112091,1.0,0.407959,-0.05088806,0.9115601,-29.60802,-3.003357,-28.40738,5.371628,0.3539969,0.696624,1.0,0.4594420999999999,0.08970642,0.8836516999999999,39.54086,-5.502701,-28.38313,5.848007,0.1587569,0.7700832,-0.4062176,1.038368,-0.1686586,-0.0447548,0.727421,-0.07124092,0.0,127.5692,31.37
2,0.4091187,-0.04801941,0.9112091,1.0,0.407959,-0.05088806,0.9115601,-29.60802,-3.003357,-28.40738,5.371628,0.3539969,0.696624,1.0,0.4594420999999999,0.08970642,0.8836516999999999,39.54086,-5.502701,-28.38313,5.848007,0.1587569,0.7700832,-0.4062176,1.038368,-0.1686586,-0.0447548,0.727421,-0.07124092,0.0,127.5692,31.37
2,0.4091187,-0.04801941,0.9112091,1.0,0.407959,-0.05088806,0.9115601,-29.60802,-3.003357,-28.40738,5.371628,0.3539969,0.696624,1.0,0.4594420999999999,0.08970642,0.8836516999999999,39.54086,-5.502701,-28.38313,5.848007,0.1587569,0.7700832,-0.4062176,1.038368,-0.1686586,-0.0447548,0.727421,-0.07124092,0.0,127.5692,31.37
2,0.3970337,-0.04692078,0.9165955,0.9855288,0.3946381,-0.05021667,0.91745,-29.63339,-2.939697,-28.385590000000004,5.488876,0.3573855,0.6938842,0.6543645,0.4734649999999999,0.06373596,0.8784943000000001,39.57375,-5.491806,-28.364590000000003,5.898209,0.1538622999999999,0.7753335,-0.4060249,1.03839,-0.1682007,-0.0420592,0.7264639,-0.07002369,0.0,-61.21777,31.37
2,0.3970337,-0.04692078,0.9165955,0.9855288,0.3946381,-0.05021667,0.91745,-29.63339,-2.939697,-28.385590000000004,5.488876,0.3573855,0.6938842,0.6543645,0.4734649999999999,0.06373596,0.8784943000000001,39.57375,-5.491806,-28.364590000000003,5.898209,0.1538622999999999,0.7753335,-0.4060249,1.03839,-0.1682007,-0.0420592,0.7264639,-0.07002369,0.0,-61.21777,31.37
2,0.3970337,-0.04692078,0.9165955,0.9855288,0.3946381,-0.05021667,0.91745,-29.63339,-2.939697,-28.385590000000004,5.488876,0.3573855,0.6938842,0.6543645,0.4734649999999999,0.06373596,0.8784943000000001,39.57375,-5.491806,-28.364590000000003,5.898209,0.1538622999999999,0.7753335,-0.4060249,1.03839,-0.1682007,-0.0420592,0.7264639,-0.07002369,0.0,-61.21777,31.37
2,0.3992004,-0.04359436,0.9158173,0.9719391,0.3951720999999999,-0.04899597,0.9172821,-29.63651,-2.939499,-28.38216,5.436691000000001,0.3573715,0.6935839,0.6561673000000001,0.4802856,0.07164001,0.8741760000000001,39.56987,-5.47551,-28.38864,6.154739,0.1519552,0.7744058000000001,-0.406076,1.038494,-0.1674193,-0.04140218,0.7251314,-0.06918061,0.0,-61.21777,31.37
2,0.3992004,-0.04359436,0.9158173,0.9719391,0.3951720999999999,-0.04899597,0.9172821,-29.63651,-2.939499,-28.38216,5.436691000000001,0.3573715,0.6935839,0.6561673000000001,0.4802856,0.07164001,0.8741760000000001,39.56987,-5.47551,-28.38864,6.154739,0.1519552,0.7744058000000001,-0.406076,1.038494,-0.1674193,-0.04140218,0.7251314,-0.06918061,0.0,-61.21777,31.37
2,0.3992004,-0.04359436,0.9158173,0.9719391,0.3951720999999999,-0.04899597,0.9172821,-29.63651,-2.939499,-28.38216,5.436691000000001,0.3573715,0.6935839,0.6561673000000001,0.4802856,0.07164001,0.8741760000000001,39.56987,-5.47551,-28.38864,6.154739,0.1519552,0.7744058000000001,-0.406076,1.038494,-0.1674193,-0.04140218,0.7251314,-0.06918061,0.0,-61.21777,31.37
2,0.4044037,-0.04315186,0.913559,0.9991469,0.3953705,-0.04797363,0.9172516,-29.64172,-2.93808,-28.38049,5.453217,0.357529,0.6933585,0.6581039000000001,0.4972382000000001,0.008361816,0.867569,39.56381,-5.479584,-28.38188,6.047256,0.1475102999999999,0.7877575,-0.406121,1.038792,-0.1662057,-0.04080208,0.7230531,-0.0676388999999999,0.0,-61.21777,31.37
2,0.4044037,-0.04315186,0.913559,0.9991469,0.3953705,-0.04797363,0.9172516,-29.64172,-2.93808,-28.38049,5.453217,0.357529,0.6933585,0.6581039000000001,0.4972382000000001,0.008361816,0.867569,39.56381,-5.479584,-28.38188,6.047256,0.1475102999999999,0.7877575,-0.406121,1.038792,-0.1662057,-0.04080208,0.7230531,-0.0676388999999999,0.0,-61.21777,31.37
2,0.4044037,-0.04315186,0.913559,0.9991469,0.3953705,-0.04797363,0.9172516,-29.64172,-2.93808,-28.38049,5.453217,0.357529,0.6933585,0.6581039000000001,0.4972382000000001,0.008361816,0.867569,39.56381,-5.479584,-28.38188,6.047256,0.1475102999999999,0.7877575,-0.406121,1.038792,-0.1662057,-0.04080208,0.7230531,-0.0676388999999999,0.0,-61.21777,31.37
2,0.397995,-0.0001220703,0.9173737,1.0,0.397995,-0.0001220703,0.9173737,-29.77565,-3.077438,-28.40656,5.556839,0.3615892,0.6902374,1.0,0.0,0.0,0.0,39.5023,-5.37764,-28.57442,-1.0,0.1125851,0.7973762,-0.4062135,1.039111,-0.1651206,-0.04028718,0.7207054,-0.06555466,0.0,-61.21777,31.37
2,0.397995,-0.0001220703,0.9173737,1.0,0.397995,-0.0001220703,0.9173737,-29.77565,-3.077438,-28.40656,5.556839,0.3615892,0.6902374,1.0,0.0,0.0,0.0,39.5023,-5.37764,-28.57442,-1.0,0.1125851,0.7973762,-0.4062135,1.039111,-0.1651206,-0.04028718,0.7207054,-0.06555466,0.0,-61.21777,31.37
2,0.397995,-0.0001220703,0.9173737,1.0,0.397995,-0.0001220703,0.9173737,-29.77565,-3.077438,-28.40656,5.556839,0.3615892,0.6902374,1.0,0.0,0.0,0.0,39.5023,-5.37764,-28.57442,-1.0,0.1125851,0.7973762,-0.4062135,1.039111,-0.1651206,-0.04028718,0.7207054,-0.06555466,0.0,-61.21777,31.37
2,0.3820801,-0.03796387,0.9233398000000002,1.0,0.3783722,-0.04031372,0.9247589,-29.80174,-2.940872,-28.33902,5.365799,0.3660453,0.6912196,1.0,0.499588,0.04039001,0.8653107,39.43059,-5.420013,-28.34845,6.555801,0.1529124,0.7793498000000001,-0.4063622,1.039456,-0.1638101,-0.03993173,0.7183673,-0.06358001,0.0,-61.21777,31.37
2,0.3820801,-0.03796387,0.9233398000000002,1.0,0.3783722,-0.04031372,0.9247589,-29.80174,-2.940872,-28.33902,5.365799,0.3660453,0.6912196,1.0,0.499588,0.04039001,0.8653107,39.43059,-5.420013,-28.34845,6.555801,0.1529124,0.7793498000000001,-0.4063622,1.039456,-0.1638101,-0.03993173,0.7183673,-0.06358001,0.0,-61.21777,31.37
2,0.3820801,-0.03796387,0.9233398000000002,1.0,0.3783722,-0.04031372,0.9247589,-29.80174,-2.940872,-28.33902,5.365799,0.3660453,0.6912196,1.0,0.499588,0.04039001,0.8653107,39.43059,-5.420013,-28.34845,6.555801,0.1529124,0.7793498000000001,-0.4063622,1.039456,-0.1638101,-0.03993173,0.7183673,-0.06358001,0.0,-61.21777,31.37
2,0.3663482999999999,-0.0189209,0.9302826,1.0,0.356369,-0.03424072,0.9337158,-29.8694,-2.939316,-28.306990000000003,5.345322,0.3722528,0.6893132,1.0,0.4221344,0.07067871,0.9037628,39.33513,-5.459518,-28.23936,6.289749,0.1758713999999999,0.7692205,-0.4064293,1.039625,-0.1622757999999999,-0.03861833,0.7163999,-0.0614337,0.0,-23.60132,31.37
2,0.3663482999999999,-0.0189209,0.9302826,1.0,0.356369,-0.03424072,0.9337158,-29.8694,-2.939316,-28.306990000000003,5.345322,0.3722528,0.6893132,1.0,0.4221344,0.07067871,0.9037628,39.33513,-5.459518,-28.23936,6.289749,0.1758713999999999,0.7692205,-0.4064293,1.039625,-0.1622757999999999,-0.03861833,0.7163999,-0.0614337,0.0,-23.60132,31.37
2,0.3663482999999999,-0.0189209,0.9302826,1.0,0.356369,-0.03424072,0.9337158,-29.8694,-2.939316,-28.306990000000003,5.345322,0.3722528,0.6893132,1.0,0.4221344,0.07067871,0.9037628,39.33513,-5.459518,-28.23936,6.289749,0.1758713999999999,0.7692205,-0.4064293,1.039625,-0.1622757999999999,-0.03861833,0.7163999,-0.0614337,0.0,-23.60132,31.37
2,0.3655242999999999,-0.008834839,0.9307556,1.0,0.3418884,-0.02397156,0.9394226,-29.94029,-2.925507,-28.29274,5.309662,0.3772071,0.6866093000000001,1.0,0.4398956,0.04023743,0.8971252000000001,39.28397,-5.454117,-28.22643,6.221207,0.1739265,0.7751442,-0.4065126,1.039827,-0.1608211,-0.03688281,0.7145571,-0.05908997,0.0,-23.60132,31.37
2,0.3655242999999999,-0.008834839,0.9307556,1.0,0.3418884,-0.02397156,0.9394226,-29.94029,-2.925507,-28.29274,5.309662,0.3772071,0.6866093000000001,1.0,0.4398956,0.04023743,0.8971252000000001,39.28397,-5.454117,-28.22643,6.221207,0.1739265,0.7751442,-0.4065126,1.039827,-0.1608211,-0.03688281,0.7145571,-0.05908997,0.0,-23.60132,31.37
2,0.3655242999999999,-0.008834839,0.9307556,1.0,0.3418884,-0.02397156,0.9394226,-29.94029,-2.925507,-28.29274,5.309662,0.3772071,0.6866093000000001,1.0,0.4398956,0.04023743,0.8971252000000001,39.28397,-5.454117,-28.22643,6.221207,0.1739265,0.7751442,-0.4065126,1.039827,-0.1608211,-0.03688281,0.7145571,-0.05908997,0.0,-23.60132,31.37
2,0.3658447,-0.009353638,0.9306183,1.0,0.330719,-0.005554199,0.9437103,-30.00371,-2.908585,-28.28091,5.343459999999999,0.3813523,0.6825644000000001,1.0,0.4618377999999999,-0.01997375,0.886734,39.24454,-5.446899,-28.19582,6.046249,0.1704092,0.7867725999999999,-0.4067627,1.040009,-0.1591503,-0.03456703,0.7126994000000001,-0.05674537,0.0,-23.60132,31.37
2,0.3658447,-0.009353638,0.9306183,1.0,0.330719,-0.005554199,0.9437103,-30.00371,-2.908585,-28.28091,5.343459999999999,0.3813523,0.6825644000000001,1.0,0.4618377999999999,-0.01997375,0.886734,39.24454,-5.446899,-28.19582,6.046249,0.1704092,0.7867725999999999,-0.4067627,1.040009,-0.1591503,-0.03456703,0.7126994000000001,-0.05674537,0.0,-23.60132,31.37
2,0.3658447,-0.009353638,0.9306183,1.0,0.330719,-0.005554199,0.9437103,-30.00371,-2.908585,-28.28091,5.343459999999999,0.3813523,0.6825644000000001,1.0,0.4618377999999999,-0.01997375,0.886734,39.24454,-5.446899,-28.19582,6.046249,0.1704092,0.7867725999999999,-0.4067627,1.040009,-0.1591503,-0.03456703,0.7126994000000001,-0.05674537,0.0,-23.60132,31.37
2,-1.0,-1.0,-1.0,0.7265911999999999,0.0,0.0,0.0,-30.3382,-4.092361,-28.37997,-1.0,0.4027413,0.7645798,0.04534196,0.0,0.0,0.0,40.1693,-6.823410000000001,-29.03738,-1.0,-1.0,-1.0,-0.4067417,1.039895,-0.1554978,-0.02743203,0.7076306,-0.05159309,0.0,-23.60132,31.37
2,-1.0,-1.0,-1.0,0.7265911999999999,0.0,0.0,0.0,-30.3382,-4.092361,-28.37997,-1.0,0.4027413,0.7645798,0.04534196,0.0,0.0,0.0,40.1693,-6.823410000000001,-29.03738,-1.0,-1.0,-1.0,-0.4067417,1.039895,-0.1554978,-0.02743203,0.7076306,-0.05159309,0.0,-23.60132,31.37
2,-1.0,-1.0,-1.0,0.7265911999999999,0.0,0.0,0.0,-30.3382,-4.092361,-28.37997,-1.0,0.4027413,0.7645798,0.04534196,0.0,0.0,0.0,40.1693,-6.823410000000001,-29.03738,-1.0,-1.0,-1.0,-0.4067417,1.039895,-0.1554978,-0.02743203,0.7076306,-0.05159309,0.0,-23.60132,31.37
2,-1.0,-1.0,-1.0,0.7402122,0.0,0.0,0.0,-29.995790000000003,-2.826889,-28.21648,-1.0,0.3715512,0.7149850999999999,0.0,0.0,0.0,0.0,40.1693,-6.823410000000001,-29.03738,-1.0,-1.0,-1.0,-0.4068893,1.039777,-0.1533864,-0.022802,0.7042528,-0.04839314,0.0,30.63098,31.37
2,-1.0,-1.0,-1.0,0.7402122,0.0,0.0,0.0,-29.995790000000003,-2.826889,-28.21648,-1.0,0.3715512,0.7149850999999999,0.0,0.0,0.0,0.0,40.1693,-6.823410000000001,-29.03738,-1.0,-1.0,-1.0,-0.4068893,1.039777,-0.1533864,-0.022802,0.7042528,-0.04839314,0.0,30.63098,31.37
2,-1.0,-1.0,-1.0,0.7402122,0.0,0.0,0.0,-29.995790000000003,-2.826889,-28.21648,-1.0,0.3715512,0.7149850999999999,0.0,0.0,0.0,0.0,40.1693,-6.823410000000001,-29.03738,-1.0,-1.0,-1.0,-0.4068893,1.039777,-0.1533864,-0.022802,0.7042528,-0.04839314,0.0,30.63098,31.37
2,0.3537598,-0.323761,0.8775023999999999,0.9381985,0.0,0.0,0.0,-29.7939,-3.21843,-28.336990000000004,-1.0,0.3647579,0.7312145,0.1351852,0.3537598,-0.323761,0.8775023999999999,39.39415,-5.948181,-28.06183,4.438232,0.1809319999999999,0.8628687,-0.4068991,1.039621,-0.1512228,-0.01739641,0.700245,-0.04432388,0.0,30.63098,31.37
2,0.3537598,-0.323761,0.8775023999999999,0.9381985,0.0,0.0,0.0,-29.7939,-3.21843,-28.336990000000004,-1.0,0.3647579,0.7312145,0.1351852,0.3537598,-0.323761,0.8775023999999999,39.39415,-5.948181,-28.06183,4.438232,0.1809319999999999,0.8628687,-0.4068991,1.039621,-0.1512228,-0.01739641,0.700245,-0.04432388,0.0,30.63098,31.37
2,0.3537598,-0.323761,0.8775023999999999,0.9381985,0.0,0.0,0.0,-29.7939,-3.21843,-28.336990000000004,-1.0,0.3647579,0.7312145,0.1351852,0.3537598,-0.323761,0.8775023999999999,39.39415,-5.948181,-28.06183,4.438232,0.1809319999999999,0.8628687,-0.4068991,1.039621,-0.1512228,-0.01739641,0.700245,-0.04432388,0.0,30.63098,31.37
2,0.375,-0.1656036,0.9121094,1.0,0.375,-0.1656036,0.9121094,-29.8075,-3.165695,-28.33806,5.473083,0.3666997,0.7214725000000001,0.2771558,0.4152527,-0.1745453,0.8927917,39.38292,-5.897675,-28.1754,5.423828,0.1706252999999999,0.833734,-0.4069089,1.039664,-0.1488483,-0.01285555,0.695647,-0.03997822,0.0,30.63098,31.37
2,0.375,-0.1656036,0.9121094,1.0,0.375,-0.1656036,0.9121094,-29.8075,-3.165695,-28.33806,5.473083,0.3666997,0.7214725000000001,0.2771558,0.4152527,-0.1745453,0.8927917,39.38292,-5.897675,-28.1754,5.423828,0.1706252999999999,0.833734,-0.4069089,1.039664,-0.1488483,-0.01285555,0.695647,-0.03997822,0.0,30.63098,31.37
2,0.375,-0.1656036,0.9121094,1.0,0.375,-0.1656036,0.9121094,-29.8075,-3.165695,-28.33806,5.473083,0.3666997,0.7214725000000001,0.2771558,0.4152527,-0.1745453,0.8927917,39.38292,-5.897675,-28.1754,5.423828,0.1706252999999999,0.833734,-0.4069089,1.039664,-0.1488483,-0.01285555,0.695647,-0.03997822,0.0,30.63098,31.37
2,0.3679657,-0.198822,0.9083252,1.0,0.3677368,-0.1990356,0.908371,-29.9554,-3.183105,-28.27412,5.278351,0.3729942,0.7271652,0.3422743,0.4608612,-0.1033325,0.881424,39.493190000000006,-6.252991000000001,-28.40829,6.222976999999999,0.1515871,0.8418833,-0.4067631,1.039635,-0.1465257,-0.008162982,0.6904756,-0.03503997,0.0,30.63098,31.37
2,0.3679657,-0.198822,0.9083252,1.0,0.3677368,-0.1990356,0.908371,-29.9554,-3.183105,-28.27412,5.278351,0.3729942,0.7271652,0.3422743,0.4608612,-0.1033325,0.881424,39.493190000000006,-6.252991000000001,-28.40829,6.222976999999999,0.1515871,0.8418833,-0.4067631,1.039635,-0.1465257,-0.008162982,0.6904756,-0.03503997,0.0,30.63098,31.37
2,0.3679657,-0.198822,0.9083252,1.0,0.3677368,-0.1990356,0.908371,-29.9554,-3.183105,-28.27412,5.278351,0.3729942,0.7271652,0.3422743,0.4608612,-0.1033325,0.881424,39.493190000000006,-6.252991000000001,-28.40829,6.222976999999999,0.1515871,0.8418833,-0.4067631,1.039635,-0.1465257,-0.008162982,0.6904756,-0.03503997,0.0,30.63098,31.37
2,0.3960114,-0.2209625,0.8912505999999999,1.0,0.347702,-0.2231445,0.9106445,-30.03589,-3.073074,-28.23048,5.373291,0.3794032,0.7269216,0.4192659000000001,0.5722198000000001,-0.2069397,0.7935485999999999,39.27341,-5.774445,-28.33665,6.037186,0.1360969,0.8492878,-0.4068129,1.039793,-0.1440693,-0.004135104,0.684239,-0.03058257,0.0,30.63098,31.37
2,0.3960114,-0.2209625,0.8912505999999999,1.0,0.347702,-0.2231445,0.9106445,-30.03589,-3.073074,-28.23048,5.373291,0.3794032,0.7269216,0.4192659000000001,0.5722198000000001,-0.2069397,0.7935485999999999,39.27341,-5.774445,-28.33665,6.037186,0.1360969,0.8492878,-0.4068129,1.039793,-0.1440693,-0.004135104,0.684239,-0.03058257,0.0,30.63098,31.37
2,0.3960114,-0.2209625,0.8912505999999999,1.0,0.347702,-0.2231445,0.9106445,-30.03589,-3.073074,-28.23048,5.373291,0.3794032,0.7269216,0.4192659000000001,0.5722198000000001,-0.2069397,0.7935485999999999,39.27341,-5.774445,-28.33665,6.037186,0.1360969,0.8492878,-0.4068129,1.039793,-0.1440693,-0.004135104,0.684239,-0.03058257,0.0,30.63098,31.37
3,0.3798523,-0.1578217,0.9114685,1.0,0.3598175,-0.1804657,0.91539,-30.0892,-3.19313,-28.25502,5.457016,0.3791525,0.7238224,0.4394369000000001,0.4543304,-0.0684967,0.8881836,39.26262,-5.832718,-28.24536,6.213226000000001,0.1676006,0.8131285,-0.4068136,1.039826,-0.1416036,-0.0005660168,0.6778895,-0.02726148,0.0,-28.29529,31.37
3,0.3798523,-0.1578217,0.9114685,1.0,0.3598175,-0.1804657,0.91539,-30.0892,-3.19313,-28.25502,5.457016,0.3791525,0.7238224,0.4394369000000001,0.4543304,-0.0684967,0.8881836,39.26262,-5.832718,-28.24536,6.213226000000001,0.1676006,0.8131285,-0.4068136,1.039826,-0.1416036,-0.0005660168,0.6778895,-0.02726148,0.0,-28.29529,31.37
3,0.3798523,-0.1578217,0.9114685,1.0,0.3598175,-0.1804657,0.91539,-30.0892,-3.19313,-28.25502,5.457016,0.3791525,0.7238224,0.4394369000000001,0.4543304,-0.0684967,0.8881836,39.26262,-5.832718,-28.24536,6.213226000000001,0.1676006,0.8131285,-0.4068136,1.039826,-0.1416036,-0.0005660168,0.6778895,-0.02726148,0.0,-28.29529,31.37
3,0.3603668,-0.1735382,0.9165192,1.0,0.3274384,-0.1975708,0.9239807,-30.16032,-3.150101,-28.2287,5.323624,0.3871599,0.7244108,0.4409051999999999,0.4903869999999999,-0.0705718999999999,0.8686370999999999,39.15788,-5.762512,-28.2312,6.226883,0.1646942,0.8117905,-0.4067825,1.039837,-0.1391594,0.002505417,0.6703555999999999,-0.02385429,0.0,-28.29529,31.37
3,0.3603668,-0.1735382,0.9165192,1.0,0.3274384,-0.1975708,0.9239807,-30.16032,-3.150101,-28.2287,5.323624,0.3871599,0.7244108,0.4409051999999999,0.4903869999999999,-0.0705718999999999,0.8686370999999999,39.15788,-5.762512,-28.2312,6.226883,0.1646942,0.8117905,-0.4067825,1.039837,-0.1391594,0.002505417,0.6703555999999999,-0.02385429,0.0,-28.29529,31.37
3,0.3603668,-0.1735382,0.9165192,1.0,0.3274384,-0.1975708,0.9239807,-30.16032,-3.150101,-28.2287,5.323624,0.3871599,0.7244108,0.4409051999999999,0.4903869999999999,-0.0705718999999999,0.8686370999999999,39.15788,-5.762512,-28.2312,6.226883,0.1646942,0.8117905,-0.4067825,1.039837,-0.1391594,0.002505417,0.6703555999999999,-0.02385429,0.0,-28.29529,31.37
3,0.3169708,-0.1599731,0.9348297,1.0,0.2996368,-0.1797484999999999,0.9369507,-30.19745,-3.13382,-28.20488,5.446136,0.3933229,0.7199218000000001,0.4370082,0.3851776,-0.07846069,0.9194946,39.1266,-5.746796,-28.07625,6.079742,0.1902545,0.8052428,-0.4068685999999999,1.039717,-0.1368036,0.003765923,0.66269,-0.02161653,0.0,-28.29529,31.37
3,0.3169708,-0.1599731,0.9348297,1.0,0.2996368,-0.1797484999999999,0.9369507,-30.19745,-3.13382,-28.20488,5.446136,0.3933229,0.7199218000000001,0.4370082,0.3851776,-0.07846069,0.9194946,39.1266,-5.746796,-28.07625,6.079742,0.1902545,0.8052428,-0.4068685999999999,1.039717,-0.1368036,0.003765923,0.66269,-0.02161653,0.0,-28.29529,31.37
3,0.3169708,-0.1599731,0.9348297,1.0,0.2996368,-0.1797484999999999,0.9369507,-30.19745,-3.13382,-28.20488,5.446136,0.3933229,0.7199218000000001,0.4370082,0.3851776,-0.07846069,0.9194946,39.1266,-5.746796,-28.07625,6.079742,0.1902545,0.8052428,-0.4068685999999999,1.039717,-0.1368036,0.003765923,0.66269,-0.02161653,0.0,-28.29529,31.37
3,0.3011475,-0.177948,0.9368134,1.0,0.2779083,-0.1775207999999999,0.944046,-30.3071,-3.133194,-28.19235,5.422194999999999,0.4007988,0.7189956999999999,0.4271777,0.4060515999999999,-0.1785582999999999,0.896225,39.04059,-5.73262,-28.02876,5.9532620000000005,0.1880127,0.8251860000000001,-0.4068753,1.039786,-0.1345525,0.004153979,0.6551011,-0.01993898,0.0,-28.29529,31.37
3,0.3011475,-0.177948,0.9368134,1.0,0.2779083,-0.1775207999999999,0.944046,-30.3071,-3.133194,-28.19235,5.422194999999999,0.4007988,0.7189956999999999,0.4271777,0.4060515999999999,-0.1785582999999999,0.896225,39.04059,-5.73262,-28.02876,5.9532620000000005,0.1880127,0.8251860000000001,-0.4068753,1.039786,-0.1345525,0.004153979,0.6551011,-0.01993898,0.0,-28.29529,31.37
3,0.3011475,-0.177948,0.9368134,1.0,0.2779083,-0.1775207999999999,0.944046,-30.3071,-3.133194,-28.19235,5.422194999999999,0.4007988,0.7189956999999999,0.4271777,0.4060515999999999,-0.1785582999999999,0.896225,39.04059,-5.73262,-28.02876,5.9532620000000005,0.1880127,0.8251860000000001,-0.4068753,1.039786,-0.1345525,0.004153979,0.6551011,-0.01993898,0.0,-28.29529,31.37
3,0.3386688,-0.1440887,0.9297943,1.0,0.2676392,-0.16716,0.9488983,-30.34676,-3.132706,-28.19102,5.488739,0.4039532,0.7169847,0.4454774999999999,0.4681854,-0.0978241,0.8781891,38.9006,-5.71637,-28.09966,5.854172,0.1817542,0.8107408,-0.4069253,1.039992,-0.1325367999999999,0.002970099,0.6470884,-0.01885423,0.0,-28.29529,31.37
3,0.3386688,-0.1440887,0.9297943,1.0,0.2676392,-0.16716,0.9488983,-30.34676,-3.132706,-28.19102,5.488739,0.4039532,0.7169847,0.4454774999999999,0.4681854,-0.0978241,0.8781891,38.9006,-5.71637,-28.09966,5.854172,0.1817542,0.8107408,-0.4069253,1.039992,-0.1325367999999999,0.002970099,0.6470884,-0.01885423,0.0,-28.29529,31.37
3,0.3386688,-0.1440887,0.9297943,1.0,0.2676392,-0.16716,0.9488983,-30.34676,-3.132706,-28.19102,5.488739,0.4039532,0.7169847,0.4454774999999999,0.4681854,-0.0978241,0.8781891,38.9006,-5.71637,-28.09966,5.854172,0.1817542,0.8107408,-0.4069253,1.039992,-0.1325367999999999,0.002970099,0.6470884,-0.01885423,0.0,-28.29529,31.37
3,0.2722625999999999,-0.1687164,0.9473114,1.0,0.2414703,-0.1609039,0.9569702,-30.47368,-3.144165,-28.1662,5.473251,0.4127475,0.7156157,1.0,0.3653259,-0.1916656,0.9109192,38.8013,-5.732346,-27.912540000000003,5.800339,0.2071307,0.823298,-0.4070526,1.040246,-0.130817,0.002204037,0.640049,-0.01845968,0.0,-28.29529,31.37
3,0.2722625999999999,-0.1687164,0.9473114,1.0,0.2414703,-0.1609039,0.9569702,-30.47368,-3.144165,-28.1662,5.473251,0.4127475,0.7156157,1.0,0.3653259,-0.1916656,0.9109192,38.8013,-5.732346,-27.912540000000003,5.800339,0.2071307,0.823298,-0.4070526,1.040246,-0.130817,0.002204037,0.640049,-0.01845968,0.0,-28.29529,31.37
3,0.2722625999999999,-0.1687164,0.9473114,1.0,0.2414703,-0.1609039,0.9569702,-30.47368,-3.144165,-28.1662,5.473251,0.4127475,0.7156157,1.0,0.3653259,-0.1916656,0.9109192,38.8013,-5.732346,-27.912540000000003,5.800339,0.2071307,0.823298,-0.4070526,1.040246,-0.130817,0.002204037,0.640049,-0.01845968,0.0,-28.29529,31.37
3,0.2221375,-0.1424255,0.9645386,1.0,0.2053986,-0.1433105,0.9681244,-30.64005,-3.1811830000000003,-28.16168,5.537994,0.4245475,0.7133725999999999,1.0,0.2939605999999999,-0.1381073,0.9457703000000002,38.63429,-5.7444,-27.83752,6.072174,0.2290518999999999,0.8093458,-0.407284,1.040717,-0.129069,-0.0001220703,0.6326582,-0.01773468,0.0,188.132,31.37
3,0.2221375,-0.1424255,0.9645386,1.0,0.2053986,-0.1433105,0.9681244,-30.64005,-3.1811830000000003,-28.16168,5.537994,0.4245475,0.7133725999999999,1.0,0.2939605999999999,-0.1381073,0.9457703000000002,38.63429,-5.7444,-27.83752,6.072174,0.2290518999999999,0.8093458,-0.407284,1.040717,-0.129069,-0.0001220703,0.6326582,-0.01773468,0.0,188.132,31.37
3,0.2221375,-0.1424255,0.9645386,1.0,0.2053986,-0.1433105,0.9681244,-30.64005,-3.1811830000000003,-28.16168,5.537994,0.4245475,0.7133725999999999,1.0,0.2939605999999999,-0.1381073,0.9457703000000002,38.63429,-5.7444,-27.83752,6.072174,0.2290518999999999,0.8093458,-0.407284,1.040717,-0.129069,-0.0001220703,0.6326582,-0.01773468,0.0,188.132,31.37
3,0.1900024,-0.1478423999999999,0.9705811,1.0,0.1644592,-0.1461487,0.9754944,-30.7541,-3.215652,-28.14326,5.593735,0.4353051999999999,0.7145557,1.0,0.2522888,-0.1515808,0.9557037,38.52374,-5.761917,-27.79965,5.917206,0.2416712999999999,0.810423,-0.407479,1.040924,-0.1277817,-0.001115458,0.6263704999999999,-0.01714317,0.0,188.132,31.37
3,0.1900024,-0.1478423999999999,0.9705811,1.0,0.1644592,-0.1461487,0.9754944,-30.7541,-3.215652,-28.14326,5.593735,0.4353051999999999,0.7145557,1.0,0.2522888,-0.1515808,0.9557037,38.52374,-5.761917,-27.79965,5.917206,0.2416712999999999,0.810423,-0.407479,1.040924,-0.1277817,-0.001115458,0.6263704999999999,-0.01714317,0.0,188.132,31.37
3,0.1900024,-0.1478423999999999,0.9705811,1.0,0.1644592,-0.1461487,0.9754944,-30.7541,-3.215652,-28.14326,5.593735,0.4353051999999999,0.7145557,1.0,0.2522888,-0.1515808,0.9557037,38.52374,-5.761917,-27.79965,5.917206,0.2416712999999999,0.810423,-0.407479,1.040924,-0.1277817,-0.001115458,0.6263704999999999,-0.01714317,0.0,188.132,31.37
3,0.1900329999999999,-0.1683197,0.9672241,1.0,0.1496887,-0.1522217,0.9769287,-30.85518,-3.235794,-28.14084,5.595871,0.4412082,0.7162221999999999,1.0,0.2662964,-0.1982269,0.9432831,38.43671,-5.760971,-27.77773,5.789383,0.2419017,0.8194466999999999,-0.4077352,1.041213,-0.1268286,-0.002556929,0.6208452,-0.01668807,0.0,188.132,31.37
3,0.1900329999999999,-0.1683197,0.9672241,1.0,0.1496887,-0.1522217,0.9769287,-30.85518,-3.235794,-28.14084,5.595871,0.4412082,0.7162221999999999,1.0,0.2662964,-0.1982269,0.9432831,38.43671,-5.760971,-27.77773,5.789383,0.2419017,0.8194466999999999,-0.4077352,1.041213,-0.1268286,-0.002556929,0.6208452,-0.01668807,0.0,188.132,31.37
3,0.1900329999999999,-0.1683197,0.9672241,1.0,0.1496887,-0.1522217,0.9769287,-30.85518,-3.235794,-28.14084,5.595871,0.4412082,0.7162221999999999,1.0,0.2662964,-0.1982269,0.9432831,38.43671,-5.760971,-27.77773,5.789383,0.2419017,0.8194466999999999,-0.4077352,1.041213,-0.1268286,-0.002556929,0.6208452,-0.01668807,0.0,188.132,31.37
3,0.2584534,-0.1064911,0.9601288,1.0,0.2173308999999999,-0.09225464,0.9717255,-30.50096,-2.923782,-28.17278,5.502838,0.4179092,0.6957061999999999,1.0,0.3391265999999999,-0.1343231,0.9310913,38.52333,-5.40033,-27.78511,5.739441,0.226518,0.7949805,-0.4079574,1.041464,-0.126086,-0.003884254,0.6163626,-0.01596253,0.0,188.132,31.37
3,0.2584534,-0.1064911,0.9601288,1.0,0.2173308999999999,-0.09225464,0.9717255,-30.50096,-2.923782,-28.17278,5.502838,0.4179092,0.6957061999999999,1.0,0.3391265999999999,-0.1343231,0.9310913,38.52333,-5.40033,-27.78511,5.739441,0.226518,0.7949805,-0.4079574,1.041464,-0.126086,-0.003884254,0.6163626,-0.01596253,0.0,188.132,31.37
3,0.2584534,-0.1064911,0.9601288,1.0,0.2173308999999999,-0.09225464,0.9717255,-30.50096,-2.923782,-28.17278,5.502838,0.4179092,0.6957061999999999,1.0,0.3391265999999999,-0.1343231,0.9310913,38.52333,-5.40033,-27.78511,5.739441,0.226518,0.7949805,-0.4079574,1.041464,-0.126086,-0.003884254,0.6163626,-0.01596253,0.0,188.132,31.37
3,0.2681274,0.01794434,0.9632111,0.9187394,0.249588,0.004150391,0.968338,-30.30627,-2.497467,-28.17543,5.329926,0.4058877,0.6646249,0.6733335,0.3467255,0.0776825,0.9347382,38.59503,-4.839905,-27.84467,6.219498000000001,0.2254868,0.7358454000000001,-0.4082319,1.041837,-0.1254882,-0.005200539,0.6126071999999999,-0.01503151,0.0,107.421,31.37
3,0.2681274,0.01794434,0.9632111,0.9187394,0.249588,0.004150391,0.968338,-30.30627,-2.497467,-28.17543,5.329926,0.4058877,0.6646249,0.6733335,0.3467255,0.0776825,0.9347382,38.59503,-4.839905,-27.84467,6.219498000000001,0.2254868,0.7358454000000001,-0.4082319,1.041837,-0.1254882,-0.005200539,0.6126071999999999,-0.01503151,0.0,107.421,31.37
3,0.2681274,0.01794434,0.9632111,0.9187394,0.249588,0.004150391,0.968338,-30.30627,-2.497467,-28.17543,5.329926,0.4058877,0.6646249,0.6733335,0.3467255,0.0776825,0.9347382,38.59503,-4.839905,-27.84467,6.219498000000001,0.2254868,0.7358454000000001,-0.4082319,1.041837,-0.1254882,-0.005200539,0.6126071999999999,-0.01503151,0.0,107.421,31.37
3,0.2493744,0.02713013,0.9680176,0.9672703,0.219986,0.01739502,0.9753418,-30.456190000000003,-2.544342,-28.195590000000003,5.564896,0.4160734,0.6641821,0.8340653,0.3189087,0.05038452,0.9464417,38.57913,-4.998596,-27.8214,6.034515,0.2312337,0.7453359,-0.408394,1.042109,-0.1252492999999999,-0.0064472309999999,0.6100696,-0.01457322,0.0,107.421,31.37
3,0.2493744,0.02713013,0.9680176,0.9672703,0.219986,0.01739502,0.9753418,-30.456190000000003,-2.544342,-28.195590000000003,5.564896,0.4160734,0.6641821,0.8340653,0.3189087,0.05038452,0.9464417,38.57913,-4.998596,-27.8214,6.034515,0.2312337,0.7453359,-0.408394,1.042109,-0.1252492999999999,-0.0064472309999999,0.6100696,-0.01457322,0.0,107.421,31.37
3,0.2493744,0.02713013,0.9680176,0.9672703,0.219986,0.01739502,0.9753418,-30.456190000000003,-2.544342,-28.195590000000003,5.564896,0.4160734,0.6641821,0.8340653,0.3189087,0.05038452,0.9464417,38.57913,-4.998596,-27.8214,6.034515,0.2312337,0.7453359,-0.408394,1.042109,-0.1252492999999999,-0.0064472309999999,0.6100696,-0.01457322,0.0,107.421,31.37
3,0.2441101,0.0184020999999999,0.9695587,0.9809881,0.2010651,0.01417542,0.9794617,-30.55269,-2.478928,-28.30025,5.591461,0.4225255,0.6634903,0.8478815999999999,0.2924805,0.02316284,0.9559784,38.52847,-4.946945,-27.7697,5.908066000000001,0.2384813,0.7469296,-0.4086137999999999,1.042492,-0.1251313999999999,-0.007816314,0.6078036,-0.01360742,0.0,107.421,31.37
3,0.2441101,0.0184020999999999,0.9695587,0.9809881,0.2010651,0.01417542,0.9794617,-30.55269,-2.478928,-28.30025,5.591461,0.4225255,0.6634903,0.8478815999999999,0.2924805,0.02316284,0.9559784,38.52847,-4.946945,-27.7697,5.908066000000001,0.2384813,0.7469296,-0.4086137999999999,1.042492,-0.1251313999999999,-0.007816314,0.6078036,-0.01360742,0.0,107.421,31.37
3,0.2441101,0.0184020999999999,0.9695587,0.9809881,0.2010651,0.01417542,0.9794617,-30.55269,-2.478928,-28.30025,5.591461,0.4225255,0.6634903,0.8478815999999999,0.2924805,0.02316284,0.9559784,38.52847,-4.946945,-27.7697,5.908066000000001,0.2384813,0.7469296,-0.4086137999999999,1.042492,-0.1251313999999999,-0.007816314,0.6078036,-0.01360742,0.0,107.421,31.37
3,0.2673645,0.02192688,0.9633331,1.0,0.182785,0.0171814,0.9829865,-30.59555,-2.412338,-28.58698,5.676208,0.4269729999999999,0.6636978,1.0,0.2831268,0.02279663,0.9588013,38.4688,-4.978485,-27.75804,6.002594,0.2424351,0.7479286,-0.4087731,1.04274,-0.1251053999999999,-0.009140613,0.606218,-0.01339384,0.0,107.421,31.37
3,0.2673645,0.02192688,0.9633331,1.0,0.182785,0.0171814,0.9829865,-30.59555,-2.412338,-28.58698,5.676208,0.4269729999999999,0.6636978,1.0,0.2831268,0.02279663,0.9588013,38.4688,-4.978485,-27.75804,6.002594,0.2424351,0.7479286,-0.4087731,1.04274,-0.1251053999999999,-0.009140613,0.606218,-0.01339384,0.0,107.421,31.37
3,0.2673645,0.02192688,0.9633331,1.0,0.182785,0.0171814,0.9829865,-30.59555,-2.412338,-28.58698,5.676208,0.4269729999999999,0.6636978,1.0,0.2831268,0.02279663,0.9588013,38.4688,-4.978485,-27.75804,6.002594,0.2424351,0.7479286,-0.4087731,1.04274,-0.1251053999999999,-0.009140613,0.606218,-0.01339384,0.0,107.421,31.37
3,0.2646942,0.02671814,0.9639587,1.0,0.1791077,0.02182007,0.9835815,-30.65741,-2.243835,-29.08115,5.6407620000000005,0.4295135999999999,0.6623256,1.0,0.2647705,0.02671814,0.9639282,38.40897,-4.973663,-27.73903,6.022064,0.2482984,0.746424,-0.4088395,1.042978,-0.1250461,-0.0105416,0.6046278,-0.01299375,0.0,107.421,31.37
3,0.2646942,0.02671814,0.9639587,1.0,0.1791077,0.02182007,0.9835815,-30.65741,-2.243835,-29.08115,5.6407620000000005,0.4295135999999999,0.6623256,1.0,0.2647705,0.02671814,0.9639282,38.40897,-4.973663,-27.73903,6.022064,0.2482984,0.746424,-0.4088395,1.042978,-0.1250461,-0.0105416,0.6046278,-0.01299375,0.0,107.421,31.37
3,0.2646942,0.02671814,0.9639587,1.0,0.1791077,0.02182007,0.9835815,-30.65741,-2.243835,-29.08115,5.6407620000000005,0.4295135999999999,0.6623256,1.0,0.2647705,0.02671814,0.9639282,38.40897,-4.973663,-27.73903,6.022064,0.2482984,0.746424,-0.4088395,1.042978,-0.1250461,-0.0105416,0.6046278,-0.01299375,0.0,107.421,31.37
3,0.2474976,0.03678894,0.9681854,0.9709094,0.1656952,0.01815796,0.9860077,-30.67352,-2.104187,-29.56013,5.5974580000000005,0.4321489,0.6631260999999999,0.9723284,0.2474976,0.03678894,0.9681854,38.38701,-4.976364,-27.7399,6.095047,0.2524048,0.744533,-0.4090555999999999,1.043234,-0.1250724,-0.01249984,0.6027355999999999,-0.01286467,0.0,-143.0526,31.37
3,0.2474976,0.03678894,0.9681854,0.9709094,0.1656952,0.01815796,0.9860077,-30.67352,-2.104187,-29.56013,5.5974580000000005,0.4321489,0.6631260999999999,0.9723284,0.2474976,0.03678894,0.9681854,38.38701,-4.976364,-27.7399,6.095047,0.2524048,0.744533,-0.4090555999999999,1.043234,-0.1250724,-0.01249984,0.6027355999999999,-0.01286467,0.0,-143.0526,31.37
3,0.2474976,0.03678894,0.9681854,0.9709094,0.1656952,0.01815796,0.9860077,-30.67352,-2.104187,-29.56013,5.5974580000000005,0.4321489,0.6631260999999999,0.9723284,0.2474976,0.03678894,0.9681854,38.38701,-4.976364,-27.7399,6.095047,0.2524048,0.744533,-0.4090555999999999,1.043234,-0.1250724,-0.01249984,0.6027355999999999,-0.01286467,0.0,-143.0526,31.37
3,0.2360687,0.02920532,0.971283,0.9366941,0.1463622999999999,-0.01055908,0.9891663,-30.78496,-1.902496,-30.19873,5.432068,0.4390236,0.6676532,0.9982259,0.2360687,0.02920532,0.971283,38.30461,-4.979996,-27.72629,6.070358000000001,0.2576514,0.7455515,-0.4091415,1.043403,-0.1250948999999999,-0.01419274,0.6014253,-0.01316889,0.0,-143.0526,31.37
3,0.2360687,0.02920532,0.971283,0.9366941,0.1463622999999999,-0.01055908,0.9891663,-30.78496,-1.902496,-30.19873,5.432068,0.4390236,0.6676532,0.9982259,0.2360687,0.02920532,0.971283,38.30461,-4.979996,-27.72629,6.070358000000001,0.2576514,0.7455515,-0.4091415,1.043403,-0.1250948999999999,-0.01419274,0.6014253,-0.01316889,0.0,-143.0526,31.37
3,0.2360687,0.02920532,0.971283,0.9366941,0.1463622999999999,-0.01055908,0.9891663,-30.78496,-1.902496,-30.19873,5.432068,0.4390236,0.6676532,0.9982259,0.2360687,0.02920532,0.971283,38.30461,-4.979996,-27.72629,6.070358000000001,0.2576514,0.7455515,-0.4091415,1.043403,-0.1250948999999999,-0.01419274,0.6014253,-0.01316889,0.0,-143.0526,31.37
3,0.1980286,0.01829529,0.980011,1.0,0.1326293999999999,0.002426147,0.9911499,-30.83186,-1.91803,-30.10414,5.58078,0.4430435,0.6650258000000001,1.0,0.2062377999999999,0.02029419,0.9782867,38.2482,-4.967804,-27.74417,5.993926999999999,0.2652792,0.7462996999999999,-0.4092757,1.04374,-0.1250948999999999,-0.01647158,0.5997305,-0.01246463,0.0,-143.0526,31.37
3,0.1980286,0.01829529,0.980011,1.0,0.1326293999999999,0.002426147,0.9911499,-30.83186,-1.91803,-30.10414,5.58078,0.4430435,0.6650258000000001,1.0,0.2062377999999999,0.02029419,0.9782867,38.2482,-4.967804,-27.74417,5.993926999999999,0.2652792,0.7462996999999999,-0.4092757,1.04374,-0.1250948999999999,-0.01647158,0.5997305,-0.01246463,0.0,-143.0526,31.37
3,0.1980286,0.01829529,0.980011,1.0,0.1326293999999999,0.002426147,0.9911499,-30.83186,-1.91803,-30.10414,5.58078,0.4430435,0.6650258000000001,1.0,0.2062377999999999,0.02029419,0.9782867,38.2482,-4.967804,-27.74417,5.993926999999999,0.2652792,0.7462996999999999,-0.4092757,1.04374,-0.1250948999999999,-0.01647158,0.5997305,-0.01246463,0.0,-143.0526,31.37
3,0.1818085,0.02500916,0.9830017,1.0,0.1276245,-0.00843811,0.9917755,-30.88748,-2.006958,-29.89081,5.621994,0.4458598,0.6677289000000001,1.0,0.1974945,0.03475952,0.9796753,38.17146,-5.013062000000001,-27.7368,6.032043,0.2697505,0.745154,-0.4092491,1.04414,-0.1251857,-0.01878059,0.5979778,-0.01248344,0.0,-143.0526,31.37
3,0.1818085,0.02500916,0.9830017,1.0,0.1276245,-0.00843811,0.9917755,-30.88748,-2.006958,-29.89081,5.621994,0.4458598,0.6677289000000001,1.0,0.1974945,0.03475952,0.9796753,38.17146,-5.013062000000001,-27.7368,6.032043,0.2697505,0.745154,-0.4092491,1.04414,-0.1251857,-0.01878059,0.5979778,-0.01248344,0.0,-143.0526,31.37
3,0.1818085,0.02500916,0.9830017,1.0,0.1276245,-0.00843811,0.9917755,-30.88748,-2.006958,-29.89081,5.621994,0.4458598,0.6677289000000001,1.0,0.1974945,0.03475952,0.9796753,38.17146,-5.013062000000001,-27.7368,6.032043,0.2697505,0.745154,-0.4092491,1.04414,-0.1251857,-0.01878059,0.5979778,-0.01248344,0.0,-143.0526,31.37
3,0.1170502,0.0005493164,0.9931183,1.0,0.0994873,-0.004577637,0.9950256,-30.99159,-2.055984,-29.83763,5.613892,0.4541762,0.6680934000000001,1.0,0.1772156,0.01829529,0.9839935,38.06784,-4.965927,-27.96637,6.117218,0.2765700999999999,0.7490211999999999,-0.4092301,1.044876,-0.125357,-0.0239113,0.5957453,-0.01238307,0.0,-143.0526,31.37
3,0.1170502,0.0005493164,0.9931183,1.0,0.0994873,-0.004577637,0.9950256,-30.99159,-2.055984,-29.83763,5.613892,0.4541762,0.6680934000000001,1.0,0.1772156,0.01829529,0.9839935,38.06784,-4.965927,-27.96637,6.117218,0.2765700999999999,0.7490211999999999,-0.4092301,1.044876,-0.125357,-0.0239113,0.5957453,-0.01238307,0.0,-143.0526,31.37
3,0.1170502,0.0005493164,0.9931183,1.0,0.0994873,-0.004577637,0.9950256,-30.99159,-2.055984,-29.83763,5.613892,0.4541762,0.6680934000000001,1.0,0.1772156,0.01829529,0.9839935,38.06784,-4.965927,-27.96637,6.117218,0.2765700999999999,0.7490211999999999,-0.4092301,1.044876,-0.125357,-0.0239113,0.5957453,-0.01238307,0.0,-143.0526,31.37
3,0.08805847,-0.001922607,0.996109,1.0,0.08703613,-0.002304077,0.9962006,-31.03806,-2.113068,-29.74762,5.521164,0.4578545,0.668573,1.0,0.1523895,0.0229949999999999,0.9880371,38.00674,-4.702728,-28.80876,6.066955999999999,0.2818419,0.7483907,-0.4092897,1.045162,-0.1252664,-0.02616935,0.5948889,-0.01194637,0.0,-127.3322,31.43
3,0.08805847,-0.001922607,0.996109,1.0,0.08703613,-0.002304077,0.9962006,-31.03806,-2.113068,-29.74762,5.521164,0.4578545,0.668573,1.0,0.1523895,0.0229949999999999,0.9880371,38.00674,-4.702728,-28.80876,6.066955999999999,0.2818419,0.7483907,-0.4092897,1.045162,-0.1252664,-0.02616935,0.5948889,-0.01194637,0.0,-127.3322,31.43
3,0.08805847,-0.001922607,0.996109,1.0,0.08703613,-0.002304077,0.9962006,-31.03806,-2.113068,-29.74762,5.521164,0.4578545,0.668573,1.0,0.1523895,0.0229949999999999,0.9880371,38.00674,-4.702728,-28.80876,6.066955999999999,0.2818419,0.7483907,-0.4092897,1.045162,-0.1252664,-0.02616935,0.5948889,-0.01194637,0.0,-127.3322,31.43
3,0.08192444,-0.01109314,0.9965668,1.0,0.08192444,-0.01109314,0.9965668,-31.1021,-2.193298,-29.44482,5.551468,0.4609463,0.6696344,1.0,0.1488799999999999,0.02027893,0.9886322,37.90508,-4.37764,-29.6232,6.119629,0.2846112999999999,0.7469709,-0.4092735,1.045352,-0.1255887,-0.027843,0.5945647,-0.01202811,0.0,-127.3322,31.43
3,0.08192444,-0.01109314,0.9965668,1.0,0.08192444,-0.01109314,0.9965668,-31.1021,-2.193298,-29.44482,5.551468,0.4609463,0.6696344,1.0,0.1488799999999999,0.02027893,0.9886322,37.90508,-4.37764,-29.6232,6.119629,0.2846112999999999,0.7469709,-0.4092735,1.045352,-0.1255887,-0.027843,0.5945647,-0.01202811,0.0,-127.3322,31.43
3,0.08192444,-0.01109314,0.9965668,1.0,0.08192444,-0.01109314,0.9965668,-31.1021,-2.193298,-29.44482,5.551468,0.4609463,0.6696344,1.0,0.1488799999999999,0.02027893,0.9886322,37.90508,-4.37764,-29.6232,6.119629,0.2846112999999999,0.7469709,-0.4092735,1.045352,-0.1255887,-0.027843,0.5945647,-0.01202811,0.0,-127.3322,31.43
3,0.03048706,0.100174,0.9944916,1.0,0.03048706,0.100174,0.9944916,-31.15175,-1.418701,-30.13028,5.4492650000000005,0.4713772,0.6310619000000001,1.0,0.07147217,0.1110992,0.9912261999999998,37.489,-2.9191130000000003,-31.693340000000003,5.779739,0.3131852,0.7003519,-0.4091830999999999,1.045766,-0.1257686,-0.0292438,0.5950263000000001,-0.01183673,0.0,-127.3322,31.43
3,0.03048706,0.100174,0.9944916,1.0,0.03048706,0.100174,0.9944916,-31.15175,-1.418701,-30.13028,5.4492650000000005,0.4713772,0.6310619000000001,1.0,0.07147217,0.1110992,0.9912261999999998,37.489,-2.9191130000000003,-31.693340000000003,5.779739,0.3131852,0.7003519,-0.4091830999999999,1.045766,-0.1257686,-0.0292438,0.5950263000000001,-0.01183673,0.0,-127.3322,31.43
3,0.03048706,0.100174,0.9944916,1.0,0.03048706,0.100174,0.9944916,-31.15175,-1.418701,-30.13028,5.4492650000000005,0.4713772,0.6310619000000001,1.0,0.07147217,0.1110992,0.9912261999999998,37.489,-2.9191130000000003,-31.693340000000003,5.779739,0.3131852,0.7003519,-0.4091830999999999,1.045766,-0.1257686,-0.0292438,0.5950263000000001,-0.01183673,0.0,-127.3322,31.43
3,-0.002410889,0.1966705,0.9804535,1.0,-0.002410889,0.1966705,0.9804535,-31.42056,-0.345459,-31.523740000000004,5.497803,0.4864975,0.5921960000000001,1.0,0.04234314,0.2342682,0.9712372,37.10159,-3.127457,-28.86105,6.036651999999999,0.3371230999999999,0.6551397,-0.4090533,1.046133,-0.1261874,-0.03034608,0.5954895,-0.01156032,0.0,-127.3322,31.43
3,-0.002410889,0.1966705,0.9804535,1.0,-0.002410889,0.1966705,0.9804535,-31.42056,-0.345459,-31.523740000000004,5.497803,0.4864975,0.5921960000000001,1.0,0.04234314,0.2342682,0.9712372,37.10159,-3.127457,-28.86105,6.036651999999999,0.3371230999999999,0.6551397,-0.4090533,1.046133,-0.1261874,-0.03034608,0.5954895,-0.01156032,0.0,-127.3322,31.43
3,-0.002410889,0.1966705,0.9804535,1.0,-0.002410889,0.1966705,0.9804535,-31.42056,-0.345459,-31.523740000000004,5.497803,0.4864975,0.5921960000000001,1.0,0.04234314,0.2342682,0.9712372,37.10159,-3.127457,-28.86105,6.036651999999999,0.3371230999999999,0.6551397,-0.4090533,1.046133,-0.1261874,-0.03034608,0.5954895,-0.01156032,0.0,-127.3322,31.43
3,0.01383972,0.2042389,0.9788055,1.0,0.01383972,0.2042389,0.9788055,-31.58351,-1.17067,-29.78296,5.596542,0.4890649999999999,0.6018796999999999,1.0,0.04293823,0.2541504,0.9662018,37.0611,-3.288681,-28.93468,6.029297,0.3382853,0.6581885999999999,-0.409085,1.046026,-0.1266436,-0.02989103,0.5968369000000001,-0.0118804,0.0,-127.3322,31.43
3,0.01383972,0.2042389,0.9788055,1.0,0.01383972,0.2042389,0.9788055,-31.58351,-1.17067,-29.78296,5.596542,0.4890649999999999,0.6018796999999999,1.0,0.04293823,0.2541504,0.9662018,37.0611,-3.288681,-28.93468,6.029297,0.3382853,0.6581885999999999,-0.409085,1.046026,-0.1266436,-0.02989103,0.5968369000000001,-0.0118804,0.0,-127.3322,31.43
3,0.01383972,0.2042389,0.9788055,1.0,0.01383972,0.2042389,0.9788055,-31.58351,-1.17067,-29.78296,5.596542,0.4890649999999999,0.6018796999999999,1.0,0.04293823,0.2541504,0.9662018,37.0611,-3.288681,-28.93468,6.029297,0.3382853,0.6581885999999999,-0.409085,1.046026,-0.1266436,-0.02989103,0.5968369000000001,-0.0118804,0.0,-127.3322,31.43
3,0.0393219,0.2381592,0.9704132,1.0,0.001449585,0.1956023999999999,0.9806671,-31.65115,-1.288086,-29.64954,5.523514,0.4934345,0.6059038,1.0,0.0393219,0.2381592,0.9704132,37.04347,-3.312042,-29.04051,6.013535,0.3393435,0.6628389,-0.4090824,1.046016,-0.1270482,-0.03013431,0.5982409000000001,-0.01190545,0.0,-90.21132,31.43
3,0.0393219,0.2381592,0.9704132,1.0,0.001449585,0.1956023999999999,0.9806671,-31.65115,-1.288086,-29.64954,5.523514,0.4934345,0.6059038,1.0,0.0393219,0.2381592,0.9704132,37.04347,-3.312042,-29.04051,6.013535,0.3393435,0.6628389,-0.4090824,1.046016,-0.1270482,-0.03013431,0.5982409000000001,-0.01190545,0.0,-90.21132,31.43
3,0.0393219,0.2381592,0.9704132,1.0,0.001449585,0.1956023999999999,0.9806671,-31.65115,-1.288086,-29.64954,5.523514,0.4934345,0.6059038,1.0,0.0393219,0.2381592,0.9704132,37.04347,-3.312042,-29.04051,6.013535,0.3393435,0.6628389,-0.4090824,1.046016,-0.1270482,-0.03013431,0.5982409000000001,-0.01190545,0.0,-90.21132,31.43
3,0.01553345,0.2169342,0.976059,1.0,0.003128052,0.2030333999999999,0.9791565,-31.69751,-1.324692,-29.51347,5.576462,0.4947157,0.6046276999999999,1.0,0.04675293,0.2515869,0.9666901,37.01526,-3.474594,-28.74557,6.030289,0.3393620999999999,0.6630971,-0.4091167,1.046036,-0.1273558,-0.03039122,0.5995644,-0.01183295,0.0,-90.21132,31.43
3,0.01553345,0.2169342,0.976059,1.0,0.003128052,0.2030333999999999,0.9791565,-31.69751,-1.324692,-29.51347,5.576462,0.4947157,0.6046276999999999,1.0,0.04675293,0.2515869,0.9666901,37.01526,-3.474594,-28.74557,6.030289,0.3393620999999999,0.6630971,-0.4091167,1.046036,-0.1273558,-0.03039122,0.5995644,-0.01183295,0.0,-90.21132,31.43
3,0.01553345,0.2169342,0.976059,1.0,0.003128052,0.2030333999999999,0.9791565,-31.69751,-1.324692,-29.51347,5.576462,0.4947157,0.6046276999999999,1.0,0.04675293,0.2515869,0.9666901,37.01526,-3.474594,-28.74557,6.030289,0.3393620999999999,0.6630971,-0.4091167,1.046036,-0.1273558,-0.03039122,0.5995644,-0.01183295,0.0,-90.21132,31.43
3,0.007904053,0.2133179,0.976944,1.0,0.001708984,0.2059630999999999,0.9785461,-31.70262,-1.307037,-29.53171,5.579025,0.4951360999999999,0.603735,1.0,0.03790283,0.248642,0.9678497,37.03773,-3.378082,-28.98906,6.016495,0.3398594,0.6628177,-0.4090741,1.046065,-0.1277458,-0.03093128,0.6009741,-0.0116486,0.0,-90.21132,31.43
3,0.007904053,0.2133179,0.976944,1.0,0.001708984,0.2059630999999999,0.9785461,-31.70262,-1.307037,-29.53171,5.579025,0.4951360999999999,0.603735,1.0,0.03790283,0.248642,0.9678497,37.03773,-3.378082,-28.98906,6.016495,0.3398594,0.6628177,-0.4090741,1.046065,-0.1277458,-0.03093128,0.6009741,-0.0116486,0.0,-90.21132,31.43
3,0.007904053,0.2133179,0.976944,1.0,0.001708984,0.2059630999999999,0.9785461,-31.70262,-1.307037,-29.53171,5.579025,0.4951360999999999,0.603735,1.0,0.03790283,0.248642,0.9678497,37.03773,-3.378082,-28.98906,6.016495,0.3398594,0.6628177,-0.4090741,1.046065,-0.1277458,-0.03093128,0.6009741,-0.0116486,0.0,-90.21132,31.43
4,0.01097107,0.2333984,0.9723053,1.0,-0.002151489,0.2118683,0.9772797,-31.73112,-1.246307,-29.6627,5.57991,0.4967984,0.6020066999999999,1.0,0.03208923,0.2676697,0.9629669,36.97476,-3.3918760000000003,-28.86122,6.111786,0.3432886,0.6588544,-0.4090970999999999,1.046366,-0.1281086,-0.03207257,0.602571,-0.01140851,0.0,-90.21132,31.43
4,0.01097107,0.2333984,0.9723053,1.0,-0.002151489,0.2118683,0.9772797,-31.73112,-1.246307,-29.6627,5.57991,0.4967984,0.6020066999999999,1.0,0.03208923,0.2676697,0.9629669,36.97476,-3.3918760000000003,-28.86122,6.111786,0.3432886,0.6588544,-0.4090970999999999,1.046366,-0.1281086,-0.03207257,0.602571,-0.01140851,0.0,-90.21132,31.43
4,0.01097107,0.2333984,0.9723053,1.0,-0.002151489,0.2118683,0.9772797,-31.73112,-1.246307,-29.6627,5.57991,0.4967984,0.6020066999999999,1.0,0.03208923,0.2676697,0.9629669,36.97476,-3.3918760000000003,-28.86122,6.111786,0.3432886,0.6588544,-0.4090970999999999,1.046366,-0.1281086,-0.03207257,0.602571,-0.01140851,0.0,-90.21132,31.43
4,0.01390076,0.2399291999999999,0.9706879,1.0,-0.00881958,0.2045441,0.9788055,-31.746540000000003,-1.196884,-29.68814,5.580856,0.4984582999999999,0.6018059,1.0,0.03575134,0.2735442999999999,0.9611816,36.96271,-3.383881,-28.87178,6.072327,0.3430932,0.6576204999999999,-0.4091893,1.04657,-0.1285988,-0.03318472,0.6042371999999999,-0.01096461,0.0,-90.21132,31.43
4,0.01390076,0.2399291999999999,0.9706879,1.0,-0.00881958,0.2045441,0.9788055,-31.746540000000003,-1.196884,-29.68814,5.580856,0.4984582999999999,0.6018059,1.0,0.03575134,0.2735442999999999,0.9611816,36.96271,-3.383881,-28.87178,6.072327,0.3430932,0.6576204999999999,-0.4091893,1.04657,-0.1285988,-0.03318472,0.6042371999999999,-0.01096461,0.0,-90.21132,31.43
4,0.01390076,0.2399291999999999,0.9706879,1.0,-0.00881958,0.2045441,0.9788055,-31.746540000000003,-1.196884,-29.68814,5.580856,0.4984582999999999,0.6018059,1.0,0.03575134,0.2735442999999999,0.9611816,36.96271,-3.383881,-28.87178,6.072327,0.3430932,0.6576204999999999,-0.4091893,1.04657,-0.1285988,-0.03318472,0.6042371999999999,-0.01096461,0.0,-90.21132,31.43
4,0.00958252,0.2469482,0.9689789,1.0,-0.01170349,0.2098541,0.9776459,-31.77483,-1.196884,-29.68204,5.586533,0.4999152,0.6008826,1.0,0.02851868,0.279541,0.9597015,36.96288,-3.385208,-28.87883,6.089294000000001,0.3443613,0.6567519,-0.4092534,1.046941,-0.1290729,-0.03483766,0.6059809,-0.01035981,0.0,-394.2239,31.43
4,0.00958252,0.2469482,0.9689789,1.0,-0.01170349,0.2098541,0.9776459,-31.77483,-1.196884,-29.68204,5.586533,0.4999152,0.6008826,1.0,0.02851868,0.279541,0.9597015,36.96288,-3.385208,-28.87883,6.089294000000001,0.3443613,0.6567519,-0.4092534,1.046941,-0.1290729,-0.03483766,0.6059809,-0.01035981,0.0,-394.2239,31.43
4,0.00958252,0.2469482,0.9689789,1.0,-0.01170349,0.2098541,0.9776459,-31.77483,-1.196884,-29.68204,5.586533,0.4999152,0.6008826,1.0,0.02851868,0.279541,0.9597015,36.96288,-3.385208,-28.87883,6.089294000000001,0.3443613,0.6567519,-0.4092534,1.046941,-0.1290729,-0.03483766,0.6059809,-0.01035981,0.0,-394.2239,31.43
4,0.003677368,0.2472228999999999,0.9689484,1.0,-0.01315308,0.214859,0.9765472,-31.81053,-1.1902469999999998,-29.68814,5.592209,0.5013866,0.5999127,1.0,0.02078247,0.2797241,0.9598389,36.93541,-3.374191,-28.88417,6.09726,0.3466938,0.6564005,-0.4093642,1.047309,-0.1296131,-0.03671416,0.6081513000000001,-0.009618025,0.0,-394.2239,31.43
4,0.003677368,0.2472228999999999,0.9689484,1.0,-0.01315308,0.214859,0.9765472,-31.81053,-1.1902469999999998,-29.68814,5.592209,0.5013866,0.5999127,1.0,0.02078247,0.2797241,0.9598389,36.93541,-3.374191,-28.88417,6.09726,0.3466938,0.6564005,-0.4093642,1.047309,-0.1296131,-0.03671416,0.6081513000000001,-0.009618025,0.0,-394.2239,31.43
4,0.003677368,0.2472228999999999,0.9689484,1.0,-0.01315308,0.214859,0.9765472,-31.81053,-1.1902469999999998,-29.68814,5.592209,0.5013866,0.5999127,1.0,0.02078247,0.2797241,0.9598389,36.93541,-3.374191,-28.88417,6.09726,0.3466938,0.6564005,-0.4093642,1.047309,-0.1296131,-0.03671416,0.6081513000000001,-0.009618025,0.0,-394.2239,31.43
4,0.004196167,0.2473602,0.9689026,1.0,-0.01361084,0.2158356,0.9763184,-31.83272,-1.174408,-29.6302,5.601654,0.502213,0.5986403,1.0,0.02027893,0.2755127,0.9610748,36.9173,-3.383408,-28.87866,6.072815,0.3474288,0.6573351,-0.4094384,1.047598,-0.1301535,-0.03803916,0.6105345999999999,-0.00865667,0.0,-394.2239,31.43
4,0.004196167,0.2473602,0.9689026,1.0,-0.01361084,0.2158356,0.9763184,-31.83272,-1.174408,-29.6302,5.601654,0.502213,0.5986403,1.0,0.02027893,0.2755127,0.9610748,36.9173,-3.383408,-28.87866,6.072815,0.3474288,0.6573351,-0.4094384,1.047598,-0.1301535,-0.03803916,0.6105345999999999,-0.00865667,0.0,-394.2239,31.43
4,0.004196167,0.2473602,0.9689026,1.0,-0.01361084,0.2158356,0.9763184,-31.83272,-1.174408,-29.6302,5.601654,0.502213,0.5986403,1.0,0.02027893,0.2755127,0.9610748,36.9173,-3.383408,-28.87866,6.072815,0.3474288,0.6573351,-0.4094384,1.047598,-0.1301535,-0.03803916,0.6105345999999999,-0.00865667,0.0,-394.2239,31.43
4,0.0072174069999999,0.2489014,0.9684906,1.0,-0.01278687,0.2178497,0.9758911,-31.85922,-1.202682,-29.56619,5.606247,0.5029616,0.5986403,1.0,0.02030945,0.2690125,0.9629059,36.90739,-3.397202,-28.87866,6.063629,0.3477473,0.6589094,-0.4096470999999999,1.048033,-0.1307554,-0.0402023,0.6120507,-0.007614487,0.0,-394.2239,31.43
4,0.0072174069999999,0.2489014,0.9684906,1.0,-0.01278687,0.2178497,0.9758911,-31.85922,-1.202682,-29.56619,5.606247,0.5029616,0.5986403,1.0,0.02030945,0.2690125,0.9629059,36.90739,-3.397202,-28.87866,6.063629,0.3477473,0.6589094,-0.4096470999999999,1.048033,-0.1307554,-0.0402023,0.6120507,-0.007614487,0.0,-394.2239,31.43
4,0.0072174069999999,0.2489014,0.9684906,1.0,-0.01278687,0.2178497,0.9758911,-31.85922,-1.202682,-29.56619,5.606247,0.5029616,0.5986403,1.0,0.02030945,0.2690125,0.9629059,36.90739,-3.397202,-28.87866,6.063629,0.3477473,0.6589094,-0.4096470999999999,1.048033,-0.1307554,-0.0402023,0.6120507,-0.007614487,0.0,-394.2239,31.43
4,-0.001968384,0.2462311,0.9692078000000002,1.0,-0.02386475,0.216629,0.9759521,-31.87306,-1.1627040000000002,-29.63786,5.643753,0.505328,0.5982838,1.0,0.01480103,0.2686768,0.9631042,36.9127,-3.40567,-28.868270000000003,6.064438,0.3485339,0.6591551999999999,-0.4099471999999999,1.048425,-0.1312254,-0.04228495,0.6132743,-0.006491858,0.0,-394.2239,31.43
4,-0.001968384,0.2462311,0.9692078000000002,1.0,-0.02386475,0.216629,0.9759521,-31.87306,-1.1627040000000002,-29.63786,5.643753,0.505328,0.5982838,1.0,0.01480103,0.2686768,0.9631042,36.9127,-3.40567,-28.868270000000003,6.064438,0.3485339,0.6591551999999999,-0.4099471999999999,1.048425,-0.1312254,-0.04228495,0.6132743,-0.006491858,0.0,-394.2239,31.43
4,-0.001968384,0.2462311,0.9692078000000002,1.0,-0.02386475,0.216629,0.9759521,-31.87306,-1.1627040000000002,-29.63786,5.643753,0.505328,0.5982838,1.0,0.01480103,0.2686768,0.9631042,36.9127,-3.40567,-28.868270000000003,6.064438,0.3485339,0.6591551999999999,-0.4099471999999999,1.048425,-0.1312254,-0.04228495,0.6132743,-0.006491858,0.0,-394.2239,31.43
4,0.009536743,0.2683258,0.9632721,1.0,-0.03170776,0.2059174,0.9780426,-31.82886,-0.7366638000000001,-30.941990000000004,5.5909580000000005,0.5054972,0.5984877,1.0,0.009597778,0.2684325999999999,0.9632416,36.90753,-3.40686,-28.86659,6.073639,0.349627,0.6592314,-0.4102425999999999,1.048877,-0.1318898,-0.04436299,0.6141646,-0.0054629019999999,0.0,-46.85178,31.43
4,0.009536743,0.2683258,0.9632721,1.0,-0.03170776,0.2059174,0.9780426,-31.82886,-0.7366638000000001,-30.941990000000004,5.5909580000000005,0.5054972,0.5984877,1.0,0.009597778,0.2684325999999999,0.9632416,36.90753,-3.40686,-28.86659,6.073639,0.349627,0.6592314,-0.4102425999999999,1.048877,-0.1318898,-0.04436299,0.6141646,-0.0054629019999999,0.0,-46.85178,31.43
4,0.009536743,0.2683258,0.9632721,1.0,-0.03170776,0.2059174,0.9780426,-31.82886,-0.7366638000000001,-30.941990000000004,5.5909580000000005,0.5054972,0.5984877,1.0,0.009597778,0.2684325999999999,0.9632416,36.90753,-3.40686,-28.86659,6.073639,0.349627,0.6592314,-0.4102425999999999,1.048877,-0.1318898,-0.04436299,0.6141646,-0.0054629019999999,0.0,-46.85178,31.43
4,0.001739502,0.2626343,0.9648895,1.0,-0.03573608,0.1975861,0.9796295,-31.82886,-0.7366638000000001,-30.941990000000004,5.584335,0.5061792,0.5999237,1.0,0.001739502,0.2626343,0.9648895,36.89943,-3.420456,-28.86255,6.087967,0.3512651,0.6606805,-0.4105945,1.049339,-0.1325101,-0.04681579,0.6148111999999999,-0.004186585,0.0,-46.85178,31.43
4,0.001739502,0.2626343,0.9648895,1.0,-0.03573608,0.1975861,0.9796295,-31.82886,-0.7366638000000001,-30.941990000000004,5.584335,0.5061792,0.5999237,1.0,0.001739502,0.2626343,0.9648895,36.89943,-3.420456,-28.86255,6.087967,0.3512651,0.6606805,-0.4105945,1.049339,-0.1325101,-0.04681579,0.6148111999999999,-0.004186585,0.0,-46.85178,31.43
