Second,eye_comb_direction_x,eye_comb_direction_y,eye_comb_direction_z,eye_r_openness,eye_r_direction_x,eye_r_direction_y,eye_r_direction_z,eye_r_origin_x,eye_r_origin_y,eye_r_origin_z,eye_r_pupil_diameter,eye_r_pupil_position_x,eye_r_pupil_position_y,eye_l_openness,eye_l_direction_x,eye_l_direction_y,eye_l_direction_z,eye_l_origin_x,eye_l_origin_y,eye_l_origin_z,eye_l_pupil_diameter,eye_l_pupil_position_x,eye_l_pupil_position_y,head_position_x,head_position_y,head_position_z,head_rotation_roll,head_rotation_pitch,head_rotation_yaw,EDA,BVP,TMP
0,-0.00453186,-0.007461548,0.9999542,1.0,-0.00553894,-0.014328,0.9998779,-31.96681,-2.327499,-28.05037,4.811157,0.5047973,0.6593019,1.0,-0.0035552979999999,-0.0007019042999999,0.9999847,37.125240000000005,-4.353897,-27.92355,4.87709,0.3442055,0.7264871,-0.4056157,1.045093,-0.1631099999999999,-0.02243057,0.7409946999999999,-0.0075402509999999,0.0,0.9979448244704596,30.553049278518923
0,-0.00453186,-0.007461548,0.9999542,1.0,-0.00553894,-0.014328,0.9998779,-31.96681,-2.327499,-28.05037,4.811157,0.5047973,0.6593019,1.0,-0.0035552979999999,-0.0007019042999999,0.9999847,37.125240000000005,-4.353897,-27.92355,4.87709,0.3442055,0.7264871,-0.4056157,1.045093,-0.1631099999999999,-0.02243057,0.7409946999999999,-0.0075402509999999,0.0,0.9979448244704596,30.553049278518923
0,-0.00453186,-0.007461548,0.9999542,1.0,-0.00553894,-0.014328,0.9998779,-31.96681,-2.327499,-28.05037,4.811157,0.5047973,0.6593019,1.0,-0.0035552979999999,-0.0007019042999999,0.9999847,37.125240000000005,-4.353897,-27.92355,4.87709,0.3442055,0.7264871,-0.4056157,1.045093,-0.1631099999999999,-0.02243057,0.7409946999999999,-0.0075402509999999,0.0,0.9979448244704596,30.553049278518923
0,-0.00453186,-0.007461548,0.9999542,1.0,-0.00553894,-0.014328,0.9998779,-31.96681,-2.327499,-28.05037,4.811157,0.5047973,0.6593019,1.0,-0.0035552979999999,-0.0007019042999999,0.9999847,37.125240000000005,-4.353897,-27.92355,4.87709,0.3442055,0.7264871,-0.4056157,1.045093,-0.1631099999999999,-0.02243057,0.7409946999999999,-0.0075402509999999,0.0,0.9979448244704596,30.553049278518923
0,-0.005722046,-0.0052185059999999,0.9999695,1.0,-0.006210327,-0.01420593,0.9998779,-31.96687,-2.33577,-28.01976,4.742035,0.5049019,0.6591718000000001,1.0,-0.0052185059999999,0.003952026,0.9999695,37.12968,-4.366409,-27.89716,4.865372,0.3443933,0.7257880999999999,-0.405604,1.045081,-0.1632201,-0.02264314,0.7411867,-0.007672486,0.0,0.9979448244704596,30.553049278518923
0,-0.005722046,-0.0052185059999999,0.9999695,1.0,-0.006210327,-0.01420593,0.9998779,-31.96687,-2.33577,-28.01976,4.742035,0.5049019,0.6591718000000001,1.0,-0.0052185059999999,0.003952026,0.9999695,37.12968,-4.366409,-27.89716,4.865372,0.3443933,0.7257880999999999,-0.405604,1.045081,-0.1632201,-0.02264314,0.7411867,-0.007672486,0.0,0.9979448244704596,30.553049278518923
0,-0.005722046,-0.0052185059999999,0.9999695,1.0,-0.006210327,-0.01420593,0.9998779,-31.96687,-2.33577,-28.01976,4.742035,0.5049019,0.6591718000000001,1.0,-0.0052185059999999,0.003952026,0.9999695,37.12968,-4.366409,-27.89716,4.865372,0.3443933,0.7257880999999999,-0.405604,1.045081,-0.1632201,-0.02264314,0.7411867,-0.007672486,0.0,0.9979448244704596,30.553049278518923
0,-0.006378174,-0.003982544,0.9999695,1.0,-0.00604248,-0.01335144,0.9998779,-31.96687,-2.346878,-27.99742,4.737426999999999,0.5048668,0.6591718000000001,1.0,-0.0067138669999999,0.0052642819999999,0.9999542,37.13179,-4.378677,-27.87007,4.849579,0.3446243,0.7256416,-0.4055574,1.045102,-0.1632525,-0.0226535,0.7413204000000001,-0.0076242659999999,0.0,0.9979448244704596,30.553049278518923
0,-0.006378174,-0.003982544,0.9999695,1.0,-0.00604248,-0.01335144,0.9998779,-31.96687,-2.346878,-27.99742,4.737426999999999,0.5048668,0.6591718000000001,1.0,-0.0067138669999999,0.0052642819999999,0.9999542,37.13179,-4.378677,-27.87007,4.849579,0.3446243,0.7256416,-0.4055574,1.045102,-0.1632525,-0.0226535,0.7413204000000001,-0.0076242659999999,0.0,0.9979448244704596,30.553049278518923
0,-0.006378174,-0.003982544,0.9999695,1.0,-0.00604248,-0.01335144,0.9998779,-31.96687,-2.346878,-27.99742,4.737426999999999,0.5048668,0.6591718000000001,1.0,-0.0067138669999999,0.0052642819999999,0.9999542,37.13179,-4.378677,-27.87007,4.849579,0.3446243,0.7256416,-0.4055574,1.045102,-0.1632525,-0.0226535,0.7413204000000001,-0.0076242659999999,0.0,0.9979448244704596,30.553049278518923
0,-0.006607056,-0.001647949,0.9999695,1.0,-0.006011963,-0.00958252,0.9999237,-31.96515,-2.369263,-27.96648,4.713333,0.5047973,0.658935,1.0,-0.0071716309999999,0.005828857,0.9999542,37.13469,-4.384949,-27.855970000000003,4.80632,0.3446405,0.7255425,-0.405599,1.045091,-0.1632125999999999,-0.02252421,0.7413218,-0.007608614,0.0,0.9979448244704596,30.553049278518923
0,-0.006607056,-0.001647949,0.9999695,1.0,-0.006011963,-0.00958252,0.9999237,-31.96515,-2.369263,-27.96648,4.713333,0.5047973,0.658935,1.0,-0.0071716309999999,0.005828857,0.9999542,37.13469,-4.384949,-27.855970000000003,4.80632,0.3446405,0.7255425,-0.405599,1.045091,-0.1632125999999999,-0.02252421,0.7413218,-0.007608614,0.0,0.9979448244704596,30.553049278518923
0,-0.006607056,-0.001647949,0.9999695,1.0,-0.006011963,-0.00958252,0.9999237,-31.96515,-2.369263,-27.96648,4.713333,0.5047973,0.658935,1.0,-0.0071716309999999,0.005828857,0.9999542,37.13469,-4.384949,-27.855970000000003,4.80632,0.3446405,0.7255425,-0.405599,1.045091,-0.1632125999999999,-0.02252421,0.7413218,-0.007608614,0.0,0.9979448244704596,30.553049278518923
0,-0.005172729,0.003097534,0.9999695,1.0,-0.003601074,-0.007247925,0.9999542,-31.95872,-2.394638,-27.89784,4.632233,0.5041583,0.6585929,1.0,-0.006225586,0.01005554,0.9999237,37.13837,-4.3918610000000005,-27.84138,4.778015,0.3444014999999999,0.7248331,-0.4056071,1.04504,-0.1631497999999999,-0.02214727,0.7411426999999999,-0.007780965,0.0,0.9979448244704596,30.553049278518923
0,-0.005172729,0.003097534,0.9999695,1.0,-0.003601074,-0.007247925,0.9999542,-31.95872,-2.394638,-27.89784,4.632233,0.5041583,0.6585929,1.0,-0.006225586,0.01005554,0.9999237,37.13837,-4.3918610000000005,-27.84138,4.778015,0.3444014999999999,0.7248331,-0.4056071,1.04504,-0.1631497999999999,-0.02214727,0.7411426999999999,-0.007780965,0.0,0.9979448244704596,30.553049278518923
0,-0.005172729,0.003097534,0.9999695,1.0,-0.003601074,-0.007247925,0.9999542,-31.95872,-2.394638,-27.89784,4.632233,0.5041583,0.6585929,1.0,-0.006225586,0.01005554,0.9999237,37.13837,-4.3918610000000005,-27.84138,4.778015,0.3444014999999999,0.7248331,-0.4056071,1.04504,-0.1631497999999999,-0.02214727,0.7411426999999999,-0.007780965,0.0,0.9979448244704596,30.553049278518923
0,-0.005172729,0.003097534,0.9999695,1.0,-0.003601074,-0.007247925,0.9999542,-31.95872,-2.394638,-27.89784,4.632233,0.5041583,0.6585929,1.0,-0.006225586,0.01005554,0.9999237,37.13837,-4.3918610000000005,-27.84138,4.778015,0.3444014999999999,0.7248331,-0.4055799,1.044957,-0.1630618999999999,-0.02195468,0.7410283000000001,-0.0076923669999999,0.0,0.9979448244704596,30.553049278518923
0,-0.005172729,0.003097534,0.9999695,1.0,-0.003601074,-0.007247925,0.9999542,-31.95872,-2.394638,-27.89784,4.632233,0.5041583,0.6585929,1.0,-0.006225586,0.01005554,0.9999237,37.13837,-4.3918610000000005,-27.84138,4.778015,0.3444014999999999,0.7248331,-0.4055799,1.044957,-0.1630618999999999,-0.02195468,0.7410283000000001,-0.0076923669999999,0.0,0.9979448244704596,30.553049278518923
0,-0.005172729,0.003097534,0.9999695,1.0,-0.003601074,-0.007247925,0.9999542,-31.95872,-2.394638,-27.89784,4.632233,0.5041583,0.6585929,1.0,-0.006225586,0.01005554,0.9999237,37.13837,-4.3918610000000005,-27.84138,4.778015,0.3444014999999999,0.7248331,-0.4055799,1.044957,-0.1630618999999999,-0.02195468,0.7410283000000001,-0.0076923669999999,0.0,0.9979448244704596,30.553049278518923
0,-0.005172729,0.003097534,0.9999695,1.0,-0.003601074,-0.007247925,0.9999542,-31.95872,-2.394638,-27.89784,4.632233,0.5041583,0.6585929,1.0,-0.006225586,0.01005554,0.9999237,37.13837,-4.3918610000000005,-27.84138,4.778015,0.3444014999999999,0.7248331,-0.4054488,1.044911,-0.1630076,-0.02165295,0.7407539000000001,-0.007675884,0.0,0.9979448244704596,30.553049278518923
0,-0.005172729,0.003097534,0.9999695,1.0,-0.003601074,-0.007247925,0.9999542,-31.95872,-2.394638,-27.89784,4.632233,0.5041583,0.6585929,1.0,-0.006225586,0.01005554,0.9999237,37.13837,-4.3918610000000005,-27.84138,4.778015,0.3444014999999999,0.7248331,-0.4054488,1.044911,-0.1630076,-0.02165295,0.7407539000000001,-0.007675884,0.0,0.9979448244704596,30.553049278518923
0,-0.005172729,0.003097534,0.9999695,1.0,-0.003601074,-0.007247925,0.9999542,-31.95872,-2.394638,-27.89784,4.632233,0.5041583,0.6585929,1.0,-0.006225586,0.01005554,0.9999237,37.13837,-4.3918610000000005,-27.84138,4.778015,0.3444014999999999,0.7248331,-0.4054488,1.044911,-0.1630076,-0.02165295,0.7407539000000001,-0.007675884,0.0,0.9979448244704596,30.553049278518923
0,0.001480103,0.009109497,0.9999542,1.0,-0.0005493164,-0.0003509521,0.9999847,-31.95259,-2.394638,-27.89784,4.486282,0.5034401,0.6572636,1.0,0.003982544,0.02079773,0.9997711,37.13707,-4.338898,-27.960420000000003,4.505386,0.3427364,0.7220388000000001,-0.4053882,1.044826,-0.1628456,-0.02145557,0.7404254,-0.007641836,0.0,0.9979448244704596,30.553049278518923
0,0.001480103,0.009109497,0.9999542,1.0,-0.0005493164,-0.0003509521,0.9999847,-31.95259,-2.394638,-27.89784,4.486282,0.5034401,0.6572636,1.0,0.003982544,0.02079773,0.9997711,37.13707,-4.338898,-27.960420000000003,4.505386,0.3427364,0.7220388000000001,-0.4053882,1.044826,-0.1628456,-0.02145557,0.7404254,-0.007641836,0.0,0.9979448244704596,30.553049278518923
0,0.001480103,0.009109497,0.9999542,1.0,-0.0005493164,-0.0003509521,0.9999847,-31.95259,-2.394638,-27.89784,4.486282,0.5034401,0.6572636,1.0,0.003982544,0.02079773,0.9997711,37.13707,-4.338898,-27.960420000000003,4.505386,0.3427364,0.7220388000000001,-0.4053882,1.044826,-0.1628456,-0.02145557,0.7404254,-0.007641836,0.0,0.9979448244704596,30.553049278518923
0,0.0006408691,0.01016235,0.999939,1.0,-0.0001831054999999,0.004882813,0.9999847,-31.95259,-2.385361,-27.931590000000003,4.437195,0.5033882000000001,0.6563501,1.0,0.00227356,0.02058411,0.9997711,37.13702,-4.344269000000001,-27.93948,4.506119,0.3430529,0.7220388000000001,-0.4054424,1.044807,-0.1628199,-0.02151972,0.740314,-0.008039977,0.0,0.9979448244704596,30.553049278518923
0,0.0006408691,0.01016235,0.999939,1.0,-0.0001831054999999,0.004882813,0.9999847,-31.95259,-2.385361,-27.931590000000003,4.437195,0.5033882000000001,0.6563501,1.0,0.00227356,0.02058411,0.9997711,37.13702,-4.344269000000001,-27.93948,4.506119,0.3430529,0.7220388000000001,-0.4054424,1.044807,-0.1628199,-0.02151972,0.740314,-0.008039977,0.0,0.9979448244704596,30.553049278518923
0,0.0006408691,0.01016235,0.999939,1.0,-0.0001831054999999,0.004882813,0.9999847,-31.95259,-2.385361,-27.931590000000003,4.437195,0.5033882000000001,0.6563501,1.0,0.00227356,0.02058411,0.9997711,37.13702,-4.344269000000001,-27.93948,4.506119,0.3430529,0.7220388000000001,-0.4054424,1.044807,-0.1628199,-0.02151972,0.740314,-0.008039977,0.0,0.9979448244704596,30.553049278518923
0,0.0006408691,0.01016235,0.999939,1.0,-0.0001831054999999,0.004882813,0.9999847,-31.95259,-2.385361,-27.931590000000003,4.437195,0.5033882000000001,0.6563501,1.0,0.00227356,0.02058411,0.9997711,37.13702,-4.344269000000001,-27.93948,4.506119,0.3430529,0.7220388000000001,-0.4053494,1.044825,-0.1629046,-0.02143803,0.7405148,-0.008231831,0.0,0.9979448244704596,30.553049278518923
0,0.0006408691,0.01016235,0.999939,1.0,-0.0001831054999999,0.004882813,0.9999847,-31.95259,-2.385361,-27.931590000000003,4.437195,0.5033882000000001,0.6563501,1.0,0.00227356,0.02058411,0.9997711,37.13702,-4.344269000000001,-27.93948,4.506119,0.3430529,0.7220388000000001,-0.4053494,1.044825,-0.1629046,-0.02143803,0.7405148,-0.008231831,0.0,0.9979448244704596,30.553049278518923
0,0.0006408691,0.01016235,0.999939,1.0,-0.0001831054999999,0.004882813,0.9999847,-31.95259,-2.385361,-27.931590000000003,4.437195,0.5033882000000001,0.6563501,1.0,0.00227356,0.02058411,0.9997711,37.13702,-4.344269000000001,-27.93948,4.506119,0.3430529,0.7220388000000001,-0.4053494,1.044825,-0.1629046,-0.02143803,0.7405148,-0.008231831,0.0,0.9979448244704596,30.553049278518923
0,-0.002838135,0.01860046,0.9998169,1.0,4.577637e-05,0.001968384,0.9999847,-31.95259,-2.378616,-27.93709,4.11615,0.5033403000000001,0.6563501,1.0,-0.005874634,0.03590393,0.9993286,37.11914,-4.338623,-27.93828,4.28595,0.3452926,0.7187911,-0.4053837,1.044845,-0.1628712,-0.02103279,0.7408984000000001,-0.008068193,0.0,-26.34082,30.553049278518923
0,-0.002838135,0.01860046,0.9998169,1.0,4.577637e-05,0.001968384,0.9999847,-31.95259,-2.378616,-27.93709,4.11615,0.5033403000000001,0.6563501,1.0,-0.005874634,0.03590393,0.9993286,37.11914,-4.338623,-27.93828,4.28595,0.3452926,0.7187911,-0.4053837,1.044845,-0.1628712,-0.02103279,0.7408984000000001,-0.008068193,0.0,-26.34082,30.553049278518923
0,-0.002838135,0.01860046,0.9998169,1.0,4.577637e-05,0.001968384,0.9999847,-31.95259,-2.378616,-27.93709,4.11615,0.5033403000000001,0.6563501,1.0,-0.005874634,0.03590393,0.9993286,37.11914,-4.338623,-27.93828,4.28595,0.3452926,0.7187911,-0.4053837,1.044845,-0.1628712,-0.02103279,0.7408984000000001,-0.008068193,0.0,-26.34082,30.553049278518923
0,-0.00151062,0.01826477,0.9998169,1.0,0.00189209,0.0018463129999999,0.9999847,-31.96515,-2.378616,-27.93709,4.093307,0.5034536000000001,0.6563501,1.0,-0.005065918,0.03527832,0.9993591,37.1192,-4.338318,-27.94028,4.232529,0.3451674,0.7188444,-0.4054104,1.044804,-0.1628612,-0.02105085,0.7411831,-0.008083875,0.0,-26.34082,30.553049278518923
0,-0.00151062,0.01826477,0.9998169,1.0,0.00189209,0.0018463129999999,0.9999847,-31.96515,-2.378616,-27.93709,4.093307,0.5034536000000001,0.6563501,1.0,-0.005065918,0.03527832,0.9993591,37.1192,-4.338318,-27.94028,4.232529,0.3451674,0.7188444,-0.4054104,1.044804,-0.1628612,-0.02105085,0.7411831,-0.008083875,0.0,-26.34082,30.553049278518923
0,-0.00151062,0.01826477,0.9998169,1.0,0.00189209,0.0018463129999999,0.9999847,-31.96515,-2.378616,-27.93709,4.093307,0.5034536000000001,0.6563501,1.0,-0.005065918,0.03527832,0.9993591,37.1192,-4.338318,-27.94028,4.232529,0.3451674,0.7188444,-0.4054104,1.044804,-0.1628612,-0.02105085,0.7411831,-0.008083875,0.0,-26.34082,30.553049278518923
0,-0.00541687,0.02087402,0.9997559,1.0,-0.006256104,0.0004272461,0.9999695,-31.96515,-2.4133,-27.83562,3.933517,0.5047929,0.6565564,1.0,-0.004806519,0.03575134,0.9993439,37.117540000000005,-4.336914,-27.968120000000003,4.166702,0.3451723,0.718936,-0.4055307,1.044802,-0.1628292999999999,-0.02089079,0.7412389,-0.0081211169999999,0.0,-26.34082,30.553049278518923
0,-0.00541687,0.02087402,0.9997559,1.0,-0.006256104,0.0004272461,0.9999695,-31.96515,-2.4133,-27.83562,3.933517,0.5047929,0.6565564,1.0,-0.004806519,0.03575134,0.9993439,37.117540000000005,-4.336914,-27.968120000000003,4.166702,0.3451723,0.718936,-0.4055307,1.044802,-0.1628292999999999,-0.02089079,0.7412389,-0.0081211169999999,0.0,-26.34082,30.553049278518923
0,-0.00541687,0.02087402,0.9997559,1.0,-0.006256104,0.0004272461,0.9999695,-31.96515,-2.4133,-27.83562,3.933517,0.5047929,0.6565564,1.0,-0.004806519,0.03575134,0.9993439,37.117540000000005,-4.336914,-27.968120000000003,4.166702,0.3451723,0.718936,-0.4055307,1.044802,-0.1628292999999999,-0.02089079,0.7412389,-0.0081211169999999,0.0,-26.34082,30.553049278518923
0,-0.003494263,0.01582336,0.9998627,1.0,-0.009536743,0.0022277829999999,0.999939,-31.95874,-2.442871,-27.77727,3.846085,0.5051131,0.6565564,1.0,0.001480103,0.02703857,0.9996185,37.092220000000005,-4.2782290000000005,-28.024890000000003,4.151718,0.3448981,0.7190367,-0.4055611,1.044817,-0.1627342,-0.02088491,0.7410985,-0.007984649,0.0,-26.34082,30.553049278518923
0,-0.003494263,0.01582336,0.9998627,1.0,-0.009536743,0.0022277829999999,0.999939,-31.95874,-2.442871,-27.77727,3.846085,0.5051131,0.6565564,1.0,0.001480103,0.02703857,0.9996185,37.092220000000005,-4.2782290000000005,-28.024890000000003,4.151718,0.3448981,0.7190367,-0.4055611,1.044817,-0.1627342,-0.02088491,0.7410985,-0.007984649,0.0,-26.34082,30.553049278518923
0,-0.003494263,0.01582336,0.9998627,1.0,-0.009536743,0.0022277829999999,0.999939,-31.95874,-2.442871,-27.77727,3.846085,0.5051131,0.6565564,1.0,0.001480103,0.02703857,0.9996185,37.092220000000005,-4.2782290000000005,-28.024890000000003,4.151718,0.3448981,0.7190367,-0.4055611,1.044817,-0.1627342,-0.02088491,0.7410985,-0.007984649,0.0,-26.34082,30.553049278518923
0,-0.002731323,0.0145874,0.9998779,1.0,-0.008956909,0.002182007,0.9999542,-31.953640000000004,-2.442871,-27.77727,3.842987,0.5048425,0.6565564,1.0,0.00352478,0.02713013,0.9996185,37.092220000000005,-4.2782290000000005,-28.03825,4.10556,0.3445372,0.7191162,-0.4055324999999999,1.044879,-0.1626973,-0.0209193,0.7409277,-0.008065883,0.0,-26.34082,30.553049278518923
0,-0.002731323,0.0145874,0.9998779,1.0,-0.008956909,0.002182007,0.9999542,-31.953640000000004,-2.442871,-27.77727,3.842987,0.5048425,0.6565564,1.0,0.00352478,0.02713013,0.9996185,37.092220000000005,-4.2782290000000005,-28.03825,4.10556,0.3445372,0.7191162,-0.4055324999999999,1.044879,-0.1626973,-0.0209193,0.7409277,-0.008065883,0.0,-26.34082,30.553049278518923
0,-0.002731323,0.0145874,0.9998779,1.0,-0.008956909,0.002182007,0.9999542,-31.953640000000004,-2.442871,-27.77727,3.842987,0.5048425,0.6565564,1.0,0.00352478,0.02713013,0.9996185,37.092220000000005,-4.2782290000000005,-28.03825,4.10556,0.3445372,0.7191162,-0.4055324999999999,1.044879,-0.1626973,-0.0209193,0.7409277,-0.008065883,0.0,-26.34082,30.553049278518923
0,-0.002456665,0.01460266,0.9998779,1.0,-0.01034546,0.003890991,0.999939,-31.9382,-2.442871,-27.79709,3.8246,0.5045608,0.656446,1.0,0.006759644,0.02711487,0.9996033,37.092220000000005,-4.2782290000000005,-28.05072,4.040787,0.3439764999999999,0.7191805,-0.4055406,1.0448620000000002,-0.1626727999999999,-0.02074926,0.7407412,-0.00789173,0.0,-26.34082,30.553049278518923
0,-0.002456665,0.01460266,0.9998779,1.0,-0.01034546,0.003890991,0.999939,-31.9382,-2.442871,-27.79709,3.8246,0.5045608,0.656446,1.0,0.006759644,0.02711487,0.9996033,37.092220000000005,-4.2782290000000005,-28.05072,4.040787,0.3439764999999999,0.7191805,-0.4055406,1.0448620000000002,-0.1626727999999999,-0.02074926,0.7407412,-0.00789173,0.0,-26.34082,30.553049278518923
0,-0.002456665,0.01460266,0.9998779,1.0,-0.01034546,0.003890991,0.999939,-31.9382,-2.442871,-27.79709,3.8246,0.5045608,0.656446,1.0,0.006759644,0.02711487,0.9996033,37.092220000000005,-4.2782290000000005,-28.05072,4.040787,0.3439764999999999,0.7191805,-0.4055406,1.0448620000000002,-0.1626727999999999,-0.02074926,0.7407412,-0.00789173,0.0,-26.34082,30.553049278518923
1,-0.0030059809999999,0.02124023,0.9997559,1.0,-0.01139832,0.006149292,0.9999084,-31.93066,-2.42038,-27.9053,3.776093,0.5045138,0.6563852,1.0,0.002655029,0.03144836,0.9994965,37.11348,-4.314209,-28.03825,4.030501999999999,0.3439586,0.7195156999999999,-0.4055945999999999,1.044848,-0.1624048,-0.0208899,0.7404521,-0.008016312,0.0,-98.77228,30.553049278518923
1,-0.0030059809999999,0.02124023,0.9997559,1.0,-0.01139832,0.006149292,0.9999084,-31.93066,-2.42038,-27.9053,3.776093,0.5045138,0.6563852,1.0,0.002655029,0.03144836,0.9994965,37.11348,-4.314209,-28.03825,4.030501999999999,0.3439586,0.7195156999999999,-0.4055945999999999,1.044848,-0.1624048,-0.0208899,0.7404521,-0.008016312,0.0,-98.77228,30.553049278518923
1,-0.0030059809999999,0.02124023,0.9997559,1.0,-0.01139832,0.006149292,0.9999084,-31.93066,-2.42038,-27.9053,3.776093,0.5045138,0.6563852,1.0,0.002655029,0.03144836,0.9994965,37.11348,-4.314209,-28.03825,4.030501999999999,0.3439586,0.7195156999999999,-0.4055945999999999,1.044848,-0.1624048,-0.0208899,0.7404521,-0.008016312,0.0,-98.77228,30.553049278518923
1,-0.003112793,0.02153015,0.9997559,1.0,-0.00994873,0.005477905,0.9999237,-31.93044,-2.408539,-27.920820000000003,3.738586,0.5042672,0.6562079000000001,1.0,0.00112915,0.03153992,0.9994965,37.11348,-4.351349,-27.98788,3.956116,0.3443002999999999,0.7201226,-0.4056145,1.044805,-0.1623759,-0.02027139,0.740356,-0.008063111,0.0,-98.77228,30.553049278518923
1,-0.003112793,0.02153015,0.9997559,1.0,-0.00994873,0.005477905,0.9999237,-31.93044,-2.408539,-27.920820000000003,3.738586,0.5042672,0.6562079000000001,1.0,0.00112915,0.03153992,0.9994965,37.11348,-4.351349,-27.98788,3.956116,0.3443002999999999,0.7201226,-0.4056145,1.044805,-0.1623759,-0.02027139,0.740356,-0.008063111,0.0,-98.77228,30.553049278518923
1,-0.003112793,0.02153015,0.9997559,1.0,-0.00994873,0.005477905,0.9999237,-31.93044,-2.408539,-27.920820000000003,3.738586,0.5042672,0.6562079000000001,1.0,0.00112915,0.03153992,0.9994965,37.11348,-4.351349,-27.98788,3.956116,0.3443002999999999,0.7201226,-0.4056145,1.044805,-0.1623759,-0.02027139,0.740356,-0.008063111,0.0,-98.77228,30.553049278518923
1,-0.005096436,0.01834106,0.9998169,1.0,-0.01138306,0.006210327,0.9999084,-31.93044,-2.408539,-27.93135,3.713898,0.5045138,0.6561803,1.0,0.0004577637,0.02909851,0.9995728000000002,37.11348,-4.3600010000000005,-27.97182,3.945847,0.3444247,0.7206613000000001,-0.4057315999999999,1.044666,-0.1623656,-0.01973466,0.740346,-0.008543178,0.0,-98.77228,30.553049278518923
1,-0.005096436,0.01834106,0.9998169,1.0,-0.01138306,0.006210327,0.9999084,-31.93044,-2.408539,-27.93135,3.713898,0.5045138,0.6561803,1.0,0.0004577637,0.02909851,0.9995728000000002,37.11348,-4.3600010000000005,-27.97182,3.945847,0.3444247,0.7206613000000001,-0.4057315999999999,1.044666,-0.1623656,-0.01973466,0.740346,-0.008543178,0.0,-98.77228,30.553049278518923
1,-0.005096436,0.01834106,0.9998169,1.0,-0.01138306,0.006210327,0.9999084,-31.93044,-2.408539,-27.93135,3.713898,0.5045138,0.6561803,1.0,0.0004577637,0.02909851,0.9995728000000002,37.11348,-4.3600010000000005,-27.97182,3.945847,0.3444247,0.7206613000000001,-0.4057315999999999,1.044666,-0.1623656,-0.01973466,0.740346,-0.008543178,0.0,-98.77228,30.553049278518923
1,0.01446533,-0.003662109,0.9998779,1.0,0.003219604,-0.009017944,0.999939,-31.78111,-2.688354,-27.71016,3.64798,0.4969286,0.6658689,1.0,0.0229949999999999,0.0003967285,0.9997253,37.12018,-4.619659,-27.91336,3.949539,0.3399326,0.7342957,-0.4058945,1.0443790000000002,-0.162427,-0.01923237,0.740189,-0.009134497,0.0,-98.77228,30.553049278518923
1,0.01446533,-0.003662109,0.9998779,1.0,0.003219604,-0.009017944,0.999939,-31.78111,-2.688354,-27.71016,3.64798,0.4969286,0.6658689,1.0,0.0229949999999999,0.0003967285,0.9997253,37.12018,-4.619659,-27.91336,3.949539,0.3399326,0.7342957,-0.4058945,1.0443790000000002,-0.162427,-0.01923237,0.740189,-0.009134497,0.0,-98.77228,30.553049278518923
1,0.01446533,-0.003662109,0.9998779,1.0,0.003219604,-0.009017944,0.999939,-31.78111,-2.688354,-27.71016,3.64798,0.4969286,0.6658689,1.0,0.0229949999999999,0.0003967285,0.9997253,37.12018,-4.619659,-27.91336,3.949539,0.3399326,0.7342957,-0.4058945,1.0443790000000002,-0.162427,-0.01923237,0.740189,-0.009134497,0.0,-98.77228,30.553049278518923
1,0.02412415,-0.1254272,0.991806,1.0,0.01881409,-0.1285553,0.9915161,-31.65236,-3.111618,-27.63905,3.713608,0.4898596999999999,0.7004921,1.0,0.04008484,-0.1159821,0.9924316,37.21645,-5.190308,-27.64488,4.005508,0.3326046,0.7728516,-0.4060355,1.0441,-0.1623382,-0.0186604,0.7400791999999999,-0.01019269,0.0,-98.77228,30.553049278518923
1,0.02412415,-0.1254272,0.991806,1.0,0.01881409,-0.1285553,0.9915161,-31.65236,-3.111618,-27.63905,3.713608,0.4898596999999999,0.7004921,1.0,0.04008484,-0.1159821,0.9924316,37.21645,-5.190308,-27.64488,4.005508,0.3326046,0.7728516,-0.4060355,1.0441,-0.1623382,-0.0186604,0.7400791999999999,-0.01019269,0.0,-98.77228,30.553049278518923
1,0.02412415,-0.1254272,0.991806,1.0,0.01881409,-0.1285553,0.9915161,-31.65236,-3.111618,-27.63905,3.713608,0.4898596999999999,0.7004921,1.0,0.04008484,-0.1159821,0.9924316,37.21645,-5.190308,-27.64488,4.005508,0.3326046,0.7728516,-0.4060355,1.0441,-0.1623382,-0.0186604,0.7400791999999999,-0.01019269,0.0,-98.77228,30.553049278518923
1,0.02412415,-0.1254272,0.991806,1.0,0.01881409,-0.1285553,0.9915161,-31.65236,-3.111618,-27.63905,3.713608,0.4898596999999999,0.7004921,1.0,0.04008484,-0.1159821,0.9924316,37.21645,-5.190308,-27.64488,4.005508,0.3326046,0.7728516,-0.4061123,1.044111,-0.1624217,-0.01806764,0.7399634,-0.01097208,0.0,-98.77228,30.553049278518923
1,0.02412415,-0.1254272,0.991806,1.0,0.01881409,-0.1285553,0.9915161,-31.65236,-3.111618,-27.63905,3.713608,0.4898596999999999,0.7004921,1.0,0.04008484,-0.1159821,0.9924316,37.21645,-5.190308,-27.64488,4.005508,0.3326046,0.7728516,-0.4061123,1.044111,-0.1624217,-0.01806764,0.7399634,-0.01097208,0.0,-98.77228,30.553049278518923
1,0.02412415,-0.1254272,0.991806,1.0,0.01881409,-0.1285553,0.9915161,-31.65236,-3.111618,-27.63905,3.713608,0.4898596999999999,0.7004921,1.0,0.04008484,-0.1159821,0.9924316,37.21645,-5.190308,-27.64488,4.005508,0.3326046,0.7728516,-0.4061123,1.044111,-0.1624217,-0.01806764,0.7399634,-0.01097208,0.0,-98.77228,30.553049278518923
1,0.02539063,-0.1249083999999999,0.9918365,1.0,0.02288818,-0.1291656,0.9913483,-31.68846,-3.135864,-27.53407,3.770813,0.4903854,0.7003304,1.0,0.03898621,-0.1016998,0.9940491,37.27831,-5.282455000000001,-27.33534,3.978821,0.3311252999999999,0.7697415,-0.406127,1.044176,-0.162377,-0.01826247,0.7395979,-0.01127417,0.0,-48.64026,30.553049278518923
1,0.02539063,-0.1249083999999999,0.9918365,1.0,0.02288818,-0.1291656,0.9913483,-31.68846,-3.135864,-27.53407,3.770813,0.4903854,0.7003304,1.0,0.03898621,-0.1016998,0.9940491,37.27831,-5.282455000000001,-27.33534,3.978821,0.3311252999999999,0.7697415,-0.406127,1.044176,-0.162377,-0.01826247,0.7395979,-0.01127417,0.0,-48.64026,30.553049278518923
1,0.02539063,-0.1249083999999999,0.9918365,1.0,0.02288818,-0.1291656,0.9913483,-31.68846,-3.135864,-27.53407,3.770813,0.4903854,0.7003304,1.0,0.03898621,-0.1016998,0.9940491,37.27831,-5.282455000000001,-27.33534,3.978821,0.3311252999999999,0.7697415,-0.406127,1.044176,-0.162377,-0.01826247,0.7395979,-0.01127417,0.0,-48.64026,30.553049278518923
1,0.0196228,-0.1256561,0.9918671,1.0,0.01846313,-0.1264801,0.9917908,-31.690690000000004,-3.141998,-27.506840000000004,3.801529,0.4912001,0.6997886999999999,1.0,0.04286194,-0.1092529,0.9930878,37.28743,-5.306244,-27.26414,4.065551999999999,0.3301375,0.7712521999999999,-0.4061477,1.04416,-0.1623727999999999,-0.01833942,0.739433,-0.01134991,0.0,-48.64026,30.553049278518923
1,0.0196228,-0.1256561,0.9918671,1.0,0.01846313,-0.1264801,0.9917908,-31.690690000000004,-3.141998,-27.506840000000004,3.801529,0.4912001,0.6997886999999999,1.0,0.04286194,-0.1092529,0.9930878,37.28743,-5.306244,-27.26414,4.065551999999999,0.3301375,0.7712521999999999,-0.4061477,1.04416,-0.1623727999999999,-0.01833942,0.739433,-0.01134991,0.0,-48.64026,30.553049278518923
1,0.0196228,-0.1256561,0.9918671,1.0,0.01846313,-0.1264801,0.9917908,-31.690690000000004,-3.141998,-27.506840000000004,3.801529,0.4912001,0.6997886999999999,1.0,0.04286194,-0.1092529,0.9930878,37.28743,-5.306244,-27.26414,4.065551999999999,0.3301375,0.7712521999999999,-0.4061477,1.04416,-0.1623727999999999,-0.01833942,0.739433,-0.01134991,0.0,-48.64026,30.553049278518923
1,0.03292847,-0.1170502,0.992569,1.0,0.01602173,-0.1265869,0.9918213,-31.7019,-3.177582,-27.41672,3.829834,0.491972,0.7000658000000001,1.0,0.04379272,-0.1108856,0.9928589,37.29074,-5.311264,-27.25533,4.07074,0.3298528,0.7716350000000001,-0.4062619,1.044137,-0.1622559,-0.01834165,0.7393623,-0.01142352,0.0,-48.64026,30.553049278518923
1,0.03292847,-0.1170502,0.992569,1.0,0.01602173,-0.1265869,0.9918213,-31.7019,-3.177582,-27.41672,3.829834,0.491972,0.7000658000000001,1.0,0.04379272,-0.1108856,0.9928589,37.29074,-5.311264,-27.25533,4.07074,0.3298528,0.7716350000000001,-0.4062619,1.044137,-0.1622559,-0.01834165,0.7393623,-0.01142352,0.0,-48.64026,30.553049278518923
1,0.03292847,-0.1170502,0.992569,1.0,0.01602173,-0.1265869,0.9918213,-31.7019,-3.177582,-27.41672,3.829834,0.491972,0.7000658000000001,1.0,0.04379272,-0.1108856,0.9928589,37.29074,-5.311264,-27.25533,4.07074,0.3298528,0.7716350000000001,-0.4062619,1.044137,-0.1622559,-0.01834165,0.7393623,-0.01142352,0.0,-48.64026,30.553049278518923
1,0.03253174,-0.1160583,0.9927063,1.0,0.01620483,-0.1246033,0.9920654,-31.70421,-3.181885,-27.40839,3.855972,0.4920208,0.6997886999999999,1.0,0.04325867,-0.1104279,0.9929352,37.29271,-5.314301,-27.25256,4.079468,0.3298771,0.7716350000000001,-0.4063082,1.044074,-0.1621575,-0.01808743,0.7394463000000001,-0.0115658,0.0,-48.64026,30.553049278518923
1,0.03253174,-0.1160583,0.9927063,1.0,0.01620483,-0.1246033,0.9920654,-31.70421,-3.181885,-27.40839,3.855972,0.4920208,0.6997886999999999,1.0,0.04325867,-0.1104279,0.9929352,37.29271,-5.314301,-27.25256,4.079468,0.3298771,0.7716350000000001,-0.4063082,1.044074,-0.1621575,-0.01808743,0.7394463000000001,-0.0115658,0.0,-48.64026,30.553049278518923
1,0.03253174,-0.1160583,0.9927063,1.0,0.01620483,-0.1246033,0.9920654,-31.70421,-3.181885,-27.40839,3.855972,0.4920208,0.6997886999999999,1.0,0.04325867,-0.1104279,0.9929352,37.29271,-5.314301,-27.25256,4.079468,0.3298771,0.7716350000000001,-0.4063082,1.044074,-0.1621575,-0.01808743,0.7394463000000001,-0.0115658,0.0,-48.64026,30.553049278518923
1,0.03044128,-0.1146698,0.9929352,1.0,0.01483154,-0.1216736,0.9924469,-31.71443,-3.202972,-27.33055,3.914658,0.4925859999999999,0.6991904999999999,1.0,0.04057312,-0.1101226999999999,0.9930878,37.29614,-5.316132,-27.25301,4.147964,0.3301934,0.7717339,-0.4063189,1.0439379999999998,-0.1622846,-0.01773825,0.7394801,-0.01179764,0.0,106.016,30.553049278518923
1,0.03044128,-0.1146698,0.9929352,1.0,0.01483154,-0.1216736,0.9924469,-31.71443,-3.202972,-27.33055,3.914658,0.4925859999999999,0.6991904999999999,1.0,0.04057312,-0.1101226999999999,0.9930878,37.29614,-5.316132,-27.25301,4.147964,0.3301934,0.7717339,-0.4063189,1.0439379999999998,-0.1622846,-0.01773825,0.7394801,-0.01179764,0.0,106.016,30.553049278518923
1,0.03044128,-0.1146698,0.9929352,1.0,0.01483154,-0.1216736,0.9924469,-31.71443,-3.202972,-27.33055,3.914658,0.4925859999999999,0.6991904999999999,1.0,0.04057312,-0.1101226999999999,0.9930878,37.29614,-5.316132,-27.25301,4.147964,0.3301934,0.7717339,-0.4063189,1.0439379999999998,-0.1622846,-0.01773825,0.7394801,-0.01179764,0.0,106.016,30.553049278518923
1,0.02822876,-0.1134644,0.9931335,1.0,0.01472473,-0.1183928999999999,0.9928436,-31.71919,-3.20575,-27.32693,3.967834,0.4927661,0.6987048,1.0,0.03765869,-0.1100158999999999,0.9932098,37.29691,-5.322266,-27.25618,4.194778,0.3306423,0.7720127,-0.4062855,1.043818,-0.1622072,-0.01710118,0.7392820999999999,-0.01211021,0.0,106.016,30.553049278518923
1,0.02822876,-0.1134644,0.9931335,1.0,0.01472473,-0.1183928999999999,0.9928436,-31.71919,-3.20575,-27.32693,3.967834,0.4927661,0.6987048,1.0,0.03765869,-0.1100158999999999,0.9932098,37.29691,-5.322266,-27.25618,4.194778,0.3306423,0.7720127,-0.4062855,1.043818,-0.1622072,-0.01710118,0.7392820999999999,-0.01211021,0.0,106.016,30.553049278518923
1,0.02822876,-0.1134644,0.9931335,1.0,0.01472473,-0.1183928999999999,0.9928436,-31.71919,-3.20575,-27.32693,3.967834,0.4927661,0.6987048,1.0,0.03765869,-0.1100158999999999,0.9932098,37.29691,-5.322266,-27.25618,4.194778,0.3306423,0.7720127,-0.4062855,1.043818,-0.1622072,-0.01710118,0.7392820999999999,-0.01211021,0.0,106.016,30.553049278518923
1,0.02601624,-0.1137695,0.9931641,1.0,0.01446533,-0.1181488,0.9928894,-31.71919,-3.205826,-27.31819,4.022781,0.4928127,0.6986124,1.0,0.03581238,-0.1100463999999999,0.9932709,37.29768,-5.322815,-27.26826,4.283127,0.3308716,0.7722962,-0.4061599999999999,1.043596,-0.162132,-0.01666941,0.738687,-0.01264504,0.0,106.016,30.553049278518923
1,0.02601624,-0.1137695,0.9931641,1.0,0.01446533,-0.1181488,0.9928894,-31.71919,-3.205826,-27.31819,4.022781,0.4928127,0.6986124,1.0,0.03581238,-0.1100463999999999,0.9932709,37.29768,-5.322815,-27.26826,4.283127,0.3308716,0.7722962,-0.4061599999999999,1.043596,-0.162132,-0.01666941,0.738687,-0.01264504,0.0,106.016,30.553049278518923
1,0.02601624,-0.1137695,0.9931641,1.0,0.01446533,-0.1181488,0.9928894,-31.71919,-3.205826,-27.31819,4.022781,0.4928127,0.6986124,1.0,0.03581238,-0.1100463999999999,0.9932709,37.29768,-5.322815,-27.26826,4.283127,0.3308716,0.7722962,-0.4061599999999999,1.043596,-0.162132,-0.01666941,0.738687,-0.01264504,0.0,106.016,30.553049278518923
1,0.02601624,-0.1137695,0.9931641,1.0,0.01446533,-0.1181488,0.9928894,-31.71919,-3.205826,-27.31819,4.022781,0.4928127,0.6986124,1.0,0.03581238,-0.1100463999999999,0.9932709,37.29768,-5.322815,-27.26826,4.283127,0.3308716,0.7722962,-0.4058714,1.043474,-0.1618309,-0.01634307,0.7375084,-0.01377043,0.0,106.016,30.553049278518923
1,0.02601624,-0.1137695,0.9931641,1.0,0.01446533,-0.1181488,0.9928894,-31.71919,-3.205826,-27.31819,4.022781,0.4928127,0.6986124,1.0,0.03581238,-0.1100463999999999,0.9932709,37.29768,-5.322815,-27.26826,4.283127,0.3308716,0.7722962,-0.4058714,1.043474,-0.1618309,-0.01634307,0.7375084,-0.01377043,0.0,106.016,30.553049278518923
1,0.02601624,-0.1137695,0.9931641,1.0,0.01446533,-0.1181488,0.9928894,-31.71919,-3.205826,-27.31819,4.022781,0.4928127,0.6986124,1.0,0.03581238,-0.1100463999999999,0.9932709,37.29768,-5.322815,-27.26826,4.283127,0.3308716,0.7722962,-0.4058714,1.043474,-0.1618309,-0.01634307,0.7375084,-0.01377043,0.0,106.016,30.553049278518923
1,0.01564026,-0.1076355,0.9940643,1.0,0.01100159,-0.1178131,0.9929657,-31.71968,-3.224426,-27.24422,4.087814,0.4933962,0.6984269000000001,1.0,0.02354431,-0.09025574,0.995636,37.35628,-5.348572,-27.42241,4.4981230000000005,0.3306502,0.7717044,-0.4056599999999999,1.043236,-0.1611116,-0.01507086,0.7347397,-0.01490133,0.0,106.016,30.553049278518923
1,0.01564026,-0.1076355,0.9940643,1.0,0.01100159,-0.1178131,0.9929657,-31.71968,-3.224426,-27.24422,4.087814,0.4933962,0.6984269000000001,1.0,0.02354431,-0.09025574,0.995636,37.35628,-5.348572,-27.42241,4.4981230000000005,0.3306502,0.7717044,-0.4056599999999999,1.043236,-0.1611116,-0.01507086,0.7347397,-0.01490133,0.0,106.016,30.553049278518923
1,0.01564026,-0.1076355,0.9940643,1.0,0.01100159,-0.1178131,0.9929657,-31.71968,-3.224426,-27.24422,4.087814,0.4933962,0.6984269000000001,1.0,0.02354431,-0.09025574,0.995636,37.35628,-5.348572,-27.42241,4.4981230000000005,0.3306502,0.7717044,-0.4056599999999999,1.043236,-0.1611116,-0.01507086,0.7347397,-0.01490133,0.0,106.016,30.553049278518923
1,0.3895416,-0.1165770999999999,0.9135895,1.0,0.3057404,-0.1131438999999999,0.9453583,-30.01466,-3.104523,-27.829390000000004,4.318848,0.3857938,0.7019658000000001,1.0,0.3925629,-0.116684,0.9122772,38.89253,-5.485092,-27.90866,4.556152,0.2017256,0.7967393,-0.4054140999999999,1.042722,-0.1599141,-0.01395825,0.7301904,-0.01699059,0.0,106.016,30.553049278518923
1,0.3895416,-0.1165770999999999,0.9135895,1.0,0.3057404,-0.1131438999999999,0.9453583,-30.01466,-3.104523,-27.829390000000004,4.318848,0.3857938,0.7019658000000001,1.0,0.3925629,-0.116684,0.9122772,38.89253,-5.485092,-27.90866,4.556152,0.2017256,0.7967393,-0.4054140999999999,1.042722,-0.1599141,-0.01395825,0.7301904,-0.01699059,0.0,106.016,30.553049278518923
1,0.3895416,-0.1165770999999999,0.9135895,1.0,0.3057404,-0.1131438999999999,0.9453583,-30.01466,-3.104523,-27.829390000000004,4.318848,0.3857938,0.7019658000000001,1.0,0.3925629,-0.116684,0.9122772,38.89253,-5.485092,-27.90866,4.556152,0.2017256,0.7967393,-0.4054140999999999,1.042722,-0.1599141,-0.01395825,0.7301904,-0.01699059,0.0,106.016,30.553049278518923
1,0.37854,-0.09805298,0.9203644,1.0,0.3679962,-0.09809875,0.9246216,-29.82777,-3.127396,-27.9281,4.285431,0.3684060999999999,0.7022271999999999,0.5222815,0.4841919,-0.09695435,0.8695679000000001,39.16344,-5.532013,-28.1091,4.806366000000001,0.1694417999999999,0.8027016,-0.4047982999999999,1.041924,-0.1564216,-0.01178753,0.7158074000000001,-0.02136388,0.0,133.3955,30.553049278518923
1,0.37854,-0.09805298,0.9203644,1.0,0.3679962,-0.09809875,0.9246216,-29.82777,-3.127396,-27.9281,4.285431,0.3684060999999999,0.7022271999999999,0.5222815,0.4841919,-0.09695435,0.8695679000000001,39.16344,-5.532013,-28.1091,4.806366000000001,0.1694417999999999,0.8027016,-0.4047982999999999,1.041924,-0.1564216,-0.01178753,0.7158074000000001,-0.02136388,0.0,133.3955,30.553049278518923
1,0.37854,-0.09805298,0.9203644,1.0,0.3679962,-0.09809875,0.9246216,-29.82777,-3.127396,-27.9281,4.285431,0.3684060999999999,0.7022271999999999,0.5222815,0.4841919,-0.09695435,0.8695679000000001,39.16344,-5.532013,-28.1091,4.806366000000001,0.1694417999999999,0.8027016,-0.4047982999999999,1.041924,-0.1564216,-0.01178753,0.7158074000000001,-0.02136388,0.0,133.3955,30.553049278518923
1,0.3859252999999999,-0.1299133,0.9133301,1.0,0.3337555,-0.1073607999999999,0.9365082,-29.98361,-3.069443,-27.86128,4.351868,0.3798795,0.7005779000000001,1.0,0.4422607,-0.1544189,0.8834839,39.09302,-5.474304,-27.99068,4.517532,0.1818547999999999,0.8079312,-0.4041296,1.041137,-0.1527727,-0.009238714,0.7006741,-0.02512574,0.0,133.3955,30.553049278518923
1,0.3859252999999999,-0.1299133,0.9133301,1.0,0.3337555,-0.1073607999999999,0.9365082,-29.98361,-3.069443,-27.86128,4.351868,0.3798795,0.7005779000000001,1.0,0.4422607,-0.1544189,0.8834839,39.09302,-5.474304,-27.99068,4.517532,0.1818547999999999,0.8079312,-0.4041296,1.041137,-0.1527727,-0.009238714,0.7006741,-0.02512574,0.0,133.3955,30.553049278518923
1,0.3859252999999999,-0.1299133,0.9133301,1.0,0.3337555,-0.1073607999999999,0.9365082,-29.98361,-3.069443,-27.86128,4.351868,0.3798795,0.7005779000000001,1.0,0.4422607,-0.1544189,0.8834839,39.09302,-5.474304,-27.99068,4.517532,0.1818547999999999,0.8079312,-0.4041296,1.041137,-0.1527727,-0.009238714,0.7006741,-0.02512574,0.0,133.3955,30.553049278518923
1,0.3470612,-0.1173553,0.9304657,1.0,0.3139038,-0.1068877999999999,0.9434052,-30.1581,-3.080124,-27.82326,4.207001,0.3892213,0.6999948,1.0,0.4011841,-0.1344299,0.9060669,39.00739,-5.479492,-27.92491,4.62944,0.1947392999999999,0.8012189000000001,-0.4039322,1.040774,-0.1513006,-0.007891494,0.6950208999999999,-0.02663169,0.0,133.3955,30.553049278518923
1,0.3470612,-0.1173553,0.9304657,1.0,0.3139038,-0.1068877999999999,0.9434052,-30.1581,-3.080124,-27.82326,4.207001,0.3892213,0.6999948,1.0,0.4011841,-0.1344299,0.9060669,39.00739,-5.479492,-27.92491,4.62944,0.1947392999999999,0.8012189000000001,-0.4039322,1.040774,-0.1513006,-0.007891494,0.6950208999999999,-0.02663169,0.0,133.3955,30.553049278518923
1,0.3470612,-0.1173553,0.9304657,1.0,0.3139038,-0.1068877999999999,0.9434052,-30.1581,-3.080124,-27.82326,4.207001,0.3892213,0.6999948,1.0,0.4011841,-0.1344299,0.9060669,39.00739,-5.479492,-27.92491,4.62944,0.1947392999999999,0.8012189000000001,-0.4039322,1.040774,-0.1513006,-0.007891494,0.6950208999999999,-0.02663169,0.0,133.3955,30.553049278518923
1,0.3049622,-0.09490967,0.9476166,1.0,0.2744293,-0.09333801,0.9570618,-30.34676,-3.049667,-27.7888,4.241455,0.4025247,0.695605,1.0,0.3567047,-0.09738159,0.9291229,38.79176,-5.364365,-27.82512,4.783112,0.2138691,0.7861165,-0.4035413,1.040509,-0.150273,-0.006231866,0.6908624,-0.02702465,0.0,53.54541,30.553049278518923
1,0.3049622,-0.09490967,0.9476166,1.0,0.2744293,-0.09333801,0.9570618,-30.34676,-3.049667,-27.7888,4.241455,0.4025247,0.695605,1.0,0.3567047,-0.09738159,0.9291229,38.79176,-5.364365,-27.82512,4.783112,0.2138691,0.7861165,-0.4035413,1.040509,-0.150273,-0.006231866,0.6908624,-0.02702465,0.0,53.54541,30.553049278518923
1,0.3049622,-0.09490967,0.9476166,1.0,0.2744293,-0.09333801,0.9570618,-30.34676,-3.049667,-27.7888,4.241455,0.4025247,0.695605,1.0,0.3567047,-0.09738159,0.9291229,38.79176,-5.364365,-27.82512,4.783112,0.2138691,0.7861165,-0.4035413,1.040509,-0.150273,-0.006231866,0.6908624,-0.02702465,0.0,53.54541,30.553049278518923
1,0.2961426,-0.09797668,0.9500885,1.0,0.2652283,-0.08023071,0.9608307,-30.42372,-2.992432,-27.77287,4.293976,0.4067843,0.6910803000000001,1.0,0.348175,-0.1280518,0.9286346,38.7206,-5.378174,-27.78952,4.433441,0.2183199,0.7912679,-0.4033647999999999,1.040218,-0.149443,-0.004745851,0.6874568,-0.02699617,0.0,53.54541,30.553049278518923
1,0.2961426,-0.09797668,0.9500885,1.0,0.2652283,-0.08023071,0.9608307,-30.42372,-2.992432,-27.77287,4.293976,0.4067843,0.6910803000000001,1.0,0.348175,-0.1280518,0.9286346,38.7206,-5.378174,-27.78952,4.433441,0.2183199,0.7912679,-0.4033647999999999,1.040218,-0.149443,-0.004745851,0.6874568,-0.02699617,0.0,53.54541,30.553049278518923
1,0.2961426,-0.09797668,0.9500885,1.0,0.2652283,-0.08023071,0.9608307,-30.42372,-2.992432,-27.77287,4.293976,0.4067843,0.6910803000000001,1.0,0.348175,-0.1280518,0.9286346,38.7206,-5.378174,-27.78952,4.433441,0.2183199,0.7912679,-0.4033647999999999,1.040218,-0.149443,-0.004745851,0.6874568,-0.02699617,0.0,53.54541,30.553049278518923
1,0.2866364,-0.08453369,0.9542847,1.0,0.261795,-0.07821655,0.9619446,-30.460140000000003,-2.9692990000000004,-27.77141,4.317429,0.4086352,0.6899024,1.0,0.322937,-0.09376526,0.9417572,38.6963,-5.366135,-27.77496,4.750687,0.2246442999999999,0.7835312,-0.4031388,1.040019,-0.1486477,-0.004150391,0.6847728,-0.02713862,0.0,53.54541,30.553049278518923
1,0.2866364,-0.08453369,0.9542847,1.0,0.261795,-0.07821655,0.9619446,-30.460140000000003,-2.9692990000000004,-27.77141,4.317429,0.4086352,0.6899024,1.0,0.322937,-0.09376526,0.9417572,38.6963,-5.366135,-27.77496,4.750687,0.2246442999999999,0.7835312,-0.4031388,1.040019,-0.1486477,-0.004150391,0.6847728,-0.02713862,0.0,53.54541,30.553049278518923
1,0.2866364,-0.08453369,0.9542847,1.0,0.261795,-0.07821655,0.9619446,-30.460140000000003,-2.9692990000000004,-27.77141,4.317429,0.4086352,0.6899024,1.0,0.322937,-0.09376526,0.9417572,38.6963,-5.366135,-27.77496,4.750687,0.2246442999999999,0.7835312,-0.4031388,1.040019,-0.1486477,-0.004150391,0.6847728,-0.02713862,0.0,53.54541,30.553049278518923
1,0.2830962999999999,-0.08517456,0.9552917,1.0,0.2546082,-0.08360291,0.9634094,-30.47237,-2.943512,-27.765490000000003,4.320709,0.4102953,0.689819,1.0,0.3158264,-0.08691406,0.944809,38.69344,-5.358154,-27.77525,4.787613,0.2262439,0.7817641,-0.4029056,1.040023,-0.1474605,-0.004033403,0.6804775,-0.02682111,0.0,53.54541,30.553049278518923
1,0.2830962999999999,-0.08517456,0.9552917,1.0,0.2546082,-0.08360291,0.9634094,-30.47237,-2.943512,-27.765490000000003,4.320709,0.4102953,0.689819,1.0,0.3158264,-0.08691406,0.944809,38.69344,-5.358154,-27.77525,4.787613,0.2262439,0.7817641,-0.4029056,1.040023,-0.1474605,-0.004033403,0.6804775,-0.02682111,0.0,53.54541,30.553049278518923
1,0.2830962999999999,-0.08517456,0.9552917,1.0,0.2546082,-0.08360291,0.9634094,-30.47237,-2.943512,-27.765490000000003,4.320709,0.4102953,0.689819,1.0,0.3158264,-0.08691406,0.944809,38.69344,-5.358154,-27.77525,4.787613,0.2262439,0.7817641,-0.4029056,1.040023,-0.1474605,-0.004033403,0.6804775,-0.02682111,0.0,53.54541,30.553049278518923
1,0.2830962999999999,-0.08517456,0.9552917,1.0,0.2546082,-0.08360291,0.9634094,-30.47237,-2.943512,-27.765490000000003,4.320709,0.4102953,0.689819,1.0,0.3158264,-0.08691406,0.944809,38.69344,-5.358154,-27.77525,4.787613,0.2262439,0.7817641,-0.4028636,1.040062,-0.1461723999999999,-0.003675817,0.6758913000000001,-0.02677413,0.0,53.54541,30.553049278518923
1,0.2830962999999999,-0.08517456,0.9552917,1.0,0.2546082,-0.08360291,0.9634094,-30.47237,-2.943512,-27.765490000000003,4.320709,0.4102953,0.689819,1.0,0.3158264,-0.08691406,0.944809,38.69344,-5.358154,-27.77525,4.787613,0.2262439,0.7817641,-0.4028636,1.040062,-0.1461723999999999,-0.003675817,0.6758913000000001,-0.02677413,0.0,53.54541,30.553049278518923
1,0.2830962999999999,-0.08517456,0.9552917,1.0,0.2546082,-0.08360291,0.9634094,-30.47237,-2.943512,-27.765490000000003,4.320709,0.4102953,0.689819,1.0,0.3158264,-0.08691406,0.944809,38.69344,-5.358154,-27.77525,4.787613,0.2262439,0.7817641,-0.4028636,1.040062,-0.1461723999999999,-0.003675817,0.6758913000000001,-0.02677413,0.0,53.54541,30.553049278518923
1,0.2830962999999999,-0.08517456,0.9552917,0.9645261,0.2546082,-0.08360291,0.9634094,-30.47237,-2.943512,-27.765490000000003,4.320709,0.4102953,0.689819,0.6197993,0.3158264,-0.08691406,0.944809,38.69344,-5.358154,-27.77525,4.787613,0.2262439,0.7817641,-0.4029433,1.04008,-0.1441786,-0.00346989,0.6680503000000001,-0.02628001,0.0,7.725983,30.553049278518923
1,0.2830962999999999,-0.08517456,0.9552917,0.9645261,0.2546082,-0.08360291,0.9634094,-30.47237,-2.943512,-27.765490000000003,4.320709,0.4102953,0.689819,0.6197993,0.3158264,-0.08691406,0.944809,38.69344,-5.358154,-27.77525,4.787613,0.2262439,0.7817641,-0.4029433,1.04008,-0.1441786,-0.00346989,0.6680503000000001,-0.02628001,0.0,7.725983,30.553049278518923
1,0.2830962999999999,-0.08517456,0.9552917,0.9645261,0.2546082,-0.08360291,0.9634094,-30.47237,-2.943512,-27.765490000000003,4.320709,0.4102953,0.689819,0.6197993,0.3158264,-0.08691406,0.944809,38.69344,-5.358154,-27.77525,4.787613,0.2262439,0.7817641,-0.4029433,1.04008,-0.1441786,-0.00346989,0.6680503000000001,-0.02628001,0.0,7.725983,30.553049278518923
1,0.2112273999999999,-0.09431458,0.9728699,0.8915620000000001,0.1782227,-0.08526611,0.9802856,-30.638140000000003,-2.861053,-27.84406,4.389053,0.4289193,0.6874477,0.6912321,0.2471466,-0.1040955,0.9633636,38.56346,-5.317001,-27.69908,4.906723,0.2446719,0.7808759,-0.4035031,1.039818,-0.1398463,-0.0028861309999999,0.6502376,-0.02739031,0.0,7.725983,30.553049278518923
1,0.2112273999999999,-0.09431458,0.9728699,0.8915620000000001,0.1782227,-0.08526611,0.9802856,-30.638140000000003,-2.861053,-27.84406,4.389053,0.4289193,0.6874477,0.6912321,0.2471466,-0.1040955,0.9633636,38.56346,-5.317001,-27.69908,4.906723,0.2446719,0.7808759,-0.4035031,1.039818,-0.1398463,-0.0028861309999999,0.6502376,-0.02739031,0.0,7.725983,30.553049278518923
1,0.2112273999999999,-0.09431458,0.9728699,0.8915620000000001,0.1782227,-0.08526611,0.9802856,-30.638140000000003,-2.861053,-27.84406,4.389053,0.4289193,0.6874477,0.6912321,0.2471466,-0.1040955,0.9633636,38.56346,-5.317001,-27.69908,4.906723,0.2446719,0.7808759,-0.4035031,1.039818,-0.1398463,-0.0028861309999999,0.6502376,-0.02739031,0.0,7.725983,30.553049278518923
1,0.1875609999999999,-0.07307434,0.9795227,0.9840487,0.158844,-0.08964539,0.9832153,-30.80946,-2.779999,-28.03558,4.391022,0.437952,0.6873997,0.7322605999999999,0.199707,-0.06600952,0.9776154,38.37469,-5.2483830000000005,-27.66428,4.939636,0.2614492,0.7695746,-0.4037559,1.039757,-0.1378675,-0.002068002,0.6423039,-0.02773952,0.0,7.725983,30.553049278518923
1,0.1875609999999999,-0.07307434,0.9795227,0.9840487,0.158844,-0.08964539,0.9832153,-30.80946,-2.779999,-28.03558,4.391022,0.437952,0.6873997,0.7322605999999999,0.199707,-0.06600952,0.9776154,38.37469,-5.2483830000000005,-27.66428,4.939636,0.2614492,0.7695746,-0.4037559,1.039757,-0.1378675,-0.002068002,0.6423039,-0.02773952,0.0,7.725983,30.553049278518923
1,0.1875609999999999,-0.07307434,0.9795227,0.9840487,0.158844,-0.08964539,0.9832153,-30.80946,-2.779999,-28.03558,4.391022,0.437952,0.6873997,0.7322605999999999,0.199707,-0.06600952,0.9776154,38.37469,-5.2483830000000005,-27.66428,4.939636,0.2614492,0.7695746,-0.4037559,1.039757,-0.1378675,-0.002068002,0.6423039,-0.02773952,0.0,7.725983,30.553049278518923
2,0.167038,-0.08830261,0.9819794,0.9924778,0.1315155,-0.09417725,0.9868164,-30.92677,-2.549835,-28.68546,4.341003,0.4463973,0.687139,0.7346889,0.167099,-0.08830261,0.9819641,38.23149,-5.200394,-27.65744,4.934051999999999,0.2727225,0.7712659000000001,-0.4039989,1.039592,-0.1363295,-0.00162404,0.6362810999999999,-0.02789861,0.0,7.725983,30.553049278518923
2,0.167038,-0.08830261,0.9819794,0.9924778,0.1315155,-0.09417725,0.9868164,-30.92677,-2.549835,-28.68546,4.341003,0.4463973,0.687139,0.7346889,0.167099,-0.08830261,0.9819641,38.23149,-5.200394,-27.65744,4.934051999999999,0.2727225,0.7712659000000001,-0.4039989,1.039592,-0.1363295,-0.00162404,0.6362810999999999,-0.02789861,0.0,7.725983,30.553049278518923
2,0.167038,-0.08830261,0.9819794,0.9924778,0.1315155,-0.09417725,0.9868164,-30.92677,-2.549835,-28.68546,4.341003,0.4463973,0.687139,0.7346889,0.167099,-0.08830261,0.9819641,38.23149,-5.200394,-27.65744,4.934051999999999,0.2727225,0.7712659000000001,-0.4039989,1.039592,-0.1363295,-0.00162404,0.6362810999999999,-0.02789861,0.0,7.725983,30.553049278518923
2,0.1473082999999999,-0.09602356,0.9844055,1.0,0.1249237,-0.09408569,0.9876862,-31.02924,-2.266495,-29.54202,4.207779,0.4508372999999999,0.686507,1.0,0.1473082999999999,-0.09602356,0.9844055,38.1463,-5.148193,-27.68669,4.8237,0.2795392,0.7706586999999999,-0.4041741,1.039656,-0.1351128999999999,-0.001253823,0.6313459,-0.02773509,0.0,-8.821426,30.553049278518923
2,0.1473082999999999,-0.09602356,0.9844055,1.0,0.1249237,-0.09408569,0.9876862,-31.02924,-2.266495,-29.54202,4.207779,0.4508372999999999,0.686507,1.0,0.1473082999999999,-0.09602356,0.9844055,38.1463,-5.148193,-27.68669,4.8237,0.2795392,0.7706586999999999,-0.4041741,1.039656,-0.1351128999999999,-0.001253823,0.6313459,-0.02773509,0.0,-8.821426,30.553049278518923
2,0.1473082999999999,-0.09602356,0.9844055,1.0,0.1249237,-0.09408569,0.9876862,-31.02924,-2.266495,-29.54202,4.207779,0.4508372999999999,0.686507,1.0,0.1473082999999999,-0.09602356,0.9844055,38.1463,-5.148193,-27.68669,4.8237,0.2795392,0.7706586999999999,-0.4041741,1.039656,-0.1351128999999999,-0.001253823,0.6313459,-0.02773509,0.0,-8.821426,30.553049278518923
2,0.1483917,-0.1107788,0.9826965,0.9968175,0.1118469,-0.08755493,0.9898529,-31.07315,-2.170853,-29.740040000000004,4.287827,0.4545675999999999,0.6842393,0.7526359,0.1483917,-0.1107788,0.9826965,38.06953,-5.082108,-27.73073,4.807494999999999,0.2820136,0.7715054,-0.4042672,1.039888,-0.1338172,-0.001617144,0.6266124,-0.02747219,0.0,-8.821426,30.553049278518923
2,0.1483917,-0.1107788,0.9826965,0.9968175,0.1118469,-0.08755493,0.9898529,-31.07315,-2.170853,-29.740040000000004,4.287827,0.4545675999999999,0.6842393,0.7526359,0.1483917,-0.1107788,0.9826965,38.06953,-5.082108,-27.73073,4.807494999999999,0.2820136,0.7715054,-0.4042672,1.039888,-0.1338172,-0.001617144,0.6266124,-0.02747219,0.0,-8.821426,30.553049278518923
2,0.1483917,-0.1107788,0.9826965,0.9968175,0.1118469,-0.08755493,0.9898529,-31.07315,-2.170853,-29.740040000000004,4.287827,0.4545675999999999,0.6842393,0.7526359,0.1483917,-0.1107788,0.9826965,38.06953,-5.082108,-27.73073,4.807494999999999,0.2820136,0.7715054,-0.4042672,1.039888,-0.1338172,-0.001617144,0.6266124,-0.02747219,0.0,-8.821426,30.553049278518923
2,0.133667,-0.08677673,0.9872131,0.9187329,0.1004181,-0.0841217,0.9913788,-31.17221,-2.359848,-29.29236,4.217194,0.4599371,0.6851979,0.7548673,0.1348572,-0.08686829,0.9870453,37.99562,-4.999878,-28.00606,4.82132,0.2868388,0.7672547,-0.4043890999999999,1.040116,-0.1327777,-0.001665936,0.6225377,-0.02697333,0.0,-8.821426,30.553049278518923
2,0.133667,-0.08677673,0.9872131,0.9187329,0.1004181,-0.0841217,0.9913788,-31.17221,-2.359848,-29.29236,4.217194,0.4599371,0.6851979,0.7548673,0.1348572,-0.08686829,0.9870453,37.99562,-4.999878,-28.00606,4.82132,0.2868388,0.7672547,-0.4043890999999999,1.040116,-0.1327777,-0.001665936,0.6225377,-0.02697333,0.0,-8.821426,30.553049278518923
2,0.133667,-0.08677673,0.9872131,0.9187329,0.1004181,-0.0841217,0.9913788,-31.17221,-2.359848,-29.29236,4.217194,0.4599371,0.6851979,0.7548673,0.1348572,-0.08686829,0.9870453,37.99562,-4.999878,-28.00606,4.82132,0.2868388,0.7672547,-0.4043890999999999,1.040116,-0.1327777,-0.001665936,0.6225377,-0.02697333,0.0,-8.821426,30.553049278518923
2,0.1168823,-0.08033752,0.9898834,0.8726834000000001,0.08007813,-0.08050537,0.9935303,-31.189,-2.457993,-29.01149,4.322693,0.463999,0.6849312,0.7531517,0.1173096,-0.08032227,0.9898376,37.96637,-4.944229,-28.239140000000003,4.886383,0.2906567,0.7667893,-0.4046208,1.040136,-0.1316664,-0.0018371479999999,0.6175147,-0.02642012,0.0,-8.821426,30.553049278518923
2,0.1168823,-0.08033752,0.9898834,0.8726834000000001,0.08007813,-0.08050537,0.9935303,-31.189,-2.457993,-29.01149,4.322693,0.463999,0.6849312,0.7531517,0.1173096,-0.08032227,0.9898376,37.96637,-4.944229,-28.239140000000003,4.886383,0.2906567,0.7667893,-0.4046208,1.040136,-0.1316664,-0.0018371479999999,0.6175147,-0.02642012,0.0,-8.821426,30.553049278518923
2,0.1168823,-0.08033752,0.9898834,0.8726834000000001,0.08007813,-0.08050537,0.9935303,-31.189,-2.457993,-29.01149,4.322693,0.463999,0.6849312,0.7531517,0.1173096,-0.08032227,0.9898376,37.96637,-4.944229,-28.239140000000003,4.886383,0.2906567,0.7667893,-0.4046208,1.040136,-0.1316664,-0.0018371479999999,0.6175147,-0.02642012,0.0,-8.821426,30.553049278518923
2,0.09043884,-0.07884216,0.9927673,0.8764501,0.07644653,-0.08494568,0.9934387,-31.19891,-2.466156,-28.99638,4.305587999999999,0.464949,0.6858063,0.7553261,0.1009064,-0.07424927,0.9921112,37.91847,-4.826233,-28.60858,4.892348999999999,0.2947669,0.7657539000000001,-0.4048994,1.040081,-0.1304757,-0.00225995,0.6121331999999999,-0.02640651,0.0,-8.821426,30.553049278518923
2,0.09043884,-0.07884216,0.9927673,0.8764501,0.07644653,-0.08494568,0.9934387,-31.19891,-2.466156,-28.99638,4.305587999999999,0.464949,0.6858063,0.7553261,0.1009064,-0.07424927,0.9921112,37.91847,-4.826233,-28.60858,4.892348999999999,0.2947669,0.7657539000000001,-0.4048994,1.040081,-0.1304757,-0.00225995,0.6121331999999999,-0.02640651,0.0,-8.821426,30.553049278518923
2,0.09043884,-0.07884216,0.9927673,0.8764501,0.07644653,-0.08494568,0.9934387,-31.19891,-2.466156,-28.99638,4.305587999999999,0.464949,0.6858063,0.7553261,0.1009064,-0.07424927,0.9921112,37.91847,-4.826233,-28.60858,4.892348999999999,0.2947669,0.7657539000000001,-0.4048994,1.040081,-0.1304757,-0.00225995,0.6121331999999999,-0.02640651,0.0,-8.821426,30.553049278518923
2,0.07679749,-0.08605957,0.9933167,0.8927267,0.07403564,-0.08808899,0.9933472,-31.22375,-2.516373,-28.86543,4.325821,0.4662099,0.6866909000000001,0.7690312,0.1010132,-0.06817627,0.9925385,37.81223,-4.855606,-28.47549,4.871719000000001,0.2989649,0.7639365,-0.4051447,1.040174,-0.1291293999999999,-0.002620961,0.6066014,-0.02644478,0.0,-36.01714,30.553049278518923
2,0.07679749,-0.08605957,0.9933167,0.8927267,0.07403564,-0.08808899,0.9933472,-31.22375,-2.516373,-28.86543,4.325821,0.4662099,0.6866909000000001,0.7690312,0.1010132,-0.06817627,0.9925385,37.81223,-4.855606,-28.47549,4.871719000000001,0.2989649,0.7639365,-0.4051447,1.040174,-0.1291293999999999,-0.002620961,0.6066014,-0.02644478,0.0,-36.01714,30.553049278518923
2,0.07679749,-0.08605957,0.9933167,0.8927267,0.07403564,-0.08808899,0.9933472,-31.22375,-2.516373,-28.86543,4.325821,0.4662099,0.6866909000000001,0.7690312,0.1010132,-0.06817627,0.9925385,37.81223,-4.855606,-28.47549,4.871719000000001,0.2989649,0.7639365,-0.4051447,1.040174,-0.1291293999999999,-0.002620961,0.6066014,-0.02644478,0.0,-36.01714,30.553049278518923
2,0.103714,-0.08554077,0.990921,0.8570386000000001,0.06013489,-0.09507751,0.9936371,-31.39064,-2.608612,-28.55511,4.404755000000001,0.4742535,0.6877809,0.7502053000000001,0.1049956999999999,-0.08525085,0.990799,37.73196,-4.837631,-28.47716,4.961975,0.3010334,0.7665642,-0.4055097,1.040264,-0.1278803,-0.003125334,0.6005503000000001,-0.02718484,0.0,-36.01714,30.553049278518923
2,0.103714,-0.08554077,0.990921,0.8570386000000001,0.06013489,-0.09507751,0.9936371,-31.39064,-2.608612,-28.55511,4.404755000000001,0.4742535,0.6877809,0.7502053000000001,0.1049956999999999,-0.08525085,0.990799,37.73196,-4.837631,-28.47716,4.961975,0.3010334,0.7665642,-0.4055097,1.040264,-0.1278803,-0.003125334,0.6005503000000001,-0.02718484,0.0,-36.01714,30.553049278518923
2,0.103714,-0.08554077,0.990921,0.8570386000000001,0.06013489,-0.09507751,0.9936371,-31.39064,-2.608612,-28.55511,4.404755000000001,0.4742535,0.6877809,0.7502053000000001,0.1049956999999999,-0.08525085,0.990799,37.73196,-4.837631,-28.47716,4.961975,0.3010334,0.7665642,-0.4055097,1.040264,-0.1278803,-0.003125334,0.6005503000000001,-0.02718484,0.0,-36.01714,30.553049278518923
2,0.0793457,-0.1053466999999999,0.9912567,0.8478752,0.0536499,-0.08901978,0.9945679,-31.4463,-2.627655,-28.50511,4.4217830000000005,0.477238,0.6868573,0.7451398,0.0811615,-0.1064911,0.9909821,37.68637,-4.953461,-28.10724,4.97052,0.3073502,0.7700307,-0.4057916,1.040193,-0.1265668,-0.003369671,0.5942765,-0.02817313,0.0,-36.01714,30.553049278518923
2,0.0793457,-0.1053466999999999,0.9912567,0.8478752,0.0536499,-0.08901978,0.9945679,-31.4463,-2.627655,-28.50511,4.4217830000000005,0.477238,0.6868573,0.7451398,0.0811615,-0.1064911,0.9909821,37.68637,-4.953461,-28.10724,4.97052,0.3073502,0.7700307,-0.4057916,1.040193,-0.1265668,-0.003369671,0.5942765,-0.02817313,0.0,-36.01714,30.553049278518923
2,0.0793457,-0.1053466999999999,0.9912567,0.8478752,0.0536499,-0.08901978,0.9945679,-31.4463,-2.627655,-28.50511,4.4217830000000005,0.477238,0.6868573,0.7451398,0.0811615,-0.1064911,0.9909821,37.68637,-4.953461,-28.10724,4.97052,0.3073502,0.7700307,-0.4057916,1.040193,-0.1265668,-0.003369671,0.5942765,-0.02817313,0.0,-36.01714,30.553049278518923
2,0.04734802,-0.09144592,0.9946747,0.8468428,0.04585266,-0.09121704,0.9947662,-31.4735,-2.713928,-28.27382,4.428726,0.4794491,0.6877078000000001,0.7520765,0.07009888,-0.09490967,0.9930115,37.56914,-5.007553,-27.89871,4.986786,0.3140387,0.7671375,-0.405947,1.039891,-0.1253653,-0.00300873,0.5879314999999999,-0.03072743,0.0,-36.01714,30.553049278518923
2,0.04734802,-0.09144592,0.9946747,0.8468428,0.04585266,-0.09121704,0.9947662,-31.4735,-2.713928,-28.27382,4.428726,0.4794491,0.6877078000000001,0.7520765,0.07009888,-0.09490967,0.9930115,37.56914,-5.007553,-27.89871,4.986786,0.3140387,0.7671375,-0.405947,1.039891,-0.1253653,-0.00300873,0.5879314999999999,-0.03072743,0.0,-36.01714,30.553049278518923
2,0.04734802,-0.09144592,0.9946747,0.8468428,0.04585266,-0.09121704,0.9947662,-31.4735,-2.713928,-28.27382,4.428726,0.4794491,0.6877078000000001,0.7520765,0.07009888,-0.09490967,0.9930115,37.56914,-5.007553,-27.89871,4.986786,0.3140387,0.7671375,-0.405947,1.039891,-0.1253653,-0.00300873,0.5879314999999999,-0.03072743,0.0,-36.01714,30.553049278518923
2,0.03440857,-0.08718872,0.9955902,0.8408591000000001,0.01525879,-0.09165955,0.9956665,-31.63173,-2.864731,-27.879990000000003,4.463089,0.4898739,0.6887299,0.7444948,0.03697205,-0.08659363,0.9955444,37.49251,-5.071381,-27.69746,4.936966,0.3230183,0.765189,-0.4060015999999999,1.039252,-0.1244062,-0.001482539,0.5824259,-0.03352703,0.0,-36.01714,30.553049278518923
2,0.03440857,-0.08718872,0.9955902,0.8408591000000001,0.01525879,-0.09165955,0.9956665,-31.63173,-2.864731,-27.879990000000003,4.463089,0.4898739,0.6887299,0.7444948,0.03697205,-0.08659363,0.9955444,37.49251,-5.071381,-27.69746,4.936966,0.3230183,0.765189,-0.4060015999999999,1.039252,-0.1244062,-0.001482539,0.5824259,-0.03352703,0.0,-36.01714,30.553049278518923
2,0.03440857,-0.08718872,0.9955902,0.8408591000000001,0.01525879,-0.09165955,0.9956665,-31.63173,-2.864731,-27.879990000000003,4.463089,0.4898739,0.6887299,0.7444948,0.03697205,-0.08659363,0.9955444,37.49251,-5.071381,-27.69746,4.936966,0.3230183,0.765189,-0.4060015999999999,1.039252,-0.1244062,-0.001482539,0.5824259,-0.03352703,0.0,-36.01714,30.553049278518923
2,0.04354858,-0.07977295,0.9958496,0.8166525,0.01582336,-0.0844574,0.9962921,-31.67516,-2.897369,-27.78085,4.4716190000000005,0.4912359999999999,0.6875343,0.7300563,0.0446166999999999,-0.07957458,0.9958190999999998,37.42371,-5.117737,-27.59119,5.021667,0.3243103,0.764371,-0.4059248,1.038423,-0.1234545,0.001314737,0.5768393,-0.03671537,0.0,-65.73538,30.553049278518923
2,0.04354858,-0.07977295,0.9958496,0.8166525,0.01582336,-0.0844574,0.9962921,-31.67516,-2.897369,-27.78085,4.4716190000000005,0.4912359999999999,0.6875343,0.7300563,0.0446166999999999,-0.07957458,0.9958190999999998,37.42371,-5.117737,-27.59119,5.021667,0.3243103,0.764371,-0.4059248,1.038423,-0.1234545,0.001314737,0.5768393,-0.03671537,0.0,-65.73538,30.553049278518923
2,0.04354858,-0.07977295,0.9958496,0.8166525,0.01582336,-0.0844574,0.9962921,-31.67516,-2.897369,-27.78085,4.4716190000000005,0.4912359999999999,0.6875343,0.7300563,0.0446166999999999,-0.07957458,0.9958190999999998,37.42371,-5.117737,-27.59119,5.021667,0.3243103,0.764371,-0.4059248,1.038423,-0.1234545,0.001314737,0.5768393,-0.03671537,0.0,-65.73538,30.553049278518923
2,0.0005340576,-0.08135986,0.9966736,0.8234896,0.0004730225,-0.08421326,0.9964447,-31.83763,-2.971436,-27.55505,4.430511,0.4992278,0.6876057,0.7581346999999999,0.0007629395,-0.06903076,0.9976044,37.27766,-5.215439,-27.20901,4.992279,0.3377869,0.7611029,-0.4056524,1.0372860000000002,-0.1229789,0.005616561,0.5739696,-0.04124008,0.0,-65.73538,30.553049278518923
2,0.0005340576,-0.08135986,0.9966736,0.8234896,0.0004730225,-0.08421326,0.9964447,-31.83763,-2.971436,-27.55505,4.430511,0.4992278,0.6876057,0.7581346999999999,0.0007629395,-0.06903076,0.9976044,37.27766,-5.215439,-27.20901,4.992279,0.3377869,0.7611029,-0.4056524,1.0372860000000002,-0.1229789,0.005616561,0.5739696,-0.04124008,0.0,-65.73538,30.553049278518923
2,0.0005340576,-0.08135986,0.9966736,0.8234896,0.0004730225,-0.08421326,0.9964447,-31.83763,-2.971436,-27.55505,4.430511,0.4992278,0.6876057,0.7581346999999999,0.0007629395,-0.06903076,0.9976044,37.27766,-5.215439,-27.20901,4.992279,0.3377869,0.7611029,-0.4056524,1.0372860000000002,-0.1229789,0.005616561,0.5739696,-0.04124008,0.0,-65.73538,30.553049278518923
2,-0.004486084,-0.07409668,0.9972382,0.8029841,-0.01545715,-0.07395935,0.9971313,-31.919970000000003,-2.970093,-27.47284,4.541428,0.5046375,0.6850142,0.7489663000000001,0.007644653,-0.07424927,0.9972076,37.19756,-5.134735,-27.22803,5.03775,0.3394289,0.7594451,-0.4049591,1.035814,-0.1228426,0.01199026,0.5725344,-0.0457915,0.0,-65.73538,30.553049278518923
2,-0.004486084,-0.07409668,0.9972382,0.8029841,-0.01545715,-0.07395935,0.9971313,-31.919970000000003,-2.970093,-27.47284,4.541428,0.5046375,0.6850142,0.7489663000000001,0.007644653,-0.07424927,0.9972076,37.19756,-5.134735,-27.22803,5.03775,0.3394289,0.7594451,-0.4049591,1.035814,-0.1228426,0.01199026,0.5725344,-0.0457915,0.0,-65.73538,30.553049278518923
2,-0.004486084,-0.07409668,0.9972382,0.8029841,-0.01545715,-0.07395935,0.9971313,-31.919970000000003,-2.970093,-27.47284,4.541428,0.5046375,0.6850142,0.7489663000000001,0.007644653,-0.07424927,0.9972076,37.19756,-5.134735,-27.22803,5.03775,0.3394289,0.7594451,-0.4049591,1.035814,-0.1228426,0.01199026,0.5725344,-0.0457915,0.0,-65.73538,30.553049278518923
2,0.008071899,-0.06311035,0.9979706,0.7871718000000001,-0.01289368,-0.04676819,0.9988098,-31.95755,-2.805298,-27.71448,4.554947,0.5055677,0.6773096,0.7564199,0.01261902,-0.06665039,0.9976959,37.17831,-5.1297,-27.16051,5.052811,0.3394309,0.7570923,-0.4040041,1.034224,-0.1229043,0.0187796,0.5725558000000001,-0.05061026,0.0,-65.73538,30.553049278518923
2,0.008071899,-0.06311035,0.9979706,0.7871718000000001,-0.01289368,-0.04676819,0.9988098,-31.95755,-2.805298,-27.71448,4.554947,0.5055677,0.6773096,0.7564199,0.01261902,-0.06665039,0.9976959,37.17831,-5.1297,-27.16051,5.052811,0.3394309,0.7570923,-0.4040041,1.034224,-0.1229043,0.0187796,0.5725558000000001,-0.05061026,0.0,-65.73538,30.553049278518923
2,0.008071899,-0.06311035,0.9979706,0.7871718000000001,-0.01289368,-0.04676819,0.9988098,-31.95755,-2.805298,-27.71448,4.554947,0.5055677,0.6773096,0.7564199,0.01261902,-0.06665039,0.9976959,37.17831,-5.1297,-27.16051,5.052811,0.3394309,0.7570923,-0.4040041,1.034224,-0.1229043,0.0187796,0.5725558000000001,-0.05061026,0.0,-65.73538,30.553049278518923
2,-0.015625,-0.04179382,0.9989929,0.7726249,-0.01641846,-0.04362488,0.9989014,-31.97937,-2.719009,-27.74431,4.533539,0.5069067,0.6741533000000001,0.7632715999999999,-0.0136261,-0.03717041,0.9992065,37.11737,-4.814056,-27.765690000000003,4.914291,0.3458335999999999,0.7474433000000001,-0.4028636,1.032316,-0.1230779999999999,0.02595753,0.5739528,-0.05578019,0.0,-65.73538,30.553049278518923
2,-0.015625,-0.04179382,0.9989929,0.7726249,-0.01641846,-0.04362488,0.9989014,-31.97937,-2.719009,-27.74431,4.533539,0.5069067,0.6741533000000001,0.7632715999999999,-0.0136261,-0.03717041,0.9992065,37.11737,-4.814056,-27.765690000000003,4.914291,0.3458335999999999,0.7474433000000001,-0.4028636,1.032316,-0.1230779999999999,0.02595753,0.5739528,-0.05578019,0.0,-65.73538,30.553049278518923
2,-0.015625,-0.04179382,0.9989929,0.7726249,-0.01641846,-0.04362488,0.9989014,-31.97937,-2.719009,-27.74431,4.533539,0.5069067,0.6741533000000001,0.7632715999999999,-0.0136261,-0.03717041,0.9992065,37.11737,-4.814056,-27.765690000000003,4.914291,0.3458335999999999,0.7474433000000001,-0.4028636,1.032316,-0.1230779999999999,0.02595753,0.5739528,-0.05578019,0.0,-65.73538,30.553049278518923
2,-0.001922607,-0.06446838,0.9979095,0.7067832,-0.00289917,-0.0637207,0.9979553,-31.7047,-2.848404,-27.46115,4.542267,0.4953096999999999,0.6789354000000001,0.7252468000000001,0.025177,-0.08477783,0.9960785,37.30347,-4.954224,-27.5087,4.945983999999999,0.3322862,0.7582977,-0.4016559,1.030602,-0.1228607,0.03198067,0.5732971,-0.06084461,0.0,-115.3975,30.553049278518923
2,-0.001922607,-0.06446838,0.9979095,0.7067832,-0.00289917,-0.0637207,0.9979553,-31.7047,-2.848404,-27.46115,4.542267,0.4953096999999999,0.6789354000000001,0.7252468000000001,0.025177,-0.08477783,0.9960785,37.30347,-4.954224,-27.5087,4.945983999999999,0.3322862,0.7582977,-0.4016559,1.030602,-0.1228607,0.03198067,0.5732971,-0.06084461,0.0,-115.3975,30.553049278518923
2,-0.001922607,-0.06446838,0.9979095,0.7067832,-0.00289917,-0.0637207,0.9979553,-31.7047,-2.848404,-27.46115,4.542267,0.4953096999999999,0.6789354000000001,0.7252468000000001,0.025177,-0.08477783,0.9960785,37.30347,-4.954224,-27.5087,4.945983999999999,0.3322862,0.7582977,-0.4016559,1.030602,-0.1228607,0.03198067,0.5732971,-0.06084461,0.0,-115.3975,30.553049278518923
2,0.1412354,-0.3245544,0.935257,0.7703456,0.07815552,-0.3005676,0.9505463,-31.06502,-3.650299,-28.02512,4.3765410000000005,0.459804,0.7554022,0.4711449,0.1523437999999999,-0.3286285,0.9320831,37.71785,-6.041092,-27.87762,5.10611,0.2887048,0.8534069999999999,-0.4004313,1.028815,-0.1224519999999999,0.03702828,0.5728806,-0.06566152,0.0,-115.3975,30.553049278518923
2,0.1412354,-0.3245544,0.935257,0.7703456,0.07815552,-0.3005676,0.9505463,-31.06502,-3.650299,-28.02512,4.3765410000000005,0.459804,0.7554022,0.4711449,0.1523437999999999,-0.3286285,0.9320831,37.71785,-6.041092,-27.87762,5.10611,0.2887048,0.8534069999999999,-0.4004313,1.028815,-0.1224519999999999,0.03702828,0.5728806,-0.06566152,0.0,-115.3975,30.553049278518923
2,0.1412354,-0.3245544,0.935257,0.7703456,0.07815552,-0.3005676,0.9505463,-31.06502,-3.650299,-28.02512,4.3765410000000005,0.459804,0.7554022,0.4711449,0.1523437999999999,-0.3286285,0.9320831,37.71785,-6.041092,-27.87762,5.10611,0.2887048,0.8534069999999999,-0.4004313,1.028815,-0.1224519999999999,0.03702828,0.5728806,-0.06566152,0.0,-115.3975,30.553049278518923
2,0.1243134,-0.4313049,0.8935851999999999,0.6293645,0.1201935,-0.4236603,0.8977966000000001,-30.8911,-3.955124,-28.163390000000003,4.6734160000000005,0.4465886999999999,0.7923508,0.1812731,0.2128143,-0.5905914000000001,0.7783966,37.95354,-6.418167,-28.20187,5.024001999999999,0.2579314,0.9407014,-0.3992815999999999,1.027295,-0.1220329999999999,0.0414279,0.5716683000000001,-0.07092831,0.0,-115.3975,30.553049278518923
2,0.1243134,-0.4313049,0.8935851999999999,0.6293645,0.1201935,-0.4236603,0.8977966000000001,-30.8911,-3.955124,-28.163390000000003,4.6734160000000005,0.4465886999999999,0.7923508,0.1812731,0.2128143,-0.5905914000000001,0.7783966,37.95354,-6.418167,-28.20187,5.024001999999999,0.2579314,0.9407014,-0.3992815999999999,1.027295,-0.1220329999999999,0.0414279,0.5716683000000001,-0.07092831,0.0,-115.3975,30.553049278518923
2,0.1243134,-0.4313049,0.8935851999999999,0.6293645,0.1201935,-0.4236603,0.8977966000000001,-30.8911,-3.955124,-28.163390000000003,4.6734160000000005,0.4465886999999999,0.7923508,0.1812731,0.2128143,-0.5905914000000001,0.7783966,37.95354,-6.418167,-28.20187,5.024001999999999,0.2579314,0.9407014,-0.3992815999999999,1.027295,-0.1220329999999999,0.0414279,0.5716683000000001,-0.07092831,0.0,-115.3975,30.553049278518923
2,0.1291962,-0.4494934,0.8838806,0.5458174,0.1280365,-0.4453583,0.8861389000000001,-30.90913,-3.841202,-28.15578,4.545074,0.4458725,0.792654,0.1025156999999999,0.17276,-0.6033478,0.7785339,38.10767,-6.3022,-28.14986,4.948486,0.2600113,0.9371039,-0.3979210999999999,1.026216,-0.1214971,0.04394523,0.5693786999999999,-0.07478064,0.0,-115.3975,30.553049278518923
2,0.1291962,-0.4494934,0.8838806,0.5458174,0.1280365,-0.4453583,0.8861389000000001,-30.90913,-3.841202,-28.15578,4.545074,0.4458725,0.792654,0.1025156999999999,0.17276,-0.6033478,0.7785339,38.10767,-6.3022,-28.14986,4.948486,0.2600113,0.9371039,-0.3979210999999999,1.026216,-0.1214971,0.04394523,0.5693786999999999,-0.07478064,0.0,-115.3975,30.553049278518923
2,0.1291962,-0.4494934,0.8838806,0.5458174,0.1280365,-0.4453583,0.8861389000000001,-30.90913,-3.841202,-28.15578,4.545074,0.4458725,0.792654,0.1025156999999999,0.17276,-0.6033478,0.7785339,38.10767,-6.3022,-28.14986,4.948486,0.2600113,0.9371039,-0.3979210999999999,1.026216,-0.1214971,0.04394523,0.5693786999999999,-0.07478064,0.0,-115.3975,30.553049278518923
2,0.1351012999999999,-0.4557952999999999,0.8797607,0.4272327999999999,0.1241913,-0.4307404,0.8938751,-31.00801,-3.765472,-28.10782,4.506821,0.4499920999999999,0.786335,0.0591579,0.1854553,-0.5695496,0.8007506999999999,38.14481,-6.146835,-28.07333,4.632614,0.2588397999999999,0.919684,-0.3966830999999999,1.025375,-0.1209693,0.04546673,0.5673769000000001,-0.07908226,0.0,-115.3975,32.07
2,0.1351012999999999,-0.4557952999999999,0.8797607,0.4272327999999999,0.1241913,-0.4307404,0.8938751,-31.00801,-3.765472,-28.10782,4.506821,0.4499920999999999,0.786335,0.0591579,0.1854553,-0.5695496,0.8007506999999999,38.14481,-6.146835,-28.07333,4.632614,0.2588397999999999,0.919684,-0.3966830999999999,1.025375,-0.1209693,0.04546673,0.5673769000000001,-0.07908226,0.0,-115.3975,32.07
2,0.1351012999999999,-0.4557952999999999,0.8797607,0.4272327999999999,0.1241913,-0.4307404,0.8938751,-31.00801,-3.765472,-28.10782,4.506821,0.4499920999999999,0.786335,0.0591579,0.1854553,-0.5695496,0.8007506999999999,38.14481,-6.146835,-28.07333,4.632614,0.2588397999999999,0.919684,-0.3966830999999999,1.025375,-0.1209693,0.04546673,0.5673769000000001,-0.07908226,0.0,-115.3975,32.07
2,0.1280518,-0.4445496,0.8865356,0.4363942,0.1216583,-0.4234161,0.8977203000000001,-31.01808,-3.759583,-28.107090000000003,4.508362,0.450779,0.7846111,0.02038295,0.1435089,-0.4954987,0.8566589,38.18512,-6.150131,-28.01514,4.861098999999999,0.2677515,0.8988896000000001,-0.3956609,1.024703,-0.1204783,0.04659529,0.5655688,-0.08348632,0.0,180.7291,32.07
2,0.1280518,-0.4445496,0.8865356,0.4363942,0.1216583,-0.4234161,0.8977203000000001,-31.01808,-3.759583,-28.107090000000003,4.508362,0.450779,0.7846111,0.02038295,0.1435089,-0.4954987,0.8566589,38.18512,-6.150131,-28.01514,4.861098999999999,0.2677515,0.8988896000000001,-0.3956609,1.024703,-0.1204783,0.04659529,0.5655688,-0.08348632,0.0,180.7291,32.07
2,0.1280518,-0.4445496,0.8865356,0.4363942,0.1216583,-0.4234161,0.8977203000000001,-31.01808,-3.759583,-28.107090000000003,4.508362,0.450779,0.7846111,0.02038295,0.1435089,-0.4954987,0.8566589,38.18512,-6.150131,-28.01514,4.861098999999999,0.2677515,0.8988896000000001,-0.3956609,1.024703,-0.1204783,0.04659529,0.5655688,-0.08348632,0.0,180.7291,32.07
2,0.1406707999999999,-0.4476470999999999,0.8830565999999999,0.4612375,0.1204833999999999,-0.4156647,0.9014893,-31.029190000000003,-3.764618,-28.10623,4.492706,0.4513626,0.7831935,0.05909666,0.1733398,-0.4985657,0.8493347,38.20795,-6.261368,-28.08231,5.166656,0.2597755,0.9070239,-0.3947105,1.023969,-0.1198735,0.04793362,0.5630221,-0.08687758,0.0,180.7291,32.07
2,0.1406707999999999,-0.4476470999999999,0.8830565999999999,0.4612375,0.1204833999999999,-0.4156647,0.9014893,-31.029190000000003,-3.764618,-28.10623,4.492706,0.4513626,0.7831935,0.05909666,0.1733398,-0.4985657,0.8493347,38.20795,-6.261368,-28.08231,5.166656,0.2597755,0.9070239,-0.3947105,1.023969,-0.1198735,0.04793362,0.5630221,-0.08687758,0.0,180.7291,32.07
2,0.1406707999999999,-0.4476470999999999,0.8830565999999999,0.4612375,0.1204833999999999,-0.4156647,0.9014893,-31.029190000000003,-3.764618,-28.10623,4.492706,0.4513626,0.7831935,0.05909666,0.1733398,-0.4985657,0.8493347,38.20795,-6.261368,-28.08231,5.166656,0.2597755,0.9070239,-0.3947105,1.023969,-0.1198735,0.04793362,0.5630221,-0.08687758,0.0,180.7291,32.07
2,0.1128845,-0.4281464,0.8966216999999999,0.4633304,0.1048889,-0.391922,0.9139862,-31.06079,-3.770981,-28.10579,4.505875,0.4550959,0.7785652,0.04286994,0.1341248,-0.5252228,0.8403168,38.26277,-6.307251,-28.10101,4.884583,0.264341,0.9146633,-0.3938465,1.023206,-0.1192493999999999,0.04955085,0.5602083000000001,-0.08974339,0.0,180.7291,32.07
2,0.1128845,-0.4281464,0.8966216999999999,0.4633304,0.1048889,-0.391922,0.9139862,-31.06079,-3.770981,-28.10579,4.505875,0.4550959,0.7785652,0.04286994,0.1341248,-0.5252228,0.8403168,38.26277,-6.307251,-28.10101,4.884583,0.264341,0.9146633,-0.3938465,1.023206,-0.1192493999999999,0.04955085,0.5602083000000001,-0.08974339,0.0,180.7291,32.07
2,0.1128845,-0.4281464,0.8966216999999999,0.4633304,0.1048889,-0.391922,0.9139862,-31.06079,-3.770981,-28.10579,4.505875,0.4550959,0.7785652,0.04286994,0.1341248,-0.5252228,0.8403168,38.26277,-6.307251,-28.10101,4.884583,0.264341,0.9146633,-0.3938465,1.023206,-0.1192493999999999,0.04955085,0.5602083000000001,-0.08974339,0.0,180.7291,32.07
2,0.1287689,-0.437088,0.8901367,0.5579991,0.1052704,-0.381424,0.9183807,-31.13377,-3.798965,-28.09747,4.589919999999999,0.4575672999999999,0.777399,0.1300358999999999,0.1603698999999999,-0.5110321,0.8444519,38.15971,-6.375153,-28.126040000000003,5.123505000000001,0.2630926,0.9152473,-0.3927029,1.021434,-0.1176196,0.05325149,0.5532555,-0.09593361,0.0,180.7291,32.07
2,0.1287689,-0.437088,0.8901367,0.5579991,0.1052704,-0.381424,0.9183807,-31.13377,-3.798965,-28.09747,4.589919999999999,0.4575672999999999,0.777399,0.1300358999999999,0.1603698999999999,-0.5110321,0.8444519,38.15971,-6.375153,-28.126040000000003,5.123505000000001,0.2630926,0.9152473,-0.3927029,1.021434,-0.1176196,0.05325149,0.5532555,-0.09593361,0.0,180.7291,32.07
2,0.1287689,-0.437088,0.8901367,0.5579991,0.1052704,-0.381424,0.9183807,-31.13377,-3.798965,-28.09747,4.589919999999999,0.4575672999999999,0.777399,0.1300358999999999,0.1603698999999999,-0.5110321,0.8444519,38.15971,-6.375153,-28.126040000000003,5.123505000000001,0.2630926,0.9152473,-0.3927029,1.021434,-0.1176196,0.05325149,0.5532555,-0.09593361,0.0,180.7291,32.07
2,0.127243,-0.4235229,0.8968964,0.5860857,0.1015778,-0.370575,0.9232178,-31.14769,-3.806671,-28.09038,4.615738,0.4586759,0.7754378000000001,0.1651155,0.1600952,-0.4902801999999999,0.85672,38.14735,-6.33696,-28.09682,5.031647,0.264737,0.9076238,-0.3922869,1.020722,-0.1166986,0.05425796,0.5486781999999999,-0.0985783,0.0,180.7291,32.07
2,0.127243,-0.4235229,0.8968964,0.5860857,0.1015778,-0.370575,0.9232178,-31.14769,-3.806671,-28.09038,4.615738,0.4586759,0.7754378000000001,0.1651155,0.1600952,-0.4902801999999999,0.85672,38.14735,-6.33696,-28.09682,5.031647,0.264737,0.9076238,-0.3922869,1.020722,-0.1166986,0.05425796,0.5486781999999999,-0.0985783,0.0,180.7291,32.07
2,0.127243,-0.4235229,0.8968964,0.5860857,0.1015778,-0.370575,0.9232178,-31.14769,-3.806671,-28.09038,4.615738,0.4586759,0.7754378000000001,0.1651155,0.1600952,-0.4902801999999999,0.85672,38.14735,-6.33696,-28.09682,5.031647,0.264737,0.9076238,-0.3922869,1.020722,-0.1166986,0.05425796,0.5486781999999999,-0.0985783,0.0,180.7291,32.07
2,0.1081238,-0.3966827,0.9115601,0.6297772,0.06840515,-0.3502045,0.9341583,-31.19798,-3.743866,-28.03477,4.712891,0.4660027,0.7684686,0.2055254,0.1606598,-0.4563904,0.8751373,38.09958,-6.261383,-28.0372,5.16301,0.2679271,0.895228,-0.3919944,1.020243,-0.115667,0.05478938,0.5432085,-0.1006117,0.0,104.7615,32.07
2,0.1081238,-0.3966827,0.9115601,0.6297772,0.06840515,-0.3502045,0.9341583,-31.19798,-3.743866,-28.03477,4.712891,0.4660027,0.7684686,0.2055254,0.1606598,-0.4563904,0.8751373,38.09958,-6.261383,-28.0372,5.16301,0.2679271,0.895228,-0.3919944,1.020243,-0.115667,0.05478938,0.5432085,-0.1006117,0.0,104.7615,32.07
2,0.1081238,-0.3966827,0.9115601,0.6297772,0.06840515,-0.3502045,0.9341583,-31.19798,-3.743866,-28.03477,4.712891,0.4660027,0.7684686,0.2055254,0.1606598,-0.4563904,0.8751373,38.09958,-6.261383,-28.0372,5.16301,0.2679271,0.895228,-0.3919944,1.020243,-0.115667,0.05478938,0.5432085,-0.1006117,0.0,104.7615,32.07
2,0.07070923,-0.3567047,0.9315338,0.6000542,0.07070923,-0.3567047,0.9315338,-31.322540000000004,-3.805527,-28.05556,4.017502,0.4697666,0.7719305000000001,0.1040065,0.0,0.0,0.0,38.08766,-6.147598,-28.05824,-1.0,0.2735183,0.9076845,-0.3918618,1.020058,-0.1143908999999999,0.05408176,0.5370024999999999,-0.1022684,0.0,104.7615,32.07
2,0.07070923,-0.3567047,0.9315338,0.6000542,0.07070923,-0.3567047,0.9315338,-31.322540000000004,-3.805527,-28.05556,4.017502,0.4697666,0.7719305000000001,0.1040065,0.0,0.0,0.0,38.08766,-6.147598,-28.05824,-1.0,0.2735183,0.9076845,-0.3918618,1.020058,-0.1143908999999999,0.05408176,0.5370024999999999,-0.1022684,0.0,104.7615,32.07
2,0.07070923,-0.3567047,0.9315338,0.6000542,0.07070923,-0.3567047,0.9315338,-31.322540000000004,-3.805527,-28.05556,4.017502,0.4697666,0.7719305000000001,0.1040065,0.0,0.0,0.0,38.08766,-6.147598,-28.05824,-1.0,0.2735183,0.9076845,-0.3918618,1.020058,-0.1143908999999999,0.05408176,0.5370024999999999,-0.1022684,0.0,104.7615,32.07
2,-1.0,-1.0,-1.0,0.5180089,0.0,0.0,0.0,-31.23685,-3.800217,-28.060270000000003,-1.0,0.3871146,0.804521,0.0,0.0,0.0,0.0,37.69595,-6.95639,-28.38132,-1.0,0.2860704,0.947121,-0.3918417999999999,1.020193,-0.1128031999999999,0.05268017,0.5293846,-0.1026077,0.0,104.7615,32.07
2,-1.0,-1.0,-1.0,0.5180089,0.0,0.0,0.0,-31.23685,-3.800217,-28.060270000000003,-1.0,0.3871146,0.804521,0.0,0.0,0.0,0.0,37.69595,-6.95639,-28.38132,-1.0,0.2860704,0.947121,-0.3918417999999999,1.020193,-0.1128031999999999,0.05268017,0.5293846,-0.1026077,0.0,104.7615,32.07
2,-1.0,-1.0,-1.0,0.5180089,0.0,0.0,0.0,-31.23685,-3.800217,-28.060270000000003,-1.0,0.3871146,0.804521,0.0,0.0,0.0,0.0,37.69595,-6.95639,-28.38132,-1.0,0.2860704,0.947121,-0.3918417999999999,1.020193,-0.1128031999999999,0.05268017,0.5293846,-0.1026077,0.0,104.7615,32.07
3,0.2797394,-0.3383484,0.898468,0.4732862,0.2445831,-0.2759399,0.9295197,-30.42203,-3.403763,-28.04451,5.514114,0.4102706,0.7444352,0.04060443,0.2903442,-0.3573761,0.8876648000000001,38.794340000000005,-5.912766,-27.9933,5.167862,0.2292782,0.8549353000000001,-0.3919467,1.020649,-0.1110333999999999,0.0502273,0.5210123999999999,-0.1017202,0.0,104.7615,32.07
3,0.2797394,-0.3383484,0.898468,0.4732862,0.2445831,-0.2759399,0.9295197,-30.42203,-3.403763,-28.04451,5.514114,0.4102706,0.7444352,0.04060443,0.2903442,-0.3573761,0.8876648000000001,38.794340000000005,-5.912766,-27.9933,5.167862,0.2292782,0.8549353000000001,-0.3919467,1.020649,-0.1110333999999999,0.0502273,0.5210123999999999,-0.1017202,0.0,104.7615,32.07
3,0.2797394,-0.3383484,0.898468,0.4732862,0.2445831,-0.2759399,0.9295197,-30.42203,-3.403763,-28.04451,5.514114,0.4102706,0.7444352,0.04060443,0.2903442,-0.3573761,0.8876648000000001,38.794340000000005,-5.912766,-27.9933,5.167862,0.2292782,0.8549353000000001,-0.3919467,1.020649,-0.1110333999999999,0.0502273,0.5210123999999999,-0.1017202,0.0,104.7615,32.07
3,0.229126,0.03865051,0.9726257,0.5425283000000001,0.2266083,0.04042053,0.9731293,-30.1554,-1.988602,-27.84818,4.707336,0.4047413,0.6368645000000001,0.4355532,0.3196716,-0.02700806,0.9471283,38.71568,-4.477432,-27.626590000000004,4.760193,0.2281536,0.7361843000000001,-0.392401,1.021367,-0.1090396,0.04685028,0.5118233,-0.1004422,0.0,104.7615,32.07
3,0.229126,0.03865051,0.9726257,0.5425283000000001,0.2266083,0.04042053,0.9731293,-30.1554,-1.988602,-27.84818,4.707336,0.4047413,0.6368645000000001,0.4355532,0.3196716,-0.02700806,0.9471283,38.71568,-4.477432,-27.626590000000004,4.760193,0.2281536,0.7361843000000001,-0.392401,1.021367,-0.1090396,0.04685028,0.5118233,-0.1004422,0.0,104.7615,32.07
3,0.229126,0.03865051,0.9726257,0.5425283000000001,0.2266083,0.04042053,0.9731293,-30.1554,-1.988602,-27.84818,4.707336,0.4047413,0.6368645000000001,0.4355532,0.3196716,-0.02700806,0.9471283,38.71568,-4.477432,-27.626590000000004,4.760193,0.2281536,0.7361843000000001,-0.392401,1.021367,-0.1090396,0.04685028,0.5118233,-0.1004422,0.0,104.7615,32.07
3,0.1735077,0.06503296,0.982666,0.6530414000000001,0.1718292,0.06541443,0.9829407,-30.29193,-2.126572,-28.11227,4.74826,0.4184560999999999,0.639671,0.7408816999999999,0.2661743,0.04414368,0.9629059,38.66121,-4.673965,-27.67578,5.148697,0.2401887,0.7303368,-0.3928083,1.021973,-0.1072233,0.04343319,0.5041035,-0.1001461,0.0,68.38418,32.07
3,0.1735077,0.06503296,0.982666,0.6530414000000001,0.1718292,0.06541443,0.9829407,-30.29193,-2.126572,-28.11227,4.74826,0.4184560999999999,0.639671,0.7408816999999999,0.2661743,0.04414368,0.9629059,38.66121,-4.673965,-27.67578,5.148697,0.2401887,0.7303368,-0.3928083,1.021973,-0.1072233,0.04343319,0.5041035,-0.1001461,0.0,68.38418,32.07
3,0.1735077,0.06503296,0.982666,0.6530414000000001,0.1718292,0.06541443,0.9829407,-30.29193,-2.126572,-28.11227,4.74826,0.4184560999999999,0.639671,0.7408816999999999,0.2661743,0.04414368,0.9629059,38.66121,-4.673965,-27.67578,5.148697,0.2401887,0.7303368,-0.3928083,1.021973,-0.1072233,0.04343319,0.5041035,-0.1001461,0.0,68.38418,32.07
3,0.2131195,0.04696655,0.9758911,0.8010656,0.1432342999999999,0.04573059,0.9886169,-30.49762,-1.587311,-30.25523,4.357025,0.4293918,0.6462953,0.9831225,0.2131195,0.04696655,0.9758911,38.51685,-4.839752,-27.689120000000003,5.216751,0.2552052999999999,0.7351300999999999,-0.3932992,1.022561,-0.1057138,0.04125778,0.4981521,-0.09972636,0.0,68.38418,32.07
3,0.2131195,0.04696655,0.9758911,0.8010656,0.1432342999999999,0.04573059,0.9886169,-30.49762,-1.587311,-30.25523,4.357025,0.4293918,0.6462953,0.9831225,0.2131195,0.04696655,0.9758911,38.51685,-4.839752,-27.689120000000003,5.216751,0.2552052999999999,0.7351300999999999,-0.3932992,1.022561,-0.1057138,0.04125778,0.4981521,-0.09972636,0.0,68.38418,32.07
3,0.2131195,0.04696655,0.9758911,0.8010656,0.1432342999999999,0.04573059,0.9886169,-30.49762,-1.587311,-30.25523,4.357025,0.4293918,0.6462953,0.9831225,0.2131195,0.04696655,0.9758911,38.51685,-4.839752,-27.689120000000003,5.216751,0.2552052999999999,0.7351300999999999,-0.3932992,1.022561,-0.1057138,0.04125778,0.4981521,-0.09972636,0.0,68.38418,32.07
3,0.1863861,0.03684998,0.981781,0.8164092,0.1323547,0.02713013,0.9908295,-30.71457,-1.561966,-30.50887,4.258072,0.4386431999999999,0.651191,0.9669362,0.1863861,0.03684998,0.981781,38.35612,-4.921584999999999,-27.69968,5.229889,0.2658534999999999,0.7395859,-0.3937652,1.022802,-0.1041614,0.04009504,0.4941175999999999,-0.09843085,0.0,68.38418,32.07
3,0.1863861,0.03684998,0.981781,0.8164092,0.1323547,0.02713013,0.9908295,-30.71457,-1.561966,-30.50887,4.258072,0.4386431999999999,0.651191,0.9669362,0.1863861,0.03684998,0.981781,38.35612,-4.921584999999999,-27.69968,5.229889,0.2658534999999999,0.7395859,-0.3937652,1.022802,-0.1041614,0.04009504,0.4941175999999999,-0.09843085,0.0,68.38418,32.07
3,0.1863861,0.03684998,0.981781,0.8164092,0.1323547,0.02713013,0.9908295,-30.71457,-1.561966,-30.50887,4.258072,0.4386431999999999,0.651191,0.9669362,0.1863861,0.03684998,0.981781,38.35612,-4.921584999999999,-27.69968,5.229889,0.2658534999999999,0.7395859,-0.3937652,1.022802,-0.1041614,0.04009504,0.4941175999999999,-0.09843085,0.0,68.38418,32.07
3,0.1692352,0.03811646,0.9848328000000002,0.8332258,0.1305237,0.02703857,0.9910736,-30.72758,-1.694473,-30.15392,4.366547,0.4395165,0.6521568,0.945981,0.1762085,0.0401001,0.9835205,38.32375,-4.928711,-27.72502,5.2302550000000005,0.2688644,0.7394149999999999,-0.3937545,1.022929,-0.1038237,0.04047657,0.4944429,-0.09723926,0.0,68.38418,32.07
3,0.1692352,0.03811646,0.9848328000000002,0.8332258,0.1305237,0.02703857,0.9910736,-30.72758,-1.694473,-30.15392,4.366547,0.4395165,0.6521568,0.945981,0.1762085,0.0401001,0.9835205,38.32375,-4.928711,-27.72502,5.2302550000000005,0.2688644,0.7394149999999999,-0.3937545,1.022929,-0.1038237,0.04047657,0.4944429,-0.09723926,0.0,68.38418,32.07
3,0.1692352,0.03811646,0.9848328000000002,0.8332258,0.1305237,0.02703857,0.9910736,-30.72758,-1.694473,-30.15392,4.366547,0.4395165,0.6521568,0.945981,0.1762085,0.0401001,0.9835205,38.32375,-4.928711,-27.72502,5.2302550000000005,0.2688644,0.7394149999999999,-0.3937545,1.022929,-0.1038237,0.04047657,0.4944429,-0.09723926,0.0,68.38418,32.07
3,0.1659088,0.04832458,0.9849548,0.8387966,0.1231842,0.03507996,0.9917603000000002,-30.718840000000004,-1.73587,-30.168470000000003,4.378555,0.4404629,0.6523296,0.9571046,0.1773682,0.05187988,0.9827728,38.29994,-4.937057,-27.76167,5.300155999999999,0.2694488,0.7381555000000001,-0.3938377,1.022498,-0.1038521999999999,0.04248029,0.4968838,-0.09736001,0.0,-82.21037,32.07
3,0.1659088,0.04832458,0.9849548,0.8387966,0.1231842,0.03507996,0.9917603000000002,-30.718840000000004,-1.73587,-30.168470000000003,4.378555,0.4404629,0.6523296,0.9571046,0.1773682,0.05187988,0.9827728,38.29994,-4.937057,-27.76167,5.300155999999999,0.2694488,0.7381555000000001,-0.3938377,1.022498,-0.1038521999999999,0.04248029,0.4968838,-0.09736001,0.0,-82.21037,32.07
3,0.1659088,0.04832458,0.9849548,0.8387966,0.1231842,0.03507996,0.9917603000000002,-30.718840000000004,-1.73587,-30.168470000000003,4.378555,0.4404629,0.6523296,0.9571046,0.1773682,0.05187988,0.9827728,38.29994,-4.937057,-27.76167,5.300155999999999,0.2694488,0.7381555000000001,-0.3938377,1.022498,-0.1038521999999999,0.04248029,0.4968838,-0.09736001,0.0,-82.21037,32.07
3,0.1508178999999999,0.05081177,0.9872437,0.8324821,0.1107941,0.04954529,0.9925995,-30.68953,-1.679443,-30.34953,4.458771,0.4415557,0.6498115,0.942448,0.1691589,0.05136108,0.9842377,38.34528,-4.936172,-27.74489,5.313797,0.2693110999999999,0.7379969,-0.3938673,1.022401,-0.1040216,0.04416686,0.4986643,-0.09576678,0.0,-82.21037,32.07
3,0.1508178999999999,0.05081177,0.9872437,0.8324821,0.1107941,0.04954529,0.9925995,-30.68953,-1.679443,-30.34953,4.458771,0.4415557,0.6498115,0.942448,0.1691589,0.05136108,0.9842377,38.34528,-4.936172,-27.74489,5.313797,0.2693110999999999,0.7379969,-0.3938673,1.022401,-0.1040216,0.04416686,0.4986643,-0.09576678,0.0,-82.21037,32.07
3,0.1508178999999999,0.05081177,0.9872437,0.8324821,0.1107941,0.04954529,0.9925995,-30.68953,-1.679443,-30.34953,4.458771,0.4415557,0.6498115,0.942448,0.1691589,0.05136108,0.9842377,38.34528,-4.936172,-27.74489,5.313797,0.2693110999999999,0.7379969,-0.3938673,1.022401,-0.1040216,0.04416686,0.4986643,-0.09576678,0.0,-82.21037,32.07
3,0.1625061,0.04716492,0.9855652,0.8616209,0.1291351,0.03771973,0.9909058,-30.64149,-1.701126,-30.10936,4.45787,0.4368278,0.6501463000000001,0.955425,0.1780396,0.05155945,0.982666,38.40562,-4.926086,-27.72003,5.299698,0.2655564,0.7374105,-0.3938328,1.022456,-0.1039156,0.04424935,0.5006996,-0.09504775,0.0,-82.21037,32.07
3,0.1625061,0.04716492,0.9855652,0.8616209,0.1291351,0.03771973,0.9909058,-30.64149,-1.701126,-30.10936,4.45787,0.4368278,0.6501463000000001,0.955425,0.1780396,0.05155945,0.982666,38.40562,-4.926086,-27.72003,5.299698,0.2655564,0.7374105,-0.3938328,1.022456,-0.1039156,0.04424935,0.5006996,-0.09504775,0.0,-82.21037,32.07
3,0.1625061,0.04716492,0.9855652,0.8616209,0.1291351,0.03771973,0.9909058,-30.64149,-1.701126,-30.10936,4.45787,0.4368278,0.6501463000000001,0.955425,0.1780396,0.05155945,0.982666,38.40562,-4.926086,-27.72003,5.299698,0.2655564,0.7374105,-0.3938328,1.022456,-0.1039156,0.04424935,0.5006996,-0.09504775,0.0,-82.21037,32.07
3,0.1671447999999999,0.04498291,0.9848938,0.8713958,0.1336975,0.03811646,0.9902802,-30.63396,-1.6802979999999998,-30.1245,4.468307,0.4357876,0.6495474,0.9683827,0.1827545,0.04818726,0.9819641,38.4754,-4.929962000000001,-27.70641,5.248657,0.2621493,0.738004,-0.3938489,1.022769,-0.10386,0.04327698,0.5007367,-0.09450261,0.0,-82.21037,32.07
3,0.1671447999999999,0.04498291,0.9848938,0.8713958,0.1336975,0.03811646,0.9902802,-30.63396,-1.6802979999999998,-30.1245,4.468307,0.4357876,0.6495474,0.9683827,0.1827545,0.04818726,0.9819641,38.4754,-4.929962000000001,-27.70641,5.248657,0.2621493,0.738004,-0.3938489,1.022769,-0.10386,0.04327698,0.5007367,-0.09450261,0.0,-82.21037,32.07
3,0.1671447999999999,0.04498291,0.9848938,0.8713958,0.1336975,0.03811646,0.9902802,-30.63396,-1.6802979999999998,-30.1245,4.468307,0.4357876,0.6495474,0.9683827,0.1827545,0.04818726,0.9819641,38.4754,-4.929962000000001,-27.70641,5.248657,0.2621493,0.738004,-0.3938489,1.022769,-0.10386,0.04327698,0.5007367,-0.09450261,0.0,-82.21037,32.07
3,0.16185,0.05036926,0.9855194,0.8880524999999999,0.1314392,0.04296875,0.990387,-30.61176,-1.6937099999999998,-30.116090000000003,4.482315,0.4354143,0.6490901,0.9659374,0.1908112,0.05741882,0.9799347,38.483,-4.960433999999999,-27.72244,5.292023,0.2603043,0.7378168,-0.3939388,1.022869,-0.1038801999999999,0.04304264,0.5011059,-0.0938078,0.0,-92.26109,32.07
3,0.16185,0.05036926,0.9855194,0.8880524999999999,0.1314392,0.04296875,0.990387,-30.61176,-1.6937099999999998,-30.116090000000003,4.482315,0.4354143,0.6490901,0.9659374,0.1908112,0.05741882,0.9799347,38.483,-4.960433999999999,-27.72244,5.292023,0.2603043,0.7378168,-0.3939388,1.022869,-0.1038801999999999,0.04304264,0.5011059,-0.0938078,0.0,-92.26109,32.07
3,0.16185,0.05036926,0.9855194,0.8880524999999999,0.1314392,0.04296875,0.990387,-30.61176,-1.6937099999999998,-30.116090000000003,4.482315,0.4354143,0.6490901,0.9659374,0.1908112,0.05741882,0.9799347,38.483,-4.960433999999999,-27.72244,5.292023,0.2603043,0.7378168,-0.3939388,1.022869,-0.1038801999999999,0.04304264,0.5011059,-0.0938078,0.0,-92.26109,32.07
3,0.1631012,0.04592896,0.9855347,0.8749108,0.1351776,0.03581238,0.9901581,-30.57384,-1.7043150000000002,-30.0625,4.472214,0.4334815999999999,0.6501269000000001,0.9440987,0.1897736,0.05561829,0.9802399,38.48074,-4.988571,-27.72321,5.2990260000000005,0.2605061999999999,0.7391661,-0.3939757,1.023141,-0.1041553,0.04237388,0.5020210999999999,-0.09311438,0.0,-92.26109,32.07
3,0.1631012,0.04592896,0.9855347,0.8749108,0.1351776,0.03581238,0.9901581,-30.57384,-1.7043150000000002,-30.0625,4.472214,0.4334815999999999,0.6501269000000001,0.9440987,0.1897736,0.05561829,0.9802399,38.48074,-4.988571,-27.72321,5.2990260000000005,0.2605061999999999,0.7391661,-0.3939757,1.023141,-0.1041553,0.04237388,0.5020210999999999,-0.09311438,0.0,-92.26109,32.07
3,0.1631012,0.04592896,0.9855347,0.8749108,0.1351776,0.03581238,0.9901581,-30.57384,-1.7043150000000002,-30.0625,4.472214,0.4334815999999999,0.6501269000000001,0.9440987,0.1897736,0.05561829,0.9802399,38.48074,-4.988571,-27.72321,5.2990260000000005,0.2605061999999999,0.7391661,-0.3939757,1.023141,-0.1041553,0.04237388,0.5020210999999999,-0.09311438,0.0,-92.26109,32.07
3,0.1723174999999999,0.04473877,0.9840088,0.8626208000000001,0.1386871,0.0307312,0.9898529,-30.57384,-1.749985,-29.98082,4.439835,0.4328898,0.6517063,0.9608674,0.1932526,0.05348206,0.9796753,38.47598,-4.997818,-27.72321,5.295029,0.2600081,0.7399225,-0.393886,1.02337,-0.1046672,0.04187003,0.5039359,-0.0919991999999999,0.0,-92.26109,32.07
3,0.1723174999999999,0.04473877,0.9840088,0.8626208000000001,0.1386871,0.0307312,0.9898529,-30.57384,-1.749985,-29.98082,4.439835,0.4328898,0.6517063,0.9608674,0.1932526,0.05348206,0.9796753,38.47598,-4.997818,-27.72321,5.295029,0.2600081,0.7399225,-0.393886,1.02337,-0.1046672,0.04187003,0.5039359,-0.0919991999999999,0.0,-92.26109,32.07
3,0.1723174999999999,0.04473877,0.9840088,0.8626208000000001,0.1386871,0.0307312,0.9898529,-30.57384,-1.749985,-29.98082,4.439835,0.4328898,0.6517063,0.9608674,0.1932526,0.05348206,0.9796753,38.47598,-4.997818,-27.72321,5.295029,0.2600081,0.7399225,-0.393886,1.02337,-0.1046672,0.04187003,0.5039359,-0.0919991999999999,0.0,-92.26109,32.07
3,0.1739197,0.04344177,0.9837952,0.8693094000000001,0.1394957999999999,0.02828979,0.9898071,-30.57448,-1.7695470000000002,-29.94238,4.406998000000001,0.4327735,0.6523654999999999,0.950527,0.195816,0.05311584,0.979187,38.47427,-5.000778,-27.72322,5.300278,0.2595831,0.7401270000000001,-0.3936449999999999,1.023491,-0.1053803,0.04185588,0.5064587,-0.08985146,0.0,-92.26109,32.07
3,0.1739197,0.04344177,0.9837952,0.8693094000000001,0.1394957999999999,0.02828979,0.9898071,-30.57448,-1.7695470000000002,-29.94238,4.406998000000001,0.4327735,0.6523654999999999,0.950527,0.195816,0.05311584,0.979187,38.47427,-5.000778,-27.72322,5.300278,0.2595831,0.7401270000000001,-0.3936449999999999,1.023491,-0.1053803,0.04185588,0.5064587,-0.08985146,0.0,-92.26109,32.07
3,0.1739197,0.04344177,0.9837952,0.8693094000000001,0.1394957999999999,0.02828979,0.9898071,-30.57448,-1.7695470000000002,-29.94238,4.406998000000001,0.4327735,0.6523654999999999,0.950527,0.195816,0.05311584,0.979187,38.47427,-5.000778,-27.72322,5.300278,0.2595831,0.7401270000000001,-0.3936449999999999,1.023491,-0.1053803,0.04185588,0.5064587,-0.08985146,0.0,-92.26109,32.07
3,0.1747131,0.03883362,0.9838409,0.8724149,0.1430053999999999,0.02230835,0.9894562,-30.57449,-1.7695470000000002,-29.94238,4.43335,0.4321822,0.6534468000000001,0.9580539,0.1981354,0.05107117,0.9788361,38.47253,-5.004683999999999,-27.72466,5.295654,0.2591923,0.7406781,-0.3934778,1.023787,-0.1063549999999999,0.04153199,0.5094095000000001,-0.08845235,0.0,-92.26109,32.07
3,0.1747131,0.03883362,0.9838409,0.8724149,0.1430053999999999,0.02230835,0.9894562,-30.57449,-1.7695470000000002,-29.94238,4.43335,0.4321822,0.6534468000000001,0.9580539,0.1981354,0.05107117,0.9788361,38.47253,-5.004683999999999,-27.72466,5.295654,0.2591923,0.7406781,-0.3934778,1.023787,-0.1063549999999999,0.04153199,0.5094095000000001,-0.08845235,0.0,-92.26109,32.07
3,0.1747131,0.03883362,0.9838409,0.8724149,0.1430053999999999,0.02230835,0.9894562,-30.57449,-1.7695470000000002,-29.94238,4.43335,0.4321822,0.6534468000000001,0.9580539,0.1981354,0.05107117,0.9788361,38.47253,-5.004683999999999,-27.72466,5.295654,0.2591923,0.7406781,-0.3934778,1.023787,-0.1063549999999999,0.04153199,0.5094095000000001,-0.08845235,0.0,-92.26109,32.07
3,0.1840668,0.0397644,0.9821014,0.8892525,0.153656,0.02716064,0.9877472,-30.57133,-1.779068,-30.06326,4.461975,0.4301992,0.6542885,0.9629147,0.2071837999999999,0.04936218,0.9770508,38.47702,-5.028519,-27.72211,5.273529,0.2573044,0.7418879,-0.3934124,1.024016,-0.1074454,0.0407094,0.5126301,-0.08805505,0.0,-92.26109,32.07
3,0.1840668,0.0397644,0.9821014,0.8892525,0.153656,0.02716064,0.9877472,-30.57133,-1.779068,-30.06326,4.461975,0.4301992,0.6542885,0.9629147,0.2071837999999999,0.04936218,0.9770508,38.47702,-5.028519,-27.72211,5.273529,0.2573044,0.7418879,-0.3934124,1.024016,-0.1074454,0.0407094,0.5126301,-0.08805505,0.0,-92.26109,32.07
3,0.1840668,0.0397644,0.9821014,0.8892525,0.153656,0.02716064,0.9877472,-30.57133,-1.779068,-30.06326,4.461975,0.4301992,0.6542885,0.9629147,0.2071837999999999,0.04936218,0.9770508,38.47702,-5.028519,-27.72211,5.273529,0.2573044,0.7418879,-0.3934124,1.024016,-0.1074454,0.0407094,0.5126301,-0.08805505,0.0,-92.26109,32.07
3,0.1956023999999999,0.03729248,0.9799652,0.8818780999999999,0.155426,0.01750183,0.9876862,-30.55531,-1.76857,-30.09703,4.470688,0.4293333,0.6559914000000001,0.9221331,0.2094268999999999,0.04411316,0.9768219,38.50145,-5.033066000000001,-27.72211,5.291962,0.2559117,0.7430920999999999,-0.3931974,1.0242440000000002,-0.1084351,0.03976027,0.514754,-0.08712631,0.0,-12.42491,32.07
3,0.1956023999999999,0.03729248,0.9799652,0.8818780999999999,0.155426,0.01750183,0.9876862,-30.55531,-1.76857,-30.09703,4.470688,0.4293333,0.6559914000000001,0.9221331,0.2094268999999999,0.04411316,0.9768219,38.50145,-5.033066000000001,-27.72211,5.291962,0.2559117,0.7430920999999999,-0.3931974,1.0242440000000002,-0.1084351,0.03976027,0.514754,-0.08712631,0.0,-12.42491,32.07
3,0.1956023999999999,0.03729248,0.9799652,0.8818780999999999,0.155426,0.01750183,0.9876862,-30.55531,-1.76857,-30.09703,4.470688,0.4293333,0.6559914000000001,0.9221331,0.2094268999999999,0.04411316,0.9768219,38.50145,-5.033066000000001,-27.72211,5.291962,0.2559117,0.7430920999999999,-0.3931974,1.0242440000000002,-0.1084351,0.03976027,0.514754,-0.08712631,0.0,-12.42491,32.07
3,0.2194214,0.02482605,0.9753113,0.8906091,0.1777496,0.01411438,0.983963,-30.42844,-1.813583,-30.12779,4.644516,0.4211407999999999,0.6587908,0.9311631,0.2481232,0.03225708,0.9681854,38.61467,-5.060455,-27.721940000000004,5.438034,0.2440919,0.7472051,-0.3931855999999999,1.024273,-0.1093223,0.0387543,0.5166768,-0.08792279,0.0,-12.42491,32.07
3,0.2194214,0.02482605,0.9753113,0.8906091,0.1777496,0.01411438,0.983963,-30.42844,-1.813583,-30.12779,4.644516,0.4211407999999999,0.6587908,0.9311631,0.2481232,0.03225708,0.9681854,38.61467,-5.060455,-27.721940000000004,5.438034,0.2440919,0.7472051,-0.3931855999999999,1.024273,-0.1093223,0.0387543,0.5166768,-0.08792279,0.0,-12.42491,32.07
3,0.2194214,0.02482605,0.9753113,0.8906091,0.1777496,0.01411438,0.983963,-30.42844,-1.813583,-30.12779,4.644516,0.4211407999999999,0.6587908,0.9311631,0.2481232,0.03225708,0.9681854,38.61467,-5.060455,-27.721940000000004,5.438034,0.2440919,0.7472051,-0.3931855999999999,1.024273,-0.1093223,0.0387543,0.5166768,-0.08792279,0.0,-12.42491,32.07
3,0.2230224999999999,0.02484131,0.9744873,0.8924042999999999,0.1885071,0.01715088,0.9819183,-30.39745,-1.828629,-30.15042,4.685776000000001,0.4182184,0.6591336,0.9430787,0.2506561,0.03102112,0.9675751,38.62085,-5.069305,-27.72563,5.434326,0.2433344,0.7478479,-0.3932115,1.024404,-0.1099991999999999,0.03698327,0.5178397,-0.08892812,0.0,-12.42491,32.07
3,0.2230224999999999,0.02484131,0.9744873,0.8924042999999999,0.1885071,0.01715088,0.9819183,-30.39745,-1.828629,-30.15042,4.685776000000001,0.4182184,0.6591336,0.9430787,0.2506561,0.03102112,0.9675751,38.62085,-5.069305,-27.72563,5.434326,0.2433344,0.7478479,-0.3932115,1.024404,-0.1099991999999999,0.03698327,0.5178397,-0.08892812,0.0,-12.42491,32.07
3,0.2230224999999999,0.02484131,0.9744873,0.8924042999999999,0.1885071,0.01715088,0.9819183,-30.39745,-1.828629,-30.15042,4.685776000000001,0.4182184,0.6591336,0.9430787,0.2506561,0.03102112,0.9675751,38.62085,-5.069305,-27.72563,5.434326,0.2433344,0.7478479,-0.3932115,1.024404,-0.1099991999999999,0.03698327,0.5178397,-0.08892812,0.0,-12.42491,32.07
3,0.02600098,0.02378845,0.9993744,0.8742552,0.01663208,0.02549744,0.999527,-31.26212,-2.014343,-29.09076,4.49408,0.4773325,0.6522378000000001,0.9572861,0.05992126,0.01759338,0.9980469,37.61888,-4.512939,-28.65916,5.071289,0.3140323,0.7380303,-0.3931797999999999,1.024393,-0.1106723,0.03594323,0.5190494999999999,-0.09053232,0.0,-12.42491,32.07
3,0.02600098,0.02378845,0.9993744,0.8742552,0.01663208,0.02549744,0.999527,-31.26212,-2.014343,-29.09076,4.49408,0.4773325,0.6522378000000001,0.9572861,0.05992126,0.01759338,0.9980469,37.61888,-4.512939,-28.65916,5.071289,0.3140323,0.7380303,-0.3931797999999999,1.024393,-0.1106723,0.03594323,0.5190494999999999,-0.09053232,0.0,-12.42491,32.07
3,0.02600098,0.02378845,0.9993744,0.8742552,0.01663208,0.02549744,0.999527,-31.26212,-2.014343,-29.09076,4.49408,0.4773325,0.6522378000000001,0.9572861,0.05992126,0.01759338,0.9980469,37.61888,-4.512939,-28.65916,5.071289,0.3140323,0.7380303,-0.3931797999999999,1.024393,-0.1106723,0.03594323,0.5190494999999999,-0.09053232,0.0,-12.42491,32.07
3,0.0246581999999999,0.03343201,0.9991302,1.0,-0.01924133,0.02807617,0.9994202,-31.52063,-2.167953,-28.51016,4.538239,0.4921032999999999,0.6511022,1.0,0.02490234,0.03346252,0.999115,37.30533,-4.644455000000001,-27.99147,5.186081,0.3323296,0.7321493,-0.3930447999999999,1.0242719999999998,-0.1116983,0.03574264,0.5213406,-0.09135053,0.0,-12.42491,32.07
3,0.0246581999999999,0.03343201,0.9991302,1.0,-0.01924133,0.02807617,0.9994202,-31.52063,-2.167953,-28.51016,4.538239,0.4921032999999999,0.6511022,1.0,0.02490234,0.03346252,0.999115,37.30533,-4.644455000000001,-27.99147,5.186081,0.3323296,0.7321493,-0.3930447999999999,1.0242719999999998,-0.1116983,0.03574264,0.5213406,-0.09135053,0.0,-12.42491,32.07
3,0.0246581999999999,0.03343201,0.9991302,1.0,-0.01924133,0.02807617,0.9994202,-31.52063,-2.167953,-28.51016,4.538239,0.4921032999999999,0.6511022,1.0,0.02490234,0.03346252,0.999115,37.30533,-4.644455000000001,-27.99147,5.186081,0.3323296,0.7321493,-0.3930447999999999,1.0242719999999998,-0.1116983,0.03574264,0.5213406,-0.09135053,0.0,-12.42491,32.07
3,-0.1945343,0.06388855,0.9788055,1.0,-0.1944275,0.0643158,0.9787903,-32.84802,-1.653564,-30.0052,4.380768,0.5680953000000001,0.6439581999999999,1.0,-0.2009888,0.03814697,0.9788361,35.69992,-4.2232970000000005,-28.13367,5.125702,0.4280149,0.7186533,-0.3928761,1.024201,-0.1126624,0.03602088,0.5243608000000001,-0.09170301,0.0,-66.901,32.07
3,-0.1945343,0.06388855,0.9788055,1.0,-0.1944275,0.0643158,0.9787903,-32.84802,-1.653564,-30.0052,4.380768,0.5680953000000001,0.6439581999999999,1.0,-0.2009888,0.03814697,0.9788361,35.69992,-4.2232970000000005,-28.13367,5.125702,0.4280149,0.7186533,-0.3928761,1.024201,-0.1126624,0.03602088,0.5243608000000001,-0.09170301,0.0,-66.901,32.07
3,-0.1945343,0.06388855,0.9788055,1.0,-0.1944275,0.0643158,0.9787903,-32.84802,-1.653564,-30.0052,4.380768,0.5680953000000001,0.6439581999999999,1.0,-0.2009888,0.03814697,0.9788361,35.69992,-4.2232970000000005,-28.13367,5.125702,0.4280149,0.7186533,-0.3928761,1.024201,-0.1126624,0.03602088,0.5243608000000001,-0.09170301,0.0,-66.901,32.07
3,-0.2297362999999999,0.05513,0.9716796999999998,1.0,-0.2297362999999999,0.05513,0.9716796999999998,-32.96561,-1.669052,-30.02542,4.541702,0.5782304,0.6468808000000001,1.0,-0.2257232999999999,0.05932617,0.9723663,35.62416,-4.233169999999999,-28.12581,5.145218,0.4350598,0.7154588000000001,-0.3926189,1.02409,-0.113623,0.03675289,0.5281897,-0.09166294,0.0,-66.901,32.07
3,-0.2297362999999999,0.05513,0.9716796999999998,1.0,-0.2297362999999999,0.05513,0.9716796999999998,-32.96561,-1.669052,-30.02542,4.541702,0.5782304,0.6468808000000001,1.0,-0.2257232999999999,0.05932617,0.9723663,35.62416,-4.233169999999999,-28.12581,5.145218,0.4350598,0.7154588000000001,-0.3926189,1.02409,-0.113623,0.03675289,0.5281897,-0.09166294,0.0,-66.901,32.07
3,-0.2297362999999999,0.05513,0.9716796999999998,1.0,-0.2297362999999999,0.05513,0.9716796999999998,-32.96561,-1.669052,-30.02542,4.541702,0.5782304,0.6468808000000001,1.0,-0.2257232999999999,0.05932617,0.9723663,35.62416,-4.233169999999999,-28.12581,5.145218,0.4350598,0.7154588000000001,-0.3926189,1.02409,-0.113623,0.03675289,0.5281897,-0.09166294,0.0,-66.901,32.07
3,-0.2056427,0.05509949,0.977066,1.0,-0.1957549999999999,0.05725098,0.9789734,-32.95224,-1.662872,-30.0258,4.58432,0.5718474,0.645992,1.0,-0.2161102,0.05282593,0.9749298,35.76563,-4.14064,-28.14941,5.27951,0.4283693,0.7136863,-0.3917919,1.023869,-0.1163005,0.03869311,0.5402685,-0.09177638,0.0,-66.901,32.07
3,-0.2056427,0.05509949,0.977066,1.0,-0.1957549999999999,0.05725098,0.9789734,-32.95224,-1.662872,-30.0258,4.58432,0.5718474,0.645992,1.0,-0.2161102,0.05282593,0.9749298,35.76563,-4.14064,-28.14941,5.27951,0.4283693,0.7136863,-0.3917919,1.023869,-0.1163005,0.03869311,0.5402685,-0.09177638,0.0,-66.901,32.07
3,-0.2056427,0.05509949,0.977066,1.0,-0.1957549999999999,0.05725098,0.9789734,-32.95224,-1.662872,-30.0258,4.58432,0.5718474,0.645992,1.0,-0.2161102,0.05282593,0.9749298,35.76563,-4.14064,-28.14941,5.27951,0.4283693,0.7136863,-0.3917919,1.023869,-0.1163005,0.03869311,0.5402685,-0.09177638,0.0,-66.901,32.07
3,-0.2032776,0.05123901,0.9777679,1.0,-0.1911316,0.05168152,0.9801940999999998,-32.93353,-1.6806029999999998,-30.01335,4.385345,0.5704529,0.6471531,1.0,-0.2163543999999999,0.05075073,0.9749908000000002,35.76872,-4.136749,-28.16072,5.277252,0.4282887999999999,0.7140337,-0.391103,1.023762,-0.1180387,0.03958016,0.5494089,-0.09094345,0.0,-66.901,32.07
3,-0.2032776,0.05123901,0.9777679,1.0,-0.1911316,0.05168152,0.9801940999999998,-32.93353,-1.6806029999999998,-30.01335,4.385345,0.5704529,0.6471531,1.0,-0.2163543999999999,0.05075073,0.9749908000000002,35.76872,-4.136749,-28.16072,5.277252,0.4282887999999999,0.7140337,-0.391103,1.023762,-0.1180387,0.03958016,0.5494089,-0.09094345,0.0,-66.901,32.07
3,-0.2032776,0.05123901,0.9777679,1.0,-0.1911316,0.05168152,0.9801940999999998,-32.93353,-1.6806029999999998,-30.01335,4.385345,0.5704529,0.6471531,1.0,-0.2163543999999999,0.05075073,0.9749908000000002,35.76872,-4.136749,-28.16072,5.277252,0.4282887999999999,0.7140337,-0.391103,1.023762,-0.1180387,0.03958016,0.5494089,-0.09094345,0.0,-71.51082,32.07
3,-0.1525269,0.07000732,0.9858093,1.0,-0.1525269,0.07000732,0.9858093,-32.802170000000004,-1.7150729999999998,-29.74176,4.601608000000001,0.5590149999999999,0.6422346,1.0,-0.1423035,0.03364563,0.9892426,35.88356,-3.300522,-30.4749,5.006256,0.4104895,0.7127295,-0.3892797999999999,1.024133,-0.1224526,0.0387715,0.5716746,-0.0878255,0.0,99.466,32.07
3,-0.1525269,0.07000732,0.9858093,1.0,-0.1525269,0.07000732,0.9858093,-32.802170000000004,-1.7150729999999998,-29.74176,4.601608000000001,0.5590149999999999,0.6422346,1.0,-0.1423035,0.03364563,0.9892426,35.88356,-3.300522,-30.4749,5.006256,0.4104895,0.7127295,-0.3892797999999999,1.024133,-0.1224526,0.0387715,0.5716746,-0.0878255,0.0,99.466,32.07
3,-0.1525269,0.07000732,0.9858093,1.0,-0.1525269,0.07000732,0.9858093,-32.802170000000004,-1.7150729999999998,-29.74176,4.601608000000001,0.5590149999999999,0.6422346,1.0,-0.1423035,0.03364563,0.9892426,35.88356,-3.300522,-30.4749,5.006256,0.4104895,0.7127295,-0.3892797999999999,1.024133,-0.1224526,0.0387715,0.5716746,-0.0878255,0.0,99.466,32.07
4,-0.1356812,0.05485535,0.9892273,1.0,-0.1356812,0.05485535,0.9892273,-32.53331,-1.497742,-30.03876,4.471603,0.5470858000000001,0.6401420999999999,1.0,-0.1156006,0.02784729,0.9928894,36.14272,-3.481827,-29.834290000000003,4.949997,0.3969389,0.7127397,-0.3886136,1.025146,-0.1246483999999999,0.03551722,0.5819203000000001,-0.0842202,0.0,99.466,32.07
4,-0.1356812,0.05485535,0.9892273,1.0,-0.1356812,0.05485535,0.9892273,-32.53331,-1.497742,-30.03876,4.471603,0.5470858000000001,0.6401420999999999,1.0,-0.1156006,0.02784729,0.9928894,36.14272,-3.481827,-29.834290000000003,4.949997,0.3969389,0.7127397,-0.3886136,1.025146,-0.1246483999999999,0.03551722,0.5819203000000001,-0.0842202,0.0,99.466,32.07
4,-0.1356812,0.05485535,0.9892273,1.0,-0.1356812,0.05485535,0.9892273,-32.53331,-1.497742,-30.03876,4.471603,0.5470858000000001,0.6401420999999999,1.0,-0.1156006,0.02784729,0.9928894,36.14272,-3.481827,-29.834290000000003,4.949997,0.3969389,0.7127397,-0.3886136,1.025146,-0.1246483999999999,0.03551722,0.5819203000000001,-0.0842202,0.0,99.466,32.07
4,-0.09877014,0.056427,0.9934998,1.0,-0.09933472,0.06289673,0.9930573,-32.40834,-1.7531279999999998,-29.55351,4.5648800000000005,0.5362912,0.6423312,1.0,-0.09854126,0.0536499,0.9936829,36.32132,-3.604767,-30.00549,4.904984,0.3875461,0.7143299,-0.3883622,1.0255040000000002,-0.1268619,0.03382317,0.5924901,-0.08315498,0.0,99.466,32.07
4,-0.09877014,0.056427,0.9934998,1.0,-0.09933472,0.06289673,0.9930573,-32.40834,-1.7531279999999998,-29.55351,4.5648800000000005,0.5362912,0.6423312,1.0,-0.09854126,0.0536499,0.9936829,36.32132,-3.604767,-30.00549,4.904984,0.3875461,0.7143299,-0.3883622,1.0255040000000002,-0.1268619,0.03382317,0.5924901,-0.08315498,0.0,99.466,32.07
4,-0.09877014,0.056427,0.9934998,1.0,-0.09933472,0.06289673,0.9930573,-32.40834,-1.7531279999999998,-29.55351,4.5648800000000005,0.5362912,0.6423312,1.0,-0.09854126,0.0536499,0.9936829,36.32132,-3.604767,-30.00549,4.904984,0.3875461,0.7143299,-0.3883622,1.0255040000000002,-0.1268619,0.03382317,0.5924901,-0.08315498,0.0,99.466,32.07
4,-0.3192444,0.09037781,0.9433441,1.0,-0.3188324,0.09220886,0.9432983,-33.41618,-1.680649,-30.11661,4.5137480000000005,0.6097599,0.6431523,1.0,-0.324646,0.0652770999999999,0.943573,35.033159999999995,-3.74086,-29.48126,4.97081,0.4730611,0.7136295,-0.3883592999999999,1.02591,-0.1316311,0.03221194,0.6131552,-0.08309727,0.0,95.78903,32.07
4,-0.3192444,0.09037781,0.9433441,1.0,-0.3188324,0.09220886,0.9432983,-33.41618,-1.680649,-30.11661,4.5137480000000005,0.6097599,0.6431523,1.0,-0.324646,0.0652770999999999,0.943573,35.033159999999995,-3.74086,-29.48126,4.97081,0.4730611,0.7136295,-0.3883592999999999,1.02591,-0.1316311,0.03221194,0.6131552,-0.08309727,0.0,95.78903,32.07
4,-0.3192444,0.09037781,0.9433441,1.0,-0.3188324,0.09220886,0.9432983,-33.41618,-1.680649,-30.11661,4.5137480000000005,0.6097599,0.6431523,1.0,-0.324646,0.0652770999999999,0.943573,35.033159999999995,-3.74086,-29.48126,4.97081,0.4730611,0.7136295,-0.3883592999999999,1.02591,-0.1316311,0.03221194,0.6131552,-0.08309727,0.0,95.78903,32.07
4,-0.3377991,0.08149719,0.9376678,0.7896428000000001,-0.3366699,0.09196472,0.9371033,-33.50557,-1.694122,-30.14171,4.672806,0.6160159000000001,0.6444333999999999,0.8668752000000001,-0.3415375,0.04380798,0.9388428,35.0065,-3.643784,-29.46298,4.8108830000000005,0.4770505999999999,0.7139013000000001,-0.3886126,1.026071,-0.1340267,0.0318153,0.6235284000000001,-0.08211799,0.0,95.78903,32.07
4,-0.3377991,0.08149719,0.9376678,0.7896428000000001,-0.3366699,0.09196472,0.9371033,-33.50557,-1.694122,-30.14171,4.672806,0.6160159000000001,0.6444333999999999,0.8668752000000001,-0.3415375,0.04380798,0.9388428,35.0065,-3.643784,-29.46298,4.8108830000000005,0.4770505999999999,0.7139013000000001,-0.3886126,1.026071,-0.1340267,0.0318153,0.6235284000000001,-0.08211799,0.0,95.78903,32.07
4,-0.3377991,0.08149719,0.9376678,0.7896428000000001,-0.3366699,0.09196472,0.9371033,-33.50557,-1.694122,-30.14171,4.672806,0.6160159000000001,0.6444333999999999,0.8668752000000001,-0.3415375,0.04380798,0.9388428,35.0065,-3.643784,-29.46298,4.8108830000000005,0.4770505999999999,0.7139013000000001,-0.3886126,1.026071,-0.1340267,0.0318153,0.6235284000000001,-0.08211799,0.0,95.78903,32.07
4,-0.3119354,0.06369019,0.9479523,0.852139,-0.304184,0.08226013,0.9490356,-33.406220000000005,-1.654327,-30.09247,4.511551,0.606739,0.6434761,0.9624662,-0.320755,0.04214478,0.9462128,35.195370000000004,-3.68045,-29.4115,4.979019,0.4665465999999999,0.7147244,-0.3889529,1.0264950000000002,-0.1363318,0.0315553,0.6317765000000001,-0.07948206,0.0,95.78903,32.07
4,-0.3119354,0.06369019,0.9479523,0.852139,-0.304184,0.08226013,0.9490356,-33.406220000000005,-1.654327,-30.09247,4.511551,0.606739,0.6434761,0.9624662,-0.320755,0.04214478,0.9462128,35.195370000000004,-3.68045,-29.4115,4.979019,0.4665465999999999,0.7147244,-0.3889529,1.0264950000000002,-0.1363318,0.0315553,0.6317765000000001,-0.07948206,0.0,95.78903,32.07
4,-0.3119354,0.06369019,0.9479523,0.852139,-0.304184,0.08226013,0.9490356,-33.406220000000005,-1.654327,-30.09247,4.511551,0.606739,0.6434761,0.9624662,-0.320755,0.04214478,0.9462128,35.195370000000004,-3.68045,-29.4115,4.979019,0.4665465999999999,0.7147244,-0.3889529,1.0264950000000002,-0.1363318,0.0315553,0.6317765000000001,-0.07948206,0.0,95.78903,32.07
4,-0.2730408,0.0531311,0.9605255,1.0,-0.2660369999999999,0.0486908,0.9627228,-33.32697,-1.681732,-30.0275,4.6476440000000006,0.5970213000000001,0.6491349000000001,1.0,-0.2792053,0.05703735,0.9585266,35.37808,-3.731628,-29.37938,4.995499,0.4528418999999999,0.7128958000000001,-0.3892965,1.026651,-0.1385017999999999,0.0317492,0.6403005999999999,-0.07831318,0.0,95.78903,32.07
4,-0.2730408,0.0531311,0.9605255,1.0,-0.2660369999999999,0.0486908,0.9627228,-33.32697,-1.681732,-30.0275,4.6476440000000006,0.5970213000000001,0.6491349000000001,1.0,-0.2792053,0.05703735,0.9585266,35.37808,-3.731628,-29.37938,4.995499,0.4528418999999999,0.7128958000000001,-0.3892965,1.026651,-0.1385017999999999,0.0317492,0.6403005999999999,-0.07831318,0.0,95.78903,32.07
4,-0.2730408,0.0531311,0.9605255,1.0,-0.2660369999999999,0.0486908,0.9627228,-33.32697,-1.681732,-30.0275,4.6476440000000006,0.5970213000000001,0.6491349000000001,1.0,-0.2792053,0.05703735,0.9585266,35.37808,-3.731628,-29.37938,4.995499,0.4528418999999999,0.7128958000000001,-0.3892965,1.026651,-0.1385017999999999,0.0317492,0.6403005999999999,-0.07831318,0.0,95.78903,32.07
4,-0.2496489999999999,0.04960632,0.9670563,1.0,-0.2388762999999999,0.0524291999999999,0.9696198,-33.16174,-1.6687009999999998,-29.99237,4.649841,0.5865136,0.6472772,1.0,-0.2598572,0.04692078,0.9644928,35.53595,-3.755402,-29.34883,5.057861,0.4437779999999999,0.7149711999999999,-0.3904400999999999,1.026876,-0.1422838,0.03370904,0.6533455,-0.07553186,0.0,88.59958,32.07
4,-0.2496489999999999,0.04960632,0.9670563,1.0,-0.2388762999999999,0.0524291999999999,0.9696198,-33.16174,-1.6687009999999998,-29.99237,4.649841,0.5865136,0.6472772,1.0,-0.2598572,0.04692078,0.9644928,35.53595,-3.755402,-29.34883,5.057861,0.4437779999999999,0.7149711999999999,-0.3904400999999999,1.026876,-0.1422838,0.03370904,0.6533455,-0.07553186,0.0,88.59958,32.07
4,-0.2496489999999999,0.04960632,0.9670563,1.0,-0.2388762999999999,0.0524291999999999,0.9696198,-33.16174,-1.6687009999999998,-29.99237,4.649841,0.5865136,0.6472772,1.0,-0.2598572,0.04692078,0.9644928,35.53595,-3.755402,-29.34883,5.057861,0.4437779999999999,0.7149711999999999,-0.3904400999999999,1.026876,-0.1422838,0.03370904,0.6533455,-0.07553186,0.0,88.59958,32.07
4,-0.2337341,0.04312134,0.9713287,1.0,-0.2305297999999999,0.04838562,0.9718475,-33.08351,-1.703979,-29.98045,4.708282,0.5823204000000001,0.6490151,1.0,-0.2372130999999999,0.03742981,0.9707336,35.60548,-3.770355,-29.33885,5.027863,0.4373220999999999,0.7167509,-0.3910195,1.026777,-0.1438942,0.03439021,0.6593270999999999,-0.07545577,0.0,88.59958,32.07
4,-0.2337341,0.04312134,0.9713287,1.0,-0.2305297999999999,0.04838562,0.9718475,-33.08351,-1.703979,-29.98045,4.708282,0.5823204000000001,0.6490151,1.0,-0.2372130999999999,0.03742981,0.9707336,35.60548,-3.770355,-29.33885,5.027863,0.4373220999999999,0.7167509,-0.3910195,1.026777,-0.1438942,0.03439021,0.6593270999999999,-0.07545577,0.0,88.59958,32.07
4,-0.2337341,0.04312134,0.9713287,1.0,-0.2305297999999999,0.04838562,0.9718475,-33.08351,-1.703979,-29.98045,4.708282,0.5823204000000001,0.6490151,1.0,-0.2372130999999999,0.03742981,0.9707336,35.60548,-3.770355,-29.33885,5.027863,0.4373220999999999,0.7167509,-0.3910195,1.026777,-0.1438942,0.03439021,0.6593270999999999,-0.07545577,0.0,88.59958,32.07
4,-0.22229,0.04135132,0.9740906,1.0,-0.2179718,0.0526123,0.9745331,-33.04797,-1.70697,-29.98181,4.7152400000000005,0.5789143,0.648259,1.0,-0.2269287,0.02912903,0.973465,35.63319,-3.771988,-29.33508,4.969069999999999,0.4345465999999999,0.7180405,-0.3914944,1.02682,-0.1454482,0.03481734,0.6645668,-0.07462137,0.0,88.59958,32.07
4,-0.22229,0.04135132,0.9740906,1.0,-0.2179718,0.0526123,0.9745331,-33.04797,-1.70697,-29.98181,4.7152400000000005,0.5789143,0.648259,1.0,-0.2269287,0.02912903,0.973465,35.63319,-3.771988,-29.33508,4.969069999999999,0.4345465999999999,0.7180405,-0.3914944,1.02682,-0.1454482,0.03481734,0.6645668,-0.07462137,0.0,88.59958,32.07
4,-0.22229,0.04135132,0.9740906,1.0,-0.2179718,0.0526123,0.9745331,-33.04797,-1.70697,-29.98181,4.7152400000000005,0.5789143,0.648259,1.0,-0.2269287,0.02912903,0.973465,35.63319,-3.771988,-29.33508,4.969069999999999,0.4345465999999999,0.7180405,-0.3914944,1.02682,-0.1454482,0.03481734,0.6645668,-0.07462137,0.0,88.59958,32.07
4,-0.22229,0.04135132,0.9740906,1.0,-0.2179718,0.0526123,0.9745331,-33.04797,-1.70697,-29.98181,4.7152400000000005,0.5789143,0.648259,1.0,-0.2269287,0.02912903,0.973465,35.63319,-3.771988,-29.33508,4.969069999999999,0.4345465999999999,0.7180405,-0.3918527,1.027074,-0.1468307,0.03434518,0.6689913000000001,-0.07361934,0.0,88.59958,32.07
4,-0.22229,0.04135132,0.9740906,1.0,-0.2179718,0.0526123,0.9745331,-33.04797,-1.70697,-29.98181,4.7152400000000005,0.5789143,0.648259,1.0,-0.2269287,0.02912903,0.973465,35.63319,-3.771988,-29.33508,4.969069999999999,0.4345465999999999,0.7180405,-0.3918527,1.027074,-0.1468307,0.03434518,0.6689913000000001,-0.07361934,0.0,88.59958,32.07
4,-0.22229,0.04135132,0.9740906,1.0,-0.2179718,0.0526123,0.9745331,-33.04797,-1.70697,-29.98181,4.7152400000000005,0.5789143,0.648259,1.0,-0.2269287,0.02912903,0.973465,35.63319,-3.771988,-29.33508,4.969069999999999,0.4345465999999999,0.7180405,-0.3918527,1.027074,-0.1468307,0.03434518,0.6689913000000001,-0.07361934,0.0,88.59958,32.07
4,-0.1642151,0.05117798,0.9850922,1.0,-0.1638641,0.05754089,0.984787,-32.75305,-1.7657779999999998,-29.90004,4.673065,0.5593376,0.6479195,1.0,-0.1656036,0.02479553,0.9858704,35.86516,-3.4884190000000004,-30.13826,4.982681,0.4152606,0.7173654,-0.392296,1.027333,-0.1488257999999999,0.03347432,0.6766207,-0.07421158,0.0,88.59958,32.07
4,-0.1642151,0.05117798,0.9850922,1.0,-0.1638641,0.05754089,0.984787,-32.75305,-1.7657779999999998,-29.90004,4.673065,0.5593376,0.6479195,1.0,-0.1656036,0.02479553,0.9858704,35.86516,-3.4884190000000004,-30.13826,4.982681,0.4152606,0.7173654,-0.392296,1.027333,-0.1488257999999999,0.03347432,0.6766207,-0.07421158,0.0,88.59958,32.07
4,-0.1642151,0.05117798,0.9850922,1.0,-0.1638641,0.05754089,0.984787,-32.75305,-1.7657779999999998,-29.90004,4.673065,0.5593376,0.6479195,1.0,-0.1656036,0.02479553,0.9858704,35.86516,-3.4884190000000004,-30.13826,4.982681,0.4152606,0.7173654,-0.392296,1.027333,-0.1488257999999999,0.03347432,0.6766207,-0.07421158,0.0,88.59958,32.07
4,-0.1580811,0.02207947,0.9871674,1.0,-0.1573486,0.05795288,0.9858246,-32.72975,-1.765915,-29.90004,4.753280999999999,0.557415,0.6479195,1.0,-0.1580811,0.02153015,0.9871826,35.87399,-3.432526,-30.31238,4.975861,0.4135195,0.7178908,-0.392391,1.027213,-0.1496933,0.03350758,0.6796011,-0.07401317,0.0,-25.47379,32.07
4,-0.1580811,0.02207947,0.9871674,1.0,-0.1573486,0.05795288,0.9858246,-32.72975,-1.765915,-29.90004,4.753280999999999,0.557415,0.6479195,1.0,-0.1580811,0.02153015,0.9871826,35.87399,-3.432526,-30.31238,4.975861,0.4135195,0.7178908,-0.392391,1.027213,-0.1496933,0.03350758,0.6796011,-0.07401317,0.0,-25.47379,32.07
4,-0.1580811,0.02207947,0.9871674,1.0,-0.1573486,0.05795288,0.9858246,-32.72975,-1.765915,-29.90004,4.753280999999999,0.557415,0.6479195,1.0,-0.1580811,0.02153015,0.9871826,35.87399,-3.432526,-30.31238,4.975861,0.4135195,0.7178908,-0.392391,1.027213,-0.1496933,0.03350758,0.6796011,-0.07401317,0.0,-25.47379,32.07
4,-0.1396179,0.02285767,0.9899292,1.0,-0.1512299,0.05284119,0.9870758,-32.70985,-1.7728580000000005,-29.88052,4.71521,0.5556709,0.6487335,1.0,-0.1391602,0.02168274,0.9900208,35.989290000000004,-3.513351,-30.10107,5.029175,0.4061805,0.7182618000000001,-0.3923731,1.027299,-0.1503953999999999,0.03331681,0.6822531999999999,-0.07374749,0.0,-25.47379,32.07
4,-0.1396179,0.02285767,0.9899292,1.0,-0.1512299,0.05284119,0.9870758,-32.70985,-1.7728580000000005,-29.88052,4.71521,0.5556709,0.6487335,1.0,-0.1391602,0.02168274,0.9900208,35.989290000000004,-3.513351,-30.10107,5.029175,0.4061805,0.7182618000000001,-0.3923731,1.027299,-0.1503953999999999,0.03331681,0.6822531999999999,-0.07374749,0.0,-25.47379,32.07
4,-0.1396179,0.02285767,0.9899292,1.0,-0.1512299,0.05284119,0.9870758,-32.70985,-1.7728580000000005,-29.88052,4.71521,0.5556709,0.6487335,1.0,-0.1391602,0.02168274,0.9900208,35.989290000000004,-3.513351,-30.10107,5.029175,0.4061805,0.7182618000000001,-0.3923731,1.027299,-0.1503953999999999,0.03331681,0.6822531999999999,-0.07374749,0.0,-25.47379,32.07
4,-0.1322173999999999,0.03153992,0.9907074,1.0,-0.1355591,0.04510498,0.9897308,-32.67563,-1.80452,-29.696790000000004,4.729691000000001,0.5516661999999999,0.6491179,1.0,-0.1304016,0.02420044,0.9911652,36.04189,-3.525635,-30.03371,5.004288,0.4028564,0.7173866,-0.3923614,1.027441,-0.1509357999999999,0.03257477,0.6845043000000001,-0.07322976,0.0,-25.47379,32.07
4,-0.1322173999999999,0.03153992,0.9907074,1.0,-0.1355591,0.04510498,0.9897308,-32.67563,-1.80452,-29.696790000000004,4.729691000000001,0.5516661999999999,0.6491179,1.0,-0.1304016,0.02420044,0.9911652,36.04189,-3.525635,-30.03371,5.004288,0.4028564,0.7173866,-0.3923614,1.027441,-0.1509357999999999,0.03257477,0.6845043000000001,-0.07322976,0.0,-25.47379,32.07
4,-0.1322173999999999,0.03153992,0.9907074,1.0,-0.1355591,0.04510498,0.9897308,-32.67563,-1.80452,-29.696790000000004,4.729691000000001,0.5516661999999999,0.6491179,1.0,-0.1304016,0.02420044,0.9911652,36.04189,-3.525635,-30.03371,5.004288,0.4028564,0.7173866,-0.3923614,1.027441,-0.1509357999999999,0.03257477,0.6845043000000001,-0.07322976,0.0,-25.47379,32.07
