Second,eye_comb_direction_x,eye_comb_direction_y,eye_comb_direction_z,eye_r_openness,eye_r_direction_x,eye_r_direction_y,eye_r_direction_z,eye_r_origin_x,eye_r_origin_y,eye_r_origin_z,eye_r_pupil_diameter,eye_r_pupil_position_x,eye_r_pupil_position_y,eye_l_openness,eye_l_direction_x,eye_l_direction_y,eye_l_direction_z,eye_l_origin_x,eye_l_origin_y,eye_l_origin_z,eye_l_pupil_diameter,eye_l_pupil_position_x,eye_l_pupil_position_y,head_position_x,head_position_y,head_position_z,head_rotation_roll,head_rotation_pitch,head_rotation_yaw,EDA,BVP,TMP
0,-0.09469604,0.03462219,0.9948883,0.6699265,-0.101944,0.03291321,0.9942322,-36.19893,0.7279816,-30.66954,5.104126,0.6689728,0.5749848000000001,0.8494598,-0.04971313,0.04510498,0.9977417,31.3311,1.6908869999999998,-28.80579,5.143387000000001,0.5549655,0.5205178,-0.1982428,0.9627923,-0.01566267,-0.007954265,0.4610832,-0.02277258,2.391509,-0.6982686354531683,27.064584700833123
0,-0.09469604,0.03462219,0.9948883,0.6699265,-0.101944,0.03291321,0.9942322,-36.19893,0.7279816,-30.66954,5.104126,0.6689728,0.5749848000000001,0.8494598,-0.04971313,0.04510498,0.9977417,31.3311,1.6908869999999998,-28.80579,5.143387000000001,0.5549655,0.5205178,-0.1982428,0.9627923,-0.01566267,-0.007954265,0.4610832,-0.02277258,2.391509,-0.6982686354531683,27.064584700833123
0,-0.09469604,0.03462219,0.9948883,0.6699265,-0.101944,0.03291321,0.9942322,-36.19893,0.7279816,-30.66954,5.104126,0.6689728,0.5749848000000001,0.8494598,-0.04971313,0.04510498,0.9977417,31.3311,1.6908869999999998,-28.80579,5.143387000000001,0.5549655,0.5205178,-0.1982428,0.9627923,-0.01566267,-0.007954265,0.4610832,-0.02277258,2.391509,-0.6982686354531683,27.064584700833123
0,-0.09469604,0.03462219,0.9948883,0.6699265,-0.101944,0.03291321,0.9942322,-36.19893,0.7279816,-30.66954,5.104126,0.6689728,0.5749848000000001,0.8494598,-0.04971313,0.04510498,0.9977417,31.3311,1.6908869999999998,-28.80579,5.143387000000001,0.5549655,0.5205178,-0.1982428,0.9627923,-0.01566267,-0.007954265,0.4610832,-0.02277258,2.391509,-0.6982686354531683,27.064584700833123
0,-0.05458069,0.04612732,0.9974365,0.6723710999999999,-0.06364441,0.03189087,0.9974518,-36.21771,0.7960968,-30.80472,4.952988,0.6630836999999999,0.573859,0.8040086,-0.03276062,0.08024597,0.9962311,31.31662,1.6468200000000002,-28.62321,5.295883,0.5525239000000001,0.5145068,-0.1961506,0.9621118,-0.01879776,-0.0045347109999999,0.4790644,-0.02174771,2.391509,-0.6982686354531683,27.064584700833123
0,-0.05458069,0.04612732,0.9974365,0.6723710999999999,-0.06364441,0.03189087,0.9974518,-36.21771,0.7960968,-30.80472,4.952988,0.6630836999999999,0.573859,0.8040086,-0.03276062,0.08024597,0.9962311,31.31662,1.6468200000000002,-28.62321,5.295883,0.5525239000000001,0.5145068,-0.1961506,0.9621118,-0.01879776,-0.0045347109999999,0.4790644,-0.02174771,2.391509,-0.6982686354531683,27.064584700833123
0,-0.05458069,0.04612732,0.9974365,0.6723710999999999,-0.06364441,0.03189087,0.9974518,-36.21771,0.7960968,-30.80472,4.952988,0.6630836999999999,0.573859,0.8040086,-0.03276062,0.08024597,0.9962311,31.31662,1.6468200000000002,-28.62321,5.295883,0.5525239000000001,0.5145068,-0.1961506,0.9621118,-0.01879776,-0.0045347109999999,0.4790644,-0.02174771,2.391509,-0.6982686354531683,27.064584700833123
0,-0.2185058999999999,0.03616333,0.9751587,0.3723028,-0.2501373,0.01098633,0.9681396,-36.60037,0.789032,-30.72818,5.100784,0.7098846,0.5784656,0.9199606,-0.1468658,0.0919342,0.9848633,30.71991,1.73114,-29.02998,5.361098999999999,0.5928745,0.5141032,-0.1929594,0.9613141,-0.02478379,-0.0002862802999999,0.5091741,-0.02087884,2.391509,-0.6982686354531683,27.064584700833123
0,-0.2185058999999999,0.03616333,0.9751587,0.3723028,-0.2501373,0.01098633,0.9681396,-36.60037,0.789032,-30.72818,5.100784,0.7098846,0.5784656,0.9199606,-0.1468658,0.0919342,0.9848633,30.71991,1.73114,-29.02998,5.361098999999999,0.5928745,0.5141032,-0.1929594,0.9613141,-0.02478379,-0.0002862802999999,0.5091741,-0.02087884,2.391509,-0.6982686354531683,27.064584700833123
0,-0.2185058999999999,0.03616333,0.9751587,0.3723028,-0.2501373,0.01098633,0.9681396,-36.60037,0.789032,-30.72818,5.100784,0.7098846,0.5784656,0.9199606,-0.1468658,0.0919342,0.9848633,30.71991,1.73114,-29.02998,5.361098999999999,0.5928745,0.5141032,-0.1929594,0.9613141,-0.02478379,-0.0002862802999999,0.5091741,-0.02087884,2.391509,-0.6982686354531683,27.064584700833123
0,-0.4501037999999999,0.08757019,0.8886565999999999,0.1986127,-0.4676514,0.09545898,0.8787384,-37.68497,0.7502594,-31.27382,5.406342,0.7953979999999999,0.5745558000000001,1.0,-0.3943024,0.06285095,0.9168091,29.63936,1.6447599999999998,-29.19003,5.242432,0.6742812,0.5263911,-0.1909507999999999,0.9608305,-0.02948035,0.003172654,0.53083,-0.01943737,2.391509,-0.6982686354531683,27.064584700833123
0,-0.4501037999999999,0.08757019,0.8886565999999999,0.1986127,-0.4676514,0.09545898,0.8787384,-37.68497,0.7502594,-31.27382,5.406342,0.7953979999999999,0.5745558000000001,1.0,-0.3943024,0.06285095,0.9168091,29.63936,1.6447599999999998,-29.19003,5.242432,0.6742812,0.5263911,-0.1909507999999999,0.9608305,-0.02948035,0.003172654,0.53083,-0.01943737,2.391509,-0.6982686354531683,27.064584700833123
0,-0.4501037999999999,0.08757019,0.8886565999999999,0.1986127,-0.4676514,0.09545898,0.8787384,-37.68497,0.7502594,-31.27382,5.406342,0.7953979999999999,0.5745558000000001,1.0,-0.3943024,0.06285095,0.9168091,29.63936,1.6447599999999998,-29.19003,5.242432,0.6742812,0.5263911,-0.1909507999999999,0.9608305,-0.02948035,0.003172654,0.53083,-0.01943737,2.391509,-0.6982686354531683,27.064584700833123
0,-0.357254,0.06367493,0.9318237,0.2033362,-0.4075317,0.07275391,0.9102783,-37.45738,0.817276,-31.10185,5.072357,0.7731789000000001,0.5728518,1.0,-0.3488312,0.06216431,0.9351044,30.013820000000003,1.633957,-29.054440000000003,5.052307,0.6528038,0.5246449000000001,-0.1890604,0.9605938,-0.03434724,0.005027904,0.552841,-0.01827124,2.391509,-0.6982686354531683,27.064584700833123
0,-0.357254,0.06367493,0.9318237,0.2033362,-0.4075317,0.07275391,0.9102783,-37.45738,0.817276,-31.10185,5.072357,0.7731789000000001,0.5728518,1.0,-0.3488312,0.06216431,0.9351044,30.013820000000003,1.633957,-29.054440000000003,5.052307,0.6528038,0.5246449000000001,-0.1890604,0.9605938,-0.03434724,0.005027904,0.552841,-0.01827124,2.391509,-0.6982686354531683,27.064584700833123
0,-0.357254,0.06367493,0.9318237,0.2033362,-0.4075317,0.07275391,0.9102783,-37.45738,0.817276,-31.10185,5.072357,0.7731789000000001,0.5728518,1.0,-0.3488312,0.06216431,0.9351044,30.013820000000003,1.633957,-29.054440000000003,5.052307,0.6528038,0.5246449000000001,-0.1890604,0.9605938,-0.03434724,0.005027904,0.552841,-0.01827124,2.391509,-0.6982686354531683,27.064584700833123
0,-0.3430939,0.06956482,0.9367065,0.2473746,-0.3838654,0.08169556,0.919754,-37.332440000000005,0.8325195,-31.04851,5.192307,0.7635155,0.5698799,1.0,-0.335907,0.06744385,0.9394684,30.14476,1.6624759999999998,-29.0181,5.054947,0.6458848,0.5222098,-0.1875054,0.9605821,-0.03938152,0.0055330319999999,0.5738826,-0.01751933,2.391509,-0.6982686354531683,27.064584700833123
0,-0.3430939,0.06956482,0.9367065,0.2473746,-0.3838654,0.08169556,0.919754,-37.332440000000005,0.8325195,-31.04851,5.192307,0.7635155,0.5698799,1.0,-0.335907,0.06744385,0.9394684,30.14476,1.6624759999999998,-29.0181,5.054947,0.6458848,0.5222098,-0.1875054,0.9605821,-0.03938152,0.0055330319999999,0.5738826,-0.01751933,2.391509,-0.6982686354531683,27.064584700833123
0,-0.3430939,0.06956482,0.9367065,0.2473746,-0.3838654,0.08169556,0.919754,-37.332440000000005,0.8325195,-31.04851,5.192307,0.7635155,0.5698799,1.0,-0.335907,0.06744385,0.9394684,30.14476,1.6624759999999998,-29.0181,5.054947,0.6458848,0.5222098,-0.1875054,0.9605821,-0.03938152,0.0055330319999999,0.5738826,-0.01751933,2.391509,-0.6982686354531683,27.064584700833123
0,-0.2558594,0.08079529,0.9633179,0.455167,-0.3123169,0.06604004,0.9476624,-36.57704,0.8396759,-30.78935,4.932877,0.7206428,0.5684005,1.0,-0.2423553,0.08424377,0.966507,30.78978,1.7153470000000002,-28.85435,4.984801999999999,0.6068789000000001,0.5146858,-0.1859577,0.9604887,-0.04675169,0.0066938619999999,0.6015251,-0.01680895,2.391509,-0.6982686354531683,27.064584700833123
0,-0.2558594,0.08079529,0.9633179,0.455167,-0.3123169,0.06604004,0.9476624,-36.57704,0.8396759,-30.78935,4.932877,0.7206428,0.5684005,1.0,-0.2423553,0.08424377,0.966507,30.78978,1.7153470000000002,-28.85435,4.984801999999999,0.6068789000000001,0.5146858,-0.1859577,0.9604887,-0.04675169,0.0066938619999999,0.6015251,-0.01680895,2.391509,-0.6982686354531683,27.064584700833123
0,-0.2558594,0.08079529,0.9633179,0.455167,-0.3123169,0.06604004,0.9476624,-36.57704,0.8396759,-30.78935,4.932877,0.7206428,0.5684005,1.0,-0.2423553,0.08424377,0.966507,30.78978,1.7153470000000002,-28.85435,4.984801999999999,0.6068789000000001,0.5146858,-0.1859577,0.9604887,-0.04675169,0.0066938619999999,0.6015251,-0.01680895,2.391509,-0.6982686354531683,27.064584700833123
0,-0.1957703,0.0684967,0.978241,0.6156223000000001,-0.2266692999999999,0.06008911,0.9721069,-36.20668,0.866394,-30.67451,4.857147,0.6912590000000001,0.5662464,0.9670531,-0.179718,0.07281494,0.9810028,31.27252,1.820007,-29.33487,4.924911,0.5797229,0.5168582,-0.1852276,0.9604305,-0.05318618,0.0070608469999999,0.6235498,-0.01647011,2.391509,-0.6982686354531683,27.064584700833123
0,-0.1957703,0.0684967,0.978241,0.6156223000000001,-0.2266692999999999,0.06008911,0.9721069,-36.20668,0.866394,-30.67451,4.857147,0.6912590000000001,0.5662464,0.9670531,-0.179718,0.07281494,0.9810028,31.27252,1.820007,-29.33487,4.924911,0.5797229,0.5168582,-0.1852276,0.9604305,-0.05318618,0.0070608469999999,0.6235498,-0.01647011,2.391509,-0.6982686354531683,27.064584700833123
0,-0.1957703,0.0684967,0.978241,0.6156223000000001,-0.2266692999999999,0.06008911,0.9721069,-36.20668,0.866394,-30.67451,4.857147,0.6912590000000001,0.5662464,0.9670531,-0.179718,0.07281494,0.9810028,31.27252,1.820007,-29.33487,4.924911,0.5797229,0.5168582,-0.1852276,0.9604305,-0.05318618,0.0070608469999999,0.6235498,-0.01647011,2.391509,-0.6982686354531683,27.064584700833123
0,-0.1326141,0.04098511,0.9903107,0.6241153,-0.1509552,0.03579712,0.9878845,-35.57932,0.9176483,-30.4791,4.589493,0.6551528,0.5658161,0.9198152,-0.09594727,0.05126953,0.9940491,31.843000000000004,1.864197,-29.4044,4.80365,0.545575,0.5189287,-0.1850051,0.9605162,-0.05682656,0.006208509,0.6347169,-0.01662186,2.391509,-0.6982686354531683,27.064584700833123
0,-0.1326141,0.04098511,0.9903107,0.6241153,-0.1509552,0.03579712,0.9878845,-35.57932,0.9176483,-30.4791,4.589493,0.6551528,0.5658161,0.9198152,-0.09594727,0.05126953,0.9940491,31.843000000000004,1.864197,-29.4044,4.80365,0.545575,0.5189287,-0.1850051,0.9605162,-0.05682656,0.006208509,0.6347169,-0.01662186,2.391509,-0.6982686354531683,27.064584700833123
0,-0.1326141,0.04098511,0.9903107,0.6241153,-0.1509552,0.03579712,0.9878845,-35.57932,0.9176483,-30.4791,4.589493,0.6551528,0.5658161,0.9198152,-0.09594727,0.05126953,0.9940491,31.843000000000004,1.864197,-29.4044,4.80365,0.545575,0.5189287,-0.1850051,0.9605162,-0.05682656,0.006208509,0.6347169,-0.01662186,2.391509,-0.6982686354531683,27.064584700833123
0,-0.08207703,0.03862,0.9958649,0.677245,-0.08355713,0.03713989,0.9958038,-35.2323,0.9322357,-30.37204,4.491135,0.6312076,0.5635380999999999,0.8141695,-0.0609436,0.05937195,0.9963684000000002,32.20946,1.698608,-28.88773,4.774139,0.5266927,0.5181085,-0.1849844,0.9607906,-0.06167383,0.004926486,0.6479225000000001,-0.01681261,2.391509,-0.6982686354531683,27.064584700833123
0,-0.08207703,0.03862,0.9958649,0.677245,-0.08355713,0.03713989,0.9958038,-35.2323,0.9322357,-30.37204,4.491135,0.6312076,0.5635380999999999,0.8141695,-0.0609436,0.05937195,0.9963684000000002,32.20946,1.698608,-28.88773,4.774139,0.5266927,0.5181085,-0.1849844,0.9607906,-0.06167383,0.004926486,0.6479225000000001,-0.01681261,2.391509,-0.6982686354531683,27.064584700833123
0,-0.08207703,0.03862,0.9958649,0.677245,-0.08355713,0.03713989,0.9958038,-35.2323,0.9322357,-30.37204,4.491135,0.6312076,0.5635380999999999,0.8141695,-0.0609436,0.05937195,0.9963684000000002,32.20946,1.698608,-28.88773,4.774139,0.5266927,0.5181085,-0.1849844,0.9607906,-0.06167383,0.004926486,0.6479225000000001,-0.01681261,2.391509,-0.6982686354531683,27.064584700833123
0,-0.08207703,0.03862,0.9958649,0.7042834,-0.08355713,0.03713989,0.9958038,-35.2323,0.9322357,-30.37204,4.491135,0.6312076,0.5635380999999999,0.7601584,-0.0609436,0.05937195,0.9963684000000002,32.20946,1.698608,-28.88773,4.774139,0.5266927,0.5181085,-0.1851972,0.9609613,-0.06545328,0.004233922,0.6566451,-0.01676457,2.391509,-0.6982686354531683,27.064584700833123
0,-0.08207703,0.03862,0.9958649,0.7042834,-0.08355713,0.03713989,0.9958038,-35.2323,0.9322357,-30.37204,4.491135,0.6312076,0.5635380999999999,0.7601584,-0.0609436,0.05937195,0.9963684000000002,32.20946,1.698608,-28.88773,4.774139,0.5266927,0.5181085,-0.1851972,0.9609613,-0.06545328,0.004233922,0.6566451,-0.01676457,2.391509,-0.6982686354531683,27.064584700833123
0,-0.08207703,0.03862,0.9958649,0.7042834,-0.08355713,0.03713989,0.9958038,-35.2323,0.9322357,-30.37204,4.491135,0.6312076,0.5635380999999999,0.7601584,-0.0609436,0.05937195,0.9963684000000002,32.20946,1.698608,-28.88773,4.774139,0.5266927,0.5181085,-0.1851972,0.9609613,-0.06545328,0.004233922,0.6566451,-0.01676457,2.391509,-0.6982686354531683,27.064584700833123
0,-0.08207703,0.03862,0.9958649,0.7042834,-0.08355713,0.03713989,0.9958038,-35.2323,0.9322357,-30.37204,4.491135,0.6312076,0.5635380999999999,0.7601584,-0.0609436,0.05937195,0.9963684000000002,32.20946,1.698608,-28.88773,4.774139,0.5266927,0.5181085,-0.1854582,0.9610541,-0.06751896,0.003253237,0.6601549,-0.01688623,2.391509,-3.142616,27.064584700833123
0,-0.08207703,0.03862,0.9958649,0.7042834,-0.08355713,0.03713989,0.9958038,-35.2323,0.9322357,-30.37204,4.491135,0.6312076,0.5635380999999999,0.7601584,-0.0609436,0.05937195,0.9963684000000002,32.20946,1.698608,-28.88773,4.774139,0.5266927,0.5181085,-0.1854582,0.9610541,-0.06751896,0.003253237,0.6601549,-0.01688623,2.391509,-3.142616,27.064584700833123
0,-0.08207703,0.03862,0.9958649,0.7042834,-0.08355713,0.03713989,0.9958038,-35.2323,0.9322357,-30.37204,4.491135,0.6312076,0.5635380999999999,0.7601584,-0.0609436,0.05937195,0.9963684000000002,32.20946,1.698608,-28.88773,4.774139,0.5266927,0.5181085,-0.1854582,0.9610541,-0.06751896,0.003253237,0.6601549,-0.01688623,2.391509,-3.142616,27.064584700833123
0,-0.005828857,0.02430725,0.9996796,0.7313414,-0.006210327,0.02404785,0.9996796,-34.644490000000005,0.8827209,-30.093870000000003,4.536667,0.5973550999999999,0.5645388000000001,0.7457362,0.02877808,0.04782104,0.9984283000000002,32.77197,1.64978,-28.87196,4.716216999999999,0.4920193,0.5212647,-0.1858745,0.9615233,-0.06993368,0.0008928673,0.6632146,-0.0179009,2.391509,-3.142616,27.064584700833123
0,-0.005828857,0.02430725,0.9996796,0.7313414,-0.006210327,0.02404785,0.9996796,-34.644490000000005,0.8827209,-30.093870000000003,4.536667,0.5973550999999999,0.5645388000000001,0.7457362,0.02877808,0.04782104,0.9984283000000002,32.77197,1.64978,-28.87196,4.716216999999999,0.4920193,0.5212647,-0.1858745,0.9615233,-0.06993368,0.0008928673,0.6632146,-0.0179009,2.391509,-3.142616,27.064584700833123
0,-0.005828857,0.02430725,0.9996796,0.7313414,-0.006210327,0.02404785,0.9996796,-34.644490000000005,0.8827209,-30.093870000000003,4.536667,0.5973550999999999,0.5645388000000001,0.7457362,0.02877808,0.04782104,0.9984283000000002,32.77197,1.64978,-28.87196,4.716216999999999,0.4920193,0.5212647,-0.1858745,0.9615233,-0.06993368,0.0008928673,0.6632146,-0.0179009,2.391509,-3.142616,27.064584700833123
0,0.005722046,0.02784729,0.999588,0.8102694,0.005706787,0.02783203,0.999588,-34.61792,0.9337921,-30.21761,4.5664370000000005,0.5945381,0.5633695,0.7315269,0.02770996,0.04978943,0.9983673,32.867020000000004,1.903061,-29.63708,4.645538,0.4890390999999999,0.5193838,-0.1863776,0.9618523,-0.07200274,0.0005320922,0.664683,-0.01812035,2.391509,-3.142616,27.064584700833123
0,0.005722046,0.02784729,0.999588,0.8102694,0.005706787,0.02783203,0.999588,-34.61792,0.9337921,-30.21761,4.5664370000000005,0.5945381,0.5633695,0.7315269,0.02770996,0.04978943,0.9983673,32.867020000000004,1.903061,-29.63708,4.645538,0.4890390999999999,0.5193838,-0.1863776,0.9618523,-0.07200274,0.0005320922,0.664683,-0.01812035,2.391509,-3.142616,27.064584700833123
0,0.005722046,0.02784729,0.999588,0.8102694,0.005706787,0.02783203,0.999588,-34.61792,0.9337921,-30.21761,4.5664370000000005,0.5945381,0.5633695,0.7315269,0.02770996,0.04978943,0.9983673,32.867020000000004,1.903061,-29.63708,4.645538,0.4890390999999999,0.5193838,-0.1863776,0.9618523,-0.07200274,0.0005320922,0.664683,-0.01812035,2.391509,-3.142616,27.064584700833123
0,0.02003479,0.01368713,0.9996948,0.8221423000000001,0.01998901,0.01364136,0.9996948,-34.67038,1.022278,-30.60544,4.424362,0.5942691,0.5664296999999999,0.7353208000000001,0.05375671,0.05303955,0.9971313,32.76971,1.7057650000000002,-29.21461,4.701645,0.4878832999999999,0.5216962,-0.1867818,0.9620658,-0.0732675,0.0,0.6653264,-0.01842817,2.391509,-3.142616,27.064584700833123
0,0.02003479,0.01368713,0.9996948,0.8221423000000001,0.01998901,0.01364136,0.9996948,-34.67038,1.022278,-30.60544,4.424362,0.5942691,0.5664296999999999,0.7353208000000001,0.05375671,0.05303955,0.9971313,32.76971,1.7057650000000002,-29.21461,4.701645,0.4878832999999999,0.5216962,-0.1867818,0.9620658,-0.0732675,0.0,0.6653264,-0.01842817,2.391509,-3.142616,27.064584700833123
0,0.02003479,0.01368713,0.9996948,0.8221423000000001,0.01998901,0.01364136,0.9996948,-34.67038,1.022278,-30.60544,4.424362,0.5942691,0.5664296999999999,0.7353208000000001,0.05375671,0.05303955,0.9971313,32.76971,1.7057650000000002,-29.21461,4.701645,0.4878832999999999,0.5216962,-0.1867818,0.9620658,-0.0732675,0.0,0.6653264,-0.01842817,2.391509,-3.142616,27.064584700833123
0,-0.2048797999999999,-0.007354736,0.9787445,0.5760314999999999,-0.2055969,-0.007568359,0.9786072,-35.78015,0.6451569,-30.2518,4.535843,0.6714649,0.5808482,0.915498,-0.1565857,0.006698608,0.9876404,31.45808,1.677338,-29.57365,4.54248,0.5694022,0.5348081,-0.187418,0.9624669,-0.07513656,-0.000793457,0.6666572,-0.01809433,2.391509,-3.142616,27.064584700833123
0,-0.2048797999999999,-0.007354736,0.9787445,0.5760314999999999,-0.2055969,-0.007568359,0.9786072,-35.78015,0.6451569,-30.2518,4.535843,0.6714649,0.5808482,0.915498,-0.1565857,0.006698608,0.9876404,31.45808,1.677338,-29.57365,4.54248,0.5694022,0.5348081,-0.187418,0.9624669,-0.07513656,-0.000793457,0.6666572,-0.01809433,2.391509,-3.142616,27.064584700833123
0,-0.2048797999999999,-0.007354736,0.9787445,0.5760314999999999,-0.2055969,-0.007568359,0.9786072,-35.78015,0.6451569,-30.2518,4.535843,0.6714649,0.5808482,0.915498,-0.1565857,0.006698608,0.9876404,31.45808,1.677338,-29.57365,4.54248,0.5694022,0.5348081,-0.187418,0.9624669,-0.07513656,-0.000793457,0.6666572,-0.01809433,2.391509,-3.142616,27.064584700833123
0,-0.1859436,-0.01820374,0.9823761,0.6342137,-0.186264,-0.01838684,0.9823151,-35.96582,0.6557465,-30.40262,4.501999,0.6749243,0.5836796999999999,0.9862304,-0.1517944,0.002258301,0.9884033,31.44788,1.688553,-29.55116,4.517975,0.5689125,0.534918,-0.1878352,0.9626595,-0.07645519,-0.001062433,0.6677278,-0.01743182,2.391509,-2.468246,27.064584700833123
0,-0.1859436,-0.01820374,0.9823761,0.6342137,-0.186264,-0.01838684,0.9823151,-35.96582,0.6557465,-30.40262,4.501999,0.6749243,0.5836796999999999,0.9862304,-0.1517944,0.002258301,0.9884033,31.44788,1.688553,-29.55116,4.517975,0.5689125,0.534918,-0.1878352,0.9626595,-0.07645519,-0.001062433,0.6677278,-0.01743182,2.391509,-2.468246,27.064584700833123
0,-0.1859436,-0.01820374,0.9823761,0.6342137,-0.186264,-0.01838684,0.9823151,-35.96582,0.6557465,-30.40262,4.501999,0.6749243,0.5836796999999999,0.9862304,-0.1517944,0.002258301,0.9884033,31.44788,1.688553,-29.55116,4.517975,0.5689125,0.534918,-0.1878352,0.9626595,-0.07645519,-0.001062433,0.6677278,-0.01743182,2.391509,-2.468246,27.064584700833123
0,-0.164856,-0.004089355,0.9862976,1.0,-0.1802979,-0.0151824999999999,0.98349,-36.02301,0.6521606,-30.41231,4.35498,0.6758916,0.5831689,1.0,-0.1493987999999999,0.006958008,0.988739,31.4429,1.6979369999999998,-29.57486,4.492004,0.568707,0.5339734,-0.1891215,0.9634273,-0.08027375,-0.001004766,0.6721654,-0.01444678,2.391509,-2.468246,27.064584700833123
0,-0.164856,-0.004089355,0.9862976,1.0,-0.1802979,-0.0151824999999999,0.98349,-36.02301,0.6521606,-30.41231,4.35498,0.6758916,0.5831689,1.0,-0.1493987999999999,0.006958008,0.988739,31.4429,1.6979369999999998,-29.57486,4.492004,0.568707,0.5339734,-0.1891215,0.9634273,-0.08027375,-0.001004766,0.6721654,-0.01444678,2.391509,-2.468246,27.064584700833123
0,-0.164856,-0.004089355,0.9862976,1.0,-0.1802979,-0.0151824999999999,0.98349,-36.02301,0.6521606,-30.41231,4.35498,0.6758916,0.5831689,1.0,-0.1493987999999999,0.006958008,0.988739,31.4429,1.6979369999999998,-29.57486,4.492004,0.568707,0.5339734,-0.1891215,0.9634273,-0.08027375,-0.001004766,0.6721654,-0.01444678,2.391509,-2.468246,27.064584700833123
0,-0.1652222,-0.007415771,0.9862213,0.6521074,-0.180542,-0.01733398,0.9834136999999998,-36.01993,0.648407,-30.40529,4.312363,0.6758122,0.5835724,0.9885885,-0.148819,0.003158569,0.9888458,31.44315,1.701035,-29.59192,4.468459999999999,0.5686114000000001,0.5346672,-0.189548,0.9636773,-0.0814954,-0.0006713867,0.6736259,-0.0133374,2.391509,-2.468246,27.064584700833123
0,-0.1652222,-0.007415771,0.9862213,0.6521074,-0.180542,-0.01733398,0.9834136999999998,-36.01993,0.648407,-30.40529,4.312363,0.6758122,0.5835724,0.9885885,-0.148819,0.003158569,0.9888458,31.44315,1.701035,-29.59192,4.468459999999999,0.5686114000000001,0.5346672,-0.189548,0.9636773,-0.0814954,-0.0006713867,0.6736259,-0.0133374,2.391509,-2.468246,27.064584700833123
0,-0.1652222,-0.007415771,0.9862213,0.6521074,-0.180542,-0.01733398,0.9834136999999998,-36.01993,0.648407,-30.40529,4.312363,0.6758122,0.5835724,0.9885885,-0.148819,0.003158569,0.9888458,31.44315,1.701035,-29.59192,4.468459999999999,0.5686114000000001,0.5346672,-0.189548,0.9636773,-0.0814954,-0.0006713867,0.6736259,-0.0133374,2.391509,-2.468246,27.064584700833123
0,-0.158371,-0.009353638,0.9873199,0.6563562,-0.1768188,-0.0188446,0.9840546,-36.00528,0.6329956,-30.38278,4.291992,0.6745998000000001,0.5840852,0.9631697,-0.1386414,0.0007324219,0.9903412,31.44601,1.7006990000000002,-29.5764,4.446167,0.566742,0.5348596,-0.1901016,0.9639568,-0.08340666,-0.000422864,0.6760401,-0.01201633,2.391509,-2.468246,27.064584700833123
0,-0.158371,-0.009353638,0.9873199,0.6563562,-0.1768188,-0.0188446,0.9840546,-36.00528,0.6329956,-30.38278,4.291992,0.6745998000000001,0.5840852,0.9631697,-0.1386414,0.0007324219,0.9903412,31.44601,1.7006990000000002,-29.5764,4.446167,0.566742,0.5348596,-0.1901016,0.9639568,-0.08340666,-0.000422864,0.6760401,-0.01201633,2.391509,-2.468246,27.064584700833123
0,-0.158371,-0.009353638,0.9873199,0.6563562,-0.1768188,-0.0188446,0.9840546,-36.00528,0.6329956,-30.38278,4.291992,0.6745998000000001,0.5840852,0.9631697,-0.1386414,0.0007324219,0.9903412,31.44601,1.7006990000000002,-29.5764,4.446167,0.566742,0.5348596,-0.1901016,0.9639568,-0.08340666,-0.000422864,0.6760401,-0.01201633,2.391509,-2.468246,27.064584700833123
0,-0.1461792,-0.008789063,0.989212,0.6928535,-0.1722565,-0.01853943,0.9848633,-35.99664,0.6142273,-30.372940000000003,4.292511,0.6734722,0.5845411,0.969121,-0.1185913,0.001495361,0.9929352,31.45531,1.669876,-29.509840000000004,4.445724,0.5629082,0.5350252,-0.1908427,0.9641673,-0.0857112,0.000376246,0.6786724000000001,-0.01024409,2.391509,-2.468246,27.064584700833123
0,-0.1461792,-0.008789063,0.989212,0.6928535,-0.1722565,-0.01853943,0.9848633,-35.99664,0.6142273,-30.372940000000003,4.292511,0.6734722,0.5845411,0.969121,-0.1185913,0.001495361,0.9929352,31.45531,1.669876,-29.509840000000004,4.445724,0.5629082,0.5350252,-0.1908427,0.9641673,-0.0857112,0.000376246,0.6786724000000001,-0.01024409,2.391509,-2.468246,27.064584700833123
0,-0.1461792,-0.008789063,0.989212,0.6928535,-0.1722565,-0.01853943,0.9848633,-35.99664,0.6142273,-30.372940000000003,4.292511,0.6734722,0.5845411,0.969121,-0.1185913,0.001495361,0.9929352,31.45531,1.669876,-29.509840000000004,4.445724,0.5629082,0.5350252,-0.1908427,0.9641673,-0.0857112,0.000376246,0.6786724000000001,-0.01024409,2.391509,-2.468246,27.064584700833123
0,-0.1673584,-0.02368164,0.985611,0.7029996999999999,-0.16745,-0.02372742,0.9855804,-35.97844,0.5968933000000001,-30.34915,4.301025,0.6719491,0.5857775,0.9868698,-0.1183318999999999,-0.0009918213,0.9929657,31.609790000000004,1.512741,-29.03557,4.515823,0.5571599,0.5363303,-0.1912729,0.9642718,-0.08681241,0.0006011266,0.6801199,-0.009230445,2.391509,-5.079788,27.064584700833123
0,-0.1673584,-0.02368164,0.985611,0.7029996999999999,-0.16745,-0.02372742,0.9855804,-35.97844,0.5968933000000001,-30.34915,4.301025,0.6719491,0.5857775,0.9868698,-0.1183318999999999,-0.0009918213,0.9929657,31.609790000000004,1.512741,-29.03557,4.515823,0.5571599,0.5363303,-0.1912729,0.9642718,-0.08681241,0.0006011266,0.6801199,-0.009230445,2.391509,-5.079788,27.064584700833123
0,-0.1673584,-0.02368164,0.985611,0.7029996999999999,-0.16745,-0.02372742,0.9855804,-35.97844,0.5968933000000001,-30.34915,4.301025,0.6719491,0.5857775,0.9868698,-0.1183318999999999,-0.0009918213,0.9929657,31.609790000000004,1.512741,-29.03557,4.515823,0.5571599,0.5363303,-0.1912729,0.9642718,-0.08681241,0.0006011266,0.6801199,-0.009230445,2.391509,-5.079788,27.064584700833123
0,-0.160553,-0.02896118,0.9865875,0.7149587,-0.1636352999999999,-0.03050232,0.9860382,-35.9361,0.5662689000000001,-30.22548,4.351212,0.6695778,0.5867795,0.979399,-0.1112213,-0.004425049,0.9937744,31.61041,1.537369,-29.071140000000003,4.536362,0.5559338,0.5363939,-0.1919618,0.9644641,-0.08859362,0.001076367,0.6828907,-0.0077437719999999,2.391509,-5.079788,27.51
0,-0.160553,-0.02896118,0.9865875,0.7149587,-0.1636352999999999,-0.03050232,0.9860382,-35.9361,0.5662689000000001,-30.22548,4.351212,0.6695778,0.5867795,0.979399,-0.1112213,-0.004425049,0.9937744,31.61041,1.537369,-29.071140000000003,4.536362,0.5559338,0.5363939,-0.1919618,0.9644641,-0.08859362,0.001076367,0.6828907,-0.0077437719999999,2.391509,-5.079788,27.51
0,-0.160553,-0.02896118,0.9865875,0.7149587,-0.1636352999999999,-0.03050232,0.9860382,-35.9361,0.5662689000000001,-30.22548,4.351212,0.6695778,0.5867795,0.979399,-0.1112213,-0.004425049,0.9937744,31.61041,1.537369,-29.071140000000003,4.536362,0.5559338,0.5363939,-0.1919618,0.9644641,-0.08859362,0.001076367,0.6828907,-0.0077437719999999,2.391509,-5.079788,27.51
1,-0.1235351999999999,-0.01396179,0.9922333,0.6979584,-0.1563416,-0.0287323,0.9872742,-35.90858,0.548111,-30.19716,4.381592,0.6672835,0.5867795,0.9758535,-0.109787,-0.007797241,0.9939117,31.61256,1.543823,-29.06726,4.54335,0.5556058,0.5367231,-0.1928099,0.9645317,-0.09044597,0.002027984,0.6859458,-0.006319423,2.391509,-5.079788,27.51
1,-0.1235351999999999,-0.01396179,0.9922333,0.6979584,-0.1563416,-0.0287323,0.9872742,-35.90858,0.548111,-30.19716,4.381592,0.6672835,0.5867795,0.9758535,-0.109787,-0.007797241,0.9939117,31.61256,1.543823,-29.06726,4.54335,0.5556058,0.5367231,-0.1928099,0.9645317,-0.09044597,0.002027984,0.6859458,-0.006319423,2.391509,-5.079788,27.51
1,-0.1235351999999999,-0.01396179,0.9922333,0.6979584,-0.1563416,-0.0287323,0.9872742,-35.90858,0.548111,-30.19716,4.381592,0.6672835,0.5867795,0.9758535,-0.109787,-0.007797241,0.9939117,31.61256,1.543823,-29.06726,4.54335,0.5556058,0.5367231,-0.1928099,0.9645317,-0.09044597,0.002027984,0.6859458,-0.006319423,2.391509,-5.079788,27.51
1,-0.110321,-0.005340576,0.993866,0.7123025,-0.1332397,-0.009857178,0.9910278,-35.81927,0.4748992999999999,-29.91133,4.526184,0.6596406,0.5831145999999999,0.9534398,-0.1080017,-0.004882813,0.9941254,31.6187,1.51416,-29.02548,4.551117,0.5550603000000001,0.5368264,-0.1935425,0.9645548,-0.09213249,0.002966962,0.6892967,-0.005367278,2.391509,-5.079788,27.51
1,-0.110321,-0.005340576,0.993866,0.7123025,-0.1332397,-0.009857178,0.9910278,-35.81927,0.4748992999999999,-29.91133,4.526184,0.6596406,0.5831145999999999,0.9534398,-0.1080017,-0.004882813,0.9941254,31.6187,1.51416,-29.02548,4.551117,0.5550603000000001,0.5368264,-0.1935425,0.9645548,-0.09213249,0.002966962,0.6892967,-0.005367278,2.391509,-5.079788,27.51
1,-0.110321,-0.005340576,0.993866,0.7123025,-0.1332397,-0.009857178,0.9910278,-35.81927,0.4748992999999999,-29.91133,4.526184,0.6596406,0.5831145999999999,0.9534398,-0.1080017,-0.004882813,0.9941254,31.6187,1.51416,-29.02548,4.551117,0.5550603000000001,0.5368264,-0.1935425,0.9645548,-0.09213249,0.002966962,0.6892967,-0.005367278,2.391509,-5.079788,27.51
1,-0.1033325,-0.01403809,0.9945374,0.6914418000000001,-0.1257781999999999,-0.03675842,0.9913635,-35.73892,0.4821014,-29.859340000000003,4.437775,0.6554644000000001,0.5868836,0.9402519,-0.1007233,-0.01139832,0.9948425,31.63402,1.543823,-29.06726,4.5485690000000005,0.5533056,0.5372895000000001,-0.1945201,0.9644392,-0.09419136,0.004762698,0.6936375,-0.004077496,2.391509,-5.079788,27.51
1,-0.1033325,-0.01403809,0.9945374,0.6914418000000001,-0.1257781999999999,-0.03675842,0.9913635,-35.73892,0.4821014,-29.859340000000003,4.437775,0.6554644000000001,0.5868836,0.9402519,-0.1007233,-0.01139832,0.9948425,31.63402,1.543823,-29.06726,4.5485690000000005,0.5533056,0.5372895000000001,-0.1945201,0.9644392,-0.09419136,0.004762698,0.6936375,-0.004077496,2.391509,-5.079788,27.51
1,-0.1033325,-0.01403809,0.9945374,0.6914418000000001,-0.1257781999999999,-0.03675842,0.9913635,-35.73892,0.4821014,-29.859340000000003,4.437775,0.6554644000000001,0.5868836,0.9402519,-0.1007233,-0.01139832,0.9948425,31.63402,1.543823,-29.06726,4.5485690000000005,0.5533056,0.5372895000000001,-0.1945201,0.9644392,-0.09419136,0.004762698,0.6936375,-0.004077496,2.391509,-5.079788,27.51
1,-0.09196472,-0.02806091,0.9953613,0.7046885,-0.1216736,-0.04417419,0.9915771,-35.70657,0.4671478,-29.77895,4.355148000000001,0.6534953,0.5877854,0.9186599,-0.08078003,-0.02200317,0.9964752,31.75713,1.560562,-29.160740000000004,4.463882,0.5456929,0.5392628,-0.1951489,0.9643634,-0.095275,0.005974279,0.6959065,-0.003614498,2.391509,3.557724,27.51
1,-0.09196472,-0.02806091,0.9953613,0.7046885,-0.1216736,-0.04417419,0.9915771,-35.70657,0.4671478,-29.77895,4.355148000000001,0.6534953,0.5877854,0.9186599,-0.08078003,-0.02200317,0.9964752,31.75713,1.560562,-29.160740000000004,4.463882,0.5456929,0.5392628,-0.1951489,0.9643634,-0.095275,0.005974279,0.6959065,-0.003614498,2.391509,3.557724,27.51
1,-0.09196472,-0.02806091,0.9953613,0.7046885,-0.1216736,-0.04417419,0.9915771,-35.70657,0.4671478,-29.77895,4.355148000000001,0.6534953,0.5877854,0.9186599,-0.08078003,-0.02200317,0.9964752,31.75713,1.560562,-29.160740000000004,4.463882,0.5456929,0.5392628,-0.1951489,0.9643634,-0.095275,0.005974279,0.6959065,-0.003614498,2.391509,3.557724,27.51
1,-0.09196472,-0.02806091,0.9953613,0.7046885,-0.1216736,-0.04417419,0.9915771,-35.70657,0.4671478,-29.77895,4.355148000000001,0.6534953,0.5877854,0.9186599,-0.08078003,-0.02200317,0.9964752,31.75713,1.560562,-29.160740000000004,4.463882,0.5456929,0.5392628,-0.1962927,0.9642696,-0.09731698,0.008226851,0.6999433,-0.002483763,2.391509,3.557724,27.51
1,-0.09196472,-0.02806091,0.9953613,0.7046885,-0.1216736,-0.04417419,0.9915771,-35.70657,0.4671478,-29.77895,4.355148000000001,0.6534953,0.5877854,0.9186599,-0.08078003,-0.02200317,0.9964752,31.75713,1.560562,-29.160740000000004,4.463882,0.5456929,0.5392628,-0.1962927,0.9642696,-0.09731698,0.008226851,0.6999433,-0.002483763,2.391509,3.557724,27.51
1,-0.09196472,-0.02806091,0.9953613,0.7046885,-0.1216736,-0.04417419,0.9915771,-35.70657,0.4671478,-29.77895,4.355148000000001,0.6534953,0.5877854,0.9186599,-0.08078003,-0.02200317,0.9964752,31.75713,1.560562,-29.160740000000004,4.463882,0.5456929,0.5392628,-0.1962927,0.9642696,-0.09731698,0.008226851,0.6999433,-0.002483763,2.391509,3.557724,27.51
1,-0.09468079,-0.03695679,0.994812,0.7291739,-0.09996033,-0.04057312,0.9941559,-35.57643,0.4148712,-29.56822,4.262436,0.6449031999999999,0.586635,0.8027809,-0.05726624,-0.01138306,0.998291,31.90768,1.631943,-29.23079,4.42392,0.5365345,0.5354909000000001,-0.1971172999999999,0.9643043,-0.09869431,0.009045978,0.7024979,-0.002304835,2.391509,3.557724,27.51
1,-0.09468079,-0.03695679,0.994812,0.7291739,-0.09996033,-0.04057312,0.9941559,-35.57643,0.4148712,-29.56822,4.262436,0.6449031999999999,0.586635,0.8027809,-0.05726624,-0.01138306,0.998291,31.90768,1.631943,-29.23079,4.42392,0.5365345,0.5354909000000001,-0.1971172999999999,0.9643043,-0.09869431,0.009045978,0.7024979,-0.002304835,2.391509,3.557724,27.51
1,-0.09468079,-0.03695679,0.994812,0.7291739,-0.09996033,-0.04057312,0.9941559,-35.57643,0.4148712,-29.56822,4.262436,0.6449031999999999,0.586635,0.8027809,-0.05726624,-0.01138306,0.998291,31.90768,1.631943,-29.23079,4.42392,0.5365345,0.5354909000000001,-0.1971172999999999,0.9643043,-0.09869431,0.009045978,0.7024979,-0.002304835,2.391509,3.557724,27.51
1,-0.06643677,-0.03242493,0.9972534,0.7492839,-0.08953857,-0.04718018,0.9948578,-35.48076,0.5723114,-29.98245,4.305695,0.6403863000000001,0.5864816999999999,0.7897844,-0.0422820999999999,-0.01701355,0.9989471,31.96159,1.41835,-28.60388,4.447495,0.5317969,0.5377446,-0.1984125,0.9644543,-0.1001138999999999,0.01150768,0.7048045000000001,-0.001320392,2.391509,3.557724,27.51
1,-0.06643677,-0.03242493,0.9972534,0.7492839,-0.08953857,-0.04718018,0.9948578,-35.48076,0.5723114,-29.98245,4.305695,0.6403863000000001,0.5864816999999999,0.7897844,-0.0422820999999999,-0.01701355,0.9989471,31.96159,1.41835,-28.60388,4.447495,0.5317969,0.5377446,-0.1984125,0.9644543,-0.1001138999999999,0.01150768,0.7048045000000001,-0.001320392,2.391509,3.557724,27.51
1,-0.06643677,-0.03242493,0.9972534,0.7492839,-0.08953857,-0.04718018,0.9948578,-35.48076,0.5723114,-29.98245,4.305695,0.6403863000000001,0.5864816999999999,0.7897844,-0.0422820999999999,-0.01701355,0.9989471,31.96159,1.41835,-28.60388,4.447495,0.5317969,0.5377446,-0.1984125,0.9644543,-0.1001138999999999,0.01150768,0.7048045000000001,-0.001320392,2.391509,3.557724,27.51
1,-0.06637573,-0.0322876,0.9972687,0.7209105,-0.08984375,-0.04827881,0.9947815,-35.48012,0.5701904000000001,-29.97345,4.322403,0.6404089,0.5866678000000001,0.7878934,-0.03860474,-0.01338196,0.9991608,31.96471,1.409729,-28.57785,4.397263,0.5310614,0.5371178000000001,-0.2003809,0.9648331,-0.1017904999999999,0.0138387,0.7069308000000001,0.001655842,2.391509,-5.861702,27.51
1,-0.06637573,-0.0322876,0.9972687,0.7209105,-0.08984375,-0.04827881,0.9947815,-35.48012,0.5701904000000001,-29.97345,4.322403,0.6404089,0.5866678000000001,0.7878934,-0.03860474,-0.01338196,0.9991608,31.96471,1.409729,-28.57785,4.397263,0.5310614,0.5371178000000001,-0.2003809,0.9648331,-0.1017904999999999,0.0138387,0.7069308000000001,0.001655842,2.391509,-5.861702,27.51
1,-0.06637573,-0.0322876,0.9972687,0.7209105,-0.08984375,-0.04827881,0.9947815,-35.48012,0.5701904000000001,-29.97345,4.322403,0.6404089,0.5866678000000001,0.7878934,-0.03860474,-0.01338196,0.9991608,31.96471,1.409729,-28.57785,4.397263,0.5310614,0.5371178000000001,-0.2003809,0.9648331,-0.1017904999999999,0.0138387,0.7069308000000001,0.001655842,2.391509,-5.861702,27.51
1,-0.04777527,-0.02224731,0.9985962,0.6839038000000001,-0.07928467,-0.04121399,0.9959869,-35.41573,0.6126556,-30.0999,4.278046,0.6365175000000001,0.5851430000000001,0.7717715999999999,-0.02287292,-0.007263184,0.9997101,32.02052,1.46489,-28.73128,4.341187000000001,0.5265420999999999,0.5355492,-0.201023,0.9649268,-0.1022311,0.01437789,0.7074097,0.00268832,2.391509,-5.861702,27.51
1,-0.04777527,-0.02224731,0.9985962,0.6839038000000001,-0.07928467,-0.04121399,0.9959869,-35.41573,0.6126556,-30.0999,4.278046,0.6365175000000001,0.5851430000000001,0.7717715999999999,-0.02287292,-0.007263184,0.9997101,32.02052,1.46489,-28.73128,4.341187000000001,0.5265420999999999,0.5355492,-0.201023,0.9649268,-0.1022311,0.01437789,0.7074097,0.00268832,2.391509,-5.861702,27.51
1,-0.04777527,-0.02224731,0.9985962,0.6839038000000001,-0.07928467,-0.04121399,0.9959869,-35.41573,0.6126556,-30.0999,4.278046,0.6365175000000001,0.5851430000000001,0.7717715999999999,-0.02287292,-0.007263184,0.9997101,32.02052,1.46489,-28.73128,4.341187000000001,0.5265420999999999,0.5355492,-0.201023,0.9649268,-0.1022311,0.01437789,0.7074097,0.00268832,2.391509,-5.861702,27.51
1,-0.04579163,-0.03439331,0.9983521,0.6746886,-0.06947327,-0.06089783,0.9957123,-35.413070000000005,0.6027832,-30.0938,4.279831,0.6347543000000001,0.588817,0.7579241,-0.02383423,-0.009841919,0.9996643,32.02206,1.461807,-28.722690000000004,4.377228,0.5266454,0.5360548,-0.2016479,0.9650071,-0.1026349999999999,0.01445773,0.7079177,0.003235439,2.387666,-5.861702,27.51
1,-0.04579163,-0.03439331,0.9983521,0.6746886,-0.06947327,-0.06089783,0.9957123,-35.413070000000005,0.6027832,-30.0938,4.279831,0.6347543000000001,0.588817,0.7579241,-0.02383423,-0.009841919,0.9996643,32.02206,1.461807,-28.722690000000004,4.377228,0.5266454,0.5360548,-0.2016479,0.9650071,-0.1026349999999999,0.01445773,0.7079177,0.003235439,2.387666,-5.861702,27.51
1,-0.04579163,-0.03439331,0.9983521,0.6746886,-0.06947327,-0.06089783,0.9957123,-35.413070000000005,0.6027832,-30.0938,4.279831,0.6347543000000001,0.588817,0.7579241,-0.02383423,-0.009841919,0.9996643,32.02206,1.461807,-28.722690000000004,4.377228,0.5266454,0.5360548,-0.2016479,0.9650071,-0.1026349999999999,0.01445773,0.7079177,0.003235439,2.387666,-5.861702,27.51
1,-0.04432678,-0.03466797,0.9984131,0.7149215999999999,-0.06538391,-0.05810547,0.9961548,-35.4117,0.6042633000000001,-30.10039,4.248962000000001,0.6340044,0.5883099,0.7345034,-0.02180481,-0.009628296,0.9997101,32.02493,1.465134,-28.7384,4.389725,0.5262088,0.5360548,-0.2025252,0.9652039,-0.1033135,0.01501415,0.7084236999999999,0.004110707,2.387666,-5.861702,27.51
1,-0.04432678,-0.03466797,0.9984131,0.7149215999999999,-0.06538391,-0.05810547,0.9961548,-35.4117,0.6042633000000001,-30.10039,4.248962000000001,0.6340044,0.5883099,0.7345034,-0.02180481,-0.009628296,0.9997101,32.02493,1.465134,-28.7384,4.389725,0.5262088,0.5360548,-0.2025252,0.9652039,-0.1033135,0.01501415,0.7084236999999999,0.004110707,2.387666,-5.861702,27.51
1,-0.04432678,-0.03466797,0.9984131,0.7149215999999999,-0.06538391,-0.05810547,0.9961548,-35.4117,0.6042633000000001,-30.10039,4.248962000000001,0.6340044,0.5883099,0.7345034,-0.02180481,-0.009628296,0.9997101,32.02493,1.465134,-28.7384,4.389725,0.5262088,0.5360548,-0.2025252,0.9652039,-0.1033135,0.01501415,0.7084236999999999,0.004110707,2.387666,-5.861702,27.51
1,-0.04277039,-0.03665161,0.9983978,0.6907711999999999,-0.06167603,-0.05847168,0.9963684000000002,-35.40372,0.6005706999999999,-30.09943,4.243164,0.6330891,0.5884659999999999,0.7338650999999999,-0.02153015,-0.0121459999999999,0.9996796,32.036590000000004,1.475754,-28.75294,4.374954,0.5257639000000001,0.5362448000000001,-0.2033309,0.9652482,-0.1037922,0.01576102,0.7082433000000001,0.0043184259999999,2.387666,-5.861702,27.51
1,-0.04277039,-0.03665161,0.9983978,0.6907711999999999,-0.06167603,-0.05847168,0.9963684000000002,-35.40372,0.6005706999999999,-30.09943,4.243164,0.6330891,0.5884659999999999,0.7338650999999999,-0.02153015,-0.0121459999999999,0.9996796,32.036590000000004,1.475754,-28.75294,4.374954,0.5257639000000001,0.5362448000000001,-0.2033309,0.9652482,-0.1037922,0.01576102,0.7082433000000001,0.0043184259999999,2.387666,-5.861702,27.51
1,-0.04277039,-0.03665161,0.9983978,0.6907711999999999,-0.06167603,-0.05847168,0.9963684000000002,-35.40372,0.6005706999999999,-30.09943,4.243164,0.6330891,0.5884659999999999,0.7338650999999999,-0.02153015,-0.0121459999999999,0.9996796,32.036590000000004,1.475754,-28.75294,4.374954,0.5257639000000001,0.5362448000000001,-0.2033309,0.9652482,-0.1037922,0.01576102,0.7082433000000001,0.0043184259999999,2.387666,-5.861702,27.51
1,-0.04577637,-0.04154968,0.9980774,0.7224023,-0.05892944,-0.05807495,0.9965668,-35.39415,0.598999,-30.07005,4.243896,0.6322458000000001,0.5881536999999999,0.7591751,-0.02111816,-0.01063538,0.9997101,32.05899,1.49855,-28.875870000000003,4.379593,0.5249749,0.5363715,-0.2046353,0.9651903,-0.1048543,0.0174744,0.7079261,0.004168304,2.387666,-10.57816,27.51
1,-0.04577637,-0.04154968,0.9980774,0.7224023,-0.05892944,-0.05807495,0.9965668,-35.39415,0.598999,-30.07005,4.243896,0.6322458000000001,0.5881536999999999,0.7591751,-0.02111816,-0.01063538,0.9997101,32.05899,1.49855,-28.875870000000003,4.379593,0.5249749,0.5363715,-0.2046353,0.9651903,-0.1048543,0.0174744,0.7079261,0.004168304,2.387666,-10.57816,27.51
1,-0.04577637,-0.04154968,0.9980774,0.7224023,-0.05892944,-0.05807495,0.9965668,-35.39415,0.598999,-30.07005,4.243896,0.6322458000000001,0.5881536999999999,0.7591751,-0.02111816,-0.01063538,0.9997101,32.05899,1.49855,-28.875870000000003,4.379593,0.5249749,0.5363715,-0.2046353,0.9651903,-0.1048543,0.0174744,0.7079261,0.004168304,2.387666,-10.57816,27.51
1,-0.04640198,-0.03939819,0.9981384,0.7005982,-0.05831909,-0.05110168,0.9969788,-35.39348,0.5716095,-30.065520000000003,4.238937,0.6321058,0.5878229,0.7158229,-0.02005005,-0.01350403,0.9996948,32.05899,1.50325,-28.90326,4.33783,0.5248007,0.536934,-0.2046353,0.9651903,-0.1048543,0.0174744,0.7079261,0.004168304,2.387666,-10.57816,27.51
1,-0.04640198,-0.03939819,0.9981384,0.7005982,-0.05831909,-0.05110168,0.9969788,-35.39348,0.5716095,-30.065520000000003,4.238937,0.6321058,0.5878229,0.7158229,-0.02005005,-0.01350403,0.9996948,32.05899,1.50325,-28.90326,4.33783,0.5248007,0.536934,-0.2046353,0.9651903,-0.1048543,0.0174744,0.7079261,0.004168304,2.387666,-10.57816,27.51
1,-0.04640198,-0.03939819,0.9981384,0.7005982,-0.05831909,-0.05110168,0.9969788,-35.39348,0.5716095,-30.065520000000003,4.238937,0.6321058,0.5878229,0.7158229,-0.02005005,-0.01350403,0.9996948,32.05899,1.50325,-28.90326,4.33783,0.5248007,0.536934,-0.2046353,0.9651903,-0.1048543,0.0174744,0.7079261,0.004168304,2.387666,-10.57816,27.51
1,-0.0393219,-0.03300476,0.9986725,0.6838015000000001,-0.05819702,-0.05117798,0.9969788,-35.39415,0.5716095,-30.065520000000003,4.235764,0.6321058,0.5878229,0.7485897,-0.01908875,-0.01353455,0.9997253,32.05505,1.50325,-28.90326,4.3326720000000005,0.5247731,0.536934,-0.2051846,0.9648385,-0.1053205,0.019108,0.7080605999999999,0.004010711,2.387666,-10.57816,27.51
1,-0.0393219,-0.03300476,0.9986725,0.6838015000000001,-0.05819702,-0.05117798,0.9969788,-35.39415,0.5716095,-30.065520000000003,4.235764,0.6321058,0.5878229,0.7485897,-0.01908875,-0.01353455,0.9997253,32.05505,1.50325,-28.90326,4.3326720000000005,0.5247731,0.536934,-0.2051846,0.9648385,-0.1053205,0.019108,0.7080605999999999,0.004010711,2.387666,-10.57816,27.51
1,-0.0393219,-0.03300476,0.9986725,0.6838015000000001,-0.05819702,-0.05117798,0.9969788,-35.39415,0.5716095,-30.065520000000003,4.235764,0.6321058,0.5878229,0.7485897,-0.01908875,-0.01353455,0.9997253,32.05505,1.50325,-28.90326,4.3326720000000005,0.5247731,0.536934,-0.2051846,0.9648385,-0.1053205,0.019108,0.7080605999999999,0.004010711,2.387666,-10.57816,27.51
1,-0.03733826,-0.02986145,0.9988556,0.6882454000000001,-0.05932617,-0.04743958,0.9971008,-35.396770000000004,0.5701752,-30.05865,4.23732,0.6323795,0.5871708000000001,0.7320366999999999,-0.01622009,-0.01300049,0.9997711,32.046859999999995,1.492447,-28.8905,4.338425,0.5245609,0.53709,-0.2056112,0.9644485,-0.1059358999999999,0.02079356,0.7084199999999999,0.002965078,2.387666,-10.57816,27.51
1,-0.03733826,-0.02986145,0.9988556,0.6882454000000001,-0.05932617,-0.04743958,0.9971008,-35.396770000000004,0.5701752,-30.05865,4.23732,0.6323795,0.5871708000000001,0.7320366999999999,-0.01622009,-0.01300049,0.9997711,32.046859999999995,1.492447,-28.8905,4.338425,0.5245609,0.53709,-0.2056112,0.9644485,-0.1059358999999999,0.02079356,0.7084199999999999,0.002965078,2.387666,-10.57816,27.51
1,-0.03733826,-0.02986145,0.9988556,0.6882454000000001,-0.05932617,-0.04743958,0.9971008,-35.396770000000004,0.5701752,-30.05865,4.23732,0.6323795,0.5871708000000001,0.7320366999999999,-0.01622009,-0.01300049,0.9997711,32.046859999999995,1.492447,-28.8905,4.338425,0.5245609,0.53709,-0.2056112,0.9644485,-0.1059358999999999,0.02079356,0.7084199999999999,0.002965078,2.387666,-10.57816,27.51
1,-0.04083252,-0.02949524,0.9987183,0.6975331,-0.06195068,-0.04541016,0.9970398,-35.39891,0.5556793000000001,-30.03343,4.242081,0.6328688,0.5870695,0.7390432,-0.01844788,-0.01263428,0.9997406,32.04124,1.477631,-28.84517,4.33786,0.525113,0.5371064999999999,-0.2060387,0.9641203000000002,-0.1066232999999999,0.02189776,0.7094159999999999,0.001939728,2.387666,-10.57816,27.51
1,-0.04083252,-0.02949524,0.9987183,0.6975331,-0.06195068,-0.04541016,0.9970398,-35.39891,0.5556793000000001,-30.03343,4.242081,0.6328688,0.5870695,0.7390432,-0.01844788,-0.01263428,0.9997406,32.04124,1.477631,-28.84517,4.33786,0.525113,0.5371064999999999,-0.2060387,0.9641203000000002,-0.1066232999999999,0.02189776,0.7094159999999999,0.001939728,2.387666,-10.57816,27.51
1,-0.04083252,-0.02949524,0.9987183,0.6975331,-0.06195068,-0.04541016,0.9970398,-35.39891,0.5556793000000001,-30.03343,4.242081,0.6328688,0.5870695,0.7390432,-0.01844788,-0.01263428,0.9997406,32.04124,1.477631,-28.84517,4.33786,0.525113,0.5371064999999999,-0.2060387,0.9641203000000002,-0.1066232999999999,0.02189776,0.7094159999999999,0.001939728,2.387666,-10.57816,27.51
1,-0.05058289,-0.03565979,0.9980774,0.7179483,-0.05944824,-0.04170227,0.997345,-35.415009999999995,0.5748595999999999,-30.05527,4.280777,0.6330264,0.5860066999999999,0.732287,-0.01655579,-0.01245117,0.9997711,32.024440000000006,1.428101,-28.59903,4.356949,0.5252695,0.536435,-0.2068034,0.9638075,-0.1081511999999999,0.02366669,0.7124911999999999,0.0,2.387666,-10.57816,27.51
1,-0.05058289,-0.03565979,0.9980774,0.7179483,-0.05944824,-0.04170227,0.997345,-35.415009999999995,0.5748595999999999,-30.05527,4.280777,0.6330264,0.5860066999999999,0.732287,-0.01655579,-0.01245117,0.9997711,32.024440000000006,1.428101,-28.59903,4.356949,0.5252695,0.536435,-0.2068034,0.9638075,-0.1081511999999999,0.02366669,0.7124911999999999,0.0,2.387666,-10.57816,27.51
1,-0.05058289,-0.03565979,0.9980774,0.7179483,-0.05944824,-0.04170227,0.997345,-35.415009999999995,0.5748595999999999,-30.05527,4.280777,0.6330264,0.5860066999999999,0.732287,-0.01655579,-0.01245117,0.9997711,32.024440000000006,1.428101,-28.59903,4.356949,0.5252695,0.536435,-0.2068034,0.9638075,-0.1081511999999999,0.02366669,0.7124911999999999,0.0,2.387666,-10.57816,27.51
1,-0.0514679,-0.03189087,0.9981537,0.7051996,-0.05921936,-0.03768921,0.9975281,-35.415009999999995,0.5883789,-30.08783,4.281555,0.6330264,0.5851736999999999,0.7232571999999999,-0.01278687,-0.002990723,0.9999084,32.08672,1.4663540000000002,-28.62791,4.404617,0.5225161,0.5337947,-0.2070735,0.9636544,-0.1084487,0.02454221,0.7133714,-0.0008368719,2.387666,-4.409847,27.51
1,-0.0514679,-0.03189087,0.9981537,0.7051996,-0.05921936,-0.03768921,0.9975281,-35.415009999999995,0.5883789,-30.08783,4.281555,0.6330264,0.5851736999999999,0.7232571999999999,-0.01278687,-0.002990723,0.9999084,32.08672,1.4663540000000002,-28.62791,4.404617,0.5225161,0.5337947,-0.2070735,0.9636544,-0.1084487,0.02454221,0.7133714,-0.0008368719,2.387666,-4.409847,27.51
1,-0.0514679,-0.03189087,0.9981537,0.7051996,-0.05921936,-0.03768921,0.9975281,-35.415009999999995,0.5883789,-30.08783,4.281555,0.6330264,0.5851736999999999,0.7232571999999999,-0.01278687,-0.002990723,0.9999084,32.08672,1.4663540000000002,-28.62791,4.404617,0.5225161,0.5337947,-0.2070735,0.9636544,-0.1084487,0.02454221,0.7133714,-0.0008368719,2.387666,-4.409847,27.51
1,-0.04151917,-0.02867126,0.9987183,0.7116928000000001,-0.05517578,-0.04353333,0.9975128,-35.39902,0.6141205,-30.08919,4.267792,0.6317782,0.5852911,0.7108058,-0.01445007,0.0007629395,0.9998932,32.11667,1.432251,-28.46498,4.478928,0.5217114,0.5328285,-0.2073939,0.9631751,-0.1087715,0.02710717,0.7135783,-0.001593941,2.387666,-4.409847,27.51
1,-0.04151917,-0.02867126,0.9987183,0.7116928000000001,-0.05517578,-0.04353333,0.9975128,-35.39902,0.6141205,-30.08919,4.267792,0.6317782,0.5852911,0.7108058,-0.01445007,0.0007629395,0.9998932,32.11667,1.432251,-28.46498,4.478928,0.5217114,0.5328285,-0.2073939,0.9631751,-0.1087715,0.02710717,0.7135783,-0.001593941,2.387666,-4.409847,27.51
1,-0.04151917,-0.02867126,0.9987183,0.7116928000000001,-0.05517578,-0.04353333,0.9975128,-35.39902,0.6141205,-30.08919,4.267792,0.6317782,0.5852911,0.7108058,-0.01445007,0.0007629395,0.9998932,32.11667,1.432251,-28.46498,4.478928,0.5217114,0.5328285,-0.2073939,0.9631751,-0.1087715,0.02710717,0.7135783,-0.001593941,2.387666,-4.409847,27.51
1,-0.03862,-0.03181458,0.9987335,0.7105041,-0.04885864,-0.04356384,0.9978485,-35.3868,0.6141205,-30.08919,4.282028,0.6302755,0.5852911,0.6999968000000001,-0.01196289,-0.001281738,0.9999237,32.12462,1.40625,-28.40202,4.4802550000000005,0.5209894,0.5334678,-0.207584,0.963066,-0.1087375,0.02751447,0.713558,-0.002610992,2.387666,-4.409847,27.51
1,-0.03862,-0.03181458,0.9987335,0.7105041,-0.04885864,-0.04356384,0.9978485,-35.3868,0.6141205,-30.08919,4.282028,0.6302755,0.5852911,0.6999968000000001,-0.01196289,-0.001281738,0.9999237,32.12462,1.40625,-28.40202,4.4802550000000005,0.5209894,0.5334678,-0.207584,0.963066,-0.1087375,0.02751447,0.713558,-0.002610992,2.387666,-4.409847,27.51
1,-0.03862,-0.03181458,0.9987335,0.7105041,-0.04885864,-0.04356384,0.9978485,-35.3868,0.6141205,-30.08919,4.282028,0.6302755,0.5852911,0.6999968000000001,-0.01196289,-0.001281738,0.9999237,32.12462,1.40625,-28.40202,4.4802550000000005,0.5209894,0.5334678,-0.207584,0.963066,-0.1087375,0.02751447,0.713558,-0.002610992,2.387666,-4.409847,27.51
1,-0.03862,-0.03181458,0.9987335,0.7105041,-0.04885864,-0.04356384,0.9978485,-35.3868,0.6141205,-30.08919,4.282028,0.6302755,0.5852911,0.6999968000000001,-0.01196289,-0.001281738,0.9999237,32.12462,1.40625,-28.40202,4.4802550000000005,0.5209894,0.5334678,-0.2077162,0.9628904,-0.1087775,0.02840333,0.7133958,-0.003985554,2.387666,-4.409847,27.51
1,-0.03862,-0.03181458,0.9987335,0.7105041,-0.04885864,-0.04356384,0.9978485,-35.3868,0.6141205,-30.08919,4.282028,0.6302755,0.5852911,0.6999968000000001,-0.01196289,-0.001281738,0.9999237,32.12462,1.40625,-28.40202,4.4802550000000005,0.5209894,0.5334678,-0.2077162,0.9628904,-0.1087775,0.02840333,0.7133958,-0.003985554,2.387666,-4.409847,27.51
1,-0.03862,-0.03181458,0.9987335,0.7105041,-0.04885864,-0.04356384,0.9978485,-35.3868,0.6141205,-30.08919,4.282028,0.6302755,0.5852911,0.6999968000000001,-0.01196289,-0.001281738,0.9999237,32.12462,1.40625,-28.40202,4.4802550000000005,0.5209894,0.5334678,-0.2077162,0.9628904,-0.1087775,0.02840333,0.7133958,-0.003985554,2.387666,-4.409847,27.51
1,-0.008331299,-0.0067291259999999,0.999939,0.6898015000000001,-0.04031372,-0.02333069,0.9989014,-35.33409,0.5505675999999999,-29.70985,4.429077,0.6264976,0.5803009,0.6745011,-0.006668091,-0.005859375,0.9999542,32.151140000000005,1.487091,-28.52507,4.481339,0.5192319999999999,0.5326562,-0.2080582,0.9630341,-0.108569,0.02962048,0.7129850999999999,-0.0036181029999999,2.387666,4.405411,27.51
1,-0.008331299,-0.0067291259999999,0.999939,0.6898015000000001,-0.04031372,-0.02333069,0.9989014,-35.33409,0.5505675999999999,-29.70985,4.429077,0.6264976,0.5803009,0.6745011,-0.006668091,-0.005859375,0.9999542,32.151140000000005,1.487091,-28.52507,4.481339,0.5192319999999999,0.5326562,-0.2080582,0.9630341,-0.108569,0.02962048,0.7129850999999999,-0.0036181029999999,2.387666,4.405411,27.51
1,-0.008331299,-0.0067291259999999,0.999939,0.6898015000000001,-0.04031372,-0.02333069,0.9989014,-35.33409,0.5505675999999999,-29.70985,4.429077,0.6264976,0.5803009,0.6745011,-0.006668091,-0.005859375,0.9999542,32.151140000000005,1.487091,-28.52507,4.481339,0.5192319999999999,0.5326562,-0.2080582,0.9630341,-0.108569,0.02962048,0.7129850999999999,-0.0036181029999999,2.387666,4.405411,27.51
1,0.009613037,-0.03463745,0.9993439,0.6779509,-0.002792358,-0.05427551,0.9985199,-35.17929,0.5255432,-29.87488,4.27446,0.6149885,0.5879239,0.6740921,0.01916504,-0.01951599,0.9996185,32.26405,1.391891,-28.47433,4.4431,0.5109179,0.5376813,-0.2082427,0.9631124,-0.1085107999999999,0.02951377,0.7127743000000001,-0.004164727,2.387666,4.405411,27.51
1,0.009613037,-0.03463745,0.9993439,0.6779509,-0.002792358,-0.05427551,0.9985199,-35.17929,0.5255432,-29.87488,4.27446,0.6149885,0.5879239,0.6740921,0.01916504,-0.01951599,0.9996185,32.26405,1.391891,-28.47433,4.4431,0.5109179,0.5376813,-0.2082427,0.9631124,-0.1085107999999999,0.02951377,0.7127743000000001,-0.004164727,2.387666,4.405411,27.51
1,0.009613037,-0.03463745,0.9993439,0.6779509,-0.002792358,-0.05427551,0.9985199,-35.17929,0.5255432,-29.87488,4.27446,0.6149885,0.5879239,0.6740921,0.01916504,-0.01951599,0.9996185,32.26405,1.391891,-28.47433,4.4431,0.5109179,0.5376813,-0.2082427,0.9631124,-0.1085107999999999,0.02951377,0.7127743000000001,-0.004164727,2.387666,4.405411,27.51
1,0.009613037,-0.03463745,0.9993439,0.6779509,-0.002792358,-0.05427551,0.9985199,-35.17929,0.5255432,-29.87488,4.27446,0.6149885,0.5879239,0.6740921,0.01916504,-0.01951599,0.9996185,32.26405,1.391891,-28.47433,4.4431,0.5109179,0.5376813,-0.2085217,0.9632002,-0.1083275,0.02967602,0.7128433000000001,-0.004963776,2.387666,4.405411,27.51
1,0.009613037,-0.03463745,0.9993439,0.6779509,-0.002792358,-0.05427551,0.9985199,-35.17929,0.5255432,-29.87488,4.27446,0.6149885,0.5879239,0.6740921,0.01916504,-0.01951599,0.9996185,32.26405,1.391891,-28.47433,4.4431,0.5109179,0.5376813,-0.2085217,0.9632002,-0.1083275,0.02967602,0.7128433000000001,-0.004963776,2.387666,4.405411,27.51
1,0.009613037,-0.03463745,0.9993439,0.6779509,-0.002792358,-0.05427551,0.9985199,-35.17929,0.5255432,-29.87488,4.27446,0.6149885,0.5879239,0.6740921,0.01916504,-0.01951599,0.9996185,32.26405,1.391891,-28.47433,4.4431,0.5109179,0.5376813,-0.2085217,0.9632002,-0.1083275,0.02967602,0.7128433000000001,-0.004963776,2.387666,4.405411,27.51
1,0.02587891,-0.05044556,0.9983826,0.7143594,0.008743286,-0.06318665,0.9979553,-35.00993,0.4706573,-29.99727,4.296844,0.6073616999999999,0.5925331,0.6202795999999999,0.04109192,-0.03912354,0.9983826,32.36713,1.298676,-28.41995,4.495209,0.5036246,0.5437327,-0.2086721,0.9634928,-0.1079758,0.02847328,0.7122658000000001,-0.004627415,2.387666,4.405411,27.51
1,0.02587891,-0.05044556,0.9983826,0.7143594,0.008743286,-0.06318665,0.9979553,-35.00993,0.4706573,-29.99727,4.296844,0.6073616999999999,0.5925331,0.6202795999999999,0.04109192,-0.03912354,0.9983826,32.36713,1.298676,-28.41995,4.495209,0.5036246,0.5437327,-0.2086721,0.9634928,-0.1079758,0.02847328,0.7122658000000001,-0.004627415,2.387666,4.405411,27.51
1,0.02587891,-0.05044556,0.9983826,0.7143594,0.008743286,-0.06318665,0.9979553,-35.00993,0.4706573,-29.99727,4.296844,0.6073616999999999,0.5925331,0.6202795999999999,0.04109192,-0.03912354,0.9983826,32.36713,1.298676,-28.41995,4.495209,0.5036246,0.5437327,-0.2086721,0.9634928,-0.1079758,0.02847328,0.7122658000000001,-0.004627415,2.387666,4.405411,27.51
1,0.02587891,-0.05044556,0.9983826,0.7143594,0.008743286,-0.06318665,0.9979553,-35.00993,0.4706573,-29.99727,4.296844,0.6073616999999999,0.5925331,0.6202795999999999,0.04109192,-0.03912354,0.9983826,32.36713,1.298676,-28.41995,4.495209,0.5036246,0.5437327,-0.2087177999999999,0.9639071,-0.1074917,0.02706729,0.7108962,-0.004912477,2.387666,4.405411,27.51
1,0.02587891,-0.05044556,0.9983826,0.7143594,0.008743286,-0.06318665,0.9979553,-35.00993,0.4706573,-29.99727,4.296844,0.6073616999999999,0.5925331,0.6202795999999999,0.04109192,-0.03912354,0.9983826,32.36713,1.298676,-28.41995,4.495209,0.5036246,0.5437327,-0.2087177999999999,0.9639071,-0.1074917,0.02706729,0.7108962,-0.004912477,2.387666,4.405411,27.51
1,0.02587891,-0.05044556,0.9983826,0.7143594,0.008743286,-0.06318665,0.9979553,-35.00993,0.4706573,-29.99727,4.296844,0.6073616999999999,0.5925331,0.6202795999999999,0.04109192,-0.03912354,0.9983826,32.36713,1.298676,-28.41995,4.495209,0.5036246,0.5437327,-0.2087177999999999,0.9639071,-0.1074917,0.02706729,0.7108962,-0.004912477,2.387666,4.405411,27.51
1,0.07003784,-0.1214293999999999,0.9901123,0.8130604,0.03399658,-0.1330414,0.9905243,-34.84261,0.1700134,-30.0768,4.3899230000000005,0.5976149000000001,0.6159399999999999,0.6357554,0.07250977,-0.1206206999999999,0.990036,32.5538,1.047012,-28.59381,4.449097,0.4917920999999999,0.5681696999999999,-0.2087592,0.9639533,-0.1068559999999999,0.02655976,0.7093010000000001,-0.006125449,2.387666,5.424976,27.51
1,0.07003784,-0.1214293999999999,0.9901123,0.8130604,0.03399658,-0.1330414,0.9905243,-34.84261,0.1700134,-30.0768,4.3899230000000005,0.5976149000000001,0.6159399999999999,0.6357554,0.07250977,-0.1206206999999999,0.990036,32.5538,1.047012,-28.59381,4.449097,0.4917920999999999,0.5681696999999999,-0.2087592,0.9639533,-0.1068559999999999,0.02655976,0.7093010000000001,-0.006125449,2.387666,5.424976,27.51
1,0.07003784,-0.1214293999999999,0.9901123,0.8130604,0.03399658,-0.1330414,0.9905243,-34.84261,0.1700134,-30.0768,4.3899230000000005,0.5976149000000001,0.6159399999999999,0.6357554,0.07250977,-0.1206206999999999,0.990036,32.5538,1.047012,-28.59381,4.449097,0.4917920999999999,0.5681696999999999,-0.2087592,0.9639533,-0.1068559999999999,0.02655976,0.7093010000000001,-0.006125449,2.387666,5.424976,27.51
2,0.06629944,-0.113266,0.991333,0.7734171,0.03907776,-0.138382,0.9895935,-34.86305,0.1309967,-30.0472,4.418533,0.5974501999999999,0.6179464,0.6244995,0.07525635,-0.1049652,0.9916229,32.55403,0.999939,-28.55865,4.582596,0.4913442,0.56677,-0.2089212999999999,0.9640263,-0.1061049999999999,0.02538945,0.7075092,-0.006835938,2.387666,5.424976,27.51
2,0.06629944,-0.113266,0.991333,0.7734171,0.03907776,-0.138382,0.9895935,-34.86305,0.1309967,-30.0472,4.418533,0.5974501999999999,0.6179464,0.6244995,0.07525635,-0.1049652,0.9916229,32.55403,0.999939,-28.55865,4.582596,0.4913442,0.56677,-0.2089212999999999,0.9640263,-0.1061049999999999,0.02538945,0.7075092,-0.006835938,2.387666,5.424976,27.51
2,0.06629944,-0.113266,0.991333,0.7734171,0.03907776,-0.138382,0.9895935,-34.86305,0.1309967,-30.0472,4.418533,0.5974501999999999,0.6179464,0.6244995,0.07525635,-0.1049652,0.9916229,32.55403,0.999939,-28.55865,4.582596,0.4913442,0.56677,-0.2089212999999999,0.9640263,-0.1061049999999999,0.02538945,0.7075092,-0.006835938,2.387666,5.424976,27.51
2,0.05496216,-0.1139678999999999,0.9919586,0.7804498000000001,0.03334045,-0.1412811,0.9893951,-34.87437,0.09896851,-30.02492,4.333313,0.5987729,0.6192850999999999,0.6919142,0.06634521,-0.09950256,0.9928131,32.554959999999994,0.9485168,-28.47311,4.555206,0.4927952999999999,0.5667064,-0.2089625,0.9640768,-0.1054553,0.02448491,0.7059284,-0.007237751,2.387666,5.424976,27.51
2,0.05496216,-0.1139678999999999,0.9919586,0.7804498000000001,0.03334045,-0.1412811,0.9893951,-34.87437,0.09896851,-30.02492,4.333313,0.5987729,0.6192850999999999,0.6919142,0.06634521,-0.09950256,0.9928131,32.554959999999994,0.9485168,-28.47311,4.555206,0.4927952999999999,0.5667064,-0.2089625,0.9640768,-0.1054553,0.02448491,0.7059284,-0.007237751,2.387666,5.424976,27.51
2,0.05496216,-0.1139678999999999,0.9919586,0.7804498000000001,0.03334045,-0.1412811,0.9893951,-34.87437,0.09896851,-30.02492,4.333313,0.5987729,0.6192850999999999,0.6919142,0.06634521,-0.09950256,0.9928131,32.554959999999994,0.9485168,-28.47311,4.555206,0.4927952999999999,0.5667064,-0.2089625,0.9640768,-0.1054553,0.02448491,0.7059284,-0.007237751,2.387666,5.424976,27.51
2,0.05496216,-0.1139678999999999,0.9919586,0.7804498000000001,0.03334045,-0.1412811,0.9893951,-34.87437,0.09896851,-30.02492,4.333313,0.5987729,0.6192850999999999,0.6919142,0.06634521,-0.09950256,0.9928131,32.554959999999994,0.9485168,-28.47311,4.555206,0.4927952999999999,0.5667064,-0.2091307,0.9640524,-0.1046166,0.024477,0.7047378000000001,-0.007869039,2.387666,5.424976,27.51
2,0.05496216,-0.1139678999999999,0.9919586,0.7804498000000001,0.03334045,-0.1412811,0.9893951,-34.87437,0.09896851,-30.02492,4.333313,0.5987729,0.6192850999999999,0.6919142,0.06634521,-0.09950256,0.9928131,32.554959999999994,0.9485168,-28.47311,4.555206,0.4927952999999999,0.5667064,-0.2091307,0.9640524,-0.1046166,0.024477,0.7047378000000001,-0.007869039,2.387666,5.424976,27.51
2,0.05496216,-0.1139678999999999,0.9919586,0.7804498000000001,0.03334045,-0.1412811,0.9893951,-34.87437,0.09896851,-30.02492,4.333313,0.5987729,0.6192850999999999,0.6919142,0.06634521,-0.09950256,0.9928131,32.554959999999994,0.9485168,-28.47311,4.555206,0.4927952999999999,0.5667064,-0.2091307,0.9640524,-0.1046166,0.024477,0.7047378000000001,-0.007869039,2.387666,5.424976,27.51
2,-0.06370544,-0.06442261,0.9958801,0.6501045,-0.06942749,-0.06787109,0.9952698,-35.41782,0.4352417,-29.997770000000003,4.504852,0.6348563,0.5949863000000001,0.6134347,-0.02648926,-0.04199219,0.998764,32.06592,1.415573,-28.77571,4.572693,0.5255573,0.5438321999999999,-0.209398,0.963783,-0.1030869999999999,0.02630311,0.7023885999999999,-0.00968634,2.387666,5.424976,27.51
2,-0.06370544,-0.06442261,0.9958801,0.6501045,-0.06942749,-0.06787109,0.9952698,-35.41782,0.4352417,-29.997770000000003,4.504852,0.6348563,0.5949863000000001,0.6134347,-0.02648926,-0.04199219,0.998764,32.06592,1.415573,-28.77571,4.572693,0.5255573,0.5438321999999999,-0.209398,0.963783,-0.1030869999999999,0.02630311,0.7023885999999999,-0.00968634,2.387666,5.424976,27.51
2,-0.06370544,-0.06442261,0.9958801,0.6501045,-0.06942749,-0.06787109,0.9952698,-35.41782,0.4352417,-29.997770000000003,4.504852,0.6348563,0.5949863000000001,0.6134347,-0.02648926,-0.04199219,0.998764,32.06592,1.415573,-28.77571,4.572693,0.5255573,0.5438321999999999,-0.209398,0.963783,-0.1030869999999999,0.02630311,0.7023885999999999,-0.00968634,2.387666,5.424976,27.51
2,-0.05218506,-0.07705688,0.9956511999999998,0.4105253,-0.05218506,-0.07705688,0.9956511999999998,-35.503190000000004,0.4777527,-30.06865,4.437759,0.6349412,0.5957518,0.1962886,0.0,0.0,0.0,32.13734,1.533615,-29.11421,-1.0,0.5197333,0.5439268,-0.209398,0.963783,-0.1030869999999999,0.02630311,0.7023885999999999,-0.00968634,2.387666,6.041821,27.51
2,-0.05218506,-0.07705688,0.9956511999999998,0.4105253,-0.05218506,-0.07705688,0.9956511999999998,-35.503190000000004,0.4777527,-30.06865,4.437759,0.6349412,0.5957518,0.1962886,0.0,0.0,0.0,32.13734,1.533615,-29.11421,-1.0,0.5197333,0.5439268,-0.209398,0.963783,-0.1030869999999999,0.02630311,0.7023885999999999,-0.00968634,2.387666,6.041821,27.51
2,-0.05218506,-0.07705688,0.9956511999999998,0.4105253,-0.05218506,-0.07705688,0.9956511999999998,-35.503190000000004,0.4777527,-30.06865,4.437759,0.6349412,0.5957518,0.1962886,0.0,0.0,0.0,32.13734,1.533615,-29.11421,-1.0,0.5197333,0.5439268,-0.209398,0.963783,-0.1030869999999999,0.02630311,0.7023885999999999,-0.00968634,2.387666,6.041821,27.51
2,-0.05218506,-0.07705688,0.9956511999999998,0.4105253,-0.05218506,-0.07705688,0.9956511999999998,-35.503190000000004,0.4777527,-30.06865,4.437759,0.6349412,0.5957518,0.1962886,0.0,0.0,0.0,32.13734,1.533615,-29.11421,-1.0,0.5197333,0.5439268,-0.2098159999999999,0.9626805,-0.1009518999999999,0.03242081,0.69829,-0.0156656,2.387666,6.041821,27.51
2,-0.05218506,-0.07705688,0.9956511999999998,0.4105253,-0.05218506,-0.07705688,0.9956511999999998,-35.503190000000004,0.4777527,-30.06865,4.437759,0.6349412,0.5957518,0.1962886,0.0,0.0,0.0,32.13734,1.533615,-29.11421,-1.0,0.5197333,0.5439268,-0.2098159999999999,0.9626805,-0.1009518999999999,0.03242081,0.69829,-0.0156656,2.387666,6.041821,27.51
2,-0.05218506,-0.07705688,0.9956511999999998,0.4105253,-0.05218506,-0.07705688,0.9956511999999998,-35.503190000000004,0.4777527,-30.06865,4.437759,0.6349412,0.5957518,0.1962886,0.0,0.0,0.0,32.13734,1.533615,-29.11421,-1.0,0.5197333,0.5439268,-0.2098159999999999,0.9626805,-0.1009518999999999,0.03242081,0.69829,-0.0156656,2.387666,6.041821,27.51
2,-1.0,-1.0,-1.0,0.0,0.0,0.0,0.0,-35.41988,1.084488,-31.75493,-1.0,-1.0,-1.0,0.0,0.0,0.0,0.0,32.16232,2.185822,-30.96136,-1.0,0.386813,0.8120425,-0.209971,0.9623165,-0.09945931,0.03263715,0.6950884,-0.01810626,2.387666,6.041821,27.51
2,-1.0,-1.0,-1.0,0.0,0.0,0.0,0.0,-35.41988,1.084488,-31.75493,-1.0,-1.0,-1.0,0.0,0.0,0.0,0.0,32.16232,2.185822,-30.96136,-1.0,0.386813,0.8120425,-0.209971,0.9623165,-0.09945931,0.03263715,0.6950884,-0.01810626,2.387666,6.041821,27.51
2,-1.0,-1.0,-1.0,0.0,0.0,0.0,0.0,-35.41988,1.084488,-31.75493,-1.0,-1.0,-1.0,0.0,0.0,0.0,0.0,32.16232,2.185822,-30.96136,-1.0,0.386813,0.8120425,-0.209971,0.9623165,-0.09945931,0.03263715,0.6950884,-0.01810626,2.387666,6.041821,27.51
2,-1.0,-1.0,-1.0,0.0,0.0,0.0,0.0,-35.41988,1.084488,-31.75493,-1.0,-1.0,-1.0,0.0,0.0,0.0,0.0,32.16232,2.185822,-30.96136,-1.0,-1.0,-1.0,-0.2100331,0.9622212,-0.0976826,0.03182309,0.690912,-0.01911726,2.387666,6.041821,27.51
2,-1.0,-1.0,-1.0,0.0,0.0,0.0,0.0,-35.41988,1.084488,-31.75493,-1.0,-1.0,-1.0,0.0,0.0,0.0,0.0,32.16232,2.185822,-30.96136,-1.0,-1.0,-1.0,-0.2100331,0.9622212,-0.0976826,0.03182309,0.690912,-0.01911726,2.387666,6.041821,27.51
2,-1.0,-1.0,-1.0,0.0,0.0,0.0,0.0,-35.41988,1.084488,-31.75493,-1.0,-1.0,-1.0,0.0,0.0,0.0,0.0,32.16232,2.185822,-30.96136,-1.0,-1.0,-1.0,-0.2100331,0.9622212,-0.0976826,0.03182309,0.690912,-0.01911726,2.387666,6.041821,27.51
2,-1.0,-1.0,-1.0,0.0,0.0,0.0,0.0,-35.41988,1.084488,-31.75493,-1.0,-1.0,-1.0,0.0,0.0,0.0,0.0,32.16232,2.185822,-30.96136,-1.0,-1.0,-1.0,-0.2102049,0.961857,-0.09597337,0.03215423,0.6861699,-0.02061308,2.387666,-3.221596,27.51
2,-1.0,-1.0,-1.0,0.0,0.0,0.0,0.0,-35.41988,1.084488,-31.75493,-1.0,-1.0,-1.0,0.0,0.0,0.0,0.0,32.16232,2.185822,-30.96136,-1.0,-1.0,-1.0,-0.2102049,0.961857,-0.09597337,0.03215423,0.6861699,-0.02061308,2.387666,-3.221596,27.51
2,-1.0,-1.0,-1.0,0.0,0.0,0.0,0.0,-35.41988,1.084488,-31.75493,-1.0,-1.0,-1.0,0.0,0.0,0.0,0.0,32.16232,2.185822,-30.96136,-1.0,-1.0,-1.0,-0.2102049,0.961857,-0.09597337,0.03215423,0.6861699,-0.02061308,2.387666,-3.221596,27.51
2,-1.0,-1.0,-1.0,0.0,0.0,0.0,0.0,-35.41988,1.084488,-31.75493,-1.0,0.3620375999999999,0.765026,0.0,0.0,0.0,0.0,32.16232,2.185822,-30.96136,-1.0,-1.0,-1.0,-0.2101362,0.9614415,-0.09454644,0.03261483,0.6824892,-0.02210669,2.387666,-3.221596,27.51
2,-1.0,-1.0,-1.0,0.0,0.0,0.0,0.0,-35.41988,1.084488,-31.75493,-1.0,0.3620375999999999,0.765026,0.0,0.0,0.0,0.0,32.16232,2.185822,-30.96136,-1.0,-1.0,-1.0,-0.2101362,0.9614415,-0.09454644,0.03261483,0.6824892,-0.02210669,2.387666,-3.221596,27.51
2,-1.0,-1.0,-1.0,0.0,0.0,0.0,0.0,-35.41988,1.084488,-31.75493,-1.0,0.3620375999999999,0.765026,0.0,0.0,0.0,0.0,32.16232,2.185822,-30.96136,-1.0,-1.0,-1.0,-0.2101362,0.9614415,-0.09454644,0.03261483,0.6824892,-0.02210669,2.387666,-3.221596,27.51
2,-1.0,-1.0,-1.0,0.0,0.0,0.0,0.0,-35.41988,1.084488,-31.75493,-1.0,0.4841563,0.7373441,0.0,0.0,0.0,0.0,32.16232,2.185822,-30.96136,-1.0,-1.0,-1.0,-0.2101149,0.9609105,-0.09337962,0.03222628,0.6793806,-0.02397905,2.387666,-3.221596,27.51
2,-1.0,-1.0,-1.0,0.0,0.0,0.0,0.0,-35.41988,1.084488,-31.75493,-1.0,0.4841563,0.7373441,0.0,0.0,0.0,0.0,32.16232,2.185822,-30.96136,-1.0,-1.0,-1.0,-0.2101149,0.9609105,-0.09337962,0.03222628,0.6793806,-0.02397905,2.387666,-3.221596,27.51
2,-1.0,-1.0,-1.0,0.0,0.0,0.0,0.0,-35.41988,1.084488,-31.75493,-1.0,0.4841563,0.7373441,0.0,0.0,0.0,0.0,32.16232,2.185822,-30.96136,-1.0,-1.0,-1.0,-0.2101149,0.9609105,-0.09337962,0.03222628,0.6793806,-0.02397905,2.387666,-3.221596,27.51
2,-1.0,-1.0,-1.0,0.0,0.0,0.0,0.0,-35.41988,1.084488,-31.75493,-1.0,-1.0,-1.0,0.0,0.0,0.0,0.0,32.16232,2.185822,-30.96136,-1.0,-1.0,-1.0,-0.2103092999999999,0.9606177,-0.09249435,0.03146805,0.6773915,-0.02484071,2.387666,-3.221596,27.51
2,-1.0,-1.0,-1.0,0.0,0.0,0.0,0.0,-35.41988,1.084488,-31.75493,-1.0,-1.0,-1.0,0.0,0.0,0.0,0.0,32.16232,2.185822,-30.96136,-1.0,-1.0,-1.0,-0.2103092999999999,0.9606177,-0.09249435,0.03146805,0.6773915,-0.02484071,2.387666,-3.221596,27.51
2,-1.0,-1.0,-1.0,0.0,0.0,0.0,0.0,-35.41988,1.084488,-31.75493,-1.0,-1.0,-1.0,0.0,0.0,0.0,0.0,32.16232,2.185822,-30.96136,-1.0,-1.0,-1.0,-0.2103092999999999,0.9606177,-0.09249435,0.03146805,0.6773915,-0.02484071,2.387666,-3.221596,27.51
2,-1.0,-1.0,-1.0,0.0,0.0,0.0,0.0,-35.41988,1.084488,-31.75493,-1.0,-1.0,-1.0,0.0,0.0,0.0,0.0,32.16232,2.185822,-30.96136,-1.0,-1.0,-1.0,-0.2103092999999999,0.9606177,-0.09249435,0.03146805,0.6773915,-0.02484071,2.387666,-3.221596,27.51
2,-1.0,-1.0,-1.0,0.0,0.0,0.0,0.0,-35.41988,1.084488,-31.75493,-1.0,-1.0,-1.0,0.0,0.0,0.0,0.0,32.16232,2.185822,-30.96136,-1.0,-1.0,-1.0,-0.2103092999999999,0.9606177,-0.09249435,0.03146805,0.6773915,-0.02484071,2.387666,-3.221596,27.51
2,-1.0,-1.0,-1.0,0.0,0.0,0.0,0.0,-35.41988,1.084488,-31.75493,-1.0,-1.0,-1.0,0.0,0.0,0.0,0.0,32.16232,2.185822,-30.96136,-1.0,-1.0,-1.0,-0.2103092999999999,0.9606177,-0.09249435,0.03146805,0.6773915,-0.02484071,2.387666,-3.221596,27.51
2,-1.0,-1.0,-1.0,0.0,0.0,0.0,0.0,-35.41988,1.084488,-31.75493,-1.0,-1.0,-1.0,0.0,0.0,0.0,0.0,32.16232,2.185822,-30.96136,-1.0,-1.0,-1.0,-0.2106594,0.9608297,-0.09027867,0.03033484,0.6749364999999999,-0.02200798,2.387666,-8.814026,27.51
2,-1.0,-1.0,-1.0,0.0,0.0,0.0,0.0,-35.41988,1.084488,-31.75493,-1.0,-1.0,-1.0,0.0,0.0,0.0,0.0,32.16232,2.185822,-30.96136,-1.0,-1.0,-1.0,-0.2106594,0.9608297,-0.09027867,0.03033484,0.6749364999999999,-0.02200798,2.387666,-8.814026,27.51
2,-1.0,-1.0,-1.0,0.0,0.0,0.0,0.0,-35.41988,1.084488,-31.75493,-1.0,-1.0,-1.0,0.0,0.0,0.0,0.0,32.16232,2.185822,-30.96136,-1.0,-1.0,-1.0,-0.2106594,0.9608297,-0.09027867,0.03033484,0.6749364999999999,-0.02200798,2.387666,-8.814026,27.51
2,-1.0,-1.0,-1.0,0.3351405,0.0,0.0,0.0,-35.41988,1.084488,-31.75493,-1.0,-1.0,-1.0,0.0,0.0,0.0,0.0,27.71698,0.7596741,-31.02979,-1.0,-1.0,-1.0,-0.2108311,0.9609653,-0.08931457,0.03108254,0.6736804,-0.02041843,2.387666,-16.01919,27.51
2,-1.0,-1.0,-1.0,0.3351405,0.0,0.0,0.0,-35.41988,1.084488,-31.75493,-1.0,-1.0,-1.0,0.0,0.0,0.0,0.0,27.71698,0.7596741,-31.02979,-1.0,-1.0,-1.0,-0.2108311,0.9609653,-0.08931457,0.03108254,0.6736804,-0.02041843,2.387666,-16.01919,27.51
2,-1.0,-1.0,-1.0,0.3351405,0.0,0.0,0.0,-35.41988,1.084488,-31.75493,-1.0,-1.0,-1.0,0.0,0.0,0.0,0.0,27.71698,0.7596741,-31.02979,-1.0,-1.0,-1.0,-0.2108311,0.9609653,-0.08931457,0.03108254,0.6736804,-0.02041843,2.387666,-16.01919,27.51
2,-1.0,-1.0,-1.0,0.3351405,0.0,0.0,0.0,-35.41988,1.084488,-31.75493,-1.0,-1.0,-1.0,0.0,0.0,0.0,0.0,27.71698,0.7596741,-31.02979,-1.0,-1.0,-1.0,-0.2108946,0.9612329,-0.08829795,0.03114235,0.6720743,-0.01944973,2.387666,-16.01919,27.51
2,-1.0,-1.0,-1.0,0.3351405,0.0,0.0,0.0,-35.41988,1.084488,-31.75493,-1.0,-1.0,-1.0,0.0,0.0,0.0,0.0,27.71698,0.7596741,-31.02979,-1.0,-1.0,-1.0,-0.2108946,0.9612329,-0.08829795,0.03114235,0.6720743,-0.01944973,2.387666,-16.01919,27.51
2,-1.0,-1.0,-1.0,0.3351405,0.0,0.0,0.0,-35.41988,1.084488,-31.75493,-1.0,-1.0,-1.0,0.0,0.0,0.0,0.0,27.71698,0.7596741,-31.02979,-1.0,-1.0,-1.0,-0.2108946,0.9612329,-0.08829795,0.03114235,0.6720743,-0.01944973,2.387666,-16.01919,27.51
2,-1.0,-1.0,-1.0,0.3351405,0.0,0.0,0.0,-35.41988,1.084488,-31.75493,-1.0,-1.0,-1.0,0.0,0.0,0.0,0.0,27.71698,0.7596741,-31.02979,-1.0,-1.0,-1.0,-0.2108907,0.9614966,-0.08756109,0.03053119,0.6708972,-0.01843636,2.387666,-16.01919,27.51
2,-1.0,-1.0,-1.0,0.3351405,0.0,0.0,0.0,-35.41988,1.084488,-31.75493,-1.0,-1.0,-1.0,0.0,0.0,0.0,0.0,27.71698,0.7596741,-31.02979,-1.0,-1.0,-1.0,-0.2108907,0.9614966,-0.08756109,0.03053119,0.6708972,-0.01843636,2.387666,-16.01919,27.51
2,-1.0,-1.0,-1.0,0.3351405,0.0,0.0,0.0,-35.41988,1.084488,-31.75493,-1.0,-1.0,-1.0,0.0,0.0,0.0,0.0,27.71698,0.7596741,-31.02979,-1.0,-1.0,-1.0,-0.2108907,0.9614966,-0.08756109,0.03053119,0.6708972,-0.01843636,2.387666,-16.01919,27.51
2,-1.0,-1.0,-1.0,0.645034,0.0,0.0,0.0,-35.85248,1.483627,-30.71907,-1.0,0.6544685,0.5232127000000001,0.159119,0.0,0.0,0.0,31.80998,2.327911,-29.09441,-1.0,0.5425406,0.4803534,-0.2107688,0.9617192,-0.08719084,0.03002818,0.6706751999999999,-0.01732646,2.387666,-16.01919,27.51
2,-1.0,-1.0,-1.0,0.645034,0.0,0.0,0.0,-35.85248,1.483627,-30.71907,-1.0,0.6544685,0.5232127000000001,0.159119,0.0,0.0,0.0,31.80998,2.327911,-29.09441,-1.0,0.5425406,0.4803534,-0.2107688,0.9617192,-0.08719084,0.03002818,0.6706751999999999,-0.01732646,2.387666,-16.01919,27.51
2,-1.0,-1.0,-1.0,0.645034,0.0,0.0,0.0,-35.85248,1.483627,-30.71907,-1.0,0.6544685,0.5232127000000001,0.159119,0.0,0.0,0.0,31.80998,2.327911,-29.09441,-1.0,0.5425406,0.4803534,-0.2107688,0.9617192,-0.08719084,0.03002818,0.6706751999999999,-0.01732646,2.387666,-16.01919,27.51
2,-0.1121979,0.1509704999999999,0.9821472,0.8540486999999999,-0.1121979,0.1509704999999999,0.9821472,-36.00105,1.359619,-30.5596,4.373459,0.6633369,0.5313446,0.5644024999999999,-0.09004211,0.1709442,0.9811554,31.740140000000004,2.245163,-29.05731,4.679352,0.5482973000000001,0.4822479,-0.2106405,0.9618939,-0.08694138,0.02926564,0.6704972,-0.01627832,2.387666,-16.01919,27.51
2,-0.1121979,0.1509704999999999,0.9821472,0.8540486999999999,-0.1121979,0.1509704999999999,0.9821472,-36.00105,1.359619,-30.5596,4.373459,0.6633369,0.5313446,0.5644024999999999,-0.09004211,0.1709442,0.9811554,31.740140000000004,2.245163,-29.05731,4.679352,0.5482973000000001,0.4822479,-0.2106405,0.9618939,-0.08694138,0.02926564,0.6704972,-0.01627832,2.387666,-16.01919,27.51
2,-0.1121979,0.1509704999999999,0.9821472,0.8540486999999999,-0.1121979,0.1509704999999999,0.9821472,-36.00105,1.359619,-30.5596,4.373459,0.6633369,0.5313446,0.5644024999999999,-0.09004211,0.1709442,0.9811554,31.740140000000004,2.245163,-29.05731,4.679352,0.5482973000000001,0.4822479,-0.2106405,0.9618939,-0.08694138,0.02926564,0.6704972,-0.01627832,2.387666,-16.01919,27.51
2,-0.1031493999999999,0.1490936,0.9834136999999998,1.0,-0.10672,0.1462707999999999,0.9834595,-36.03331,1.360367,-30.84355,4.407318,0.6639619000000001,0.5348246,1.0,-0.07749939,0.1691895,0.9825287,31.70155,2.08812,-28.78827,4.628754,0.5472912,0.4853449000000001,-0.2103119,0.9621106,-0.08677815,0.02860316,0.6701497,-0.01477681,2.387666,5.731174,27.51
2,-0.1031493999999999,0.1490936,0.9834136999999998,1.0,-0.10672,0.1462707999999999,0.9834595,-36.03331,1.360367,-30.84355,4.407318,0.6639619000000001,0.5348246,1.0,-0.07749939,0.1691895,0.9825287,31.70155,2.08812,-28.78827,4.628754,0.5472912,0.4853449000000001,-0.2103119,0.9621106,-0.08677815,0.02860316,0.6701497,-0.01477681,2.387666,5.731174,27.51
2,-0.1031493999999999,0.1490936,0.9834136999999998,1.0,-0.10672,0.1462707999999999,0.9834595,-36.03331,1.360367,-30.84355,4.407318,0.6639619000000001,0.5348246,1.0,-0.07749939,0.1691895,0.9825287,31.70155,2.08812,-28.78827,4.628754,0.5472912,0.4853449000000001,-0.2103119,0.9621106,-0.08677815,0.02860316,0.6701497,-0.01477681,2.387666,5.731174,27.51
2,-0.1031493999999999,0.1490936,0.9834136999999998,1.0,-0.10672,0.1462707999999999,0.9834595,-36.03331,1.360367,-30.84355,4.407318,0.6639619000000001,0.5348246,1.0,-0.07749939,0.1691895,0.9825287,31.70155,2.08812,-28.78827,4.628754,0.5472912,0.4853449000000001,-0.2103119,0.9621106,-0.08677815,0.02860316,0.6701497,-0.01477681,2.387666,5.731174,27.51
2,-0.1031493999999999,0.1490936,0.9834136999999998,1.0,-0.10672,0.1462707999999999,0.9834595,-36.03331,1.360367,-30.84355,4.407318,0.6639619000000001,0.5348246,1.0,-0.07749939,0.1691895,0.9825287,31.70155,2.08812,-28.78827,4.628754,0.5472912,0.4853449000000001,-0.2103119,0.9621106,-0.08677815,0.02860316,0.6701497,-0.01477681,2.387666,5.731174,27.51
2,-0.1031493999999999,0.1490936,0.9834136999999998,1.0,-0.10672,0.1462707999999999,0.9834595,-36.03331,1.360367,-30.84355,4.407318,0.6639619000000001,0.5348246,1.0,-0.07749939,0.1691895,0.9825287,31.70155,2.08812,-28.78827,4.628754,0.5472912,0.4853449000000001,-0.2103119,0.9621106,-0.08677815,0.02860316,0.6701497,-0.01477681,2.387666,5.731174,27.51
2,-0.1031493999999999,0.1490936,0.9834136999999998,1.0,-0.10672,0.1462707999999999,0.9834595,-36.03331,1.360367,-30.84355,4.407318,0.6639619000000001,0.5348246,1.0,-0.07749939,0.1691895,0.9825287,31.70155,2.08812,-28.78827,4.628754,0.5472912,0.4853449000000001,-0.2100412,0.9620692,-0.08661531,0.02799392,0.6698026999999999,-0.01387392,2.387666,5.731174,27.51
2,-0.1031493999999999,0.1490936,0.9834136999999998,1.0,-0.10672,0.1462707999999999,0.9834595,-36.03331,1.360367,-30.84355,4.407318,0.6639619000000001,0.5348246,1.0,-0.07749939,0.1691895,0.9825287,31.70155,2.08812,-28.78827,4.628754,0.5472912,0.4853449000000001,-0.2100412,0.9620692,-0.08661531,0.02799392,0.6698026999999999,-0.01387392,2.387666,5.731174,27.51
2,-0.1031493999999999,0.1490936,0.9834136999999998,1.0,-0.10672,0.1462707999999999,0.9834595,-36.03331,1.360367,-30.84355,4.407318,0.6639619000000001,0.5348246,1.0,-0.07749939,0.1691895,0.9825287,31.70155,2.08812,-28.78827,4.628754,0.5472912,0.4853449000000001,-0.2100412,0.9620692,-0.08661531,0.02799392,0.6698026999999999,-0.01387392,2.387666,5.731174,27.51
2,-0.09255981,0.1608428999999999,0.9826202,1.0,-0.1326447,0.1417694,0.980957,-36.014109999999995,0.950882,-29.75606,4.483643,0.666189,0.5394435000000001,1.0,-0.08143616,0.1660614,0.9827423,31.67642,1.816849,-28.1595,4.75235,0.5484104000000001,0.4895498,-0.2097755,0.9621019,-0.08645707,0.02726633,0.6689196999999999,-0.01277706,2.387666,5.731174,27.51
2,-0.09255981,0.1608428999999999,0.9826202,1.0,-0.1326447,0.1417694,0.980957,-36.014109999999995,0.950882,-29.75606,4.483643,0.666189,0.5394435000000001,1.0,-0.08143616,0.1660614,0.9827423,31.67642,1.816849,-28.1595,4.75235,0.5484104000000001,0.4895498,-0.2097755,0.9621019,-0.08645707,0.02726633,0.6689196999999999,-0.01277706,2.387666,5.731174,27.51
2,-0.09255981,0.1608428999999999,0.9826202,1.0,-0.1326447,0.1417694,0.980957,-36.014109999999995,0.950882,-29.75606,4.483643,0.666189,0.5394435000000001,1.0,-0.08143616,0.1660614,0.9827423,31.67642,1.816849,-28.1595,4.75235,0.5484104000000001,0.4895498,-0.2097755,0.9621019,-0.08645707,0.02726633,0.6689196999999999,-0.01277706,2.387666,5.731174,27.51
2,-0.117218,0.1256561,0.9851227,1.0,-0.1185913,0.1247406,0.9850616,-36.00995,1.281448,-30.7041,4.479858,0.6649997,0.5400148,1.0,-0.07972717,0.1507262999999999,0.9853516,31.67714,1.861923,-28.19441,4.833176,0.5480728,0.4909757,-0.2092754,0.9624078,-0.08630545,0.02509785,0.6682475999999999,-0.01130453,2.387666,5.731174,27.51
2,-0.117218,0.1256561,0.9851227,1.0,-0.1185913,0.1247406,0.9850616,-36.00995,1.281448,-30.7041,4.479858,0.6649997,0.5400148,1.0,-0.07972717,0.1507262999999999,0.9853516,31.67714,1.861923,-28.19441,4.833176,0.5480728,0.4909757,-0.2092754,0.9624078,-0.08630545,0.02509785,0.6682475999999999,-0.01130453,2.387666,5.731174,27.51
2,-0.117218,0.1256561,0.9851227,1.0,-0.1185913,0.1247406,0.9850616,-36.00995,1.281448,-30.7041,4.479858,0.6649997,0.5400148,1.0,-0.07972717,0.1507262999999999,0.9853516,31.67714,1.861923,-28.19441,4.833176,0.5480728,0.4909757,-0.2092754,0.9624078,-0.08630545,0.02509785,0.6682475999999999,-0.01130453,2.387666,5.731174,27.51
2,-0.1009521,0.139328,0.9850769,1.0,-0.1251068,0.1217499,0.9846344,-36.04457,1.243225,-30.78288,4.56691,0.667523,0.5427138000000001,1.0,-0.07489014,0.1580811,0.9845734,31.644820000000003,1.802902,-28.11771,4.822296,0.5483191999999999,0.4910272,-0.208842,0.9629369,-0.08628559,0.02252892,0.6684679,-0.00875913,2.374854,6.581306,27.51
2,-0.1009521,0.139328,0.9850769,1.0,-0.1251068,0.1217499,0.9846344,-36.04457,1.243225,-30.78288,4.56691,0.667523,0.5427138000000001,1.0,-0.07489014,0.1580811,0.9845734,31.644820000000003,1.802902,-28.11771,4.822296,0.5483191999999999,0.4910272,-0.208842,0.9629369,-0.08628559,0.02252892,0.6684679,-0.00875913,2.374854,6.581306,27.51
2,-0.1009521,0.139328,0.9850769,1.0,-0.1251068,0.1217499,0.9846344,-36.04457,1.243225,-30.78288,4.56691,0.667523,0.5427138000000001,1.0,-0.07489014,0.1580811,0.9845734,31.644820000000003,1.802902,-28.11771,4.822296,0.5483191999999999,0.4910272,-0.208842,0.9629369,-0.08628559,0.02252892,0.6684679,-0.00875913,2.374854,6.581306,27.51
2,-0.09561157,0.1379547,0.9858093,1.0,-0.1315765,0.1115112,0.9850006,-36.05045,1.326828,-30.93797,4.579285,0.6691186,0.5431225000000001,1.0,-0.07341003,0.1540985,0.985321,31.62796,1.800171,-28.08052,4.834625,0.5486124,0.4914574,-0.2077867,0.9651646,-0.08680302,0.01321661,0.6697598000000001,0.006314116,2.374854,6.581306,27.51
2,-0.09561157,0.1379547,0.9858093,1.0,-0.1315765,0.1115112,0.9850006,-36.05045,1.326828,-30.93797,4.579285,0.6691186,0.5431225000000001,1.0,-0.07341003,0.1540985,0.985321,31.62796,1.800171,-28.08052,4.834625,0.5486124,0.4914574,-0.2077867,0.9651646,-0.08680302,0.01321661,0.6697598000000001,0.006314116,2.374854,6.581306,27.51
2,-0.09561157,0.1379547,0.9858093,1.0,-0.1315765,0.1115112,0.9850006,-36.05045,1.326828,-30.93797,4.579285,0.6691186,0.5431225000000001,1.0,-0.07341003,0.1540985,0.985321,31.62796,1.800171,-28.08052,4.834625,0.5486124,0.4914574,-0.2077867,0.9651646,-0.08680302,0.01321661,0.6697598000000001,0.006314116,2.374854,6.581306,27.51
2,-0.08197021,0.1374207,0.9871063,1.0,-0.1211242999999999,0.1027068999999999,0.9873046999999998,-36.06081,1.418411,-31.06844,4.503021,0.6678272,0.5425979000000001,1.0,-0.0760498,0.1426239,0.9868469,31.61501,1.788574,-28.021290000000004,4.825607,0.5494465000000001,0.4932319999999999,-0.2077867,0.9651646,-0.08680302,0.01321661,0.6697598000000001,0.006314116,2.374854,6.581306,27.51
2,-0.08197021,0.1374207,0.9871063,1.0,-0.1211242999999999,0.1027068999999999,0.9873046999999998,-36.06081,1.418411,-31.06844,4.503021,0.6678272,0.5425979000000001,1.0,-0.0760498,0.1426239,0.9868469,31.61501,1.788574,-28.021290000000004,4.825607,0.5494465000000001,0.4932319999999999,-0.2077867,0.9651646,-0.08680302,0.01321661,0.6697598000000001,0.006314116,2.374854,6.581306,27.51
2,-0.08197021,0.1374207,0.9871063,1.0,-0.1211242999999999,0.1027068999999999,0.9873046999999998,-36.06081,1.418411,-31.06844,4.503021,0.6678272,0.5425979000000001,1.0,-0.0760498,0.1426239,0.9868469,31.61501,1.788574,-28.021290000000004,4.825607,0.5494465000000001,0.4932319999999999,-0.2077867,0.9651646,-0.08680302,0.01321661,0.6697598000000001,0.006314116,2.374854,6.581306,27.51
2,-0.08197021,0.1374207,0.9871063,1.0,-0.1211242999999999,0.1027068999999999,0.9873046999999998,-36.06081,1.418411,-31.06844,4.503021,0.6678272,0.5425979000000001,1.0,-0.0760498,0.1426239,0.9868469,31.61501,1.788574,-28.021290000000004,4.825607,0.5494465000000001,0.4932319999999999,-0.2071752,0.9708024,-0.08902,-0.01007006,0.6734496,0.03489519,2.374854,6.581306,27.49
2,-0.08197021,0.1374207,0.9871063,1.0,-0.1211242999999999,0.1027068999999999,0.9873046999999998,-36.06081,1.418411,-31.06844,4.503021,0.6678272,0.5425979000000001,1.0,-0.0760498,0.1426239,0.9868469,31.61501,1.788574,-28.021290000000004,4.825607,0.5494465000000001,0.4932319999999999,-0.2071752,0.9708024,-0.08902,-0.01007006,0.6734496,0.03489519,2.374854,6.581306,27.49
2,-0.08197021,0.1374207,0.9871063,1.0,-0.1211242999999999,0.1027068999999999,0.9873046999999998,-36.06081,1.418411,-31.06844,4.503021,0.6678272,0.5425979000000001,1.0,-0.0760498,0.1426239,0.9868469,31.61501,1.788574,-28.021290000000004,4.825607,0.5494465000000001,0.4932319999999999,-0.2071752,0.9708024,-0.08902,-0.01007006,0.6734496,0.03489519,2.374854,6.581306,27.49
3,-0.07215881,0.05906677,0.995636,1.0,-0.09992981,0.03833008,0.9942474,-36.14427,0.3833618,-29.89,4.543426999999999,0.6652063,0.5776262,1.0,-0.07214355,0.05908203,0.995636,31.42258,1.25264,-27.9178,4.762955000000001,0.5550576999999999,0.5244263000000001,-0.2074478,0.9742421999999998,-0.09045801,-0.02384546,0.6754353,0.0504423,2.374854,2.13134,27.49
3,-0.07215881,0.05906677,0.995636,1.0,-0.09992981,0.03833008,0.9942474,-36.14427,0.3833618,-29.89,4.543426999999999,0.6652063,0.5776262,1.0,-0.07214355,0.05908203,0.995636,31.42258,1.25264,-27.9178,4.762955000000001,0.5550576999999999,0.5244263000000001,-0.2074478,0.9742421999999998,-0.09045801,-0.02384546,0.6754353,0.0504423,2.374854,2.13134,27.49
3,-0.07215881,0.05906677,0.995636,1.0,-0.09992981,0.03833008,0.9942474,-36.14427,0.3833618,-29.89,4.543426999999999,0.6652063,0.5776262,1.0,-0.07214355,0.05908203,0.995636,31.42258,1.25264,-27.9178,4.762955000000001,0.5550576999999999,0.5244263000000001,-0.2074478,0.9742421999999998,-0.09045801,-0.02384546,0.6754353,0.0504423,2.374854,2.13134,27.49
3,-0.07046509,0.02656555,0.9971466,1.0,-0.1173096,-0.008758545,0.993042,-36.14122,-0.04774475,-29.82129,4.50354,0.6681026,0.599895,1.0,-0.05924988,0.0349884,0.9976196,31.43738,1.174713,-28.63774,4.834594999999999,0.5527386999999999,0.5379871,-0.2083225,0.9772155,-0.09202676,-0.03721828,0.6769179,0.06338315,2.374854,2.13134,27.49
3,-0.07046509,0.02656555,0.9971466,1.0,-0.1173096,-0.008758545,0.993042,-36.14122,-0.04774475,-29.82129,4.50354,0.6681026,0.599895,1.0,-0.05924988,0.0349884,0.9976196,31.43738,1.174713,-28.63774,4.834594999999999,0.5527386999999999,0.5379871,-0.2083225,0.9772155,-0.09202676,-0.03721828,0.6769179,0.06338315,2.374854,2.13134,27.49
3,-0.07046509,0.02656555,0.9971466,1.0,-0.1173096,-0.008758545,0.993042,-36.14122,-0.04774475,-29.82129,4.50354,0.6681026,0.599895,1.0,-0.05924988,0.0349884,0.9976196,31.43738,1.174713,-28.63774,4.834594999999999,0.5527386999999999,0.5379871,-0.2083225,0.9772155,-0.09202676,-0.03721828,0.6769179,0.06338315,2.374854,2.13134,27.49
3,-1.0,-1.0,-1.0,0.7362131,0.0,0.0,0.0,-36.05013,-0.2575836,-30.31113,-1.0,0.6388696,0.6402890999999999,0.1783313999999999,0.0,0.0,0.0,31.52406,1.083557,-29.37718,-1.0,0.5519847,0.5815372,-0.2096285,0.9791295,-0.09383479,-0.04608607,0.6785895000000001,0.070834,2.374854,2.13134,27.49
3,-1.0,-1.0,-1.0,0.7362131,0.0,0.0,0.0,-36.05013,-0.2575836,-30.31113,-1.0,0.6388696,0.6402890999999999,0.1783313999999999,0.0,0.0,0.0,31.52406,1.083557,-29.37718,-1.0,0.5519847,0.5815372,-0.2096285,0.9791295,-0.09383479,-0.04608607,0.6785895000000001,0.070834,2.374854,2.13134,27.49
3,-1.0,-1.0,-1.0,0.7362131,0.0,0.0,0.0,-36.05013,-0.2575836,-30.31113,-1.0,0.6388696,0.6402890999999999,0.1783313999999999,0.0,0.0,0.0,31.52406,1.083557,-29.37718,-1.0,0.5519847,0.5815372,-0.2096285,0.9791295,-0.09383479,-0.04608607,0.6785895000000001,0.070834,2.374854,2.13134,27.49
3,-1.0,-1.0,-1.0,0.0,0.0,0.0,0.0,-35.08902,-1.357513,-30.73195,-1.0,-1.0,-1.0,0.0,0.0,0.0,0.0,31.52406,1.083557,-29.37718,-1.0,0.6081715999999999,0.6865519,-0.2111547999999999,0.9795769,-0.09563805,-0.05032644,0.6806055999999999,0.0734766,2.374854,2.13134,27.49
3,-1.0,-1.0,-1.0,0.0,0.0,0.0,0.0,-35.08902,-1.357513,-30.73195,-1.0,-1.0,-1.0,0.0,0.0,0.0,0.0,31.52406,1.083557,-29.37718,-1.0,0.6081715999999999,0.6865519,-0.2111547999999999,0.9795769,-0.09563805,-0.05032644,0.6806055999999999,0.0734766,2.374854,2.13134,27.49
3,-1.0,-1.0,-1.0,0.0,0.0,0.0,0.0,-35.08902,-1.357513,-30.73195,-1.0,-1.0,-1.0,0.0,0.0,0.0,0.0,31.52406,1.083557,-29.37718,-1.0,0.6081715999999999,0.6865519,-0.2111547999999999,0.9795769,-0.09563805,-0.05032644,0.6806055999999999,0.0734766,2.374854,2.13134,27.49
3,-1.0,-1.0,-1.0,0.0,0.0,0.0,0.0,-36.27603,-0.8237915000000001,-30.606,-1.0,0.6784924,0.6741158,0.0,0.0,0.0,0.0,31.52406,1.083557,-29.37718,-1.0,0.599759,0.6592445,-0.2126925999999999,0.9796411,-0.09742111,-0.05364411,0.6827548000000001,0.0757833,2.374854,2.13134,27.49
3,-1.0,-1.0,-1.0,0.0,0.0,0.0,0.0,-36.27603,-0.8237915000000001,-30.606,-1.0,0.6784924,0.6741158,0.0,0.0,0.0,0.0,31.52406,1.083557,-29.37718,-1.0,0.599759,0.6592445,-0.2126925999999999,0.9796411,-0.09742111,-0.05364411,0.6827548000000001,0.0757833,2.374854,2.13134,27.49
3,-1.0,-1.0,-1.0,0.0,0.0,0.0,0.0,-36.27603,-0.8237915000000001,-30.606,-1.0,0.6784924,0.6741158,0.0,0.0,0.0,0.0,31.52406,1.083557,-29.37718,-1.0,0.599759,0.6592445,-0.2126925999999999,0.9796411,-0.09742111,-0.05364411,0.6827548000000001,0.0757833,2.374854,2.13134,27.49
3,-1.0,-1.0,-1.0,0.4058477,0.0,0.0,0.0,-36.37221,-0.6517639000000001,-30.53426,-1.0,0.6755629,0.6346205,0.0,0.0,0.0,0.0,31.13771,0.4064331,-28.53717,-1.0,0.5683773,0.5698916,-0.2142438,0.9790798,-0.09928483,-0.05346645,0.6851081,0.07616273,2.374854,2.385458,27.49
3,-1.0,-1.0,-1.0,0.4058477,0.0,0.0,0.0,-36.37221,-0.6517639000000001,-30.53426,-1.0,0.6755629,0.6346205,0.0,0.0,0.0,0.0,31.13771,0.4064331,-28.53717,-1.0,0.5683773,0.5698916,-0.2142438,0.9790798,-0.09928483,-0.05346645,0.6851081,0.07616273,2.374854,2.385458,27.49
3,-1.0,-1.0,-1.0,0.4058477,0.0,0.0,0.0,-36.37221,-0.6517639000000001,-30.53426,-1.0,0.6755629,0.6346205,0.0,0.0,0.0,0.0,31.13771,0.4064331,-28.53717,-1.0,0.5683773,0.5698916,-0.2142438,0.9790798,-0.09928483,-0.05346645,0.6851081,0.07616273,2.374854,2.385458,27.49
3,-0.1454926,-0.019104,0.9891663,1.0,-0.1454926,-0.019104,0.9891663,-36.34868,-0.6725922,-30.51912,4.249054,0.682024,0.6304411,1.0,-0.09434509,0.0289917,0.9951019,31.17406,0.4884795999999999,-28.95389,4.431183,0.5679755,0.5653746999999999,-0.216278,0.9776983,-0.1012687999999999,-0.05138932,0.6887647,0.0734089,2.374854,2.385458,27.49
3,-0.1454926,-0.019104,0.9891663,1.0,-0.1454926,-0.019104,0.9891663,-36.34868,-0.6725922,-30.51912,4.249054,0.682024,0.6304411,1.0,-0.09434509,0.0289917,0.9951019,31.17406,0.4884795999999999,-28.95389,4.431183,0.5679755,0.5653746999999999,-0.216278,0.9776983,-0.1012687999999999,-0.05138932,0.6887647,0.0734089,2.374854,2.385458,27.49
3,-0.1454926,-0.019104,0.9891663,1.0,-0.1454926,-0.019104,0.9891663,-36.34868,-0.6725922,-30.51912,4.249054,0.682024,0.6304411,1.0,-0.09434509,0.0289917,0.9951019,31.17406,0.4884795999999999,-28.95389,4.431183,0.5679755,0.5653746999999999,-0.216278,0.9776983,-0.1012687999999999,-0.05138932,0.6887647,0.0734089,2.374854,2.385458,27.49
3,-0.1178131,-0.01806641,0.9928589,1.0,-0.128418,-0.02452087,0.9914093,-36.28868,-0.6429901,-29.80283,3.92572,0.6754025,0.6224864,1.0,-0.08668518,0.0008239746,0.9962311,31.229840000000003,0.5279235999999999,-28.37921,4.349411,0.5643060000000001,0.5631378,-0.2186515,0.9766352,-0.1030212,-0.05020181,0.692106,0.07179236,2.374854,2.385458,27.49
3,-0.1178131,-0.01806641,0.9928589,1.0,-0.128418,-0.02452087,0.9914093,-36.28868,-0.6429901,-29.80283,3.92572,0.6754025,0.6224864,1.0,-0.08668518,0.0008239746,0.9962311,31.229840000000003,0.5279235999999999,-28.37921,4.349411,0.5643060000000001,0.5631378,-0.2186515,0.9766352,-0.1030212,-0.05020181,0.692106,0.07179236,2.374854,2.385458,27.49
3,-0.1178131,-0.01806641,0.9928589,1.0,-0.128418,-0.02452087,0.9914093,-36.28868,-0.6429901,-29.80283,3.92572,0.6754025,0.6224864,1.0,-0.08668518,0.0008239746,0.9962311,31.229840000000003,0.5279235999999999,-28.37921,4.349411,0.5643060000000001,0.5631378,-0.2186515,0.9766352,-0.1030212,-0.05020181,0.692106,0.07179236,2.374854,2.385458,27.49
3,-0.0644989,-0.0082244869999999,0.997879,1.0,-0.09687805,-0.0047760009999999,0.9952698,-36.21593,-0.4552155,-29.5558,3.672913,0.666647,0.6096018,1.0,-0.06349182,-0.00831604,0.9979401,31.33684,0.7867126,-28.32957,4.084763,0.5566854,0.5550579999999999,-0.2214237999999999,0.9754509,-0.1047757,-0.04912743,0.6952552,0.07000778,2.374854,2.385458,27.49
3,-0.0644989,-0.0082244869999999,0.997879,1.0,-0.09687805,-0.0047760009999999,0.9952698,-36.21593,-0.4552155,-29.5558,3.672913,0.666647,0.6096018,1.0,-0.06349182,-0.00831604,0.9979401,31.33684,0.7867126,-28.32957,4.084763,0.5566854,0.5550579999999999,-0.2214237999999999,0.9754509,-0.1047757,-0.04912743,0.6952552,0.07000778,2.374854,2.385458,27.49
3,-0.0644989,-0.0082244869999999,0.997879,1.0,-0.09687805,-0.0047760009999999,0.9952698,-36.21593,-0.4552155,-29.5558,3.672913,0.666647,0.6096018,1.0,-0.06349182,-0.00831604,0.9979401,31.33684,0.7867126,-28.32957,4.084763,0.5566854,0.5550579999999999,-0.2214237999999999,0.9754509,-0.1047757,-0.04912743,0.6952552,0.07000778,2.374854,2.385458,27.49
3,-0.1002045,-0.02668762,0.9945984,1.0,-0.1075438999999999,-0.03102112,0.9937134,-36.07188,-0.2310791,-29.227490000000003,3.86705,0.6629366,0.6034199,1.0,-0.07162476,-0.00982666,0.9973755,31.45573,0.8895264,-28.08238,4.136794999999999,0.5538486,0.5494806999999999,-0.2248295,0.9745342,-0.1064073999999999,-0.04863679,0.6983121,0.06903435,2.374854,2.385458,27.49
3,-0.1002045,-0.02668762,0.9945984,1.0,-0.1075438999999999,-0.03102112,0.9937134,-36.07188,-0.2310791,-29.227490000000003,3.86705,0.6629366,0.6034199,1.0,-0.07162476,-0.00982666,0.9973755,31.45573,0.8895264,-28.08238,4.136794999999999,0.5538486,0.5494806999999999,-0.2248295,0.9745342,-0.1064073999999999,-0.04863679,0.6983121,0.06903435,2.374854,2.385458,27.49
3,-0.1002045,-0.02668762,0.9945984,1.0,-0.1075438999999999,-0.03102112,0.9937134,-36.07188,-0.2310791,-29.227490000000003,3.86705,0.6629366,0.6034199,1.0,-0.07162476,-0.00982666,0.9973755,31.45573,0.8895264,-28.08238,4.136794999999999,0.5538486,0.5494806999999999,-0.2248295,0.9745342,-0.1064073999999999,-0.04863679,0.6983121,0.06903435,2.374854,2.385458,27.49
3,-0.1020508,-0.01293945,0.9946899,1.0,-0.1048279,-0.01347351,0.9943848,-36.05981,-0.0834198,-29.66829,3.867279,0.6626919,0.5997195,1.0,-0.0717926,-0.00718689,0.9973907,31.479540000000004,0.9209136999999998,-28.0374,4.068146,0.5530513000000001,0.5474730999999999,-0.2336349999999999,0.9734852,-0.1091898999999999,-0.04884674,0.7026792,0.06811874,2.374854,-10.2768,27.49
3,-0.1020508,-0.01293945,0.9946899,1.0,-0.1048279,-0.01347351,0.9943848,-36.05981,-0.0834198,-29.66829,3.867279,0.6626919,0.5997195,1.0,-0.0717926,-0.00718689,0.9973907,31.479540000000004,0.9209136999999998,-28.0374,4.068146,0.5530513000000001,0.5474730999999999,-0.2336349999999999,0.9734852,-0.1091898999999999,-0.04884674,0.7026792,0.06811874,2.374854,-10.2768,27.49
3,-0.1020508,-0.01293945,0.9946899,1.0,-0.1048279,-0.01347351,0.9943848,-36.05981,-0.0834198,-29.66829,3.867279,0.6626919,0.5997195,1.0,-0.0717926,-0.00718689,0.9973907,31.479540000000004,0.9209136999999998,-28.0374,4.068146,0.5530513000000001,0.5474730999999999,-0.2336349999999999,0.9734852,-0.1091898999999999,-0.04884674,0.7026792,0.06811874,2.374854,-10.2768,27.49
3,-0.1020508,-0.01293945,0.9946899,1.0,-0.1048279,-0.01347351,0.9943848,-36.05981,-0.0834198,-29.66829,3.867279,0.6626919,0.5997195,1.0,-0.0717926,-0.00718689,0.9973907,31.479540000000004,0.9209136999999998,-28.0374,4.068146,0.5530513000000001,0.5474730999999999,-0.2336349999999999,0.9734852,-0.1091898999999999,-0.04884674,0.7026792,0.06811874,2.374854,-10.2768,27.49
3,-0.1020508,-0.01293945,0.9946899,1.0,-0.1048279,-0.01347351,0.9943848,-36.05981,-0.0834198,-29.66829,3.867279,0.6626919,0.5997195,1.0,-0.0717926,-0.00718689,0.9973907,31.479540000000004,0.9209136999999998,-28.0374,4.068146,0.5530513000000001,0.5474730999999999,-0.2336349999999999,0.9734852,-0.1091898999999999,-0.04884674,0.7026792,0.06811874,2.374854,-10.2768,27.49
3,-0.1020508,-0.01293945,0.9946899,1.0,-0.1048279,-0.01347351,0.9943848,-36.05981,-0.0834198,-29.66829,3.867279,0.6626919,0.5997195,1.0,-0.0717926,-0.00718689,0.9973907,31.479540000000004,0.9209136999999998,-28.0374,4.068146,0.5530513000000001,0.5474730999999999,-0.2336349999999999,0.9734852,-0.1091898999999999,-0.04884674,0.7026792,0.06811874,2.374854,-10.2768,27.49
3,-0.07885742,-0.01382446,0.9967804,1.0,-0.08111572,-0.01499939,0.996582,-35.86357,0.09934998,-29.63852,3.81665,0.6516858,0.5932449000000001,1.0,-0.04711914,0.002670288,0.9988708,31.66075,0.9021759,-27.66757,3.909088,0.5424699000000001,0.5426196999999999,-0.239159,0.9727042,-0.1102173,-0.04780997,0.7034734,0.06701238,2.374854,-10.2768,27.49
3,-0.07885742,-0.01382446,0.9967804,1.0,-0.08111572,-0.01499939,0.996582,-35.86357,0.09934998,-29.63852,3.81665,0.6516858,0.5932449000000001,1.0,-0.04711914,0.002670288,0.9988708,31.66075,0.9021759,-27.66757,3.909088,0.5424699000000001,0.5426196999999999,-0.239159,0.9727042,-0.1102173,-0.04780997,0.7034734,0.06701238,2.374854,-10.2768,27.49
3,-0.07885742,-0.01382446,0.9967804,1.0,-0.08111572,-0.01499939,0.996582,-35.86357,0.09934998,-29.63852,3.81665,0.6516858,0.5932449000000001,1.0,-0.04711914,0.002670288,0.9988708,31.66075,0.9021759,-27.66757,3.909088,0.5424699000000001,0.5426196999999999,-0.239159,0.9727042,-0.1102173,-0.04780997,0.7034734,0.06701238,2.374854,-10.2768,27.49
3,-0.06364441,0.001190186,0.9979706,1.0,-0.07611084,-0.01045227,0.9970398,-35.76428,0.2446442,-29.5425,3.776672,0.6471909,0.5864645,1.0,-0.05369568,0.01046753,0.9984894,31.78459,1.01564,-27.769790000000004,3.984787,0.5394338000000001,0.5384634,-0.2519065,0.9708213,-0.1119765,-0.04183505,0.7039772,0.06037707,2.374854,-10.2768,27.49
3,-0.06364441,0.001190186,0.9979706,1.0,-0.07611084,-0.01045227,0.9970398,-35.76428,0.2446442,-29.5425,3.776672,0.6471909,0.5864645,1.0,-0.05369568,0.01046753,0.9984894,31.78459,1.01564,-27.769790000000004,3.984787,0.5394338000000001,0.5384634,-0.2519065,0.9708213,-0.1119765,-0.04183505,0.7039772,0.06037707,2.374854,-10.2768,27.49
3,-0.06364441,0.001190186,0.9979706,1.0,-0.07611084,-0.01045227,0.9970398,-35.76428,0.2446442,-29.5425,3.776672,0.6471909,0.5864645,1.0,-0.05369568,0.01046753,0.9984894,31.78459,1.01564,-27.769790000000004,3.984787,0.5394338000000001,0.5384634,-0.2519065,0.9708213,-0.1119765,-0.04183505,0.7039772,0.06037707,2.374854,-10.2768,27.49
3,-0.0728302,0.01301575,0.9972534,1.0,-0.08325195,0.006546021,0.9965057,-35.720890000000004,0.5431366,-29.81987,3.950699,0.647323,0.5762538,1.0,-0.05474854,0.0242157,0.9981995,31.89885,1.417419,-28.61067,4.037949,0.536177,0.5304244,-0.2596909,0.9693051,-0.1127918999999999,-0.03612106,0.7038380999999999,0.05322028,2.374854,-10.2768,27.49
3,-0.0728302,0.01301575,0.9972534,1.0,-0.08325195,0.006546021,0.9965057,-35.720890000000004,0.5431366,-29.81987,3.950699,0.647323,0.5762538,1.0,-0.05474854,0.0242157,0.9981995,31.89885,1.417419,-28.61067,4.037949,0.536177,0.5304244,-0.2596909,0.9693051,-0.1127918999999999,-0.03612106,0.7038380999999999,0.05322028,2.374854,-10.2768,27.49
3,-0.0728302,0.01301575,0.9972534,1.0,-0.08325195,0.006546021,0.9965057,-35.720890000000004,0.5431366,-29.81987,3.950699,0.647323,0.5762538,1.0,-0.05474854,0.0242157,0.9981995,31.89885,1.417419,-28.61067,4.037949,0.536177,0.5304244,-0.2596909,0.9693051,-0.1127918999999999,-0.03612106,0.7038380999999999,0.05322028,2.374854,-10.2768,27.49
3,-1.0,-1.0,-1.0,0.0,0.0,0.0,0.0,-34.97444,-0.3105011,-29.95447,-1.0,-1.0,-1.0,0.0,0.0,0.0,0.0,32.0311,0.4298706,-28.40469,-1.0,-1.0,-1.0,-0.2596909,0.9693051,-0.1127918999999999,-0.03612106,0.7038380999999999,0.05322028,2.374854,-3.895041,27.49
3,-1.0,-1.0,-1.0,0.0,0.0,0.0,0.0,-34.97444,-0.3105011,-29.95447,-1.0,-1.0,-1.0,0.0,0.0,0.0,0.0,32.0311,0.4298706,-28.40469,-1.0,-1.0,-1.0,-0.2596909,0.9693051,-0.1127918999999999,-0.03612106,0.7038380999999999,0.05322028,2.374854,-3.895041,27.49
3,-1.0,-1.0,-1.0,0.0,0.0,0.0,0.0,-34.97444,-0.3105011,-29.95447,-1.0,-1.0,-1.0,0.0,0.0,0.0,0.0,32.0311,0.4298706,-28.40469,-1.0,-1.0,-1.0,-0.2596909,0.9693051,-0.1127918999999999,-0.03612106,0.7038380999999999,0.05322028,2.374854,-3.895041,27.49
3,-1.0,-1.0,-1.0,0.0,0.0,0.0,0.0,-34.97444,-0.3105011,-29.95447,-1.0,-1.0,-1.0,0.0,0.0,0.0,0.0,32.0311,0.4298706,-28.40469,-1.0,-1.0,-1.0,-0.277533,0.9660283000000002,-0.1141734999999999,-0.02305869,0.7037148,0.03520623,2.374854,-3.895041,27.49
3,-1.0,-1.0,-1.0,0.0,0.0,0.0,0.0,-34.97444,-0.3105011,-29.95447,-1.0,-1.0,-1.0,0.0,0.0,0.0,0.0,32.0311,0.4298706,-28.40469,-1.0,-1.0,-1.0,-0.277533,0.9660283000000002,-0.1141734999999999,-0.02305869,0.7037148,0.03520623,2.374854,-3.895041,27.49
3,-1.0,-1.0,-1.0,0.0,0.0,0.0,0.0,-34.97444,-0.3105011,-29.95447,-1.0,-1.0,-1.0,0.0,0.0,0.0,0.0,32.0311,0.4298706,-28.40469,-1.0,-1.0,-1.0,-0.277533,0.9660283000000002,-0.1141734999999999,-0.02305869,0.7037148,0.03520623,2.374854,-3.895041,27.49
3,-1.0,-1.0,-1.0,0.0,0.0,0.0,0.0,-34.97444,-0.3105011,-29.95447,-1.0,-1.0,-1.0,0.0,0.0,0.0,0.0,32.0311,0.4298706,-28.40469,-1.0,-1.0,-1.0,-0.287734,0.9650555,-0.1146681,-0.01863422,0.7033284000000001,0.02953181,2.374854,-3.895041,27.49
3,-1.0,-1.0,-1.0,0.0,0.0,0.0,0.0,-34.97444,-0.3105011,-29.95447,-1.0,-1.0,-1.0,0.0,0.0,0.0,0.0,32.0311,0.4298706,-28.40469,-1.0,-1.0,-1.0,-0.287734,0.9650555,-0.1146681,-0.01863422,0.7033284000000001,0.02953181,2.374854,-3.895041,27.49
3,-1.0,-1.0,-1.0,0.0,0.0,0.0,0.0,-34.97444,-0.3105011,-29.95447,-1.0,-1.0,-1.0,0.0,0.0,0.0,0.0,32.0311,0.4298706,-28.40469,-1.0,-1.0,-1.0,-0.287734,0.9650555,-0.1146681,-0.01863422,0.7033284000000001,0.02953181,2.374854,-3.895041,27.49
3,-1.0,-1.0,-1.0,0.0,0.0,0.0,0.0,-34.97444,-0.3105011,-29.95447,-1.0,-1.0,-1.0,0.0,0.0,0.0,0.0,32.0311,0.4298706,-28.40469,-1.0,0.5222698,0.7079858,-0.2990995999999999,0.9641779,-0.1150688,-0.01498708,0.7014825,0.02487855,2.374854,-3.895041,27.49
3,-1.0,-1.0,-1.0,0.0,0.0,0.0,0.0,-34.97444,-0.3105011,-29.95447,-1.0,-1.0,-1.0,0.0,0.0,0.0,0.0,32.0311,0.4298706,-28.40469,-1.0,0.5222698,0.7079858,-0.2990995999999999,0.9641779,-0.1150688,-0.01498708,0.7014825,0.02487855,2.374854,-3.895041,27.49
3,-1.0,-1.0,-1.0,0.0,0.0,0.0,0.0,-34.97444,-0.3105011,-29.95447,-1.0,-1.0,-1.0,0.0,0.0,0.0,0.0,32.0311,0.4298706,-28.40469,-1.0,0.5222698,0.7079858,-0.2990995999999999,0.9641779,-0.1150688,-0.01498708,0.7014825,0.02487855,2.374854,-3.895041,27.49
3,-1.0,-1.0,-1.0,0.0,0.0,0.0,0.0,-34.97444,-0.3105011,-29.95447,-1.0,-1.0,-1.0,0.0,0.0,0.0,0.0,32.0311,0.4298706,-28.40469,-1.0,0.5222698,0.7079858,-0.3109446,0.9638777,-0.1152854,-0.01568853,0.6997298000000001,0.02406071,2.374854,-3.895041,27.49
3,-1.0,-1.0,-1.0,0.0,0.0,0.0,0.0,-34.97444,-0.3105011,-29.95447,-1.0,-1.0,-1.0,0.0,0.0,0.0,0.0,32.0311,0.4298706,-28.40469,-1.0,0.5222698,0.7079858,-0.3109446,0.9638777,-0.1152854,-0.01568853,0.6997298000000001,0.02406071,2.374854,-3.644283,27.49
3,-1.0,-1.0,-1.0,0.0,0.0,0.0,0.0,-34.97444,-0.3105011,-29.95447,-1.0,-1.0,-1.0,0.0,0.0,0.0,0.0,32.0311,0.4298706,-28.40469,-1.0,0.5222698,0.7079858,-0.3109446,0.9638777,-0.1152854,-0.01568853,0.6997298000000001,0.02406071,2.374854,-3.644283,27.49
3,-1.0,-1.0,-1.0,0.0,0.0,0.0,0.0,-34.97444,-0.3105011,-29.95447,-1.0,-1.0,-1.0,0.0,0.0,0.0,0.0,32.0311,0.4298706,-28.40469,-1.0,0.5222698,0.7079858,-0.3363675,0.9650512,-0.1152284,-0.02074477,0.6958241999999999,0.02482923,2.374854,4.788017,27.49
3,-1.0,-1.0,-1.0,0.0,0.0,0.0,0.0,-34.97444,-0.3105011,-29.95447,-1.0,-1.0,-1.0,0.0,0.0,0.0,0.0,32.0311,0.4298706,-28.40469,-1.0,0.5222698,0.7079858,-0.3363675,0.9650512,-0.1152284,-0.02074477,0.6958241999999999,0.02482923,2.374854,4.788017,27.49
3,-1.0,-1.0,-1.0,0.0,0.0,0.0,0.0,-34.97444,-0.3105011,-29.95447,-1.0,-1.0,-1.0,0.0,0.0,0.0,0.0,32.0311,0.4298706,-28.40469,-1.0,0.5222698,0.7079858,-0.3363675,0.9650512,-0.1152284,-0.02074477,0.6958241999999999,0.02482923,2.374854,4.788017,27.49
3,-1.0,-1.0,-1.0,0.0,0.0,0.0,0.0,-34.97444,-0.3105011,-29.95447,-1.0,-1.0,-1.0,0.0,0.0,0.0,0.0,32.0311,0.4298706,-28.40469,-1.0,-1.0,-1.0,-0.3363675,0.9650512,-0.1152284,-0.02074477,0.6958241999999999,0.02482923,2.374854,4.788017,27.49
3,-1.0,-1.0,-1.0,0.0,0.0,0.0,0.0,-34.97444,-0.3105011,-29.95447,-1.0,-1.0,-1.0,0.0,0.0,0.0,0.0,32.0311,0.4298706,-28.40469,-1.0,-1.0,-1.0,-0.3363675,0.9650512,-0.1152284,-0.02074477,0.6958241999999999,0.02482923,2.374854,4.788017,27.49
3,-1.0,-1.0,-1.0,0.0,0.0,0.0,0.0,-34.97444,-0.3105011,-29.95447,-1.0,-1.0,-1.0,0.0,0.0,0.0,0.0,32.0311,0.4298706,-28.40469,-1.0,-1.0,-1.0,-0.3363675,0.9650512,-0.1152284,-0.02074477,0.6958241999999999,0.02482923,2.374854,4.788017,27.49
3,-1.0,-1.0,-1.0,0.0,0.0,0.0,0.0,-34.97444,-0.3105011,-29.95447,-1.0,0.6293865,0.5959933000000001,0.0,0.0,0.0,0.0,32.0311,0.4298706,-28.40469,-1.0,0.704229,0.5198759,-0.3493157,0.9654372,-0.1148308,-0.01924147,0.6924824,0.02861605,2.374854,4.788017,27.49
3,-1.0,-1.0,-1.0,0.0,0.0,0.0,0.0,-34.97444,-0.3105011,-29.95447,-1.0,0.6293865,0.5959933000000001,0.0,0.0,0.0,0.0,32.0311,0.4298706,-28.40469,-1.0,0.704229,0.5198759,-0.3493157,0.9654372,-0.1148308,-0.01924147,0.6924824,0.02861605,2.374854,4.788017,27.49
3,-1.0,-1.0,-1.0,0.0,0.0,0.0,0.0,-34.97444,-0.3105011,-29.95447,-1.0,0.6293865,0.5959933000000001,0.0,0.0,0.0,0.0,32.0311,0.4298706,-28.40469,-1.0,0.704229,0.5198759,-0.3493157,0.9654372,-0.1148308,-0.01924147,0.6924824,0.02861605,2.374854,4.788017,27.49
3,-1.0,-1.0,-1.0,0.0,0.0,0.0,0.0,-35.65012,1.459671,-31.19745,-1.0,0.641295,0.5453359,0.1916206,0.0,0.0,0.0,31.98007,2.311172,-29.65689,-1.0,0.5269924,0.493101,-0.3623068,0.9664055,-0.1144938,-0.01833261,0.689685,0.03345701,2.374854,4.788017,27.49
3,-1.0,-1.0,-1.0,0.0,0.0,0.0,0.0,-35.65012,1.459671,-31.19745,-1.0,0.641295,0.5453359,0.1916206,0.0,0.0,0.0,31.98007,2.311172,-29.65689,-1.0,0.5269924,0.493101,-0.3623068,0.9664055,-0.1144938,-0.01833261,0.689685,0.03345701,2.374854,4.788017,27.49
3,-1.0,-1.0,-1.0,0.0,0.0,0.0,0.0,-35.65012,1.459671,-31.19745,-1.0,0.641295,0.5453359,0.1916206,0.0,0.0,0.0,31.98007,2.311172,-29.65689,-1.0,0.5269924,0.493101,-0.3623068,0.9664055,-0.1144938,-0.01833261,0.689685,0.03345701,2.374854,4.788017,27.49
3,-1.0,-1.0,-1.0,0.9930343,0.0,0.0,0.0,-35.81064,0.8823853000000002,-30.40428,-1.0,0.6515907,0.5548993,0.4789589,0.0,0.0,0.0,31.86935,1.616318,-28.62985,-1.0,0.5346149,0.5084626,-0.3870844,0.9679619,-0.1135113,-0.01981613,0.6868354999999999,0.03447222,2.374854,4.788017,27.49
3,-1.0,-1.0,-1.0,0.9930343,0.0,0.0,0.0,-35.81064,0.8823853000000002,-30.40428,-1.0,0.6515907,0.5548993,0.4789589,0.0,0.0,0.0,31.86935,1.616318,-28.62985,-1.0,0.5346149,0.5084626,-0.3870844,0.9679619,-0.1135113,-0.01981613,0.6868354999999999,0.03447222,2.374854,4.788017,27.49
3,-1.0,-1.0,-1.0,0.9930343,0.0,0.0,0.0,-35.81064,0.8823853000000002,-30.40428,-1.0,0.6515907,0.5548993,0.4789589,0.0,0.0,0.0,31.86935,1.616318,-28.62985,-1.0,0.5346149,0.5084626,-0.3870844,0.9679619,-0.1135113,-0.01981613,0.6868354999999999,0.03447222,2.374854,4.788017,27.49
3,-0.03387451,0.108078,0.9935608,0.9604093,-0.0690155,0.07788086,0.9945679,-35.83406,0.6540833,-29.92029,3.63092,0.6488176,0.5607941,0.5796229,-0.03387451,0.108078,0.9935608,31.83427,1.31044,-27.94971,3.756012,0.534634,0.5132082,-0.3870844,0.9679619,-0.1135113,-0.01981613,0.6868354999999999,0.03447222,2.374854,0.6315689,27.49
3,-0.03387451,0.108078,0.9935608,0.9604093,-0.0690155,0.07788086,0.9945679,-35.83406,0.6540833,-29.92029,3.63092,0.6488176,0.5607941,0.5796229,-0.03387451,0.108078,0.9935608,31.83427,1.31044,-27.94971,3.756012,0.534634,0.5132082,-0.3870844,0.9679619,-0.1135113,-0.01981613,0.6868354999999999,0.03447222,2.374854,0.6315689,27.49
3,-0.03387451,0.108078,0.9935608,0.9604093,-0.0690155,0.07788086,0.9945679,-35.83406,0.6540833,-29.92029,3.63092,0.6488176,0.5607941,0.5796229,-0.03387451,0.108078,0.9935608,31.83427,1.31044,-27.94971,3.756012,0.534634,0.5132082,-0.3870844,0.9679619,-0.1135113,-0.01981613,0.6868354999999999,0.03447222,2.374854,0.6315689,27.49
3,-0.07080078,0.09088135,0.9933319,0.9645577,-0.0770873999999999,0.08911133,0.9930267,-35.8792,0.5630646,-29.78462,3.70343,0.6515966,0.5607691,0.7027791999999999,-0.03497314,0.1009521,0.9942627,31.82391,1.294266,-28.00092,3.789642,0.535183,0.5154924,-0.3989567,0.9684656,-0.1127751999999999,-0.02001069,0.6844683000000001,0.03497772,2.374854,0.6315689,27.49
3,-0.07080078,0.09088135,0.9933319,0.9645577,-0.0770873999999999,0.08911133,0.9930267,-35.8792,0.5630646,-29.78462,3.70343,0.6515966,0.5607691,0.7027791999999999,-0.03497314,0.1009521,0.9942627,31.82391,1.294266,-28.00092,3.789642,0.535183,0.5154924,-0.3989567,0.9684656,-0.1127751999999999,-0.02001069,0.6844683000000001,0.03497772,2.374854,0.6315689,27.49
3,-0.07080078,0.09088135,0.9933319,0.9645577,-0.0770873999999999,0.08911133,0.9930267,-35.8792,0.5630646,-29.78462,3.70343,0.6515966,0.5607691,0.7027791999999999,-0.03497314,0.1009521,0.9942627,31.82391,1.294266,-28.00092,3.789642,0.535183,0.5154924,-0.3989567,0.9684656,-0.1127751999999999,-0.02001069,0.6844683000000001,0.03497772,2.374854,0.6315689,27.49
3,-0.04388428,0.1000061,0.9940033,0.9468111,-0.08174133,0.07693481,0.9936676,-35.90587,0.5712738,-29.620240000000003,3.668015,0.6530712,0.5609772,0.7096739000000001,-0.04014587,0.1022797,0.9939423,31.80437,1.287979,-27.94676,3.893417,0.5367123,0.5150957,-0.4097417,0.9688141,-0.1120258,-0.02123953,0.6817704000000001,0.03865834,2.374854,0.6315689,27.49
3,-0.04388428,0.1000061,0.9940033,0.9468111,-0.08174133,0.07693481,0.9936676,-35.90587,0.5712738,-29.620240000000003,3.668015,0.6530712,0.5609772,0.7096739000000001,-0.04014587,0.1022797,0.9939423,31.80437,1.287979,-27.94676,3.893417,0.5367123,0.5150957,-0.4097417,0.9688141,-0.1120258,-0.02123953,0.6817704000000001,0.03865834,2.374854,0.6315689,27.49
3,-0.04388428,0.1000061,0.9940033,0.9468111,-0.08174133,0.07693481,0.9936676,-35.90587,0.5712738,-29.620240000000003,3.668015,0.6530712,0.5609772,0.7096739000000001,-0.04014587,0.1022797,0.9939423,31.80437,1.287979,-27.94676,3.893417,0.5367123,0.5150957,-0.4097417,0.9688141,-0.1120258,-0.02123953,0.6817704000000001,0.03865834,2.374854,0.6315689,27.49
3,-0.05201721,0.08296204,0.9951782,0.9934763,-0.07670593,0.07292175,0.9943695,-36.02306,0.6343079,-29.63744,3.698929,0.6562538,0.5597165,0.7536291,-0.04696655,0.08500671,0.9952698,31.67622,1.311417,-27.85812,3.902191,0.542197,0.5164741,-0.4200706,0.9690199,-0.1119471,-0.02269564,0.6793986,0.04361495,2.374854,0.6315689,27.49
3,-0.05201721,0.08296204,0.9951782,0.9934763,-0.07670593,0.07292175,0.9943695,-36.02306,0.6343079,-29.63744,3.698929,0.6562538,0.5597165,0.7536291,-0.04696655,0.08500671,0.9952698,31.67622,1.311417,-27.85812,3.902191,0.542197,0.5164741,-0.4200706,0.9690199,-0.1119471,-0.02269564,0.6793986,0.04361495,2.374854,0.6315689,27.49
3,-0.05201721,0.08296204,0.9951782,0.9934763,-0.07670593,0.07292175,0.9943695,-36.02306,0.6343079,-29.63744,3.698929,0.6562538,0.5597165,0.7536291,-0.04696655,0.08500671,0.9952698,31.67622,1.311417,-27.85812,3.902191,0.542197,0.5164741,-0.4200706,0.9690199,-0.1119471,-0.02269564,0.6793986,0.04361495,2.374854,0.6315689,27.49
4,-0.05963135,0.08206177,0.9948273,0.9787726,-0.0760498,0.07281494,0.9944305,-36.07733,1.026566,-30.321590000000004,3.681503,0.6590666999999999,0.5529363,0.7506383000000001,-0.05963135,0.08206177,0.9948273,31.59663,1.499985,-27.72488,3.909256,0.5470417,0.5094225,-0.4293829,0.9697423,-0.1121405,-0.02944318,0.6776232,0.05009693,2.374854,0.6315689,27.49
4,-0.05963135,0.08206177,0.9948273,0.9787726,-0.0760498,0.07281494,0.9944305,-36.07733,1.026566,-30.321590000000004,3.681503,0.6590666999999999,0.5529363,0.7506383000000001,-0.05963135,0.08206177,0.9948273,31.59663,1.499985,-27.72488,3.909256,0.5470417,0.5094225,-0.4293829,0.9697423,-0.1121405,-0.02944318,0.6776232,0.05009693,2.374854,0.6315689,27.49
4,-0.05963135,0.08206177,0.9948273,0.9787726,-0.0760498,0.07281494,0.9944305,-36.07733,1.026566,-30.321590000000004,3.681503,0.6590666999999999,0.5529363,0.7506383000000001,-0.05963135,0.08206177,0.9948273,31.59663,1.499985,-27.72488,3.909256,0.5470417,0.5094225,-0.4293829,0.9697423,-0.1121405,-0.02944318,0.6776232,0.05009693,2.374854,0.6315689,27.49
4,-0.06483459,0.06465149,0.9957886,0.9631624,-0.09394836,0.04870605,0.9943695,-36.08302,0.9891815,-30.10149,3.714905,0.6620663,0.5563585999999999,0.7149385,-0.06459045,0.06478882,0.9958038,31.587770000000003,1.482956,-27.70551,4.017014,0.548139,0.512875,-0.4377037,0.9704469,-0.1125588999999999,-0.0391233,0.6757236,0.05718379,2.374854,-9.861006,27.49
4,-0.06483459,0.06465149,0.9957886,0.9631624,-0.09394836,0.04870605,0.9943695,-36.08302,0.9891815,-30.10149,3.714905,0.6620663,0.5563585999999999,0.7149385,-0.06459045,0.06478882,0.9958038,31.587770000000003,1.482956,-27.70551,4.017014,0.548139,0.512875,-0.4377037,0.9704469,-0.1125588999999999,-0.0391233,0.6757236,0.05718379,2.374854,-9.861006,27.49
4,-0.06483459,0.06465149,0.9957886,0.9631624,-0.09394836,0.04870605,0.9943695,-36.08302,0.9891815,-30.10149,3.714905,0.6620663,0.5563585999999999,0.7149385,-0.06459045,0.06478882,0.9958038,31.587770000000003,1.482956,-27.70551,4.017014,0.548139,0.512875,-0.4377037,0.9704469,-0.1125588999999999,-0.0391233,0.6757236,0.05718379,2.374854,-9.861006,27.49
4,-0.02114868,-0.08070374,0.9965057,0.8723333000000001,-0.05058289,-0.09463501,0.9942169,-35.50587,0.2167206,-29.72906,3.721359,0.6342437,0.603861,0.7440587,-0.007263184,-0.07409668,0.9972229,31.65668,0.9875183,-28.25601,3.933838,0.5360421999999999,0.5586107,-0.4513064,0.9694711,-0.1139247,-0.05205,0.6730593,0.06467429,2.374854,-9.861006,27.49
4,-0.02114868,-0.08070374,0.9965057,0.8723333000000001,-0.05058289,-0.09463501,0.9942169,-35.50587,0.2167206,-29.72906,3.721359,0.6342437,0.603861,0.7440587,-0.007263184,-0.07409668,0.9972229,31.65668,0.9875183,-28.25601,3.933838,0.5360421999999999,0.5586107,-0.4513064,0.9694711,-0.1139247,-0.05205,0.6730593,0.06467429,2.374854,-9.861006,27.49
4,-0.02114868,-0.08070374,0.9965057,0.8723333000000001,-0.05058289,-0.09463501,0.9942169,-35.50587,0.2167206,-29.72906,3.721359,0.6342437,0.603861,0.7440587,-0.007263184,-0.07409668,0.9972229,31.65668,0.9875183,-28.25601,3.933838,0.5360421999999999,0.5586107,-0.4513064,0.9694711,-0.1139247,-0.05205,0.6730593,0.06467429,2.374854,-9.861006,27.49
4,-0.02114868,-0.08070374,0.9965057,0.9451942,-0.05058289,-0.09463501,0.9942169,-35.50587,0.2167206,-29.72906,3.721359,0.6342437,0.603861,0.73395,-0.007263184,-0.07409668,0.9972229,31.65668,0.9875183,-28.25601,3.933838,0.5360421999999999,0.5586107,-0.4513064,0.9694711,-0.1139247,-0.05205,0.6730593,0.06467429,2.374854,-9.861006,27.49
4,-0.02114868,-0.08070374,0.9965057,0.9451942,-0.05058289,-0.09463501,0.9942169,-35.50587,0.2167206,-29.72906,3.721359,0.6342437,0.603861,0.73395,-0.007263184,-0.07409668,0.9972229,31.65668,0.9875183,-28.25601,3.933838,0.5360421999999999,0.5586107,-0.4513064,0.9694711,-0.1139247,-0.05205,0.6730593,0.06467429,2.374854,-9.861006,27.49
4,-0.02114868,-0.08070374,0.9965057,0.9451942,-0.05058289,-0.09463501,0.9942169,-35.50587,0.2167206,-29.72906,3.721359,0.6342437,0.603861,0.73395,-0.007263184,-0.07409668,0.9972229,31.65668,0.9875183,-28.25601,3.933838,0.5360421999999999,0.5586107,-0.4513064,0.9694711,-0.1139247,-0.05205,0.6730593,0.06467429,2.374854,-9.861006,27.49
4,-0.02114868,-0.08070374,0.9965057,0.9451942,-0.05058289,-0.09463501,0.9942169,-35.50587,0.2167206,-29.72906,3.721359,0.6342437,0.603861,0.73395,-0.007263184,-0.07409668,0.9972229,31.65668,0.9875183,-28.25601,3.933838,0.5360421999999999,0.5586107,-0.4565319,0.9685869,-0.1147252,-0.05623932,0.6726243000000001,0.06796982,2.374854,-9.861006,27.49
4,-0.02114868,-0.08070374,0.9965057,0.9451942,-0.05058289,-0.09463501,0.9942169,-35.50587,0.2167206,-29.72906,3.721359,0.6342437,0.603861,0.73395,-0.007263184,-0.07409668,0.9972229,31.65668,0.9875183,-28.25601,3.933838,0.5360421999999999,0.5586107,-0.4565319,0.9685869,-0.1147252,-0.05623932,0.6726243000000001,0.06796982,2.374854,-9.861006,27.49
4,-0.02114868,-0.08070374,0.9965057,0.9451942,-0.05058289,-0.09463501,0.9942169,-35.50587,0.2167206,-29.72906,3.721359,0.6342437,0.603861,0.73395,-0.007263184,-0.07409668,0.9972229,31.65668,0.9875183,-28.25601,3.933838,0.5360421999999999,0.5586107,-0.4565319,0.9685869,-0.1147252,-0.05623932,0.6726243000000001,0.06796982,2.374854,-9.861006,27.49
4,-0.02328491,-0.1320801,0.9909515,0.8622689,-0.04251099,-0.1427307,0.9888458,-35.65416,-0.1072845,-28.95963,3.77919,0.6370624,0.615741,0.6001704999999999,-0.02142334,-0.1310425,0.9911346,31.630540000000003,0.9302063,-28.424,3.913239,0.5393848000000001,0.5722761,-0.4607215999999999,0.9677472,-0.1155558,-0.05931792,0.6731550000000001,0.0704575,2.374854,-9.861006,27.49
4,-0.02328491,-0.1320801,0.9909515,0.8622689,-0.04251099,-0.1427307,0.9888458,-35.65416,-0.1072845,-28.95963,3.77919,0.6370624,0.615741,0.6001704999999999,-0.02142334,-0.1310425,0.9911346,31.630540000000003,0.9302063,-28.424,3.913239,0.5393848000000001,0.5722761,-0.4607215999999999,0.9677472,-0.1155558,-0.05931792,0.6731550000000001,0.0704575,2.374854,-9.861006,27.49
4,-0.02328491,-0.1320801,0.9909515,0.8622689,-0.04251099,-0.1427307,0.9888458,-35.65416,-0.1072845,-28.95963,3.77919,0.6370624,0.615741,0.6001704999999999,-0.02142334,-0.1310425,0.9911346,31.630540000000003,0.9302063,-28.424,3.913239,0.5393848000000001,0.5722761,-0.4607215999999999,0.9677472,-0.1155558,-0.05931792,0.6731550000000001,0.0704575,2.374854,-9.861006,27.49
4,-0.02328491,-0.1320801,0.9909515,0.8622689,-0.04251099,-0.1427307,0.9888458,-35.65416,-0.1072845,-28.95963,3.77919,0.6370624,0.615741,0.6001704999999999,-0.02142334,-0.1310425,0.9911346,31.630540000000003,0.9302063,-28.424,3.913239,0.5393848000000001,0.5722761,-0.4643483,0.966872,-0.116525,-0.0610548999999999,0.6742686,0.07211435,2.374854,-9.861006,27.49
4,-0.02328491,-0.1320801,0.9909515,0.8622689,-0.04251099,-0.1427307,0.9888458,-35.65416,-0.1072845,-28.95963,3.77919,0.6370624,0.615741,0.6001704999999999,-0.02142334,-0.1310425,0.9911346,31.630540000000003,0.9302063,-28.424,3.913239,0.5393848000000001,0.5722761,-0.4643483,0.966872,-0.116525,-0.0610548999999999,0.6742686,0.07211435,2.374854,-9.861006,27.49
4,-0.02328491,-0.1320801,0.9909515,0.8622689,-0.04251099,-0.1427307,0.9888458,-35.65416,-0.1072845,-28.95963,3.77919,0.6370624,0.615741,0.6001704999999999,-0.02142334,-0.1310425,0.9911346,31.630540000000003,0.9302063,-28.424,3.913239,0.5393848000000001,0.5722761,-0.4643483,0.966872,-0.116525,-0.0610548999999999,0.6742686,0.07211435,2.374854,-9.861006,27.49
4,-0.02804565,-0.1351166,0.9904175,0.8622689,-0.05198669,-0.1398621,0.9888,-35.63373,0.05447388,-29.47185,3.730118,0.6386148,0.6148901999999999,0.6001704999999999,-0.02238464,-0.1339874,0.9907226999999998,31.65189,0.9334259,-28.47705,3.966675,0.5388373000000001,0.5732379,-0.4672635,0.9663203,-0.1175811,-0.06194209,0.6763836999999999,0.07231729,2.374854,1.041765,27.49
4,-0.02804565,-0.1351166,0.9904175,0.8622689,-0.05198669,-0.1398621,0.9888,-35.63373,0.05447388,-29.47185,3.730118,0.6386148,0.6148901999999999,0.6001704999999999,-0.02238464,-0.1339874,0.9907226999999998,31.65189,0.9334259,-28.47705,3.966675,0.5388373000000001,0.5732379,-0.4672635,0.9663203,-0.1175811,-0.06194209,0.6763836999999999,0.07231729,2.374854,1.041765,27.49
4,-0.02804565,-0.1351166,0.9904175,0.8622689,-0.05198669,-0.1398621,0.9888,-35.63373,0.05447388,-29.47185,3.730118,0.6386148,0.6148901999999999,0.6001704999999999,-0.02238464,-0.1339874,0.9907226999999998,31.65189,0.9334259,-28.47705,3.966675,0.5388373000000001,0.5732379,-0.4672635,0.9663203,-0.1175811,-0.06194209,0.6763836999999999,0.07231729,2.374854,1.041765,27.49
4,-0.02804565,-0.1351166,0.9904175,0.8622689,-0.05198669,-0.1398621,0.9888,-35.63373,0.05447388,-29.47185,3.730118,0.6386148,0.6148901999999999,0.6001704999999999,-0.02238464,-0.1339874,0.9907226999999998,31.65189,0.9334259,-28.47705,3.966675,0.5388373000000001,0.5732379,-0.4694532999999999,0.9661897,-0.1187242999999999,-0.06256405,0.6788573,0.07282806,2.374854,1.041765,27.49
4,-0.02804565,-0.1351166,0.9904175,0.8622689,-0.05198669,-0.1398621,0.9888,-35.63373,0.05447388,-29.47185,3.730118,0.6386148,0.6148901999999999,0.6001704999999999,-0.02238464,-0.1339874,0.9907226999999998,31.65189,0.9334259,-28.47705,3.966675,0.5388373000000001,0.5732379,-0.4694532999999999,0.9661897,-0.1187242999999999,-0.06256405,0.6788573,0.07282806,2.374854,1.041765,27.49
4,-0.02804565,-0.1351166,0.9904175,0.8622689,-0.05198669,-0.1398621,0.9888,-35.63373,0.05447388,-29.47185,3.730118,0.6386148,0.6148901999999999,0.6001704999999999,-0.02238464,-0.1339874,0.9907226999999998,31.65189,0.9334259,-28.47705,3.966675,0.5388373000000001,0.5732379,-0.4694532999999999,0.9661897,-0.1187242999999999,-0.06256405,0.6788573,0.07282806,2.374854,1.041765,27.49
4,-0.0161438,-0.1747894,0.9844666,0.6387209,-0.03244019,-0.174057,0.9841919,-35.67041,0.03562927,-29.12057,3.802948,0.6361600000000001,0.618085,0.2652725999999999,-0.0136261,-0.1748962,0.9844818,31.818790000000003,0.8246764999999999,-27.89948,3.894699,0.5313129,0.5784708000000001,-0.4712237,0.966468,-0.1199818,-0.06317743,0.6813275,0.07319503,2.374854,1.041765,27.49
4,-0.0161438,-0.1747894,0.9844666,0.6387209,-0.03244019,-0.174057,0.9841919,-35.67041,0.03562927,-29.12057,3.802948,0.6361600000000001,0.618085,0.2652725999999999,-0.0136261,-0.1748962,0.9844818,31.818790000000003,0.8246764999999999,-27.89948,3.894699,0.5313129,0.5784708000000001,-0.4712237,0.966468,-0.1199818,-0.06317743,0.6813275,0.07319503,2.374854,1.041765,27.49
4,-0.0161438,-0.1747894,0.9844666,0.6387209,-0.03244019,-0.174057,0.9841919,-35.67041,0.03562927,-29.12057,3.802948,0.6361600000000001,0.618085,0.2652725999999999,-0.0136261,-0.1748962,0.9844818,31.818790000000003,0.8246764999999999,-27.89948,3.894699,0.5313129,0.5784708000000001,-0.4712237,0.966468,-0.1199818,-0.06317743,0.6813275,0.07319503,2.374854,1.041765,27.49
