Second,eye_comb_direction_x,eye_comb_direction_y,eye_comb_direction_z,eye_r_openness,eye_r_direction_x,eye_r_direction_y,eye_r_direction_z,eye_r_origin_x,eye_r_origin_y,eye_r_origin_z,eye_r_pupil_diameter,eye_r_pupil_position_x,eye_r_pupil_position_y,eye_l_openness,eye_l_direction_x,eye_l_direction_y,eye_l_direction_z,eye_l_origin_x,eye_l_origin_y,eye_l_origin_z,eye_l_pupil_diameter,eye_l_pupil_position_x,eye_l_pupil_position_y,head_position_x,head_position_y,head_position_z,head_rotation_roll,head_rotation_pitch,head_rotation_yaw,EDA,BVP,TMP
0,0.2566527999999999,-0.0033264159999999,0.9664917,1.0,0.2239227,-0.06491089,0.9724274,-33.04501,-0.7753448000000001,-28.35352,4.615768,0.5031799,0.6193765,1.0,0.2683868,0.01934814,0.9631042,34.17139,-1.289261,-26.53821,4.820908,0.403097,0.6043111999999999,-0.3795194,0.9570873,-0.1541934,0.003497693,0.8909054,0.01532505,0.4781458,1.1764763621370558,26.980629441624366
0,0.2566527999999999,-0.0033264159999999,0.9664917,1.0,0.2239227,-0.06491089,0.9724274,-33.04501,-0.7753448000000001,-28.35352,4.615768,0.5031799,0.6193765,1.0,0.2683868,0.01934814,0.9631042,34.17139,-1.289261,-26.53821,4.820908,0.403097,0.6043111999999999,-0.3795194,0.9570873,-0.1541934,0.003497693,0.8909054,0.01532505,0.4781458,1.1764763621370558,26.980629441624366
0,0.2566527999999999,-0.0033264159999999,0.9664917,1.0,0.2239227,-0.06491089,0.9724274,-33.04501,-0.7753448000000001,-28.35352,4.615768,0.5031799,0.6193765,1.0,0.2683868,0.01934814,0.9631042,34.17139,-1.289261,-26.53821,4.820908,0.403097,0.6043111999999999,-0.3795194,0.9570873,-0.1541934,0.003497693,0.8909054,0.01532505,0.4781458,1.1764763621370558,26.980629441624366
0,0.2566527999999999,-0.0033264159999999,0.9664917,1.0,0.2239227,-0.06491089,0.9724274,-33.04501,-0.7753448000000001,-28.35352,4.615768,0.5031799,0.6193765,1.0,0.2683868,0.01934814,0.9631042,34.17139,-1.289261,-26.53821,4.820908,0.403097,0.6043111999999999,-0.3795194,0.9570873,-0.1541934,0.003497693,0.8909054,0.01532505,0.4781458,1.1764763621370558,26.980629441624366
1,0.2590637,-0.004959106,0.9658356,1.0,0.2273253999999999,-0.06669617,0.9715271,-33.11865,-0.8048706,-28.35574,4.572266,0.5050736,0.6207130999999999,1.0,0.2697600999999999,0.01637268,0.9627838,34.23022,-1.336685,-26.55861,4.698868,0.4007506,0.6065179,-0.3789513,0.9571472,-0.1534043,0.003561023,0.8881697000000001,0.01469262,0.4781458,1.1764763621370558,26.980629441624366
1,0.2590637,-0.004959106,0.9658356,1.0,0.2273253999999999,-0.06669617,0.9715271,-33.11865,-0.8048706,-28.35574,4.572266,0.5050736,0.6207130999999999,1.0,0.2697600999999999,0.01637268,0.9627838,34.23022,-1.336685,-26.55861,4.698868,0.4007506,0.6065179,-0.3789513,0.9571472,-0.1534043,0.003561023,0.8881697000000001,0.01469262,0.4781458,1.1764763621370558,26.980629441624366
1,0.2590637,-0.004959106,0.9658356,1.0,0.2273253999999999,-0.06669617,0.9715271,-33.11865,-0.8048706,-28.35574,4.572266,0.5050736,0.6207130999999999,1.0,0.2697600999999999,0.01637268,0.9627838,34.23022,-1.336685,-26.55861,4.698868,0.4007506,0.6065179,-0.3789513,0.9571472,-0.1534043,0.003561023,0.8881697000000001,0.01469262,0.4781458,1.1764763621370558,26.980629441624366
1,0.2551117,-0.01112366,0.9668427,1.0,0.2265472,-0.0663146999999999,0.9717255,-33.142520000000005,-0.8061371,-28.355970000000003,4.507537999999999,0.5059692,0.6206528,1.0,0.2654114,0.009231567,0.9640808,34.23022,-1.333466,-26.55595,4.684021,0.4014989,0.607538,-0.3784291999999999,0.9571509,-0.1527084,0.003653962,0.8859575999999999,0.01424723,0.4781458,1.1764763621370558,26.980629441624366
1,0.2551117,-0.01112366,0.9668427,1.0,0.2265472,-0.0663146999999999,0.9717255,-33.142520000000005,-0.8061371,-28.355970000000003,4.507537999999999,0.5059692,0.6206528,1.0,0.2654114,0.009231567,0.9640808,34.23022,-1.333466,-26.55595,4.684021,0.4014989,0.607538,-0.3784291999999999,0.9571509,-0.1527084,0.003653962,0.8859575999999999,0.01424723,0.4781458,1.1764763621370558,26.980629441624366
1,0.2551117,-0.01112366,0.9668427,1.0,0.2265472,-0.0663146999999999,0.9717255,-33.142520000000005,-0.8061371,-28.355970000000003,4.507537999999999,0.5059692,0.6206528,1.0,0.2654114,0.009231567,0.9640808,34.23022,-1.333466,-26.55595,4.684021,0.4014989,0.607538,-0.3784291999999999,0.9571509,-0.1527084,0.003653962,0.8859575999999999,0.01424723,0.4781458,1.1764763621370558,26.980629441624366
1,0.2321014,-0.02282715,0.9724121,1.0,0.2077026,-0.06091309,0.9762878,-33.15903,-0.8032227,-28.35739,4.468124,0.5096704000000001,0.6194389,1.0,0.2545319,0.01289368,0.9669647,34.23863,-1.329041,-26.55475,4.575577,0.4030157,0.6065395,-0.3777787,0.957138,-0.1517563999999999,0.003619133,0.8830209000000001,0.01377016,0.4781458,1.1764763621370558,26.980629441624366
1,0.2321014,-0.02282715,0.9724121,1.0,0.2077026,-0.06091309,0.9762878,-33.15903,-0.8032227,-28.35739,4.468124,0.5096704000000001,0.6194389,1.0,0.2545319,0.01289368,0.9669647,34.23863,-1.329041,-26.55475,4.575577,0.4030157,0.6065395,-0.3777787,0.957138,-0.1517563999999999,0.003619133,0.8830209000000001,0.01377016,0.4781458,1.1764763621370558,26.980629441624366
1,0.2321014,-0.02282715,0.9724121,1.0,0.2077026,-0.06091309,0.9762878,-33.15903,-0.8032227,-28.35739,4.468124,0.5096704000000001,0.6194389,1.0,0.2545319,0.01289368,0.9669647,34.23863,-1.329041,-26.55475,4.575577,0.4030157,0.6065395,-0.3777787,0.957138,-0.1517563999999999,0.003619133,0.8830209000000001,0.01377016,0.4781458,1.1764763621370558,26.980629441624366
1,0.2303009,-0.02105713,0.9728851,1.0,0.2079619999999999,-0.06025696,0.9762726,-33.16997,-0.8010559,-28.35739,4.4554290000000005,0.5099869,0.619252,1.0,0.2489014,0.01228333,0.9684448,34.24118,-1.327927,-26.55325,4.555664,0.4038855999999999,0.6065255999999999,-0.3771415,0.9572453000000002,-0.1505726,0.0036170729999999,0.8794414,0.0129751,0.4781458,1.1764763621370558,26.980629441624366
1,0.2303009,-0.02105713,0.9728851,1.0,0.2079619999999999,-0.06025696,0.9762726,-33.16997,-0.8010559,-28.35739,4.4554290000000005,0.5099869,0.619252,1.0,0.2489014,0.01228333,0.9684448,34.24118,-1.327927,-26.55325,4.555664,0.4038855999999999,0.6065255999999999,-0.3771415,0.9572453000000002,-0.1505726,0.0036170729999999,0.8794414,0.0129751,0.4781458,1.1764763621370558,26.980629441624366
1,0.2303009,-0.02105713,0.9728851,1.0,0.2079619999999999,-0.06025696,0.9762726,-33.16997,-0.8010559,-28.35739,4.4554290000000005,0.5099869,0.619252,1.0,0.2489014,0.01228333,0.9684448,34.24118,-1.327927,-26.55325,4.555664,0.4038855999999999,0.6065255999999999,-0.3771415,0.9572453000000002,-0.1505726,0.0036170729999999,0.8794414,0.0129751,0.4781458,1.1764763621370558,26.980629441624366
1,0.1871642999999999,-0.006378174,0.9822998,1.0,0.1807098,-0.03717041,0.9828186,-33.27734,-0.7082672,-28.47386,4.151718,0.5180467000000001,0.6128712,1.0,0.1924591,0.01957703,0.9810944,34.22276,-1.3238219999999998,-26.500020000000003,4.2640080000000005,0.4140564999999999,0.603861,-0.3759798,0.9575481,-0.1486983,0.0031502659999999,0.8728389000000001,0.01198902,0.4781458,1.1764763621370558,26.980629441624366
1,0.1871642999999999,-0.006378174,0.9822998,1.0,0.1807098,-0.03717041,0.9828186,-33.27734,-0.7082672,-28.47386,4.151718,0.5180467000000001,0.6128712,1.0,0.1924591,0.01957703,0.9810944,34.22276,-1.3238219999999998,-26.500020000000003,4.2640080000000005,0.4140564999999999,0.603861,-0.3759798,0.9575481,-0.1486983,0.0031502659999999,0.8728389000000001,0.01198902,0.4781458,1.1764763621370558,26.980629441624366
1,0.1871642999999999,-0.006378174,0.9822998,1.0,0.1807098,-0.03717041,0.9828186,-33.27734,-0.7082672,-28.47386,4.151718,0.5180467000000001,0.6128712,1.0,0.1924591,0.01957703,0.9810944,34.22276,-1.3238219999999998,-26.500020000000003,4.2640080000000005,0.4140564999999999,0.603861,-0.3759798,0.9575481,-0.1486983,0.0031502659999999,0.8728389000000001,0.01198902,0.4781458,1.1764763621370558,26.980629441624366
1,0.173584,0.0055236819999999,0.9848021999999998,1.0,0.1535033999999999,-0.0402832,0.9873199,-33.37827,-0.6134949000000001,-28.72693,4.069656,0.5261294,0.6125289,1.0,0.1764526,0.01217651,0.9842224,34.132290000000005,-1.282181,-26.54091,4.3117980000000005,0.4198761,0.6040807,-0.3747001,0.958084,-0.1463294,0.002119599,0.8643320999999999,0.01208589,0.4781458,1.1764763621370558,26.980629441624366
1,0.173584,0.0055236819999999,0.9848021999999998,1.0,0.1535033999999999,-0.0402832,0.9873199,-33.37827,-0.6134949000000001,-28.72693,4.069656,0.5261294,0.6125289,1.0,0.1764526,0.01217651,0.9842224,34.132290000000005,-1.282181,-26.54091,4.3117980000000005,0.4198761,0.6040807,-0.3747001,0.958084,-0.1463294,0.002119599,0.8643320999999999,0.01208589,0.4781458,1.1764763621370558,26.980629441624366
1,0.173584,0.0055236819999999,0.9848021999999998,1.0,0.1535033999999999,-0.0402832,0.9873199,-33.37827,-0.6134949000000001,-28.72693,4.069656,0.5261294,0.6125289,1.0,0.1764526,0.01217651,0.9842224,34.132290000000005,-1.282181,-26.54091,4.3117980000000005,0.4198761,0.6040807,-0.3747001,0.958084,-0.1463294,0.002119599,0.8643320999999999,0.01208589,0.4781458,1.1764763621370558,26.980629441624366
1,0.1378020999999999,-0.0008544922,0.990448,1.0,0.1332092,-0.03453064,0.9904785,-33.60155,-0.7402496000000001,-28.38007,4.009827,0.5369115,0.6122314999999999,1.0,0.1400452,0.01591492,0.9900055,33.98705,-1.196732,-26.87296,4.211273,0.4308552,0.6035961999999999,-0.3740732,0.9585657,-0.1445717999999999,0.001102018,0.8581873999999999,0.01221466,0.4781458,1.1764763621370558,26.980629441624366
1,0.1378020999999999,-0.0008544922,0.990448,1.0,0.1332092,-0.03453064,0.9904785,-33.60155,-0.7402496000000001,-28.38007,4.009827,0.5369115,0.6122314999999999,1.0,0.1400452,0.01591492,0.9900055,33.98705,-1.196732,-26.87296,4.211273,0.4308552,0.6035961999999999,-0.3740732,0.9585657,-0.1445717999999999,0.001102018,0.8581873999999999,0.01221466,0.4781458,1.1764763621370558,26.980629441624366
1,0.1378020999999999,-0.0008544922,0.990448,1.0,0.1332092,-0.03453064,0.9904785,-33.60155,-0.7402496000000001,-28.38007,4.009827,0.5369115,0.6122314999999999,1.0,0.1400452,0.01591492,0.9900055,33.98705,-1.196732,-26.87296,4.211273,0.4308552,0.6035961999999999,-0.3740732,0.9585657,-0.1445717999999999,0.001102018,0.8581873999999999,0.01221466,0.4781458,1.1764763621370558,26.980629441624366
1,0.1156769,0.00617981,0.9932556,1.0,0.1076964999999999,-0.03666687,0.9934998,-33.80803,-0.9002991,-28.083820000000003,3.961441,0.5479929,0.6149324,1.0,0.1160431,0.008178711,0.9931946,33.80981,-1.294418,-26.72217,4.161163,0.4409709,0.6066149000000001,-0.3732,0.9592258,-0.1419581,-0.000376246,0.8487788,0.0119856,0.4781458,1.1764763621370558,26.980629441624366
1,0.1156769,0.00617981,0.9932556,1.0,0.1076964999999999,-0.03666687,0.9934998,-33.80803,-0.9002991,-28.083820000000003,3.961441,0.5479929,0.6149324,1.0,0.1160431,0.008178711,0.9931946,33.80981,-1.294418,-26.72217,4.161163,0.4409709,0.6066149000000001,-0.3732,0.9592258,-0.1419581,-0.000376246,0.8487788,0.0119856,0.4781458,1.1764763621370558,26.980629441624366
1,0.1156769,0.00617981,0.9932556,1.0,0.1076964999999999,-0.03666687,0.9934998,-33.80803,-0.9002991,-28.083820000000003,3.961441,0.5479929,0.6149324,1.0,0.1160431,0.008178711,0.9931946,33.80981,-1.294418,-26.72217,4.161163,0.4409709,0.6066149000000001,-0.3732,0.9592258,-0.1419581,-0.000376246,0.8487788,0.0119856,0.4781458,1.1764763621370558,26.980629441624366
1,0.1156769,0.00617981,0.9932556,1.0,0.1076964999999999,-0.03666687,0.9934998,-33.80803,-0.9002991,-28.083820000000003,3.961441,0.5479929,0.6149324,1.0,0.1160431,0.008178711,0.9931946,33.80981,-1.294418,-26.72217,4.161163,0.4409709,0.6066149000000001,-0.3727862999999999,0.9601486,-0.1384908,-0.002178536,0.8354216,0.01270323,0.4781458,-0.07666016,26.980629441624366
1,0.1156769,0.00617981,0.9932556,1.0,0.1076964999999999,-0.03666687,0.9934998,-33.80803,-0.9002991,-28.083820000000003,3.961441,0.5479929,0.6149324,1.0,0.1160431,0.008178711,0.9931946,33.80981,-1.294418,-26.72217,4.161163,0.4409709,0.6066149000000001,-0.3727862999999999,0.9601486,-0.1384908,-0.002178536,0.8354216,0.01270323,0.4781458,-0.07666016,26.980629441624366
1,0.1156769,0.00617981,0.9932556,1.0,0.1076964999999999,-0.03666687,0.9934998,-33.80803,-0.9002991,-28.083820000000003,3.961441,0.5479929,0.6149324,1.0,0.1160431,0.008178711,0.9931946,33.80981,-1.294418,-26.72217,4.161163,0.4409709,0.6066149000000001,-0.3727862999999999,0.9601486,-0.1384908,-0.002178536,0.8354216,0.01270323,0.4781458,-0.07666016,26.980629441624366
1,0.1156769,0.00617981,0.9932556,1.0,0.1076964999999999,-0.03666687,0.9934998,-33.80803,-0.9002991,-28.083820000000003,3.961441,0.5479929,0.6149324,1.0,0.1160431,0.008178711,0.9931946,33.80981,-1.294418,-26.72217,4.161163,0.4409709,0.6066149000000001,-0.372932,0.9605975,-0.1371575,-0.002832715,0.8293153,0.01297022,0.4781458,-0.07666016,26.980629441624366
1,0.1156769,0.00617981,0.9932556,1.0,0.1076964999999999,-0.03666687,0.9934998,-33.80803,-0.9002991,-28.083820000000003,3.961441,0.5479929,0.6149324,1.0,0.1160431,0.008178711,0.9931946,33.80981,-1.294418,-26.72217,4.161163,0.4409709,0.6066149000000001,-0.372932,0.9605975,-0.1371575,-0.002832715,0.8293153,0.01297022,0.4781458,-0.07666016,26.980629441624366
1,0.1156769,0.00617981,0.9932556,1.0,0.1076964999999999,-0.03666687,0.9934998,-33.80803,-0.9002991,-28.083820000000003,3.961441,0.5479929,0.6149324,1.0,0.1160431,0.008178711,0.9931946,33.80981,-1.294418,-26.72217,4.161163,0.4409709,0.6066149000000001,-0.372932,0.9605975,-0.1371575,-0.002832715,0.8293153,0.01297022,0.4781458,-0.07666016,26.980629441624366
1,0.02511597,0.003128052,0.9996643,1.0,0.01074219,-0.04241943,0.9990386999999998,-34.41705,-1.046921,-27.83246,3.991852,0.5846333,0.6183699,1.0,0.02532959,0.003814697,0.9996643,33.2157,-1.270935,-26.74341,3.964172,0.4765094,0.6065674,-0.3733827,0.9610322,-0.1361779,-0.003740614,0.8242476000000001,0.01362329,0.4781458,-0.07666016,26.980629441624366
1,0.02511597,0.003128052,0.9996643,1.0,0.01074219,-0.04241943,0.9990386999999998,-34.41705,-1.046921,-27.83246,3.991852,0.5846333,0.6183699,1.0,0.02532959,0.003814697,0.9996643,33.2157,-1.270935,-26.74341,3.964172,0.4765094,0.6065674,-0.3733827,0.9610322,-0.1361779,-0.003740614,0.8242476000000001,0.01362329,0.4781458,-0.07666016,26.980629441624366
1,0.02511597,0.003128052,0.9996643,1.0,0.01074219,-0.04241943,0.9990386999999998,-34.41705,-1.046921,-27.83246,3.991852,0.5846333,0.6183699,1.0,0.02532959,0.003814697,0.9996643,33.2157,-1.270935,-26.74341,3.964172,0.4765094,0.6065674,-0.3733827,0.9610322,-0.1361779,-0.003740614,0.8242476000000001,0.01362329,0.4781458,-0.07666016,26.980629441624366
1,-0.02049255,-0.0463561999999999,0.998703,1.0,-0.02069092,-0.046875,0.9986725,-34.7496,-0.9367065,-27.63506,3.810562,0.6008974,0.6134264,1.0,-0.002105713,0.00112915,0.9999847,32.83704,-1.3117219999999998,-26.16872,3.97467,0.4939557,0.6027952,-0.3749663,0.9625041,-0.1348666,-0.0066323619999999,0.8138451,0.01793312,0.4781458,-0.07666016,26.980629441624366
1,-0.02049255,-0.0463561999999999,0.998703,1.0,-0.02069092,-0.046875,0.9986725,-34.7496,-0.9367065,-27.63506,3.810562,0.6008974,0.6134264,1.0,-0.002105713,0.00112915,0.9999847,32.83704,-1.3117219999999998,-26.16872,3.97467,0.4939557,0.6027952,-0.3749663,0.9625041,-0.1348666,-0.0066323619999999,0.8138451,0.01793312,0.4781458,-0.07666016,26.980629441624366
1,-0.02049255,-0.0463561999999999,0.998703,1.0,-0.02069092,-0.046875,0.9986725,-34.7496,-0.9367065,-27.63506,3.810562,0.6008974,0.6134264,1.0,-0.002105713,0.00112915,0.9999847,32.83704,-1.3117219999999998,-26.16872,3.97467,0.4939557,0.6027952,-0.3749663,0.9625041,-0.1348666,-0.0066323619999999,0.8138451,0.01793312,0.4781458,-0.07666016,26.980629441624366
1,-0.03497314,-0.04566956,0.9983368,1.0,-0.03555298,-0.0464325,0.9982758,-34.92235,-0.8948975,-27.46419,3.811859,0.6090293000000001,0.6103168000000001,1.0,-0.01373291,-0.01773071,0.9997406,32.69012,-1.266281,-26.29248,3.986969,0.5008931999999999,0.6057969,-0.3765089,0.963746,-0.1351972,-0.008429041,0.8098825,0.02323252,0.4781458,-0.07666016,26.980629441624366
1,-0.03497314,-0.04566956,0.9983368,1.0,-0.03555298,-0.0464325,0.9982758,-34.92235,-0.8948975,-27.46419,3.811859,0.6090293000000001,0.6103168000000001,1.0,-0.01373291,-0.01773071,0.9997406,32.69012,-1.266281,-26.29248,3.986969,0.5008931999999999,0.6057969,-0.3765089,0.963746,-0.1351972,-0.008429041,0.8098825,0.02323252,0.4781458,-0.07666016,26.980629441624366
1,-0.03497314,-0.04566956,0.9983368,1.0,-0.03555298,-0.0464325,0.9982758,-34.92235,-0.8948975,-27.46419,3.811859,0.6090293000000001,0.6103168000000001,1.0,-0.01373291,-0.01773071,0.9997406,32.69012,-1.266281,-26.29248,3.986969,0.5008931999999999,0.6057969,-0.3765089,0.963746,-0.1351972,-0.008429041,0.8098825,0.02323252,0.4781458,-0.07666016,26.980629441624366
1,-0.04263306,-0.02238464,0.9988251,1.0,-0.05435181,-0.04571533,0.997467,-35.14525,-1.014435,-27.30064,3.714233,0.619508,0.6126049,1.0,-0.03910828,-0.01538086,0.999115,32.547270000000005,-1.261703,-26.4838,3.833878,0.5100704,0.6071014,-0.3765089,0.963746,-0.1351972,-0.008429041,0.8098825,0.02323252,0.4781458,-0.07666016,26.980629441624366
1,-0.04263306,-0.02238464,0.9988251,1.0,-0.05435181,-0.04571533,0.997467,-35.14525,-1.014435,-27.30064,3.714233,0.619508,0.6126049,1.0,-0.03910828,-0.01538086,0.999115,32.547270000000005,-1.261703,-26.4838,3.833878,0.5100704,0.6071014,-0.3765089,0.963746,-0.1351972,-0.008429041,0.8098825,0.02323252,0.4781458,-0.07666016,26.980629441624366
1,-0.04263306,-0.02238464,0.9988251,1.0,-0.05435181,-0.04571533,0.997467,-35.14525,-1.014435,-27.30064,3.714233,0.619508,0.6126049,1.0,-0.03910828,-0.01538086,0.999115,32.547270000000005,-1.261703,-26.4838,3.833878,0.5100704,0.6071014,-0.3765089,0.963746,-0.1351972,-0.008429041,0.8098825,0.02323252,0.4781458,-0.07666016,26.980629441624366
1,-0.05032349,-0.02471924,0.9984131,1.0,-0.06809998,-0.0581664999999999,0.9959717,-35.29248,-1.262161,-27.18892,3.737885,0.626708,0.6220559,1.0,-0.04769897,-0.01979065,0.9986572,32.41403,-1.436249,-26.42563,3.632614,0.5160055,0.6130595999999999,-0.3785834,0.9648215,-0.1360764,-0.01097751,0.8081746999999999,0.02608109,0.4781458,-6.564865,26.980629441624366
1,-0.05032349,-0.02471924,0.9984131,1.0,-0.06809998,-0.0581664999999999,0.9959717,-35.29248,-1.262161,-27.18892,3.737885,0.626708,0.6220559,1.0,-0.04769897,-0.01979065,0.9986572,32.41403,-1.436249,-26.42563,3.632614,0.5160055,0.6130595999999999,-0.3785834,0.9648215,-0.1360764,-0.01097751,0.8081746999999999,0.02608109,0.4781458,-6.564865,26.980629441624366
1,-0.05032349,-0.02471924,0.9984131,1.0,-0.06809998,-0.0581664999999999,0.9959717,-35.29248,-1.262161,-27.18892,3.737885,0.626708,0.6220559,1.0,-0.04769897,-0.01979065,0.9986572,32.41403,-1.436249,-26.42563,3.632614,0.5160055,0.6130595999999999,-0.3785834,0.9648215,-0.1360764,-0.01097751,0.8081746999999999,0.02608109,0.4781458,-6.564865,26.980629441624366
1,-0.05409241,-0.03018188,0.9980774,1.0,-0.0705718999999999,-0.0602416999999999,0.9956818,-35.30887,-1.247955,-27.38461,3.759369,0.6279196,0.6239249,1.0,-0.05072021,-0.02404785,0.9984131,32.39645,-1.44136,-26.46037,3.610046,0.5171207999999999,0.6143079,-0.3811752,0.9653177,-0.1379028,-0.01280226,0.809281,0.02588898,0.4781458,-6.564865,26.980629441624366
1,-0.05409241,-0.03018188,0.9980774,1.0,-0.0705718999999999,-0.0602416999999999,0.9956818,-35.30887,-1.247955,-27.38461,3.759369,0.6279196,0.6239249,1.0,-0.05072021,-0.02404785,0.9984131,32.39645,-1.44136,-26.46037,3.610046,0.5171207999999999,0.6143079,-0.3811752,0.9653177,-0.1379028,-0.01280226,0.809281,0.02588898,0.4781458,-6.564865,26.980629441624366
1,-0.05409241,-0.03018188,0.9980774,1.0,-0.0705718999999999,-0.0602416999999999,0.9956818,-35.30887,-1.247955,-27.38461,3.759369,0.6279196,0.6239249,1.0,-0.05072021,-0.02404785,0.9984131,32.39645,-1.44136,-26.46037,3.610046,0.5171207999999999,0.6143079,-0.3811752,0.9653177,-0.1379028,-0.01280226,0.809281,0.02588898,0.4781458,-6.564865,26.980629441624366
1,-0.06015015,-0.02879333,0.9977722,1.0,-0.07473755,-0.06567383,0.9950256,-35.24921,-1.344055,-27.41208,3.812622,0.6266935,0.6284234000000001,1.0,-0.057724,-0.0226593,0.9980621,32.392990000000005,-1.458954,-26.44194,3.663086,0.5184133,0.614545,-0.3840659,0.9660742,-0.1401756,-0.01415805,0.8118969,0.02853157,0.4781458,-6.564865,26.980629441624366
1,-0.06015015,-0.02879333,0.9977722,1.0,-0.07473755,-0.06567383,0.9950256,-35.24921,-1.344055,-27.41208,3.812622,0.6266935,0.6284234000000001,1.0,-0.057724,-0.0226593,0.9980621,32.392990000000005,-1.458954,-26.44194,3.663086,0.5184133,0.614545,-0.3840659,0.9660742,-0.1401756,-0.01415805,0.8118969,0.02853157,0.4781458,-6.564865,26.980629441624366
1,-0.06015015,-0.02879333,0.9977722,1.0,-0.07473755,-0.06567383,0.9950256,-35.24921,-1.344055,-27.41208,3.812622,0.6266935,0.6284234000000001,1.0,-0.057724,-0.0226593,0.9980621,32.392990000000005,-1.458954,-26.44194,3.663086,0.5184133,0.614545,-0.3840659,0.9660742,-0.1401756,-0.01415805,0.8118969,0.02853157,0.4781458,-6.564865,26.980629441624366
1,-0.05860901,-0.04040527,0.9974518,1.0,-0.07296753,-0.06542969,0.9951782,-35.15768,-1.35054,-27.02603,3.663895,0.6227927,0.6245685000000001,1.0,-0.05690002,-0.03744507,0.9976654,32.50983,-1.323334,-26.27052,3.794662,0.5142541,0.6108848000000001,-0.3869035999999999,0.967674,-0.1426802999999999,-0.01898831,0.8142294,0.034301,0.4781458,-6.564865,26.980629441624366
1,-0.05860901,-0.04040527,0.9974518,1.0,-0.07296753,-0.06542969,0.9951782,-35.15768,-1.35054,-27.02603,3.663895,0.6227927,0.6245685000000001,1.0,-0.05690002,-0.03744507,0.9976654,32.50983,-1.323334,-26.27052,3.794662,0.5142541,0.6108848000000001,-0.3869035999999999,0.967674,-0.1426802999999999,-0.01898831,0.8142294,0.034301,0.4781458,-6.564865,26.980629441624366
1,-0.05860901,-0.04040527,0.9974518,1.0,-0.07296753,-0.06542969,0.9951782,-35.15768,-1.35054,-27.02603,3.663895,0.6227927,0.6245685000000001,1.0,-0.05690002,-0.03744507,0.9976654,32.50983,-1.323334,-26.27052,3.794662,0.5142541,0.6108848000000001,-0.3869035999999999,0.967674,-0.1426802999999999,-0.01898831,0.8142294,0.034301,0.4781458,-6.564865,26.980629441624366
1,-0.05966187,-0.04582214,0.9971619,1.0,-0.07434082,-0.07946777,0.9940491,-35.11531,-1.310425,-27.013690000000004,3.741653,0.6215795000000001,0.6255803000000001,1.0,-0.05810547,-0.04226685,0.997406,32.55533,-1.3302459999999998,-26.20343,3.692322,0.512904,0.6112025999999999,-0.3901275999999999,0.96973,-0.1455264,-0.02532893,0.8181835,0.04252499,0.4781458,-6.564865,26.980629441624366
1,-0.05966187,-0.04582214,0.9971619,1.0,-0.07434082,-0.07946777,0.9940491,-35.11531,-1.310425,-27.013690000000004,3.741653,0.6215795000000001,0.6255803000000001,1.0,-0.05810547,-0.04226685,0.997406,32.55533,-1.3302459999999998,-26.20343,3.692322,0.512904,0.6112025999999999,-0.3901275999999999,0.96973,-0.1455264,-0.02532893,0.8181835,0.04252499,0.4781458,-6.564865,26.980629441624366
1,-0.05966187,-0.04582214,0.9971619,1.0,-0.07434082,-0.07946777,0.9940491,-35.11531,-1.310425,-27.013690000000004,3.741653,0.6215795000000001,0.6255803000000001,1.0,-0.05810547,-0.04226685,0.997406,32.55533,-1.3302459999999998,-26.20343,3.692322,0.512904,0.6112025999999999,-0.3901275999999999,0.96973,-0.1455264,-0.02532893,0.8181835,0.04252499,0.4781458,-6.564865,26.980629441624366
1,-0.05966187,-0.04582214,0.9971619,1.0,-0.07434082,-0.07946777,0.9940491,-35.11531,-1.310425,-27.013690000000004,3.741653,0.6215795000000001,0.6255803000000001,1.0,-0.05810547,-0.04226685,0.997406,32.55533,-1.3302459999999998,-26.20343,3.692322,0.512904,0.6112025999999999,-0.3935058,0.972244,-0.1488503,-0.03096895,0.8228831,0.05517544,0.4781458,-6.564865,26.980629441624366
1,-0.05966187,-0.04582214,0.9971619,1.0,-0.07434082,-0.07946777,0.9940491,-35.11531,-1.310425,-27.013690000000004,3.741653,0.6215795000000001,0.6255803000000001,1.0,-0.05810547,-0.04226685,0.997406,32.55533,-1.3302459999999998,-26.20343,3.692322,0.512904,0.6112025999999999,-0.3935058,0.972244,-0.1488503,-0.03096895,0.8228831,0.05517544,0.4781458,-6.564865,26.980629441624366
1,-0.05966187,-0.04582214,0.9971619,1.0,-0.07434082,-0.07946777,0.9940491,-35.11531,-1.310425,-27.013690000000004,3.741653,0.6215795000000001,0.6255803000000001,1.0,-0.05810547,-0.04226685,0.997406,32.55533,-1.3302459999999998,-26.20343,3.692322,0.512904,0.6112025999999999,-0.3935058,0.972244,-0.1488503,-0.03096895,0.8228831,0.05517544,0.4781458,-6.564865,26.980629441624366
1,-0.05574036,-0.0476532,0.9972992,1.0,-0.07058716,-0.0844574,0.9939117,-35.06622,-1.225937,-27.1964,3.65152,0.6195172,0.6253595000000001,1.0,-0.05253601,-0.03971863,0.997818,32.57156,-1.294617,-26.28946,3.6828,0.511444,0.6103861,-0.3972795999999999,0.975348,-0.1521159,-0.03861881,0.8284136999999999,0.06916692,0.4781458,0.8374176,26.980629441624366
1,-0.05574036,-0.0476532,0.9972992,1.0,-0.07058716,-0.0844574,0.9939117,-35.06622,-1.225937,-27.1964,3.65152,0.6195172,0.6253595000000001,1.0,-0.05253601,-0.03971863,0.997818,32.57156,-1.294617,-26.28946,3.6828,0.511444,0.6103861,-0.3972795999999999,0.975348,-0.1521159,-0.03861881,0.8284136999999999,0.06916692,0.4781458,0.8374176,26.980629441624366
1,-0.05574036,-0.0476532,0.9972992,1.0,-0.07058716,-0.0844574,0.9939117,-35.06622,-1.225937,-27.1964,3.65152,0.6195172,0.6253595000000001,1.0,-0.05253601,-0.03971863,0.997818,32.57156,-1.294617,-26.28946,3.6828,0.511444,0.6103861,-0.3972795999999999,0.975348,-0.1521159,-0.03861881,0.8284136999999999,0.06916692,0.4781458,0.8374176,26.980629441624366
1,-0.07466125,0.01255798,0.9971161,1.0,-0.08493042,-0.0031433109999999,0.9963684000000002,-35.06279,-0.6254883000000001,-27.44183,3.722672,0.6220039,0.5937816,1.0,-0.06626892,0.02534485,0.997467,32.4101,-0.7113495,-26.87123,3.689056,0.5196476,0.585318,-0.4012324,0.9783832,-0.1553017,-0.04543419,0.8332677,0.08550514,0.4781458,0.8374176,26.980629441624366
1,-0.07466125,0.01255798,0.9971161,1.0,-0.08493042,-0.0031433109999999,0.9963684000000002,-35.06279,-0.6254883000000001,-27.44183,3.722672,0.6220039,0.5937816,1.0,-0.06626892,0.02534485,0.997467,32.4101,-0.7113495,-26.87123,3.689056,0.5196476,0.585318,-0.4012324,0.9783832,-0.1553017,-0.04543419,0.8332677,0.08550514,0.4781458,0.8374176,26.980629441624366
1,-0.07466125,0.01255798,0.9971161,1.0,-0.08493042,-0.0031433109999999,0.9963684000000002,-35.06279,-0.6254883000000001,-27.44183,3.722672,0.6220039,0.5937816,1.0,-0.06626892,0.02534485,0.997467,32.4101,-0.7113495,-26.87123,3.689056,0.5196476,0.585318,-0.4012324,0.9783832,-0.1553017,-0.04543419,0.8332677,0.08550514,0.4781458,0.8374176,26.980629441624366
1,-0.0619812,0.0004119873,0.9980621,1.0,-0.06604004,-0.02684021,0.9974518,-34.95152,-0.6952056999999999,-27.44745,3.828354,0.6150774999999999,0.6002073,1.0,-0.06080627,0.0082244869999999,0.9981079,32.5401,-0.8444214,-26.71327,3.62384,0.5142082,0.5911006999999999,-0.405542,0.9816458,-0.1586289,-0.05465057,0.8377952,0.101966,0.4781458,0.8374176,26.980629441624366
1,-0.0619812,0.0004119873,0.9980621,1.0,-0.06604004,-0.02684021,0.9974518,-34.95152,-0.6952056999999999,-27.44745,3.828354,0.6150774999999999,0.6002073,1.0,-0.06080627,0.0082244869999999,0.9981079,32.5401,-0.8444214,-26.71327,3.62384,0.5142082,0.5911006999999999,-0.405542,0.9816458,-0.1586289,-0.05465057,0.8377952,0.101966,0.4781458,0.8374176,26.980629441624366
1,-0.0619812,0.0004119873,0.9980621,1.0,-0.06604004,-0.02684021,0.9974518,-34.95152,-0.6952056999999999,-27.44745,3.828354,0.6150774999999999,0.6002073,1.0,-0.06080627,0.0082244869999999,0.9981079,32.5401,-0.8444214,-26.71327,3.62384,0.5142082,0.5911006999999999,-0.405542,0.9816458,-0.1586289,-0.05465057,0.8377952,0.101966,0.4781458,0.8374176,26.980629441624366
1,-0.03312683,-0.05523682,0.9979095,1.0,-0.0337677,-0.05641174,0.9978333,-34.805620000000005,-0.8983612,-27.39383,3.831512000000001,0.6047208000000001,0.611438,1.0,-0.0193634,-0.0300293,0.9993591,32.63965,-1.146454,-26.27782,3.727264,0.5035694000000001,0.6035259,-0.4098379,0.9844534,-0.1617458999999999,-0.06390484,0.8413674999999999,0.1175821999999999,0.4781458,0.8374176,26.980629441624366
1,-0.03312683,-0.05523682,0.9979095,1.0,-0.0337677,-0.05641174,0.9978333,-34.805620000000005,-0.8983612,-27.39383,3.831512000000001,0.6047208000000001,0.611438,1.0,-0.0193634,-0.0300293,0.9993591,32.63965,-1.146454,-26.27782,3.727264,0.5035694000000001,0.6035259,-0.4098379,0.9844534,-0.1617458999999999,-0.06390484,0.8413674999999999,0.1175821999999999,0.4781458,0.8374176,26.980629441624366
1,-0.03312683,-0.05523682,0.9979095,1.0,-0.0337677,-0.05641174,0.9978333,-34.805620000000005,-0.8983612,-27.39383,3.831512000000001,0.6047208000000001,0.611438,1.0,-0.0193634,-0.0300293,0.9993591,32.63965,-1.146454,-26.27782,3.727264,0.5035694000000001,0.6035259,-0.4098379,0.9844534,-0.1617458999999999,-0.06390484,0.8413674999999999,0.1175821999999999,0.4781458,0.8374176,26.980629441624366
1,-0.01387024,-0.09176636,0.9956818,1.0,-0.01396179,-0.09214783,0.995636,-34.60466,-1.082794,-27.38071,3.758209,0.5946776999999999,0.6235486,1.0,-0.007125854,-0.06098938,0.9981079,32.80449,-1.374542,-26.08115,3.712799,0.4958026,0.6145483,-0.4140407,0.9866909,-0.1642118,-0.07334572,0.8435733,0.1321775,0.4781458,0.8374176,26.980629441624366
1,-0.01387024,-0.09176636,0.9956818,1.0,-0.01396179,-0.09214783,0.995636,-34.60466,-1.082794,-27.38071,3.758209,0.5946776999999999,0.6235486,1.0,-0.007125854,-0.06098938,0.9981079,32.80449,-1.374542,-26.08115,3.712799,0.4958026,0.6145483,-0.4140407,0.9866909,-0.1642118,-0.07334572,0.8435733,0.1321775,0.4781458,0.8374176,26.980629441624366
1,-0.01387024,-0.09176636,0.9956818,1.0,-0.01396179,-0.09214783,0.995636,-34.60466,-1.082794,-27.38071,3.758209,0.5946776999999999,0.6235486,1.0,-0.007125854,-0.06098938,0.9981079,32.80449,-1.374542,-26.08115,3.712799,0.4958026,0.6145483,-0.4140407,0.9866909,-0.1642118,-0.07334572,0.8435733,0.1321775,0.4781458,0.8374176,26.980629441624366
1,0.006469727,-0.1286163,0.9916687,1.0,0.005249023,-0.1333771,0.9910431,-34.47537,-1.162903,-27.66872,3.66127,0.5874236999999999,0.6362576,1.0,0.01586914,-0.09204102,0.9956207,32.91705,-1.486099,-26.23784,3.847672,0.4880755,0.6253302,-0.4177894,0.9884288,-0.1662857,-0.08164447,0.8445305000000001,0.1440162,0.4781458,4.397415,26.980629441624366
1,0.006469727,-0.1286163,0.9916687,1.0,0.005249023,-0.1333771,0.9910431,-34.47537,-1.162903,-27.66872,3.66127,0.5874236999999999,0.6362576,1.0,0.01586914,-0.09204102,0.9956207,32.91705,-1.486099,-26.23784,3.847672,0.4880755,0.6253302,-0.4177894,0.9884288,-0.1662857,-0.08164447,0.8445305000000001,0.1440162,0.4781458,4.397415,26.980629441624366
1,0.006469727,-0.1286163,0.9916687,1.0,0.005249023,-0.1333771,0.9910431,-34.47537,-1.162903,-27.66872,3.66127,0.5874236999999999,0.6362576,1.0,0.01586914,-0.09204102,0.9956207,32.91705,-1.486099,-26.23784,3.847672,0.4880755,0.6253302,-0.4177894,0.9884288,-0.1662857,-0.08164447,0.8445305000000001,0.1440162,0.4781458,4.397415,26.980629441624366
1,0.04490662,-0.05458069,0.9974976,1.0,0.0426178,-0.06686401,0.9968414,-34.08632,-0.7673645,-27.8614,3.830109,0.5681345,0.6132625,1.0,0.05058289,-0.02398682,0.9984283000000002,33.09758,-1.3232270000000002,-26.10507,3.938858,0.476234,0.6067708,-0.4208393,0.9898841,-0.1678876,-0.08913448,0.8440851999999999,0.1537183,0.4781458,4.397415,26.980629441624366
1,0.04490662,-0.05458069,0.9974976,1.0,0.0426178,-0.06686401,0.9968414,-34.08632,-0.7673645,-27.8614,3.830109,0.5681345,0.6132625,1.0,0.05058289,-0.02398682,0.9984283000000002,33.09758,-1.3232270000000002,-26.10507,3.938858,0.476234,0.6067708,-0.4208393,0.9898841,-0.1678876,-0.08913448,0.8440851999999999,0.1537183,0.4781458,4.397415,26.980629441624366
1,0.04490662,-0.05458069,0.9974976,1.0,0.0426178,-0.06686401,0.9968414,-34.08632,-0.7673645,-27.8614,3.830109,0.5681345,0.6132625,1.0,0.05058289,-0.02398682,0.9984283000000002,33.09758,-1.3232270000000002,-26.10507,3.938858,0.476234,0.6067708,-0.4208393,0.9898841,-0.1678876,-0.08913448,0.8440851999999999,0.1537183,0.4781458,4.397415,26.980629441624366
1,0.05761719,-0.06520081,0.9962006,1.0,0.05039978,-0.08535767,0.9950714,-34.09503,-0.9682007,-27.63002,4.008881,0.5670270000000001,0.6210485,1.0,0.06109619,-0.05540466,0.996582,33.19019,-1.460434,-26.11115,3.882324,0.4712587,0.6168083000000001,-0.4234888,0.9907147,-0.1690943,-0.09481163,0.8429158999999999,0.1616474,0.4781458,4.397415,26.980629441624366
1,0.05761719,-0.06520081,0.9962006,1.0,0.05039978,-0.08535767,0.9950714,-34.09503,-0.9682007,-27.63002,4.008881,0.5670270000000001,0.6210485,1.0,0.06109619,-0.05540466,0.996582,33.19019,-1.460434,-26.11115,3.882324,0.4712587,0.6168083000000001,-0.4234888,0.9907147,-0.1690943,-0.09481163,0.8429158999999999,0.1616474,0.4781458,4.397415,26.980629441624366
1,0.05761719,-0.06520081,0.9962006,1.0,0.05039978,-0.08535767,0.9950714,-34.09503,-0.9682007,-27.63002,4.008881,0.5670270000000001,0.6210485,1.0,0.06109619,-0.05540466,0.996582,33.19019,-1.460434,-26.11115,3.882324,0.4712587,0.6168083000000001,-0.4234888,0.9907147,-0.1690943,-0.09481163,0.8429158999999999,0.1616474,0.4781458,4.397415,26.980629441624366
1,0.06216431,-0.08399963,0.9945221,1.0,0.06105042,-0.102951,0.9927979,-34.06799,-1.131104,-27.66145,3.93222,0.5643687,0.6298573000000001,1.0,0.06274414,-0.07402039,0.9952698,33.322390000000006,-1.676254,-25.86563,3.962921,0.4664759,0.6248636,-0.4274720999999999,0.9916097,-0.1705097,-0.1023708,0.8386559000000001,0.1692877,0.4781458,-5.563278,26.980629441624366
1,0.06216431,-0.08399963,0.9945221,1.0,0.06105042,-0.102951,0.9927979,-34.06799,-1.131104,-27.66145,3.93222,0.5643687,0.6298573000000001,1.0,0.06274414,-0.07402039,0.9952698,33.322390000000006,-1.676254,-25.86563,3.962921,0.4664759,0.6248636,-0.4274720999999999,0.9916097,-0.1705097,-0.1023708,0.8386559000000001,0.1692877,0.4781458,-5.563278,26.980629441624366
1,0.06216431,-0.08399963,0.9945221,1.0,0.06105042,-0.102951,0.9927979,-34.06799,-1.131104,-27.66145,3.93222,0.5643687,0.6298573000000001,1.0,0.06274414,-0.07402039,0.9952698,33.322390000000006,-1.676254,-25.86563,3.962921,0.4664759,0.6248636,-0.4274720999999999,0.9916097,-0.1705097,-0.1023708,0.8386559000000001,0.1692877,0.4781458,-5.563278,26.980629441624366
1,0.06071472,-0.1051483,0.9925995,1.0,0.05485535,-0.1243895999999999,0.9907074,-34.0712,-1.151657,-27.76738,3.942612,0.5656267,0.6353789000000001,1.0,0.06903076,-0.07756042,0.9945831,33.33328,-1.729218,-25.78786,4.004257,0.4650526,0.62651,-0.4289709,0.9917318000000002,-0.1708645,-0.1053413,0.8356634000000001,0.1707754,0.4781458,-5.563278,26.980629441624366
1,0.06071472,-0.1051483,0.9925995,1.0,0.05485535,-0.1243895999999999,0.9907074,-34.0712,-1.151657,-27.76738,3.942612,0.5656267,0.6353789000000001,1.0,0.06903076,-0.07756042,0.9945831,33.33328,-1.729218,-25.78786,4.004257,0.4650526,0.62651,-0.4289709,0.9917318000000002,-0.1708645,-0.1053413,0.8356634000000001,0.1707754,0.4781458,-5.563278,26.980629441624366
1,0.06071472,-0.1051483,0.9925995,1.0,0.05485535,-0.1243895999999999,0.9907074,-34.0712,-1.151657,-27.76738,3.942612,0.5656267,0.6353789000000001,1.0,0.06903076,-0.07756042,0.9945831,33.33328,-1.729218,-25.78786,4.004257,0.4650526,0.62651,-0.4289709,0.9917318000000002,-0.1708645,-0.1053413,0.8356634000000001,0.1707754,0.4781458,-5.563278,26.980629441624366
1,0.06387329,-0.1091003,0.9919739,1.0,0.05665588,-0.1335144,0.9894257,-34.08409,-1.151657,-27.80536,4.012619,0.5658228,0.6374083,1.0,0.06988525,-0.08865356,0.9936066,33.32965,-1.7705540000000002,-25.7606,4.018463,0.4650195,0.6295654,-0.4302556999999999,0.9920656,-0.1710322,-0.1083474,0.8328127000000001,0.171596,0.4781458,-5.563278,26.980629441624366
1,0.06387329,-0.1091003,0.9919739,1.0,0.05665588,-0.1335144,0.9894257,-34.08409,-1.151657,-27.80536,4.012619,0.5658228,0.6374083,1.0,0.06988525,-0.08865356,0.9936066,33.32965,-1.7705540000000002,-25.7606,4.018463,0.4650195,0.6295654,-0.4302556999999999,0.9920656,-0.1710322,-0.1083474,0.8328127000000001,0.171596,0.4781458,-5.563278,26.980629441624366
1,0.06387329,-0.1091003,0.9919739,1.0,0.05665588,-0.1335144,0.9894257,-34.08409,-1.151657,-27.80536,4.012619,0.5658228,0.6374083,1.0,0.06988525,-0.08865356,0.9936066,33.32965,-1.7705540000000002,-25.7606,4.018463,0.4650195,0.6295654,-0.4302556999999999,0.9920656,-0.1710322,-0.1083474,0.8328127000000001,0.171596,0.4781458,-5.563278,26.980629441624366
2,0.06240845,-0.1221008,0.9905396,1.0,0.05503845,-0.1408386,0.9884949,-34.0918,-1.1532440000000002,-27.80035,4.066635,0.5663733,0.6387265000000001,1.0,0.07035828,-0.1017151,0.9923096,33.325390000000006,-1.805984,-25.69199,4.040344,0.4650744,0.6323401,-0.4313752999999999,0.9922646,-0.1711064,-0.1101964999999999,0.8306448000000001,0.1723487,0.4781458,-5.563278,26.980629441624366
2,0.06240845,-0.1221008,0.9905396,1.0,0.05503845,-0.1408386,0.9884949,-34.0918,-1.1532440000000002,-27.80035,4.066635,0.5663733,0.6387265000000001,1.0,0.07035828,-0.1017151,0.9923096,33.325390000000006,-1.805984,-25.69199,4.040344,0.4650744,0.6323401,-0.4313752999999999,0.9922646,-0.1711064,-0.1101964999999999,0.8306448000000001,0.1723487,0.4781458,-5.563278,26.980629441624366
2,0.06240845,-0.1221008,0.9905396,1.0,0.05503845,-0.1408386,0.9884949,-34.0918,-1.1532440000000002,-27.80035,4.066635,0.5663733,0.6387265000000001,1.0,0.07035828,-0.1017151,0.9923096,33.325390000000006,-1.805984,-25.69199,4.040344,0.4650744,0.6323401,-0.4313752999999999,0.9922646,-0.1711064,-0.1101964999999999,0.8306448000000001,0.1723487,0.4781458,-5.563278,26.980629441624366
2,-0.0246581999999999,-0.07977295,0.9965057,1.0,-0.04171753,-0.1009674,0.9940033,-34.62576,-1.068192,-27.41507,4.232895,0.6000978,0.6253135,1.0,-0.01193237,-0.06393433,0.997879,32.72964,-1.459167,-26.13876,4.258942,0.4991234,0.6189039000000001,-0.4325675,0.9923664,-0.1711681,-0.1121123,0.8293754000000001,0.1733359,0.4781458,-5.563278,26.980629441624366
2,-0.0246581999999999,-0.07977295,0.9965057,1.0,-0.04171753,-0.1009674,0.9940033,-34.62576,-1.068192,-27.41507,4.232895,0.6000978,0.6253135,1.0,-0.01193237,-0.06393433,0.997879,32.72964,-1.459167,-26.13876,4.258942,0.4991234,0.6189039000000001,-0.4325675,0.9923664,-0.1711681,-0.1121123,0.8293754000000001,0.1733359,0.4781458,-5.563278,26.980629441624366
2,-0.0246581999999999,-0.07977295,0.9965057,1.0,-0.04171753,-0.1009674,0.9940033,-34.62576,-1.068192,-27.41507,4.232895,0.6000978,0.6253135,1.0,-0.01193237,-0.06393433,0.997879,32.72964,-1.459167,-26.13876,4.258942,0.4991234,0.6189039000000001,-0.4325675,0.9923664,-0.1711681,-0.1121123,0.8293754000000001,0.1733359,0.4781458,-5.563278,26.980629441624366
2,-0.2209015,-0.02000427,0.9750824,1.0,-0.2209015,-0.02000427,0.9750824,-35.45264,-0.7979279,-27.55682,4.176071,0.6585598000000001,0.6051108000000001,1.0,-0.1564331,-0.0008544922,0.9876862,31.790540000000004,-0.8780212,-27.10883,4.013992,0.5560898,0.5987796999999999,-0.4338143,0.9926691,-0.1713672999999999,-0.1138983,0.8293593,0.1758664,0.4781458,-5.563278,26.980629441624366
2,-0.2209015,-0.02000427,0.9750824,1.0,-0.2209015,-0.02000427,0.9750824,-35.45264,-0.7979279,-27.55682,4.176071,0.6585598000000001,0.6051108000000001,1.0,-0.1564331,-0.0008544922,0.9876862,31.790540000000004,-0.8780212,-27.10883,4.013992,0.5560898,0.5987796999999999,-0.4338143,0.9926691,-0.1713672999999999,-0.1138983,0.8293593,0.1758664,0.4781458,-5.563278,26.980629441624366
2,-0.2209015,-0.02000427,0.9750824,1.0,-0.2209015,-0.02000427,0.9750824,-35.45264,-0.7979279,-27.55682,4.176071,0.6585598000000001,0.6051108000000001,1.0,-0.1564331,-0.0008544922,0.9876862,31.790540000000004,-0.8780212,-27.10883,4.013992,0.5560898,0.5987796999999999,-0.4338143,0.9926691,-0.1713672999999999,-0.1138983,0.8293593,0.1758664,0.4781458,-5.563278,26.980629441624366
2,-0.2201842999999999,-0.0244750999999999,0.9751434,1.0,-0.2201842999999999,-0.0244750999999999,0.9751434,-35.49222,-0.7940063,-27.56482,4.107651000000001,0.6598206,0.6057659000000001,1.0,-0.1596069,0.00881958,0.9871368,31.84644,-0.8390960999999999,-27.37965,4.16098,0.5548668000000001,0.5986322,-0.4348702999999999,0.9929249,-0.1713524,-0.1155952,0.8295643,0.1783524,0.4781458,-12.08731,26.980629441624366
2,-0.2201842999999999,-0.0244750999999999,0.9751434,1.0,-0.2201842999999999,-0.0244750999999999,0.9751434,-35.49222,-0.7940063,-27.56482,4.107651000000001,0.6598206,0.6057659000000001,1.0,-0.1596069,0.00881958,0.9871368,31.84644,-0.8390960999999999,-27.37965,4.16098,0.5548668000000001,0.5986322,-0.4348702999999999,0.9929249,-0.1713524,-0.1155952,0.8295643,0.1783524,0.4781458,-12.08731,26.980629441624366
2,-0.2201842999999999,-0.0244750999999999,0.9751434,1.0,-0.2201842999999999,-0.0244750999999999,0.9751434,-35.49222,-0.7940063,-27.56482,4.107651000000001,0.6598206,0.6057659000000001,1.0,-0.1596069,0.00881958,0.9871368,31.84644,-0.8390960999999999,-27.37965,4.16098,0.5548668000000001,0.5986322,-0.4348702999999999,0.9929249,-0.1713524,-0.1155952,0.8295643,0.1783524,0.4781458,-12.08731,26.980629441624366
2,-0.2002563,-0.0395813,0.9789276,1.0,-0.204483,-0.04434204,0.9778595,-35.49321,-0.8777618,-27.517640000000004,4.171509,0.6570801,0.6114184,1.0,-0.1689911,-0.004608154,0.9855957,31.95436,-1.030563,-26.95451,4.2841190000000005,0.5524225,0.6033673,-0.4358948,0.9932276,-0.1713852,-0.1180587999999999,0.8301106,0.1802526,0.4781458,-12.08731,26.980629441624366
2,-0.2002563,-0.0395813,0.9789276,1.0,-0.204483,-0.04434204,0.9778595,-35.49321,-0.8777618,-27.517640000000004,4.171509,0.6570801,0.6114184,1.0,-0.1689911,-0.004608154,0.9855957,31.95436,-1.030563,-26.95451,4.2841190000000005,0.5524225,0.6033673,-0.4358948,0.9932276,-0.1713852,-0.1180587999999999,0.8301106,0.1802526,0.4781458,-12.08731,26.980629441624366
2,-0.2002563,-0.0395813,0.9789276,1.0,-0.204483,-0.04434204,0.9778595,-35.49321,-0.8777618,-27.517640000000004,4.171509,0.6570801,0.6114184,1.0,-0.1689911,-0.004608154,0.9855957,31.95436,-1.030563,-26.95451,4.2841190000000005,0.5524225,0.6033673,-0.4358948,0.9932276,-0.1713852,-0.1180587999999999,0.8301106,0.1802526,0.4781458,-12.08731,26.980629441624366
2,-0.2034148999999999,-0.04727173,0.9779358,1.0,-0.2041321,-0.04789734,0.9777527,-35.43135,-0.8588409,-27.53929,4.259079,0.6549219000000001,0.6116655,1.0,-0.1643372,-0.01325989,0.9863129,32.0054,-1.02565,-26.97691,4.330322,0.5498624,0.6049005000000001,-0.4368587,0.9936385,-0.1711722,-0.1205609,0.8309475000000001,0.1826561,0.4781458,-12.08731,26.980629441624366
2,-0.2034148999999999,-0.04727173,0.9779358,1.0,-0.2041321,-0.04789734,0.9777527,-35.43135,-0.8588409,-27.53929,4.259079,0.6549219000000001,0.6116655,1.0,-0.1643372,-0.01325989,0.9863129,32.0054,-1.02565,-26.97691,4.330322,0.5498624,0.6049005000000001,-0.4368587,0.9936385,-0.1711722,-0.1205609,0.8309475000000001,0.1826561,0.4781458,-12.08731,26.980629441624366
2,-0.2034148999999999,-0.04727173,0.9779358,1.0,-0.2041321,-0.04789734,0.9777527,-35.43135,-0.8588409,-27.53929,4.259079,0.6549219000000001,0.6116655,1.0,-0.1643372,-0.01325989,0.9863129,32.0054,-1.02565,-26.97691,4.330322,0.5498624,0.6049005000000001,-0.4368587,0.9936385,-0.1711722,-0.1205609,0.8309475000000001,0.1826561,0.4781458,-12.08731,26.980629441624366
2,-0.1951752,-0.04696655,0.9796295,1.0,-0.2027283,-0.05322266,0.9777832,-35.41937,-0.8621825999999999,-27.53763,4.270111,0.6542667,0.6126566999999999,1.0,-0.160675,-0.01849365,0.9868164,32.02383,-1.031921,-26.97029,4.332458,0.5485951,0.6059061,-0.4378745,0.9939978,-0.1708287999999999,-0.1224413,0.8326546999999999,0.1852791,0.4781458,-12.08731,26.980629441624366
2,-0.1951752,-0.04696655,0.9796295,1.0,-0.2027283,-0.05322266,0.9777832,-35.41937,-0.8621825999999999,-27.53763,4.270111,0.6542667,0.6126566999999999,1.0,-0.160675,-0.01849365,0.9868164,32.02383,-1.031921,-26.97029,4.332458,0.5485951,0.6059061,-0.4378745,0.9939978,-0.1708287999999999,-0.1224413,0.8326546999999999,0.1852791,0.4781458,-12.08731,26.980629441624366
2,-0.1951752,-0.04696655,0.9796295,1.0,-0.2027283,-0.05322266,0.9777832,-35.41937,-0.8621825999999999,-27.53763,4.270111,0.6542667,0.6126566999999999,1.0,-0.160675,-0.01849365,0.9868164,32.02383,-1.031921,-26.97029,4.332458,0.5485951,0.6059061,-0.4378745,0.9939978,-0.1708287999999999,-0.1224413,0.8326546999999999,0.1852791,0.4781458,-12.08731,26.980629441624366
2,-0.1680297999999999,-0.04600525,0.9846954,1.0,-0.1865997,-0.06700134,0.9801331,-35.40488,-0.9364929,-27.50197,4.251022,0.6509855,0.6170058,1.0,-0.1482239,-0.02374268,0.9886627,32.04176,-1.049423,-26.94467,4.338089,0.5458353,0.6070454000000001,-0.4390154,0.9944079,-0.1703834,-0.1226396,0.8351673000000001,0.1889146,0.4768646,-12.08731,26.980629441624366
2,-0.1680297999999999,-0.04600525,0.9846954,1.0,-0.1865997,-0.06700134,0.9801331,-35.40488,-0.9364929,-27.50197,4.251022,0.6509855,0.6170058,1.0,-0.1482239,-0.02374268,0.9886627,32.04176,-1.049423,-26.94467,4.338089,0.5458353,0.6070454000000001,-0.4390154,0.9944079,-0.1703834,-0.1226396,0.8351673000000001,0.1889146,0.4768646,-12.08731,26.980629441624366
2,-0.1680297999999999,-0.04600525,0.9846954,1.0,-0.1865997,-0.06700134,0.9801331,-35.40488,-0.9364929,-27.50197,4.251022,0.6509855,0.6170058,1.0,-0.1482239,-0.02374268,0.9886627,32.04176,-1.049423,-26.94467,4.338089,0.5458353,0.6070454000000001,-0.4390154,0.9944079,-0.1703834,-0.1226396,0.8351673000000001,0.1889146,0.4768646,-12.08731,26.980629441624366
2,-0.1988677999999999,-0.04393005,0.9790344,1.0,-0.2066956,-0.04925537,0.9771576,-35.517520000000005,-0.8542328000000001,-27.46338,4.354736,0.6581594,0.6111045,1.0,-0.1576691,-0.01600647,0.9873505,31.87701,-0.9915466,-27.03738,4.539352,0.5530565,0.604956,-0.4401267,0.9949256,-0.1699114,-0.122531,0.8387419,0.194273,0.4768646,5.340607,26.980629441624366
2,-0.1988677999999999,-0.04393005,0.9790344,1.0,-0.2066956,-0.04925537,0.9771576,-35.517520000000005,-0.8542328000000001,-27.46338,4.354736,0.6581594,0.6111045,1.0,-0.1576691,-0.01600647,0.9873505,31.87701,-0.9915466,-27.03738,4.539352,0.5530565,0.604956,-0.4401267,0.9949256,-0.1699114,-0.122531,0.8387419,0.194273,0.4768646,5.340607,26.980629441624366
2,-0.1988677999999999,-0.04393005,0.9790344,1.0,-0.2066956,-0.04925537,0.9771576,-35.517520000000005,-0.8542328000000001,-27.46338,4.354736,0.6581594,0.6111045,1.0,-0.1576691,-0.01600647,0.9873505,31.87701,-0.9915466,-27.03738,4.539352,0.5530565,0.604956,-0.4401267,0.9949256,-0.1699114,-0.122531,0.8387419,0.194273,0.4768646,5.340607,26.980629441624366
2,-0.3665314,0.05735779,0.9286194,1.0,-0.4109497,0.04100037,0.9107208,-36.45598,-0.5285645,-27.90237,4.538513,0.7278488000000001,0.5925754,1.0,-0.3495940999999999,0.06347656,0.9347382,30.952040000000004,-0.8190613,-26.97125,4.703812,0.6178895000000001,0.5876048,-0.4413064999999999,0.9954472,-0.1693331,-0.1222443,0.8436005999999999,0.2003733,0.4768646,5.340607,26.980629441624366
2,-0.3665314,0.05735779,0.9286194,1.0,-0.4109497,0.04100037,0.9107208,-36.45598,-0.5285645,-27.90237,4.538513,0.7278488000000001,0.5925754,1.0,-0.3495940999999999,0.06347656,0.9347382,30.952040000000004,-0.8190613,-26.97125,4.703812,0.6178895000000001,0.5876048,-0.4413064999999999,0.9954472,-0.1693331,-0.1222443,0.8436005999999999,0.2003733,0.4768646,5.340607,26.980629441624366
2,-0.3665314,0.05735779,0.9286194,1.0,-0.4109497,0.04100037,0.9107208,-36.45598,-0.5285645,-27.90237,4.538513,0.7278488000000001,0.5925754,1.0,-0.3495940999999999,0.06347656,0.9347382,30.952040000000004,-0.8190613,-26.97125,4.703812,0.6178895000000001,0.5876048,-0.4413064999999999,0.9954472,-0.1693331,-0.1222443,0.8436005999999999,0.2003733,0.4768646,5.340607,26.980629441624366
2,-0.365448,0.04173279,0.9298859,1.0,-0.3855743,0.02528381,0.9223175,-36.39206,-0.6130524,-27.86041,4.593552,0.7207806,0.5972387,1.0,-0.3510437,0.05335999,0.9348297,31.16426,-0.9180756,-26.92564,4.646515,0.6108201999999999,0.5921476,-0.4426282,0.995997,-0.1686513999999999,-0.120839,0.8490548000000001,0.2060069,0.4768646,5.340607,26.980629441624366
2,-0.365448,0.04173279,0.9298859,1.0,-0.3855743,0.02528381,0.9223175,-36.39206,-0.6130524,-27.86041,4.593552,0.7207806,0.5972387,1.0,-0.3510437,0.05335999,0.9348297,31.16426,-0.9180756,-26.92564,4.646515,0.6108201999999999,0.5921476,-0.4426282,0.995997,-0.1686513999999999,-0.120839,0.8490548000000001,0.2060069,0.4768646,5.340607,26.980629441624366
2,-0.365448,0.04173279,0.9298859,1.0,-0.3855743,0.02528381,0.9223175,-36.39206,-0.6130524,-27.86041,4.593552,0.7207806,0.5972387,1.0,-0.3510437,0.05335999,0.9348297,31.16426,-0.9180756,-26.92564,4.646515,0.6108201999999999,0.5921476,-0.4426282,0.995997,-0.1686513999999999,-0.120839,0.8490548000000001,0.2060069,0.4768646,5.340607,26.980629441624366
2,-0.3569489,0.03523254,0.9334412,1.0,-0.373642,0.01165771,0.9274902,-36.33267,-0.5991974,-27.82561,4.622635,0.7163917,0.5985486999999999,1.0,-0.3415985,0.05653381,0.9381256,31.19077,-0.9304352,-26.91618,4.604476999999999,0.6082924,0.591733,-0.4437457,0.9964373,-0.1676322999999999,-0.1192028,0.8540958000000001,0.2110548,0.4768646,5.340607,26.980629441624366
2,-0.3569489,0.03523254,0.9334412,1.0,-0.373642,0.01165771,0.9274902,-36.33267,-0.5991974,-27.82561,4.622635,0.7163917,0.5985486999999999,1.0,-0.3415985,0.05653381,0.9381256,31.19077,-0.9304352,-26.91618,4.604476999999999,0.6082924,0.591733,-0.4437457,0.9964373,-0.1676322999999999,-0.1192028,0.8540958000000001,0.2110548,0.4768646,5.340607,26.980629441624366
2,-0.3569489,0.03523254,0.9334412,1.0,-0.373642,0.01165771,0.9274902,-36.33267,-0.5991974,-27.82561,4.622635,0.7163917,0.5985486999999999,1.0,-0.3415985,0.05653381,0.9381256,31.19077,-0.9304352,-26.91618,4.604476999999999,0.6082924,0.591733,-0.4437457,0.9964373,-0.1676322999999999,-0.1192028,0.8540958000000001,0.2110548,0.4768646,5.340607,26.980629441624366
2,-0.3569489,0.03523254,0.9334412,1.0,-0.373642,0.01165771,0.9274902,-36.33267,-0.5991974,-27.82561,4.622635,0.7163917,0.5985486999999999,1.0,-0.3415985,0.05653381,0.9381256,31.19077,-0.9304352,-26.91618,4.604476999999999,0.6082924,0.591733,-0.4447418999999999,0.9968523,-0.166205,-0.1187323,0.8586668,0.2156457,0.4768646,5.340607,26.980629441624366
2,-0.3569489,0.03523254,0.9334412,1.0,-0.373642,0.01165771,0.9274902,-36.33267,-0.5991974,-27.82561,4.622635,0.7163917,0.5985486999999999,1.0,-0.3415985,0.05653381,0.9381256,31.19077,-0.9304352,-26.91618,4.604476999999999,0.6082924,0.591733,-0.4447418999999999,0.9968523,-0.166205,-0.1187323,0.8586668,0.2156457,0.4768646,5.340607,26.980629441624366
2,-0.3569489,0.03523254,0.9334412,1.0,-0.373642,0.01165771,0.9274902,-36.33267,-0.5991974,-27.82561,4.622635,0.7163917,0.5985486999999999,1.0,-0.3415985,0.05653381,0.9381256,31.19077,-0.9304352,-26.91618,4.604476999999999,0.6082924,0.591733,-0.4447418999999999,0.9968523,-0.166205,-0.1187323,0.8586668,0.2156457,0.4768646,5.340607,26.980629441624366
2,-0.2773895,-0.01525879,0.9606323,1.0,-0.302124,-0.03445435,0.9526367,-35.93646,-0.7355194,-27.66743,4.733032,0.6893902,0.6082633000000001,1.0,-0.2565918,0.0006866455,0.966507,31.6221,-1.0285799999999998,-26.74509,4.694016,0.5783774,0.6016308000000001,-0.4454263,0.9973046,-0.1643836,-0.1177539,0.862074,0.2205773999999999,0.4768646,11.7717,26.980629441624366
2,-0.2773895,-0.01525879,0.9606323,1.0,-0.302124,-0.03445435,0.9526367,-35.93646,-0.7355194,-27.66743,4.733032,0.6893902,0.6082633000000001,1.0,-0.2565918,0.0006866455,0.966507,31.6221,-1.0285799999999998,-26.74509,4.694016,0.5783774,0.6016308000000001,-0.4454263,0.9973046,-0.1643836,-0.1177539,0.862074,0.2205773999999999,0.4768646,11.7717,26.980629441624366
2,-0.2773895,-0.01525879,0.9606323,1.0,-0.302124,-0.03445435,0.9526367,-35.93646,-0.7355194,-27.66743,4.733032,0.6893902,0.6082633000000001,1.0,-0.2565918,0.0006866455,0.966507,31.6221,-1.0285799999999998,-26.74509,4.694016,0.5783774,0.6016308000000001,-0.4454263,0.9973046,-0.1643836,-0.1177539,0.862074,0.2205773999999999,0.4768646,11.7717,26.980629441624366
2,-0.2750397,-0.02500916,0.9610901,1.0,-0.3083344,-0.04237366,0.9503326,-35.81136,-0.7494049,-27.63211,4.76474,0.6860669,0.6098249,1.0,-0.2417145,-0.007797241,0.9703064,31.686740000000004,-1.028656,-26.72206,4.789841,0.5735294,0.6027452,-0.4458759,0.9979264,-0.1621454,-0.1168053,0.8643244000000001,0.2255062,0.4768646,11.7717,26.980629441624366
2,-0.2750397,-0.02500916,0.9610901,1.0,-0.3083344,-0.04237366,0.9503326,-35.81136,-0.7494049,-27.63211,4.76474,0.6860669,0.6098249,1.0,-0.2417145,-0.007797241,0.9703064,31.686740000000004,-1.028656,-26.72206,4.789841,0.5735294,0.6027452,-0.4458759,0.9979264,-0.1621454,-0.1168053,0.8643244000000001,0.2255062,0.4768646,11.7717,26.980629441624366
2,-0.2750397,-0.02500916,0.9610901,1.0,-0.3083344,-0.04237366,0.9503326,-35.81136,-0.7494049,-27.63211,4.76474,0.6860669,0.6098249,1.0,-0.2417145,-0.007797241,0.9703064,31.686740000000004,-1.028656,-26.72206,4.789841,0.5735294,0.6027452,-0.4458759,0.9979264,-0.1621454,-0.1168053,0.8643244000000001,0.2255062,0.4768646,11.7717,26.980629441624366
2,-0.2338562,-0.03697205,0.9715576,1.0,-0.2758789,-0.05430603,0.9596558,-35.68388,-0.8535004,-27.60387,4.693161,0.6759833000000001,0.614525,1.0,-0.2008513999999999,-0.02345276,0.9793243,31.816270000000003,-1.058792,-26.75563,4.661057,0.5622055,0.6061999,-0.4461983,0.9982105,-0.1596225,-0.1161988,0.8660279000000001,0.2296636,0.4768646,11.7717,26.980629441624366
2,-0.2338562,-0.03697205,0.9715576,1.0,-0.2758789,-0.05430603,0.9596558,-35.68388,-0.8535004,-27.60387,4.693161,0.6759833000000001,0.614525,1.0,-0.2008513999999999,-0.02345276,0.9793243,31.816270000000003,-1.058792,-26.75563,4.661057,0.5622055,0.6061999,-0.4461983,0.9982105,-0.1596225,-0.1161988,0.8660279000000001,0.2296636,0.4768646,11.7717,26.980629441624366
2,-0.2338562,-0.03697205,0.9715576,1.0,-0.2758789,-0.05430603,0.9596558,-35.68388,-0.8535004,-27.60387,4.693161,0.6759833000000001,0.614525,1.0,-0.2008513999999999,-0.02345276,0.9793243,31.816270000000003,-1.058792,-26.75563,4.661057,0.5622055,0.6061999,-0.4461983,0.9982105,-0.1596225,-0.1161988,0.8660279000000001,0.2296636,0.4768646,11.7717,26.980629441624366
2,-0.2286682,-0.05001831,0.9722136999999998,1.0,-0.2627410999999999,-0.06416321,0.9627228,-35.65367,-0.8733673000000001,-27.59279,4.640579,0.6726604,0.6165543000000001,1.0,-0.1885223,-0.03344727,0.9814911,31.85591,-1.051697,-26.78546,4.649139,0.5587633000000001,0.6078279999999999,-0.4462637,0.998566,-0.1567228,-0.1162768,0.8670803,0.2336222,0.4768646,11.7717,26.980629441624366
2,-0.2286682,-0.05001831,0.9722136999999998,1.0,-0.2627410999999999,-0.06416321,0.9627228,-35.65367,-0.8733673000000001,-27.59279,4.640579,0.6726604,0.6165543000000001,1.0,-0.1885223,-0.03344727,0.9814911,31.85591,-1.051697,-26.78546,4.649139,0.5587633000000001,0.6078279999999999,-0.4462637,0.998566,-0.1567228,-0.1162768,0.8670803,0.2336222,0.4768646,11.7717,26.980629441624366
2,-0.2286682,-0.05001831,0.9722136999999998,1.0,-0.2627410999999999,-0.06416321,0.9627228,-35.65367,-0.8733673000000001,-27.59279,4.640579,0.6726604,0.6165543000000001,1.0,-0.1885223,-0.03344727,0.9814911,31.85591,-1.051697,-26.78546,4.649139,0.5587633000000001,0.6078279999999999,-0.4462637,0.998566,-0.1567228,-0.1162768,0.8670803,0.2336222,0.4768646,11.7717,26.980629441624366
2,-0.2118072999999999,-0.02679443,0.9769287,1.0,-0.2165833,-0.02920532,0.9758148,-35.34587,-0.6376801,-27.439,4.687790000000001,0.6538444999999999,0.6004728,1.0,-0.142868,0.007583618,0.9897003,32.043409999999994,-0.66745,-27.32208,4.571686,0.5451205,0.5926315,-0.4460946,0.9991196,-0.153555,-0.1148232,0.8677003000000001,0.2378606,0.4768646,11.7717,26.980629441624366
2,-0.2118072999999999,-0.02679443,0.9769287,1.0,-0.2165833,-0.02920532,0.9758148,-35.34587,-0.6376801,-27.439,4.687790000000001,0.6538444999999999,0.6004728,1.0,-0.142868,0.007583618,0.9897003,32.043409999999994,-0.66745,-27.32208,4.571686,0.5451205,0.5926315,-0.4460946,0.9991196,-0.153555,-0.1148232,0.8677003000000001,0.2378606,0.4768646,11.7717,26.980629441624366
2,-0.2118072999999999,-0.02679443,0.9769287,1.0,-0.2165833,-0.02920532,0.9758148,-35.34587,-0.6376801,-27.439,4.687790000000001,0.6538444999999999,0.6004728,1.0,-0.142868,0.007583618,0.9897003,32.043409999999994,-0.66745,-27.32208,4.571686,0.5451205,0.5926315,-0.4460946,0.9991196,-0.153555,-0.1148232,0.8677003000000001,0.2378606,0.4768646,11.7717,26.980629441624366
2,-0.1736755,0.003265381,0.984787,1.0,-0.1795349,0.0006561278999999,0.9837494,-35.21068,-0.5608368,-27.33231,4.664063,0.642768,0.5913658,1.0,-0.1269073,0.02391052,0.9916229,32.208690000000004,-0.770401,-26.771,4.629593,0.5365154000000001,0.5878181,-0.4459669,0.9993073,-0.1502525,-0.1139771,0.8683125,0.2413436,0.4768646,-2.803375,26.980629441624366
2,-0.1736755,0.003265381,0.984787,1.0,-0.1795349,0.0006561278999999,0.9837494,-35.21068,-0.5608368,-27.33231,4.664063,0.642768,0.5913658,1.0,-0.1269073,0.02391052,0.9916229,32.208690000000004,-0.770401,-26.771,4.629593,0.5365154000000001,0.5878181,-0.4459669,0.9993073,-0.1502525,-0.1139771,0.8683125,0.2413436,0.4768646,-2.803375,26.980629441624366
2,-0.1736755,0.003265381,0.984787,1.0,-0.1795349,0.0006561278999999,0.9837494,-35.21068,-0.5608368,-27.33231,4.664063,0.642768,0.5913658,1.0,-0.1269073,0.02391052,0.9916229,32.208690000000004,-0.770401,-26.771,4.629593,0.5365154000000001,0.5878181,-0.4459669,0.9993073,-0.1502525,-0.1139771,0.8683125,0.2413436,0.4768646,-2.803375,26.980629441624366
2,-0.1703644,-0.00453186,0.9853668,1.0,-0.1714172,-0.0050354,0.9851685,-35.21997,-0.5715941999999999,-27.43973,4.639832,0.641876,0.5936655,1.0,-0.122467,0.01782227,0.9923096,32.23489,-0.8296966999999998,-26.73044,4.548706,0.5348556999999999,0.5903414,-0.445583,0.9992222,-0.1470245,-0.1122701,0.8692584999999999,0.2435893999999999,0.4768646,-2.803375,26.980629441624366
2,-0.1703644,-0.00453186,0.9853668,1.0,-0.1714172,-0.0050354,0.9851685,-35.21997,-0.5715941999999999,-27.43973,4.639832,0.641876,0.5936655,1.0,-0.122467,0.01782227,0.9923096,32.23489,-0.8296966999999998,-26.73044,4.548706,0.5348556999999999,0.5903414,-0.445583,0.9992222,-0.1470245,-0.1122701,0.8692584999999999,0.2435893999999999,0.4768646,-2.803375,26.980629441624366
2,-0.1703644,-0.00453186,0.9853668,1.0,-0.1714172,-0.0050354,0.9851685,-35.21997,-0.5715941999999999,-27.43973,4.639832,0.641876,0.5936655,1.0,-0.122467,0.01782227,0.9923096,32.23489,-0.8296966999999998,-26.73044,4.548706,0.5348556999999999,0.5903414,-0.445583,0.9992222,-0.1470245,-0.1122701,0.8692584999999999,0.2435893999999999,0.4768646,-2.803375,26.980629441624366
2,-0.1703644,-0.00453186,0.9853668,1.0,-0.1714172,-0.0050354,0.9851685,-35.21997,-0.5715941999999999,-27.43973,4.639832,0.641876,0.5936655,1.0,-0.122467,0.01782227,0.9923096,32.23489,-0.8296966999999998,-26.73044,4.548706,0.5348556999999999,0.5903414,-0.4449565,0.9989567,-0.1437147,-0.1106144,0.8702565000000001,0.2440990999999999,0.4768646,-2.803375,26.980629441624366
2,-0.1703644,-0.00453186,0.9853668,1.0,-0.1714172,-0.0050354,0.9851685,-35.21997,-0.5715941999999999,-27.43973,4.639832,0.641876,0.5936655,1.0,-0.122467,0.01782227,0.9923096,32.23489,-0.8296966999999998,-26.73044,4.548706,0.5348556999999999,0.5903414,-0.4449565,0.9989567,-0.1437147,-0.1106144,0.8702565000000001,0.2440990999999999,0.4768646,-2.803375,26.980629441624366
2,-0.1703644,-0.00453186,0.9853668,1.0,-0.1714172,-0.0050354,0.9851685,-35.21997,-0.5715941999999999,-27.43973,4.639832,0.641876,0.5936655,1.0,-0.122467,0.01782227,0.9923096,32.23489,-0.8296966999999998,-26.73044,4.548706,0.5348556999999999,0.5903414,-0.4449565,0.9989567,-0.1437147,-0.1106144,0.8702565000000001,0.2440990999999999,0.4768646,-2.803375,26.980629441624366
2,-0.1703644,-0.00453186,0.9853668,1.0,-0.1714172,-0.0050354,0.9851685,-35.21997,-0.5715941999999999,-27.43973,4.639832,0.641876,0.5936655,1.0,-0.122467,0.01782227,0.9923096,32.23489,-0.8296966999999998,-26.73044,4.548706,0.5348556999999999,0.5903414,-0.4437661,0.9984262,-0.1404952,-0.1072462,0.8714424000000001,0.2412464,0.4768646,-2.803375,26.980629441624366
2,-0.1703644,-0.00453186,0.9853668,1.0,-0.1714172,-0.0050354,0.9851685,-35.21997,-0.5715941999999999,-27.43973,4.639832,0.641876,0.5936655,1.0,-0.122467,0.01782227,0.9923096,32.23489,-0.8296966999999998,-26.73044,4.548706,0.5348556999999999,0.5903414,-0.4437661,0.9984262,-0.1404952,-0.1072462,0.8714424000000001,0.2412464,0.4768646,-2.803375,26.980629441624366
2,-0.1703644,-0.00453186,0.9853668,1.0,-0.1714172,-0.0050354,0.9851685,-35.21997,-0.5715941999999999,-27.43973,4.639832,0.641876,0.5936655,1.0,-0.122467,0.01782227,0.9923096,32.23489,-0.8296966999999998,-26.73044,4.548706,0.5348556999999999,0.5903414,-0.4437661,0.9984262,-0.1404952,-0.1072462,0.8714424000000001,0.2412464,0.4768646,-2.803375,26.980629441624366
2,-1.0,-1.0,-1.0,0.0,0.0,0.0,0.0,-35.21573,-0.6202698,-27.31163,-1.0,-1.0,-1.0,0.0,0.0,0.0,0.0,32.31647,-0.9544678,-26.42717,-1.0,0.7538918000000001,0.1898717999999999,-0.4422752,0.9975509,-0.1376811,-0.1016113,0.8736748,0.2362495,0.4768646,-2.803375,26.980629441624366
2,-1.0,-1.0,-1.0,0.0,0.0,0.0,0.0,-35.21573,-0.6202698,-27.31163,-1.0,-1.0,-1.0,0.0,0.0,0.0,0.0,32.31647,-0.9544678,-26.42717,-1.0,0.7538918000000001,0.1898717999999999,-0.4422752,0.9975509,-0.1376811,-0.1016113,0.8736748,0.2362495,0.4768646,-2.803375,26.980629441624366
2,-1.0,-1.0,-1.0,0.0,0.0,0.0,0.0,-35.21573,-0.6202698,-27.31163,-1.0,-1.0,-1.0,0.0,0.0,0.0,0.0,32.31647,-0.9544678,-26.42717,-1.0,0.7538918000000001,0.1898717999999999,-0.4422752,0.9975509,-0.1376811,-0.1016113,0.8736748,0.2362495,0.4768646,-2.803375,26.980629441624366
2,-1.0,-1.0,-1.0,0.0,0.0,0.0,0.0,-35.21573,-0.6202698,-27.31163,-1.0,-1.0,-1.0,0.0,0.0,0.0,0.0,32.31647,-0.9544678,-26.42717,-1.0,-1.0,-1.0,-0.4404914000000001,0.9965062,-0.1348539,-0.09532402,0.8767815999999999,0.2293738,0.4768646,2.466629,26.980629441624366
2,-1.0,-1.0,-1.0,0.0,0.0,0.0,0.0,-35.21573,-0.6202698,-27.31163,-1.0,-1.0,-1.0,0.0,0.0,0.0,0.0,32.31647,-0.9544678,-26.42717,-1.0,-1.0,-1.0,-0.4404914000000001,0.9965062,-0.1348539,-0.09532402,0.8767815999999999,0.2293738,0.4768646,2.466629,26.980629441624366
2,-1.0,-1.0,-1.0,0.0,0.0,0.0,0.0,-35.21573,-0.6202698,-27.31163,-1.0,-1.0,-1.0,0.0,0.0,0.0,0.0,32.31647,-0.9544678,-26.42717,-1.0,-1.0,-1.0,-0.4404914000000001,0.9965062,-0.1348539,-0.09532402,0.8767815999999999,0.2293738,0.4768646,2.466629,26.980629441624366
2,-1.0,-1.0,-1.0,0.0,0.0,0.0,0.0,-35.21573,-0.6202698,-27.31163,-1.0,-1.0,-1.0,0.0,0.0,0.0,0.0,32.31647,-0.9544678,-26.42717,-1.0,-1.0,-1.0,-0.4382024,0.9952434,-0.1320893,-0.0893603,0.8791790999999999,0.2216212,0.4768646,2.466629,26.980629441624366
2,-1.0,-1.0,-1.0,0.0,0.0,0.0,0.0,-35.21573,-0.6202698,-27.31163,-1.0,-1.0,-1.0,0.0,0.0,0.0,0.0,32.31647,-0.9544678,-26.42717,-1.0,-1.0,-1.0,-0.4382024,0.9952434,-0.1320893,-0.0893603,0.8791790999999999,0.2216212,0.4768646,2.466629,26.980629441624366
2,-1.0,-1.0,-1.0,0.0,0.0,0.0,0.0,-35.21573,-0.6202698,-27.31163,-1.0,-1.0,-1.0,0.0,0.0,0.0,0.0,32.31647,-0.9544678,-26.42717,-1.0,-1.0,-1.0,-0.4382024,0.9952434,-0.1320893,-0.0893603,0.8791790999999999,0.2216212,0.4768646,2.466629,26.980629441624366
2,-1.0,-1.0,-1.0,0.0,0.0,0.0,0.0,-35.21573,-0.6202698,-27.31163,-1.0,-1.0,-1.0,0.0,0.0,0.0,0.0,32.31647,-0.9544678,-26.42717,-1.0,-1.0,-1.0,-0.435777,0.9937234,-0.1291416,-0.083525,0.8809961,0.214113,0.4768646,2.466629,26.980629441624366
2,-1.0,-1.0,-1.0,0.0,0.0,0.0,0.0,-35.21573,-0.6202698,-27.31163,-1.0,-1.0,-1.0,0.0,0.0,0.0,0.0,32.31647,-0.9544678,-26.42717,-1.0,-1.0,-1.0,-0.435777,0.9937234,-0.1291416,-0.083525,0.8809961,0.214113,0.4768646,2.466629,26.980629441624366
2,-1.0,-1.0,-1.0,0.0,0.0,0.0,0.0,-35.21573,-0.6202698,-27.31163,-1.0,-1.0,-1.0,0.0,0.0,0.0,0.0,32.31647,-0.9544678,-26.42717,-1.0,-1.0,-1.0,-0.435777,0.9937234,-0.1291416,-0.083525,0.8809961,0.214113,0.4768646,2.466629,26.980629441624366
2,-1.0,-1.0,-1.0,0.0,0.0,0.0,0.0,-35.21573,-0.6202698,-27.31163,-1.0,-1.0,-1.0,0.0,0.0,0.0,0.0,32.31647,-0.9544678,-26.42717,-1.0,0.4782635999999999,0.8224783999999999,-0.4332594,0.9925131,-0.1262082,-0.07984276,0.8821940999999999,0.2081837999999999,0.4768646,2.466629,26.980629441624366
2,-1.0,-1.0,-1.0,0.0,0.0,0.0,0.0,-35.21573,-0.6202698,-27.31163,-1.0,-1.0,-1.0,0.0,0.0,0.0,0.0,32.31647,-0.9544678,-26.42717,-1.0,0.4782635999999999,0.8224783999999999,-0.4332594,0.9925131,-0.1262082,-0.07984276,0.8821940999999999,0.2081837999999999,0.4768646,2.466629,26.980629441624366
2,-1.0,-1.0,-1.0,0.0,0.0,0.0,0.0,-35.21573,-0.6202698,-27.31163,-1.0,-1.0,-1.0,0.0,0.0,0.0,0.0,32.31647,-0.9544678,-26.42717,-1.0,0.4782635999999999,0.8224783999999999,-0.4332594,0.9925131,-0.1262082,-0.07984276,0.8821940999999999,0.2081837999999999,0.4768646,2.466629,26.980629441624366
2,-1.0,-1.0,-1.0,0.0,0.0,0.0,0.0,-35.21573,-0.6202698,-27.31163,-1.0,-1.0,-1.0,0.0,0.0,0.0,0.0,32.31647,-0.9544678,-26.42717,-1.0,-1.0,-1.0,-0.4306307,0.9919238,-0.1234666,-0.07651754,0.8830735999999999,0.2054322999999999,0.4768646,2.466629,28.27
2,-1.0,-1.0,-1.0,0.0,0.0,0.0,0.0,-35.21573,-0.6202698,-27.31163,-1.0,-1.0,-1.0,0.0,0.0,0.0,0.0,32.31647,-0.9544678,-26.42717,-1.0,-1.0,-1.0,-0.4306307,0.9919238,-0.1234666,-0.07651754,0.8830735999999999,0.2054322999999999,0.4768646,2.466629,28.27
2,-1.0,-1.0,-1.0,0.0,0.0,0.0,0.0,-35.21573,-0.6202698,-27.31163,-1.0,-1.0,-1.0,0.0,0.0,0.0,0.0,32.31647,-0.9544678,-26.42717,-1.0,-1.0,-1.0,-0.4306307,0.9919238,-0.1234666,-0.07651754,0.8830735999999999,0.2054322999999999,0.4768646,2.466629,28.27
2,-1.0,-1.0,-1.0,0.0,0.0,0.0,0.0,-35.21573,-0.6202698,-27.31163,-1.0,0.283518,0.7744713000000001,0.0,0.0,0.0,0.0,32.31647,-0.9544678,-26.42717,-1.0,-1.0,-1.0,-0.427663,0.9910338,-0.1205191,-0.07238059,0.8833445,0.2027269,0.4768646,2.466629,28.27
2,-1.0,-1.0,-1.0,0.0,0.0,0.0,0.0,-35.21573,-0.6202698,-27.31163,-1.0,0.283518,0.7744713000000001,0.0,0.0,0.0,0.0,32.31647,-0.9544678,-26.42717,-1.0,-1.0,-1.0,-0.427663,0.9910338,-0.1205191,-0.07238059,0.8833445,0.2027269,0.4768646,2.466629,28.27
2,-1.0,-1.0,-1.0,0.0,0.0,0.0,0.0,-35.21573,-0.6202698,-27.31163,-1.0,0.283518,0.7744713000000001,0.0,0.0,0.0,0.0,32.31647,-0.9544678,-26.42717,-1.0,-1.0,-1.0,-0.427663,0.9910338,-0.1205191,-0.07238059,0.8833445,0.2027269,0.4768646,2.466629,28.27
3,-1.0,-1.0,-1.0,0.0,0.0,0.0,0.0,-35.21573,-0.6202698,-27.31163,-1.0,0.283518,0.7744713000000001,0.0,0.0,0.0,0.0,32.31647,-0.9544678,-26.42717,-1.0,-1.0,-1.0,-0.4246519,0.9904762,-0.1177083999999999,-0.06817133,0.8833806999999999,0.2017092999999999,0.4768646,-12.13075,28.27
3,-1.0,-1.0,-1.0,0.0,0.0,0.0,0.0,-35.21573,-0.6202698,-27.31163,-1.0,0.283518,0.7744713000000001,0.0,0.0,0.0,0.0,32.31647,-0.9544678,-26.42717,-1.0,-1.0,-1.0,-0.4246519,0.9904762,-0.1177083999999999,-0.06817133,0.8833806999999999,0.2017092999999999,0.4768646,-12.13075,28.27
3,-1.0,-1.0,-1.0,0.0,0.0,0.0,0.0,-35.21573,-0.6202698,-27.31163,-1.0,0.283518,0.7744713000000001,0.0,0.0,0.0,0.0,32.31647,-0.9544678,-26.42717,-1.0,-1.0,-1.0,-0.4246519,0.9904762,-0.1177083999999999,-0.06817133,0.8833806999999999,0.2017092999999999,0.4768646,-12.13075,28.27
3,-1.0,-1.0,-1.0,0.110938,0.0,0.0,0.0,-30.61557,-2.254959,-29.16409,-1.0,0.3453277999999999,0.7334251,0.0,0.0,0.0,0.0,32.31647,-0.9544678,-26.42717,-1.0,-1.0,-1.0,-0.4187674,0.9900872,-0.1116265,-0.05810996,0.8825951,0.2054767,0.4768646,-12.13075,28.27
3,-1.0,-1.0,-1.0,0.110938,0.0,0.0,0.0,-30.61557,-2.254959,-29.16409,-1.0,0.3453277999999999,0.7334251,0.0,0.0,0.0,0.0,32.31647,-0.9544678,-26.42717,-1.0,-1.0,-1.0,-0.4187674,0.9900872,-0.1116265,-0.05810996,0.8825951,0.2054767,0.4768646,-12.13075,28.27
3,-1.0,-1.0,-1.0,0.110938,0.0,0.0,0.0,-30.61557,-2.254959,-29.16409,-1.0,0.3453277999999999,0.7334251,0.0,0.0,0.0,0.0,32.31647,-0.9544678,-26.42717,-1.0,-1.0,-1.0,-0.4187674,0.9900872,-0.1116265,-0.05810996,0.8825951,0.2054767,0.4768646,-12.13075,28.27
3,-0.04444885,0.329361,0.9431458,0.7028555000000001,-0.1490479,0.3357239,0.9300842,-34.81937,-0.2675323,-27.08209,4.778061,0.6248909,0.5238175,0.5157115,-0.04425049,0.3293457,0.943161,32.62151,0.03645325,-26.91432,4.635742,0.5093893,0.5106789,-0.4159184,0.9899087,-0.1084391,-0.05296825,0.8813692,0.2075492,0.4768646,-12.13075,28.27
3,-0.04444885,0.329361,0.9431458,0.7028555000000001,-0.1490479,0.3357239,0.9300842,-34.81937,-0.2675323,-27.08209,4.778061,0.6248909,0.5238175,0.5157115,-0.04425049,0.3293457,0.943161,32.62151,0.03645325,-26.91432,4.635742,0.5093893,0.5106789,-0.4159184,0.9899087,-0.1084391,-0.05296825,0.8813692,0.2075492,0.4768646,-12.13075,28.27
3,-0.04444885,0.329361,0.9431458,0.7028555000000001,-0.1490479,0.3357239,0.9300842,-34.81937,-0.2675323,-27.08209,4.778061,0.6248909,0.5238175,0.5157115,-0.04425049,0.3293457,0.943161,32.62151,0.03645325,-26.91432,4.635742,0.5093893,0.5106789,-0.4159184,0.9899087,-0.1084391,-0.05296825,0.8813692,0.2075492,0.4768646,-12.13075,28.27
3,0.1177673,0.06114197,0.9911499,0.9844464,0.07873535,0.02244568,0.9966278,-34.05611,-0.7127838000000001,-27.78181,4.054245,0.5609635000000001,0.5955853,0.8605146999999999,0.1177673,0.06114197,0.9911499,33.32632,-1.251938,-26.18547,4.194397,0.4572524999999999,0.5910038000000001,-0.413282,0.9901074,-0.1052969,-0.04984536,0.8796136,0.2102528,0.4768646,-12.13075,28.27
3,0.1177673,0.06114197,0.9911499,0.9844464,0.07873535,0.02244568,0.9966278,-34.05611,-0.7127838000000001,-27.78181,4.054245,0.5609635000000001,0.5955853,0.8605146999999999,0.1177673,0.06114197,0.9911499,33.32632,-1.251938,-26.18547,4.194397,0.4572524999999999,0.5910038000000001,-0.413282,0.9901074,-0.1052969,-0.04984536,0.8796136,0.2102528,0.4768646,-12.13075,28.27
3,0.1177673,0.06114197,0.9911499,0.9844464,0.07873535,0.02244568,0.9966278,-34.05611,-0.7127838000000001,-27.78181,4.054245,0.5609635000000001,0.5955853,0.8605146999999999,0.1177673,0.06114197,0.9911499,33.32632,-1.251938,-26.18547,4.194397,0.4572524999999999,0.5910038000000001,-0.413282,0.9901074,-0.1052969,-0.04984536,0.8796136,0.2102528,0.4768646,-12.13075,28.27
3,0.09484863,0.04559326,0.9944458,0.9844464,0.07766724,0.02044678,0.9967651,-34.13469,-0.8179932,-27.51405,4.003754,0.5635784,0.5967808000000001,0.8605146999999999,0.1089325,0.06626892,0.9918213,33.39703,-1.253174,-26.35481,4.230606,0.4563318,0.5918345,-0.4108562,0.9902292,-0.1022588,-0.04695298,0.8774168,0.2132327,0.4768646,-3.057755,28.27
3,0.09484863,0.04559326,0.9944458,0.9844464,0.07766724,0.02044678,0.9967651,-34.13469,-0.8179932,-27.51405,4.003754,0.5635784,0.5967808000000001,0.8605146999999999,0.1089325,0.06626892,0.9918213,33.39703,-1.253174,-26.35481,4.230606,0.4563318,0.5918345,-0.4108562,0.9902292,-0.1022588,-0.04695298,0.8774168,0.2132327,0.4768646,-3.057755,28.27
3,0.09484863,0.04559326,0.9944458,0.9844464,0.07766724,0.02044678,0.9967651,-34.13469,-0.8179932,-27.51405,4.003754,0.5635784,0.5967808000000001,0.8605146999999999,0.1089325,0.06626892,0.9918213,33.39703,-1.253174,-26.35481,4.230606,0.4563318,0.5918345,-0.4108562,0.9902292,-0.1022588,-0.04695298,0.8774168,0.2132327,0.4768646,-3.057755,28.27
3,0.09484863,0.04559326,0.9944458,0.9876964,0.07766724,0.02044678,0.9967651,-34.13469,-0.8179932,-27.51405,4.003754,0.5635784,0.5967808000000001,0.883234,0.1089325,0.06626892,0.9918213,33.39703,-1.253174,-26.35481,4.230606,0.4563318,0.5918345,-0.4084302,0.9901263,-0.09922613,-0.04353908,0.8746686,0.21597,0.4768646,-3.057755,28.27
3,0.09484863,0.04559326,0.9944458,0.9876964,0.07766724,0.02044678,0.9967651,-34.13469,-0.8179932,-27.51405,4.003754,0.5635784,0.5967808000000001,0.883234,0.1089325,0.06626892,0.9918213,33.39703,-1.253174,-26.35481,4.230606,0.4563318,0.5918345,-0.4084302,0.9901263,-0.09922613,-0.04353908,0.8746686,0.21597,0.4768646,-3.057755,28.27
3,0.09484863,0.04559326,0.9944458,0.9876964,0.07766724,0.02044678,0.9967651,-34.13469,-0.8179932,-27.51405,4.003754,0.5635784,0.5967808000000001,0.883234,0.1089325,0.06626892,0.9918213,33.39703,-1.253174,-26.35481,4.230606,0.4563318,0.5918345,-0.4084302,0.9901263,-0.09922613,-0.04353908,0.8746686,0.21597,0.4768646,-3.057755,28.27
3,0.09484863,0.04559326,0.9944458,0.9876964,0.07766724,0.02044678,0.9967651,-34.13469,-0.8179932,-27.51405,4.003754,0.5635784,0.5967808000000001,0.883234,0.1089325,0.06626892,0.9918213,33.39703,-1.253174,-26.35481,4.230606,0.4563318,0.5918345,-0.406377,0.9900087,-0.09632131,-0.04023046,0.8718548,0.2191098,0.4768646,-3.057755,28.27
3,0.09484863,0.04559326,0.9944458,0.9876964,0.07766724,0.02044678,0.9967651,-34.13469,-0.8179932,-27.51405,4.003754,0.5635784,0.5967808000000001,0.883234,0.1089325,0.06626892,0.9918213,33.39703,-1.253174,-26.35481,4.230606,0.4563318,0.5918345,-0.406377,0.9900087,-0.09632131,-0.04023046,0.8718548,0.2191098,0.4768646,-3.057755,28.27
3,0.09484863,0.04559326,0.9944458,0.9876964,0.07766724,0.02044678,0.9967651,-34.13469,-0.8179932,-27.51405,4.003754,0.5635784,0.5967808000000001,0.883234,0.1089325,0.06626892,0.9918213,33.39703,-1.253174,-26.35481,4.230606,0.4563318,0.5918345,-0.406377,0.9900087,-0.09632131,-0.04023046,0.8718548,0.2191098,0.4768646,-3.057755,28.27
3,0.08752441,0.04844666,0.9949799,1.0,0.0617981,0.01669312,0.9979401,-34.35011,-0.9655762,-27.35677,4.139374,0.5733874,0.6009641,1.0,0.09606934,0.05900574,0.9936218,33.3589,-1.3633879999999998,-26.19904,4.301651000000001,0.459817,0.5952781,-0.4046977,0.9899414,-0.09365347,-0.03721504,0.8688613000000002,0.2219692999999999,0.4768646,-3.057755,28.27
3,0.08752441,0.04844666,0.9949799,1.0,0.0617981,0.01669312,0.9979401,-34.35011,-0.9655762,-27.35677,4.139374,0.5733874,0.6009641,1.0,0.09606934,0.05900574,0.9936218,33.3589,-1.3633879999999998,-26.19904,4.301651000000001,0.459817,0.5952781,-0.4046977,0.9899414,-0.09365347,-0.03721504,0.8688613000000002,0.2219692999999999,0.4768646,-3.057755,28.27
3,0.08752441,0.04844666,0.9949799,1.0,0.0617981,0.01669312,0.9979401,-34.35011,-0.9655762,-27.35677,4.139374,0.5733874,0.6009641,1.0,0.09606934,0.05900574,0.9936218,33.3589,-1.3633879999999998,-26.19904,4.301651000000001,0.459817,0.5952781,-0.4046977,0.9899414,-0.09365347,-0.03721504,0.8688613000000002,0.2219692999999999,0.4768646,-3.057755,28.27
3,0.08299255,0.04954529,0.9953156,1.0,0.0479126,0.01676941,0.998703,-34.3734,-0.8875427,-27.63788,4.10762,0.5767138,0.6010626,1.0,0.08537292,0.05177307,0.9949951,33.29053,-1.312897,-26.33142,4.3190610000000005,0.4639334,0.5961159,-0.4031531,0.9898864,-0.09128955,-0.03502886,0.8661371999999999,0.2246408,0.4768646,-3.057755,28.27
3,0.08299255,0.04954529,0.9953156,1.0,0.0479126,0.01676941,0.998703,-34.3734,-0.8875427,-27.63788,4.10762,0.5767138,0.6010626,1.0,0.08537292,0.05177307,0.9949951,33.29053,-1.312897,-26.33142,4.3190610000000005,0.4639334,0.5961159,-0.4031531,0.9898864,-0.09128955,-0.03502886,0.8661371999999999,0.2246408,0.4768646,-3.057755,28.27
3,0.08299255,0.04954529,0.9953156,1.0,0.0479126,0.01676941,0.998703,-34.3734,-0.8875427,-27.63788,4.10762,0.5767138,0.6010626,1.0,0.08537292,0.05177307,0.9949951,33.29053,-1.312897,-26.33142,4.3190610000000005,0.4639334,0.5961159,-0.4031531,0.9898864,-0.09128955,-0.03502886,0.8661371999999999,0.2246408,0.4768646,-3.057755,28.27
3,0.06764221,0.03736877,0.996994,1.0,0.0448760999999999,0.00920105,0.9989471,-34.40445,-0.8959655999999999,-27.64944,4.155501999999999,0.5782993000000001,0.6027949,1.0,0.07397461,0.04521179,0.9962311,33.188340000000004,-1.376846,-26.18211,4.308533000000001,0.4693085999999999,0.5979038000000001,-0.4019855,0.9900549,-0.08914241,-0.03242512,0.8635582,0.2277881,0.4768646,-11.29736,28.27
3,0.06764221,0.03736877,0.996994,1.0,0.0448760999999999,0.00920105,0.9989471,-34.40445,-0.8959655999999999,-27.64944,4.155501999999999,0.5782993000000001,0.6027949,1.0,0.07397461,0.04521179,0.9962311,33.188340000000004,-1.376846,-26.18211,4.308533000000001,0.4693085999999999,0.5979038000000001,-0.4019855,0.9900549,-0.08914241,-0.03242512,0.8635582,0.2277881,0.4768646,-11.29736,28.27
3,0.06764221,0.03736877,0.996994,1.0,0.0448760999999999,0.00920105,0.9989471,-34.40445,-0.8959655999999999,-27.64944,4.155501999999999,0.5782993000000001,0.6027949,1.0,0.07397461,0.04521179,0.9962311,33.188340000000004,-1.376846,-26.18211,4.308533000000001,0.4693085999999999,0.5979038000000001,-0.4019855,0.9900549,-0.08914241,-0.03242512,0.8635582,0.2277881,0.4768646,-11.29736,28.27
3,0.05110168,0.007263184,0.9986572,1.0,0.05053711,0.0059661869999999,0.998703,-34.464220000000005,-0.9219055,-27.644640000000003,4.1633,0.5793672,0.6041838,1.0,0.06637573,0.04170227,0.9969177,33.10295,-1.292297,-26.469990000000003,4.349411,0.4734889,0.5985289,-0.4009574999999999,0.9902478,-0.08740723,-0.03121314,0.861366,0.2304818,0.4768646,-11.29736,28.27
3,0.05110168,0.007263184,0.9986572,1.0,0.05053711,0.0059661869999999,0.998703,-34.464220000000005,-0.9219055,-27.644640000000003,4.1633,0.5793672,0.6041838,1.0,0.06637573,0.04170227,0.9969177,33.10295,-1.292297,-26.469990000000003,4.349411,0.4734889,0.5985289,-0.4009574999999999,0.9902478,-0.08740723,-0.03121314,0.861366,0.2304818,0.4768646,-11.29736,28.27
3,0.05110168,0.007263184,0.9986572,1.0,0.05053711,0.0059661869999999,0.998703,-34.464220000000005,-0.9219055,-27.644640000000003,4.1633,0.5793672,0.6041838,1.0,0.06637573,0.04170227,0.9969177,33.10295,-1.292297,-26.469990000000003,4.349411,0.4734889,0.5985289,-0.4009574999999999,0.9902478,-0.08740723,-0.03121314,0.861366,0.2304818,0.4768646,-11.29736,28.27
3,0.02993774,-0.01589966,0.9994202,1.0,0.0295105,-0.01628113,0.9994202,-34.589490000000005,-1.041672,-27.47519,4.171799,0.586978,0.6103354999999999,1.0,0.08070374,0.02992249,0.9962769,33.0199,-1.492966,-25.73604,4.402008,0.473888,0.6001171,-0.4002884,0.9902761999999998,-0.08570476,-0.02919612,0.8596681,0.2332578999999999,0.4768646,-11.29736,28.27
3,0.02993774,-0.01589966,0.9994202,1.0,0.0295105,-0.01628113,0.9994202,-34.589490000000005,-1.041672,-27.47519,4.171799,0.586978,0.6103354999999999,1.0,0.08070374,0.02992249,0.9962769,33.0199,-1.492966,-25.73604,4.402008,0.473888,0.6001171,-0.4002884,0.9902761999999998,-0.08570476,-0.02919612,0.8596681,0.2332578999999999,0.4768646,-11.29736,28.27
3,0.02993774,-0.01589966,0.9994202,1.0,0.0295105,-0.01628113,0.9994202,-34.589490000000005,-1.041672,-27.47519,4.171799,0.586978,0.6103354999999999,1.0,0.08070374,0.02992249,0.9962769,33.0199,-1.492966,-25.73604,4.402008,0.473888,0.6001171,-0.4002884,0.9902761999999998,-0.08570476,-0.02919612,0.8596681,0.2332578999999999,0.4768646,-11.29736,28.27
3,0.02833557,-0.01699829,0.9994507,0.9163566,0.0274353,-0.01768494,0.9994659,-34.66547,-0.9173889,-27.79553,4.275894,0.5902026,0.6096887,0.9710571,0.07395935,0.01722717,0.9971008,33.01962,-1.44014,-25.81573,4.170837000000001,0.4749847,0.6010342,-0.3998556,0.9903158,-0.08427194,-0.02666531,0.8584799999999999,0.236066,0.4768646,-11.29736,28.27
3,0.02833557,-0.01699829,0.9994507,0.9163566,0.0274353,-0.01768494,0.9994659,-34.66547,-0.9173889,-27.79553,4.275894,0.5902026,0.6096887,0.9710571,0.07395935,0.01722717,0.9971008,33.01962,-1.44014,-25.81573,4.170837000000001,0.4749847,0.6010342,-0.3998556,0.9903158,-0.08427194,-0.02666531,0.8584799999999999,0.236066,0.4768646,-11.29736,28.27
3,0.02833557,-0.01699829,0.9994507,0.9163566,0.0274353,-0.01768494,0.9994659,-34.66547,-0.9173889,-27.79553,4.275894,0.5902026,0.6096887,0.9710571,0.07395935,0.01722717,0.9971008,33.01962,-1.44014,-25.81573,4.170837000000001,0.4749847,0.6010342,-0.3998556,0.9903158,-0.08427194,-0.02666531,0.8584799999999999,0.236066,0.4768646,-11.29736,28.27
3,-1.0,-1.0,-1.0,0.1640271,0.0,0.0,0.0,-34.68143,-0.6671906,-27.9677,-1.0,0.6242579,0.7170863000000001,0.0,0.0,0.0,0.0,33.07825,-1.081467,-26.14745,-1.0,-1.0,-1.0,-0.3995977,0.9905148,-0.08290331,-0.0250928,0.8577632,0.2387045,0.4768646,-11.29736,28.27
3,-1.0,-1.0,-1.0,0.1640271,0.0,0.0,0.0,-34.68143,-0.6671906,-27.9677,-1.0,0.6242579,0.7170863000000001,0.0,0.0,0.0,0.0,33.07825,-1.081467,-26.14745,-1.0,-1.0,-1.0,-0.3995977,0.9905148,-0.08290331,-0.0250928,0.8577632,0.2387045,0.4768646,-11.29736,28.27
3,-1.0,-1.0,-1.0,0.1640271,0.0,0.0,0.0,-34.68143,-0.6671906,-27.9677,-1.0,0.6242579,0.7170863000000001,0.0,0.0,0.0,0.0,33.07825,-1.081467,-26.14745,-1.0,-1.0,-1.0,-0.3995977,0.9905148,-0.08290331,-0.0250928,0.8577632,0.2387045,0.4768646,-11.29736,28.27
3,-1.0,-1.0,-1.0,0.04512314,0.0,0.0,0.0,-34.68143,-0.6671906,-27.9677,-1.0,0.5957009,0.6842774,0.0,0.0,0.0,0.0,33.07825,-1.081467,-26.14745,-1.0,-1.0,-1.0,-0.3994569,0.9908711,-0.08191691,-0.02371607,0.8573360000000001,0.2418326,0.4768646,2.97438,28.27
3,-1.0,-1.0,-1.0,0.04512314,0.0,0.0,0.0,-34.68143,-0.6671906,-27.9677,-1.0,0.5957009,0.6842774,0.0,0.0,0.0,0.0,33.07825,-1.081467,-26.14745,-1.0,-1.0,-1.0,-0.3994569,0.9908711,-0.08191691,-0.02371607,0.8573360000000001,0.2418326,0.4768646,2.97438,28.27
3,-1.0,-1.0,-1.0,0.04512314,0.0,0.0,0.0,-34.68143,-0.6671906,-27.9677,-1.0,0.5957009,0.6842774,0.0,0.0,0.0,0.0,33.07825,-1.081467,-26.14745,-1.0,-1.0,-1.0,-0.3994569,0.9908711,-0.08191691,-0.02371607,0.8573360000000001,0.2418326,0.4768646,2.97438,28.27
3,-1.0,-1.0,-1.0,0.2835871,0.0,0.0,0.0,-35.39699,-0.8090056999999999,-27.215940000000003,-1.0,0.631185,0.6462238,0.0,0.0,0.0,0.0,33.07825,-1.081467,-26.14745,-1.0,-1.0,-1.0,-0.3994634,0.9910591,-0.0809579,-0.02212506,0.8571363999999999,0.2443696,0.4768646,2.97438,28.27
3,-1.0,-1.0,-1.0,0.2835871,0.0,0.0,0.0,-35.39699,-0.8090056999999999,-27.215940000000003,-1.0,0.631185,0.6462238,0.0,0.0,0.0,0.0,33.07825,-1.081467,-26.14745,-1.0,-1.0,-1.0,-0.3994634,0.9910591,-0.0809579,-0.02212506,0.8571363999999999,0.2443696,0.4768646,2.97438,28.27
3,-1.0,-1.0,-1.0,0.2835871,0.0,0.0,0.0,-35.39699,-0.8090056999999999,-27.215940000000003,-1.0,0.631185,0.6462238,0.0,0.0,0.0,0.0,33.07825,-1.081467,-26.14745,-1.0,-1.0,-1.0,-0.3994634,0.9910591,-0.0809579,-0.02212506,0.8571363999999999,0.2443696,0.4768646,2.97438,28.27
3,-1.0,-1.0,-1.0,0.9391596,0.0,0.0,0.0,-35.396440000000005,-1.107178,-27.336,-1.0,0.633894,0.6116657,0.7928618000000001,0.0,0.0,0.0,32.2982,-1.262848,-26.26762,-1.0,0.5204507,0.5998541000000001,-0.3996777999999999,0.9911879,-0.07998575,-0.01963094,0.8564098,0.2482869,0.4768646,2.97438,28.27
3,-1.0,-1.0,-1.0,0.9391596,0.0,0.0,0.0,-35.396440000000005,-1.107178,-27.336,-1.0,0.633894,0.6116657,0.7928618000000001,0.0,0.0,0.0,32.2982,-1.262848,-26.26762,-1.0,0.5204507,0.5998541000000001,-0.3996777999999999,0.9911879,-0.07998575,-0.01963094,0.8564098,0.2482869,0.4768646,2.97438,28.27
3,-1.0,-1.0,-1.0,0.9391596,0.0,0.0,0.0,-35.396440000000005,-1.107178,-27.336,-1.0,0.633894,0.6116657,0.7928618000000001,0.0,0.0,0.0,32.2982,-1.262848,-26.26762,-1.0,0.5204507,0.5998541000000001,-0.3996777999999999,0.9911879,-0.07998575,-0.01963094,0.8564098,0.2482869,0.4768646,2.97438,28.27
3,-0.08155823,-0.02824402,0.9962616,0.9523895,-0.08547974,-0.03175354,0.9958190999999998,-35.39989,-1.225723,-27.14406,3.884735,0.6331952,0.6160626,0.8625392,-0.05192566,-0.0017242429999999,0.998642,32.31804,-1.353943,-26.0585,4.008483999999999,0.5198634,0.6038789000000001,-0.3998193,0.9910155,-0.07968137,-0.01946935,0.8558210999999999,0.2486496,0.4768646,2.97438,28.27
3,-0.08155823,-0.02824402,0.9962616,0.9523895,-0.08547974,-0.03175354,0.9958190999999998,-35.39989,-1.225723,-27.14406,3.884735,0.6331952,0.6160626,0.8625392,-0.05192566,-0.0017242429999999,0.998642,32.31804,-1.353943,-26.0585,4.008483999999999,0.5198634,0.6038789000000001,-0.3998193,0.9910155,-0.07968137,-0.01946935,0.8558210999999999,0.2486496,0.4768646,2.97438,28.27
3,-0.08155823,-0.02824402,0.9962616,0.9523895,-0.08547974,-0.03175354,0.9958190999999998,-35.39989,-1.225723,-27.14406,3.884735,0.6331952,0.6160626,0.8625392,-0.05192566,-0.0017242429999999,0.998642,32.31804,-1.353943,-26.0585,4.008483999999999,0.5198634,0.6038789000000001,-0.3998193,0.9910155,-0.07968137,-0.01946935,0.8558210999999999,0.2486496,0.4768646,2.97438,28.27
3,-0.08155823,-0.02824402,0.9962616,0.9500884,-0.08547974,-0.03175354,0.9958190999999998,-35.39989,-1.225723,-27.14406,3.884735,0.6331952,0.6160626,0.9156127,-0.05192566,-0.0017242429999999,0.998642,32.31804,-1.353943,-26.0585,4.008483999999999,0.5198634,0.6038789000000001,-0.3997803,0.9907261,-0.07975879,-0.01888819,0.8547652,0.2481413999999999,0.4768646,25.03745,28.27
3,-0.08155823,-0.02824402,0.9962616,0.9500884,-0.08547974,-0.03175354,0.9958190999999998,-35.39989,-1.225723,-27.14406,3.884735,0.6331952,0.6160626,0.9156127,-0.05192566,-0.0017242429999999,0.998642,32.31804,-1.353943,-26.0585,4.008483999999999,0.5198634,0.6038789000000001,-0.3997803,0.9907261,-0.07975879,-0.01888819,0.8547652,0.2481413999999999,0.4768646,25.03745,28.27
3,-0.08155823,-0.02824402,0.9962616,0.9500884,-0.08547974,-0.03175354,0.9958190999999998,-35.39989,-1.225723,-27.14406,3.884735,0.6331952,0.6160626,0.9156127,-0.05192566,-0.0017242429999999,0.998642,32.31804,-1.353943,-26.0585,4.008483999999999,0.5198634,0.6038789000000001,-0.3997803,0.9907261,-0.07975879,-0.01888819,0.8547652,0.2481413999999999,0.4768646,25.03745,28.27
3,-0.08155823,-0.02824402,0.9962616,0.9500884,-0.08547974,-0.03175354,0.9958190999999998,-35.39989,-1.225723,-27.14406,3.884735,0.6331952,0.6160626,0.9156127,-0.05192566,-0.0017242429999999,0.998642,32.31804,-1.353943,-26.0585,4.008483999999999,0.5198634,0.6038789000000001,-0.3996361,0.990419,-0.07957411,-0.01888602,0.8534086,0.2465775,0.4768646,25.03745,28.27
3,-0.08155823,-0.02824402,0.9962616,0.9500884,-0.08547974,-0.03175354,0.9958190999999998,-35.39989,-1.225723,-27.14406,3.884735,0.6331952,0.6160626,0.9156127,-0.05192566,-0.0017242429999999,0.998642,32.31804,-1.353943,-26.0585,4.008483999999999,0.5198634,0.6038789000000001,-0.3996361,0.990419,-0.07957411,-0.01888602,0.8534086,0.2465775,0.4768646,25.03745,28.27
3,-0.08155823,-0.02824402,0.9962616,0.9500884,-0.08547974,-0.03175354,0.9958190999999998,-35.39989,-1.225723,-27.14406,3.884735,0.6331952,0.6160626,0.9156127,-0.05192566,-0.0017242429999999,0.998642,32.31804,-1.353943,-26.0585,4.008483999999999,0.5198634,0.6038789000000001,-0.3996361,0.990419,-0.07957411,-0.01888602,0.8534086,0.2465775,0.4768646,25.03745,28.27
3,0.0075531009999999,-0.01437378,0.9998627,1.0,-0.01992798,-0.02124023,0.9995728000000002,-34.89265,-1.297379,-27.26497,3.854813,0.6051941999999999,0.6174904999999999,1.0,0.03161621,-0.008377075,0.9994507,32.71297,-1.588165,-25.87605,3.870285,0.4923552,0.6107295,-0.3993915,0.9897845,-0.07947797,-0.01689561,0.8515951999999999,0.2442819,0.4768646,25.03745,28.27
3,0.0075531009999999,-0.01437378,0.9998627,1.0,-0.01992798,-0.02124023,0.9995728000000002,-34.89265,-1.297379,-27.26497,3.854813,0.6051941999999999,0.6174904999999999,1.0,0.03161621,-0.008377075,0.9994507,32.71297,-1.588165,-25.87605,3.870285,0.4923552,0.6107295,-0.3993915,0.9897845,-0.07947797,-0.01689561,0.8515951999999999,0.2442819,0.4768646,25.03745,28.27
3,0.0075531009999999,-0.01437378,0.9998627,1.0,-0.01992798,-0.02124023,0.9995728000000002,-34.89265,-1.297379,-27.26497,3.854813,0.6051941999999999,0.6174904999999999,1.0,0.03161621,-0.008377075,0.9994507,32.71297,-1.588165,-25.87605,3.870285,0.4923552,0.6107295,-0.3993915,0.9897845,-0.07947797,-0.01689561,0.8515951999999999,0.2442819,0.4768646,25.03745,28.27
3,0.0075531009999999,-0.01437378,0.9998627,0.9343684,-0.01992798,-0.02124023,0.9995728000000002,-34.89265,-1.297379,-27.26497,3.854813,0.6051941999999999,0.6174904999999999,0.9678302,0.03161621,-0.008377075,0.9994507,32.71297,-1.588165,-25.87605,3.870285,0.4923552,0.6107295,-0.3990474,0.98917,-0.07919334,-0.01499131,0.8490908000000001,0.2414637999999999,0.4730211,25.03745,28.27
3,0.0075531009999999,-0.01437378,0.9998627,0.9343684,-0.01992798,-0.02124023,0.9995728000000002,-34.89265,-1.297379,-27.26497,3.854813,0.6051941999999999,0.6174904999999999,0.9678302,0.03161621,-0.008377075,0.9994507,32.71297,-1.588165,-25.87605,3.870285,0.4923552,0.6107295,-0.3990474,0.98917,-0.07919334,-0.01499131,0.8490908000000001,0.2414637999999999,0.4730211,25.03745,28.27
3,0.0075531009999999,-0.01437378,0.9998627,0.9343684,-0.01992798,-0.02124023,0.9995728000000002,-34.89265,-1.297379,-27.26497,3.854813,0.6051941999999999,0.6174904999999999,0.9678302,0.03161621,-0.008377075,0.9994507,32.71297,-1.588165,-25.87605,3.870285,0.4923552,0.6107295,-0.3990474,0.98917,-0.07919334,-0.01499131,0.8490908000000001,0.2414637999999999,0.4730211,25.03745,28.27
3,0.0075531009999999,-0.01437378,0.9998627,0.9343684,-0.01992798,-0.02124023,0.9995728000000002,-34.89265,-1.297379,-27.26497,3.854813,0.6051941999999999,0.6174904999999999,0.9678302,0.03161621,-0.008377075,0.9994507,32.71297,-1.588165,-25.87605,3.870285,0.4923552,0.6107295,-0.3984482,0.9885601,-0.07875261,-0.01311958,0.8460091000000001,0.2392461,0.4730211,25.03745,28.27
3,0.0075531009999999,-0.01437378,0.9998627,0.9343684,-0.01992798,-0.02124023,0.9995728000000002,-34.89265,-1.297379,-27.26497,3.854813,0.6051941999999999,0.6174904999999999,0.9678302,0.03161621,-0.008377075,0.9994507,32.71297,-1.588165,-25.87605,3.870285,0.4923552,0.6107295,-0.3984482,0.9885601,-0.07875261,-0.01311958,0.8460091000000001,0.2392461,0.4730211,25.03745,28.27
3,0.0075531009999999,-0.01437378,0.9998627,0.9343684,-0.01992798,-0.02124023,0.9995728000000002,-34.89265,-1.297379,-27.26497,3.854813,0.6051941999999999,0.6174904999999999,0.9678302,0.03161621,-0.008377075,0.9994507,32.71297,-1.588165,-25.87605,3.870285,0.4923552,0.6107295,-0.3984482,0.9885601,-0.07875261,-0.01311958,0.8460091000000001,0.2392461,0.4730211,25.03745,28.27
3,0.1593933,-0.04162598,0.9863281,0.9343684,0.1232299999999999,-0.06434631,0.9902802,-33.95413,-1.12532,-28.11162,3.878632,0.5503318,0.6276149999999999,0.9678302,0.1795197,-0.02888489,0.9833221,33.26735,-2.036362,-24.73582,4.036896,0.4488753,0.6184244000000001,-0.3978149,0.9881142,-0.07835647,-0.01218871,0.8427043,0.2369371,0.4730211,25.03745,28.27
3,0.1593933,-0.04162598,0.9863281,0.9343684,0.1232299999999999,-0.06434631,0.9902802,-33.95413,-1.12532,-28.11162,3.878632,0.5503318,0.6276149999999999,0.9678302,0.1795197,-0.02888489,0.9833221,33.26735,-2.036362,-24.73582,4.036896,0.4488753,0.6184244000000001,-0.3978149,0.9881142,-0.07835647,-0.01218871,0.8427043,0.2369371,0.4730211,5.128296,28.27
3,0.1593933,-0.04162598,0.9863281,0.9343684,0.1232299999999999,-0.06434631,0.9902802,-33.95413,-1.12532,-28.11162,3.878632,0.5503318,0.6276149999999999,0.9678302,0.1795197,-0.02888489,0.9833221,33.26735,-2.036362,-24.73582,4.036896,0.4488753,0.6184244000000001,-0.3978149,0.9881142,-0.07835647,-0.01218871,0.8427043,0.2369371,0.4730211,5.128296,28.27
3,0.3829192999999999,-0.08482361,0.9198761,0.9840735,0.3829192999999999,-0.08482361,0.9198761,-32.97701,-1.382965,-27.80449,3.882904,0.4730666,0.6394991999999999,0.9175305,0.4042206,-0.03952026,0.9138031,34.52597,-1.7705080000000002,-26.42159,4.001205000000001,0.3666334,0.6309186999999999,-0.3972339,0.9877366,-0.0779278,-0.01161594,0.8395548,0.23553,0.4730211,-27.29536,28.27
3,0.3829192999999999,-0.08482361,0.9198761,0.9840735,0.3829192999999999,-0.08482361,0.9198761,-32.97701,-1.382965,-27.80449,3.882904,0.4730666,0.6394991999999999,0.9175305,0.4042206,-0.03952026,0.9138031,34.52597,-1.7705080000000002,-26.42159,4.001205000000001,0.3666334,0.6309186999999999,-0.3972339,0.9877366,-0.0779278,-0.01161594,0.8395548,0.23553,0.4730211,-27.29536,28.27
3,0.3829192999999999,-0.08482361,0.9198761,0.9840735,0.3829192999999999,-0.08482361,0.9198761,-32.97701,-1.382965,-27.80449,3.882904,0.4730666,0.6394991999999999,0.9175305,0.4042206,-0.03952026,0.9138031,34.52597,-1.7705080000000002,-26.42159,4.001205000000001,0.3666334,0.6309186999999999,-0.3972339,0.9877366,-0.0779278,-0.01161594,0.8395548,0.23553,0.4730211,-27.29536,28.27
3,0.3803406,-0.07107544,0.9221039,1.0,0.3667908,-0.09008789,0.9259186,-33.085770000000004,-1.375732,-27.76018,3.854004,0.4795164,0.6394406,1.0,0.3921967,-0.05418396,0.9182739,34.44875,-1.788864,-26.38498,4.033371,0.3714837,0.6335444,-0.3966835999999999,0.9874173,-0.07770099,-0.01040502,0.8366548,0.2342757,0.4730211,-27.29536,28.27
3,0.3803406,-0.07107544,0.9221039,1.0,0.3667908,-0.09008789,0.9259186,-33.085770000000004,-1.375732,-27.76018,3.854004,0.4795164,0.6394406,1.0,0.3921967,-0.05418396,0.9182739,34.44875,-1.788864,-26.38498,4.033371,0.3714837,0.6335444,-0.3966835999999999,0.9874173,-0.07770099,-0.01040502,0.8366548,0.2342757,0.4730211,-27.29536,28.27
3,0.3803406,-0.07107544,0.9221039,1.0,0.3667908,-0.09008789,0.9259186,-33.085770000000004,-1.375732,-27.76018,3.854004,0.4795164,0.6394406,1.0,0.3921967,-0.05418396,0.9182739,34.44875,-1.788864,-26.38498,4.033371,0.3714837,0.6335444,-0.3966835999999999,0.9874173,-0.07770099,-0.01040502,0.8366548,0.2342757,0.4730211,-27.29536,28.27
3,0.3764954,-0.07014465,0.9237518,0.9730802,0.3665466,-0.09135437,0.9258881,-33.13025,-1.363724,-27.74748,3.874619,0.4810826,0.6391486999999999,0.9395386999999998,0.3852539,-0.05102539,0.9213867,34.43742,-1.795349,-26.37691,4.09848,0.3731529,0.6330526,-0.3960015,0.9871049,-0.07750961,-0.01026262,0.8339527,0.2320873999999999,0.4730211,-27.29536,28.27
3,0.3764954,-0.07014465,0.9237518,0.9730802,0.3665466,-0.09135437,0.9258881,-33.13025,-1.363724,-27.74748,3.874619,0.4810826,0.6391486999999999,0.9395386999999998,0.3852539,-0.05102539,0.9213867,34.43742,-1.795349,-26.37691,4.09848,0.3731529,0.6330526,-0.3960015,0.9871049,-0.07750961,-0.01026262,0.8339527,0.2320873999999999,0.4730211,-27.29536,28.27
3,0.3764954,-0.07014465,0.9237518,0.9730802,0.3665466,-0.09135437,0.9258881,-33.13025,-1.363724,-27.74748,3.874619,0.4810826,0.6391486999999999,0.9395386999999998,0.3852539,-0.05102539,0.9213867,34.43742,-1.795349,-26.37691,4.09848,0.3731529,0.6330526,-0.3960015,0.9871049,-0.07750961,-0.01026262,0.8339527,0.2320873999999999,0.4730211,-27.29536,28.27
3,0.3764954,-0.07014465,0.9237518,0.9730802,0.3665466,-0.09135437,0.9258881,-33.13025,-1.363724,-27.74748,3.874619,0.4810826,0.6391486999999999,0.9395386999999998,0.3852539,-0.05102539,0.9213867,34.43742,-1.795349,-26.37691,4.09848,0.3731529,0.6330526,-0.3953125,0.9868904,-0.07710713,-0.00985146,0.8314201999999999,0.230561,0.4730211,-27.29536,28.27
3,0.3764954,-0.07014465,0.9237518,0.9730802,0.3665466,-0.09135437,0.9258881,-33.13025,-1.363724,-27.74748,3.874619,0.4810826,0.6391486999999999,0.9395386999999998,0.3852539,-0.05102539,0.9213867,34.43742,-1.795349,-26.37691,4.09848,0.3731529,0.6330526,-0.3953125,0.9868904,-0.07710713,-0.00985146,0.8314201999999999,0.230561,0.4730211,-27.29536,28.27
3,0.3764954,-0.07014465,0.9237518,0.9730802,0.3665466,-0.09135437,0.9258881,-33.13025,-1.363724,-27.74748,3.874619,0.4810826,0.6391486999999999,0.9395386999999998,0.3852539,-0.05102539,0.9213867,34.43742,-1.795349,-26.37691,4.09848,0.3731529,0.6330526,-0.3953125,0.9868904,-0.07710713,-0.00985146,0.8314201999999999,0.230561,0.4730211,-27.29536,28.27
3,0.371933,-0.07173157,0.9254761,0.9730802,0.3618164,-0.0916748,0.9277191,-33.14127,-1.383011,-27.74472,3.983978,0.4823724,0.6398151,0.9395386999999998,0.3808899,-0.05369568,0.9230499,34.43234,-1.796555,-26.373990000000003,4.078659,0.3740863,0.6334288,-0.3945855,0.98656,-0.07672538,-0.008345094,0.8290548000000001,0.2284511,0.4730211,-27.29536,28.27
3,0.371933,-0.07173157,0.9254761,0.9730802,0.3618164,-0.0916748,0.9277191,-33.14127,-1.383011,-27.74472,3.983978,0.4823724,0.6398151,0.9395386999999998,0.3808899,-0.05369568,0.9230499,34.43234,-1.796555,-26.373990000000003,4.078659,0.3740863,0.6334288,-0.3945855,0.98656,-0.07672538,-0.008345094,0.8290548000000001,0.2284511,0.4730211,-27.29536,28.27
3,0.371933,-0.07173157,0.9254761,0.9730802,0.3618164,-0.0916748,0.9277191,-33.14127,-1.383011,-27.74472,3.983978,0.4823724,0.6398151,0.9395386999999998,0.3808899,-0.05369568,0.9230499,34.43234,-1.796555,-26.373990000000003,4.078659,0.3740863,0.6334288,-0.3945855,0.98656,-0.07672538,-0.008345094,0.8290548000000001,0.2284511,0.4730211,-27.29536,28.27
4,0.371933,-0.07173157,0.9254761,0.9730802,0.3618164,-0.0916748,0.9277191,-33.14127,-1.383011,-27.74472,3.983978,0.4823724,0.6398151,0.9395386999999998,0.3808899,-0.05369568,0.9230499,34.43234,-1.796555,-26.373990000000003,4.078659,0.3740863,0.6334288,-0.3936914999999999,0.9863737,-0.07627116,-0.006509908,0.8265868000000001,0.2263974,0.4730211,-19.02214,28.27
4,0.371933,-0.07173157,0.9254761,0.9730802,0.3618164,-0.0916748,0.9277191,-33.14127,-1.383011,-27.74472,3.983978,0.4823724,0.6398151,0.9395386999999998,0.3808899,-0.05369568,0.9230499,34.43234,-1.796555,-26.373990000000003,4.078659,0.3740863,0.6334288,-0.3936914999999999,0.9863737,-0.07627116,-0.006509908,0.8265868000000001,0.2263974,0.4730211,-19.02214,28.27
4,0.371933,-0.07173157,0.9254761,0.9730802,0.3618164,-0.0916748,0.9277191,-33.14127,-1.383011,-27.74472,3.983978,0.4823724,0.6398151,0.9395386999999998,0.3808899,-0.05369568,0.9230499,34.43234,-1.796555,-26.373990000000003,4.078659,0.3740863,0.6334288,-0.3936914999999999,0.9863737,-0.07627116,-0.006509908,0.8265868000000001,0.2263974,0.4730211,-19.02214,28.27
4,0.2885132,-0.07095337,0.954834,0.8408822,0.2885742,-0.0955658,0.9526671999999998,-33.506609999999995,-1.556702,-27.66035,3.66806,0.506944,0.6442481,0.771011,0.2882385,-0.04374695,0.956543,34.18826,-2.021042,-26.28078,3.809647,0.3983692,0.6367491999999999,-0.3929094999999999,0.986091,-0.0755145,-0.004066059,0.8242075999999999,0.2238941,0.4730211,-19.02214,28.27
4,0.2885132,-0.07095337,0.954834,0.8408822,0.2885742,-0.0955658,0.9526671999999998,-33.506609999999995,-1.556702,-27.66035,3.66806,0.506944,0.6442481,0.771011,0.2882385,-0.04374695,0.956543,34.18826,-2.021042,-26.28078,3.809647,0.3983692,0.6367491999999999,-0.3929094999999999,0.986091,-0.0755145,-0.004066059,0.8242075999999999,0.2238941,0.4730211,-19.02214,28.27
4,0.2885132,-0.07095337,0.954834,0.8408822,0.2885742,-0.0955658,0.9526671999999998,-33.506609999999995,-1.556702,-27.66035,3.66806,0.506944,0.6442481,0.771011,0.2882385,-0.04374695,0.956543,34.18826,-2.021042,-26.28078,3.809647,0.3983692,0.6367491999999999,-0.3929094999999999,0.986091,-0.0755145,-0.004066059,0.8242075999999999,0.2238941,0.4730211,-19.02214,28.27
4,0.2750549,-0.06626892,0.959137,0.8438416999999999,0.271225,-0.1031188999999999,0.9569702,-33.56215,-1.531982,-27.64063,3.750259,0.5118502,0.6443733,0.8249205,0.2794647,-0.01843262,0.9599609,34.027590000000004,-1.981903,-26.23151,3.907928,0.4054545,0.630512,-0.3920142,0.9857171,-0.07475553,-0.001323211,0.8219857,0.2205796,0.4730211,-19.02214,28.27
4,0.2750549,-0.06626892,0.959137,0.8438416999999999,0.271225,-0.1031188999999999,0.9569702,-33.56215,-1.531982,-27.64063,3.750259,0.5118502,0.6443733,0.8249205,0.2794647,-0.01843262,0.9599609,34.027590000000004,-1.981903,-26.23151,3.907928,0.4054545,0.630512,-0.3920142,0.9857171,-0.07475553,-0.001323211,0.8219857,0.2205796,0.4730211,-19.02214,28.27
4,0.2750549,-0.06626892,0.959137,0.8438416999999999,0.271225,-0.1031188999999999,0.9569702,-33.56215,-1.531982,-27.64063,3.750259,0.5118502,0.6443733,0.8249205,0.2794647,-0.01843262,0.9599609,34.027590000000004,-1.981903,-26.23151,3.907928,0.4054545,0.630512,-0.3920142,0.9857171,-0.07475553,-0.001323211,0.8219857,0.2205796,0.4730211,-19.02214,28.27
4,0.2698975,-0.06748962,0.9605103000000002,0.8438416999999999,0.2638092,-0.1001281999999999,0.9593506,-33.58145,-1.534027,-27.63229,3.772552,0.5137689999999999,0.6437662,0.8249205,0.2776642,-0.02326965,0.9603882,34.00078,-1.969574,-26.21997,3.910034,0.4066962999999999,0.6307899,-0.3913779,0.9849788,-0.07376422,0.0008631675,0.8202056000000001,0.2169969,0.4730211,-19.02214,28.27
4,0.2698975,-0.06748962,0.9605103000000002,0.8438416999999999,0.2638092,-0.1001281999999999,0.9593506,-33.58145,-1.534027,-27.63229,3.772552,0.5137689999999999,0.6437662,0.8249205,0.2776642,-0.02326965,0.9603882,34.00078,-1.969574,-26.21997,3.910034,0.4066962999999999,0.6307899,-0.3913779,0.9849788,-0.07376422,0.0008631675,0.8202056000000001,0.2169969,0.4730211,-19.02214,28.27
4,0.2698975,-0.06748962,0.9605103000000002,0.8438416999999999,0.2638092,-0.1001281999999999,0.9593506,-33.58145,-1.534027,-27.63229,3.772552,0.5137689999999999,0.6437662,0.8249205,0.2776642,-0.02326965,0.9603882,34.00078,-1.969574,-26.21997,3.910034,0.4066962999999999,0.6307899,-0.3913779,0.9849788,-0.07376422,0.0008631675,0.8202056000000001,0.2169969,0.4730211,-19.02214,28.27
4,0.2302094,-0.07489014,0.9702454,0.7347148,0.223877,-0.09222412,0.9702301,-33.7632,-1.468689,-27.59897,3.71347,0.5265906,0.6393981,0.7840808000000001,0.2402038999999999,-0.04696655,0.969574,33.79578,-1.901413,-26.13173,3.969162,0.4202342,0.6313863000000001,-0.3908612999999999,0.9843532,-0.07304491,0.00303462,0.8184644,0.2145127999999999,0.4730211,-19.02214,28.27
4,0.2302094,-0.07489014,0.9702454,0.7347148,0.223877,-0.09222412,0.9702301,-33.7632,-1.468689,-27.59897,3.71347,0.5265906,0.6393981,0.7840808000000001,0.2402038999999999,-0.04696655,0.969574,33.79578,-1.901413,-26.13173,3.969162,0.4202342,0.6313863000000001,-0.3908612999999999,0.9843532,-0.07304491,0.00303462,0.8184644,0.2145127999999999,0.4730211,-19.02214,28.27
4,0.2302094,-0.07489014,0.9702454,0.7347148,0.223877,-0.09222412,0.9702301,-33.7632,-1.468689,-27.59897,3.71347,0.5265906,0.6393981,0.7840808000000001,0.2402038999999999,-0.04696655,0.969574,33.79578,-1.901413,-26.13173,3.969162,0.4202342,0.6313863000000001,-0.3908612999999999,0.9843532,-0.07304491,0.00303462,0.8184644,0.2145127999999999,0.4730211,-19.02214,28.27
4,0.2060393999999999,-0.07244873,0.9758453,0.7574036999999999,0.1944733,-0.09228516,0.9765472,-33.87555,-1.444351,-27.59492,3.578796,0.5352614,0.638221,0.7952226,0.2239989999999999,-0.04118347,0.9737091,33.61392,-1.879654,-26.00705,3.756073,0.4291199,0.6280992,-0.3901268,0.9838039,-0.07229732,0.004726975,0.8171791,0.2122757,0.4730211,-6.097,28.27
4,0.2060393999999999,-0.07244873,0.9758453,0.7574036999999999,0.1944733,-0.09228516,0.9765472,-33.87555,-1.444351,-27.59492,3.578796,0.5352614,0.638221,0.7952226,0.2239989999999999,-0.04118347,0.9737091,33.61392,-1.879654,-26.00705,3.756073,0.4291199,0.6280992,-0.3901268,0.9838039,-0.07229732,0.004726975,0.8171791,0.2122757,0.4730211,-6.097,28.27
4,0.2060393999999999,-0.07244873,0.9758453,0.7574036999999999,0.1944733,-0.09228516,0.9765472,-33.87555,-1.444351,-27.59492,3.578796,0.5352614,0.638221,0.7952226,0.2239989999999999,-0.04118347,0.9737091,33.61392,-1.879654,-26.00705,3.756073,0.4291199,0.6280992,-0.3901268,0.9838039,-0.07229732,0.004726975,0.8171791,0.2122757,0.4730211,-6.097,28.27
4,0.1759186,-0.06765747,0.9820709,0.7447256999999999,0.1674194,-0.08502197,0.9822083,-33.96176,-1.39299,-27.62698,3.682831,0.5427960999999999,0.6354310999999999,0.7791967,0.1937866,-0.03065491,0.9805603,33.60895,-1.893021,-25.91515,3.781464,0.4344977,0.6255578,-0.389435,0.9835025,-0.07166393,0.006191986,0.8162524999999999,0.2104734,0.4730211,-6.097,28.27
4,0.1759186,-0.06765747,0.9820709,0.7447256999999999,0.1674194,-0.08502197,0.9822083,-33.96176,-1.39299,-27.62698,3.682831,0.5427960999999999,0.6354310999999999,0.7791967,0.1937866,-0.03065491,0.9805603,33.60895,-1.893021,-25.91515,3.781464,0.4344977,0.6255578,-0.389435,0.9835025,-0.07166393,0.006191986,0.8162524999999999,0.2104734,0.4730211,-6.097,28.27
4,0.1759186,-0.06765747,0.9820709,0.7447256999999999,0.1674194,-0.08502197,0.9822083,-33.96176,-1.39299,-27.62698,3.682831,0.5427960999999999,0.6354310999999999,0.7791967,0.1937866,-0.03065491,0.9805603,33.60895,-1.893021,-25.91515,3.781464,0.4344977,0.6255578,-0.389435,0.9835025,-0.07166393,0.006191986,0.8162524999999999,0.2104734,0.4730211,-6.097,28.27
4,0.1777191,-0.04898071,0.9828491,0.5623102,0.1592255,-0.0604248,0.9853821,-34.0554,-1.406982,-27.78931,3.91835,0.5475065,0.6334046999999999,0.5980546999999999,0.1888123,-0.04208374,0.9810944,33.666,-1.954605,-25.96939,3.852768,0.4334092,0.6301665,-0.3888397999999999,0.9836218,-0.07085858,0.007187651,0.8152047,0.2096775,0.4730211,-6.097,28.27
4,0.1777191,-0.04898071,0.9828491,0.5623102,0.1592255,-0.0604248,0.9853821,-34.0554,-1.406982,-27.78931,3.91835,0.5475065,0.6334046999999999,0.5980546999999999,0.1888123,-0.04208374,0.9810944,33.666,-1.954605,-25.96939,3.852768,0.4334092,0.6301665,-0.3888397999999999,0.9836218,-0.07085858,0.007187651,0.8152047,0.2096775,0.4730211,-6.097,28.27
4,0.1777191,-0.04898071,0.9828491,0.5623102,0.1592255,-0.0604248,0.9853821,-34.0554,-1.406982,-27.78931,3.91835,0.5475065,0.6334046999999999,0.5980546999999999,0.1888123,-0.04208374,0.9810944,33.666,-1.954605,-25.96939,3.852768,0.4334092,0.6301665,-0.3888397999999999,0.9836218,-0.07085858,0.007187651,0.8152047,0.2096775,0.4730211,-6.097,28.27
4,0.1768188,-0.04270935,0.9833069,0.458164,0.1599121,-0.02778625,0.9867249,-34.05659,-1.479111,-27.83717,3.972229,0.5474265,0.6307321,0.4886954,0.1826323999999999,-0.04785156,0.9820099,33.64462,-2.052185,-25.96588,3.903,0.435177,0.6344221,-0.3881825,0.9831985,-0.07007426,0.01002092,0.8143224,0.2079542999999999,0.4730211,-6.097,28.27
4,0.1768188,-0.04270935,0.9833069,0.458164,0.1599121,-0.02778625,0.9867249,-34.05659,-1.479111,-27.83717,3.972229,0.5474265,0.6307321,0.4886954,0.1826323999999999,-0.04785156,0.9820099,33.64462,-2.052185,-25.96588,3.903,0.435177,0.6344221,-0.3881825,0.9831985,-0.07007426,0.01002092,0.8143224,0.2079542999999999,0.4730211,-6.097,28.27
4,0.1768188,-0.04270935,0.9833069,0.458164,0.1599121,-0.02778625,0.9867249,-34.05659,-1.479111,-27.83717,3.972229,0.5474265,0.6307321,0.4886954,0.1826323999999999,-0.04785156,0.9820099,33.64462,-2.052185,-25.96588,3.903,0.435177,0.6344221,-0.3881825,0.9831985,-0.07007426,0.01002092,0.8143224,0.2079542999999999,0.4730211,-6.097,28.27
4,0.1676177999999999,-0.04060364,0.9850006,0.3998964,0.1458435,-0.04194641,0.9884033,-34.14481,-1.6298979999999998,-27.85312,3.93425,0.5527938,0.6383398,0.4512022,0.1781769,-0.03994751,0.9831848,33.53366,-2.141159,-25.88492,4.025894,0.4397464,0.6353191999999999,-0.3875318,0.9821501,-0.069392,0.0130117999999999,0.8138301,0.2048092999999999,0.4730211,-6.097,28.27
4,0.1676177999999999,-0.04060364,0.9850006,0.3998964,0.1458435,-0.04194641,0.9884033,-34.14481,-1.6298979999999998,-27.85312,3.93425,0.5527938,0.6383398,0.4512022,0.1781769,-0.03994751,0.9831848,33.53366,-2.141159,-25.88492,4.025894,0.4397464,0.6353191999999999,-0.3875318,0.9821501,-0.069392,0.0130117999999999,0.8138301,0.2048092999999999,0.4730211,-6.097,28.27
4,0.1676177999999999,-0.04060364,0.9850006,0.3998964,0.1458435,-0.04194641,0.9884033,-34.14481,-1.6298979999999998,-27.85312,3.93425,0.5527938,0.6383398,0.4512022,0.1781769,-0.03994751,0.9831848,33.53366,-2.141159,-25.88492,4.025894,0.4397464,0.6353191999999999,-0.3875318,0.9821501,-0.069392,0.0130117999999999,0.8138301,0.2048092999999999,0.4730211,-6.097,28.27
4,0.1676177999999999,-0.04060364,0.9850006,0.4493930999999999,0.1458435,-0.04194641,0.9884033,-34.14481,-1.6298979999999998,-27.85312,3.93425,0.5527938,0.6383398,0.501365,0.1781769,-0.03994751,0.9831848,33.53366,-2.141159,-25.88492,4.025894,0.4397464,0.6353191999999999,-0.3868619,0.9813749,-0.06861971,0.01519763,0.8135471,0.2026905,0.4730211,-7.105774,28.27
4,0.1676177999999999,-0.04060364,0.9850006,0.4493930999999999,0.1458435,-0.04194641,0.9884033,-34.14481,-1.6298979999999998,-27.85312,3.93425,0.5527938,0.6383398,0.501365,0.1781769,-0.03994751,0.9831848,33.53366,-2.141159,-25.88492,4.025894,0.4397464,0.6353191999999999,-0.3868619,0.9813749,-0.06861971,0.01519763,0.8135471,0.2026905,0.4730211,-7.105774,28.27
4,0.1676177999999999,-0.04060364,0.9850006,0.4493930999999999,0.1458435,-0.04194641,0.9884033,-34.14481,-1.6298979999999998,-27.85312,3.93425,0.5527938,0.6383398,0.501365,0.1781769,-0.03994751,0.9831848,33.53366,-2.141159,-25.88492,4.025894,0.4397464,0.6353191999999999,-0.3868619,0.9813749,-0.06861971,0.01519763,0.8135471,0.2026905,0.4730211,-7.105774,28.27
4,0.1676177999999999,-0.04060364,0.9850006,0.4493930999999999,0.1458435,-0.04194641,0.9884033,-34.14481,-1.6298979999999998,-27.85312,3.93425,0.5527938,0.6383398,0.501365,0.1781769,-0.03994751,0.9831848,33.53366,-2.141159,-25.88492,4.025894,0.4397464,0.6353191999999999,-0.3859437,0.9811467,-0.06773748,0.01756668,0.8125131,0.202901,0.4730211,-7.105774,28.27
4,0.1676177999999999,-0.04060364,0.9850006,0.4493930999999999,0.1458435,-0.04194641,0.9884033,-34.14481,-1.6298979999999998,-27.85312,3.93425,0.5527938,0.6383398,0.501365,0.1781769,-0.03994751,0.9831848,33.53366,-2.141159,-25.88492,4.025894,0.4397464,0.6353191999999999,-0.3859437,0.9811467,-0.06773748,0.01756668,0.8125131,0.202901,0.4730211,-7.105774,28.27
4,0.1676177999999999,-0.04060364,0.9850006,0.4493930999999999,0.1458435,-0.04194641,0.9884033,-34.14481,-1.6298979999999998,-27.85312,3.93425,0.5527938,0.6383398,0.501365,0.1781769,-0.03994751,0.9831848,33.53366,-2.141159,-25.88492,4.025894,0.4397464,0.6353191999999999,-0.3859437,0.9811467,-0.06773748,0.01756668,0.8125131,0.202901,0.4730211,-7.105774,28.27
4,0.1516112999999999,-0.04193115,0.9875488,0.5608754,0.1373901,-0.04472351,0.989502,-34.18275,-1.538162,-28.06261,3.885971,0.5556182,0.6377805000000001,0.5722324000000001,0.1724854,-0.03781128,0.9842834,33.44644,-2.168045,-25.61681,4.00882,0.4437318,0.6331063,-0.3852217,0.9807931,-0.06712276,0.01970632,0.811814,0.2027581,0.4730211,-7.105774,28.27
4,0.1516112999999999,-0.04193115,0.9875488,0.5608754,0.1373901,-0.04472351,0.989502,-34.18275,-1.538162,-28.06261,3.885971,0.5556182,0.6377805000000001,0.5722324000000001,0.1724854,-0.03781128,0.9842834,33.44644,-2.168045,-25.61681,4.00882,0.4437318,0.6331063,-0.3852217,0.9807931,-0.06712276,0.01970632,0.811814,0.2027581,0.4730211,-7.105774,28.27
4,0.1516112999999999,-0.04193115,0.9875488,0.5608754,0.1373901,-0.04472351,0.989502,-34.18275,-1.538162,-28.06261,3.885971,0.5556182,0.6377805000000001,0.5722324000000001,0.1724854,-0.03781128,0.9842834,33.44644,-2.168045,-25.61681,4.00882,0.4437318,0.6331063,-0.3852217,0.9807931,-0.06712276,0.01970632,0.811814,0.2027581,0.4730211,-7.105774,28.27
4,0.1516112999999999,-0.04193115,0.9875488,0.5608754,0.1373901,-0.04472351,0.989502,-34.18275,-1.538162,-28.06261,3.885971,0.5556182,0.6377805000000001,0.5722324000000001,0.1724854,-0.03781128,0.9842834,33.44644,-2.168045,-25.61681,4.00882,0.4437318,0.6331063,-0.3846055999999999,0.980568,-0.06655698,0.02111446,0.8112951999999999,0.2024384,0.4730211,-7.105774,28.27
4,0.1516112999999999,-0.04193115,0.9875488,0.5608754,0.1373901,-0.04472351,0.989502,-34.18275,-1.538162,-28.06261,3.885971,0.5556182,0.6377805000000001,0.5722324000000001,0.1724854,-0.03781128,0.9842834,33.44644,-2.168045,-25.61681,4.00882,0.4437318,0.6331063,-0.3846055999999999,0.980568,-0.06655698,0.02111446,0.8112951999999999,0.2024384,0.4730211,-7.105774,28.27
4,0.1516112999999999,-0.04193115,0.9875488,0.5608754,0.1373901,-0.04472351,0.989502,-34.18275,-1.538162,-28.06261,3.885971,0.5556182,0.6377805000000001,0.5722324000000001,0.1724854,-0.03781128,0.9842834,33.44644,-2.168045,-25.61681,4.00882,0.4437318,0.6331063,-0.3846055999999999,0.980568,-0.06655698,0.02111446,0.8112951999999999,0.2024384,0.4730211,-7.105774,28.27
4,0.1917114,-0.06060791,0.9795685,0.7568085999999999,0.1917114,-0.06060791,0.9795685,-33.83391,-1.296082,-27.79526,3.766998000000001,0.5344831,0.6298267,0.7167323,0.2225342,-0.01683044,0.974762,33.64815,-1.82988,-25.7337,3.873611,0.4284098,0.6195276,-0.3840151,0.9805315999999998,-0.0661132,0.02197367,0.8110958,0.2020642999999999,0.4730211,-7.105774,28.27
4,0.1917114,-0.06060791,0.9795685,0.7568085999999999,0.1917114,-0.06060791,0.9795685,-33.83391,-1.296082,-27.79526,3.766998000000001,0.5344831,0.6298267,0.7167323,0.2225342,-0.01683044,0.974762,33.64815,-1.82988,-25.7337,3.873611,0.4284098,0.6195276,-0.3840151,0.9805315999999998,-0.0661132,0.02197367,0.8110958,0.2020642999999999,0.4730211,-7.105774,28.27
4,0.1917114,-0.06060791,0.9795685,0.7568085999999999,0.1917114,-0.06060791,0.9795685,-33.83391,-1.296082,-27.79526,3.766998000000001,0.5344831,0.6298267,0.7167323,0.2225342,-0.01683044,0.974762,33.64815,-1.82988,-25.7337,3.873611,0.4284098,0.6195276,-0.3840151,0.9805315999999998,-0.0661132,0.02197367,0.8110958,0.2020642999999999,0.4730211,-7.105774,28.27
4,0.1938477,-0.05142212,0.9796753,0.7937142,0.1938324,-0.05142212,0.9796753,-33.864290000000004,-1.278885,-27.82535,3.973404,0.5352670999999999,0.6281291,0.7619857,0.2211456,-0.01219177,0.9751587,33.63632,-1.828491,-25.73401,4.038223,0.4291367999999999,0.6188064999999999,-0.3834515,0.9803559,-0.06567924,0.02335279,0.8109143,0.2019266,0.4730211,5.580505,28.27
4,0.1938477,-0.05142212,0.9796753,0.7937142,0.1938324,-0.05142212,0.9796753,-33.864290000000004,-1.278885,-27.82535,3.973404,0.5352670999999999,0.6281291,0.7619857,0.2211456,-0.01219177,0.9751587,33.63632,-1.828491,-25.73401,4.038223,0.4291367999999999,0.6188064999999999,-0.3834515,0.9803559,-0.06567924,0.02335279,0.8109143,0.2019266,0.4730211,5.580505,28.27
4,0.1938477,-0.05142212,0.9796753,0.7937142,0.1938324,-0.05142212,0.9796753,-33.864290000000004,-1.278885,-27.82535,3.973404,0.5352670999999999,0.6281291,0.7619857,0.2211456,-0.01219177,0.9751587,33.63632,-1.828491,-25.73401,4.038223,0.4291367999999999,0.6188064999999999,-0.3834515,0.9803559,-0.06567924,0.02335279,0.8109143,0.2019266,0.4730211,5.580505,28.27
4,0.2032471,-0.03042603,0.9786377,0.7931501,0.1909637,-0.05023193,0.9803009,-33.8831,-1.279785,-27.83362,4.028076,0.5364223000000001,0.6280690999999999,0.7655671,0.2145538,-0.01203918,0.9766235,33.62743,-1.830582,-25.73262,4.031494,0.4305572,0.6187752,-0.3830275999999999,0.9802608,-0.06533785,0.02435372,0.8107415,0.2018659,0.4730211,5.580505,28.27
4,0.2032471,-0.03042603,0.9786377,0.7931501,0.1909637,-0.05023193,0.9803009,-33.8831,-1.279785,-27.83362,4.028076,0.5364223000000001,0.6280690999999999,0.7655671,0.2145538,-0.01203918,0.9766235,33.62743,-1.830582,-25.73262,4.031494,0.4305572,0.6187752,-0.3830275999999999,0.9802608,-0.06533785,0.02435372,0.8107415,0.2018659,0.4730211,5.580505,28.27
4,0.2032471,-0.03042603,0.9786377,0.7931501,0.1909637,-0.05023193,0.9803009,-33.8831,-1.279785,-27.83362,4.028076,0.5364223000000001,0.6280690999999999,0.7655671,0.2145538,-0.01203918,0.9766235,33.62743,-1.830582,-25.73262,4.031494,0.4305572,0.6187752,-0.3830275999999999,0.9802608,-0.06533785,0.02435372,0.8107415,0.2018659,0.4730211,5.580505,28.27
4,0.1996918,-0.02928162,0.9794159,0.8004352,0.1851959,-0.04928589,0.9814606,-33.90271,-1.276413,-27.84587,4.0298,0.5380597,0.6278735,0.7931578,0.2132874,-0.01037598,0.9769287,33.6217,-1.83432,-25.73189,4.042098999999999,0.430971,0.6186121,-0.3826692,0.9801365,-0.06511672,0.02564261,0.8107006,0.202099,0.4730211,5.580505,28.27
4,0.1996918,-0.02928162,0.9794159,0.8004352,0.1851959,-0.04928589,0.9814606,-33.90271,-1.276413,-27.84587,4.0298,0.5380597,0.6278735,0.7931578,0.2132874,-0.01037598,0.9769287,33.6217,-1.83432,-25.73189,4.042098999999999,0.430971,0.6186121,-0.3826692,0.9801365,-0.06511672,0.02564261,0.8107006,0.202099,0.4730211,5.580505,28.27
4,0.1996918,-0.02928162,0.9794159,0.8004352,0.1851959,-0.04928589,0.9814606,-33.90271,-1.276413,-27.84587,4.0298,0.5380597,0.6278735,0.7931578,0.2132874,-0.01037598,0.9769287,33.6217,-1.83432,-25.73189,4.042098999999999,0.430971,0.6186121,-0.3826692,0.9801365,-0.06511672,0.02564261,0.8107006,0.202099,0.4730211,5.580505,28.27
4,0.1932983,-0.03659058,0.9804535,0.8221474,0.1775665,-0.05097961,0.9827728,-33.94781,-1.259048,-27.87471,4.079315,0.5409139000000001,0.6278735,0.7815916,0.221405,-0.01066589,0.9751129,33.52267,-1.856216,-25.62871,4.133392,0.4330186,0.6185283,-0.3823339,0.9800433,-0.06493658,0.02716222,0.810999,0.2025261,0.4730211,5.580505,28.27
4,0.1932983,-0.03659058,0.9804535,0.8221474,0.1775665,-0.05097961,0.9827728,-33.94781,-1.259048,-27.87471,4.079315,0.5409139000000001,0.6278735,0.7815916,0.221405,-0.01066589,0.9751129,33.52267,-1.856216,-25.62871,4.133392,0.4330186,0.6185283,-0.3823339,0.9800433,-0.06493658,0.02716222,0.810999,0.2025261,0.4730211,5.580505,28.27
4,0.1932983,-0.03659058,0.9804535,0.8221474,0.1775665,-0.05097961,0.9827728,-33.94781,-1.259048,-27.87471,4.079315,0.5409139000000001,0.6278735,0.7815916,0.221405,-0.01066589,0.9751129,33.52267,-1.856216,-25.62871,4.133392,0.4330186,0.6185283,-0.3823339,0.9800433,-0.06493658,0.02716222,0.810999,0.2025261,0.4730211,5.580505,28.27
4,0.1942596,-0.03736877,0.9802246,0.8213093000000001,0.1762085,-0.05389404,0.9828644,-33.967420000000004,-1.246185,-27.88478,4.097961,0.5418246,0.6280504,0.8034992,0.2234344,-0.01040649,0.9746552,33.50359,-1.856216,-25.61301,4.158447,0.4333382,0.6183719,-0.3819278,0.9799443,-0.0648575,0.02876589,0.8111355,0.2028189,0.4730211,5.580505,28.27
4,0.1942596,-0.03736877,0.9802246,0.8213093000000001,0.1762085,-0.05389404,0.9828644,-33.967420000000004,-1.246185,-27.88478,4.097961,0.5418246,0.6280504,0.8034992,0.2234344,-0.01040649,0.9746552,33.50359,-1.856216,-25.61301,4.158447,0.4333382,0.6183719,-0.3819278,0.9799443,-0.0648575,0.02876589,0.8111355,0.2028189,0.4730211,5.580505,28.27
4,0.1942596,-0.03736877,0.9802246,0.8213093000000001,0.1762085,-0.05389404,0.9828644,-33.967420000000004,-1.246185,-27.88478,4.097961,0.5418246,0.6280504,0.8034992,0.2234344,-0.01040649,0.9746552,33.50359,-1.856216,-25.61301,4.158447,0.4333382,0.6183719,-0.3819278,0.9799443,-0.0648575,0.02876589,0.8111355,0.2028189,0.4730211,5.580505,28.27
4,0.1948242,-0.03294373,0.9802704,0.8074715,0.1717833999999999,-0.05299377,0.9837036,-33.99197,-1.2450709999999998,-27.90315,4.131943,0.5434260000000001,0.6280504,0.7992306,0.2196502999999999,-0.0111084,0.9755096,33.49127,-1.8522490000000005,-25.60887,4.175552,0.4344092,0.618294,-0.3817620999999999,0.9798512,-0.06468314,0.03031132,0.8117154999999999,0.2029213,0.4730211,5.580505,28.27
4,0.1948242,-0.03294373,0.9802704,0.8074715,0.1717833999999999,-0.05299377,0.9837036,-33.99197,-1.2450709999999998,-27.90315,4.131943,0.5434260000000001,0.6280504,0.7992306,0.2196502999999999,-0.0111084,0.9755096,33.49127,-1.8522490000000005,-25.60887,4.175552,0.4344092,0.618294,-0.3817620999999999,0.9798512,-0.06468314,0.03031132,0.8117154999999999,0.2029213,0.4730211,5.580505,28.27
4,0.1948242,-0.03294373,0.9802704,0.8074715,0.1717833999999999,-0.05299377,0.9837036,-33.99197,-1.2450709999999998,-27.90315,4.131943,0.5434260000000001,0.6280504,0.7992306,0.2196502999999999,-0.0111084,0.9755096,33.49127,-1.8522490000000005,-25.60887,4.175552,0.4344092,0.618294,-0.3817620999999999,0.9798512,-0.06468314,0.03031132,0.8117154999999999,0.2029213,0.4730211,5.580505,28.27
4,0.1948242,-0.03294373,0.9802704,0.8074715,0.1717833999999999,-0.05299377,0.9837036,-33.99197,-1.2450709999999998,-27.90315,4.131943,0.5434260000000001,0.6280504,0.7992306,0.2196502999999999,-0.0111084,0.9755096,33.49127,-1.8522490000000005,-25.60887,4.175552,0.4344092,0.618294,-0.3816857,0.9796945,-0.06477898,0.03217496,0.8125821,0.203191,0.4730211,21.40855,28.27
4,0.1948242,-0.03294373,0.9802704,0.8074715,0.1717833999999999,-0.05299377,0.9837036,-33.99197,-1.2450709999999998,-27.90315,4.131943,0.5434260000000001,0.6280504,0.7992306,0.2196502999999999,-0.0111084,0.9755096,33.49127,-1.8522490000000005,-25.60887,4.175552,0.4344092,0.618294,-0.3816857,0.9796945,-0.06477898,0.03217496,0.8125821,0.203191,0.4730211,21.40855,28.27
4,0.1948242,-0.03294373,0.9802704,0.8074715,0.1717833999999999,-0.05299377,0.9837036,-33.99197,-1.2450709999999998,-27.90315,4.131943,0.5434260000000001,0.6280504,0.7992306,0.2196502999999999,-0.0111084,0.9755096,33.49127,-1.8522490000000005,-25.60887,4.175552,0.4344092,0.618294,-0.3816857,0.9796945,-0.06477898,0.03217496,0.8125821,0.203191,0.4730211,21.40855,28.27
4,0.1784667999999999,-0.04743958,0.9827881,0.8281745,0.1628723,-0.0670929,0.9843597,-34.17041,-1.24292,-27.98351,4.086837999999999,0.5509987,0.6311815,0.8080520999999999,0.2059174,-0.01246643,0.9784851,33.36403,-1.882797,-25.426820000000003,4.367828,0.4411878999999999,0.617808,-0.3815668,0.9794815999999998,-0.06473191,0.03343936,0.8136005999999999,0.2035537999999999,0.4730211,21.40855,28.27
4,0.1784667999999999,-0.04743958,0.9827881,0.8281745,0.1628723,-0.0670929,0.9843597,-34.17041,-1.24292,-27.98351,4.086837999999999,0.5509987,0.6311815,0.8080520999999999,0.2059174,-0.01246643,0.9784851,33.36403,-1.882797,-25.426820000000003,4.367828,0.4411878999999999,0.617808,-0.3815668,0.9794815999999998,-0.06473191,0.03343936,0.8136005999999999,0.2035537999999999,0.4730211,21.40855,28.27
4,0.1784667999999999,-0.04743958,0.9827881,0.8281745,0.1628723,-0.0670929,0.9843597,-34.17041,-1.24292,-27.98351,4.086837999999999,0.5509987,0.6311815,0.8080520999999999,0.2059174,-0.01246643,0.9784851,33.36403,-1.882797,-25.426820000000003,4.367828,0.4411878999999999,0.617808,-0.3815668,0.9794815999999998,-0.06473191,0.03343936,0.8136005999999999,0.2035537999999999,0.4730211,21.40855,28.27
4,-0.02612305,0.03338623,0.9990997,0.8281745,-0.04301453,0.03131104,0.9985809,-35.211940000000006,-1.214569,-27.37503,4.447708,0.6200225,0.60759,0.8080520999999999,0.004852295,0.03715515,0.9992828,32.24989,-1.395813,-26.12451,4.482101,0.5126669,0.5996751,-0.3817114,0.9795806,-0.06476176,0.03493036,0.8149348000000001,0.2045836,0.4730211,21.40855,28.27
