Second,eye_comb_direction_x,eye_comb_direction_y,eye_comb_direction_z,eye_r_openness,eye_r_direction_x,eye_r_direction_y,eye_r_direction_z,eye_r_origin_x,eye_r_origin_y,eye_r_origin_z,eye_r_pupil_diameter,eye_r_pupil_position_x,eye_r_pupil_position_y,eye_l_openness,eye_l_direction_x,eye_l_direction_y,eye_l_direction_z,eye_l_origin_x,eye_l_origin_y,eye_l_origin_z,eye_l_pupil_diameter,eye_l_pupil_position_x,eye_l_pupil_position_y,head_position_x,head_position_y,head_position_z,head_rotation_roll,head_rotation_pitch,head_rotation_yaw,EDA,BVP,TMP
0,-0.4872742,-0.02877808,0.8727722,0.6286613,-0.5243225,-0.05793762,0.8495331,-37.60486,-1.935562,-28.62096,4.897339,0.7960623,0.6708086999999999,0.7248654,-0.4601287999999999,-0.008026123,0.8878021,29.93918,-1.687744,-27.28247,4.983444,0.6725954000000001,0.635582,-0.171216,0.9521667,-0.07869458,0.06798583,0.548397,-0.02477155,0.392307,-0.19088183212068544,28.0749913086665
0,-0.4872742,-0.02877808,0.8727722,0.6286613,-0.5243225,-0.05793762,0.8495331,-37.60486,-1.935562,-28.62096,4.897339,0.7960623,0.6708086999999999,0.7248654,-0.4601287999999999,-0.008026123,0.8878021,29.93918,-1.687744,-27.28247,4.983444,0.6725954000000001,0.635582,-0.171216,0.9521667,-0.07869458,0.06798583,0.548397,-0.02477155,0.392307,-0.19088183212068544,28.0749913086665
0,-0.4872742,-0.02877808,0.8727722,0.6286613,-0.5243225,-0.05793762,0.8495331,-37.60486,-1.935562,-28.62096,4.897339,0.7960623,0.6708086999999999,0.7248654,-0.4601287999999999,-0.008026123,0.8878021,29.93918,-1.687744,-27.28247,4.983444,0.6725954000000001,0.635582,-0.171216,0.9521667,-0.07869458,0.06798583,0.548397,-0.02477155,0.392307,-0.19088183212068544,28.0749913086665
0,-0.4872742,-0.02877808,0.8727722,0.6286613,-0.5243225,-0.05793762,0.8495331,-37.60486,-1.935562,-28.62096,4.897339,0.7960623,0.6708086999999999,0.7248654,-0.4601287999999999,-0.008026123,0.8878021,29.93918,-1.687744,-27.28247,4.983444,0.6725954000000001,0.635582,-0.171216,0.9521667,-0.07869458,0.06798583,0.548397,-0.02477155,0.392307,-0.19088183212068544,28.0749913086665
0,-0.4287872,-0.007339478,0.9033661,0.6618838,-0.4436492999999999,-0.02476501,0.8958434999999999,-37.26494,-1.757263,-28.3831,4.847916000000001,0.7656688,0.6528636,0.7328371,-0.4176787999999999,0.005477905,0.9085693,30.360570000000003,-1.530289,-27.09708,4.9085540000000005,0.6500803,0.6246989000000001,-0.1709213,0.9508932,-0.08571091,0.0727473999999999,0.570345,-0.02838168,0.392307,-0.19088183212068544,28.0749913086665
0,-0.4287872,-0.007339478,0.9033661,0.6618838,-0.4436492999999999,-0.02476501,0.8958434999999999,-37.26494,-1.757263,-28.3831,4.847916000000001,0.7656688,0.6528636,0.7328371,-0.4176787999999999,0.005477905,0.9085693,30.360570000000003,-1.530289,-27.09708,4.9085540000000005,0.6500803,0.6246989000000001,-0.1709213,0.9508932,-0.08571091,0.0727473999999999,0.570345,-0.02838168,0.392307,-0.19088183212068544,28.0749913086665
0,-0.4287872,-0.007339478,0.9033661,0.6618838,-0.4436492999999999,-0.02476501,0.8958434999999999,-37.26494,-1.757263,-28.3831,4.847916000000001,0.7656688,0.6528636,0.7328371,-0.4176787999999999,0.005477905,0.9085693,30.360570000000003,-1.530289,-27.09708,4.9085540000000005,0.6500803,0.6246989000000001,-0.1709213,0.9508932,-0.08571091,0.0727473999999999,0.570345,-0.02838168,0.392307,-0.19088183212068544,28.0749913086665
0,-0.4010772999999999,-0.003616333,0.9160309,0.6782530999999999,-0.4138640999999999,-0.01348877,0.9102325,-37.07162,-1.6651759999999998,-28.2813,4.721161,0.7523273,0.6454941999999999,0.7309762,-0.3925781,0.002868652,0.9197083,30.60544,-1.4918209999999998,-27.003770000000003,4.834381,0.637063,0.6222169,-0.1713512999999999,0.9501961,-0.09046198,0.07513187,0.58403,-0.03054052,0.392307,-0.19088183212068544,28.0749913086665
0,-0.4010772999999999,-0.003616333,0.9160309,0.6782530999999999,-0.4138640999999999,-0.01348877,0.9102325,-37.07162,-1.6651759999999998,-28.2813,4.721161,0.7523273,0.6454941999999999,0.7309762,-0.3925781,0.002868652,0.9197083,30.60544,-1.4918209999999998,-27.003770000000003,4.834381,0.637063,0.6222169,-0.1713512999999999,0.9501961,-0.09046198,0.07513187,0.58403,-0.03054052,0.392307,-0.19088183212068544,28.0749913086665
0,-0.4010772999999999,-0.003616333,0.9160309,0.6782530999999999,-0.4138640999999999,-0.01348877,0.9102325,-37.07162,-1.6651759999999998,-28.2813,4.721161,0.7523273,0.6454941999999999,0.7309762,-0.3925781,0.002868652,0.9197083,30.60544,-1.4918209999999998,-27.003770000000003,4.834381,0.637063,0.6222169,-0.1713512999999999,0.9501961,-0.09046198,0.07513187,0.58403,-0.03054052,0.392307,-0.19088183212068544,28.0749913086665
0,-0.3598022,0.02032471,0.9328003,0.6973736,-0.3698272999999999,-0.004760742,0.9290771,-36.73236,-1.589066,-28.15134,4.567261,0.7313048000000001,0.6385901999999999,0.7154039000000001,-0.3552094,0.03160095,0.9342346,30.929240000000004,-1.529678,-26.92052,4.681671,0.6194645999999999,0.6167758000000001,-0.1721464,0.9495506,-0.09514119,0.0766307,0.5966793,-0.03252092,0.392307,-0.19088183212068544,28.0749913086665
0,-0.3598022,0.02032471,0.9328003,0.6973736,-0.3698272999999999,-0.004760742,0.9290771,-36.73236,-1.589066,-28.15134,4.567261,0.7313048000000001,0.6385901999999999,0.7154039000000001,-0.3552094,0.03160095,0.9342346,30.929240000000004,-1.529678,-26.92052,4.681671,0.6194645999999999,0.6167758000000001,-0.1721464,0.9495506,-0.09514119,0.0766307,0.5966793,-0.03252092,0.392307,-0.19088183212068544,28.0749913086665
0,-0.3598022,0.02032471,0.9328003,0.6973736,-0.3698272999999999,-0.004760742,0.9290771,-36.73236,-1.589066,-28.15134,4.567261,0.7313048000000001,0.6385901999999999,0.7154039000000001,-0.3552094,0.03160095,0.9342346,30.929240000000004,-1.529678,-26.92052,4.681671,0.6194645999999999,0.6167758000000001,-0.1721464,0.9495506,-0.09514119,0.0766307,0.5966793,-0.03252092,0.392307,-0.19088183212068544,28.0749913086665
0,-0.33461,0.01724243,0.9421844,0.7106022,-0.339798,-0.02331543,0.9402008,-36.57355,-1.519745,-28.06697,4.558517,0.7198559,0.6378918,0.7139153,-0.3321381,0.03511047,0.9425659,31.1039,-1.480667,-26.86545,4.583878,0.6094520999999999,0.6134278000000001,-0.1739009,0.9486976,-0.1020677,0.07727759,0.6135748000000001,-0.03482097,0.392307,-0.19088183212068544,28.0749913086665
0,-0.33461,0.01724243,0.9421844,0.7106022,-0.339798,-0.02331543,0.9402008,-36.57355,-1.519745,-28.06697,4.558517,0.7198559,0.6378918,0.7139153,-0.3321381,0.03511047,0.9425659,31.1039,-1.480667,-26.86545,4.583878,0.6094520999999999,0.6134278000000001,-0.1739009,0.9486976,-0.1020677,0.07727759,0.6135748000000001,-0.03482097,0.392307,-0.19088183212068544,28.0749913086665
0,-0.33461,0.01724243,0.9421844,0.7106022,-0.339798,-0.02331543,0.9402008,-36.57355,-1.519745,-28.06697,4.558517,0.7198559,0.6378918,0.7139153,-0.3321381,0.03511047,0.9425659,31.1039,-1.480667,-26.86545,4.583878,0.6094520999999999,0.6134278000000001,-0.1739009,0.9486976,-0.1020677,0.07727759,0.6135748000000001,-0.03482097,0.392307,-0.19088183212068544,28.0749913086665
0,-0.2630462999999999,0.02482605,0.964447,0.7855211,-0.2788239,-0.0001678466999999,0.9603271,-36.15642,-1.419083,-27.946790000000004,4.38736,0.6938893,0.6278057,0.7042897,-0.2529449,0.04064941,0.9666138,31.51048,-1.376022,-26.72646,4.505463,0.5817549,0.6062221,-0.1765544,0.9478573,-0.1087216,0.07750903,0.6274308000000001,-0.03672948,0.392307,-0.19088183212068544,28.0749913086665
0,-0.2630462999999999,0.02482605,0.964447,0.7855211,-0.2788239,-0.0001678466999999,0.9603271,-36.15642,-1.419083,-27.946790000000004,4.38736,0.6938893,0.6278057,0.7042897,-0.2529449,0.04064941,0.9666138,31.51048,-1.376022,-26.72646,4.505463,0.5817549,0.6062221,-0.1765544,0.9478573,-0.1087216,0.07750903,0.6274308000000001,-0.03672948,0.392307,-0.19088183212068544,28.0749913086665
0,-0.2630462999999999,0.02482605,0.964447,0.7855211,-0.2788239,-0.0001678466999999,0.9603271,-36.15642,-1.419083,-27.946790000000004,4.38736,0.6938893,0.6278057,0.7042897,-0.2529449,0.04064941,0.9666138,31.51048,-1.376022,-26.72646,4.505463,0.5817549,0.6062221,-0.1765544,0.9478573,-0.1087216,0.07750903,0.6274308000000001,-0.03672948,0.392307,-0.19088183212068544,28.0749913086665
0,-0.2015991,0.04598999,0.9783783,0.8138731,-0.2344971,0.03468323,0.9714966,-35.79445,-1.3983,-27.67517,4.345596,0.6730415,0.6176085,0.6919512,-0.1946716,0.0483551,0.9796753,31.73166,-1.246552,-26.90318,4.380264,0.5644408000000001,0.6014831,-0.1801233,0.9468918,-0.1152063,0.07760569,0.6389151,-0.03954386,0.392307,-0.19088183212068544,28.0749913086665
0,-0.2015991,0.04598999,0.9783783,0.8138731,-0.2344971,0.03468323,0.9714966,-35.79445,-1.3983,-27.67517,4.345596,0.6730415,0.6176085,0.6919512,-0.1946716,0.0483551,0.9796753,31.73166,-1.246552,-26.90318,4.380264,0.5644408000000001,0.6014831,-0.1801233,0.9468918,-0.1152063,0.07760569,0.6389151,-0.03954386,0.392307,-0.19088183212068544,28.0749913086665
0,-0.2015991,0.04598999,0.9783783,0.8138731,-0.2344971,0.03468323,0.9714966,-35.79445,-1.3983,-27.67517,4.345596,0.6730415,0.6176085,0.6919512,-0.1946716,0.0483551,0.9796753,31.73166,-1.246552,-26.90318,4.380264,0.5644408000000001,0.6014831,-0.1801233,0.9468918,-0.1152063,0.07760569,0.6389151,-0.03954386,0.392307,-0.19088183212068544,28.0749913086665
0,-0.2015991,0.04598999,0.9783783,0.8138731,-0.2344971,0.03468323,0.9714966,-35.79445,-1.3983,-27.67517,4.345596,0.6730415,0.6176085,0.6919512,-0.1946716,0.0483551,0.9796753,31.73166,-1.246552,-26.90318,4.380264,0.5644408000000001,0.6014831,-0.1830678999999999,0.9463308,-0.119323,0.07733755,0.645709,-0.04135491,0.392307,-0.19088183212068544,28.0749913086665
0,-0.2015991,0.04598999,0.9783783,0.8138731,-0.2344971,0.03468323,0.9714966,-35.79445,-1.3983,-27.67517,4.345596,0.6730415,0.6176085,0.6919512,-0.1946716,0.0483551,0.9796753,31.73166,-1.246552,-26.90318,4.380264,0.5644408000000001,0.6014831,-0.1830678999999999,0.9463308,-0.119323,0.07733755,0.645709,-0.04135491,0.392307,-0.19088183212068544,28.0749913086665
0,-0.2015991,0.04598999,0.9783783,0.8138731,-0.2344971,0.03468323,0.9714966,-35.79445,-1.3983,-27.67517,4.345596,0.6730415,0.6176085,0.6919512,-0.1946716,0.0483551,0.9796753,31.73166,-1.246552,-26.90318,4.380264,0.5644408000000001,0.6014831,-0.1830678999999999,0.9463308,-0.119323,0.07733755,0.645709,-0.04135491,0.392307,-0.19088183212068544,28.0749913086665
0,-0.2015991,0.04598999,0.9783783,0.8138731,-0.2344971,0.03468323,0.9714966,-35.79445,-1.3983,-27.67517,4.345596,0.6730415,0.6176085,0.6919512,-0.1946716,0.0483551,0.9796753,31.73166,-1.246552,-26.90318,4.380264,0.5644408000000001,0.6014831,-0.1879443999999999,0.9456966999999998,-0.1251701,0.07632753,0.6539371999999999,-0.04279727,0.392307,-0.19088183212068544,28.0749913086665
0,-0.2015991,0.04598999,0.9783783,0.8138731,-0.2344971,0.03468323,0.9714966,-35.79445,-1.3983,-27.67517,4.345596,0.6730415,0.6176085,0.6919512,-0.1946716,0.0483551,0.9796753,31.73166,-1.246552,-26.90318,4.380264,0.5644408000000001,0.6014831,-0.1879443999999999,0.9456966999999998,-0.1251701,0.07632753,0.6539371999999999,-0.04279727,0.392307,-0.19088183212068544,28.0749913086665
0,-0.2015991,0.04598999,0.9783783,0.8138731,-0.2344971,0.03468323,0.9714966,-35.79445,-1.3983,-27.67517,4.345596,0.6730415,0.6176085,0.6919512,-0.1946716,0.0483551,0.9796753,31.73166,-1.246552,-26.90318,4.380264,0.5644408000000001,0.6014831,-0.1879443999999999,0.9456966999999998,-0.1251701,0.07632753,0.6539371999999999,-0.04279727,0.392307,-0.19088183212068544,28.0749913086665
0,-0.1782074,0.04391479,0.9830017,0.8562046999999998,-0.2015686,0.0218810999999999,0.9792175,-35.75005,-1.383392,-27.56638,4.28212,0.6655135999999999,0.6177431,0.704388,-0.1694336,0.05215454,0.9841461,31.78487,-1.066895,-27.44818,4.268326,0.5587415,0.5998256999999999,-0.1913872,0.9453892,-0.1286881,0.0749636,0.658342,-0.04283346,0.392307,-0.19088183212068544,28.0749913086665
0,-0.1782074,0.04391479,0.9830017,0.8562046999999998,-0.2015686,0.0218810999999999,0.9792175,-35.75005,-1.383392,-27.56638,4.28212,0.6655135999999999,0.6177431,0.704388,-0.1694336,0.05215454,0.9841461,31.78487,-1.066895,-27.44818,4.268326,0.5587415,0.5998256999999999,-0.1913872,0.9453892,-0.1286881,0.0749636,0.658342,-0.04283346,0.392307,-0.19088183212068544,28.0749913086665
0,-0.1782074,0.04391479,0.9830017,0.8562046999999998,-0.2015686,0.0218810999999999,0.9792175,-35.75005,-1.383392,-27.56638,4.28212,0.6655135999999999,0.6177431,0.704388,-0.1694336,0.05215454,0.9841461,31.78487,-1.066895,-27.44818,4.268326,0.5587415,0.5998256999999999,-0.1913872,0.9453892,-0.1286881,0.0749636,0.658342,-0.04283346,0.392307,-0.19088183212068544,28.0749913086665
0,-0.1210632,0.02386475,0.9923553,0.7479260999999999,-0.1220702999999999,0.0211792,0.9922943,-35.312059999999995,-1.311447,-27.14449,4.034973,0.6364198,0.6102331,0.7120795,-0.1083831999999999,0.05737305,0.9924469,32.27649,-0.9529419,-27.53401,4.252274,0.5315441999999999,0.5953714,-0.1969727999999999,0.9446486,-0.1335815,0.07345705,0.6632382,-0.04276344,0.392307,-0.19088183212068544,28.0749913086665
0,-0.1210632,0.02386475,0.9923553,0.7479260999999999,-0.1220702999999999,0.0211792,0.9922943,-35.312059999999995,-1.311447,-27.14449,4.034973,0.6364198,0.6102331,0.7120795,-0.1083831999999999,0.05737305,0.9924469,32.27649,-0.9529419,-27.53401,4.252274,0.5315441999999999,0.5953714,-0.1969727999999999,0.9446486,-0.1335815,0.07345705,0.6632382,-0.04276344,0.392307,-0.19088183212068544,28.0749913086665
0,-0.1210632,0.02386475,0.9923553,0.7479260999999999,-0.1220702999999999,0.0211792,0.9922943,-35.312059999999995,-1.311447,-27.14449,4.034973,0.6364198,0.6102331,0.7120795,-0.1083831999999999,0.05737305,0.9924469,32.27649,-0.9529419,-27.53401,4.252274,0.5315441999999999,0.5953714,-0.1969727999999999,0.9446486,-0.1335815,0.07345705,0.6632382,-0.04276344,0.392307,-0.19088183212068544,28.0749913086665
0,-0.09317017,0.01902771,0.9954529,0.7268437,-0.09347534,0.01753235,0.9954529,-35.17747,-1.349899,-27.043840000000003,4.021881,0.6269060000000001,0.6109289999999999,0.7101274999999999,-0.08563232,0.0559845,0.994751,32.41383,-1.112457,-27.20412,4.165543,0.5228297000000001,0.5975066,-0.2011408999999999,0.9440371,-0.1364776,0.07340357,0.66538,-0.04337462,0.392307,-0.19088183212068544,28.0749913086665
0,-0.09317017,0.01902771,0.9954529,0.7268437,-0.09347534,0.01753235,0.9954529,-35.17747,-1.349899,-27.043840000000003,4.021881,0.6269060000000001,0.6109289999999999,0.7101274999999999,-0.08563232,0.0559845,0.994751,32.41383,-1.112457,-27.20412,4.165543,0.5228297000000001,0.5975066,-0.2011408999999999,0.9440371,-0.1364776,0.07340357,0.66538,-0.04337462,0.392307,-0.19088183212068544,28.0749913086665
0,-0.09317017,0.01902771,0.9954529,0.7268437,-0.09347534,0.01753235,0.9954529,-35.17747,-1.349899,-27.043840000000003,4.021881,0.6269060000000001,0.6109289999999999,0.7101274999999999,-0.08563232,0.0559845,0.994751,32.41383,-1.112457,-27.20412,4.165543,0.5228297000000001,0.5975066,-0.2011408999999999,0.9440371,-0.1364776,0.07340357,0.66538,-0.04337462,0.392307,-0.19088183212068544,28.0749913086665
0,-0.09317017,0.01902771,0.9954529,0.7268437,-0.09347534,0.01753235,0.9954529,-35.17747,-1.349899,-27.043840000000003,4.021881,0.6269060000000001,0.6109289999999999,0.7101274999999999,-0.08563232,0.0559845,0.994751,32.41383,-1.112457,-27.20412,4.165543,0.5228297000000001,0.5975066,-0.2077833999999999,0.9434544,-0.1402559,0.07307743,0.6669255999999999,-0.04230643,0.392307,-7.041534,28.0749913086665
0,-0.09317017,0.01902771,0.9954529,0.7268437,-0.09347534,0.01753235,0.9954529,-35.17747,-1.349899,-27.043840000000003,4.021881,0.6269060000000001,0.6109289999999999,0.7101274999999999,-0.08563232,0.0559845,0.994751,32.41383,-1.112457,-27.20412,4.165543,0.5228297000000001,0.5975066,-0.2077833999999999,0.9434544,-0.1402559,0.07307743,0.6669255999999999,-0.04230643,0.392307,-7.041534,28.0749913086665
0,-0.09317017,0.01902771,0.9954529,0.7268437,-0.09347534,0.01753235,0.9954529,-35.17747,-1.349899,-27.043840000000003,4.021881,0.6269060000000001,0.6109289999999999,0.7101274999999999,-0.08563232,0.0559845,0.994751,32.41383,-1.112457,-27.20412,4.165543,0.5228297000000001,0.5975066,-0.2077833999999999,0.9434544,-0.1402559,0.07307743,0.6669255999999999,-0.04230643,0.392307,-7.041534,28.0749913086665
0,-0.09317017,0.01902771,0.9954529,0.7268437,-0.09347534,0.01753235,0.9954529,-35.17747,-1.349899,-27.043840000000003,4.021881,0.6269060000000001,0.6109289999999999,0.7101274999999999,-0.08563232,0.0559845,0.994751,32.41383,-1.112457,-27.20412,4.165543,0.5228297000000001,0.5975066,-0.2147027999999999,0.9434636,-0.1433479,0.06999034,0.6677465,-0.03938187,0.392307,-7.041534,28.0749913086665
0,-0.09317017,0.01902771,0.9954529,0.7268437,-0.09347534,0.01753235,0.9954529,-35.17747,-1.349899,-27.043840000000003,4.021881,0.6269060000000001,0.6109289999999999,0.7101274999999999,-0.08563232,0.0559845,0.994751,32.41383,-1.112457,-27.20412,4.165543,0.5228297000000001,0.5975066,-0.2147027999999999,0.9434636,-0.1433479,0.06999034,0.6677465,-0.03938187,0.392307,-7.041534,28.0749913086665
0,-0.09317017,0.01902771,0.9954529,0.7268437,-0.09347534,0.01753235,0.9954529,-35.17747,-1.349899,-27.043840000000003,4.021881,0.6269060000000001,0.6109289999999999,0.7101274999999999,-0.08563232,0.0559845,0.994751,32.41383,-1.112457,-27.20412,4.165543,0.5228297000000001,0.5975066,-0.2147027999999999,0.9434636,-0.1433479,0.06999034,0.6677465,-0.03938187,0.392307,-7.041534,28.0749913086665
0,-0.06811523,0.03190613,0.9971619,0.7258773000000001,-0.06929016,0.02418518,0.9972992,-34.98708,-1.097549,-27.39526,4.06012,0.6168077,0.6047128,0.7193964,-0.0629425,0.06552124,0.9958496,32.60481,-1.025375,-27.15198,4.127823,0.5124778,0.5922295,-0.2223864,0.9434727,-0.1462783999999999,0.0687873999999999,0.668303,-0.03556637,0.392307,-7.041534,28.0749913086665
0,-0.06811523,0.03190613,0.9971619,0.7258773000000001,-0.06929016,0.02418518,0.9972992,-34.98708,-1.097549,-27.39526,4.06012,0.6168077,0.6047128,0.7193964,-0.0629425,0.06552124,0.9958496,32.60481,-1.025375,-27.15198,4.127823,0.5124778,0.5922295,-0.2223864,0.9434727,-0.1462783999999999,0.0687873999999999,0.668303,-0.03556637,0.392307,-7.041534,28.0749913086665
0,-0.06811523,0.03190613,0.9971619,0.7258773000000001,-0.06929016,0.02418518,0.9972992,-34.98708,-1.097549,-27.39526,4.06012,0.6168077,0.6047128,0.7193964,-0.0629425,0.06552124,0.9958496,32.60481,-1.025375,-27.15198,4.127823,0.5124778,0.5922295,-0.2223864,0.9434727,-0.1462783999999999,0.0687873999999999,0.668303,-0.03556637,0.392307,-7.041534,28.0749913086665
0,-0.06811523,0.03190613,0.9971619,0.7258773000000001,-0.06929016,0.02418518,0.9972992,-34.98708,-1.097549,-27.39526,4.06012,0.6168077,0.6047128,0.7193964,-0.0629425,0.06552124,0.9958496,32.60481,-1.025375,-27.15198,4.127823,0.5124778,0.5922295,-0.2280625,0.9436216,-0.1479697999999999,0.06819449,0.6682504,-0.03319168,0.392307,-7.041534,28.39
0,-0.06811523,0.03190613,0.9971619,0.7258773000000001,-0.06929016,0.02418518,0.9972992,-34.98708,-1.097549,-27.39526,4.06012,0.6168077,0.6047128,0.7193964,-0.0629425,0.06552124,0.9958496,32.60481,-1.025375,-27.15198,4.127823,0.5124778,0.5922295,-0.2280625,0.9436216,-0.1479697999999999,0.06819449,0.6682504,-0.03319168,0.392307,-7.041534,28.39
0,-0.06811523,0.03190613,0.9971619,0.7258773000000001,-0.06929016,0.02418518,0.9972992,-34.98708,-1.097549,-27.39526,4.06012,0.6168077,0.6047128,0.7193964,-0.0629425,0.06552124,0.9958496,32.60481,-1.025375,-27.15198,4.127823,0.5124778,0.5922295,-0.2280625,0.9436216,-0.1479697999999999,0.06819449,0.6682504,-0.03319168,0.392307,-7.041534,28.39
0,-0.06811523,0.03190613,0.9971619,0.7258773000000001,-0.06929016,0.02418518,0.9972992,-34.98708,-1.097549,-27.39526,4.06012,0.6168077,0.6047128,0.7193964,-0.0629425,0.06552124,0.9958496,32.60481,-1.025375,-27.15198,4.127823,0.5124778,0.5922295,-0.2337607999999999,0.9442085,-0.1495983,0.06697112,0.668111,-0.03036927,0.392307,-7.041534,28.39
0,-0.06811523,0.03190613,0.9971619,0.7258773000000001,-0.06929016,0.02418518,0.9972992,-34.98708,-1.097549,-27.39526,4.06012,0.6168077,0.6047128,0.7193964,-0.0629425,0.06552124,0.9958496,32.60481,-1.025375,-27.15198,4.127823,0.5124778,0.5922295,-0.2337607999999999,0.9442085,-0.1495983,0.06697112,0.668111,-0.03036927,0.392307,-7.041534,28.39
0,-0.06811523,0.03190613,0.9971619,0.7258773000000001,-0.06929016,0.02418518,0.9972992,-34.98708,-1.097549,-27.39526,4.06012,0.6168077,0.6047128,0.7193964,-0.0629425,0.06552124,0.9958496,32.60481,-1.025375,-27.15198,4.127823,0.5124778,0.5922295,-0.2337607999999999,0.9442085,-0.1495983,0.06697112,0.668111,-0.03036927,0.392307,-7.041534,28.39
0,0.05525208,-0.01396179,0.9983673,0.7258773000000001,0.04350281,-0.05673218,0.9974365,-34.301120000000004,-1.262939,-27.972520000000003,3.731079,0.5753176999999999,0.6292982,0.7193964,0.05960083,0.001907349,0.9982147,33.0265,-1.511108,-26.67032,3.952179,0.4770665,0.6143396,-0.2397063,0.9449183,-0.1510727,0.06520266,0.6680876,-0.02820597,0.392307,-15.85085,28.39
0,0.05525208,-0.01396179,0.9983673,0.7258773000000001,0.04350281,-0.05673218,0.9974365,-34.301120000000004,-1.262939,-27.972520000000003,3.731079,0.5753176999999999,0.6292982,0.7193964,0.05960083,0.001907349,0.9982147,33.0265,-1.511108,-26.67032,3.952179,0.4770665,0.6143396,-0.2397063,0.9449183,-0.1510727,0.06520266,0.6680876,-0.02820597,0.392307,-11.77014,28.39
0,0.05525208,-0.01396179,0.9983673,0.7258773000000001,0.04350281,-0.05673218,0.9974365,-34.301120000000004,-1.262939,-27.972520000000003,3.731079,0.5753176999999999,0.6292982,0.7193964,0.05960083,0.001907349,0.9982147,33.0265,-1.511108,-26.67032,3.952179,0.4770665,0.6143396,-0.2397063,0.9449183,-0.1510727,0.06520266,0.6680876,-0.02820597,0.392307,-11.77014,28.39
0,0.05090332,-0.03025818,0.99823,0.6929566,0.05209351,-0.05282593,0.9972382,-34.38896,-1.415985,-27.7771,3.758072,0.576685,0.6318544,0.7302369000000001,0.05000305,-0.01322937,0.9986572,33.07912,-1.6616970000000002,-26.50128,3.87294,0.4768482,0.6202416000000001,-0.2560623,0.9465543,-0.1537912,0.06324099,0.6666687,-0.0264426,0.392307,-11.77014,28.39
0,0.05090332,-0.03025818,0.99823,0.6929566,0.05209351,-0.05282593,0.9972382,-34.38896,-1.415985,-27.7771,3.758072,0.576685,0.6318544,0.7302369000000001,0.05000305,-0.01322937,0.9986572,33.07912,-1.6616970000000002,-26.50128,3.87294,0.4768482,0.6202416000000001,-0.2560623,0.9465543,-0.1537912,0.06324099,0.6666687,-0.0264426,0.392307,-11.77014,28.39
0,0.05090332,-0.03025818,0.99823,0.6929566,0.05209351,-0.05282593,0.9972382,-34.38896,-1.415985,-27.7771,3.758072,0.576685,0.6318544,0.7302369000000001,0.05000305,-0.01322937,0.9986572,33.07912,-1.6616970000000002,-26.50128,3.87294,0.4768482,0.6202416000000001,-0.2560623,0.9465543,-0.1537912,0.06324099,0.6666687,-0.0264426,0.392307,-11.77014,28.39
1,0.04986572,-0.02304077,0.9984894,0.7012609999999999,0.05029297,-0.05644226,0.9971313,-34.38022,-1.40976,-27.77867,3.703308,0.5766821999999999,0.6322396,0.7513171,0.04972839,-0.01292419,0.9986725,33.08894,-1.663254,-26.5262,3.867157,0.4765595999999999,0.6204935,-0.2627643,0.9472961,-0.1544097,0.06252098,0.6653190999999999,-0.02604593,0.392307,-11.77014,28.39
1,0.04986572,-0.02304077,0.9984894,0.7012609999999999,0.05029297,-0.05644226,0.9971313,-34.38022,-1.40976,-27.77867,3.703308,0.5766821999999999,0.6322396,0.7513171,0.04972839,-0.01292419,0.9986725,33.08894,-1.663254,-26.5262,3.867157,0.4765595999999999,0.6204935,-0.2627643,0.9472961,-0.1544097,0.06252098,0.6653190999999999,-0.02604593,0.392307,-11.77014,28.39
1,0.04986572,-0.02304077,0.9984894,0.7012609999999999,0.05029297,-0.05644226,0.9971313,-34.38022,-1.40976,-27.77867,3.703308,0.5766821999999999,0.6322396,0.7513171,0.04972839,-0.01292419,0.9986725,33.08894,-1.663254,-26.5262,3.867157,0.4765595999999999,0.6204935,-0.2627643,0.9472961,-0.1544097,0.06252098,0.6653190999999999,-0.02604593,0.392307,-11.77014,28.39
1,0.04925537,-0.03250122,0.9982452,0.6896479,0.04931641,-0.05523682,0.9972534,-34.39063,-1.48053,-27.67015,3.568771,0.5770718,0.6332014,0.729416,0.04916382,-0.01135254,0.9987183,33.10962,-1.70517,-26.55569,3.86319,0.4759395,0.6219208,-0.2764447,0.9484375,-0.1544222999999999,0.06215462,0.6612473000000001,-0.02604342,0.392307,-11.77014,28.39
1,0.04925537,-0.03250122,0.9982452,0.6896479,0.04931641,-0.05523682,0.9972534,-34.39063,-1.48053,-27.67015,3.568771,0.5770718,0.6332014,0.729416,0.04916382,-0.01135254,0.9987183,33.10962,-1.70517,-26.55569,3.86319,0.4759395,0.6219208,-0.2764447,0.9484375,-0.1544222999999999,0.06215462,0.6612473000000001,-0.02604342,0.392307,-11.77014,28.39
1,0.04925537,-0.03250122,0.9982452,0.6896479,0.04931641,-0.05523682,0.9972534,-34.39063,-1.48053,-27.67015,3.568771,0.5770718,0.6332014,0.729416,0.04916382,-0.01135254,0.9987183,33.10962,-1.70517,-26.55569,3.86319,0.4759395,0.6219208,-0.2764447,0.9484375,-0.1544222999999999,0.06215462,0.6612473000000001,-0.02604342,0.392307,-11.77014,28.39
1,0.04142761,-0.02726746,0.998764,0.6806837,0.04284668,-0.04681396,0.9979706,-34.38998,-1.503769,-27.68079,3.666992,0.5781621,0.6326927,0.7303111,0.04032898,-0.01216125,0.9990997,33.11235,-1.778259,-26.480590000000003,3.79747,0.4773197,0.6237136999999999,-0.2872534,0.9484866,-0.1536457,0.06621496,0.6565422,-0.02782038,0.392307,-11.77014,28.39
1,0.04142761,-0.02726746,0.998764,0.6806837,0.04284668,-0.04681396,0.9979706,-34.38998,-1.503769,-27.68079,3.666992,0.5781621,0.6326927,0.7303111,0.04032898,-0.01216125,0.9990997,33.11235,-1.778259,-26.480590000000003,3.79747,0.4773197,0.6237136999999999,-0.2872534,0.9484866,-0.1536457,0.06621496,0.6565422,-0.02782038,0.392307,-11.77014,28.39
1,0.04142761,-0.02726746,0.998764,0.6806837,0.04284668,-0.04681396,0.9979706,-34.38998,-1.503769,-27.68079,3.666992,0.5781621,0.6326927,0.7303111,0.04032898,-0.01216125,0.9990997,33.11235,-1.778259,-26.480590000000003,3.79747,0.4773197,0.6237136999999999,-0.2872534,0.9484866,-0.1536457,0.06621496,0.6565422,-0.02782038,0.392307,-11.77014,28.39
1,0.04142761,-0.02726746,0.998764,0.6806837,0.04284668,-0.04681396,0.9979706,-34.38998,-1.503769,-27.68079,3.666992,0.5781621,0.6326927,0.7303111,0.04032898,-0.01216125,0.9990997,33.11235,-1.778259,-26.480590000000003,3.79747,0.4773197,0.6237136999999999,-0.2982909,0.948648,-0.1526303,0.0707526999999999,0.6522609,-0.02895377,0.392307,-11.77014,28.39
1,0.04142761,-0.02726746,0.998764,0.6806837,0.04284668,-0.04681396,0.9979706,-34.38998,-1.503769,-27.68079,3.666992,0.5781621,0.6326927,0.7303111,0.04032898,-0.01216125,0.9990997,33.11235,-1.778259,-26.480590000000003,3.79747,0.4773197,0.6237136999999999,-0.2982909,0.948648,-0.1526303,0.0707526999999999,0.6522609,-0.02895377,0.392307,-11.77014,28.39
1,0.04142761,-0.02726746,0.998764,0.6806837,0.04284668,-0.04681396,0.9979706,-34.38998,-1.503769,-27.68079,3.666992,0.5781621,0.6326927,0.7303111,0.04032898,-0.01216125,0.9990997,33.11235,-1.778259,-26.480590000000003,3.79747,0.4773197,0.6237136999999999,-0.2982909,0.948648,-0.1526303,0.0707526999999999,0.6522609,-0.02895377,0.392307,-11.77014,28.39
1,0.02479553,-0.009231567,0.999649,0.6846313,0.02603149,-0.04344177,0.998703,-34.5932,-1.622025,-27.37778,3.565201,0.5875376,0.6329802,0.7610785,0.02449036,-0.0009613037,0.9996948,32.92888,-1.7486270000000002,-26.51241,3.761597,0.4862482,0.6211111,-0.3099675,0.9480451,-0.1516856,0.07692122,0.6488683000000001,-0.03351386,0.392307,-7.758835,28.39
1,0.02479553,-0.009231567,0.999649,0.6846313,0.02603149,-0.04344177,0.998703,-34.5932,-1.622025,-27.37778,3.565201,0.5875376,0.6329802,0.7610785,0.02449036,-0.0009613037,0.9996948,32.92888,-1.7486270000000002,-26.51241,3.761597,0.4862482,0.6211111,-0.3099675,0.9480451,-0.1516856,0.07692122,0.6488683000000001,-0.03351386,0.392307,-7.758835,28.39
1,0.02479553,-0.009231567,0.999649,0.6846313,0.02603149,-0.04344177,0.998703,-34.5932,-1.622025,-27.37778,3.565201,0.5875376,0.6329802,0.7610785,0.02449036,-0.0009613037,0.9996948,32.92888,-1.7486270000000002,-26.51241,3.761597,0.4862482,0.6211111,-0.3099675,0.9480451,-0.1516856,0.07692122,0.6488683000000001,-0.03351386,0.392307,-7.758835,28.39
1,0.0027771,0.0003662109,0.9999847,0.6747147,0.001831055,-0.004516602,0.9999847,-34.75143,-1.509323,-27.516240000000003,3.684662,0.5970492,0.6240406999999999,0.7176861999999999,0.006362915,0.01873779,0.9998016,32.75528,-1.516922,-26.704040000000003,3.632355,0.4953114999999999,0.6117296999999999,-0.3216887,0.9481775,-0.1507773,0.08032816,0.6470563,-0.03822741,0.392307,-7.758835,28.39
1,0.0027771,0.0003662109,0.9999847,0.6747147,0.001831055,-0.004516602,0.9999847,-34.75143,-1.509323,-27.516240000000003,3.684662,0.5970492,0.6240406999999999,0.7176861999999999,0.006362915,0.01873779,0.9998016,32.75528,-1.516922,-26.704040000000003,3.632355,0.4953114999999999,0.6117296999999999,-0.3216887,0.9481775,-0.1507773,0.08032816,0.6470563,-0.03822741,0.392307,-7.758835,28.39
1,0.0027771,0.0003662109,0.9999847,0.6747147,0.001831055,-0.004516602,0.9999847,-34.75143,-1.509323,-27.516240000000003,3.684662,0.5970492,0.6240406999999999,0.7176861999999999,0.006362915,0.01873779,0.9998016,32.75528,-1.516922,-26.704040000000003,3.632355,0.4953114999999999,0.6117296999999999,-0.3216887,0.9481775,-0.1507773,0.08032816,0.6470563,-0.03822741,0.392307,-7.758835,28.39
1,-0.00112915,-0.00668335,0.9999695,0.6747147,-0.0014648439999999,-0.01078796,0.999939,-34.7692,-1.481644,-27.42685,3.569199,0.5980916000000001,0.6231893000000001,0.7176861999999999,0.001083374,0.01986694,0.9998016,32.73242,-1.4159389999999998,-26.78889,3.758606,0.4970275999999999,0.609102,-0.333281,0.9479235,-0.1498174,0.08422989,0.6450118,-0.0439593,0.392307,-7.758835,28.39
1,-0.00112915,-0.00668335,0.9999695,0.6747147,-0.0014648439999999,-0.01078796,0.999939,-34.7692,-1.481644,-27.42685,3.569199,0.5980916000000001,0.6231893000000001,0.7176861999999999,0.001083374,0.01986694,0.9998016,32.73242,-1.4159389999999998,-26.78889,3.758606,0.4970275999999999,0.609102,-0.333281,0.9479235,-0.1498174,0.08422989,0.6450118,-0.0439593,0.392307,-7.758835,28.39
1,-0.00112915,-0.00668335,0.9999695,0.6747147,-0.0014648439999999,-0.01078796,0.999939,-34.7692,-1.481644,-27.42685,3.569199,0.5980916000000001,0.6231893000000001,0.7176861999999999,0.001083374,0.01986694,0.9998016,32.73242,-1.4159389999999998,-26.78889,3.758606,0.4970275999999999,0.609102,-0.333281,0.9479235,-0.1498174,0.08422989,0.6450118,-0.0439593,0.392307,-7.758835,28.39
1,0.00617981,-0.1389922999999999,0.9902649,0.6444688000000001,0.005874634,-0.1504517,0.9885864,-34.49393,-2.196716,-27.67342,3.463257,0.5880861,0.6742060999999999,0.8608938,0.006622314,-0.1221008,0.9924927,32.60452,-2.248154,-26.5536,3.533356,0.5000485,0.6595852,-0.3445577,0.9466369,-0.149253,0.09189617,0.6435183000000001,-0.05027815,0.3948693,-7.758835,28.39
1,0.00617981,-0.1389922999999999,0.9902649,0.6444688000000001,0.005874634,-0.1504517,0.9885864,-34.49393,-2.196716,-27.67342,3.463257,0.5880861,0.6742060999999999,0.8608938,0.006622314,-0.1221008,0.9924927,32.60452,-2.248154,-26.5536,3.533356,0.5000485,0.6595852,-0.3445577,0.9466369,-0.149253,0.09189617,0.6435183000000001,-0.05027815,0.3948693,-7.758835,28.39
1,0.00617981,-0.1389922999999999,0.9902649,0.6444688000000001,0.005874634,-0.1504517,0.9885864,-34.49393,-2.196716,-27.67342,3.463257,0.5880861,0.6742060999999999,0.8608938,0.006622314,-0.1221008,0.9924927,32.60452,-2.248154,-26.5536,3.533356,0.5000485,0.6595852,-0.3445577,0.9466369,-0.149253,0.09189617,0.6435183000000001,-0.05027815,0.3948693,-7.758835,28.39
1,-0.0020294189999999,-0.1978912,0.9802094,0.6460675,-0.000793457,-0.2196197999999999,0.9755707,-34.56845,-2.463486,-27.748490000000004,3.525635,0.592021,0.6966935000000001,0.8617280999999999,-0.002670288,-0.186676,0.9824066,32.475390000000004,-2.473801,-26.638690000000004,3.4813080000000003,0.5059254,0.6797829000000001,-0.3557103,0.9443018,-0.1489089999999999,0.1001194,0.6442941,-0.06125914,0.3948693,-7.758835,28.39
1,-0.0020294189999999,-0.1978912,0.9802094,0.6460675,-0.000793457,-0.2196197999999999,0.9755707,-34.56845,-2.463486,-27.748490000000004,3.525635,0.592021,0.6966935000000001,0.8617280999999999,-0.002670288,-0.186676,0.9824066,32.475390000000004,-2.473801,-26.638690000000004,3.4813080000000003,0.5059254,0.6797829000000001,-0.3557103,0.9443018,-0.1489089999999999,0.1001194,0.6442941,-0.06125914,0.3948693,-7.758835,28.39
1,-0.0020294189999999,-0.1978912,0.9802094,0.6460675,-0.000793457,-0.2196197999999999,0.9755707,-34.56845,-2.463486,-27.748490000000004,3.525635,0.592021,0.6966935000000001,0.8617280999999999,-0.002670288,-0.186676,0.9824066,32.475390000000004,-2.473801,-26.638690000000004,3.4813080000000003,0.5059254,0.6797829000000001,-0.3557103,0.9443018,-0.1489089999999999,0.1001194,0.6442941,-0.06125914,0.3948693,-7.758835,28.39
1,-0.0020294189999999,-0.1978912,0.9802094,0.6460675,-0.000793457,-0.2196197999999999,0.9755707,-34.56845,-2.463486,-27.748490000000004,3.525635,0.592021,0.6966935000000001,0.8617280999999999,-0.002670288,-0.186676,0.9824066,32.475390000000004,-2.473801,-26.638690000000004,3.4813080000000003,0.5059254,0.6797829000000001,-0.3659113,0.9421219,-0.1486185,0.1062954,0.646396,-0.07170264,0.3948693,-27.85031,28.39
1,-0.0020294189999999,-0.1978912,0.9802094,0.6460675,-0.000793457,-0.2196197999999999,0.9755707,-34.56845,-2.463486,-27.748490000000004,3.525635,0.592021,0.6966935000000001,0.8617280999999999,-0.002670288,-0.186676,0.9824066,32.475390000000004,-2.473801,-26.638690000000004,3.4813080000000003,0.5059254,0.6797829000000001,-0.3659113,0.9421219,-0.1486185,0.1062954,0.646396,-0.07170264,0.3948693,-27.85031,28.39
1,-0.0020294189999999,-0.1978912,0.9802094,0.6460675,-0.000793457,-0.2196197999999999,0.9755707,-34.56845,-2.463486,-27.748490000000004,3.525635,0.592021,0.6966935000000001,0.8617280999999999,-0.002670288,-0.186676,0.9824066,32.475390000000004,-2.473801,-26.638690000000004,3.4813080000000003,0.5059254,0.6797829000000001,-0.3659113,0.9421219,-0.1486185,0.1062954,0.646396,-0.07170264,0.3948693,-27.85031,28.39
1,-0.0151062,-0.1334991,0.990921,0.6059276,-0.01495361,-0.1417542,0.9897766,-34.78029,-2.260712,-27.481990000000003,3.45192,0.6010888000000001,0.6729038,0.8031638000000001,-0.01530457,-0.1219481999999999,0.9924164,32.53784,-2.259018,-26.36298,3.5205230000000003,0.505998,0.65798,-0.3767273,0.9386936,-0.148672,0.1114688,0.6525593000000001,-0.08044633,0.3948693,-27.85031,28.39
1,-0.0151062,-0.1334991,0.990921,0.6059276,-0.01495361,-0.1417542,0.9897766,-34.78029,-2.260712,-27.481990000000003,3.45192,0.6010888000000001,0.6729038,0.8031638000000001,-0.01530457,-0.1219481999999999,0.9924164,32.53784,-2.259018,-26.36298,3.5205230000000003,0.505998,0.65798,-0.3767273,0.9386936,-0.148672,0.1114688,0.6525593000000001,-0.08044633,0.3948693,-27.85031,28.39
1,-0.0151062,-0.1334991,0.990921,0.6059276,-0.01495361,-0.1417542,0.9897766,-34.78029,-2.260712,-27.481990000000003,3.45192,0.6010888000000001,0.6729038,0.8031638000000001,-0.01530457,-0.1219481999999999,0.9924164,32.53784,-2.259018,-26.36298,3.5205230000000003,0.505998,0.65798,-0.3767273,0.9386936,-0.148672,0.1114688,0.6525593000000001,-0.08044633,0.3948693,-27.85031,28.39
1,-0.01968384,-0.09735107,0.9950409,0.6280413,-0.03495789,-0.1316528,0.9906769,-34.78159,-1.883636,-28.17424,3.516388,0.6051793000000001,0.6656514,0.812702,-0.01853943,-0.09477234,0.9953156,32.54965,-2.203171,-26.31851,3.607178,0.5061737000000001,0.6508695,-0.38175,0.9363726,-0.1490531,0.1158662,0.6569672,-0.08653752,0.3948693,-27.85031,28.39
1,-0.01968384,-0.09735107,0.9950409,0.6280413,-0.03495789,-0.1316528,0.9906769,-34.78159,-1.883636,-28.17424,3.516388,0.6051793000000001,0.6656514,0.812702,-0.01853943,-0.09477234,0.9953156,32.54965,-2.203171,-26.31851,3.607178,0.5061737000000001,0.6508695,-0.38175,0.9363726,-0.1490531,0.1158662,0.6569672,-0.08653752,0.3948693,-27.85031,28.39
1,-0.01968384,-0.09735107,0.9950409,0.6280413,-0.03495789,-0.1316528,0.9906769,-34.78159,-1.883636,-28.17424,3.516388,0.6051793000000001,0.6656514,0.812702,-0.01853943,-0.09477234,0.9953156,32.54965,-2.203171,-26.31851,3.607178,0.5061737000000001,0.6508695,-0.38175,0.9363726,-0.1490531,0.1158662,0.6569672,-0.08653752,0.3948693,-27.85031,28.39
1,-0.0161438,-0.08251953,0.9964447,0.6419984000000001,-0.01550293,-0.1112823,0.9936523000000002,-34.77785,-2.195328,-27.45326,3.440781,0.6009821,0.664959,0.7995703000000001,-0.01615906,-0.08184814,0.9965057,32.5556,-2.207245,-26.37442,3.601913,0.5055957999999999,0.6492977,-0.3903986,0.9308587,-0.1494101,0.1227448,0.6664691999999999,-0.09829827,0.3948693,-27.85031,28.39
1,-0.0161438,-0.08251953,0.9964447,0.6419984000000001,-0.01550293,-0.1112823,0.9936523000000002,-34.77785,-2.195328,-27.45326,3.440781,0.6009821,0.664959,0.7995703000000001,-0.01615906,-0.08184814,0.9965057,32.5556,-2.207245,-26.37442,3.601913,0.5055957999999999,0.6492977,-0.3903986,0.9308587,-0.1494101,0.1227448,0.6664691999999999,-0.09829827,0.3948693,-27.85031,28.39
1,-0.0161438,-0.08251953,0.9964447,0.6419984000000001,-0.01550293,-0.1112823,0.9936523000000002,-34.77785,-2.195328,-27.45326,3.440781,0.6009821,0.664959,0.7995703000000001,-0.01615906,-0.08184814,0.9965057,32.5556,-2.207245,-26.37442,3.601913,0.5055957999999999,0.6492977,-0.3903986,0.9308587,-0.1494101,0.1227448,0.6664691999999999,-0.09829827,0.3948693,-27.85031,28.39
1,0.005828857,-0.02258301,0.9997253,0.6527925,-0.0006866455,-0.05915833,0.9982452,-34.56793,-1.893082,-27.81911,3.5561830000000003,0.5916819999999999,0.6493701999999999,0.7950706,0.005996704,-0.02166748,0.9997406,32.8073,-2.0980830000000004,-26.42863,3.574722,0.4933915,0.6355326,-0.3939716,0.9274833,-0.1496541,0.1271068,0.6707428000000001,-0.1029737,0.3948693,-27.85031,28.39
1,0.005828857,-0.02258301,0.9997253,0.6527925,-0.0006866455,-0.05915833,0.9982452,-34.56793,-1.893082,-27.81911,3.5561830000000003,0.5916819999999999,0.6493701999999999,0.7950706,0.005996704,-0.02166748,0.9997406,32.8073,-2.0980830000000004,-26.42863,3.574722,0.4933915,0.6355326,-0.3939716,0.9274833,-0.1496541,0.1271068,0.6707428000000001,-0.1029737,0.3948693,-27.85031,28.39
1,0.005828857,-0.02258301,0.9997253,0.6527925,-0.0006866455,-0.05915833,0.9982452,-34.56793,-1.893082,-27.81911,3.5561830000000003,0.5916819999999999,0.6493701999999999,0.7950706,0.005996704,-0.02166748,0.9997406,32.8073,-2.0980830000000004,-26.42863,3.574722,0.4933915,0.6355326,-0.3939716,0.9274833,-0.1496541,0.1271068,0.6707428000000001,-0.1029737,0.3948693,-27.85031,28.39
1,0.0056457519999999,-0.01654053,0.9998322,0.7023613000000001,0.008346558,-0.05723572,0.9983215,-34.55765,-1.950226,-27.82217,3.57251,0.5898134,0.6510045999999999,0.8511579,0.005447388,-0.0136261,0.9998779,32.80363,-2.140396,-26.45113,3.5307160000000004,0.4936085999999999,0.6357605,-0.3995522999999999,0.9221506,-0.1501662999999999,0.1358711,0.676863,-0.1122801,0.3948693,-27.85031,28.39
1,0.0056457519999999,-0.01654053,0.9998322,0.7023613000000001,0.008346558,-0.05723572,0.9983215,-34.55765,-1.950226,-27.82217,3.57251,0.5898134,0.6510045999999999,0.8511579,0.005447388,-0.0136261,0.9998779,32.80363,-2.140396,-26.45113,3.5307160000000004,0.4936085999999999,0.6357605,-0.3995522999999999,0.9221506,-0.1501662999999999,0.1358711,0.676863,-0.1122801,0.3948693,-27.85031,28.39
1,0.0056457519999999,-0.01654053,0.9998322,0.7023613000000001,0.008346558,-0.05723572,0.9983215,-34.55765,-1.950226,-27.82217,3.57251,0.5898134,0.6510045999999999,0.8511579,0.005447388,-0.0136261,0.9998779,32.80363,-2.140396,-26.45113,3.5307160000000004,0.4936085999999999,0.6357605,-0.3995522999999999,0.9221506,-0.1501662999999999,0.1358711,0.676863,-0.1122801,0.3948693,-27.85031,28.39
1,-0.2149199999999999,-0.1930237,0.9573517,0.7336678000000001,-0.2152557,-0.2017365,0.9554749,-35.50108,-2.828125,-27.8679,3.495743,0.6610458,0.7093331,0.9713436,-0.2137755999999999,-0.1660155999999999,0.9626617,31.5251,-2.6595310000000003,-26.76993,3.70256,0.5744064,0.6855518,-0.4042589,0.9164262,-0.1507336,0.1450476,0.6836406,-0.1235232,0.3948693,0.7164001,28.39
1,-0.2149199999999999,-0.1930237,0.9573517,0.7336678000000001,-0.2152557,-0.2017365,0.9554749,-35.50108,-2.828125,-27.8679,3.495743,0.6610458,0.7093331,0.9713436,-0.2137755999999999,-0.1660155999999999,0.9626617,31.5251,-2.6595310000000003,-26.76993,3.70256,0.5744064,0.6855518,-0.4042589,0.9164262,-0.1507336,0.1450476,0.6836406,-0.1235232,0.3948693,0.7164001,28.39
1,-0.2149199999999999,-0.1930237,0.9573517,0.7336678000000001,-0.2152557,-0.2017365,0.9554749,-35.50108,-2.828125,-27.8679,3.495743,0.6610458,0.7093331,0.9713436,-0.2137755999999999,-0.1660155999999999,0.9626617,31.5251,-2.6595310000000003,-26.76993,3.70256,0.5744064,0.6855518,-0.4042589,0.9164262,-0.1507336,0.1450476,0.6836406,-0.1235232,0.3948693,0.7164001,28.39
1,-0.2256927,-0.1794586,0.9575195,0.7499387,-0.2398224,-0.1922302,0.9515839,-35.60648,-2.759216,-27.88153,3.5851900000000003,0.6689805,0.7058454000000001,0.9711604,-0.205246,-0.161026,0.9653625,31.554990000000004,-2.577881,-26.73901,3.618668,0.5719436,0.6813705,-0.4079882999999999,0.910987,-0.1518446,0.1514522,0.6916366999999999,-0.132486,0.3948693,0.7164001,28.39
1,-0.2256927,-0.1794586,0.9575195,0.7499387,-0.2398224,-0.1922302,0.9515839,-35.60648,-2.759216,-27.88153,3.5851900000000003,0.6689805,0.7058454000000001,0.9711604,-0.205246,-0.161026,0.9653625,31.554990000000004,-2.577881,-26.73901,3.618668,0.5719436,0.6813705,-0.4079882999999999,0.910987,-0.1518446,0.1514522,0.6916366999999999,-0.132486,0.3948693,0.7164001,28.39
1,-0.2256927,-0.1794586,0.9575195,0.7499387,-0.2398224,-0.1922302,0.9515839,-35.60648,-2.759216,-27.88153,3.5851900000000003,0.6689805,0.7058454000000001,0.9711604,-0.205246,-0.161026,0.9653625,31.554990000000004,-2.577881,-26.73901,3.618668,0.5719436,0.6813705,-0.4079882999999999,0.910987,-0.1518446,0.1514522,0.6916366999999999,-0.132486,0.3948693,0.7164001,28.39
1,-0.2157593,-0.1647797,0.9624329,0.7499387,-0.2349243,-0.1818085,0.9548492,-35.56105,-2.720978,-27.81882,3.529007,0.6663796,0.7017751,0.9711604,-0.2062531,-0.1563416,0.9659119,31.59201,-2.534882,-26.73117,3.546631,0.570887,0.6789321999999999,-0.4116996,0.9055927,-0.1538597,0.1593345,0.7008248,-0.1409016,0.3948693,0.7164001,28.39
1,-0.2157593,-0.1647797,0.9624329,0.7499387,-0.2349243,-0.1818085,0.9548492,-35.56105,-2.720978,-27.81882,3.529007,0.6663796,0.7017751,0.9711604,-0.2062531,-0.1563416,0.9659119,31.59201,-2.534882,-26.73117,3.546631,0.570887,0.6789321999999999,-0.4116996,0.9055927,-0.1538597,0.1593345,0.7008248,-0.1409016,0.3948693,0.7164001,28.39
1,-0.2157593,-0.1647797,0.9624329,0.7499387,-0.2349243,-0.1818085,0.9548492,-35.56105,-2.720978,-27.81882,3.529007,0.6663796,0.7017751,0.9711604,-0.2062531,-0.1563416,0.9659119,31.59201,-2.534882,-26.73117,3.546631,0.570887,0.6789321999999999,-0.4116996,0.9055927,-0.1538597,0.1593345,0.7008248,-0.1409016,0.3948693,0.7164001,28.39
1,-0.1699677,-0.08468628,0.9817963,0.8047645999999999,-0.1880187999999999,-0.1078186,0.9762268,-35.53113,-2.414703,-27.72966,3.597198,0.6565989999999999,0.676226,0.9353815,-0.1596222,-0.07147217,0.9845734,31.78194,-2.247467,-26.78575,3.561813,0.5565659000000001,0.6540074,-0.4152335999999999,0.90088,-0.1563852999999999,0.1668072,0.7107967,-0.1482009,0.3948693,0.7164001,28.39
1,-0.1699677,-0.08468628,0.9817963,0.8047645999999999,-0.1880187999999999,-0.1078186,0.9762268,-35.53113,-2.414703,-27.72966,3.597198,0.6565989999999999,0.676226,0.9353815,-0.1596222,-0.07147217,0.9845734,31.78194,-2.247467,-26.78575,3.561813,0.5565659000000001,0.6540074,-0.4152335999999999,0.90088,-0.1563852999999999,0.1668072,0.7107967,-0.1482009,0.3948693,0.7164001,28.39
1,-0.1699677,-0.08468628,0.9817963,0.8047645999999999,-0.1880187999999999,-0.1078186,0.9762268,-35.53113,-2.414703,-27.72966,3.597198,0.6565989999999999,0.676226,0.9353815,-0.1596222,-0.07147217,0.9845734,31.78194,-2.247467,-26.78575,3.561813,0.5565659000000001,0.6540074,-0.4152335999999999,0.90088,-0.1563852999999999,0.1668072,0.7107967,-0.1482009,0.3948693,0.7164001,28.39
1,-0.1646729,-0.0955658,0.9817047,0.8287663000000001,-0.1658325,-0.09893799,0.9811707,-35.371,-2.242477,-27.63377,3.52507,0.6470268,0.6673986,0.9263335,-0.1490479,-0.05036926,0.9875336,31.93761,-1.965958,-27.26968,3.726517,0.5497423,0.6457208000000001,-0.4186785,0.8970505999999999,-0.1588112,0.1723964,0.7209312,-0.154668,0.3948693,0.7164001,28.39
1,-0.1646729,-0.0955658,0.9817047,0.8287663000000001,-0.1658325,-0.09893799,0.9811707,-35.371,-2.242477,-27.63377,3.52507,0.6470268,0.6673986,0.9263335,-0.1490479,-0.05036926,0.9875336,31.93761,-1.965958,-27.26968,3.726517,0.5497423,0.6457208000000001,-0.4186785,0.8970505999999999,-0.1588112,0.1723964,0.7209312,-0.154668,0.3948693,0.7164001,28.39
1,-0.1646729,-0.0955658,0.9817047,0.8287663000000001,-0.1658325,-0.09893799,0.9811707,-35.371,-2.242477,-27.63377,3.52507,0.6470268,0.6673986,0.9263335,-0.1490479,-0.05036926,0.9875336,31.93761,-1.965958,-27.26968,3.726517,0.5497423,0.6457208000000001,-0.4186785,0.8970505999999999,-0.1588112,0.1723964,0.7209312,-0.154668,0.3948693,0.7164001,28.39
1,-0.1330872,-0.05154419,0.9897614,0.7969111999999999,-0.1339722,-0.05361938,0.9895172,-35.25464,-2.173553,-27.26199,3.623978,0.6369090000000001,0.6529505999999999,0.9067005,-0.1202545,-0.02168274,0.9924927,32.11562,-1.738998,-27.40506,3.549347,0.5389135,0.6339433000000001,-0.4221626,0.8945181000000001,-0.161207,0.1738683,0.7304016,-0.1604015,0.3948693,23.78015,28.39
1,-0.1330872,-0.05154419,0.9897614,0.7969111999999999,-0.1339722,-0.05361938,0.9895172,-35.25464,-2.173553,-27.26199,3.623978,0.6369090000000001,0.6529505999999999,0.9067005,-0.1202545,-0.02168274,0.9924927,32.11562,-1.738998,-27.40506,3.549347,0.5389135,0.6339433000000001,-0.4221626,0.8945181000000001,-0.161207,0.1738683,0.7304016,-0.1604015,0.3948693,23.78015,28.39
1,-0.1330872,-0.05154419,0.9897614,0.7969111999999999,-0.1339722,-0.05361938,0.9895172,-35.25464,-2.173553,-27.26199,3.623978,0.6369090000000001,0.6529505999999999,0.9067005,-0.1202545,-0.02168274,0.9924927,32.11562,-1.738998,-27.40506,3.549347,0.5389135,0.6339433000000001,-0.4221626,0.8945181000000001,-0.161207,0.1738683,0.7304016,-0.1604015,0.3948693,23.78015,28.39
1,-0.1330872,-0.05154419,0.9897614,0.7969111999999999,-0.1339722,-0.05361938,0.9895172,-35.25464,-2.173553,-27.26199,3.623978,0.6369090000000001,0.6529505999999999,0.9067005,-0.1202545,-0.02168274,0.9924927,32.11562,-1.738998,-27.40506,3.549347,0.5389135,0.6339433000000001,-0.4249476,0.8935097,-0.1634241,0.1715016,0.7392907,-0.1615279,0.3948693,23.78015,28.39
1,-0.1330872,-0.05154419,0.9897614,0.7969111999999999,-0.1339722,-0.05361938,0.9895172,-35.25464,-2.173553,-27.26199,3.623978,0.6369090000000001,0.6529505999999999,0.9067005,-0.1202545,-0.02168274,0.9924927,32.11562,-1.738998,-27.40506,3.549347,0.5389135,0.6339433000000001,-0.4249476,0.8935097,-0.1634241,0.1715016,0.7392907,-0.1615279,0.3948693,23.78015,28.39
1,-0.1330872,-0.05154419,0.9897614,0.7969111999999999,-0.1339722,-0.05361938,0.9895172,-35.25464,-2.173553,-27.26199,3.623978,0.6369090000000001,0.6529505999999999,0.9067005,-0.1202545,-0.02168274,0.9924927,32.11562,-1.738998,-27.40506,3.549347,0.5389135,0.6339433000000001,-0.4249476,0.8935097,-0.1634241,0.1715016,0.7392907,-0.1615279,0.3948693,23.78015,28.39
1,-0.1330872,-0.05154419,0.9897614,0.7969111999999999,-0.1339722,-0.05361938,0.9895172,-35.25464,-2.173553,-27.26199,3.623978,0.6369090000000001,0.6529505999999999,0.9067005,-0.1202545,-0.02168274,0.9924927,32.11562,-1.738998,-27.40506,3.549347,0.5389135,0.6339433000000001,-0.4278209,0.8931644,-0.1654552,0.168287,0.7466573000000001,-0.1624945,0.3948693,23.78015,28.39
1,-0.1330872,-0.05154419,0.9897614,0.7969111999999999,-0.1339722,-0.05361938,0.9895172,-35.25464,-2.173553,-27.26199,3.623978,0.6369090000000001,0.6529505999999999,0.9067005,-0.1202545,-0.02168274,0.9924927,32.11562,-1.738998,-27.40506,3.549347,0.5389135,0.6339433000000001,-0.4278209,0.8931644,-0.1654552,0.168287,0.7466573000000001,-0.1624945,0.3948693,23.78015,28.39
1,-0.1330872,-0.05154419,0.9897614,0.7969111999999999,-0.1339722,-0.05361938,0.9895172,-35.25464,-2.173553,-27.26199,3.623978,0.6369090000000001,0.6529505999999999,0.9067005,-0.1202545,-0.02168274,0.9924927,32.11562,-1.738998,-27.40506,3.549347,0.5389135,0.6339433000000001,-0.4278209,0.8931644,-0.1654552,0.168287,0.7466573000000001,-0.1624945,0.3948693,23.78015,28.39
1,-0.08692932,-0.01252747,0.9961243,0.7406050999999999,-0.08486938,-0.04122925,0.9955292,-34.953340000000004,-1.748093,-27.65622,3.631638,0.6187688,0.6401106,0.8707626,-0.08717346,-0.009124756,0.9961395,32.42758,-1.686432,-27.13652,3.840347,0.5224272,0.6272109,-0.4304969,0.893546,-0.1674008,0.1632529,0.7537014,-0.1638606,0.3948693,23.78015,28.39
1,-0.08692932,-0.01252747,0.9961243,0.7406050999999999,-0.08486938,-0.04122925,0.9955292,-34.953340000000004,-1.748093,-27.65622,3.631638,0.6187688,0.6401106,0.8707626,-0.08717346,-0.009124756,0.9961395,32.42758,-1.686432,-27.13652,3.840347,0.5224272,0.6272109,-0.4304969,0.893546,-0.1674008,0.1632529,0.7537014,-0.1638606,0.3948693,23.78015,28.39
1,-0.08692932,-0.01252747,0.9961243,0.7406050999999999,-0.08486938,-0.04122925,0.9955292,-34.953340000000004,-1.748093,-27.65622,3.631638,0.6187688,0.6401106,0.8707626,-0.08717346,-0.009124756,0.9961395,32.42758,-1.686432,-27.13652,3.840347,0.5224272,0.6272109,-0.4304969,0.893546,-0.1674008,0.1632529,0.7537014,-0.1638606,0.3948693,23.78015,28.39
1,-0.2318573,-0.194397,0.9531097,0.8053696,-0.2501831,-0.2313843,0.9401398,-35.7276,-2.815399,-27.79836,4.030930000000001,0.6749542,0.7146851,0.9813479,-0.2264557,-0.1836243,0.956543,31.3889,-2.423828,-27.14023,4.0112,0.5814233,0.6850174,-0.4331246,0.8943458000000001,-0.1697269,0.157313,0.7619685,-0.1646588,0.3948693,17.63699,28.39
1,-0.2318573,-0.194397,0.9531097,0.8053696,-0.2501831,-0.2313843,0.9401398,-35.7276,-2.815399,-27.79836,4.030930000000001,0.6749542,0.7146851,0.9813479,-0.2264557,-0.1836243,0.956543,31.3889,-2.423828,-27.14023,4.0112,0.5814233,0.6850174,-0.4331246,0.8943458000000001,-0.1697269,0.157313,0.7619685,-0.1646588,0.3948693,17.63699,28.39
1,-0.2318573,-0.194397,0.9531097,0.8053696,-0.2501831,-0.2313843,0.9401398,-35.7276,-2.815399,-27.79836,4.030930000000001,0.6749542,0.7146851,0.9813479,-0.2264557,-0.1836243,0.956543,31.3889,-2.423828,-27.14023,4.0112,0.5814233,0.6850174,-0.4331246,0.8943458000000001,-0.1697269,0.157313,0.7619685,-0.1646588,0.3948693,17.63699,28.39
1,-0.2266083,-0.1914672999999999,0.9549713,0.7889155,-0.2446899,-0.2354279,0.940567,-35.761309999999995,-2.8029330000000003,-27.79532,3.920807,0.6751795,0.7148405,0.9960699,-0.2240752999999999,-0.1853943,0.9567565999999998,31.47411,-2.429199,-27.14156,3.946579,0.5781162,0.6854548,-0.4352308,0.8954136,-0.1726483,0.1527537,0.7696795,-0.1634625,0.3948693,17.63699,28.39
1,-0.2266083,-0.1914672999999999,0.9549713,0.7889155,-0.2446899,-0.2354279,0.940567,-35.761309999999995,-2.8029330000000003,-27.79532,3.920807,0.6751795,0.7148405,0.9960699,-0.2240752999999999,-0.1853943,0.9567565999999998,31.47411,-2.429199,-27.14156,3.946579,0.5781162,0.6854548,-0.4352308,0.8954136,-0.1726483,0.1527537,0.7696795,-0.1634625,0.3948693,17.63699,28.39
1,-0.2266083,-0.1914672999999999,0.9549713,0.7889155,-0.2446899,-0.2354279,0.940567,-35.761309999999995,-2.8029330000000003,-27.79532,3.920807,0.6751795,0.7148405,0.9960699,-0.2240752999999999,-0.1853943,0.9567565999999998,31.47411,-2.429199,-27.14156,3.946579,0.5781162,0.6854548,-0.4352308,0.8954136,-0.1726483,0.1527537,0.7696795,-0.1634625,0.3948693,17.63699,28.39
1,-0.2284393,-0.2136688,0.9498138,0.7793298000000001,-0.2376099,-0.2373809999999999,0.9418945,-35.78419,-2.791504,-27.78908,3.887573,0.6747215,0.7146123999999999,0.9821811,-0.2193297999999999,-0.1903992,0.9568787,31.503740000000004,-2.420441,-27.13094,4.010406,0.5762344,0.6859069999999999,-0.4370367999999999,0.8967476000000001,-0.1760414,0.1476324,0.7788903,-0.1618802999999999,0.3948693,17.63699,28.39
1,-0.2284393,-0.2136688,0.9498138,0.7793298000000001,-0.2376099,-0.2373809999999999,0.9418945,-35.78419,-2.791504,-27.78908,3.887573,0.6747215,0.7146123999999999,0.9821811,-0.2193297999999999,-0.1903992,0.9568787,31.503740000000004,-2.420441,-27.13094,4.010406,0.5762344,0.6859069999999999,-0.4370367999999999,0.8967476000000001,-0.1760414,0.1476324,0.7788903,-0.1618802999999999,0.3948693,17.63699,28.39
1,-0.2284393,-0.2136688,0.9498138,0.7793298000000001,-0.2376099,-0.2373809999999999,0.9418945,-35.78419,-2.791504,-27.78908,3.887573,0.6747215,0.7146123999999999,0.9821811,-0.2193297999999999,-0.1903992,0.9568787,31.503740000000004,-2.420441,-27.13094,4.010406,0.5762344,0.6859069999999999,-0.4370367999999999,0.8967476000000001,-0.1760414,0.1476324,0.7788903,-0.1618802999999999,0.3948693,17.63699,28.39
1,-0.2210387999999999,-0.2178345,0.9506226,0.7590194,-0.2297058,-0.2377625,0.9437561,-35.79889,-2.8029330000000003,-27.79111,3.938904,0.6738576000000001,0.7150156999999999,0.9640303,-0.2123717999999999,-0.1980742999999999,0.9568939,31.51805,-2.437546,-27.13176,4.018814,0.5745348000000001,0.6878159,-0.4387670999999999,0.8978011999999999,-0.1801229,0.1428698,0.7891103,-0.1617959,0.3948693,17.63699,28.39
1,-0.2210387999999999,-0.2178345,0.9506226,0.7590194,-0.2297058,-0.2377625,0.9437561,-35.79889,-2.8029330000000003,-27.79111,3.938904,0.6738576000000001,0.7150156999999999,0.9640303,-0.2123717999999999,-0.1980742999999999,0.9568939,31.51805,-2.437546,-27.13176,4.018814,0.5745348000000001,0.6878159,-0.4387670999999999,0.8978011999999999,-0.1801229,0.1428698,0.7891103,-0.1617959,0.3948693,17.63699,28.39
1,-0.2210387999999999,-0.2178345,0.9506226,0.7590194,-0.2297058,-0.2377625,0.9437561,-35.79889,-2.8029330000000003,-27.79111,3.938904,0.6738576000000001,0.7150156999999999,0.9640303,-0.2123717999999999,-0.1980742999999999,0.9568939,31.51805,-2.437546,-27.13176,4.018814,0.5745348000000001,0.6878159,-0.4387670999999999,0.8978011999999999,-0.1801229,0.1428698,0.7891103,-0.1617959,0.3948693,17.63699,28.39
1,-0.1872559,-0.223938,0.9564362,0.7602327,-0.1964111,-0.2475433,0.9487457,-35.88919,-2.832291,-27.7885,4.127365,0.6712409,0.7174911,0.9099057,-0.1785736,-0.2017517,0.9630127,31.46385,-2.431549,-27.11926,3.96875,0.5706114999999999,0.6877342,-0.4417886,0.9001424000000001,-0.1925628,0.1319691,0.8197618,-0.1614216,0.3948693,17.63699,28.39
1,-0.1872559,-0.223938,0.9564362,0.7602327,-0.1964111,-0.2475433,0.9487457,-35.88919,-2.832291,-27.7885,4.127365,0.6712409,0.7174911,0.9099057,-0.1785736,-0.2017517,0.9630127,31.46385,-2.431549,-27.11926,3.96875,0.5706114999999999,0.6877342,-0.4417886,0.9001424000000001,-0.1925628,0.1319691,0.8197618,-0.1614216,0.3948693,17.63699,28.39
1,-0.1872559,-0.223938,0.9564362,0.7602327,-0.1964111,-0.2475433,0.9487457,-35.88919,-2.832291,-27.7885,4.127365,0.6712409,0.7174911,0.9099057,-0.1785736,-0.2017517,0.9630127,31.46385,-2.431549,-27.11926,3.96875,0.5706114999999999,0.6877342,-0.4417886,0.9001424000000001,-0.1925628,0.1319691,0.8197618,-0.1614216,0.3948693,17.63699,28.39
1,-0.1872559,-0.223938,0.9564362,0.7602327,-0.1964111,-0.2475433,0.9487457,-35.88919,-2.832291,-27.7885,4.127365,0.6712409,0.7174911,0.9099057,-0.1785736,-0.2017517,0.9630127,31.46385,-2.431549,-27.11926,3.96875,0.5706114999999999,0.6877342,-0.4417886,0.9001424000000001,-0.1925628,0.1319691,0.8197618,-0.1614216,0.3948693,17.63699,28.39
1,-0.1872559,-0.223938,0.9564362,0.7602327,-0.1964111,-0.2475433,0.9487457,-35.88919,-2.832291,-27.7885,4.127365,0.6712409,0.7174911,0.9099057,-0.1785736,-0.2017517,0.9630127,31.46385,-2.431549,-27.11926,3.96875,0.5706114999999999,0.6877342,-0.4417886,0.9001424000000001,-0.1925628,0.1319691,0.8197618,-0.1614216,0.3948693,17.63699,28.39
1,-0.1872559,-0.223938,0.9564362,0.7602327,-0.1964111,-0.2475433,0.9487457,-35.88919,-2.832291,-27.7885,4.127365,0.6712409,0.7174911,0.9099057,-0.1785736,-0.2017517,0.9630127,31.46385,-2.431549,-27.11926,3.96875,0.5706114999999999,0.6877342,-0.4417886,0.9001424000000001,-0.1925628,0.1319691,0.8197618,-0.1614216,0.3948693,17.63699,28.39
2,-0.1872559,-0.223938,0.9564362,0.7602327,-0.1964111,-0.2475433,0.9487457,-35.88919,-2.832291,-27.7885,4.127365,0.6712409,0.7174911,0.9099057,-0.1785736,-0.2017517,0.9630127,31.46385,-2.431549,-27.11926,3.96875,0.5706114999999999,0.6877342,-0.4438758,0.9009182,-0.2004073999999999,0.125901,0.8380796,-0.1623282,0.3948693,-19.19641,28.39
2,-0.1872559,-0.223938,0.9564362,0.7602327,-0.1964111,-0.2475433,0.9487457,-35.88919,-2.832291,-27.7885,4.127365,0.6712409,0.7174911,0.9099057,-0.1785736,-0.2017517,0.9630127,31.46385,-2.431549,-27.11926,3.96875,0.5706114999999999,0.6877342,-0.4438758,0.9009182,-0.2004073999999999,0.125901,0.8380796,-0.1623282,0.3948693,-19.19641,28.39
2,-0.1872559,-0.223938,0.9564362,0.7602327,-0.1964111,-0.2475433,0.9487457,-35.88919,-2.832291,-27.7885,4.127365,0.6712409,0.7174911,0.9099057,-0.1785736,-0.2017517,0.9630127,31.46385,-2.431549,-27.11926,3.96875,0.5706114999999999,0.6877342,-0.4438758,0.9009182,-0.2004073999999999,0.125901,0.8380796,-0.1623282,0.3948693,-19.19641,28.39
2,-0.09663391,-0.2309875,0.9681396,0.7121602,-0.1036223999999999,-0.2385559,0.9655762,-35.4427,-2.874878,-27.70348,4.00972,0.6395843000000001,0.7149103,0.8653753000000001,-0.09159851,-0.2255096,0.9699097,31.88446,-2.571884,-27.05824,4.039688,0.5412686999999999,0.6954336999999999,-0.4464510999999999,0.9011596,-0.2083083,0.1219645999999999,0.8557018,-0.1635555,0.3948693,-19.19641,28.39
2,-0.09663391,-0.2309875,0.9681396,0.7121602,-0.1036223999999999,-0.2385559,0.9655762,-35.4427,-2.874878,-27.70348,4.00972,0.6395843000000001,0.7149103,0.8653753000000001,-0.09159851,-0.2255096,0.9699097,31.88446,-2.571884,-27.05824,4.039688,0.5412686999999999,0.6954336999999999,-0.4464510999999999,0.9011596,-0.2083083,0.1219645999999999,0.8557018,-0.1635555,0.3948693,-19.19641,28.39
2,-0.09663391,-0.2309875,0.9681396,0.7121602,-0.1036223999999999,-0.2385559,0.9655762,-35.4427,-2.874878,-27.70348,4.00972,0.6395843000000001,0.7149103,0.8653753000000001,-0.09159851,-0.2255096,0.9699097,31.88446,-2.571884,-27.05824,4.039688,0.5412686999999999,0.6954336999999999,-0.4464510999999999,0.9011596,-0.2083083,0.1219645999999999,0.8557018,-0.1635555,0.3948693,-19.19641,28.39
2,-0.2180328,-0.234314,0.9473877,0.6970691999999999,-0.2401123,-0.2554321,0.9365234,-35.97026,-2.925644,-27.84653,4.179947,0.681955,0.7236882,0.8611203000000002,-0.2021332,-0.2190857,0.9545288,31.23466,-2.449982,-27.16365,4.26091,0.582431,0.6924986999999999,-0.4493244,0.9016709,-0.2164086,0.1167845,0.8742011000000001,-0.164289,0.3948693,-19.19641,28.39
2,-0.2180328,-0.234314,0.9473877,0.6970691999999999,-0.2401123,-0.2554321,0.9365234,-35.97026,-2.925644,-27.84653,4.179947,0.681955,0.7236882,0.8611203000000002,-0.2021332,-0.2190857,0.9545288,31.23466,-2.449982,-27.16365,4.26091,0.582431,0.6924986999999999,-0.4493244,0.9016709,-0.2164086,0.1167845,0.8742011000000001,-0.164289,0.3948693,-19.19641,28.39
2,-0.2180328,-0.234314,0.9473877,0.6970691999999999,-0.2401123,-0.2554321,0.9365234,-35.97026,-2.925644,-27.84653,4.179947,0.681955,0.7236882,0.8611203000000002,-0.2021332,-0.2190857,0.9545288,31.23466,-2.449982,-27.16365,4.26091,0.582431,0.6924986999999999,-0.4493244,0.9016709,-0.2164086,0.1167845,0.8742011000000001,-0.164289,0.3948693,-19.19641,28.39
2,-0.2180328,-0.234314,0.9473877,0.6970691999999999,-0.2401123,-0.2554321,0.9365234,-35.97026,-2.925644,-27.84653,4.179947,0.681955,0.7236882,0.8611203000000002,-0.2021332,-0.2190857,0.9545288,31.23466,-2.449982,-27.16365,4.26091,0.582431,0.6924986999999999,-0.4525414000000001,0.9018431999999998,-0.2240182,0.1135958999999999,0.8908492,-0.1648597,0.3948693,-19.19641,28.39
2,-0.2180328,-0.234314,0.9473877,0.6970691999999999,-0.2401123,-0.2554321,0.9365234,-35.97026,-2.925644,-27.84653,4.179947,0.681955,0.7236882,0.8611203000000002,-0.2021332,-0.2190857,0.9545288,31.23466,-2.449982,-27.16365,4.26091,0.582431,0.6924986999999999,-0.4525414000000001,0.9018431999999998,-0.2240182,0.1135958999999999,0.8908492,-0.1648597,0.3948693,-19.19641,28.39
2,-0.2180328,-0.234314,0.9473877,0.6970691999999999,-0.2401123,-0.2554321,0.9365234,-35.97026,-2.925644,-27.84653,4.179947,0.681955,0.7236882,0.8611203000000002,-0.2021332,-0.2190857,0.9545288,31.23466,-2.449982,-27.16365,4.26091,0.582431,0.6924986999999999,-0.4525414000000001,0.9018431999999998,-0.2240182,0.1135958999999999,0.8908492,-0.1648597,0.3948693,-19.19641,28.39
2,-0.1420592999999999,-0.2105712999999999,0.9671936,0.6943706999999999,-0.1464844,-0.2369842999999999,0.9604034,-35.46741,-2.720245,-27.67677,4.083481,0.6476438,0.7094495,0.8503594999999999,-0.1400757,-0.1988373,0.9699554,31.89287,-2.430084,-27.05742,4.134506,0.5492213,0.6860630999999999,-0.4579284,0.901538,-0.23512,0.1131231,0.9120044,-0.1670727,0.3948693,-24.05209,28.39
2,-0.1420592999999999,-0.2105712999999999,0.9671936,0.6943706999999999,-0.1464844,-0.2369842999999999,0.9604034,-35.46741,-2.720245,-27.67677,4.083481,0.6476438,0.7094495,0.8503594999999999,-0.1400757,-0.1988373,0.9699554,31.89287,-2.430084,-27.05742,4.134506,0.5492213,0.6860630999999999,-0.4579284,0.901538,-0.23512,0.1131231,0.9120044,-0.1670727,0.3948693,-24.05209,28.39
2,-0.1420592999999999,-0.2105712999999999,0.9671936,0.6943706999999999,-0.1464844,-0.2369842999999999,0.9604034,-35.46741,-2.720245,-27.67677,4.083481,0.6476438,0.7094495,0.8503594999999999,-0.1400757,-0.1988373,0.9699554,31.89287,-2.430084,-27.05742,4.134506,0.5492213,0.6860630999999999,-0.4579284,0.901538,-0.23512,0.1131231,0.9120044,-0.1670727,0.3948693,-24.05209,28.39
2,-0.08117676,-0.2126922999999999,0.9737244,0.6450059,-0.0990448,-0.2376099,0.9662933,-35.02296,-2.4720150000000003,-27.57132,4.083679,0.624004,0.6992041999999999,0.8538554,-0.07621765,-0.2057647999999999,0.9756165,32.29823,-2.308762,-26.99161,4.328903,0.5244578000000001,0.6819921,-0.4592714,0.9017697,-0.2386256,0.1093992999999999,0.9190998,-0.1681619,0.3948693,-24.05209,28.39
2,-0.08117676,-0.2126922999999999,0.9737244,0.6450059,-0.0990448,-0.2376099,0.9662933,-35.02296,-2.4720150000000003,-27.57132,4.083679,0.624004,0.6992041999999999,0.8538554,-0.07621765,-0.2057647999999999,0.9756165,32.29823,-2.308762,-26.99161,4.328903,0.5244578000000001,0.6819921,-0.4592714,0.9017697,-0.2386256,0.1093992999999999,0.9190998,-0.1681619,0.3948693,-24.05209,28.39
2,-0.08117676,-0.2126922999999999,0.9737244,0.6450059,-0.0990448,-0.2376099,0.9662933,-35.02296,-2.4720150000000003,-27.57132,4.083679,0.624004,0.6992041999999999,0.8538554,-0.07621765,-0.2057647999999999,0.9756165,32.29823,-2.308762,-26.99161,4.328903,0.5244578000000001,0.6819921,-0.4592714,0.9017697,-0.2386256,0.1093992999999999,0.9190998,-0.1681619,0.3948693,-24.05209,28.39
2,-0.04455566,-0.2007446,0.9786224,0.6112156999999999,-0.06126404,-0.2238464,0.9726868,-34.75484,-2.372879,-27.52791,4.233261,0.6083553,0.692546,0.8664573,-0.03353882,-0.1854247999999999,0.9820709,32.553940000000004,-2.258972,-27.02032,4.236816,0.508563,0.6766661,-0.4596168,0.9020934000000002,-0.241019,0.1060023,0.9230632,-0.1685217,0.3948693,-24.05209,28.39
2,-0.04455566,-0.2007446,0.9786224,0.6112156999999999,-0.06126404,-0.2238464,0.9726868,-34.75484,-2.372879,-27.52791,4.233261,0.6083553,0.692546,0.8664573,-0.03353882,-0.1854247999999999,0.9820709,32.553940000000004,-2.258972,-27.02032,4.236816,0.508563,0.6766661,-0.4596168,0.9020934000000002,-0.241019,0.1060023,0.9230632,-0.1685217,0.3948693,-24.05209,28.39
2,-0.04455566,-0.2007446,0.9786224,0.6112156999999999,-0.06126404,-0.2238464,0.9726868,-34.75484,-2.372879,-27.52791,4.233261,0.6083553,0.692546,0.8664573,-0.03353882,-0.1854247999999999,0.9820709,32.553940000000004,-2.258972,-27.02032,4.236816,0.508563,0.6766661,-0.4596168,0.9020934000000002,-0.241019,0.1060023,0.9230632,-0.1685217,0.3948693,-24.05209,28.39
2,-0.003616333,-0.1856689,0.9825897,0.6014571999999999,-0.01968384,-0.1902007999999999,0.9815369,-34.4567,-2.181564,-27.53799,4.236252,0.5911607,0.6798291999999999,0.8716456,0.01445007,-0.1805115,0.9834595,32.89603,-2.268143,-26.92773,4.235397,0.4887891,0.6749609000000001,-0.4596166,0.9022392,-0.2422264999999999,0.1027126,0.9253902,-0.1685453999999999,0.3948693,-24.05209,28.39
2,-0.003616333,-0.1856689,0.9825897,0.6014571999999999,-0.01968384,-0.1902007999999999,0.9815369,-34.4567,-2.181564,-27.53799,4.236252,0.5911607,0.6798291999999999,0.8716456,0.01445007,-0.1805115,0.9834595,32.89603,-2.268143,-26.92773,4.235397,0.4887891,0.6749609000000001,-0.4596166,0.9022392,-0.2422264999999999,0.1027126,0.9253902,-0.1685453999999999,0.3948693,-24.05209,28.39
2,-0.003616333,-0.1856689,0.9825897,0.6014571999999999,-0.01968384,-0.1902007999999999,0.9815369,-34.4567,-2.181564,-27.53799,4.236252,0.5911607,0.6798291999999999,0.8716456,0.01445007,-0.1805115,0.9834595,32.89603,-2.268143,-26.92773,4.235397,0.4887891,0.6749609000000001,-0.4596166,0.9022392,-0.2422264999999999,0.1027126,0.9253902,-0.1685453999999999,0.3948693,-24.05209,28.39
2,0.01637268,-0.1940002,0.9808502,0.5845283,0.008041382,-0.2128754,0.9770355,-34.40997,-2.093857,-27.511640000000003,4.226166,0.5849655,0.6805597,0.8690939000000001,0.02410889,-0.1764374,0.9840088,32.94485,-2.235153,-26.9086,4.242447,0.4855112,0.6728876,-0.4586529,0.9024862,-0.2426558999999999,0.09918992,0.9264526,-0.1679626,0.3948693,-24.05209,28.39
2,0.01637268,-0.1940002,0.9808502,0.5845283,0.008041382,-0.2128754,0.9770355,-34.40997,-2.093857,-27.511640000000003,4.226166,0.5849655,0.6805597,0.8690939000000001,0.02410889,-0.1764374,0.9840088,32.94485,-2.235153,-26.9086,4.242447,0.4855112,0.6728876,-0.4586529,0.9024862,-0.2426558999999999,0.09918992,0.9264526,-0.1679626,0.3948693,-24.05209,28.39
2,0.01637268,-0.1940002,0.9808502,0.5845283,0.008041382,-0.2128754,0.9770355,-34.40997,-2.093857,-27.511640000000003,4.226166,0.5849655,0.6805597,0.8690939000000001,0.02410889,-0.1764374,0.9840088,32.94485,-2.235153,-26.9086,4.242447,0.4855112,0.6728876,-0.4586529,0.9024862,-0.2426558999999999,0.09918992,0.9264526,-0.1679626,0.3948693,-24.05209,28.39
2,0.02320862,-0.1858826,0.9822845,0.5950970999999999,0.01860046,-0.19841,0.9799347,-34.46048,-1.796234,-27.54933,4.230164,0.5848852,0.6682581999999999,0.8182752,0.03060913,-0.1656952,0.9856873,32.973040000000005,-2.082825,-26.85909,4.172256,0.4835010999999999,0.6651925,-0.4545644,0.9030442,-0.2420275999999999,0.09069061,0.9249783,-0.1650452,0.3948693,-17.93332,28.39
2,0.02320862,-0.1858826,0.9822845,0.5950970999999999,0.01860046,-0.19841,0.9799347,-34.46048,-1.796234,-27.54933,4.230164,0.5848852,0.6682581999999999,0.8182752,0.03060913,-0.1656952,0.9856873,32.973040000000005,-2.082825,-26.85909,4.172256,0.4835010999999999,0.6651925,-0.4545644,0.9030442,-0.2420275999999999,0.09069061,0.9249783,-0.1650452,0.3948693,-17.93332,28.39
2,0.02320862,-0.1858826,0.9822845,0.5950970999999999,0.01860046,-0.19841,0.9799347,-34.46048,-1.796234,-27.54933,4.230164,0.5848852,0.6682581999999999,0.8182752,0.03060913,-0.1656952,0.9856873,32.973040000000005,-2.082825,-26.85909,4.172256,0.4835010999999999,0.6651925,-0.4545644,0.9030442,-0.2420275999999999,0.09069061,0.9249783,-0.1650452,0.3948693,-17.93332,28.39
2,0.02000427,-0.1809387,0.9832764,0.5735406,0.01371765,-0.2088623,0.9778442,-34.52998,-1.6755369999999998,-27.47261,4.198181,0.5879704000000001,0.665248,0.810665,0.02444458,-0.1611176,0.986618,32.96933,-2.016296,-26.77617,4.11702,0.4846819999999999,0.6612085,-0.451607,0.9032103,-0.240677,0.08832958,0.9219354,-0.1625155999999999,0.3948693,-17.93332,28.39
2,0.02000427,-0.1809387,0.9832764,0.5735406,0.01371765,-0.2088623,0.9778442,-34.52998,-1.6755369999999998,-27.47261,4.198181,0.5879704000000001,0.665248,0.810665,0.02444458,-0.1611176,0.986618,32.96933,-2.016296,-26.77617,4.11702,0.4846819999999999,0.6612085,-0.451607,0.9032103,-0.240677,0.08832958,0.9219354,-0.1625155999999999,0.3948693,-17.93332,28.39
2,0.02000427,-0.1809387,0.9832764,0.5735406,0.01371765,-0.2088623,0.9778442,-34.52998,-1.6755369999999998,-27.47261,4.198181,0.5879704000000001,0.665248,0.810665,0.02444458,-0.1611176,0.986618,32.96933,-2.016296,-26.77617,4.11702,0.4846819999999999,0.6612085,-0.451607,0.9032103,-0.240677,0.08832958,0.9219354,-0.1625155999999999,0.3948693,-17.93332,28.39
2,0.01515198,-0.1748198999999999,0.9844818,0.5493823,0.00201416,-0.1788787999999999,0.9838562,-34.63251,-1.5896,-27.5941,4.374191000000001,0.5934721,0.6583946999999999,0.7951778,0.02272034,-0.1724701,0.9847412,32.89578,-2.037048,-26.77531,4.235504,0.4874718,0.6640041,-0.451607,0.9032103,-0.240677,0.08832958,0.9219354,-0.1625155999999999,0.3948693,-17.93332,28.39
2,0.01515198,-0.1748198999999999,0.9844818,0.5493823,0.00201416,-0.1788787999999999,0.9838562,-34.63251,-1.5896,-27.5941,4.374191000000001,0.5934721,0.6583946999999999,0.7951778,0.02272034,-0.1724701,0.9847412,32.89578,-2.037048,-26.77531,4.235504,0.4874718,0.6640041,-0.451607,0.9032103,-0.240677,0.08832958,0.9219354,-0.1625155999999999,0.3948693,-17.93332,28.39
2,0.01515198,-0.1748198999999999,0.9844818,0.5493823,0.00201416,-0.1788787999999999,0.9838562,-34.63251,-1.5896,-27.5941,4.374191000000001,0.5934721,0.6583946999999999,0.7951778,0.02272034,-0.1724701,0.9847412,32.89578,-2.037048,-26.77531,4.235504,0.4874718,0.6640041,-0.451607,0.9032103,-0.240677,0.08832958,0.9219354,-0.1625155999999999,0.3948693,-17.93332,28.39
2,0.004379272,-0.1906128,0.9816437,0.5156512,-0.01144409,-0.2172393999999999,0.9760437,-34.739670000000004,-1.675018,-27.43803,4.440079,0.5992739,0.6665637,0.7976698,0.01197815,-0.1777648999999999,0.9839935,32.80893,-2.0990450000000003,-26.82863,4.278183,0.4922225,0.6676723000000001,-0.4488068,0.9027998,-0.2381134,0.08821192,0.917429,-0.1630974999999999,0.3948693,-17.93332,28.39
2,0.004379272,-0.1906128,0.9816437,0.5156512,-0.01144409,-0.2172393999999999,0.9760437,-34.739670000000004,-1.675018,-27.43803,4.440079,0.5992739,0.6665637,0.7976698,0.01197815,-0.1777648999999999,0.9839935,32.80893,-2.0990450000000003,-26.82863,4.278183,0.4922225,0.6676723000000001,-0.4488068,0.9027998,-0.2381134,0.08821192,0.917429,-0.1630974999999999,0.3948693,-17.93332,28.39
2,0.004379272,-0.1906128,0.9816437,0.5156512,-0.01144409,-0.2172393999999999,0.9760437,-34.739670000000004,-1.675018,-27.43803,4.440079,0.5992739,0.6665637,0.7976698,0.01197815,-0.1777648999999999,0.9839935,32.80893,-2.0990450000000003,-26.82863,4.278183,0.4922225,0.6676723000000001,-0.4488068,0.9027998,-0.2381134,0.08821192,0.917429,-0.1630974999999999,0.3948693,-17.93332,28.39
2,-0.02003479,-0.1903687,0.9815063,0.5165108,-0.02687073,-0.1966248,0.9801025,-34.836940000000006,-1.916519,-27.531370000000003,4.45134,0.6052529000000001,0.6721499,0.8123453,-0.01416016,-0.1849517999999999,0.9826355,32.71474,-2.209229,-26.86786,4.411697,0.4997887,0.6732578,-0.4428995,0.9003767,-0.2303378999999999,0.08910891,0.9050795,-0.1724388999999999,0.3948693,-17.93332,28.39
2,-0.02003479,-0.1903687,0.9815063,0.5165108,-0.02687073,-0.1966248,0.9801025,-34.836940000000006,-1.916519,-27.531370000000003,4.45134,0.6052529000000001,0.6721499,0.8123453,-0.01416016,-0.1849517999999999,0.9826355,32.71474,-2.209229,-26.86786,4.411697,0.4997887,0.6732578,-0.4428995,0.9003767,-0.2303378999999999,0.08910891,0.9050795,-0.1724388999999999,0.3948693,-17.93332,28.39
2,-0.02003479,-0.1903687,0.9815063,0.5165108,-0.02687073,-0.1966248,0.9801025,-34.836940000000006,-1.916519,-27.531370000000003,4.45134,0.6052529000000001,0.6721499,0.8123453,-0.01416016,-0.1849517999999999,0.9826355,32.71474,-2.209229,-26.86786,4.411697,0.4997887,0.6732578,-0.4428995,0.9003767,-0.2303378999999999,0.08910891,0.9050795,-0.1724388999999999,0.3948693,-17.93332,28.39
2,-0.02391052,-0.1874237,0.9819794,0.5294083,-0.03434753,-0.1993103,0.9793243,-34.82881,-1.932709,-27.53316,4.376801,0.606222,0.6731798000000001,0.8212019,-0.01550293,-0.1778107,0.9839325,32.713390000000004,-2.20813,-26.866640000000004,4.388107,0.5000675,0.6719164000000001,-0.4428995,0.9003767,-0.2303378999999999,0.08910891,0.9050795,-0.1724388999999999,0.3948693,56.38898,28.39
2,-0.02391052,-0.1874237,0.9819794,0.5294083,-0.03434753,-0.1993103,0.9793243,-34.82881,-1.932709,-27.53316,4.376801,0.606222,0.6731798000000001,0.8212019,-0.01550293,-0.1778107,0.9839325,32.713390000000004,-2.20813,-26.866640000000004,4.388107,0.5000675,0.6719164000000001,-0.4428995,0.9003767,-0.2303378999999999,0.08910891,0.9050795,-0.1724388999999999,0.3948693,56.38898,28.39
2,-0.02391052,-0.1874237,0.9819794,0.5294083,-0.03434753,-0.1993103,0.9793243,-34.82881,-1.932709,-27.53316,4.376801,0.606222,0.6731798000000001,0.8212019,-0.01550293,-0.1778107,0.9839325,32.713390000000004,-2.20813,-26.866640000000004,4.388107,0.5000675,0.6719164000000001,-0.4428995,0.9003767,-0.2303378999999999,0.08910891,0.9050795,-0.1724388999999999,0.3948693,56.38898,28.39
2,0.05763245,-0.2205353,0.9736633,0.5913841,0.05091858,-0.2574158,0.9649506,-34.16125,-2.203049,-27.62167,4.309418,0.5696101,0.6935121,0.8490304,0.06066895,-0.2036285,0.9771576,33.23363,-2.354309,-26.9133,4.472702,0.4694492999999999,0.6819608,-0.4365273,0.8974996,-0.2200494999999999,0.09323735,0.8895603000000001,-0.178949,0.3948693,56.38898,28.39
2,0.05763245,-0.2205353,0.9736633,0.5913841,0.05091858,-0.2574158,0.9649506,-34.16125,-2.203049,-27.62167,4.309418,0.5696101,0.6935121,0.8490304,0.06066895,-0.2036285,0.9771576,33.23363,-2.354309,-26.9133,4.472702,0.4694492999999999,0.6819608,-0.4365273,0.8974996,-0.2200494999999999,0.09323735,0.8895603000000001,-0.178949,0.3948693,56.38898,28.39
2,0.05763245,-0.2205353,0.9736633,0.5913841,0.05091858,-0.2574158,0.9649506,-34.16125,-2.203049,-27.62167,4.309418,0.5696101,0.6935121,0.8490304,0.06066895,-0.2036285,0.9771576,33.23363,-2.354309,-26.9133,4.472702,0.4694492999999999,0.6819608,-0.4365273,0.8974996,-0.2200494999999999,0.09323735,0.8895603000000001,-0.178949,0.3948693,56.38898,28.39
2,0.03768921,-0.2220459,0.9743042,0.6073514,0.03619385,-0.2609863,0.9646606,-34.358670000000004,-2.257385,-27.63193,4.371124,0.5788084,0.6961955,0.867848,0.03857422,-0.1979065,0.9794464,33.05923,-2.357635,-26.87166,4.570206,0.4791426,0.6806594,-0.4334398,0.8955264999999999,-0.2139232,0.09654219,0.8808236999999999,-0.1848507,0.3948693,56.38898,28.39
2,0.03768921,-0.2220459,0.9743042,0.6073514,0.03619385,-0.2609863,0.9646606,-34.358670000000004,-2.257385,-27.63193,4.371124,0.5788084,0.6961955,0.867848,0.03857422,-0.1979065,0.9794464,33.05923,-2.357635,-26.87166,4.570206,0.4791426,0.6806594,-0.4334398,0.8955264999999999,-0.2139232,0.09654219,0.8808236999999999,-0.1848507,0.3948693,56.38898,28.39
2,0.03768921,-0.2220459,0.9743042,0.6073514,0.03619385,-0.2609863,0.9646606,-34.358670000000004,-2.257385,-27.63193,4.371124,0.5788084,0.6961955,0.867848,0.03857422,-0.1979065,0.9794464,33.05923,-2.357635,-26.87166,4.570206,0.4791426,0.6806594,-0.4334398,0.8955264999999999,-0.2139232,0.09654219,0.8808236999999999,-0.1848507,0.3948693,56.38898,28.39
2,0.007751465,-0.2113495,0.9773712,0.6629156,9.155273e-05,-0.2337798999999999,0.9722748,-34.56512,-2.352997,-27.647,4.441162,0.5918477,0.6948062,0.8975928,0.01429749,-0.1921082,0.9812622,32.87866,-2.406784,-26.87616,4.448029,0.4893673,0.6813340999999999,-0.4310665,0.8930511000000001,-0.2075987,0.1039079,0.8715968000000001,-0.1943422,0.3948693,56.38898,28.39
2,0.007751465,-0.2113495,0.9773712,0.6629156,9.155273e-05,-0.2337798999999999,0.9722748,-34.56512,-2.352997,-27.647,4.441162,0.5918477,0.6948062,0.8975928,0.01429749,-0.1921082,0.9812622,32.87866,-2.406784,-26.87616,4.448029,0.4893673,0.6813340999999999,-0.4310665,0.8930511000000001,-0.2075987,0.1039079,0.8715968000000001,-0.1943422,0.3948693,56.38898,28.39
2,0.007751465,-0.2113495,0.9773712,0.6629156,9.155273e-05,-0.2337798999999999,0.9722748,-34.56512,-2.352997,-27.647,4.441162,0.5918477,0.6948062,0.8975928,0.01429749,-0.1921082,0.9812622,32.87866,-2.406784,-26.87616,4.448029,0.4893673,0.6813340999999999,-0.4310665,0.8930511000000001,-0.2075987,0.1039079,0.8715968000000001,-0.1943422,0.3948693,56.38898,28.39
2,-0.02603149,-0.173233,0.9845276,0.7088751999999999,-0.04377747,-0.1855927,0.9816437,-34.659440000000004,-2.408417,-27.6826,4.61409,0.6023349,0.6886576,0.9316266,-0.01373291,-0.1646118,0.9862518,32.73619,-2.384872,-26.86876,4.54277,0.4989635,0.6757065999999999,-0.4294447,0.889841,-0.2007494,0.112964,0.8605751,-0.2077558,0.3948693,31.45599,28.39
2,-0.02603149,-0.173233,0.9845276,0.7088751999999999,-0.04377747,-0.1855927,0.9816437,-34.659440000000004,-2.408417,-27.6826,4.61409,0.6023349,0.6886576,0.9316266,-0.01373291,-0.1646118,0.9862518,32.73619,-2.384872,-26.86876,4.54277,0.4989635,0.6757065999999999,-0.4294447,0.889841,-0.2007494,0.112964,0.8605751,-0.2077558,0.3948693,31.45599,28.39
2,-0.02603149,-0.173233,0.9845276,0.7088751999999999,-0.04377747,-0.1855927,0.9816437,-34.659440000000004,-2.408417,-27.6826,4.61409,0.6023349,0.6886576,0.9316266,-0.01373291,-0.1646118,0.9862518,32.73619,-2.384872,-26.86876,4.54277,0.4989635,0.6757065999999999,-0.4294447,0.889841,-0.2007494,0.112964,0.8605751,-0.2077558,0.3948693,31.45599,28.39
2,-0.02603149,-0.173233,0.9845276,0.7088751999999999,-0.04377747,-0.1855927,0.9816437,-34.659440000000004,-2.408417,-27.6826,4.61409,0.6023349,0.6886576,0.9316266,-0.01373291,-0.1646118,0.9862518,32.73619,-2.384872,-26.86876,4.54277,0.4989635,0.6757065999999999,-0.4276733,0.8872087,-0.1941116,0.1223676,0.8495556999999999,-0.2170542999999999,0.3948693,31.45599,28.39
2,-0.02603149,-0.173233,0.9845276,0.7088751999999999,-0.04377747,-0.1855927,0.9816437,-34.659440000000004,-2.408417,-27.6826,4.61409,0.6023349,0.6886576,0.9316266,-0.01373291,-0.1646118,0.9862518,32.73619,-2.384872,-26.86876,4.54277,0.4989635,0.6757065999999999,-0.4276733,0.8872087,-0.1941116,0.1223676,0.8495556999999999,-0.2170542999999999,0.3948693,31.45599,28.39
2,-0.02603149,-0.173233,0.9845276,0.7088751999999999,-0.04377747,-0.1855927,0.9816437,-34.659440000000004,-2.408417,-27.6826,4.61409,0.6023349,0.6886576,0.9316266,-0.01373291,-0.1646118,0.9862518,32.73619,-2.384872,-26.86876,4.54277,0.4989635,0.6757065999999999,-0.4276733,0.8872087,-0.1941116,0.1223676,0.8495556999999999,-0.2170542999999999,0.3948693,31.45599,28.39
2,-0.03453064,-0.1417694,0.9892883,0.6721008,-0.04086304,-0.1794434,0.9829101999999998,-34.747679999999995,-2.344498,-27.66112,4.604843,0.6048024999999999,0.6851684,0.8840751,-0.02854919,-0.1062164,0.993927,32.70044,-2.292328,-26.909840000000003,4.844757,0.5027451000000001,0.6629236,-0.4249621,0.8872194,-0.1887865,0.1272865,0.8422506999999999,-0.2143252,0.3884634,31.45599,28.39
2,-0.03453064,-0.1417694,0.9892883,0.6721008,-0.04086304,-0.1794434,0.9829101999999998,-34.747679999999995,-2.344498,-27.66112,4.604843,0.6048024999999999,0.6851684,0.8840751,-0.02854919,-0.1062164,0.993927,32.70044,-2.292328,-26.909840000000003,4.844757,0.5027451000000001,0.6629236,-0.4249621,0.8872194,-0.1887865,0.1272865,0.8422506999999999,-0.2143252,0.3884634,31.45599,28.39
2,-0.03453064,-0.1417694,0.9892883,0.6721008,-0.04086304,-0.1794434,0.9829101999999998,-34.747679999999995,-2.344498,-27.66112,4.604843,0.6048024999999999,0.6851684,0.8840751,-0.02854919,-0.1062164,0.993927,32.70044,-2.292328,-26.909840000000003,4.844757,0.5027451000000001,0.6629236,-0.4249621,0.8872194,-0.1887865,0.1272865,0.8422506999999999,-0.2143252,0.3884634,31.45599,28.39
2,0.05274963,-0.1920166,0.9799652,0.3532973,0.05274963,-0.1920166,0.9799652,-34.20905,-2.058914,-27.57811,3.398132,0.5698416999999999,0.6747763000000001,0.06588566,0.0,0.0,0.0,32.65646,-2.142792,-26.90485,-1.0,0.5663208000000001,0.6711989,-0.4222212,0.8885886999999999,-0.184073,0.125862,0.8385087999999999,-0.2063112,0.3884634,31.45599,28.39
2,0.05274963,-0.1920166,0.9799652,0.3532973,0.05274963,-0.1920166,0.9799652,-34.20905,-2.058914,-27.57811,3.398132,0.5698416999999999,0.6747763000000001,0.06588566,0.0,0.0,0.0,32.65646,-2.142792,-26.90485,-1.0,0.5663208000000001,0.6711989,-0.4222212,0.8885886999999999,-0.184073,0.125862,0.8385087999999999,-0.2063112,0.3884634,31.45599,28.39
2,0.05274963,-0.1920166,0.9799652,0.3532973,0.05274963,-0.1920166,0.9799652,-34.20905,-2.058914,-27.57811,3.398132,0.5698416999999999,0.6747763000000001,0.06588566,0.0,0.0,0.0,32.65646,-2.142792,-26.90485,-1.0,0.5663208000000001,0.6711989,-0.4222212,0.8885886999999999,-0.184073,0.125862,0.8385087999999999,-0.2063112,0.3884634,31.45599,28.39
2,0.05940247,-0.01477051,0.9981232,0.5387217,0.0,0.0,0.0,-34.44502,-0.6385498000000001,-28.744090000000003,-1.0,0.5845482,0.6044156999999999,0.3172906,0.05940247,-0.01477051,0.9981232,32.90982,-0.8121185000000001,-27.39597,4.489395,0.4813327999999999,0.6012641,-0.4195375,0.8914474,-0.1797864,0.1223922,0.8366495999999999,-0.1948356,0.3884634,31.45599,28.39
2,0.05940247,-0.01477051,0.9981232,0.5387217,0.0,0.0,0.0,-34.44502,-0.6385498000000001,-28.744090000000003,-1.0,0.5845482,0.6044156999999999,0.3172906,0.05940247,-0.01477051,0.9981232,32.90982,-0.8121185000000001,-27.39597,4.489395,0.4813327999999999,0.6012641,-0.4195375,0.8914474,-0.1797864,0.1223922,0.8366495999999999,-0.1948356,0.3884634,31.45599,28.39
2,0.05940247,-0.01477051,0.9981232,0.5387217,0.0,0.0,0.0,-34.44502,-0.6385498000000001,-28.744090000000003,-1.0,0.5845482,0.6044156999999999,0.3172906,0.05940247,-0.01477051,0.9981232,32.90982,-0.8121185000000001,-27.39597,4.489395,0.4813327999999999,0.6012641,-0.4195375,0.8914474,-0.1797864,0.1223922,0.8366495999999999,-0.1948356,0.3884634,31.45599,28.39
2,0.02116394,0.01966858,0.9995728000000002,0.7385246999999999,-0.01533508,-0.009246826,0.9998322,-34.66096,-0.9741211,-28.35535,4.8479,0.5979091999999999,0.6163645000000001,0.6890576999999999,0.0211792,0.01968384,0.9995728000000002,32.79813,-1.082367,-27.27475,4.783051,0.4915694,0.6036434,-0.4158465,0.9000031,-0.171548,0.1134172,0.8338230999999999,-0.162427,0.3884634,15.7825,28.39
2,0.02116394,0.01966858,0.9995728000000002,0.7385246999999999,-0.01533508,-0.009246826,0.9998322,-34.66096,-0.9741211,-28.35535,4.8479,0.5979091999999999,0.6163645000000001,0.6890576999999999,0.0211792,0.01968384,0.9995728000000002,32.79813,-1.082367,-27.27475,4.783051,0.4915694,0.6036434,-0.4158465,0.9000031,-0.171548,0.1134172,0.8338230999999999,-0.162427,0.3884634,15.7825,28.39
2,0.02116394,0.01966858,0.9995728000000002,0.7385246999999999,-0.01533508,-0.009246826,0.9998322,-34.66096,-0.9741211,-28.35535,4.8479,0.5979091999999999,0.6163645000000001,0.6890576999999999,0.0211792,0.01968384,0.9995728000000002,32.79813,-1.082367,-27.27475,4.783051,0.4915694,0.6036434,-0.4158465,0.9000031,-0.171548,0.1134172,0.8338230999999999,-0.162427,0.3884634,15.7825,28.39
2,-0.005065918,-0.01126099,0.9999084,0.8239402,-0.03544617,-0.04116821,0.9985199,-34.65965,-0.7477111999999999,-28.4529,4.496002,0.601279,0.6148484000000001,0.7826642,0.009918213,0.003479004,0.999939,32.82822,-0.8645476999999999,-27.38144,4.771255,0.4924798999999999,0.6000518,-0.4158465,0.9000031,-0.171548,0.1134172,0.8338230999999999,-0.162427,0.3884634,15.7825,28.37
2,-0.005065918,-0.01126099,0.9999084,0.8239402,-0.03544617,-0.04116821,0.9985199,-34.65965,-0.7477111999999999,-28.4529,4.496002,0.601279,0.6148484000000001,0.7826642,0.009918213,0.003479004,0.999939,32.82822,-0.8645476999999999,-27.38144,4.771255,0.4924798999999999,0.6000518,-0.4158465,0.9000031,-0.171548,0.1134172,0.8338230999999999,-0.162427,0.3884634,15.7825,28.37
2,-0.005065918,-0.01126099,0.9999084,0.8239402,-0.03544617,-0.04116821,0.9985199,-34.65965,-0.7477111999999999,-28.4529,4.496002,0.601279,0.6148484000000001,0.7826642,0.009918213,0.003479004,0.999939,32.82822,-0.8645476999999999,-27.38144,4.771255,0.4924798999999999,0.6000518,-0.4158465,0.9000031,-0.171548,0.1134172,0.8338230999999999,-0.162427,0.3884634,15.7825,28.37
2,-0.0350647,-0.06782532,0.9970703000000002,0.8452138000000001,-0.05897522,-0.09928894,0.9933014,-34.72694,-0.4255219,-28.10547,4.588013,0.6071089,0.6106176999999999,0.8279415000000001,-0.01344299,-0.03936768,0.9991302,32.69406,-0.4560089,-27.3848,4.690353,0.5010359000000001,0.593525,-0.4124572,0.908469,-0.1681652,0.09575317,0.8336769,-0.1304715,0.3884634,15.7825,28.37
2,-0.0350647,-0.06782532,0.9970703000000002,0.8452138000000001,-0.05897522,-0.09928894,0.9933014,-34.72694,-0.4255219,-28.10547,4.588013,0.6071089,0.6106176999999999,0.8279415000000001,-0.01344299,-0.03936768,0.9991302,32.69406,-0.4560089,-27.3848,4.690353,0.5010359000000001,0.593525,-0.4124572,0.908469,-0.1681652,0.09575317,0.8336769,-0.1304715,0.3884634,15.7825,28.37
2,-0.0350647,-0.06782532,0.9970703000000002,0.8452138000000001,-0.05897522,-0.09928894,0.9933014,-34.72694,-0.4255219,-28.10547,4.588013,0.6071089,0.6106176999999999,0.8279415000000001,-0.01344299,-0.03936768,0.9991302,32.69406,-0.4560089,-27.3848,4.690353,0.5010359000000001,0.593525,-0.4124572,0.908469,-0.1681652,0.09575317,0.8336769,-0.1304715,0.3884634,15.7825,28.37
2,-0.0486908,-0.02531433,0.9984894,0.8509730999999999,-0.0486908,-0.02531433,0.9984894,-34.66365,0.05427551,-28.3093,4.869278,0.6033919,0.5839779,0.7443472,0.0,0.0,0.0,32.63295,0.0852356,-27.59764,-1.0,0.5022144000000001,0.5664485,-0.4083462,0.9198661,-0.1647329,0.06758066,0.8323981,-0.0853337,0.3884634,15.7825,28.37
2,-0.0486908,-0.02531433,0.9984894,0.8509730999999999,-0.0486908,-0.02531433,0.9984894,-34.66365,0.05427551,-28.3093,4.869278,0.6033919,0.5839779,0.7443472,0.0,0.0,0.0,32.63295,0.0852356,-27.59764,-1.0,0.5022144000000001,0.5664485,-0.4083462,0.9198661,-0.1647329,0.06758066,0.8323981,-0.0853337,0.3884634,15.7825,28.37
2,-0.0486908,-0.02531433,0.9984894,0.8509730999999999,-0.0486908,-0.02531433,0.9984894,-34.66365,0.05427551,-28.3093,4.869278,0.6033919,0.5839779,0.7443472,0.0,0.0,0.0,32.63295,0.0852356,-27.59764,-1.0,0.5022144000000001,0.5664485,-0.4083462,0.9198661,-0.1647329,0.06758066,0.8323981,-0.0853337,0.3884634,15.7825,28.37
2,-1.0,-1.0,-1.0,0.8487829,0.0,0.0,0.0,-34.63704,0.05708313,-28.39249,-1.0,0.6069673000000001,0.5776465000000001,0.7689882,0.0,0.0,0.0,32.50435,0.03903198,-27.66931,-1.0,0.5098099,0.5625601,-0.4056788,0.931244,-0.1602582,0.03948357,0.827304,-0.04104478,0.3884634,15.7825,28.37
2,-1.0,-1.0,-1.0,0.8487829,0.0,0.0,0.0,-34.63704,0.05708313,-28.39249,-1.0,0.6069673000000001,0.5776465000000001,0.7689882,0.0,0.0,0.0,32.50435,0.03903198,-27.66931,-1.0,0.5098099,0.5625601,-0.4056788,0.931244,-0.1602582,0.03948357,0.827304,-0.04104478,0.3884634,15.7825,28.37
2,-1.0,-1.0,-1.0,0.8487829,0.0,0.0,0.0,-34.63704,0.05708313,-28.39249,-1.0,0.6069673000000001,0.5776465000000001,0.7689882,0.0,0.0,0.0,32.50435,0.03903198,-27.66931,-1.0,0.5098099,0.5625601,-0.4056788,0.931244,-0.1602582,0.03948357,0.827304,-0.04104478,0.3884634,15.7825,28.37
3,-0.05758667,0.06170654,0.9964294,0.9678276,-0.07798767,0.06581116,0.9947662,-34.80737,-0.7353058000000001,-27.99763,4.75351,0.6128880999999999,0.5921951999999999,0.8917848,-0.02944946,0.0559845,0.9979858,32.30441,-0.6571198,-27.468840000000004,4.74881,0.5171372000000001,0.5851284999999999,-0.4050402999999999,0.940075,-0.1552309,0.01797773,0.8201963,-0.008753813,0.3884634,2.544617,28.37
3,-0.05758667,0.06170654,0.9964294,0.9678276,-0.07798767,0.06581116,0.9947662,-34.80737,-0.7353058000000001,-27.99763,4.75351,0.6128880999999999,0.5921951999999999,0.8917848,-0.02944946,0.0559845,0.9979858,32.30441,-0.6571198,-27.468840000000004,4.74881,0.5171372000000001,0.5851284999999999,-0.4050402999999999,0.940075,-0.1552309,0.01797773,0.8201963,-0.008753813,0.3884634,2.544617,28.37
3,-0.05758667,0.06170654,0.9964294,0.9678276,-0.07798767,0.06581116,0.9947662,-34.80737,-0.7353058000000001,-27.99763,4.75351,0.6128880999999999,0.5921951999999999,0.8917848,-0.02944946,0.0559845,0.9979858,32.30441,-0.6571198,-27.468840000000004,4.74881,0.5171372000000001,0.5851284999999999,-0.4050402999999999,0.940075,-0.1552309,0.01797773,0.8201963,-0.008753813,0.3884634,2.544617,28.37
3,-0.1015625,-0.01371765,0.9947205,1.0,-0.1073303,-0.01725769,0.9940643,-35.07715,-1.55191,-27.75305,4.569824,0.6268357,0.6313407,1.0,-0.0435791,0.02183533,0.9988098,32.14055,-1.577972,-26.8976,4.724730999999999,0.5246876,0.6165189,-0.4063767,0.9451045,-0.1506504,0.008112856,0.8129975,0.00892617,0.3884634,2.544617,28.37
3,-0.1015625,-0.01371765,0.9947205,1.0,-0.1073303,-0.01725769,0.9940643,-35.07715,-1.55191,-27.75305,4.569824,0.6268357,0.6313407,1.0,-0.0435791,0.02183533,0.9988098,32.14055,-1.577972,-26.8976,4.724730999999999,0.5246876,0.6165189,-0.4063767,0.9451045,-0.1506504,0.008112856,0.8129975,0.00892617,0.3884634,2.544617,28.37
3,-0.1015625,-0.01371765,0.9947205,1.0,-0.1073303,-0.01725769,0.9940643,-35.07715,-1.55191,-27.75305,4.569824,0.6268357,0.6313407,1.0,-0.0435791,0.02183533,0.9988098,32.14055,-1.577972,-26.8976,4.724730999999999,0.5246876,0.6165189,-0.4063767,0.9451045,-0.1506504,0.008112856,0.8129975,0.00892617,0.3884634,2.544617,28.37
3,-0.1170654,-0.09005737,0.9890289,1.0,-0.1477356,-0.1083678999999999,0.9830627,-35.55293,-2.0199130000000003,-28.0699,4.771469000000001,0.6507799,0.6669636,1.0,-0.0990448,-0.07929993,0.9919128,31.80478,-2.0387880000000003,-26.94888,4.744003,0.5452559,0.650399,-0.4096686,0.9500921999999998,-0.1447674,0.001064184,0.80291,0.02467633,0.3884634,2.544617,28.37
3,-0.1170654,-0.09005737,0.9890289,1.0,-0.1477356,-0.1083678999999999,0.9830627,-35.55293,-2.0199130000000003,-28.0699,4.771469000000001,0.6507799,0.6669636,1.0,-0.0990448,-0.07929993,0.9919128,31.80478,-2.0387880000000003,-26.94888,4.744003,0.5452559,0.650399,-0.4096686,0.9500921999999998,-0.1447674,0.001064184,0.80291,0.02467633,0.3884634,2.544617,28.37
3,-0.1170654,-0.09005737,0.9890289,1.0,-0.1477356,-0.1083678999999999,0.9830627,-35.55293,-2.0199130000000003,-28.0699,4.771469000000001,0.6507799,0.6669636,1.0,-0.0990448,-0.07929993,0.9919128,31.80478,-2.0387880000000003,-26.94888,4.744003,0.5452559,0.650399,-0.4096686,0.9500921999999998,-0.1447674,0.001064184,0.80291,0.02467633,0.3884634,2.544617,28.37
3,-0.1758422999999999,-0.166626,0.9701996,1.0,-0.1777191,-0.1685027999999999,0.9695435,-35.74406,-2.132782,-28.12704,4.597778,0.6628723000000001,0.6824306,1.0,-0.1164398,-0.1073607999999999,0.9873657,31.68428,-2.11142,-27.08723,4.672485,0.5523608,0.6593031,-0.4111659,0.9505002,-0.1434815,0.0011516089999999,0.8006774999999999,0.02541204,0.3884634,2.544617,28.37
3,-0.1758422999999999,-0.166626,0.9701996,1.0,-0.1777191,-0.1685027999999999,0.9695435,-35.74406,-2.132782,-28.12704,4.597778,0.6628723000000001,0.6824306,1.0,-0.1164398,-0.1073607999999999,0.9873657,31.68428,-2.11142,-27.08723,4.672485,0.5523608,0.6593031,-0.4111659,0.9505002,-0.1434815,0.0011516089999999,0.8006774999999999,0.02541204,0.3884634,2.544617,28.37
3,-0.1758422999999999,-0.166626,0.9701996,1.0,-0.1777191,-0.1685027999999999,0.9695435,-35.74406,-2.132782,-28.12704,4.597778,0.6628723000000001,0.6824306,1.0,-0.1164398,-0.1073607999999999,0.9873657,31.68428,-2.11142,-27.08723,4.672485,0.5523608,0.6593031,-0.4111659,0.9505002,-0.1434815,0.0011516089999999,0.8006774999999999,0.02541204,0.3884634,2.544617,28.37
3,-0.1509399,-0.1468658,0.9775696,1.0,-0.1790619,-0.1796722,0.9672851999999998,-35.8329,-2.102066,-28.10977,4.663696,0.6661944000000001,0.683305,1.0,-0.1319733,-0.1247864,0.9833527,31.64848,-2.020554,-27.069000000000003,4.637466000000001,0.5561969,0.6591640999999999,-0.4123347,0.9511429,-0.1424857,0.0005593965,0.7982078,0.02771426,0.3884634,2.544617,28.37
3,-0.1509399,-0.1468658,0.9775696,1.0,-0.1790619,-0.1796722,0.9672851999999998,-35.8329,-2.102066,-28.10977,4.663696,0.6661944000000001,0.683305,1.0,-0.1319733,-0.1247864,0.9833527,31.64848,-2.020554,-27.069000000000003,4.637466000000001,0.5561969,0.6591640999999999,-0.4123347,0.9511429,-0.1424857,0.0005593965,0.7982078,0.02771426,0.3884634,2.544617,28.37
3,-0.1509399,-0.1468658,0.9775696,1.0,-0.1790619,-0.1796722,0.9672851999999998,-35.8329,-2.102066,-28.10977,4.663696,0.6661944000000001,0.683305,1.0,-0.1319733,-0.1247864,0.9833527,31.64848,-2.020554,-27.069000000000003,4.637466000000001,0.5561969,0.6591640999999999,-0.4123347,0.9511429,-0.1424857,0.0005593965,0.7982078,0.02771426,0.3884634,2.544617,28.37
3,-0.1680756,-0.1668701,0.9715424,1.0,-0.1947173999999999,-0.1876068,0.962738,-35.79965,-1.877869,-28.04683,4.6740260000000005,0.6675063,0.6765189,1.0,-0.1427765,-0.1471405,0.9787445,31.69179,-1.821884,-27.02238,4.691757,0.5564920999999999,0.6559258000000001,-0.4134494999999999,0.9511803,-0.1420433,-0.000149505,0.796566,0.02797954,0.3884634,-12.35294,28.37
3,-0.1680756,-0.1668701,0.9715424,1.0,-0.1947173999999999,-0.1876068,0.962738,-35.79965,-1.877869,-28.04683,4.6740260000000005,0.6675063,0.6765189,1.0,-0.1427765,-0.1471405,0.9787445,31.69179,-1.821884,-27.02238,4.691757,0.5564920999999999,0.6559258000000001,-0.4134494999999999,0.9511803,-0.1420433,-0.000149505,0.796566,0.02797954,0.3884634,-12.35294,28.37
3,-0.1680756,-0.1668701,0.9715424,1.0,-0.1947173999999999,-0.1876068,0.962738,-35.79965,-1.877869,-28.04683,4.6740260000000005,0.6675063,0.6765189,1.0,-0.1427765,-0.1471405,0.9787445,31.69179,-1.821884,-27.02238,4.691757,0.5564920999999999,0.6559258000000001,-0.4134494999999999,0.9511803,-0.1420433,-0.000149505,0.796566,0.02797954,0.3884634,-12.35294,28.37
3,-0.05545044,-0.04978943,0.9972076,1.0,-0.09616089,-0.08242798,0.9919434,-35.30507,-1.6545720000000002,-27.38725,4.424667,0.6322844,0.6421405,1.0,-0.05001831,-0.04542542,0.9977112,32.06511,-1.521896,-26.693240000000003,4.58847,0.5281898,0.6239435999999999,-0.4145793,0.9507686,-0.1421987,0.001170857,0.7960262,0.02537125,0.3884634,-12.35294,28.37
3,-0.05545044,-0.04978943,0.9972076,1.0,-0.09616089,-0.08242798,0.9919434,-35.30507,-1.6545720000000002,-27.38725,4.424667,0.6322844,0.6421405,1.0,-0.05001831,-0.04542542,0.9977112,32.06511,-1.521896,-26.693240000000003,4.58847,0.5281898,0.6239435999999999,-0.4145793,0.9507686,-0.1421987,0.001170857,0.7960262,0.02537125,0.3884634,-12.35294,28.37
3,-0.05545044,-0.04978943,0.9972076,1.0,-0.09616089,-0.08242798,0.9919434,-35.30507,-1.6545720000000002,-27.38725,4.424667,0.6322844,0.6421405,1.0,-0.05001831,-0.04542542,0.9977112,32.06511,-1.521896,-26.693240000000003,4.58847,0.5281898,0.6239435999999999,-0.4145793,0.9507686,-0.1421987,0.001170857,0.7960262,0.02537125,0.3884634,-12.35294,28.37
3,-0.05799866,-0.04118347,0.9974518,1.0,-0.08981323,-0.06622314,0.9937439,-35.429840000000006,-1.568268,-27.34787,4.335587,0.6353293999999999,0.6359508,1.0,-0.05767822,-0.04090881,0.9974823,32.09851,-1.453262,-26.763720000000003,4.409775,0.5284044,0.6214321,-0.415925,0.9501944,-0.1427312,0.002016932,0.7957708,0.02203124,0.3884634,-12.35294,28.37
3,-0.05799866,-0.04118347,0.9974518,1.0,-0.08981323,-0.06622314,0.9937439,-35.429840000000006,-1.568268,-27.34787,4.335587,0.6353293999999999,0.6359508,1.0,-0.05767822,-0.04090881,0.9974823,32.09851,-1.453262,-26.763720000000003,4.409775,0.5284044,0.6214321,-0.415925,0.9501944,-0.1427312,0.002016932,0.7957708,0.02203124,0.3884634,-12.35294,28.37
3,-0.05799866,-0.04118347,0.9974518,1.0,-0.08981323,-0.06622314,0.9937439,-35.429840000000006,-1.568268,-27.34787,4.335587,0.6353293999999999,0.6359508,1.0,-0.05767822,-0.04090881,0.9974823,32.09851,-1.453262,-26.763720000000003,4.409775,0.5284044,0.6214321,-0.415925,0.9501944,-0.1427312,0.002016932,0.7957708,0.02203124,0.3884634,-12.35294,28.37
3,-0.07374573,-0.04782104,0.9961243,1.0,-0.09992981,-0.07254028,0.9923401,-35.4476,-1.51297,-27.32367,4.381393,0.6376165,0.6350358,1.0,-0.06048584,-0.03530884,0.9975433,32.10445,-1.457642,-26.75266,4.384521,0.5286806,0.6204940999999999,-0.4171632,0.9497288,-0.1437495,0.003309434,0.7958172,0.01903318,0.3884634,-12.35294,28.37
3,-0.07374573,-0.04782104,0.9961243,1.0,-0.09992981,-0.07254028,0.9923401,-35.4476,-1.51297,-27.32367,4.381393,0.6376165,0.6350358,1.0,-0.06048584,-0.03530884,0.9975433,32.10445,-1.457642,-26.75266,4.384521,0.5286806,0.6204940999999999,-0.4171632,0.9497288,-0.1437495,0.003309434,0.7958172,0.01903318,0.3884634,-12.35294,28.37
3,-0.07374573,-0.04782104,0.9961243,1.0,-0.09992981,-0.07254028,0.9923401,-35.4476,-1.51297,-27.32367,4.381393,0.6376165,0.6350358,1.0,-0.06048584,-0.03530884,0.9975433,32.10445,-1.457642,-26.75266,4.384521,0.5286806,0.6204940999999999,-0.4171632,0.9497288,-0.1437495,0.003309434,0.7958172,0.01903318,0.3884634,-12.35294,28.37
3,-0.09481812,-0.05729675,0.9938354,1.0,-0.1104736,-0.07336426,0.9911652,-35.4534,-1.353943,-27.437620000000003,4.128799,0.6397142,0.6308393,1.0,-0.07121277,-0.03309631,0.9969025,32.13231,-1.399567,-26.530990000000003,4.2478940000000005,0.5294845,0.6158286000000001,-0.418199,0.9499705,-0.1450095,0.002423027,0.7959647,0.01761708,0.3884634,-12.35294,28.37
3,-0.09481812,-0.05729675,0.9938354,1.0,-0.1104736,-0.07336426,0.9911652,-35.4534,-1.353943,-27.437620000000003,4.128799,0.6397142,0.6308393,1.0,-0.07121277,-0.03309631,0.9969025,32.13231,-1.399567,-26.530990000000003,4.2478940000000005,0.5294845,0.6158286000000001,-0.418199,0.9499705,-0.1450095,0.002423027,0.7959647,0.01761708,0.3884634,-12.35294,28.37
3,-0.09481812,-0.05729675,0.9938354,1.0,-0.1104736,-0.07336426,0.9911652,-35.4534,-1.353943,-27.437620000000003,4.128799,0.6397142,0.6308393,1.0,-0.07121277,-0.03309631,0.9969025,32.13231,-1.399567,-26.530990000000003,4.2478940000000005,0.5294845,0.6158286000000001,-0.418199,0.9499705,-0.1450095,0.002423027,0.7959647,0.01761708,0.3884634,-12.35294,28.37
3,-0.1048583999999999,-0.05775452,0.9927979,1.0,-0.1129608,-0.06587219,0.9914093,-35.47266,-1.357925,-27.32373,4.194168,0.6406075,0.6285923000000001,1.0,-0.07278442,-0.02568054,0.9970093,32.13297,-1.37944,-26.54727,4.252274,0.5297484,0.6140462,-0.4191263,0.950331,-0.1465115,0.0007170007,0.797036,0.01683486,0.3884634,-15.51331,28.37
3,-0.1048583999999999,-0.05775452,0.9927979,1.0,-0.1129608,-0.06587219,0.9914093,-35.47266,-1.357925,-27.32373,4.194168,0.6406075,0.6285923000000001,1.0,-0.07278442,-0.02568054,0.9970093,32.13297,-1.37944,-26.54727,4.252274,0.5297484,0.6140462,-0.4191263,0.950331,-0.1465115,0.0007170007,0.797036,0.01683486,0.3884634,-15.51331,28.37
3,-0.1048583999999999,-0.05775452,0.9927979,1.0,-0.1129608,-0.06587219,0.9914093,-35.47266,-1.357925,-27.32373,4.194168,0.6406075,0.6285923000000001,1.0,-0.07278442,-0.02568054,0.9970093,32.13297,-1.37944,-26.54727,4.252274,0.5297484,0.6140462,-0.4191263,0.950331,-0.1465115,0.0007170007,0.797036,0.01683486,0.3884634,-15.51331,28.37
3,-0.08241272,-0.03425598,0.9960022,1.0,-0.1105803999999999,-0.06466675,0.991745,-35.479890000000005,-1.162872,-27.542240000000003,3.973663,0.6407257,0.6238468,1.0,-0.07350159,-0.0246581999999999,0.9969788,32.13715,-1.344849,-26.56151,4.208694,0.5297480999999999,0.612803,-0.4201015,0.9506612,-0.1481277,-0.0005250443,0.7986310000000001,0.01657349,0.3884634,-15.51331,28.37
3,-0.08241272,-0.03425598,0.9960022,1.0,-0.1105803999999999,-0.06466675,0.991745,-35.479890000000005,-1.162872,-27.542240000000003,3.973663,0.6407257,0.6238468,1.0,-0.07350159,-0.0246581999999999,0.9969788,32.13715,-1.344849,-26.56151,4.208694,0.5297480999999999,0.612803,-0.4201015,0.9506612,-0.1481277,-0.0005250443,0.7986310000000001,0.01657349,0.3884634,-15.51331,28.37
3,-0.08241272,-0.03425598,0.9960022,1.0,-0.1105803999999999,-0.06466675,0.991745,-35.479890000000005,-1.162872,-27.542240000000003,3.973663,0.6407257,0.6238468,1.0,-0.07350159,-0.0246581999999999,0.9969788,32.13715,-1.344849,-26.56151,4.208694,0.5297480999999999,0.612803,-0.4201015,0.9506612,-0.1481277,-0.0005250443,0.7986310000000001,0.01657349,0.3884634,-15.51331,28.37
3,-0.07710266,-0.03752136,0.9963074,1.0,-0.1018982,-0.06112671,0.9929047,-35.517790000000005,-1.1646729999999998,-27.234820000000003,4.034073,0.6400871,0.6202052,1.0,-0.06915283,-0.02996826,0.9971466,32.141040000000004,-1.131989,-26.60236,4.050964,0.5289537,0.6067905,-0.4210012999999999,0.9510987,-0.1500219,-0.001619446,0.8010468000000001,0.01650524,0.3884634,-15.51331,28.37
3,-0.07710266,-0.03752136,0.9963074,1.0,-0.1018982,-0.06112671,0.9929047,-35.517790000000005,-1.1646729999999998,-27.234820000000003,4.034073,0.6400871,0.6202052,1.0,-0.06915283,-0.02996826,0.9971466,32.141040000000004,-1.131989,-26.60236,4.050964,0.5289537,0.6067905,-0.4210012999999999,0.9510987,-0.1500219,-0.001619446,0.8010468000000001,0.01650524,0.3884634,-15.51331,28.37
3,-0.07710266,-0.03752136,0.9963074,1.0,-0.1018982,-0.06112671,0.9929047,-35.517790000000005,-1.1646729999999998,-27.234820000000003,4.034073,0.6400871,0.6202052,1.0,-0.06915283,-0.02996826,0.9971466,32.141040000000004,-1.131989,-26.60236,4.050964,0.5289537,0.6067905,-0.4210012999999999,0.9510987,-0.1500219,-0.001619446,0.8010468000000001,0.01650524,0.3884634,-15.51331,28.37
3,-0.06845093,-0.04690552,0.9965363000000002,0.9553915,-0.09440613,-0.06015015,0.9936981,-35.50079,-1.057312,-27.11494,4.055618,0.638076,0.6152057,0.969892,-0.06634521,-0.0458374,0.9967346,32.18877,-1.036697,-26.61705,3.893417,0.5268832,0.6063014,-0.4215297,0.9515225,-0.151899,-0.002965078,0.8032292,0.01673388,0.3884634,-15.51331,28.37
3,-0.06845093,-0.04690552,0.9965363000000002,0.9553915,-0.09440613,-0.06015015,0.9936981,-35.50079,-1.057312,-27.11494,4.055618,0.638076,0.6152057,0.969892,-0.06634521,-0.0458374,0.9967346,32.18877,-1.036697,-26.61705,3.893417,0.5268832,0.6063014,-0.4215297,0.9515225,-0.151899,-0.002965078,0.8032292,0.01673388,0.3884634,-15.51331,28.37
3,-0.06845093,-0.04690552,0.9965363000000002,0.9553915,-0.09440613,-0.06015015,0.9936981,-35.50079,-1.057312,-27.11494,4.055618,0.638076,0.6152057,0.969892,-0.06634521,-0.0458374,0.9967346,32.18877,-1.036697,-26.61705,3.893417,0.5268832,0.6063014,-0.4215297,0.9515225,-0.151899,-0.002965078,0.8032292,0.01673388,0.3884634,-15.51331,28.37
3,-0.06645203,-0.04521179,0.9967499,0.9156954,-0.09312439,-0.06738281,0.9933624,-35.48088,-0.9848328000000002,-27.11728,3.912323,0.6371468000000001,0.6139209,0.9587114,-0.06422424,-0.04335022,0.9969788,32.232409999999994,-1.066849,-26.57635,3.75177,0.5250446999999999,0.6063598000000001,-0.4222571,0.9517239,-0.1535412,-0.00353372,0.8055201,0.01690839,0.3884634,-15.51331,28.37
3,-0.06645203,-0.04521179,0.9967499,0.9156954,-0.09312439,-0.06738281,0.9933624,-35.48088,-0.9848328000000002,-27.11728,3.912323,0.6371468000000001,0.6139209,0.9587114,-0.06422424,-0.04335022,0.9969788,32.232409999999994,-1.066849,-26.57635,3.75177,0.5250446999999999,0.6063598000000001,-0.4222571,0.9517239,-0.1535412,-0.00353372,0.8055201,0.01690839,0.3884634,-15.51331,28.37
3,-0.06645203,-0.04521179,0.9967499,0.9156954,-0.09312439,-0.06738281,0.9933624,-35.48088,-0.9848328000000002,-27.11728,3.912323,0.6371468000000001,0.6139209,0.9587114,-0.06422424,-0.04335022,0.9969788,32.232409999999994,-1.066849,-26.57635,3.75177,0.5250446999999999,0.6063598000000001,-0.4222571,0.9517239,-0.1535412,-0.00353372,0.8055201,0.01690839,0.3884634,-15.51331,28.37
3,-0.06428528,-0.05610657,0.9963379,0.9231314,-0.08389282,-0.07223511,0.9938507,-35.35027,-0.9673615,-27.26111,3.759735,0.6313819,0.6154193,0.9977281,-0.05360413,-0.0473175,0.9974365,32.33612,-1.09906,-26.43315,3.742752,0.5196670999999999,0.60664,-0.4224530999999999,0.9520478,-0.1551415,-0.005950224,0.8071872,0.0178465,0.3884634,6.039154,28.37
3,-0.06428528,-0.05610657,0.9963379,0.9231314,-0.08389282,-0.07223511,0.9938507,-35.35027,-0.9673615,-27.26111,3.759735,0.6313819,0.6154193,0.9977281,-0.05360413,-0.0473175,0.9974365,32.33612,-1.09906,-26.43315,3.742752,0.5196670999999999,0.60664,-0.4224530999999999,0.9520478,-0.1551415,-0.005950224,0.8071872,0.0178465,0.3884634,6.039154,28.37
3,-0.06428528,-0.05610657,0.9963379,0.9231314,-0.08389282,-0.07223511,0.9938507,-35.35027,-0.9673615,-27.26111,3.759735,0.6313819,0.6154193,0.9977281,-0.05360413,-0.0473175,0.9974365,32.33612,-1.09906,-26.43315,3.742752,0.5196670999999999,0.60664,-0.4224530999999999,0.9520478,-0.1551415,-0.005950224,0.8071872,0.0178465,0.3884634,6.039154,28.37
3,-0.05747986,-0.04907227,0.9971313,1.0,-0.07392883,-0.07327271,0.9945526,-35.29131,-1.1165770000000002,-26.89761,3.736588,0.6272488,0.6168939,1.0,-0.05300903,-0.04249573,0.9976807,32.39594,-1.166168,-26.34879,3.680405,0.5175149,0.6071565999999999,-0.4227661,0.9522144,-0.1566132999999999,-0.007432268,0.8081441999999999,0.0194322,0.3884634,6.039154,28.37
3,-0.05747986,-0.04907227,0.9971313,1.0,-0.07392883,-0.07327271,0.9945526,-35.29131,-1.1165770000000002,-26.89761,3.736588,0.6272488,0.6168939,1.0,-0.05300903,-0.04249573,0.9976807,32.39594,-1.166168,-26.34879,3.680405,0.5175149,0.6071565999999999,-0.4227661,0.9522144,-0.1566132999999999,-0.007432268,0.8081441999999999,0.0194322,0.3884634,6.039154,28.37
3,-0.05747986,-0.04907227,0.9971313,1.0,-0.07392883,-0.07327271,0.9945526,-35.29131,-1.1165770000000002,-26.89761,3.736588,0.6272488,0.6168939,1.0,-0.05300903,-0.04249573,0.9976807,32.39594,-1.166168,-26.34879,3.680405,0.5175149,0.6071565999999999,-0.4227661,0.9522144,-0.1566132999999999,-0.007432268,0.8081441999999999,0.0194322,0.3884634,6.039154,28.37
3,-0.05505371,-0.05856323,0.9967499,1.0,-0.06181335,-0.0657196,0.9959106,-35.18652,-1.066666,-27.00351,3.801178,0.621812,0.6149467,1.0,-0.05041504,-0.0536499,0.9972839,32.45456,-1.069412,-26.45538,3.713715,0.5151192,0.6068998999999999,-0.4229782999999999,0.953577,-0.158338,-0.01406645,0.8086634,0.02681535,0.3884634,6.039154,28.37
3,-0.05505371,-0.05856323,0.9967499,1.0,-0.06181335,-0.0657196,0.9959106,-35.18652,-1.066666,-27.00351,3.801178,0.621812,0.6149467,1.0,-0.05041504,-0.0536499,0.9972839,32.45456,-1.069412,-26.45538,3.713715,0.5151192,0.6068998999999999,-0.4229782999999999,0.953577,-0.158338,-0.01406645,0.8086634,0.02681535,0.3884634,6.039154,28.37
3,-0.05505371,-0.05856323,0.9967499,1.0,-0.06181335,-0.0657196,0.9959106,-35.18652,-1.066666,-27.00351,3.801178,0.621812,0.6149467,1.0,-0.05041504,-0.0536499,0.9972839,32.45456,-1.069412,-26.45538,3.713715,0.5151192,0.6068998999999999,-0.4229782999999999,0.953577,-0.158338,-0.01406645,0.8086634,0.02681535,0.3884634,6.039154,28.37
3,-0.04978943,-0.07643127,0.9958190999999998,1.0,-0.05990601,-0.085495,0.9945221,-35.09117,-0.9378052,-27.19943,3.646271,0.6184933000000001,0.6158583000000001,1.0,-0.03808594,-0.06593323,0.9970856,32.54149,-1.18486,-26.17595,3.5904540000000003,0.5099866,0.6099978,-0.4228093,0.9549704,-0.158503,-0.01744645,0.8063378999999999,0.03491542,0.3884634,6.039154,28.37
3,-0.04978943,-0.07643127,0.9958190999999998,1.0,-0.05990601,-0.085495,0.9945221,-35.09117,-0.9378052,-27.19943,3.646271,0.6184933000000001,0.6158583000000001,1.0,-0.03808594,-0.06593323,0.9970856,32.54149,-1.18486,-26.17595,3.5904540000000003,0.5099866,0.6099978,-0.4228093,0.9549704,-0.158503,-0.01744645,0.8063378999999999,0.03491542,0.3884634,6.039154,28.37
3,-0.04978943,-0.07643127,0.9958190999999998,1.0,-0.05990601,-0.085495,0.9945221,-35.09117,-0.9378052,-27.19943,3.646271,0.6184933000000001,0.6158583000000001,1.0,-0.03808594,-0.06593323,0.9970856,32.54149,-1.18486,-26.17595,3.5904540000000003,0.5099866,0.6099978,-0.4228093,0.9549704,-0.158503,-0.01744645,0.8063378999999999,0.03491542,0.3884634,6.039154,28.37
3,-0.05448914,-0.08296204,0.9950562,1.0,-0.06809998,-0.09819031,0.9928284,-35.08292,-1.09906,-27.0244,3.524658,0.6194365,0.6216755,1.0,-0.05039978,-0.0783843999999999,0.995636,32.56029,-1.262329,-26.14484,3.544449,0.5113963,0.6144786,-0.4226889,0.9567612,-0.1579902,-0.02184445,0.8033685,0.04302091,0.3884634,-0.5926056,28.37
3,-0.05448914,-0.08296204,0.9950562,1.0,-0.06809998,-0.09819031,0.9928284,-35.08292,-1.09906,-27.0244,3.524658,0.6194365,0.6216755,1.0,-0.05039978,-0.0783843999999999,0.995636,32.56029,-1.262329,-26.14484,3.544449,0.5113963,0.6144786,-0.4226889,0.9567612,-0.1579902,-0.02184445,0.8033685,0.04302091,0.3884634,-0.5926056,28.37
3,-0.05448914,-0.08296204,0.9950562,1.0,-0.06809998,-0.09819031,0.9928284,-35.08292,-1.09906,-27.0244,3.524658,0.6194365,0.6216755,1.0,-0.05039978,-0.0783843999999999,0.995636,32.56029,-1.262329,-26.14484,3.544449,0.5113963,0.6144786,-0.4226889,0.9567612,-0.1579902,-0.02184445,0.8033685,0.04302091,0.3884634,-0.5926056,28.37
3,-0.06765747,-0.1083831999999999,0.9917908,1.0,-0.07102966,-0.1130219,0.9910431,-35.12021,-1.234146,-27.05629,3.542084,0.6212554,0.6291463,1.0,-0.05796814,-0.09509277,0.9937744,32.51631,-1.401428,-26.0724,3.473785,0.5141019,0.6213510999999999,-0.4225684,0.9582646,-0.1572444,-0.02461223,0.7994334,0.04997911,0.3884634,-0.5926056,28.37
3,-0.06765747,-0.1083831999999999,0.9917908,1.0,-0.07102966,-0.1130219,0.9910431,-35.12021,-1.234146,-27.05629,3.542084,0.6212554,0.6291463,1.0,-0.05796814,-0.09509277,0.9937744,32.51631,-1.401428,-26.0724,3.473785,0.5141019,0.6213510999999999,-0.4225684,0.9582646,-0.1572444,-0.02461223,0.7994334,0.04997911,0.3884634,-0.5926056,28.37
3,-0.06765747,-0.1083831999999999,0.9917908,1.0,-0.07102966,-0.1130219,0.9910431,-35.12021,-1.234146,-27.05629,3.542084,0.6212554,0.6291463,1.0,-0.05796814,-0.09509277,0.9937744,32.51631,-1.401428,-26.0724,3.473785,0.5141019,0.6213510999999999,-0.4225684,0.9582646,-0.1572444,-0.02461223,0.7994334,0.04997911,0.3884634,-0.5926056,28.37
3,-0.06765747,-0.1083831999999999,0.9917908,1.0,-0.07102966,-0.1130219,0.9910431,-35.12021,-1.234146,-27.05629,3.542084,0.6212554,0.6291463,1.0,-0.05796814,-0.09509277,0.9937744,32.51631,-1.401428,-26.0724,3.473785,0.5141019,0.6213510999999999,-0.4223327,0.9597354,-0.1564622,-0.02850152,0.7958470999999999,0.05630301,0.3884634,-0.5926056,28.37
3,-0.06765747,-0.1083831999999999,0.9917908,1.0,-0.07102966,-0.1130219,0.9910431,-35.12021,-1.234146,-27.05629,3.542084,0.6212554,0.6291463,1.0,-0.05796814,-0.09509277,0.9937744,32.51631,-1.401428,-26.0724,3.473785,0.5141019,0.6213510999999999,-0.4223327,0.9597354,-0.1564622,-0.02850152,0.7958470999999999,0.05630301,0.3884634,-0.5926056,28.37
3,-0.06765747,-0.1083831999999999,0.9917908,1.0,-0.07102966,-0.1130219,0.9910431,-35.12021,-1.234146,-27.05629,3.542084,0.6212554,0.6291463,1.0,-0.05796814,-0.09509277,0.9937744,32.51631,-1.401428,-26.0724,3.473785,0.5141019,0.6213510999999999,-0.4223327,0.9597354,-0.1564622,-0.02850152,0.7958470999999999,0.05630301,0.3884634,-0.5926056,28.37
3,-0.06765747,-0.1083831999999999,0.9917908,1.0,-0.07102966,-0.1130219,0.9910431,-35.12021,-1.234146,-27.05629,3.542084,0.6212554,0.6291463,1.0,-0.05796814,-0.09509277,0.9937744,32.51631,-1.401428,-26.0724,3.473785,0.5141019,0.6213510999999999,-0.4217207,0.9606736,-0.155739,-0.03085205,0.7927393,0.06018828,0.3884634,-0.5926056,28.37
3,-0.06765747,-0.1083831999999999,0.9917908,1.0,-0.07102966,-0.1130219,0.9910431,-35.12021,-1.234146,-27.05629,3.542084,0.6212554,0.6291463,1.0,-0.05796814,-0.09509277,0.9937744,32.51631,-1.401428,-26.0724,3.473785,0.5141019,0.6213510999999999,-0.4217207,0.9606736,-0.155739,-0.03085205,0.7927393,0.06018828,0.3884634,-0.5926056,28.37
3,-0.06765747,-0.1083831999999999,0.9917908,1.0,-0.07102966,-0.1130219,0.9910431,-35.12021,-1.234146,-27.05629,3.542084,0.6212554,0.6291463,1.0,-0.05796814,-0.09509277,0.9937744,32.51631,-1.401428,-26.0724,3.473785,0.5141019,0.6213510999999999,-0.4217207,0.9606736,-0.155739,-0.03085205,0.7927393,0.06018828,0.3884634,-0.5926056,28.37
3,-0.09576416,-0.1581572999999999,0.9827423,1.0,-0.1038513,-0.1715088,0.9796906,-35.34688,-1.516052,-27.15619,3.464081,0.6347557,0.6501982,1.0,-0.08171082,-0.1350097999999999,0.9874573,32.251529999999995,-1.566559,-26.3716,3.436386,0.5271184,0.6371643,-0.4209093,0.9609245,-0.1551968,-0.02978641,0.7901013000000001,0.06109774,0.3884634,-0.5926056,28.37
3,-0.09576416,-0.1581572999999999,0.9827423,1.0,-0.1038513,-0.1715088,0.9796906,-35.34688,-1.516052,-27.15619,3.464081,0.6347557,0.6501982,1.0,-0.08171082,-0.1350097999999999,0.9874573,32.251529999999995,-1.566559,-26.3716,3.436386,0.5271184,0.6371643,-0.4209093,0.9609245,-0.1551968,-0.02978641,0.7901013000000001,0.06109774,0.3884634,-0.5926056,28.37
3,-0.09576416,-0.1581572999999999,0.9827423,1.0,-0.1038513,-0.1715088,0.9796906,-35.34688,-1.516052,-27.15619,3.464081,0.6347557,0.6501982,1.0,-0.08171082,-0.1350097999999999,0.9874573,32.251529999999995,-1.566559,-26.3716,3.436386,0.5271184,0.6371643,-0.4209093,0.9609245,-0.1551968,-0.02978641,0.7901013000000001,0.06109774,0.3884634,-0.5926056,28.37
3,-0.06884766,-0.1199188,0.990387,1.0,-0.07542419,-0.1239166,0.9894104,-35.20117,-1.412674,-27.15533,3.4836730000000005,0.6249073,0.6380717,1.0,-0.05834961,-0.1135253999999999,0.991806,32.39772,-1.480728,-26.26364,3.48259,0.518196,0.6292420999999999,-0.4186477,0.9608048,-0.1540767999999999,-0.02536545,0.7845854999999999,0.06026711,0.3884634,7.758072,28.37
3,-0.06884766,-0.1199188,0.990387,1.0,-0.07542419,-0.1239166,0.9894104,-35.20117,-1.412674,-27.15533,3.4836730000000005,0.6249073,0.6380717,1.0,-0.05834961,-0.1135253999999999,0.991806,32.39772,-1.480728,-26.26364,3.48259,0.518196,0.6292420999999999,-0.4186477,0.9608048,-0.1540767999999999,-0.02536545,0.7845854999999999,0.06026711,0.3884634,7.758072,28.37
3,-0.06884766,-0.1199188,0.990387,1.0,-0.07542419,-0.1239166,0.9894104,-35.20117,-1.412674,-27.15533,3.4836730000000005,0.6249073,0.6380717,1.0,-0.05834961,-0.1135253999999999,0.991806,32.39772,-1.480728,-26.26364,3.48259,0.518196,0.6292420999999999,-0.4186477,0.9608048,-0.1540767999999999,-0.02536545,0.7845854999999999,0.06026711,0.3884634,7.758072,28.37
3,0.07035828,-0.03004456,0.9970551,1.0,0.0644989,-0.04359436,0.9969635,-34.418,-0.8286285,-27.69128,3.42688,0.5753491,0.6093983000000001,1.0,0.07044983,-0.02984619,0.9970551,33.06386,-1.198059,-26.02916,3.5563050000000005,0.4739839,0.6025323,-0.4160286,0.9605908,-0.1522142999999999,-0.02344338,0.7758641,0.05837303,0.3884634,7.758072,28.37
3,0.07035828,-0.03004456,0.9970551,1.0,0.0644989,-0.04359436,0.9969635,-34.418,-0.8286285,-27.69128,3.42688,0.5753491,0.6093983000000001,1.0,0.07044983,-0.02984619,0.9970551,33.06386,-1.198059,-26.02916,3.5563050000000005,0.4739839,0.6025323,-0.4160286,0.9605908,-0.1522142999999999,-0.02344338,0.7758641,0.05837303,0.3884634,7.758072,28.37
3,0.07035828,-0.03004456,0.9970551,1.0,0.0644989,-0.04359436,0.9969635,-34.418,-0.8286285,-27.69128,3.42688,0.5753491,0.6093983000000001,1.0,0.07044983,-0.02984619,0.9970551,33.06386,-1.198059,-26.02916,3.5563050000000005,0.4739839,0.6025323,-0.4160286,0.9605908,-0.1522142999999999,-0.02344338,0.7758641,0.05837303,0.3884634,7.758072,28.37
4,0.06497192,-0.02928162,0.9974518,1.0,0.05142212,-0.05285645,0.9972687,-34.486909999999995,-0.7721100000000001,-27.772,3.360764,0.5799380000000001,0.6098560000000001,1.0,0.06645203,-0.02668762,0.9974213,33.05235,-1.216476,-25.91008,3.5180050000000005,0.4750460999999999,0.6013980999999999,-0.4160286,0.9605908,-0.1522142999999999,-0.02344338,0.7758641,0.05837303,0.3884634,7.758072,28.37
4,0.06497192,-0.02928162,0.9974518,1.0,0.05142212,-0.05285645,0.9972687,-34.486909999999995,-0.7721100000000001,-27.772,3.360764,0.5799380000000001,0.6098560000000001,1.0,0.06645203,-0.02668762,0.9974213,33.05235,-1.216476,-25.91008,3.5180050000000005,0.4750460999999999,0.6013980999999999,-0.4160286,0.9605908,-0.1522142999999999,-0.02344338,0.7758641,0.05837303,0.3884634,7.758072,28.37
4,0.06497192,-0.02928162,0.9974518,1.0,0.05142212,-0.05285645,0.9972687,-34.486909999999995,-0.7721100000000001,-27.772,3.360764,0.5799380000000001,0.6098560000000001,1.0,0.06645203,-0.02668762,0.9974213,33.05235,-1.216476,-25.91008,3.5180050000000005,0.4750460999999999,0.6013980999999999,-0.4160286,0.9605908,-0.1522142999999999,-0.02344338,0.7758641,0.05837303,0.3884634,7.758072,28.37
4,0.0342865,-0.02816772,0.9990082,1.0,0.03903198,-0.04902649,0.9980316,-34.627759999999995,-0.8137054,-27.69652,3.297195,0.5866816999999999,0.609804,1.0,0.03268433,-0.02111816,0.9992371,32.944379999999995,-1.165878,-26.103620000000003,3.4420010000000003,0.4844199,0.6005756,-0.4137964,0.9599388,-0.1490935,-0.02220497,0.7619106,0.05809947,0.3884634,7.758072,28.37
4,0.0342865,-0.02816772,0.9990082,1.0,0.03903198,-0.04902649,0.9980316,-34.627759999999995,-0.8137054,-27.69652,3.297195,0.5866816999999999,0.609804,1.0,0.03268433,-0.02111816,0.9992371,32.944379999999995,-1.165878,-26.103620000000003,3.4420010000000003,0.4844199,0.6005756,-0.4137964,0.9599388,-0.1490935,-0.02220497,0.7619106,0.05809947,0.3884634,7.758072,28.37
4,0.0342865,-0.02816772,0.9990082,1.0,0.03903198,-0.04902649,0.9980316,-34.627759999999995,-0.8137054,-27.69652,3.297195,0.5866816999999999,0.609804,1.0,0.03268433,-0.02111816,0.9992371,32.944379999999995,-1.165878,-26.103620000000003,3.4420010000000003,0.4844199,0.6005756,-0.4137964,0.9599388,-0.1490935,-0.02220497,0.7619106,0.05809947,0.3884634,7.758072,28.37
4,0.007492065,-0.02355957,0.9996796,1.0,0.003799438,-0.03796387,0.9992676,-34.73416,-0.872345,-27.45558,3.266724,0.5959658,0.6074724,1.0,0.01054382,-0.01164246,0.9998627,32.83116,-1.178223,-26.0332,3.2930910000000004,0.4919979999999999,0.5985636,-0.4129064999999999,0.9594858,-0.1468469,-0.02088544,0.7533125,0.05774262,0.3884634,4.637039,28.37
4,0.007492065,-0.02355957,0.9996796,1.0,0.003799438,-0.03796387,0.9992676,-34.73416,-0.872345,-27.45558,3.266724,0.5959658,0.6074724,1.0,0.01054382,-0.01164246,0.9998627,32.83116,-1.178223,-26.0332,3.2930910000000004,0.4919979999999999,0.5985636,-0.4129064999999999,0.9594858,-0.1468469,-0.02088544,0.7533125,0.05774262,0.3884634,4.637039,28.37
4,0.007492065,-0.02355957,0.9996796,1.0,0.003799438,-0.03796387,0.9992676,-34.73416,-0.872345,-27.45558,3.266724,0.5959658,0.6074724,1.0,0.01054382,-0.01164246,0.9998627,32.83116,-1.178223,-26.0332,3.2930910000000004,0.4919979999999999,0.5985636,-0.4129064999999999,0.9594858,-0.1468469,-0.02088544,0.7533125,0.05774262,0.3884634,4.637039,28.37
4,0.1105042,-0.0128478999999999,0.9937897,1.0,0.08277893,-0.03330994,0.9960022,-34.144740000000006,-0.6253052,-28.251240000000003,3.314056,0.5634289000000001,0.6062181,1.0,0.1117706,-0.01190186,0.9936523000000002,33.25934,-1.16243,-26.08292,3.438629,0.4603412999999999,0.5987469,-0.412071,0.9589736,-0.144007,-0.02016674,0.7427751,0.0566780999999999,0.3884634,4.637039,28.37
4,0.1105042,-0.0128478999999999,0.9937897,1.0,0.08277893,-0.03330994,0.9960022,-34.144740000000006,-0.6253052,-28.251240000000003,3.314056,0.5634289000000001,0.6062181,1.0,0.1117706,-0.01190186,0.9936523000000002,33.25934,-1.16243,-26.08292,3.438629,0.4603412999999999,0.5987469,-0.412071,0.9589736,-0.144007,-0.02016674,0.7427751,0.0566780999999999,0.3884634,4.637039,28.37
4,0.1105042,-0.0128478999999999,0.9937897,1.0,0.08277893,-0.03330994,0.9960022,-34.144740000000006,-0.6253052,-28.251240000000003,3.314056,0.5634289000000001,0.6062181,1.0,0.1117706,-0.01190186,0.9936523000000002,33.25934,-1.16243,-26.08292,3.438629,0.4603412999999999,0.5987469,-0.412071,0.9589736,-0.144007,-0.02016674,0.7427751,0.0566780999999999,0.3884634,4.637039,28.37
4,0.2001648,-0.0082244869999999,0.9797211,1.0,0.1694336,-0.04220581,0.9846344,-33.59604,-0.6908416999999999,-27.95447,3.325882,0.5300676999999999,0.6073188,1.0,0.2002257999999999,-0.008163452,0.9797058,33.69977,-1.248337,-26.02039,3.365021,0.4302859999999999,0.6007176,-0.4113502999999999,0.9580371,-0.1402135,-0.01775127,0.7279677,0.05545104,0.3884634,4.637039,28.37
4,0.2001648,-0.0082244869999999,0.9797211,1.0,0.1694336,-0.04220581,0.9846344,-33.59604,-0.6908416999999999,-27.95447,3.325882,0.5300676999999999,0.6073188,1.0,0.2002257999999999,-0.008163452,0.9797058,33.69977,-1.248337,-26.02039,3.365021,0.4302859999999999,0.6007176,-0.4113502999999999,0.9580371,-0.1402135,-0.01775127,0.7279677,0.05545104,0.3884634,4.637039,28.37
4,0.2001648,-0.0082244869999999,0.9797211,1.0,0.1694336,-0.04220581,0.9846344,-33.59604,-0.6908416999999999,-27.95447,3.325882,0.5300676999999999,0.6073188,1.0,0.2002257999999999,-0.008163452,0.9797058,33.69977,-1.248337,-26.02039,3.365021,0.4302859999999999,0.6007176,-0.4113502999999999,0.9580371,-0.1402135,-0.01775127,0.7279677,0.05545104,0.3884634,4.637039,28.37
4,0.07492065,-0.0168456999999999,0.9970398,1.0,0.07579041,-0.03282166,0.996582,-33.85669,-0.5326691,-28.34901,3.187881,0.554924,0.6038201999999999,1.0,0.0749054,-0.01675415,0.9970398,33.57115,-1.130707,-26.34308,3.3153080000000004,0.4560081,0.6008085,-0.4104795999999999,0.9564444,-0.1280172,-0.01483167,0.6807302,0.05250833,0.3884634,4.637039,28.37
4,0.07492065,-0.0168456999999999,0.9970398,1.0,0.07579041,-0.03282166,0.996582,-33.85669,-0.5326691,-28.34901,3.187881,0.554924,0.6038201999999999,1.0,0.0749054,-0.01675415,0.9970398,33.57115,-1.130707,-26.34308,3.3153080000000004,0.4560081,0.6008085,-0.4104795999999999,0.9564444,-0.1280172,-0.01483167,0.6807302,0.05250833,0.3884634,4.637039,28.37
4,0.07492065,-0.0168456999999999,0.9970398,1.0,0.07579041,-0.03282166,0.996582,-33.85669,-0.5326691,-28.34901,3.187881,0.554924,0.6038201999999999,1.0,0.0749054,-0.01675415,0.9970398,33.57115,-1.130707,-26.34308,3.3153080000000004,0.4560081,0.6008085,-0.4104795999999999,0.9564444,-0.1280172,-0.01483167,0.6807302,0.05250833,0.3884634,4.637039,28.37
