Second,eye_comb_direction_x,eye_comb_direction_y,eye_comb_direction_z,eye_r_openness,eye_r_direction_x,eye_r_direction_y,eye_r_direction_z,eye_r_origin_x,eye_r_origin_y,eye_r_origin_z,eye_r_pupil_diameter,eye_r_pupil_position_x,eye_r_pupil_position_y,eye_l_openness,eye_l_direction_x,eye_l_direction_y,eye_l_direction_z,eye_l_origin_x,eye_l_origin_y,eye_l_origin_z,eye_l_pupil_diameter,eye_l_pupil_position_x,eye_l_pupil_position_y,head_position_x,head_position_y,head_position_z,head_rotation_roll,head_rotation_pitch,head_rotation_yaw,EDA,BVP,TMP
0,0.1460418999999999,-0.1374053999999999,0.9796753,0.8030114,0.1058807,-0.125946,0.9863586,-30.46651,1.241989,-27.94815,4.111435,0.4593622999999999,0.5605167,0.937932,0.1900329999999999,-0.1497498,0.9702759,34.56656,3.095352,-25.95824,4.160995,0.4148259,0.4703642,0.2843102,0.6097069,0.113241,-0.04054407,0.8424288000000001,-0.0382353,0.5504740855054198,3.4185021631686414,30.849490799092514
0,0.1460418999999999,-0.1374053999999999,0.9796753,0.8030114,0.1058807,-0.125946,0.9863586,-30.46651,1.241989,-27.94815,4.111435,0.4593622999999999,0.5605167,0.937932,0.1900329999999999,-0.1497498,0.9702759,34.56656,3.095352,-25.95824,4.160995,0.4148259,0.4703642,0.2843102,0.6097069,0.113241,-0.04054407,0.8424288000000001,-0.0382353,0.5504740855054198,3.4185021631686414,30.849490799092514
0,0.1460418999999999,-0.1374053999999999,0.9796753,0.8030114,0.1058807,-0.125946,0.9863586,-30.46651,1.241989,-27.94815,4.111435,0.4593622999999999,0.5605167,0.937932,0.1900329999999999,-0.1497498,0.9702759,34.56656,3.095352,-25.95824,4.160995,0.4148259,0.4703642,0.2843102,0.6097069,0.113241,-0.04054407,0.8424288000000001,-0.0382353,0.5504740855054198,3.4185021631686414,30.849490799092514
0,0.1460418999999999,-0.1374053999999999,0.9796753,0.8030114,0.1058807,-0.125946,0.9863586,-30.46651,1.241989,-27.94815,4.111435,0.4593622999999999,0.5605167,0.937932,0.1900329999999999,-0.1497498,0.9702759,34.56656,3.095352,-25.95824,4.160995,0.4148259,0.4703642,0.2843102,0.6097069,0.113241,-0.04054407,0.8424288000000001,-0.0382353,0.5504740855054198,3.4185021631686414,30.849490799092514
0,0.1547394,-0.1405944999999999,0.97789,0.7948142,0.1060181,-0.1268921,0.9862213,-30.46149,1.243698,-27.959670000000003,4.095856,0.4591554,0.5606687,0.9342388,0.1877747,-0.1497498,0.9707184,34.56656,3.095352,-25.95824,4.14856,0.4150957999999999,0.4703492999999999,0.2843538,0.6096060000000001,0.1132579,-0.04045015,0.8423316999999999,-0.0383902,0.5504740855054198,3.4185021631686414,30.849490799092514
0,0.1547394,-0.1405944999999999,0.97789,0.7948142,0.1060181,-0.1268921,0.9862213,-30.46149,1.243698,-27.959670000000003,4.095856,0.4591554,0.5606687,0.9342388,0.1877747,-0.1497498,0.9707184,34.56656,3.095352,-25.95824,4.14856,0.4150957999999999,0.4703492999999999,0.2843538,0.6096060000000001,0.1132579,-0.04045015,0.8423316999999999,-0.0383902,0.5504740855054198,3.4185021631686414,30.849490799092514
0,0.1547394,-0.1405944999999999,0.97789,0.7948142,0.1060181,-0.1268921,0.9862213,-30.46149,1.243698,-27.959670000000003,4.095856,0.4591554,0.5606687,0.9342388,0.1877747,-0.1497498,0.9707184,34.56656,3.095352,-25.95824,4.14856,0.4150957999999999,0.4703492999999999,0.2843538,0.6096060000000001,0.1132579,-0.04045015,0.8423316999999999,-0.0383902,0.5504740855054198,3.4185021631686414,30.849490799092514
0,0.1567993,-0.1425017999999999,0.9772797,0.7978945,0.1045073999999999,-0.1311646,0.9858246,-30.45271,1.247421,-27.96255,4.056458,0.4589829000000001,0.5610576,0.932444,0.1908263999999999,-0.149704,0.9701233,34.55539,3.104538,-25.97977,4.146286,0.4150957999999999,0.4702272,0.2844012999999999,0.6095864000000001,0.1133338999999999,-0.04063484,0.8423233,-0.03843888,0.5504740855054198,3.4185021631686414,30.849490799092514
0,0.1567993,-0.1425017999999999,0.9772797,0.7978945,0.1045073999999999,-0.1311646,0.9858246,-30.45271,1.247421,-27.96255,4.056458,0.4589829000000001,0.5610576,0.932444,0.1908263999999999,-0.149704,0.9701233,34.55539,3.104538,-25.97977,4.146286,0.4150957999999999,0.4702272,0.2844012999999999,0.6095864000000001,0.1133338999999999,-0.04063484,0.8423233,-0.03843888,0.5504740855054198,3.4185021631686414,30.849490799092514
0,0.1567993,-0.1425017999999999,0.9772797,0.7978945,0.1045073999999999,-0.1311646,0.9858246,-30.45271,1.247421,-27.96255,4.056458,0.4589829000000001,0.5610576,0.932444,0.1908263999999999,-0.149704,0.9701233,34.55539,3.104538,-25.97977,4.146286,0.4150957999999999,0.4702272,0.2844012999999999,0.6095864000000001,0.1133338999999999,-0.04063484,0.8423233,-0.03843888,0.5504740855054198,3.4185021631686414,30.849490799092514
0,0.15448,-0.1432342999999999,0.9775543,0.8024228,0.1049346999999999,-0.1315155,0.985733,-30.44954,1.248611,-27.96323,4.043976,0.4588102,0.5610576,0.9343771,0.1890869,-0.1512604,0.9702301,34.55501,3.108688,-25.99057,4.12326,0.4153122999999999,0.4703492999999999,0.2844972,0.609585,0.1134628999999999,-0.04056207,0.8423115,-0.03843432,0.5504740855054198,3.4185021631686414,30.849490799092514
0,0.15448,-0.1432342999999999,0.9775543,0.8024228,0.1049346999999999,-0.1315155,0.985733,-30.44954,1.248611,-27.96323,4.043976,0.4588102,0.5610576,0.9343771,0.1890869,-0.1512604,0.9702301,34.55501,3.108688,-25.99057,4.12326,0.4153122999999999,0.4703492999999999,0.2844972,0.609585,0.1134628999999999,-0.04056207,0.8423115,-0.03843432,0.5504740855054198,3.4185021631686414,30.849490799092514
0,0.15448,-0.1432342999999999,0.9775543,0.8024228,0.1049346999999999,-0.1315155,0.985733,-30.44954,1.248611,-27.96323,4.043976,0.4588102,0.5610576,0.9343771,0.1890869,-0.1512604,0.9702301,34.55501,3.108688,-25.99057,4.12326,0.4153122999999999,0.4703492999999999,0.2844972,0.609585,0.1134628999999999,-0.04056207,0.8423115,-0.03843432,0.5504740855054198,3.4185021631686414,30.849490799092514
0,0.15448,-0.1432342999999999,0.9775543,0.8024228,0.1049346999999999,-0.1315155,0.985733,-30.44954,1.248611,-27.96323,4.043976,0.4588102,0.5610576,0.9343771,0.1890869,-0.1512604,0.9702301,34.55501,3.108688,-25.99057,4.12326,0.4153122999999999,0.4703492999999999,0.284528,0.6095558000000001,0.1135497,-0.04051043,0.8423368,-0.03842133,0.5504740855054198,3.4185021631686414,30.849490799092514
0,0.15448,-0.1432342999999999,0.9775543,0.8024228,0.1049346999999999,-0.1315155,0.985733,-30.44954,1.248611,-27.96323,4.043976,0.4588102,0.5610576,0.9343771,0.1890869,-0.1512604,0.9702301,34.55501,3.108688,-25.99057,4.12326,0.4153122999999999,0.4703492999999999,0.284528,0.6095558000000001,0.1135497,-0.04051043,0.8423368,-0.03842133,0.5504740855054198,3.4185021631686414,30.849490799092514
0,0.15448,-0.1432342999999999,0.9775543,0.8024228,0.1049346999999999,-0.1315155,0.985733,-30.44954,1.248611,-27.96323,4.043976,0.4588102,0.5610576,0.9343771,0.1890869,-0.1512604,0.9702301,34.55501,3.108688,-25.99057,4.12326,0.4153122999999999,0.4703492999999999,0.284528,0.6095558000000001,0.1135497,-0.04051043,0.8423368,-0.03842133,0.5504740855054198,3.4185021631686414,30.849490799092514
0,0.1536865,-0.1414947999999999,0.9779205,0.8024228,0.1044311999999999,-0.1283417,0.9862061,-30.44771,1.248611,-27.96323,4.044861,0.4588116,0.5606687,0.9343771,0.1888733,-0.1507111,0.9703522,34.55489,3.110672,-25.99153,4.117767,0.4153449000000001,0.4702272,0.2846040999999999,0.6095319,0.1137313,-0.040271,0.8424681999999999,-0.03836194,0.5140497,3.4185021631686414,30.849490799092514
0,0.1536865,-0.1414947999999999,0.9779205,0.8024228,0.1044311999999999,-0.1283417,0.9862061,-30.44771,1.248611,-27.96323,4.044861,0.4588116,0.5606687,0.9343771,0.1888733,-0.1507111,0.9703522,34.55489,3.110672,-25.99153,4.117767,0.4153449000000001,0.4702272,0.2846040999999999,0.6095319,0.1137313,-0.040271,0.8424681999999999,-0.03836194,0.5140497,3.4185021631686414,30.849490799092514
0,0.1536865,-0.1414947999999999,0.9779205,0.8024228,0.1044311999999999,-0.1283417,0.9862061,-30.44771,1.248611,-27.96323,4.044861,0.4588116,0.5606687,0.9343771,0.1888733,-0.1507111,0.9703522,34.55489,3.110672,-25.99153,4.117767,0.4153449000000001,0.4702272,0.2846040999999999,0.6095319,0.1137313,-0.040271,0.8424681999999999,-0.03836194,0.5140497,3.4185021631686414,30.849490799092514
1,-0.2977448,-0.2478333,0.9219055,1.0,-0.3016205,-0.2463989,0.9210358,-32.20853,0.6598663,-28.08423,3.951111,0.5673183,0.5979944,1.0,-0.2377929999999999,-0.2692261,0.9332428,32.48596,2.538132,-26.43988,3.968872,0.5329509,0.5095615,0.2846487,0.6094568,0.1138418,-0.04008797,0.8425555,-0.03823413,0.5140497,3.4185021631686414,30.849490799092514
1,-0.2977448,-0.2478333,0.9219055,1.0,-0.3016205,-0.2463989,0.9210358,-32.20853,0.6598663,-28.08423,3.951111,0.5673183,0.5979944,1.0,-0.2377929999999999,-0.2692261,0.9332428,32.48596,2.538132,-26.43988,3.968872,0.5329509,0.5095615,0.2846487,0.6094568,0.1138418,-0.04008797,0.8425555,-0.03823413,0.5140497,3.4185021631686414,30.849490799092514
1,-0.2977448,-0.2478333,0.9219055,1.0,-0.3016205,-0.2463989,0.9210358,-32.20853,0.6598663,-28.08423,3.951111,0.5673183,0.5979944,1.0,-0.2377929999999999,-0.2692261,0.9332428,32.48596,2.538132,-26.43988,3.968872,0.5329509,0.5095615,0.2846487,0.6094568,0.1138418,-0.04008797,0.8425555,-0.03823413,0.5140497,3.4185021631686414,30.849490799092514
1,-0.2977448,-0.2478333,0.9219055,1.0,-0.3016205,-0.2463989,0.9210358,-32.20853,0.6598663,-28.08423,3.951111,0.5673183,0.5979944,1.0,-0.2377929999999999,-0.2692261,0.9332428,32.48596,2.538132,-26.43988,3.968872,0.5329509,0.5095615,0.2848064,0.6094487,0.1140041,-0.03955916,0.8428780999999999,-0.03816713,0.5140497,3.4185021631686414,30.849490799092514
1,-0.2977448,-0.2478333,0.9219055,1.0,-0.3016205,-0.2463989,0.9210358,-32.20853,0.6598663,-28.08423,3.951111,0.5673183,0.5979944,1.0,-0.2377929999999999,-0.2692261,0.9332428,32.48596,2.538132,-26.43988,3.968872,0.5329509,0.5095615,0.2848064,0.6094487,0.1140041,-0.03955916,0.8428780999999999,-0.03816713,0.5140497,3.4185021631686414,30.849490799092514
1,-0.2977448,-0.2478333,0.9219055,1.0,-0.3016205,-0.2463989,0.9210358,-32.20853,0.6598663,-28.08423,3.951111,0.5673183,0.5979944,1.0,-0.2377929999999999,-0.2692261,0.9332428,32.48596,2.538132,-26.43988,3.968872,0.5329509,0.5095615,0.2848064,0.6094487,0.1140041,-0.03955916,0.8428780999999999,-0.03816713,0.5140497,3.4185021631686414,30.849490799092514
1,-0.3348694,-0.2776947,0.9004059000000001,1.0,-0.3364563,-0.278183,0.8996582000000001,-32.39546,0.5869293000000001,-28.154940000000003,3.982544,0.5781879,0.6056982,1.0,-0.2740172999999999,-0.2581482,0.9264221,32.282790000000006,2.4380490000000004,-26.52415,3.79689,0.5442121999999999,0.5126898,0.2849781,0.6094373000000001,0.1140164999999999,-0.03938409,0.8429669,-0.03805952,0.5140497,3.4185021631686414,30.849490799092514
1,-0.3348694,-0.2776947,0.9004059000000001,1.0,-0.3364563,-0.278183,0.8996582000000001,-32.39546,0.5869293000000001,-28.154940000000003,3.982544,0.5781879,0.6056982,1.0,-0.2740172999999999,-0.2581482,0.9264221,32.282790000000006,2.4380490000000004,-26.52415,3.79689,0.5442121999999999,0.5126898,0.2849781,0.6094373000000001,0.1140164999999999,-0.03938409,0.8429669,-0.03805952,0.5140497,3.4185021631686414,30.849490799092514
1,-0.3348694,-0.2776947,0.9004059000000001,1.0,-0.3364563,-0.278183,0.8996582000000001,-32.39546,0.5869293000000001,-28.154940000000003,3.982544,0.5781879,0.6056982,1.0,-0.2740172999999999,-0.2581482,0.9264221,32.282790000000006,2.4380490000000004,-26.52415,3.79689,0.5442121999999999,0.5126898,0.2849781,0.6094373000000001,0.1140164999999999,-0.03938409,0.8429669,-0.03805952,0.5140497,3.4185021631686414,30.849490799092514
1,-0.3348694,-0.2776947,0.9004059000000001,1.0,-0.3364563,-0.278183,0.8996582000000001,-32.39546,0.5869293000000001,-28.154940000000003,3.982544,0.5781879,0.6056982,1.0,-0.2740172999999999,-0.2581482,0.9264221,32.282790000000006,2.4380490000000004,-26.52415,3.79689,0.5442121999999999,0.5126898,0.2851279,0.6094469,0.1140619999999999,-0.03919883,0.8429040999999999,-0.03809337,0.5140497,-34.93481,30.849490799092514
1,-0.3348694,-0.2776947,0.9004059000000001,1.0,-0.3364563,-0.278183,0.8996582000000001,-32.39546,0.5869293000000001,-28.154940000000003,3.982544,0.5781879,0.6056982,1.0,-0.2740172999999999,-0.2581482,0.9264221,32.282790000000006,2.4380490000000004,-26.52415,3.79689,0.5442121999999999,0.5126898,0.2851279,0.6094469,0.1140619999999999,-0.03919883,0.8429040999999999,-0.03809337,0.5140497,-34.93481,30.849490799092514
1,-0.3348694,-0.2776947,0.9004059000000001,1.0,-0.3364563,-0.278183,0.8996582000000001,-32.39546,0.5869293000000001,-28.154940000000003,3.982544,0.5781879,0.6056982,1.0,-0.2740172999999999,-0.2581482,0.9264221,32.282790000000006,2.4380490000000004,-26.52415,3.79689,0.5442121999999999,0.5126898,0.2851279,0.6094469,0.1140619999999999,-0.03919883,0.8429040999999999,-0.03809337,0.5140497,-34.93481,30.849490799092514
1,-0.3738708,-0.2912903,0.8805389000000001,1.0,-0.3744812,-0.2918396,0.8800964,-32.490829999999995,0.5306854,-28.193590000000004,3.91626,0.5863183000000001,0.6102839,1.0,-0.3430785999999999,-0.2640991,0.9013977,32.15327,2.384583,-26.61989,4.0827480000000005,0.5561504,0.5170167,0.2852935,0.6093633,0.114006,-0.03909072,0.8429056,-0.03830013,0.5140497,-34.93481,30.849490799092514
1,-0.3738708,-0.2912903,0.8805389000000001,1.0,-0.3744812,-0.2918396,0.8800964,-32.490829999999995,0.5306854,-28.193590000000004,3.91626,0.5863183000000001,0.6102839,1.0,-0.3430785999999999,-0.2640991,0.9013977,32.15327,2.384583,-26.61989,4.0827480000000005,0.5561504,0.5170167,0.2852935,0.6093633,0.114006,-0.03909072,0.8429056,-0.03830013,0.5140497,-34.93481,30.849490799092514
1,-0.3738708,-0.2912903,0.8805389000000001,1.0,-0.3744812,-0.2918396,0.8800964,-32.490829999999995,0.5306854,-28.193590000000004,3.91626,0.5863183000000001,0.6102839,1.0,-0.3430785999999999,-0.2640991,0.9013977,32.15327,2.384583,-26.61989,4.0827480000000005,0.5561504,0.5170167,0.2852935,0.6093633,0.114006,-0.03909072,0.8429056,-0.03830013,0.5140497,-34.93481,30.849490799092514
1,-0.3583679,-0.2878265,0.888092,1.0,-0.3611145,-0.2905579,0.8860779000000001,-32.66812,0.5131378,-28.22475,3.799438,0.5907781999999999,0.6108771,1.0,-0.3399658,-0.2696686,0.9009247,32.21365,2.385208,-26.60608,3.820679,0.5542321,0.5175325,0.2855935999999999,0.609211,0.1139982,-0.03900008,0.8428988000000002,-0.03863038,0.5140497,-34.93481,30.849490799092514
1,-0.3583679,-0.2878265,0.888092,1.0,-0.3611145,-0.2905579,0.8860779000000001,-32.66812,0.5131378,-28.22475,3.799438,0.5907781999999999,0.6108771,1.0,-0.3399658,-0.2696686,0.9009247,32.21365,2.385208,-26.60608,3.820679,0.5542321,0.5175325,0.2855935999999999,0.609211,0.1139982,-0.03900008,0.8428988000000002,-0.03863038,0.5140497,-34.93481,30.849490799092514
1,-0.3583679,-0.2878265,0.888092,1.0,-0.3611145,-0.2905579,0.8860779000000001,-32.66812,0.5131378,-28.22475,3.799438,0.5907781999999999,0.6108771,1.0,-0.3399658,-0.2696686,0.9009247,32.21365,2.385208,-26.60608,3.820679,0.5542321,0.5175325,0.2855935999999999,0.609211,0.1139982,-0.03900008,0.8428988000000002,-0.03863038,0.5140497,-34.93481,30.849490799092514
1,-0.3583679,-0.2878265,0.888092,1.0,-0.3611145,-0.2905579,0.8860779000000001,-32.66812,0.5131378,-28.22475,3.799438,0.5907781999999999,0.6108771,1.0,-0.3399658,-0.2696686,0.9009247,32.21365,2.385208,-26.60608,3.820679,0.5542321,0.5175325,0.2859421,0.6090425,0.1140527,-0.03871015,0.8428220999999999,-0.03901384,0.5140497,-34.93481,30.849490799092514
1,-0.3583679,-0.2878265,0.888092,1.0,-0.3611145,-0.2905579,0.8860779000000001,-32.66812,0.5131378,-28.22475,3.799438,0.5907781999999999,0.6108771,1.0,-0.3399658,-0.2696686,0.9009247,32.21365,2.385208,-26.60608,3.820679,0.5542321,0.5175325,0.2859421,0.6090425,0.1140527,-0.03871015,0.8428220999999999,-0.03901384,0.5140497,-34.93481,30.849490799092514
1,-0.3583679,-0.2878265,0.888092,1.0,-0.3611145,-0.2905579,0.8860779000000001,-32.66812,0.5131378,-28.22475,3.799438,0.5907781999999999,0.6108771,1.0,-0.3399658,-0.2696686,0.9009247,32.21365,2.385208,-26.60608,3.820679,0.5542321,0.5175325,0.2859421,0.6090425,0.1140527,-0.03871015,0.8428220999999999,-0.03901384,0.5140497,-34.93481,30.849490799092514
1,-0.3546295,-0.2815704,0.8915863000000002,1.0,-0.3610077,-0.2862396,0.8875427,-32.67044,0.5121155,-28.22469,3.798767,0.5908306999999999,0.6103445,1.0,-0.3416137999999999,-0.272049,0.8995972,32.21548,2.385742,-26.60629,3.821289,0.5543655,0.5178387,0.2861196,0.6088177,0.1140956,-0.03827357,0.8427018000000001,-0.03951243,0.5140497,-34.93481,30.849490799092514
1,-0.3546295,-0.2815704,0.8915863000000002,1.0,-0.3610077,-0.2862396,0.8875427,-32.67044,0.5121155,-28.22469,3.798767,0.5908306999999999,0.6103445,1.0,-0.3416137999999999,-0.272049,0.8995972,32.21548,2.385742,-26.60629,3.821289,0.5543655,0.5178387,0.2861196,0.6088177,0.1140956,-0.03827357,0.8427018000000001,-0.03951243,0.5140497,-34.93481,30.849490799092514
1,-0.3546295,-0.2815704,0.8915863000000002,1.0,-0.3610077,-0.2862396,0.8875427,-32.67044,0.5121155,-28.22469,3.798767,0.5908306999999999,0.6103445,1.0,-0.3416137999999999,-0.272049,0.8995972,32.21548,2.385742,-26.60629,3.821289,0.5543655,0.5178387,0.2861196,0.6088177,0.1140956,-0.03827357,0.8427018000000001,-0.03951243,0.5140497,-34.93481,30.849490799092514
1,-0.3500519,-0.2843781,0.8925018,1.0,-0.3635864,-0.2990723,0.8822327,-32.70398,0.5131378,-28.23058,3.661057,0.5923647,0.6120747,1.0,-0.3414764,-0.2750702,0.8987274,32.22093,2.385208,-26.6086,3.78569,0.5542321,0.5182675999999999,0.2861196,0.6088177,0.1140956,-0.03827357,0.8427018000000001,-0.03951243,0.5140497,-34.93481,30.849490799092514
1,-0.3500519,-0.2843781,0.8925018,1.0,-0.3635864,-0.2990723,0.8822327,-32.70398,0.5131378,-28.23058,3.661057,0.5923647,0.6120747,1.0,-0.3414764,-0.2750702,0.8987274,32.22093,2.385208,-26.6086,3.78569,0.5542321,0.5182675999999999,0.2861196,0.6088177,0.1140956,-0.03827357,0.8427018000000001,-0.03951243,0.5140497,-34.93481,30.849490799092514
1,-0.3500519,-0.2843781,0.8925018,1.0,-0.3635864,-0.2990723,0.8822327,-32.70398,0.5131378,-28.23058,3.661057,0.5923647,0.6120747,1.0,-0.3414764,-0.2750702,0.8987274,32.22093,2.385208,-26.6086,3.78569,0.5542321,0.5182675999999999,0.2861196,0.6088177,0.1140956,-0.03827357,0.8427018000000001,-0.03951243,0.5140497,-34.93481,30.849490799092514
1,-0.3496245999999999,-0.2895966,0.8909912,1.0,-0.3616333,-0.299408,0.8829193000000001,-32.70926,0.5122985999999999,-28.230390000000003,3.687012,0.5922975,0.61212,1.0,-0.341568,-0.28302,0.896225,32.23508,2.381683,-26.61018,3.642853,0.5540338,0.5194226,0.286263,0.6086225000000001,0.1142418,-0.03767269,0.8426946,-0.0399114,0.5140497,12.63892,30.849490799092514
1,-0.3496245999999999,-0.2895966,0.8909912,1.0,-0.3616333,-0.299408,0.8829193000000001,-32.70926,0.5122985999999999,-28.230390000000003,3.687012,0.5922975,0.61212,1.0,-0.341568,-0.28302,0.896225,32.23508,2.381683,-26.61018,3.642853,0.5540338,0.5194226,0.286263,0.6086225000000001,0.1142418,-0.03767269,0.8426946,-0.0399114,0.5140497,12.63892,30.849490799092514
1,-0.3496245999999999,-0.2895966,0.8909912,1.0,-0.3616333,-0.299408,0.8829193000000001,-32.70926,0.5122985999999999,-28.230390000000003,3.687012,0.5922975,0.61212,1.0,-0.341568,-0.28302,0.896225,32.23508,2.381683,-26.61018,3.642853,0.5540338,0.5194226,0.286263,0.6086225000000001,0.1142418,-0.03767269,0.8426946,-0.0399114,0.5140497,12.63892,30.849490799092514
1,-0.3474579,-0.2887573,0.8921203999999999,1.0,-0.3617859,-0.2989502,0.8830261,-32.70921,0.5139617999999999,-28.22758,3.670532,0.5923113,0.6119794,1.0,-0.3375702,-0.281723,0.8981323,32.23697,2.383682,-26.61069,3.615463,0.5535484,0.5191324,0.2864282,0.6085216999999999,0.1143575,-0.03733696,0.8427036,-0.04000686,0.5140497,12.63892,30.849490799092514
1,-0.3474579,-0.2887573,0.8921203999999999,1.0,-0.3617859,-0.2989502,0.8830261,-32.70921,0.5139617999999999,-28.22758,3.670532,0.5923113,0.6119794,1.0,-0.3375702,-0.281723,0.8981323,32.23697,2.383682,-26.61069,3.615463,0.5535484,0.5191324,0.2864282,0.6085216999999999,0.1143575,-0.03733696,0.8427036,-0.04000686,0.5140497,12.63892,30.849490799092514
1,-0.3474579,-0.2887573,0.8921203999999999,1.0,-0.3617859,-0.2989502,0.8830261,-32.70921,0.5139617999999999,-28.22758,3.670532,0.5923113,0.6119794,1.0,-0.3375702,-0.281723,0.8981323,32.23697,2.383682,-26.61069,3.615463,0.5535484,0.5191324,0.2864282,0.6085216999999999,0.1143575,-0.03733696,0.8427036,-0.04000686,0.5140497,12.63892,30.849490799092514
1,-0.3456573,-0.2902985,0.8923187,1.0,-0.3618011,-0.2990723,0.8829651,-32.70871,0.5168457000000001,-28.22632,3.641418,0.5922970000000001,0.6118840999999999,1.0,-0.334549,-0.2842407,0.8984833000000001,32.23816,2.383682,-26.61165,3.5666809999999995,0.5532414000000001,0.5194226,0.2866303,0.608524,0.114427,-0.03713737,0.8426353000000001,-0.03978491,0.5140497,12.63892,30.849490799092514
1,-0.3456573,-0.2902985,0.8923187,1.0,-0.3618011,-0.2990723,0.8829651,-32.70871,0.5168457000000001,-28.22632,3.641418,0.5922970000000001,0.6118840999999999,1.0,-0.334549,-0.2842407,0.8984833000000001,32.23816,2.383682,-26.61165,3.5666809999999995,0.5532414000000001,0.5194226,0.2866303,0.608524,0.114427,-0.03713737,0.8426353000000001,-0.03978491,0.5140497,12.63892,30.849490799092514
1,-0.3456573,-0.2902985,0.8923187,1.0,-0.3618011,-0.2990723,0.8829651,-32.70871,0.5168457000000001,-28.22632,3.641418,0.5922970000000001,0.6118840999999999,1.0,-0.334549,-0.2842407,0.8984833000000001,32.23816,2.383682,-26.61165,3.5666809999999995,0.5532414000000001,0.5194226,0.2866303,0.608524,0.114427,-0.03713737,0.8426353000000001,-0.03978491,0.5140497,12.63892,30.849490799092514
1,-0.3456573,-0.2902527,0.8923187,1.0,-0.3617401,-0.299057,0.8829956,-32.70888,0.5197144,-28.22543,3.59729,0.5922970000000001,0.6117746000000001,1.0,-0.3345642,-0.2841644,0.8984985000000001,32.24187,2.383682,-26.61166,3.499939,0.5532414000000001,0.5194226,0.2867532,0.6085355,0.1145055,-0.03688837,0.8425415,-0.03986516,0.5140497,12.63892,30.849490799092514
1,-0.3456573,-0.2902527,0.8923187,1.0,-0.3617401,-0.299057,0.8829956,-32.70888,0.5197144,-28.22543,3.59729,0.5922970000000001,0.6117746000000001,1.0,-0.3345642,-0.2841644,0.8984985000000001,32.24187,2.383682,-26.61166,3.499939,0.5532414000000001,0.5194226,0.2867532,0.6085355,0.1145055,-0.03688837,0.8425415,-0.03986516,0.5140497,12.63892,30.849490799092514
1,-0.3456573,-0.2902527,0.8923187,1.0,-0.3617401,-0.299057,0.8829956,-32.70888,0.5197144,-28.22543,3.59729,0.5922970000000001,0.6117746000000001,1.0,-0.3345642,-0.2841644,0.8984985000000001,32.24187,2.383682,-26.61166,3.499939,0.5532414000000001,0.5194226,0.2867532,0.6085355,0.1145055,-0.03688837,0.8425415,-0.03986516,0.5140497,12.63892,30.849490799092514
1,-0.3464660999999999,-0.2935944,0.8909302,1.0,-0.3614349,-0.3005370999999999,0.8826141,-32.70981,0.5317535,-28.21738,3.567566,0.5922871999999999,0.6114684,1.0,-0.3359985,-0.2887114999999999,0.8965148999999999,32.25095,2.392273,-26.61247,3.429565,0.5532414000000001,0.5197589,0.2868713,0.608492,0.1146539,-0.03660481,0.8424031999999999,-0.03997612,0.5140497,12.63892,30.849490799092514
1,-0.3464660999999999,-0.2935944,0.8909302,1.0,-0.3614349,-0.3005370999999999,0.8826141,-32.70981,0.5317535,-28.21738,3.567566,0.5922871999999999,0.6114684,1.0,-0.3359985,-0.2887114999999999,0.8965148999999999,32.25095,2.392273,-26.61247,3.429565,0.5532414000000001,0.5197589,0.2868713,0.608492,0.1146539,-0.03660481,0.8424031999999999,-0.03997612,0.5140497,12.63892,30.849490799092514
1,-0.3464660999999999,-0.2935944,0.8909302,1.0,-0.3614349,-0.3005370999999999,0.8826141,-32.70981,0.5317535,-28.21738,3.567566,0.5922871999999999,0.6114684,1.0,-0.3359985,-0.2887114999999999,0.8965148999999999,32.25095,2.392273,-26.61247,3.429565,0.5532414000000001,0.5197589,0.2868713,0.608492,0.1146539,-0.03660481,0.8424031999999999,-0.03997612,0.5140497,12.63892,30.849490799092514
1,-0.1723328,-0.2958984,0.9395294,1.0,-0.2043152,-0.2961884,0.9330139,-31.95786,0.4908142,-27.96837,3.459839,0.5466491,0.6081091,1.0,-0.1470795,-0.2954407,0.9439545,32.89201,2.362091,-26.35544,3.5174260000000004,0.5095319,0.516984,0.286915,0.6085010999999999,0.1147453,-0.03667416,0.8422969000000001,-0.03971565,0.5140497,12.63892,30.849490799092514
1,-0.1723328,-0.2958984,0.9395294,1.0,-0.2043152,-0.2961884,0.9330139,-31.95786,0.4908142,-27.96837,3.459839,0.5466491,0.6081091,1.0,-0.1470795,-0.2954407,0.9439545,32.89201,2.362091,-26.35544,3.5174260000000004,0.5095319,0.516984,0.286915,0.6085010999999999,0.1147453,-0.03667416,0.8422969000000001,-0.03971565,0.5140497,12.63892,30.849490799092514
1,-0.1723328,-0.2958984,0.9395294,1.0,-0.2043152,-0.2961884,0.9330139,-31.95786,0.4908142,-27.96837,3.459839,0.5466491,0.6081091,1.0,-0.1470795,-0.2954407,0.9439545,32.89201,2.362091,-26.35544,3.5174260000000004,0.5095319,0.516984,0.286915,0.6085010999999999,0.1147453,-0.03667416,0.8422969000000001,-0.03971565,0.5140497,12.63892,30.849490799092514
1,0.05714417,-0.3219452,0.9450226,0.9105963,0.04145813,-0.32341,0.945343,-30.753740000000004,0.4122314,-27.88896,3.421066,0.4755892,0.61273,0.9901686,0.1016693,-0.3173065,0.9428558,33.95313,2.278778,-26.13101,3.388641,0.4453425,0.5191625,0.2869022999999999,0.6085465,0.1148269,-0.03682874,0.8422405999999999,-0.03991951,0.5140497,55.43188,30.849490799092514
1,0.05714417,-0.3219452,0.9450226,0.9105963,0.04145813,-0.32341,0.945343,-30.753740000000004,0.4122314,-27.88896,3.421066,0.4755892,0.61273,0.9901686,0.1016693,-0.3173065,0.9428558,33.95313,2.278778,-26.13101,3.388641,0.4453425,0.5191625,0.2869022999999999,0.6085465,0.1148269,-0.03682874,0.8422405999999999,-0.03991951,0.5140497,55.43188,30.849490799092514
1,0.05714417,-0.3219452,0.9450226,0.9105963,0.04145813,-0.32341,0.945343,-30.753740000000004,0.4122314,-27.88896,3.421066,0.4755892,0.61273,0.9901686,0.1016693,-0.3173065,0.9428558,33.95313,2.278778,-26.13101,3.388641,0.4453425,0.5191625,0.2869022999999999,0.6085465,0.1148269,-0.03682874,0.8422405999999999,-0.03991951,0.5140497,55.43188,30.849490799092514
1,0.07055664,-0.3260651,0.9427032,0.9343207,0.04290771,-0.3210144,0.9460907,-30.803420000000003,0.4111175999999999,-27.88808,3.4895629999999995,0.4771859,0.6124535,0.9800658,0.1110077,-0.3330078,0.9363556,33.95313,2.279602,-26.12347,3.311188,0.4442728,0.5210742,0.2868674,0.6085016,0.1148762,-0.03653106,0.8422703000000001,-0.03987161,0.5140497,55.43188,30.849490799092514
1,0.07055664,-0.3260651,0.9427032,0.9343207,0.04290771,-0.3210144,0.9460907,-30.803420000000003,0.4111175999999999,-27.88808,3.4895629999999995,0.4771859,0.6124535,0.9800658,0.1110077,-0.3330078,0.9363556,33.95313,2.279602,-26.12347,3.311188,0.4442728,0.5210742,0.2868674,0.6085016,0.1148762,-0.03653106,0.8422703000000001,-0.03987161,0.5140497,55.43188,30.849490799092514
1,0.07055664,-0.3260651,0.9427032,0.9343207,0.04290771,-0.3210144,0.9460907,-30.803420000000003,0.4111175999999999,-27.88808,3.4895629999999995,0.4771859,0.6124535,0.9800658,0.1110077,-0.3330078,0.9363556,33.95313,2.279602,-26.12347,3.311188,0.4442728,0.5210742,0.2868674,0.6085016,0.1148762,-0.03653106,0.8422703000000001,-0.03987161,0.5140497,55.43188,30.849490799092514
1,0.07807922,-0.3277739999999999,0.9415131,0.9137416,0.04136658,-0.3204803,0.9463348,-30.8148,0.4167938,-27.882,3.434952,0.4777035,0.6121265,0.9905315,0.1048431,-0.3327942,0.9371338,33.97523,2.287766,-26.11969,3.3112790000000003,0.4442723,0.5207388,0.286907,0.6084845999999999,0.1149536,-0.03643436,0.8423603999999999,-0.03976636,0.5140497,55.43188,30.849490799092514
1,0.07807922,-0.3277739999999999,0.9415131,0.9137416,0.04136658,-0.3204803,0.9463348,-30.8148,0.4167938,-27.882,3.434952,0.4777035,0.6121265,0.9905315,0.1048431,-0.3327942,0.9371338,33.97523,2.287766,-26.11969,3.3112790000000003,0.4442723,0.5207388,0.286907,0.6084845999999999,0.1149536,-0.03643436,0.8423603999999999,-0.03976636,0.5140497,55.43188,30.849490799092514
1,0.07807922,-0.3277739999999999,0.9415131,0.9137416,0.04136658,-0.3204803,0.9463348,-30.8148,0.4167938,-27.882,3.434952,0.4777035,0.6121265,0.9905315,0.1048431,-0.3327942,0.9371338,33.97523,2.287766,-26.11969,3.3112790000000003,0.4442723,0.5207388,0.286907,0.6084845999999999,0.1149536,-0.03643436,0.8423603999999999,-0.03976636,0.5140497,55.43188,30.849490799092514
1,0.07746887,-0.3270264,0.9418182,0.9275497,0.04232788,-0.3212585,0.9460297,-30.82718,0.4217529,-27.87495,3.445404,0.4780214,0.6119941,0.993196,0.1021576,-0.3308410999999999,0.9381256,33.98816,2.2913360000000003,-26.11859,3.334427,0.4441476,0.5203582,0.2868214,0.6084279,0.1149746,-0.03642035,0.8423443000000002,-0.03973421,0.5140497,55.43188,30.849490799092514
1,0.07746887,-0.3270264,0.9418182,0.9275497,0.04232788,-0.3212585,0.9460297,-30.82718,0.4217529,-27.87495,3.445404,0.4780214,0.6119941,0.993196,0.1021576,-0.3308410999999999,0.9381256,33.98816,2.2913360000000003,-26.11859,3.334427,0.4441476,0.5203582,0.2868214,0.6084279,0.1149746,-0.03642035,0.8423443000000002,-0.03973421,0.5140497,55.43188,30.849490799092514
1,0.07746887,-0.3270264,0.9418182,0.9275497,0.04232788,-0.3212585,0.9460297,-30.82718,0.4217529,-27.87495,3.445404,0.4780214,0.6119941,0.993196,0.1021576,-0.3308410999999999,0.9381256,33.98816,2.2913360000000003,-26.11859,3.334427,0.4441476,0.5203582,0.2868214,0.6084279,0.1149746,-0.03642035,0.8423443000000002,-0.03973421,0.5140497,55.43188,30.849490799092514
1,0.0730896,-0.3292847,0.941391,0.9040073,0.03994751,-0.3211974999999999,0.946167,-30.84322,0.4266205,-27.86578,3.441818,0.4788534,0.6117409,0.9868823,0.09614563,-0.3347168,0.9373932,34.01591,2.302689,-26.11353,3.307297,0.4439555,0.520436,0.2868060999999999,0.6084385999999999,0.114969,-0.0363173,0.8422655000000001,-0.03984413,0.5140497,55.43188,30.849490799092514
1,0.0730896,-0.3292847,0.941391,0.9040073,0.03994751,-0.3211974999999999,0.946167,-30.84322,0.4266205,-27.86578,3.441818,0.4788534,0.6117409,0.9868823,0.09614563,-0.3347168,0.9373932,34.01591,2.302689,-26.11353,3.307297,0.4439555,0.520436,0.2868060999999999,0.6084385999999999,0.114969,-0.0363173,0.8422655000000001,-0.03984413,0.5140497,55.43188,30.849490799092514
1,0.0730896,-0.3292847,0.941391,0.9040073,0.03994751,-0.3211974999999999,0.946167,-30.84322,0.4266205,-27.86578,3.441818,0.4788534,0.6117409,0.9868823,0.09614563,-0.3347168,0.9373932,34.01591,2.302689,-26.11353,3.307297,0.4439555,0.520436,0.2868060999999999,0.6084385999999999,0.114969,-0.0363173,0.8422655000000001,-0.03984413,0.5140497,55.43188,30.849490799092514
1,0.07345581,-0.3288727,0.9414978,0.8946849,0.04032898,-0.3216553,0.9459839,-30.8515,0.4292755,-27.862,3.425476,0.4790732,0.6116694,0.978714,0.09672546,-0.3337097,0.9376831,34.02061,2.303162,-26.1132,3.3071589999999995,0.4437321,0.5202804,0.2867624,0.608416,0.1149786,-0.03659688,0.8422850000000001,-0.03994685,0.5140497,55.43188,30.849490799092514
1,0.07345581,-0.3288727,0.9414978,0.8946849,0.04032898,-0.3216553,0.9459839,-30.8515,0.4292755,-27.862,3.425476,0.4790732,0.6116694,0.978714,0.09672546,-0.3337097,0.9376831,34.02061,2.303162,-26.1132,3.3071589999999995,0.4437321,0.5202804,0.2867624,0.608416,0.1149786,-0.03659688,0.8422850000000001,-0.03994685,0.5140497,55.43188,30.849490799092514
1,0.07345581,-0.3288727,0.9414978,0.8946849,0.04032898,-0.3216553,0.9459839,-30.8515,0.4292755,-27.862,3.425476,0.4790732,0.6116694,0.978714,0.09672546,-0.3337097,0.9376831,34.02061,2.303162,-26.1132,3.3071589999999995,0.4437321,0.5202804,0.2867624,0.608416,0.1149786,-0.03659688,0.8422850000000001,-0.03994685,0.5140497,55.43188,30.849490799092514
1,0.06924438,-0.3292694,0.9416809000000002,0.8747704,0.03620911,-0.3212433,0.9462891,-30.85739,0.4387511999999999,-27.85095,3.424393,0.4797723,0.6111814999999999,0.9719025,0.09220886,-0.3346405,0.9378052,34.03735,2.307037,-26.10901,3.292282,0.4437223,0.5202386,0.2866785999999999,0.6084163,0.1149915,-0.03660644,0.8423796,-0.03991158,0.5140497,-13.24011,30.849490799092514
1,0.06924438,-0.3292694,0.9416809000000002,0.8747704,0.03620911,-0.3212433,0.9462891,-30.85739,0.4387511999999999,-27.85095,3.424393,0.4797723,0.6111814999999999,0.9719025,0.09220886,-0.3346405,0.9378052,34.03735,2.307037,-26.10901,3.292282,0.4437223,0.5202386,0.2866785999999999,0.6084163,0.1149915,-0.03660644,0.8423796,-0.03991158,0.5140497,-13.24011,30.849490799092514
1,0.06924438,-0.3292694,0.9416809000000002,0.8747704,0.03620911,-0.3212433,0.9462891,-30.85739,0.4387511999999999,-27.85095,3.424393,0.4797723,0.6111814999999999,0.9719025,0.09220886,-0.3346405,0.9378052,34.03735,2.307037,-26.10901,3.292282,0.4437223,0.5202386,0.2866785999999999,0.6084163,0.1149915,-0.03660644,0.8423796,-0.03991158,0.5140497,-13.24011,30.849490799092514
1,0.0687561,-0.3310242,0.9411011,0.8682466,0.03488159,-0.3205414,0.946579,-30.85858,0.4417266999999999,-27.83943,3.447433,0.4799965,0.6108679,0.9761409,0.08988953,-0.3373718,0.9370575,34.05078,2.315262,-26.10057,3.2919620000000003,0.4435535,0.5202386,0.2865902999999999,0.6083481,0.1150731,-0.03651933,0.8424819,-0.03986927,0.5140497,-13.24011,30.849490799092514
1,0.0687561,-0.3310242,0.9411011,0.8682466,0.03488159,-0.3205414,0.946579,-30.85858,0.4417266999999999,-27.83943,3.447433,0.4799965,0.6108679,0.9761409,0.08988953,-0.3373718,0.9370575,34.05078,2.315262,-26.10057,3.2919620000000003,0.4435535,0.5202386,0.2865902999999999,0.6083481,0.1150731,-0.03651933,0.8424819,-0.03986927,0.5140497,-13.24011,30.849490799092514
1,0.0687561,-0.3310242,0.9411011,0.8682466,0.03488159,-0.3205414,0.946579,-30.85858,0.4417266999999999,-27.83943,3.447433,0.4799965,0.6108679,0.9761409,0.08988953,-0.3373718,0.9370575,34.05078,2.315262,-26.10057,3.2919620000000003,0.4435535,0.5202386,0.2865902999999999,0.6083481,0.1150731,-0.03651933,0.8424819,-0.03986927,0.5140497,-13.24011,30.849490799092514
1,0.06632996,-0.3293915,0.9418488000000002,0.8788226,0.03491211,-0.3186645999999999,0.9472198,-30.85825,0.444458,-27.8306,3.460968,0.4799965,0.6104459,0.9807939,0.08720398,-0.3363342,0.9376831,34.05537,2.317398,-26.09399,3.283218,0.4437321,0.5199805000000001,0.2867649,0.6084268,0.1152643,-0.03637562,0.8420277,-0.03958929,0.5140497,-13.24011,30.849490799092514
1,0.06632996,-0.3293915,0.9418488000000002,0.8788226,0.03491211,-0.3186645999999999,0.9472198,-30.85825,0.444458,-27.8306,3.460968,0.4799965,0.6104459,0.9807939,0.08720398,-0.3363342,0.9376831,34.05537,2.317398,-26.09399,3.283218,0.4437321,0.5199805000000001,0.2867649,0.6084268,0.1152643,-0.03637562,0.8420277,-0.03958929,0.5140497,-13.24011,30.849490799092514
1,0.06632996,-0.3293915,0.9418488000000002,0.8788226,0.03491211,-0.3186645999999999,0.9472198,-30.85825,0.444458,-27.8306,3.460968,0.4799965,0.6104459,0.9807939,0.08720398,-0.3363342,0.9376831,34.05537,2.317398,-26.09399,3.283218,0.4437321,0.5199805000000001,0.2867649,0.6084268,0.1152643,-0.03637562,0.8420277,-0.03958929,0.5140497,-13.24011,30.849490799092514
1,0.06646729,-0.3292694,0.9418793,0.8673164000000001,0.03437805,-0.31987,0.9468231,-30.85663,0.4524384,-27.82089,3.451447,0.4799965,0.6102291999999999,0.9720824,0.08769226,-0.3353119,0.9380035,34.05875,2.317398,-26.08797,3.300079,0.4435535,0.5198008,0.2874084,0.608667,0.1165392,-0.03641544,0.839184,-0.03829586,0.5140497,-13.24011,30.849490799092514
1,0.06646729,-0.3292694,0.9418793,0.8673164000000001,0.03437805,-0.31987,0.9468231,-30.85663,0.4524384,-27.82089,3.451447,0.4799965,0.6102291999999999,0.9720824,0.08769226,-0.3353119,0.9380035,34.05875,2.317398,-26.08797,3.300079,0.4435535,0.5198008,0.2874084,0.608667,0.1165392,-0.03641544,0.839184,-0.03829586,0.5140497,-13.24011,30.849490799092514
1,0.06646729,-0.3292694,0.9418793,0.8673164000000001,0.03437805,-0.31987,0.9468231,-30.85663,0.4524384,-27.82089,3.451447,0.4799965,0.6102291999999999,0.9720824,0.08769226,-0.3353119,0.9380035,34.05875,2.317398,-26.08797,3.300079,0.4435535,0.5198008,0.2874084,0.608667,0.1165392,-0.03641544,0.839184,-0.03829586,0.5140497,-13.24011,30.849490799092514
1,0.06488037,-0.3311005,0.9413452,1.0,0.03068542,-0.3247223,0.9452972,-30.53159,0.5494843,-27.79124,3.488617,0.4693965999999999,0.6071989000000001,1.0,0.0851593,-0.3347168,0.9384613000000002,34.38451,2.2721560000000003,-26.09851,3.3937230000000005,0.4329398,0.5212084,0.2899727,0.6102241,0.1225043999999999,-0.04076052,0.8226215,-0.03545423,0.5140497,-13.24011,30.849490799092514
1,0.06488037,-0.3311005,0.9413452,1.0,0.03068542,-0.3247223,0.9452972,-30.53159,0.5494843,-27.79124,3.488617,0.4693965999999999,0.6071989000000001,1.0,0.0851593,-0.3347168,0.9384613000000002,34.38451,2.2721560000000003,-26.09851,3.3937230000000005,0.4329398,0.5212084,0.2899727,0.6102241,0.1225043999999999,-0.04076052,0.8226215,-0.03545423,0.5140497,-13.24011,30.849490799092514
1,0.06488037,-0.3311005,0.9413452,1.0,0.03068542,-0.3247223,0.9452972,-30.53159,0.5494843,-27.79124,3.488617,0.4693965999999999,0.6071989000000001,1.0,0.0851593,-0.3347168,0.9384613000000002,34.38451,2.2721560000000003,-26.09851,3.3937230000000005,0.4329398,0.5212084,0.2899727,0.6102241,0.1225043999999999,-0.04076052,0.8226215,-0.03545423,0.5140497,-13.24011,30.849490799092514
1,0.04351807,-0.3174285999999999,0.9472809,0.7907225,-0.003479004,-0.3077393,0.9514465,-30.079390000000004,0.6525420999999999,-27.78755,3.320267,0.4579698,0.6012951,0.9991904,0.07539368,-0.3235779,0.9431763,34.82748,2.227676,-26.12881,3.403839,0.4193455,0.5214134,0.2938759,0.6120198,0.1322568999999999,-0.04963404,0.789103,-0.03471409,0.5140497,-32.68457,30.849490799092514
1,0.04351807,-0.3174285999999999,0.9472809,0.7907225,-0.003479004,-0.3077393,0.9514465,-30.079390000000004,0.6525420999999999,-27.78755,3.320267,0.4579698,0.6012951,0.9991904,0.07539368,-0.3235779,0.9431763,34.82748,2.227676,-26.12881,3.403839,0.4193455,0.5214134,0.2938759,0.6120198,0.1322568999999999,-0.04963404,0.789103,-0.03471409,0.5140497,-32.68457,30.849490799092514
1,0.04351807,-0.3174285999999999,0.9472809,0.7907225,-0.003479004,-0.3077393,0.9514465,-30.079390000000004,0.6525420999999999,-27.78755,3.320267,0.4579698,0.6012951,0.9991904,0.07539368,-0.3235779,0.9431763,34.82748,2.227676,-26.12881,3.403839,0.4193455,0.5214134,0.2938759,0.6120198,0.1322568999999999,-0.04963404,0.789103,-0.03471409,0.5140497,-32.68457,30.849490799092514
1,0.3013152999999999,-0.2590485,0.9176483,0.6677031,0.2461243,-0.241806,0.9385834,-28.37668,0.9761046999999998,-28.13849,3.592072,0.3698674,0.5859079,0.8770007,0.3305205999999999,-0.2679138,0.9049683,36.39674,2.341629,-26.42107,3.40126,0.3360882,0.5133399000000001,0.2966145999999999,0.6132264000000001,0.1421129,-0.05231457,0.7561342,-0.0338409,0.5140497,-32.68457,30.849490799092514
1,0.3013152999999999,-0.2590485,0.9176483,0.6677031,0.2461243,-0.241806,0.9385834,-28.37668,0.9761046999999998,-28.13849,3.592072,0.3698674,0.5859079,0.8770007,0.3305205999999999,-0.2679138,0.9049683,36.39674,2.341629,-26.42107,3.40126,0.3360882,0.5133399000000001,0.2966145999999999,0.6132264000000001,0.1421129,-0.05231457,0.7561342,-0.0338409,0.5140497,-32.68457,30.849490799092514
1,0.3013152999999999,-0.2590485,0.9176483,0.6677031,0.2461243,-0.241806,0.9385834,-28.37668,0.9761046999999998,-28.13849,3.592072,0.3698674,0.5859079,0.8770007,0.3305205999999999,-0.2679138,0.9049683,36.39674,2.341629,-26.42107,3.40126,0.3360882,0.5133399000000001,0.2966145999999999,0.6132264000000001,0.1421129,-0.05231457,0.7561342,-0.0338409,0.5140497,-32.68457,30.849490799092514
1,0.4404297,-0.2366942999999999,0.8660126,0.6479614,0.3575744999999999,-0.2251433999999999,0.9063263,-28.47969,1.087158,-28.1936,3.571304,0.3596877999999999,0.5817186,0.8045435999999999,0.4596404999999999,-0.2391357,0.8552856,36.27472,2.555161,-26.422290000000004,3.437408,0.3239855,0.5038939,0.2980695,0.614187,0.1507486,-0.05057196,0.729112,-0.03157907,0.5140497,-32.68457,30.849490799092514
1,0.4404297,-0.2366942999999999,0.8660126,0.6479614,0.3575744999999999,-0.2251433999999999,0.9063263,-28.47969,1.087158,-28.1936,3.571304,0.3596877999999999,0.5817186,0.8045435999999999,0.4596404999999999,-0.2391357,0.8552856,36.27472,2.555161,-26.422290000000004,3.437408,0.3239855,0.5038939,0.2980695,0.614187,0.1507486,-0.05057196,0.729112,-0.03157907,0.5140497,-32.68457,30.849490799092514
1,0.4404297,-0.2366942999999999,0.8660126,0.6479614,0.3575744999999999,-0.2251433999999999,0.9063263,-28.47969,1.087158,-28.1936,3.571304,0.3596877999999999,0.5817186,0.8045435999999999,0.4596404999999999,-0.2391357,0.8552856,36.27472,2.555161,-26.422290000000004,3.437408,0.3239855,0.5038939,0.2980695,0.614187,0.1507486,-0.05057196,0.729112,-0.03157907,0.5140497,-32.68457,30.849490799092514
1,0.2795105,-0.2128296,0.9362488,0.7210131,0.2352905,-0.1893767999999999,0.9532776,-29.37175,0.9388885,-27.95659,3.546967,0.4055322,0.578913,0.848281,0.3133392,-0.2306518999999999,0.9211884,35.436690000000006,2.529953,-26.19653,3.5559540000000003,0.3707875,0.5007702,0.2985698,0.6143708999999999,0.1561507,-0.04911866,0.7132130999999999,-0.03090724,0.5140497,-32.68457,30.849490799092514
1,0.2795105,-0.2128296,0.9362488,0.7210131,0.2352905,-0.1893767999999999,0.9532776,-29.37175,0.9388885,-27.95659,3.546967,0.4055322,0.578913,0.848281,0.3133392,-0.2306518999999999,0.9211884,35.436690000000006,2.529953,-26.19653,3.5559540000000003,0.3707875,0.5007702,0.2985698,0.6143708999999999,0.1561507,-0.04911866,0.7132130999999999,-0.03090724,0.5140497,-32.68457,30.849490799092514
1,0.2795105,-0.2128296,0.9362488,0.7210131,0.2352905,-0.1893767999999999,0.9532776,-29.37175,0.9388885,-27.95659,3.546967,0.4055322,0.578913,0.848281,0.3133392,-0.2306518999999999,0.9211884,35.436690000000006,2.529953,-26.19653,3.5559540000000003,0.3707875,0.5007702,0.2985698,0.6143708999999999,0.1561507,-0.04911866,0.7132130999999999,-0.03090724,0.5140497,-32.68457,30.849490799092514
1,0.182785,-0.2167206,0.9589539,0.8031904000000001,0.1210632,-0.2029572,0.9716644,-30.34743,0.8414917,-27.78847,3.5994870000000003,0.4526678,0.5818911,0.9178628,0.2147369,-0.2235413,0.9507294,34.47783,2.593887,-26.02888,3.511307,0.4147971,0.49621,0.2986892,0.6145702,0.1608917,-0.04874654,0.6981130999999999,-0.03074579,0.5140497,-32.68457,30.849490799092514
1,0.182785,-0.2167206,0.9589539,0.8031904000000001,0.1210632,-0.2029572,0.9716644,-30.34743,0.8414917,-27.78847,3.5994870000000003,0.4526678,0.5818911,0.9178628,0.2147369,-0.2235413,0.9507294,34.47783,2.593887,-26.02888,3.511307,0.4147971,0.49621,0.2986892,0.6145702,0.1608917,-0.04874654,0.6981130999999999,-0.03074579,0.5140497,-32.68457,30.849490799092514
1,0.182785,-0.2167206,0.9589539,0.8031904000000001,0.1210632,-0.2029572,0.9716644,-30.34743,0.8414917,-27.78847,3.5994870000000003,0.4526678,0.5818911,0.9178628,0.2147369,-0.2235413,0.9507294,34.47783,2.593887,-26.02888,3.511307,0.4147971,0.49621,0.2986892,0.6145702,0.1608917,-0.04874654,0.6981130999999999,-0.03074579,0.5140497,-32.68457,30.849490799092514
1,0.1161041,-0.2096251999999999,0.9708557,0.7810739999999999,0.05384827,-0.1872559,0.9808197,-30.68001,0.7771759,-27.46902,3.633606,0.4720576,0.5790281999999999,0.9413835,0.1308136,-0.214798,0.9678497,34.23335,2.575333,-25.95802,3.529205,0.432897,0.4951162,0.2986832,0.6151799,0.1699511,-0.04900086,0.6699736999999999,-0.03003823,0.5140497,-18.6377,30.849490799092514
1,0.1161041,-0.2096251999999999,0.9708557,0.7810739999999999,0.05384827,-0.1872559,0.9808197,-30.68001,0.7771759,-27.46902,3.633606,0.4720576,0.5790281999999999,0.9413835,0.1308136,-0.214798,0.9678497,34.23335,2.575333,-25.95802,3.529205,0.432897,0.4951162,0.2986832,0.6151799,0.1699511,-0.04900086,0.6699736999999999,-0.03003823,0.5140497,-18.6377,30.849490799092514
1,0.1161041,-0.2096251999999999,0.9708557,0.7810739999999999,0.05384827,-0.1872559,0.9808197,-30.68001,0.7771759,-27.46902,3.633606,0.4720576,0.5790281999999999,0.9413835,0.1308136,-0.214798,0.9678497,34.23335,2.575333,-25.95802,3.529205,0.432897,0.4951162,0.2986832,0.6151799,0.1699511,-0.04900086,0.6699736999999999,-0.03003823,0.5140497,-18.6377,30.849490799092514
1,0.05105591,-0.2075042999999999,0.9768829,0.7746890000000001,-0.02574158,-0.1739197,0.9844208,-31.11819,0.3593139999999999,-26.02603,3.662735,0.4959902,0.5781682,0.9451928,0.05105591,-0.2075042999999999,0.9768829,33.83617,2.6181490000000003,-26.03772,3.602676,0.4552797999999999,0.4936813,0.2988335,0.6153898,0.1772182,-0.04966466,0.6485739,-0.03045715,0.5140497,-18.6377,30.849490799092514
2,0.05105591,-0.2075042999999999,0.9768829,0.7746890000000001,-0.02574158,-0.1739197,0.9844208,-31.11819,0.3593139999999999,-26.02603,3.662735,0.4959902,0.5781682,0.9451928,0.05105591,-0.2075042999999999,0.9768829,33.83617,2.6181490000000003,-26.03772,3.602676,0.4552797999999999,0.4936813,0.2988335,0.6153898,0.1772182,-0.04966466,0.6485739,-0.03045715,0.5140497,-18.6377,30.849490799092514
2,0.05105591,-0.2075042999999999,0.9768829,0.7746890000000001,-0.02574158,-0.1739197,0.9844208,-31.11819,0.3593139999999999,-26.02603,3.662735,0.4959902,0.5781682,0.9451928,0.05105591,-0.2075042999999999,0.9768829,33.83617,2.6181490000000003,-26.03772,3.602676,0.4552797999999999,0.4936813,0.2988335,0.6153898,0.1772182,-0.04966466,0.6485739,-0.03045715,0.5140497,-18.6377,30.849490799092514
2,-0.04133606,-0.1900024,0.980896,0.815916,-0.1210021999999999,-0.1925507,0.9737854,-31.56284,0.6285858,-27.08418,3.640991000000001,0.522629,0.5814381,0.9564788,-0.04133606,-0.1900024,0.980896,33.33829,2.659073,-26.13503,3.579086,0.4825174,0.4914478,0.2991207,0.615696,0.1801453,-0.04991945,0.6413300999999999,-0.03001689,0.5140497,-18.6377,30.849490799092514
2,-0.04133606,-0.1900024,0.980896,0.815916,-0.1210021999999999,-0.1925507,0.9737854,-31.56284,0.6285858,-27.08418,3.640991000000001,0.522629,0.5814381,0.9564788,-0.04133606,-0.1900024,0.980896,33.33829,2.659073,-26.13503,3.579086,0.4825174,0.4914478,0.2991207,0.615696,0.1801453,-0.04991945,0.6413300999999999,-0.03001689,0.5140497,-18.6377,30.849490799092514
2,-0.04133606,-0.1900024,0.980896,0.815916,-0.1210021999999999,-0.1925507,0.9737854,-31.56284,0.6285858,-27.08418,3.640991000000001,0.522629,0.5814381,0.9564788,-0.04133606,-0.1900024,0.980896,33.33829,2.659073,-26.13503,3.579086,0.4825174,0.4914478,0.2991207,0.615696,0.1801453,-0.04991945,0.6413300999999999,-0.03001689,0.5140497,-18.6377,30.849490799092514
2,-0.08213806,-0.2041626,0.9754791,0.8366931000000001,-0.1655121,-0.1822204999999999,0.9692078000000002,-31.85042,0.6938171,-27.23921,3.566193,0.5377654000000001,0.5796036999999999,0.9614177,-0.0821228,-0.2041626,0.9754791,33.05107,2.692902,-26.17834,3.614395,0.4967155,0.4927098,0.299659,0.6161379,0.1848099,-0.04951309,0.6310629,-0.02864611,0.5140497,-18.6377,30.849490799092514
2,-0.08213806,-0.2041626,0.9754791,0.8366931000000001,-0.1655121,-0.1822204999999999,0.9692078000000002,-31.85042,0.6938171,-27.23921,3.566193,0.5377654000000001,0.5796036999999999,0.9614177,-0.0821228,-0.2041626,0.9754791,33.05107,2.692902,-26.17834,3.614395,0.4967155,0.4927098,0.299659,0.6161379,0.1848099,-0.04951309,0.6310629,-0.02864611,0.5140497,-18.6377,30.849490799092514
2,-0.08213806,-0.2041626,0.9754791,0.8366931000000001,-0.1655121,-0.1822204999999999,0.9692078000000002,-31.85042,0.6938171,-27.23921,3.566193,0.5377654000000001,0.5796036999999999,0.9614177,-0.0821228,-0.2041626,0.9754791,33.05107,2.692902,-26.17834,3.614395,0.4967155,0.4927098,0.299659,0.6161379,0.1848099,-0.04951309,0.6310629,-0.02864611,0.5140497,-18.6377,30.849490799092514
2,-0.1179198999999999,-0.1878052,0.9750976999999998,0.8571851,-0.1836547999999999,-0.1829071,0.9658203000000002,-31.97743,0.7097473000000001,-27.318890000000003,3.641846,0.5443445,0.5800343000000001,0.9519513,-0.1151276,-0.1880035,0.9753876,32.93172,2.6650240000000003,-26.23016,3.685074,0.5043978,0.4923491,0.3001847,0.6161494000000001,0.1867363,-0.04891697,0.627355,-0.02889465,0.5140497,-18.6377,30.849490799092514
2,-0.1179198999999999,-0.1878052,0.9750976999999998,0.8571851,-0.1836547999999999,-0.1829071,0.9658203000000002,-31.97743,0.7097473000000001,-27.318890000000003,3.641846,0.5443445,0.5800343000000001,0.9519513,-0.1151276,-0.1880035,0.9753876,32.93172,2.6650240000000003,-26.23016,3.685074,0.5043978,0.4923491,0.3001847,0.6161494000000001,0.1867363,-0.04891697,0.627355,-0.02889465,0.5140497,-18.6377,30.849490799092514
2,-0.1179198999999999,-0.1878052,0.9750976999999998,0.8571851,-0.1836547999999999,-0.1829071,0.9658203000000002,-31.97743,0.7097473000000001,-27.318890000000003,3.641846,0.5443445,0.5800343000000001,0.9519513,-0.1151276,-0.1880035,0.9753876,32.93172,2.6650240000000003,-26.23016,3.685074,0.5043978,0.4923491,0.3001847,0.6161494000000001,0.1867363,-0.04891697,0.627355,-0.02889465,0.5140497,-18.6377,30.849490799092514
2,-0.1675568,-0.2056427,0.9641724,0.8818546999999999,-0.213913,-0.1774138999999999,0.9606018,-32.11172,0.703125,-27.387970000000003,3.739838,0.5526392,0.5804736999999999,0.9574201,-0.1461792,-0.2183533,0.9648438,32.82135,2.646759,-26.257140000000003,3.5694730000000003,0.5117959,0.4971248,0.3009019,0.6156191,0.1894991,-0.0462853,0.6236975,-0.0302815,0.5140497,3.561523,30.849490799092514
2,-0.1675568,-0.2056427,0.9641724,0.8818546999999999,-0.213913,-0.1774138999999999,0.9606018,-32.11172,0.703125,-27.387970000000003,3.739838,0.5526392,0.5804736999999999,0.9574201,-0.1461792,-0.2183533,0.9648438,32.82135,2.646759,-26.257140000000003,3.5694730000000003,0.5117959,0.4971248,0.3009019,0.6156191,0.1894991,-0.0462853,0.6236975,-0.0302815,0.5140497,3.561523,30.849490799092514
2,-0.1675568,-0.2056427,0.9641724,0.8818546999999999,-0.213913,-0.1774138999999999,0.9606018,-32.11172,0.703125,-27.387970000000003,3.739838,0.5526392,0.5804736999999999,0.9574201,-0.1461792,-0.2183533,0.9648438,32.82135,2.646759,-26.257140000000003,3.5694730000000003,0.5117959,0.4971248,0.3009019,0.6156191,0.1894991,-0.0462853,0.6236975,-0.0302815,0.5140497,3.561523,30.849490799092514
2,0.1147766,-0.1990967,0.9732208,0.8263231,0.0118103,-0.1653595,0.9861603,-30.83563,0.7288971,-26.94992,3.636337,0.4822772,0.5731348,0.9206341,0.1147766,-0.1990967,0.9732208,33.92113,2.705841,-25.9776,3.553864,0.4451526,0.4891765,0.3014580999999999,0.6154968000000001,0.19069,-0.04546394,0.6225113,-0.02998113,0.5140497,3.561523,30.849490799092514
2,0.1147766,-0.1990967,0.9732208,0.8263231,0.0118103,-0.1653595,0.9861603,-30.83563,0.7288971,-26.94992,3.636337,0.4822772,0.5731348,0.9206341,0.1147766,-0.1990967,0.9732208,33.92113,2.705841,-25.9776,3.553864,0.4451526,0.4891765,0.3014580999999999,0.6154968000000001,0.19069,-0.04546394,0.6225113,-0.02998113,0.5140497,3.561523,30.849490799092514
2,0.1147766,-0.1990967,0.9732208,0.8263231,0.0118103,-0.1653595,0.9861603,-30.83563,0.7288971,-26.94992,3.636337,0.4822772,0.5731348,0.9206341,0.1147766,-0.1990967,0.9732208,33.92113,2.705841,-25.9776,3.553864,0.4451526,0.4891765,0.3014580999999999,0.6154968000000001,0.19069,-0.04546394,0.6225113,-0.02998113,0.5140497,3.561523,30.849490799092514
2,0.2526397999999999,-0.1347961,0.9581146,0.770564,0.1735077,-0.1264496,0.9766693,-30.02963,1.005417,-27.43921,3.669998000000001,0.4359273,0.5638456000000001,0.8468848,0.2526397999999999,-0.1347961,0.9581146,34.71249,2.872345,-26.21942,3.746536,0.4024889,0.4780052999999999,0.3023619,0.6152565,0.1920012,-0.04370565,0.6214937,-0.02941762,0.5140497,3.561523,30.849490799092514
2,0.2526397999999999,-0.1347961,0.9581146,0.770564,0.1735077,-0.1264496,0.9766693,-30.02963,1.005417,-27.43921,3.669998000000001,0.4359273,0.5638456000000001,0.8468848,0.2526397999999999,-0.1347961,0.9581146,34.71249,2.872345,-26.21942,3.746536,0.4024889,0.4780052999999999,0.3023619,0.6152565,0.1920012,-0.04370565,0.6214937,-0.02941762,0.5140497,3.561523,30.849490799092514
2,0.2526397999999999,-0.1347961,0.9581146,0.770564,0.1735077,-0.1264496,0.9766693,-30.02963,1.005417,-27.43921,3.669998000000001,0.4359273,0.5638456000000001,0.8468848,0.2526397999999999,-0.1347961,0.9581146,34.71249,2.872345,-26.21942,3.746536,0.4024889,0.4780052999999999,0.3023619,0.6152565,0.1920012,-0.04370565,0.6214937,-0.02941762,0.5140497,3.561523,30.849490799092514
2,0.243576,-0.1224823,0.9621124,0.7791751,0.1560364,-0.1192473999999999,0.9805145,-30.10435,1.014923,-27.55965,3.792511,0.4406989999999999,0.5637506999999999,0.8871631999999999,0.243576,-0.1224823,0.9621124,34.72032,2.853714,-26.22202,3.807861,0.403301,0.477178,0.302954,0.6152823000000001,0.1927205,-0.04319263,0.6213526,-0.02890451,0.5140497,3.561523,30.849490799092514
2,0.243576,-0.1224823,0.9621124,0.7791751,0.1560364,-0.1192473999999999,0.9805145,-30.10435,1.014923,-27.55965,3.792511,0.4406989999999999,0.5637506999999999,0.8871631999999999,0.243576,-0.1224823,0.9621124,34.72032,2.853714,-26.22202,3.807861,0.403301,0.477178,0.302954,0.6152823000000001,0.1927205,-0.04319263,0.6213526,-0.02890451,0.5140497,3.561523,30.849490799092514
2,0.243576,-0.1224823,0.9621124,0.7791751,0.1560364,-0.1192473999999999,0.9805145,-30.10435,1.014923,-27.55965,3.792511,0.4406989999999999,0.5637506999999999,0.8871631999999999,0.243576,-0.1224823,0.9621124,34.72032,2.853714,-26.22202,3.807861,0.403301,0.477178,0.302954,0.6152823000000001,0.1927205,-0.04319263,0.6213526,-0.02890451,0.5140497,3.561523,30.849490799092514
2,0.2068176,-0.1321106,0.9694061,0.7721562,0.1552277,-0.1334534,0.9788055,-30.09894,1.049774,-27.56497,3.636459,0.4403917999999999,0.5642619000000001,0.9183063,0.2288055,-0.1314087,0.9645538,34.821459999999995,2.863007,-26.21983,3.766769,0.4017032,0.4778146,0.3039217999999999,0.6152887,0.1942899,-0.04200274,0.6196105,-0.02808002,0.5140497,3.561523,30.849490799092514
2,0.2068176,-0.1321106,0.9694061,0.7721562,0.1552277,-0.1334534,0.9788055,-30.09894,1.049774,-27.56497,3.636459,0.4403917999999999,0.5642619000000001,0.9183063,0.2288055,-0.1314087,0.9645538,34.821459999999995,2.863007,-26.21983,3.766769,0.4017032,0.4778146,0.3039217999999999,0.6152887,0.1942899,-0.04200274,0.6196105,-0.02808002,0.5140497,3.561523,30.849490799092514
2,0.2068176,-0.1321106,0.9694061,0.7721562,0.1552277,-0.1334534,0.9788055,-30.09894,1.049774,-27.56497,3.636459,0.4403917999999999,0.5642619000000001,0.9183063,0.2288055,-0.1314087,0.9645538,34.821459999999995,2.863007,-26.21983,3.766769,0.4017032,0.4778146,0.3039217999999999,0.6152887,0.1942899,-0.04200274,0.6196105,-0.02808002,0.5140497,3.561523,30.849490799092514
2,0.1953734999999999,-0.1334839,0.9715881,0.7870921999999999,0.1549072,-0.137619,0.9782867,-30.092740000000003,1.067657,-27.57883,3.642883,0.4402233,0.5642885999999999,0.930607,0.2230224999999999,-0.1304932,0.9660339,34.82309,2.8619380000000003,-26.21982,3.756958,0.4023416999999999,0.4777185,0.3042608,0.6152476,0.1949414,-0.04153217,0.6189279999999999,-0.02808373,0.5140497,-4.137695,30.849490799092514
2,0.1953734999999999,-0.1334839,0.9715881,0.7870921999999999,0.1549072,-0.137619,0.9782867,-30.092740000000003,1.067657,-27.57883,3.642883,0.4402233,0.5642885999999999,0.930607,0.2230224999999999,-0.1304932,0.9660339,34.82309,2.8619380000000003,-26.21982,3.756958,0.4023416999999999,0.4777185,0.3042608,0.6152476,0.1949414,-0.04153217,0.6189279999999999,-0.02808373,0.5140497,-4.137695,30.849490799092514
2,0.1953734999999999,-0.1334839,0.9715881,0.7870921999999999,0.1549072,-0.137619,0.9782867,-30.092740000000003,1.067657,-27.57883,3.642883,0.4402233,0.5642885999999999,0.930607,0.2230224999999999,-0.1304932,0.9660339,34.82309,2.8619380000000003,-26.21982,3.756958,0.4023416999999999,0.4777185,0.3042608,0.6152476,0.1949414,-0.04153217,0.6189279999999999,-0.02808373,0.5140497,-4.137695,30.849490799092514
2,0.1916198999999999,-0.1317749,0.97258,0.7683863000000001,0.1529236,-0.1381531,0.9785309,-30.09782,1.0684049999999998,-27.58868,3.626724,0.4406082,0.5643998,0.947425,0.215332,-0.1277466,0.9681396,34.82143,2.8654330000000003,-26.22098,3.730896,0.4033262,0.4772547,0.3051893,0.6152673000000001,0.1962297,-0.04198314,0.6168437,-0.02847694,0.5140497,-4.137695,30.849490799092514
2,0.1916198999999999,-0.1317749,0.97258,0.7683863000000001,0.1529236,-0.1381531,0.9785309,-30.09782,1.0684049999999998,-27.58868,3.626724,0.4406082,0.5643998,0.947425,0.215332,-0.1277466,0.9681396,34.82143,2.8654330000000003,-26.22098,3.730896,0.4033262,0.4772547,0.3051893,0.6152673000000001,0.1962297,-0.04198314,0.6168437,-0.02847694,0.5140497,-4.137695,30.849490799092514
2,0.1916198999999999,-0.1317749,0.97258,0.7683863000000001,0.1529236,-0.1381531,0.9785309,-30.09782,1.0684049999999998,-27.58868,3.626724,0.4406082,0.5643998,0.947425,0.215332,-0.1277466,0.9681396,34.82143,2.8654330000000003,-26.22098,3.730896,0.4033262,0.4772547,0.3051893,0.6152673000000001,0.1962297,-0.04198314,0.6168437,-0.02847694,0.5140497,-4.137695,30.849490799092514
2,0.1900177,-0.132843,0.9727478,0.7657459,0.1496735,-0.1413878999999999,0.9785614,-30.09671,1.0840610000000002,-27.620990000000003,3.618652,0.4409407999999999,0.5645465999999999,0.9430133,0.2132111,-0.1277771,0.9685974,34.82184,2.863922,-26.21983,3.703979,0.4035765999999999,0.4772865,0.3055468,0.6151725,0.196695,-0.04121686,0.6158835,-0.02915654,0.5140497,-4.137695,30.849490799092514
2,0.1900177,-0.132843,0.9727478,0.7657459,0.1496735,-0.1413878999999999,0.9785614,-30.09671,1.0840610000000002,-27.620990000000003,3.618652,0.4409407999999999,0.5645465999999999,0.9430133,0.2132111,-0.1277771,0.9685974,34.82184,2.863922,-26.21983,3.703979,0.4035765999999999,0.4772865,0.3055468,0.6151725,0.196695,-0.04121686,0.6158835,-0.02915654,0.5140497,-4.137695,30.849490799092514
2,0.1900177,-0.132843,0.9727478,0.7657459,0.1496735,-0.1413878999999999,0.9785614,-30.09671,1.0840610000000002,-27.620990000000003,3.618652,0.4409407999999999,0.5645465999999999,0.9430133,0.2132111,-0.1277771,0.9685974,34.82184,2.863922,-26.21983,3.703979,0.4035765999999999,0.4772865,0.3055468,0.6151725,0.196695,-0.04121686,0.6158835,-0.02915654,0.5140497,-4.137695,30.849490799092514
2,0.1880646,-0.1323395,0.9731903,0.7752031,0.1469116,-0.1407928,0.9790649,-30.09941,1.0840610000000002,-27.6371,3.623352,0.4413645,0.5646135,0.9403716,0.2108612,-0.1275176999999999,0.9691467,34.8214,2.862503,-26.21927,3.700851,0.4038722,0.4772865,0.3061219,0.6147283,0.1974347,-0.03986274,0.6149288,-0.02943021,0.5140497,-4.137695,30.849490799092514
2,0.1880646,-0.1323395,0.9731903,0.7752031,0.1469116,-0.1407928,0.9790649,-30.09941,1.0840610000000002,-27.6371,3.623352,0.4413645,0.5646135,0.9403716,0.2108612,-0.1275176999999999,0.9691467,34.8214,2.862503,-26.21927,3.700851,0.4038722,0.4772865,0.3061219,0.6147283,0.1974347,-0.03986274,0.6149288,-0.02943021,0.5140497,-4.137695,30.849490799092514
2,0.1880646,-0.1323395,0.9731903,0.7752031,0.1469116,-0.1407928,0.9790649,-30.09941,1.0840610000000002,-27.6371,3.623352,0.4413645,0.5646135,0.9403716,0.2108612,-0.1275176999999999,0.9691467,34.8214,2.862503,-26.21927,3.700851,0.4038722,0.4772865,0.3061219,0.6147283,0.1974347,-0.03986274,0.6149288,-0.02943021,0.5140497,-4.137695,30.849490799092514
2,0.1793213,-0.1335449,0.9746704,0.7632081999999999,0.1312866,-0.142746,0.9810028,-30.12158,1.097443,-27.6678,3.611923,0.443964,0.5646135,0.9488122,0.2063292999999999,-0.1281891,0.970047,34.79677,2.852737,-26.19951,3.700974,0.4052421,0.4775307,0.3062116,0.614675,0.197696,-0.03925737,0.614172,-0.02892262,0.5140497,-4.137695,30.849490799092514
2,0.1793213,-0.1335449,0.9746704,0.7632081999999999,0.1312866,-0.142746,0.9810028,-30.12158,1.097443,-27.6678,3.611923,0.443964,0.5646135,0.9488122,0.2063292999999999,-0.1281891,0.970047,34.79677,2.852737,-26.19951,3.700974,0.4052421,0.4775307,0.3062116,0.614675,0.197696,-0.03925737,0.614172,-0.02892262,0.5140497,-4.137695,30.849490799092514
2,0.1793213,-0.1335449,0.9746704,0.7632081999999999,0.1312866,-0.142746,0.9810028,-30.12158,1.097443,-27.6678,3.611923,0.443964,0.5646135,0.9488122,0.2063292999999999,-0.1281891,0.970047,34.79677,2.852737,-26.19951,3.700974,0.4052421,0.4775307,0.3062116,0.614675,0.197696,-0.03925737,0.614172,-0.02892262,0.5140497,-4.137695,30.849490799092514
2,0.1760712,-0.1349335,0.9750671,0.7551581999999999,0.1326752,-0.1421051,0.9809113000000002,-30.149140000000003,1.0999450000000002,-27.676240000000004,3.612152,0.4447378999999999,0.5645418000000001,0.9590335,0.2062987999999999,-0.1297607,0.9698334,34.77016,2.851959,-26.14391,3.700974,0.4061785,0.4772865,0.3065282,0.6146554,0.1981319,-0.03820771,0.6133041,-0.02748304,0.5242997,17.86584,30.849490799092514
2,0.1760712,-0.1349335,0.9750671,0.7551581999999999,0.1326752,-0.1421051,0.9809113000000002,-30.149140000000003,1.0999450000000002,-27.676240000000004,3.612152,0.4447378999999999,0.5645418000000001,0.9590335,0.2062987999999999,-0.1297607,0.9698334,34.77016,2.851959,-26.14391,3.700974,0.4061785,0.4772865,0.3065282,0.6146554,0.1981319,-0.03820771,0.6133041,-0.02748304,0.5242997,17.86584,30.849490799092514
2,0.1760712,-0.1349335,0.9750671,0.7551581999999999,0.1326752,-0.1421051,0.9809113000000002,-30.149140000000003,1.0999450000000002,-27.676240000000004,3.612152,0.4447378999999999,0.5645418000000001,0.9590335,0.2062987999999999,-0.1297607,0.9698334,34.77016,2.851959,-26.14391,3.700974,0.4061785,0.4772865,0.3065282,0.6146554,0.1981319,-0.03820771,0.6133041,-0.02748304,0.5242997,17.86584,30.849490799092514
2,0.1685637999999999,-0.1396942,0.9757385,0.7521532,0.1310883,-0.148941,0.9801025,-30.15987,1.132874,-27.70497,3.645309,0.4453258,0.5645418000000001,0.9719404,0.2033691,-0.1308594,0.9703064,34.76625,2.851959,-26.11501,3.715927,0.4066725,0.4771867999999999,0.3065219999999999,0.614646,0.1983122999999999,-0.03772229,0.6129264,-0.0273322999999999,0.5242997,17.86584,30.849490799092514
2,0.1685637999999999,-0.1396942,0.9757385,0.7521532,0.1310883,-0.148941,0.9801025,-30.15987,1.132874,-27.70497,3.645309,0.4453258,0.5645418000000001,0.9719404,0.2033691,-0.1308594,0.9703064,34.76625,2.851959,-26.11501,3.715927,0.4066725,0.4771867999999999,0.3065219999999999,0.614646,0.1983122999999999,-0.03772229,0.6129264,-0.0273322999999999,0.5242997,17.86584,30.849490799092514
2,0.1685637999999999,-0.1396942,0.9757385,0.7521532,0.1310883,-0.148941,0.9801025,-30.15987,1.132874,-27.70497,3.645309,0.4453258,0.5645418000000001,0.9719404,0.2033691,-0.1308594,0.9703064,34.76625,2.851959,-26.11501,3.715927,0.4066725,0.4771867999999999,0.3065219999999999,0.614646,0.1983122999999999,-0.03772229,0.6129264,-0.0273322999999999,0.5242997,17.86584,30.849490799092514
2,0.1688385,-0.1378174,0.9759521,0.764838,0.1256409,-0.1450195,0.9814148,-30.175290000000004,1.134872,-27.731720000000003,3.653656,0.4465130999999999,0.5642235999999999,0.9557849,0.1967316,-0.1329956,0.9713898,34.74606,2.8560790000000003,-26.06696,3.728592,0.4081637999999999,0.476909,0.3064407,0.6145248999999999,0.1983417,-0.03773128,0.6118246,-0.02734225,0.5242997,17.86584,30.849490799092514
2,0.1688385,-0.1378174,0.9759521,0.764838,0.1256409,-0.1450195,0.9814148,-30.175290000000004,1.134872,-27.731720000000003,3.653656,0.4465130999999999,0.5642235999999999,0.9557849,0.1967316,-0.1329956,0.9713898,34.74606,2.8560790000000003,-26.06696,3.728592,0.4081637999999999,0.476909,0.3064407,0.6145248999999999,0.1983417,-0.03773128,0.6118246,-0.02734225,0.5242997,17.86584,30.849490799092514
2,0.1688385,-0.1378174,0.9759521,0.764838,0.1256409,-0.1450195,0.9814148,-30.175290000000004,1.134872,-27.731720000000003,3.653656,0.4465130999999999,0.5642235999999999,0.9557849,0.1967316,-0.1329956,0.9713898,34.74606,2.8560790000000003,-26.06696,3.728592,0.4081637999999999,0.476909,0.3064407,0.6145248999999999,0.1983417,-0.03773128,0.6118246,-0.02734225,0.5242997,17.86584,30.849490799092514
2,0.1646422999999999,-0.1358947999999999,0.976944,0.7535198000000001,0.1230011,-0.1411437999999999,0.9823151,-30.19276,1.137665,-27.75095,3.703033,0.4474891,0.5638466999999999,0.9587364,0.1929779,-0.1321716,0.9722443,34.72935,2.857468,-26.05193,3.777084,0.4091518,0.4766584,0.3063435,0.6145468000000001,0.1982715,-0.03783205,0.6112758,-0.02754722,0.5242997,17.86584,30.849490799092514
2,0.1646422999999999,-0.1358947999999999,0.976944,0.7535198000000001,0.1230011,-0.1411437999999999,0.9823151,-30.19276,1.137665,-27.75095,3.703033,0.4474891,0.5638466999999999,0.9587364,0.1929779,-0.1321716,0.9722443,34.72935,2.857468,-26.05193,3.777084,0.4091518,0.4766584,0.3063435,0.6145468000000001,0.1982715,-0.03783205,0.6112758,-0.02754722,0.5242997,17.86584,30.849490799092514
2,0.1646422999999999,-0.1358947999999999,0.976944,0.7535198000000001,0.1230011,-0.1411437999999999,0.9823151,-30.19276,1.137665,-27.75095,3.703033,0.4474891,0.5638466999999999,0.9587364,0.1929779,-0.1321716,0.9722443,34.72935,2.857468,-26.05193,3.777084,0.4091518,0.4766584,0.3063435,0.6145468000000001,0.1982715,-0.03783205,0.6112758,-0.02754722,0.5242997,17.86584,30.849490799092514
2,0.1609344,-0.1350555,0.9776764,0.7481222,0.1161194,-0.1399078,0.9833221,-30.203570000000003,1.140427,-27.7686,3.715454,0.4486893,0.5637563,0.9619552,0.1908875,-0.1316376,0.9727325,34.72205,2.857468,-26.05193,3.779633,0.4096394,0.4766037,0.3062233,0.614592,0.1980091,-0.03817767,0.6109460999999999,-0.02841342,0.5242997,17.86584,30.849490799092514
2,0.1609344,-0.1350555,0.9776764,0.7481222,0.1161194,-0.1399078,0.9833221,-30.203570000000003,1.140427,-27.7686,3.715454,0.4486893,0.5637563,0.9619552,0.1908875,-0.1316376,0.9727325,34.72205,2.857468,-26.05193,3.779633,0.4096394,0.4766037,0.3062233,0.614592,0.1980091,-0.03817767,0.6109460999999999,-0.02841342,0.5242997,17.86584,30.849490799092514
2,0.1609344,-0.1350555,0.9776764,0.7481222,0.1161194,-0.1399078,0.9833221,-30.203570000000003,1.140427,-27.7686,3.715454,0.4486893,0.5637563,0.9619552,0.1908875,-0.1316376,0.9727325,34.72205,2.857468,-26.05193,3.779633,0.4096394,0.4766037,0.3062233,0.614592,0.1980091,-0.03817767,0.6109460999999999,-0.02841342,0.5242997,17.86584,30.849490799092514
2,0.1609344,-0.1350555,0.9776764,0.7481222,0.1161194,-0.1399078,0.9833221,-30.203570000000003,1.140427,-27.7686,3.715454,0.4486893,0.5637563,0.9619552,0.1908875,-0.1316376,0.9727325,34.72205,2.857468,-26.05193,3.779633,0.4096394,0.4766037,0.3060653,0.61475,0.1977977,-0.03922989,0.610301,-0.02864012,0.5242997,74.76929,32.31
2,0.1609344,-0.1350555,0.9776764,0.7481222,0.1161194,-0.1399078,0.9833221,-30.203570000000003,1.140427,-27.7686,3.715454,0.4486893,0.5637563,0.9619552,0.1908875,-0.1316376,0.9727325,34.72205,2.857468,-26.05193,3.779633,0.4096394,0.4766037,0.3060653,0.61475,0.1977977,-0.03922989,0.610301,-0.02864012,0.5242997,74.76929,32.31
2,0.1609344,-0.1350555,0.9776764,0.7481222,0.1161194,-0.1399078,0.9833221,-30.203570000000003,1.140427,-27.7686,3.715454,0.4486893,0.5637563,0.9619552,0.1908875,-0.1316376,0.9727325,34.72205,2.857468,-26.05193,3.779633,0.4096394,0.4766037,0.3060653,0.61475,0.1977977,-0.03922989,0.610301,-0.02864012,0.5242997,74.76929,32.31
2,0.2296295,-0.06385803,0.9711761,0.7341983,0.226593,-0.06439209,0.9718475,-29.70358,1.5042879999999998,-27.79727,3.884888,0.4189411,0.5430526,0.8726431999999998,0.2717438,-0.05645752,0.9607086,35.12538,3.444,-26.5939,3.844269,0.3863273,0.4528592999999999,0.3057212,0.6146265999999999,0.1974005,-0.03968834,0.6096143,-0.02913941,0.5242997,74.76929,32.31
2,0.2296295,-0.06385803,0.9711761,0.7341983,0.226593,-0.06439209,0.9718475,-29.70358,1.5042879999999998,-27.79727,3.884888,0.4189411,0.5430526,0.8726431999999998,0.2717438,-0.05645752,0.9607086,35.12538,3.444,-26.5939,3.844269,0.3863273,0.4528592999999999,0.3057212,0.6146265999999999,0.1974005,-0.03968834,0.6096143,-0.02913941,0.5242997,74.76929,32.31
2,0.2296295,-0.06385803,0.9711761,0.7341983,0.226593,-0.06439209,0.9718475,-29.70358,1.5042879999999998,-27.79727,3.884888,0.4189411,0.5430526,0.8726431999999998,0.2717438,-0.05645752,0.9607086,35.12538,3.444,-26.5939,3.844269,0.3863273,0.4528592999999999,0.3057212,0.6146265999999999,0.1974005,-0.03968834,0.6096143,-0.02913941,0.5242997,74.76929,32.31
2,0.2333068999999999,-0.05065918,0.9710693,0.7211776,0.2331085,-0.05059814,0.9711304,-29.72183,1.493866,-27.80801,3.90712,0.4188299,0.5419124,0.8885440999999998,0.2714995999999999,-0.06201172,0.960434,35.13715,3.408783,-26.51888,3.810333,0.3860379,0.454046,0.3055665999999999,0.6148256999999999,0.1971973,-0.04086038,0.6091544,-0.02990374,0.5242997,74.76929,32.31
2,0.2333068999999999,-0.05065918,0.9710693,0.7211776,0.2331085,-0.05059814,0.9711304,-29.72183,1.493866,-27.80801,3.90712,0.4188299,0.5419124,0.8885440999999998,0.2714995999999999,-0.06201172,0.960434,35.13715,3.408783,-26.51888,3.810333,0.3860379,0.454046,0.3055665999999999,0.6148256999999999,0.1971973,-0.04086038,0.6091544,-0.02990374,0.5242997,74.76929,32.31
2,0.2333068999999999,-0.05065918,0.9710693,0.7211776,0.2331085,-0.05059814,0.9711304,-29.72183,1.493866,-27.80801,3.90712,0.4188299,0.5419124,0.8885440999999998,0.2714995999999999,-0.06201172,0.960434,35.13715,3.408783,-26.51888,3.810333,0.3860379,0.454046,0.3055665999999999,0.6148256999999999,0.1971973,-0.04086038,0.6091544,-0.02990374,0.5242997,74.76929,32.31
2,0.2333068999999999,-0.05065918,0.9710693,0.7211776,0.2331085,-0.05059814,0.9711304,-29.72183,1.493866,-27.80801,3.90712,0.4188299,0.5419124,0.8885440999999998,0.2714995999999999,-0.06201172,0.960434,35.13715,3.408783,-26.51888,3.810333,0.3860379,0.454046,0.3053398,0.6148284,0.1968282,-0.04177454,0.6089060000000001,-0.03031217,0.5242997,74.76929,32.31
2,0.2333068999999999,-0.05065918,0.9710693,0.7211776,0.2331085,-0.05059814,0.9711304,-29.72183,1.493866,-27.80801,3.90712,0.4188299,0.5419124,0.8885440999999998,0.2714995999999999,-0.06201172,0.960434,35.13715,3.408783,-26.51888,3.810333,0.3860379,0.454046,0.3053398,0.6148284,0.1968282,-0.04177454,0.6089060000000001,-0.03031217,0.5242997,74.76929,32.31
2,0.2333068999999999,-0.05065918,0.9710693,0.7211776,0.2331085,-0.05059814,0.9711304,-29.72183,1.493866,-27.80801,3.90712,0.4188299,0.5419124,0.8885440999999998,0.2714995999999999,-0.06201172,0.960434,35.13715,3.408783,-26.51888,3.810333,0.3860379,0.454046,0.3053398,0.6148284,0.1968282,-0.04177454,0.6089060000000001,-0.03031217,0.5242997,74.76929,32.31
2,0.2211609,-0.06445313,0.9730988000000002,0.7434291000000001,0.2152099999999999,-0.065979,0.9743347,-29.79648,1.458252,-27.78381,4.009567,0.4236344,0.5447271,0.8857529000000001,0.250824,-0.05674744,0.9663544,35.12106,3.4525910000000004,-26.84703,3.940079,0.3886678,0.4546582999999999,0.3052435,0.6150127,0.196494,-0.04269199,0.6090578000000001,-0.03124595,0.5242997,74.76929,32.31
2,0.2211609,-0.06445313,0.9730988000000002,0.7434291000000001,0.2152099999999999,-0.065979,0.9743347,-29.79648,1.458252,-27.78381,4.009567,0.4236344,0.5447271,0.8857529000000001,0.250824,-0.05674744,0.9663544,35.12106,3.4525910000000004,-26.84703,3.940079,0.3886678,0.4546582999999999,0.3052435,0.6150127,0.196494,-0.04269199,0.6090578000000001,-0.03124595,0.5242997,74.76929,32.31
2,0.2211609,-0.06445313,0.9730988000000002,0.7434291000000001,0.2152099999999999,-0.065979,0.9743347,-29.79648,1.458252,-27.78381,4.009567,0.4236344,0.5447271,0.8857529000000001,0.250824,-0.05674744,0.9663544,35.12106,3.4525910000000004,-26.84703,3.940079,0.3886678,0.4546582999999999,0.3052435,0.6150127,0.196494,-0.04269199,0.6090578000000001,-0.03124595,0.5242997,74.76929,32.31
2,0.2211609,-0.06445313,0.9730988000000002,0.7434291000000001,0.2152099999999999,-0.065979,0.9743347,-29.79648,1.458252,-27.78381,4.009567,0.4236344,0.5447271,0.8857529000000001,0.250824,-0.05674744,0.9663544,35.12106,3.4525910000000004,-26.84703,3.940079,0.3886678,0.4546582999999999,0.3051198,0.6149514,0.1964161,-0.04281441,0.6092585,-0.031313,0.5242997,74.76929,32.31
2,0.2211609,-0.06445313,0.9730988000000002,0.7434291000000001,0.2152099999999999,-0.065979,0.9743347,-29.79648,1.458252,-27.78381,4.009567,0.4236344,0.5447271,0.8857529000000001,0.250824,-0.05674744,0.9663544,35.12106,3.4525910000000004,-26.84703,3.940079,0.3886678,0.4546582999999999,0.3051198,0.6149514,0.1964161,-0.04281441,0.6092585,-0.031313,0.5242997,74.76929,32.31
2,0.2211609,-0.06445313,0.9730988000000002,0.7434291000000001,0.2152099999999999,-0.065979,0.9743347,-29.79648,1.458252,-27.78381,4.009567,0.4236344,0.5447271,0.8857529000000001,0.250824,-0.05674744,0.9663544,35.12106,3.4525910000000004,-26.84703,3.940079,0.3886678,0.4546582999999999,0.3051198,0.6149514,0.1964161,-0.04281441,0.6092585,-0.031313,0.5242997,74.76929,32.31
2,0.2211609,-0.06445313,0.9730988000000002,0.7434291000000001,0.2152099999999999,-0.065979,0.9743347,-29.79648,1.458252,-27.78381,4.009567,0.4236344,0.5447271,0.8857529000000001,0.250824,-0.05674744,0.9663544,35.12106,3.4525910000000004,-26.84703,3.940079,0.3886678,0.4546582999999999,0.304954,0.6149597,0.1963912,-0.04247696,0.6092556,-0.03114157,0.5242997,186.5111,32.31
2,0.2211609,-0.06445313,0.9730988000000002,0.7434291000000001,0.2152099999999999,-0.065979,0.9743347,-29.79648,1.458252,-27.78381,4.009567,0.4236344,0.5447271,0.8857529000000001,0.250824,-0.05674744,0.9663544,35.12106,3.4525910000000004,-26.84703,3.940079,0.3886678,0.4546582999999999,0.304954,0.6149597,0.1963912,-0.04247696,0.6092556,-0.03114157,0.5242997,186.5111,32.31
2,0.2211609,-0.06445313,0.9730988000000002,0.7434291000000001,0.2152099999999999,-0.065979,0.9743347,-29.79648,1.458252,-27.78381,4.009567,0.4236344,0.5447271,0.8857529000000001,0.250824,-0.05674744,0.9663544,35.12106,3.4525910000000004,-26.84703,3.940079,0.3886678,0.4546582999999999,0.304954,0.6149597,0.1963912,-0.04247696,0.6092556,-0.03114157,0.5242997,186.5111,32.31
2,0.2103882,-0.07295227,0.974884,0.7394786999999999,0.2095183999999999,-0.07363892,0.9750214,-29.81026,1.444382,-27.78673,3.936935,0.4246608,0.54606,0.9102932,0.245575,-0.04464722,0.968338,35.1205,3.513138,-27.22826,4.068924,0.3888777,0.4543863,0.3050587999999999,0.6149929,0.1963443,-0.04279596,0.6094936,-0.03084939,0.5242997,186.5111,32.31
2,0.2103882,-0.07295227,0.974884,0.7394786999999999,0.2095183999999999,-0.07363892,0.9750214,-29.81026,1.444382,-27.78673,3.936935,0.4246608,0.54606,0.9102932,0.245575,-0.04464722,0.968338,35.1205,3.513138,-27.22826,4.068924,0.3888777,0.4543863,0.3050587999999999,0.6149929,0.1963443,-0.04279596,0.6094936,-0.03084939,0.5242997,186.5111,32.31
2,0.2103882,-0.07295227,0.974884,0.7394786999999999,0.2095183999999999,-0.07363892,0.9750214,-29.81026,1.444382,-27.78673,3.936935,0.4246608,0.54606,0.9102932,0.245575,-0.04464722,0.968338,35.1205,3.513138,-27.22826,4.068924,0.3888777,0.4543863,0.3050587999999999,0.6149929,0.1963443,-0.04279596,0.6094936,-0.03084939,0.5242997,186.5111,32.31
2,0.206604,-0.06900024,0.9759827,0.7495101,0.2008667,-0.07113647,0.9770203000000002,-29.82072,1.438538,-27.78824,3.964966,0.4260892,0.5459496,0.9052148,0.2420654,-0.05569458,0.9686432,35.10423,3.537659,-27.32175,4.022522,0.3897589,0.4555946,0.3050928,0.6150019,0.196629,-0.04278099,0.6091262,-0.03079767,0.5242997,186.5111,32.31
2,0.206604,-0.06900024,0.9759827,0.7495101,0.2008667,-0.07113647,0.9770203000000002,-29.82072,1.438538,-27.78824,3.964966,0.4260892,0.5459496,0.9052148,0.2420654,-0.05569458,0.9686432,35.10423,3.537659,-27.32175,4.022522,0.3897589,0.4555946,0.3050928,0.6150019,0.196629,-0.04278099,0.6091262,-0.03079767,0.5242997,186.5111,32.31
2,0.206604,-0.06900024,0.9759827,0.7495101,0.2008667,-0.07113647,0.9770203000000002,-29.82072,1.438538,-27.78824,3.964966,0.4260892,0.5459496,0.9052148,0.2420654,-0.05569458,0.9686432,35.10423,3.537659,-27.32175,4.022522,0.3897589,0.4555946,0.3050928,0.6150019,0.196629,-0.04278099,0.6091262,-0.03079767,0.5242997,186.5111,32.31
2,0.2044983,-0.0748291,0.9759979,0.738376,0.1972961,-0.07675171,0.9773254,-29.84148,1.435806,-27.78947,3.992691,0.4272494,0.5467298,0.920065,0.2373657,-0.06594849,0.969162,35.093309999999995,3.568146,-27.49075,4.023697,0.3905020999999999,0.4571604999999999,0.3050115,0.6148296999999999,0.1968787,-0.04201046,0.6087610999999999,-0.03104308,0.5242997,186.5111,32.31
2,0.2044983,-0.0748291,0.9759979,0.738376,0.1972961,-0.07675171,0.9773254,-29.84148,1.435806,-27.78947,3.992691,0.4272494,0.5467298,0.920065,0.2373657,-0.06594849,0.969162,35.093309999999995,3.568146,-27.49075,4.023697,0.3905020999999999,0.4571604999999999,0.3050115,0.6148296999999999,0.1968787,-0.04201046,0.6087610999999999,-0.03104308,0.5242997,186.5111,32.31
2,0.2044983,-0.0748291,0.9759979,0.738376,0.1972961,-0.07675171,0.9773254,-29.84148,1.435806,-27.78947,3.992691,0.4272494,0.5467298,0.920065,0.2373657,-0.06594849,0.969162,35.093309999999995,3.568146,-27.49075,4.023697,0.3905020999999999,0.4571604999999999,0.3050115,0.6148296999999999,0.1968787,-0.04201046,0.6087610999999999,-0.03104308,0.5242997,186.5111,32.31
2,0.2127075,-0.07266235,0.9743958,0.7445969,0.1906281,-0.08113098,0.9782867,-29.84976,1.427185,-27.79526,3.988754,0.4283071,0.5475616,0.9139245,0.2370605,-0.06318665,0.9694214,35.08554,3.552887,-27.49442,4.024475,0.3907948,0.4573688,0.3051271,0.6147271,0.1970723,-0.04165353,0.6082470999999999,-0.03125262,0.5242997,332.8831,32.31
2,0.2127075,-0.07266235,0.9743958,0.7445969,0.1906281,-0.08113098,0.9782867,-29.84976,1.427185,-27.79526,3.988754,0.4283071,0.5475616,0.9139245,0.2370605,-0.06318665,0.9694214,35.08554,3.552887,-27.49442,4.024475,0.3907948,0.4573688,0.3051271,0.6147271,0.1970723,-0.04165353,0.6082470999999999,-0.03125262,0.5242997,332.8831,32.31
2,0.2127075,-0.07266235,0.9743958,0.7445969,0.1906281,-0.08113098,0.9782867,-29.84976,1.427185,-27.79526,3.988754,0.4283071,0.5475616,0.9139245,0.2370605,-0.06318665,0.9694214,35.08554,3.552887,-27.49442,4.024475,0.3907948,0.4573688,0.3051271,0.6147271,0.1970723,-0.04165353,0.6082470999999999,-0.03125262,0.5242997,332.8831,32.31
2,0.2127075,-0.07266235,0.9743958,0.7445969,0.1906281,-0.08113098,0.9782867,-29.84976,1.427185,-27.79526,3.988754,0.4283071,0.5475616,0.9139245,0.2370605,-0.06318665,0.9694214,35.08554,3.552887,-27.49442,4.024475,0.3907948,0.4573688,0.3052304999999999,0.6146126000000001,0.1974211,-0.04077158,0.6074709,-0.03153422,0.5242997,332.8831,32.31
3,0.2127075,-0.07266235,0.9743958,0.7445969,0.1906281,-0.08113098,0.9782867,-29.84976,1.427185,-27.79526,3.988754,0.4283071,0.5475616,0.9139245,0.2370605,-0.06318665,0.9694214,35.08554,3.552887,-27.49442,4.024475,0.3907948,0.4573688,0.3052304999999999,0.6146126000000001,0.1974211,-0.04077158,0.6074709,-0.03153422,0.5242997,332.8831,32.31
3,0.2127075,-0.07266235,0.9743958,0.7445969,0.1906281,-0.08113098,0.9782867,-29.84976,1.427185,-27.79526,3.988754,0.4283071,0.5475616,0.9139245,0.2370605,-0.06318665,0.9694214,35.08554,3.552887,-27.49442,4.024475,0.3907948,0.4573688,0.3052304999999999,0.6146126000000001,0.1974211,-0.04077158,0.6074709,-0.03153422,0.5242997,332.8831,32.31
3,0.2127075,-0.07266235,0.9743958,0.7445969,0.1906281,-0.08113098,0.9782867,-29.84976,1.427185,-27.79526,3.988754,0.4283071,0.5475616,0.9139245,0.2370605,-0.06318665,0.9694214,35.08554,3.552887,-27.49442,4.024475,0.3907948,0.4573688,0.3054022999999999,0.6141691999999999,0.197819,-0.03898078,0.6068413,-0.03215064,0.5242997,332.8831,32.31
3,0.2127075,-0.07266235,0.9743958,0.7445969,0.1906281,-0.08113098,0.9782867,-29.84976,1.427185,-27.79526,3.988754,0.4283071,0.5475616,0.9139245,0.2370605,-0.06318665,0.9694214,35.08554,3.552887,-27.49442,4.024475,0.3907948,0.4573688,0.3054022999999999,0.6141691999999999,0.197819,-0.03898078,0.6068413,-0.03215064,0.5242997,332.8831,32.31
3,0.2127075,-0.07266235,0.9743958,0.7445969,0.1906281,-0.08113098,0.9782867,-29.84976,1.427185,-27.79526,3.988754,0.4283071,0.5475616,0.9139245,0.2370605,-0.06318665,0.9694214,35.08554,3.552887,-27.49442,4.024475,0.3907948,0.4573688,0.3054022999999999,0.6141691999999999,0.197819,-0.03898078,0.6068413,-0.03215064,0.5242997,332.8831,32.31
3,0.1587372,-0.08087158,0.9839935,0.7186852,0.1563263,-0.08171082,0.984314,-29.9615,1.396927,-27.86652,4.14267,0.4363502999999999,0.5492733,0.9178444,0.2204132,-0.05915833,0.9736023,34.94757,3.37117,-27.09695,4.176330999999999,0.3976995,0.4598295,0.3057045,0.6137216999999999,0.1982687,-0.03704467,0.6062807,-0.03300236,0.5242997,332.8831,32.31
3,0.1587372,-0.08087158,0.9839935,0.7186852,0.1563263,-0.08171082,0.984314,-29.9615,1.396927,-27.86652,4.14267,0.4363502999999999,0.5492733,0.9178444,0.2204132,-0.05915833,0.9736023,34.94757,3.37117,-27.09695,4.176330999999999,0.3976995,0.4598295,0.3057045,0.6137216999999999,0.1982687,-0.03704467,0.6062807,-0.03300236,0.5242997,332.8831,32.31
3,0.1587372,-0.08087158,0.9839935,0.7186852,0.1563263,-0.08171082,0.984314,-29.9615,1.396927,-27.86652,4.14267,0.4363502999999999,0.5492733,0.9178444,0.2204132,-0.05915833,0.9736023,34.94757,3.37117,-27.09695,4.176330999999999,0.3976995,0.4598295,0.3057045,0.6137216999999999,0.1982687,-0.03704467,0.6062807,-0.03300236,0.5242997,332.8831,32.31
3,0.09962463,-0.3632965,0.9263153,1.0,0.0995636,-0.3633118,0.9263153,-30.15176,0.1900329999999999,-27.92641,4.278580000000001,0.4488437,0.6259145,1.0,0.1539000999999999,-0.3523407,0.923111,34.260740000000006,2.099182,-27.10452,4.163681,0.427631,0.5379224,0.3060845999999999,0.6132958000000001,0.1988907,-0.03476508,0.6057982,-0.03429709,0.5242997,332.8831,32.31
3,0.09962463,-0.3632965,0.9263153,1.0,0.0995636,-0.3633118,0.9263153,-30.15176,0.1900329999999999,-27.92641,4.278580000000001,0.4488437,0.6259145,1.0,0.1539000999999999,-0.3523407,0.923111,34.260740000000006,2.099182,-27.10452,4.163681,0.427631,0.5379224,0.3060845999999999,0.6132958000000001,0.1988907,-0.03476508,0.6057982,-0.03429709,0.5242997,332.8831,32.31
3,0.09962463,-0.3632965,0.9263153,1.0,0.0995636,-0.3633118,0.9263153,-30.15176,0.1900329999999999,-27.92641,4.278580000000001,0.4488437,0.6259145,1.0,0.1539000999999999,-0.3523407,0.923111,34.260740000000006,2.099182,-27.10452,4.163681,0.427631,0.5379224,0.3060845999999999,0.6132958000000001,0.1988907,-0.03476508,0.6057982,-0.03429709,0.5242997,332.8831,32.31
3,0.08644104,-0.3888092,0.9172363,1.0,0.08630371,-0.3888244999999999,0.9172516,-30.23183,0.1687927,-27.90799,4.433426,0.4532942,0.6297398,1.0,0.1413878999999999,-0.3817749,0.9133606,34.313320000000004,2.089661,-27.13515,4.1735690000000005,0.4272375,0.5422236999999999,0.3065199999999999,0.6126934,0.1995016,-0.03313889,0.6048775,-0.03575473,0.5242997,332.8831,32.31
3,0.08644104,-0.3888092,0.9172363,1.0,0.08630371,-0.3888244999999999,0.9172516,-30.23183,0.1687927,-27.90799,4.433426,0.4532942,0.6297398,1.0,0.1413878999999999,-0.3817749,0.9133606,34.313320000000004,2.089661,-27.13515,4.1735690000000005,0.4272375,0.5422236999999999,0.3065199999999999,0.6126934,0.1995016,-0.03313889,0.6048775,-0.03575473,0.5242997,332.8831,32.31
3,0.08644104,-0.3888092,0.9172363,1.0,0.08630371,-0.3888244999999999,0.9172516,-30.23183,0.1687927,-27.90799,4.433426,0.4532942,0.6297398,1.0,0.1413878999999999,-0.3817749,0.9133606,34.313320000000004,2.089661,-27.13515,4.1735690000000005,0.4272375,0.5422236999999999,0.3065199999999999,0.6126934,0.1995016,-0.03313889,0.6048775,-0.03575473,0.5242997,332.8831,32.31
3,0.1116333,-0.3744659,0.9204865,1.0,0.08935547,-0.3834075999999999,0.9192352,-30.30171,0.1917877,-27.88756,4.33403,0.455237,0.6280821,1.0,0.1289825,-0.3673401,0.9210815,34.38538,2.091232,-27.12135,4.203278,0.4263025,0.5401581999999999,0.3069732999999999,0.61206,0.2002952,-0.02906171,0.6027253,-0.03683228,0.5242997,-222.4921,32.31
3,0.1116333,-0.3744659,0.9204865,1.0,0.08935547,-0.3834075999999999,0.9192352,-30.30171,0.1917877,-27.88756,4.33403,0.455237,0.6280821,1.0,0.1289825,-0.3673401,0.9210815,34.38538,2.091232,-27.12135,4.203278,0.4263025,0.5401581999999999,0.3069732999999999,0.61206,0.2002952,-0.02906171,0.6027253,-0.03683228,0.5242997,-222.4921,32.31
3,0.1116333,-0.3744659,0.9204865,1.0,0.08935547,-0.3834075999999999,0.9192352,-30.30171,0.1917877,-27.88756,4.33403,0.455237,0.6280821,1.0,0.1289825,-0.3673401,0.9210815,34.38538,2.091232,-27.12135,4.203278,0.4263025,0.5401581999999999,0.3069732999999999,0.61206,0.2002952,-0.02906171,0.6027253,-0.03683228,0.5242997,-222.4921,32.31
3,0.112854,-0.378067,0.918869,1.0,0.09490967,-0.3856964,0.9177246,-30.3201,0.2008667,-27.88643,4.360107,0.455237,0.6280821,1.0,0.1269379,-0.3719635,0.9195099,34.39247,2.091232,-27.11989,4.190231,0.4263025,0.5407373000000001,0.3071842,0.6115065,0.2010455,-0.02563128,0.6001263000000001,-0.03731799,0.5242997,-222.4921,32.31
3,0.112854,-0.378067,0.918869,1.0,0.09490967,-0.3856964,0.9177246,-30.3201,0.2008667,-27.88643,4.360107,0.455237,0.6280821,1.0,0.1269379,-0.3719635,0.9195099,34.39247,2.091232,-27.11989,4.190231,0.4263025,0.5407373000000001,0.3071842,0.6115065,0.2010455,-0.02563128,0.6001263000000001,-0.03731799,0.5242997,-222.4921,32.31
3,0.112854,-0.378067,0.918869,1.0,0.09490967,-0.3856964,0.9177246,-30.3201,0.2008667,-27.88643,4.360107,0.455237,0.6280821,1.0,0.1269379,-0.3719635,0.9195099,34.39247,2.091232,-27.11989,4.190231,0.4263025,0.5407373000000001,0.3071842,0.6115065,0.2010455,-0.02563128,0.6001263000000001,-0.03731799,0.5242997,-222.4921,32.31
3,0.1090698,-0.3833008,0.9171448,1.0,0.073349,-0.3735199,0.9247131,-30.38646,0.2711487,-27.83983,4.358551,0.4601116,0.6235472,1.0,0.1371765,-0.390625,0.9102631,34.37097,2.205826,-27.05943,4.205261,0.4258522,0.5387732,0.3075456,0.6109523,0.2018222,-0.02223289,0.5975366,-0.03789256,0.5242997,-222.4921,32.31
3,0.1090698,-0.3833008,0.9171448,1.0,0.073349,-0.3735199,0.9247131,-30.38646,0.2711487,-27.83983,4.358551,0.4601116,0.6235472,1.0,0.1371765,-0.390625,0.9102631,34.37097,2.205826,-27.05943,4.205261,0.4258522,0.5387732,0.3075456,0.6109523,0.2018222,-0.02223289,0.5975366,-0.03789256,0.5242997,-222.4921,32.31
3,0.1090698,-0.3833008,0.9171448,1.0,0.073349,-0.3735199,0.9247131,-30.38646,0.2711487,-27.83983,4.358551,0.4601116,0.6235472,1.0,0.1371765,-0.390625,0.9102631,34.37097,2.205826,-27.05943,4.205261,0.4258522,0.5387732,0.3075456,0.6109523,0.2018222,-0.02223289,0.5975366,-0.03789256,0.5242997,-222.4921,32.31
3,0.1100616,-0.3800812,0.9183655,1.0,0.07461548,-0.3704834,0.925827,-30.4057,0.2755585,-27.83673,4.362167,0.4606274999999999,0.6229749,1.0,0.13591,-0.3867797999999999,0.9120941,34.36374,2.208588,-27.05273,4.225296,0.4262462999999999,0.5381238,0.3076897999999999,0.6101066999999999,0.2021695,-0.0185947999999999,0.5952199,-0.03910939,0.5242997,-222.4921,32.31
3,0.1100616,-0.3800812,0.9183655,1.0,0.07461548,-0.3704834,0.925827,-30.4057,0.2755585,-27.83673,4.362167,0.4606274999999999,0.6229749,1.0,0.13591,-0.3867797999999999,0.9120941,34.36374,2.208588,-27.05273,4.225296,0.4262462999999999,0.5381238,0.3076897999999999,0.6101066999999999,0.2021695,-0.0185947999999999,0.5952199,-0.03910939,0.5242997,-222.4921,32.31
3,0.1100616,-0.3800812,0.9183655,1.0,0.07461548,-0.3704834,0.925827,-30.4057,0.2755585,-27.83673,4.362167,0.4606274999999999,0.6229749,1.0,0.13591,-0.3867797999999999,0.9120941,34.36374,2.208588,-27.05273,4.225296,0.4262462999999999,0.5381238,0.3076897999999999,0.6101066999999999,0.2021695,-0.0185947999999999,0.5952199,-0.03910939,0.5242997,-222.4921,32.31
3,0.1105193999999999,-0.3752289,0.9203033000000002,0.8674619,0.08232117,-0.3659363,0.9269867,-30.45078,0.2844849,-27.82185,4.3647160000000005,0.4612704000000001,0.6219659000000001,0.9969473,0.1304016,-0.3815918,0.9150696,34.36694,2.214737,-27.05374,4.235474,0.4267920999999999,0.5372515,0.3079199,0.6092545,0.2023027999999999,-0.01552214,0.5931441,-0.0404981,0.5242997,-316.5012,32.31
3,0.1105193999999999,-0.3752289,0.9203033000000002,0.8674619,0.08232117,-0.3659363,0.9269867,-30.45078,0.2844849,-27.82185,4.3647160000000005,0.4612704000000001,0.6219659000000001,0.9969473,0.1304016,-0.3815918,0.9150696,34.36694,2.214737,-27.05374,4.235474,0.4267920999999999,0.5372515,0.3079199,0.6092545,0.2023027999999999,-0.01552214,0.5931441,-0.0404981,0.5242997,-316.5012,32.31
3,0.1105193999999999,-0.3752289,0.9203033000000002,0.8674619,0.08232117,-0.3659363,0.9269867,-30.45078,0.2844849,-27.82185,4.3647160000000005,0.4612704000000001,0.6219659000000001,0.9969473,0.1304016,-0.3815918,0.9150696,34.36694,2.214737,-27.05374,4.235474,0.4267920999999999,0.5372515,0.3079199,0.6092545,0.2023027999999999,-0.01552214,0.5931441,-0.0404981,0.5242997,-316.5012,32.31
3,-0.1675415,-0.3510284,0.9212494,0.8763274,-0.2004242,-0.3564453,0.9125519,-31.73033,0.4549407999999999,-27.76135,4.391815,0.5386411999999999,0.6150949,0.9146963,-0.1389618,-0.3460083,0.9278717,32.97073,2.464676,-27.13756,4.174011,0.504979,0.5265964,0.3078686,0.6080151,0.2020937,-0.011809,0.5923352,-0.04306635,0.5242997,-316.5012,32.31
3,-0.1675415,-0.3510284,0.9212494,0.8763274,-0.2004242,-0.3564453,0.9125519,-31.73033,0.4549407999999999,-27.76135,4.391815,0.5386411999999999,0.6150949,0.9146963,-0.1389618,-0.3460083,0.9278717,32.97073,2.464676,-27.13756,4.174011,0.504979,0.5265964,0.3078686,0.6080151,0.2020937,-0.011809,0.5923352,-0.04306635,0.5242997,-316.5012,32.31
3,-0.1675415,-0.3510284,0.9212494,0.8763274,-0.2004242,-0.3564453,0.9125519,-31.73033,0.4549407999999999,-27.76135,4.391815,0.5386411999999999,0.6150949,0.9146963,-0.1389618,-0.3460083,0.9278717,32.97073,2.464676,-27.13756,4.174011,0.504979,0.5265964,0.3078686,0.6080151,0.2020937,-0.011809,0.5923352,-0.04306635,0.5242997,-316.5012,32.31
3,-0.1754761,-0.3483275999999999,0.9207916,0.8925834999999999,-0.2117003999999999,-0.3527222,0.9114532,-31.77304,0.4698180999999999,-27.764470000000003,4.32486,0.5414366,0.6142251,0.9324516,-0.1440735,-0.3441619999999999,0.9277802,32.97058,2.475693,-27.13789,4.124146,0.5056449000000001,0.5260434,0.3081728,0.6071125,0.2014871,-0.008271108,0.5931258,-0.04658594,0.5242997,-316.5012,32.31
3,-0.1754761,-0.3483275999999999,0.9207916,0.8925834999999999,-0.2117003999999999,-0.3527222,0.9114532,-31.77304,0.4698180999999999,-27.764470000000003,4.32486,0.5414366,0.6142251,0.9324516,-0.1440735,-0.3441619999999999,0.9277802,32.97058,2.475693,-27.13789,4.124146,0.5056449000000001,0.5260434,0.3081728,0.6071125,0.2014871,-0.008271108,0.5931258,-0.04658594,0.5242997,-316.5012,32.31
3,-0.1754761,-0.3483275999999999,0.9207916,0.8925834999999999,-0.2117003999999999,-0.3527222,0.9114532,-31.77304,0.4698180999999999,-27.764470000000003,4.32486,0.5414366,0.6142251,0.9324516,-0.1440735,-0.3441619999999999,0.9277802,32.97058,2.475693,-27.13789,4.124146,0.5056449000000001,0.5260434,0.3081728,0.6071125,0.2014871,-0.008271108,0.5931258,-0.04658594,0.5242997,-316.5012,32.31
3,-0.1672362999999999,-0.3241577,0.9310913,0.8952655,-0.207901,-0.3469696,0.9145355,-31.802,0.4927063,-27.75758,4.297256,0.5419517,0.6126100999999999,0.9401787,-0.138504,-0.3076935,0.9413452,32.9572,2.574814,-27.11053,4.078551999999999,0.5055483000000001,0.5178416,0.3087028,0.6063460999999999,0.200448,-0.006392103,0.5954251,-0.04895522,0.5242997,-316.5012,32.31
3,-0.1672362999999999,-0.3241577,0.9310913,0.8952655,-0.207901,-0.3469696,0.9145355,-31.802,0.4927063,-27.75758,4.297256,0.5419517,0.6126100999999999,0.9401787,-0.138504,-0.3076935,0.9413452,32.9572,2.574814,-27.11053,4.078551999999999,0.5055483000000001,0.5178416,0.3087028,0.6063460999999999,0.200448,-0.006392103,0.5954251,-0.04895522,0.5242997,-316.5012,32.31
3,-0.1672362999999999,-0.3241577,0.9310913,0.8952655,-0.207901,-0.3469696,0.9145355,-31.802,0.4927063,-27.75758,4.297256,0.5419517,0.6126100999999999,0.9401787,-0.138504,-0.3076935,0.9413452,32.9572,2.574814,-27.11053,4.078551999999999,0.5055483000000001,0.5178416,0.3087028,0.6063460999999999,0.200448,-0.006392103,0.5954251,-0.04895522,0.5242997,-316.5012,32.31
3,-0.1580963,-0.3195038,0.9342957,0.9013842,-0.2041473,-0.3436584,0.916626,-31.84425,0.5301514,-27.74039,4.241028,0.5429126999999999,0.6107223,0.957669,-0.1292877,-0.3040314,0.9438324,32.96414,2.573288,-27.11037,4.0238190000000005,0.5043217000000001,0.5173572,0.3091350999999999,0.6053395,0.1988126,-0.0027227429999999,0.5995381,-0.05102926,0.5242997,-316.5012,32.31
3,-0.1580963,-0.3195038,0.9342957,0.9013842,-0.2041473,-0.3436584,0.916626,-31.84425,0.5301514,-27.74039,4.241028,0.5429126999999999,0.6107223,0.957669,-0.1292877,-0.3040314,0.9438324,32.96414,2.573288,-27.11037,4.0238190000000005,0.5043217000000001,0.5173572,0.3091350999999999,0.6053395,0.1988126,-0.0027227429999999,0.5995381,-0.05102926,0.5242997,-316.5012,32.31
3,-0.1580963,-0.3195038,0.9342957,0.9013842,-0.2041473,-0.3436584,0.916626,-31.84425,0.5301514,-27.74039,4.241028,0.5429126999999999,0.6107223,0.957669,-0.1292877,-0.3040314,0.9438324,32.96414,2.573288,-27.11037,4.0238190000000005,0.5043217000000001,0.5173572,0.3091350999999999,0.6053395,0.1988126,-0.0027227429999999,0.5995381,-0.05102926,0.5242997,-316.5012,32.31
3,-0.1578217,-0.3094482,0.9377136,0.9202029,-0.2000275,-0.3255615,0.9241028,-31.85664,0.5301514,-27.73601,4.2412410000000005,0.5428206,0.60831,0.9571023,-0.1295471,-0.2983551,0.9456177,32.97032,2.570923,-27.11099,4.023941000000001,0.504147,0.5167265999999999,0.3094376,0.6038695,0.1963751,0.0043630529999999,0.6054925,-0.05383543,0.5242997,-316.5012,32.31
3,-0.1578217,-0.3094482,0.9377136,0.9202029,-0.2000275,-0.3255615,0.9241028,-31.85664,0.5301514,-27.73601,4.2412410000000005,0.5428206,0.60831,0.9571023,-0.1295471,-0.2983551,0.9456177,32.97032,2.570923,-27.11099,4.023941000000001,0.504147,0.5167265999999999,0.3094376,0.6038695,0.1963751,0.0043630529999999,0.6054925,-0.05383543,0.5242997,-316.5012,32.31
3,-0.1578217,-0.3094482,0.9377136,0.9202029,-0.2000275,-0.3255615,0.9241028,-31.85664,0.5301514,-27.73601,4.2412410000000005,0.5428206,0.60831,0.9571023,-0.1295471,-0.2983551,0.9456177,32.97032,2.570923,-27.11099,4.023941000000001,0.504147,0.5167265999999999,0.3094376,0.6038695,0.1963751,0.0043630529999999,0.6054925,-0.05383543,0.5242997,-316.5012,32.31
3,-0.1443024,-0.3042297,0.9415894,0.9130758,-0.1970062,-0.3013305999999999,0.9329376,-31.86803,0.5354004,-27.73248,4.242966,0.5428206,0.6049741999999999,0.9450997,-0.1001281999999999,-0.3059845,0.9467468,33.05525,2.674744,-27.05247,4.073502,0.4978633,0.5134847,0.3102642,0.6023887,0.1936015,0.009758756,0.6138754,-0.05749304,0.5242997,-100.3161,32.31
3,-0.1443024,-0.3042297,0.9415894,0.9130758,-0.1970062,-0.3013305999999999,0.9329376,-31.86803,0.5354004,-27.73248,4.242966,0.5428206,0.6049741999999999,0.9450997,-0.1001281999999999,-0.3059845,0.9467468,33.05525,2.674744,-27.05247,4.073502,0.4978633,0.5134847,0.3102642,0.6023887,0.1936015,0.009758756,0.6138754,-0.05749304,0.5242997,-100.3161,32.31
3,-0.1443024,-0.3042297,0.9415894,0.9130758,-0.1970062,-0.3013305999999999,0.9329376,-31.86803,0.5354004,-27.73248,4.242966,0.5428206,0.6049741999999999,0.9450997,-0.1001281999999999,-0.3059845,0.9467468,33.05525,2.674744,-27.05247,4.073502,0.4978633,0.5134847,0.3102642,0.6023887,0.1936015,0.009758756,0.6138754,-0.05749304,0.5242997,-100.3161,32.31
3,-0.1067351999999999,-0.2741547,0.9557343,0.913002,-0.1470032,-0.2499542,0.957016,-31.6964,0.609024,-27.63127,4.332657,0.5309311999999999,0.5947173000000001,0.9320236,-0.08520508,-0.2868042,0.9541779,33.20361,2.691223,-27.0191,4.068756,0.4912059,0.5101092,0.3126026,0.5990908,0.1879132,0.02114003,0.6293408,-0.06700749,0.5242997,-100.3161,32.31
3,-0.1067351999999999,-0.2741547,0.9557343,0.913002,-0.1470032,-0.2499542,0.957016,-31.6964,0.609024,-27.63127,4.332657,0.5309311999999999,0.5947173000000001,0.9320236,-0.08520508,-0.2868042,0.9541779,33.20361,2.691223,-27.0191,4.068756,0.4912059,0.5101092,0.3126026,0.5990908,0.1879132,0.02114003,0.6293408,-0.06700749,0.5242997,-100.3161,32.31
3,-0.1067351999999999,-0.2741547,0.9557343,0.913002,-0.1470032,-0.2499542,0.957016,-31.6964,0.609024,-27.63127,4.332657,0.5309311999999999,0.5947173000000001,0.9320236,-0.08520508,-0.2868042,0.9541779,33.20361,2.691223,-27.0191,4.068756,0.4912059,0.5101092,0.3126026,0.5990908,0.1879132,0.02114003,0.6293408,-0.06700749,0.5242997,-100.3161,32.31
3,-0.08131409,-0.2551575,0.9634705,0.9108324,-0.1175995,-0.2257538,0.9670563,-31.51274,0.5625763,-27.590740000000004,4.246933,0.5210961,0.5927468000000001,0.9761906,-0.06080627,-0.2714690999999999,0.9605103000000002,33.39307,2.645401,-27.00551,3.974442,0.4821685999999999,0.5094127,0.3139364,0.5974476,0.1853278,0.0258738,0.6356285,-0.07458603,0.5242997,-100.3161,32.31
3,-0.08131409,-0.2551575,0.9634705,0.9108324,-0.1175995,-0.2257538,0.9670563,-31.51274,0.5625763,-27.590740000000004,4.246933,0.5210961,0.5927468000000001,0.9761906,-0.06080627,-0.2714690999999999,0.9605103000000002,33.39307,2.645401,-27.00551,3.974442,0.4821685999999999,0.5094127,0.3139364,0.5974476,0.1853278,0.0258738,0.6356285,-0.07458603,0.5242997,-100.3161,32.31
3,-0.08131409,-0.2551575,0.9634705,0.9108324,-0.1175995,-0.2257538,0.9670563,-31.51274,0.5625763,-27.590740000000004,4.246933,0.5210961,0.5927468000000001,0.9761906,-0.06080627,-0.2714690999999999,0.9605103000000002,33.39307,2.645401,-27.00551,3.974442,0.4821685999999999,0.5094127,0.3139364,0.5974476,0.1853278,0.0258738,0.6356285,-0.07458603,0.5242997,-100.3161,32.31
3,-0.06159973,-0.2408751999999999,0.9685974,0.883541,-0.1124115,-0.2116241,0.9708557,-31.46814,0.5412445,-27.56631,4.253966999999999,0.5189483,0.5914824000000001,0.9687971,-0.03692627,-0.2547302,0.9662933,33.46049,2.631561,-26.98474,3.927444,0.4772202999999999,0.5074781,0.3139364,0.5974476,0.1853278,0.0258738,0.6356285,-0.07458603,0.5242997,-100.3161,32.31
3,-0.06159973,-0.2408751999999999,0.9685974,0.883541,-0.1124115,-0.2116241,0.9708557,-31.46814,0.5412445,-27.56631,4.253966999999999,0.5189483,0.5914824000000001,0.9687971,-0.03692627,-0.2547302,0.9662933,33.46049,2.631561,-26.98474,3.927444,0.4772202999999999,0.5074781,0.3139364,0.5974476,0.1853278,0.0258738,0.6356285,-0.07458603,0.5242997,-100.3161,32.31
3,-0.06159973,-0.2408751999999999,0.9685974,0.883541,-0.1124115,-0.2116241,0.9708557,-31.46814,0.5412445,-27.56631,4.253966999999999,0.5189483,0.5914824000000001,0.9687971,-0.03692627,-0.2547302,0.9662933,33.46049,2.631561,-26.98474,3.927444,0.4772202999999999,0.5074781,0.3139364,0.5974476,0.1853278,0.0258738,0.6356285,-0.07458603,0.5242997,-100.3161,32.31
3,-0.03651428,-0.1882935,0.9814301,1.0,-0.09182739,-0.1804199,0.9792786,-31.341,0.2414703,-27.57402,4.128006,0.5120716,0.5978207,1.0,-0.002212524,-0.1928711,0.9812164,33.55161,2.281036,-27.04915,4.114212,0.4698978,0.51203,0.3161672,0.5922375,0.1805512,0.03951073,0.6439954999999999,-0.09301041,0.5242997,-100.3161,32.31
3,-0.03651428,-0.1882935,0.9814301,1.0,-0.09182739,-0.1804199,0.9792786,-31.341,0.2414703,-27.57402,4.128006,0.5120716,0.5978207,1.0,-0.002212524,-0.1928711,0.9812164,33.55161,2.281036,-27.04915,4.114212,0.4698978,0.51203,0.3161672,0.5922375,0.1805512,0.03951073,0.6439954999999999,-0.09301041,0.5242997,-100.3161,32.31
3,-0.03651428,-0.1882935,0.9814301,1.0,-0.09182739,-0.1804199,0.9792786,-31.341,0.2414703,-27.57402,4.128006,0.5120716,0.5978207,1.0,-0.002212524,-0.1928711,0.9812164,33.55161,2.281036,-27.04915,4.114212,0.4698978,0.51203,0.3161672,0.5922375,0.1805512,0.03951073,0.6439954999999999,-0.09301041,0.5242997,-100.3161,32.31
3,-0.01985168,-0.1663055,0.9858704,1.0,-0.07406616,-0.161972,0.9839935,-31.29366,0.2013245,-27.44203,4.31601,0.5084499,0.59575,1.0,0.01036072,-0.1685027999999999,0.9856415,33.582809999999995,2.255447,-27.04768,4.140625,0.4673898,0.5099135,0.3161672,0.5922375,0.1805512,0.03951073,0.6439954999999999,-0.09301041,0.5242997,69.28294,32.31
3,-0.01985168,-0.1663055,0.9858704,1.0,-0.07406616,-0.161972,0.9839935,-31.29366,0.2013245,-27.44203,4.31601,0.5084499,0.59575,1.0,0.01036072,-0.1685027999999999,0.9856415,33.582809999999995,2.255447,-27.04768,4.140625,0.4673898,0.5099135,0.3161672,0.5922375,0.1805512,0.03951073,0.6439954999999999,-0.09301041,0.5242997,69.28294,32.31
3,-0.01985168,-0.1663055,0.9858704,1.0,-0.07406616,-0.161972,0.9839935,-31.29366,0.2013245,-27.44203,4.31601,0.5084499,0.59575,1.0,0.01036072,-0.1685027999999999,0.9856415,33.582809999999995,2.255447,-27.04768,4.140625,0.4673898,0.5099135,0.3161672,0.5922375,0.1805512,0.03951073,0.6439954999999999,-0.09301041,0.5242997,69.28294,32.31
3,0.02026367,-0.1487427,0.9886627,1.0,-0.04896545,-0.1111298,0.9925842,-31.28857,-0.116684,-25.73666,4.40889,0.5048484000000001,0.5844670999999999,1.0,0.02026367,-0.1487427,0.9886627,33.68207,2.3652040000000003,-26.95575,4.076324,0.4630827,0.5030344,0.3186450999999999,0.586209,0.1761191,0.05786126,0.6493003,-0.1100521999999999,0.5242997,69.28294,32.31
3,0.02026367,-0.1487427,0.9886627,1.0,-0.04896545,-0.1111298,0.9925842,-31.28857,-0.116684,-25.73666,4.40889,0.5048484000000001,0.5844670999999999,1.0,0.02026367,-0.1487427,0.9886627,33.68207,2.3652040000000003,-26.95575,4.076324,0.4630827,0.5030344,0.3186450999999999,0.586209,0.1761191,0.05786126,0.6493003,-0.1100521999999999,0.5242997,69.28294,32.31
3,0.02026367,-0.1487427,0.9886627,1.0,-0.04896545,-0.1111298,0.9925842,-31.28857,-0.116684,-25.73666,4.40889,0.5048484000000001,0.5844670999999999,1.0,0.02026367,-0.1487427,0.9886627,33.68207,2.3652040000000003,-26.95575,4.076324,0.4630827,0.5030344,0.3186450999999999,0.586209,0.1761191,0.05786126,0.6493003,-0.1100521999999999,0.5242997,69.28294,32.31
3,0.04577637,-0.107254,0.9931641,1.0,-0.03671265,-0.1178588999999999,0.9923401,-31.12683,0.3937377999999999,-26.55545,4.28688,0.4982214,0.5755300999999999,1.0,0.04580688,-0.107254,0.9931641,33.76053,2.508392,-26.416120000000003,4.036163,0.4579102,0.4887311,0.3201733,0.5839691999999999,0.1740022,0.06645289,0.6513701999999999,-0.1175232,0.5242997,69.28294,32.31
3,0.04577637,-0.107254,0.9931641,1.0,-0.03671265,-0.1178588999999999,0.9923401,-31.12683,0.3937377999999999,-26.55545,4.28688,0.4982214,0.5755300999999999,1.0,0.04580688,-0.107254,0.9931641,33.76053,2.508392,-26.416120000000003,4.036163,0.4579102,0.4887311,0.3201733,0.5839691999999999,0.1740022,0.06645289,0.6513701999999999,-0.1175232,0.5242997,69.28294,32.31
3,0.04577637,-0.107254,0.9931641,1.0,-0.03671265,-0.1178588999999999,0.9923401,-31.12683,0.3937377999999999,-26.55545,4.28688,0.4982214,0.5755300999999999,1.0,0.04580688,-0.107254,0.9931641,33.76053,2.508392,-26.416120000000003,4.036163,0.4579102,0.4887311,0.3201733,0.5839691999999999,0.1740022,0.06645289,0.6513701999999999,-0.1175232,0.5242997,69.28294,32.31
3,0.01675415,-0.06906128,0.997467,1.0,-0.05627441,-0.05015564,0.9971466,-31.12431,0.639328,-26.64833,4.409744,0.5005907999999999,0.5602767,1.0,0.03010559,-0.07247925,0.9969025,33.70531,2.913208,-26.96899,3.96991,0.4614858,0.4758350999999999,0.32187,0.5817984,0.171536,0.07598742,0.6529264,-0.1238716,0.5242997,69.28294,32.31
3,0.01675415,-0.06906128,0.997467,1.0,-0.05627441,-0.05015564,0.9971466,-31.12431,0.639328,-26.64833,4.409744,0.5005907999999999,0.5602767,1.0,0.03010559,-0.07247925,0.9969025,33.70531,2.913208,-26.96899,3.96991,0.4614858,0.4758350999999999,0.32187,0.5817984,0.171536,0.07598742,0.6529264,-0.1238716,0.5242997,69.28294,32.31
3,0.01675415,-0.06906128,0.997467,1.0,-0.05627441,-0.05015564,0.9971466,-31.12431,0.639328,-26.64833,4.409744,0.5005907999999999,0.5602767,1.0,0.03010559,-0.07247925,0.9969025,33.70531,2.913208,-26.96899,3.96991,0.4614858,0.4758350999999999,0.32187,0.5817984,0.171536,0.07598742,0.6529264,-0.1238716,0.5242997,69.28294,32.31
3,-0.1316376,-0.1060637999999999,0.9855957,1.0,-0.1509247,-0.1035309,0.9830933,-31.578290000000003,0.1941223,-26.09071,4.337692,0.5264946999999999,0.5766465999999999,1.0,-0.06599426,-0.1143188,0.9912415,33.14757,2.650223,-27.15947,4.080124,0.4909129,0.4916475,0.3238364,0.5793444000000001,0.1689702,0.08701127,0.6543422,-0.1301825,0.5242997,69.28294,32.31
3,-0.1316376,-0.1060637999999999,0.9855957,1.0,-0.1509247,-0.1035309,0.9830933,-31.578290000000003,0.1941223,-26.09071,4.337692,0.5264946999999999,0.5766465999999999,1.0,-0.06599426,-0.1143188,0.9912415,33.14757,2.650223,-27.15947,4.080124,0.4909129,0.4916475,0.3238364,0.5793444000000001,0.1689702,0.08701127,0.6543422,-0.1301825,0.5242997,69.28294,32.31
3,-0.1316376,-0.1060637999999999,0.9855957,1.0,-0.1509247,-0.1035309,0.9830933,-31.578290000000003,0.1941223,-26.09071,4.337692,0.5264946999999999,0.5766465999999999,1.0,-0.06599426,-0.1143188,0.9912415,33.14757,2.650223,-27.15947,4.080124,0.4909129,0.4916475,0.3238364,0.5793444000000001,0.1689702,0.08701127,0.6543422,-0.1301825,0.5242997,69.28294,32.31
3,-0.1180725,-0.1376343,0.9834136999999998,1.0,-0.1912689,-0.1472015,0.9704285,-31.766070000000003,0.2172546,-26.81833,4.4144440000000005,0.537995,0.5880920000000001,1.0,-0.1048737,-0.135849,0.9851532,32.94252,2.487869,-27.05684,4.175293,0.5021015,0.4990442,0.3238364,0.5793444000000001,0.1689702,0.08701127,0.6543422,-0.1301825,0.5242997,76.35547,32.31
3,-0.1180725,-0.1376343,0.9834136999999998,1.0,-0.1912689,-0.1472015,0.9704285,-31.766070000000003,0.2172546,-26.81833,4.4144440000000005,0.537995,0.5880920000000001,1.0,-0.1048737,-0.135849,0.9851532,32.94252,2.487869,-27.05684,4.175293,0.5021015,0.4990442,0.3238364,0.5793444000000001,0.1689702,0.08701127,0.6543422,-0.1301825,0.5242997,76.35547,32.31
3,-0.1180725,-0.1376343,0.9834136999999998,1.0,-0.1912689,-0.1472015,0.9704285,-31.766070000000003,0.2172546,-26.81833,4.4144440000000005,0.537995,0.5880920000000001,1.0,-0.1048737,-0.135849,0.9851532,32.94252,2.487869,-27.05684,4.175293,0.5021015,0.4990442,0.3238364,0.5793444000000001,0.1689702,0.08701127,0.6543422,-0.1301825,0.5242997,76.35547,32.31
3,-0.09051514,-0.1041869999999999,0.9904175,1.0,-0.1799773999999999,-0.1472931,0.9725647,-31.79053,0.2964172,-26.76236,4.273911,0.5374159000000001,0.5847669,1.0,-0.08734131,-0.1026458999999999,0.99086,32.97656,2.602631,-27.104340000000004,4.07164,0.4991105999999999,0.4915202999999999,0.3263475999999999,0.5774555,0.1659175,0.09295712,0.6562425999999999,-0.134803,0.5242997,76.35547,32.31
3,-0.09051514,-0.1041869999999999,0.9904175,1.0,-0.1799773999999999,-0.1472931,0.9725647,-31.79053,0.2964172,-26.76236,4.273911,0.5374159000000001,0.5847669,1.0,-0.08734131,-0.1026458999999999,0.99086,32.97656,2.602631,-27.104340000000004,4.07164,0.4991105999999999,0.4915202999999999,0.3263475999999999,0.5774555,0.1659175,0.09295712,0.6562425999999999,-0.134803,0.5242997,76.35547,32.31
3,-0.09051514,-0.1041869999999999,0.9904175,1.0,-0.1799773999999999,-0.1472931,0.9725647,-31.79053,0.2964172,-26.76236,4.273911,0.5374159000000001,0.5847669,1.0,-0.08734131,-0.1026458999999999,0.99086,32.97656,2.602631,-27.104340000000004,4.07164,0.4991105999999999,0.4915202999999999,0.3263475999999999,0.5774555,0.1659175,0.09295712,0.6562425999999999,-0.134803,0.5242997,76.35547,32.31
3,-0.09051514,-0.1041869999999999,0.9904175,1.0,-0.1799773999999999,-0.1472931,0.9725647,-31.79053,0.2964172,-26.76236,4.273911,0.5374159000000001,0.5847669,1.0,-0.08734131,-0.1026458999999999,0.99086,32.97656,2.602631,-27.104340000000004,4.07164,0.4991105999999999,0.4915202999999999,0.3290967,0.5751056999999999,0.1626886,0.09831685,0.6581256999999999,-0.1400885,0.5242997,76.35547,32.31
3,-0.09051514,-0.1041869999999999,0.9904175,1.0,-0.1799773999999999,-0.1472931,0.9725647,-31.79053,0.2964172,-26.76236,4.273911,0.5374159000000001,0.5847669,1.0,-0.08734131,-0.1026458999999999,0.99086,32.97656,2.602631,-27.104340000000004,4.07164,0.4991105999999999,0.4915202999999999,0.3290967,0.5751056999999999,0.1626886,0.09831685,0.6581256999999999,-0.1400885,0.5242997,76.35547,32.31
3,-0.09051514,-0.1041869999999999,0.9904175,1.0,-0.1799773999999999,-0.1472931,0.9725647,-31.79053,0.2964172,-26.76236,4.273911,0.5374159000000001,0.5847669,1.0,-0.08734131,-0.1026458999999999,0.99086,32.97656,2.602631,-27.104340000000004,4.07164,0.4991105999999999,0.4915202999999999,0.3290967,0.5751056999999999,0.1626886,0.09831685,0.6581256999999999,-0.1400885,0.5242997,76.35547,32.31
3,-0.1470642,-0.07905579,0.9859466999999998,1.0,-0.1487273999999999,-0.07910156,0.9857025,-31.76857,0.3033752,-26.580440000000003,4.285645,0.5329025,0.5746253000000001,1.0,-0.07540894,-0.07711792,0.9941559,33.079240000000006,2.8883970000000003,-27.73775,4.251434,0.4940353,0.4843416,0.3315485,0.5720201,0.1591451,0.1046984999999999,0.6600041,-0.1468369,0.5242997,76.35547,32.31
3,-0.1470642,-0.07905579,0.9859466999999998,1.0,-0.1487273999999999,-0.07910156,0.9857025,-31.76857,0.3033752,-26.580440000000003,4.285645,0.5329025,0.5746253000000001,1.0,-0.07540894,-0.07711792,0.9941559,33.079240000000006,2.8883970000000003,-27.73775,4.251434,0.4940353,0.4843416,0.3315485,0.5720201,0.1591451,0.1046984999999999,0.6600041,-0.1468369,0.5242997,76.35547,32.31
3,-0.1470642,-0.07905579,0.9859466999999998,1.0,-0.1487273999999999,-0.07910156,0.9857025,-31.76857,0.3033752,-26.580440000000003,4.285645,0.5329025,0.5746253000000001,1.0,-0.07540894,-0.07711792,0.9941559,33.079240000000006,2.8883970000000003,-27.73775,4.251434,0.4940353,0.4843416,0.3315485,0.5720201,0.1591451,0.1046984999999999,0.6600041,-0.1468369,0.5242997,76.35547,32.31
3,-0.1422882,-0.06625366,0.9875946,1.0,-0.1422882,-0.06625366,0.9875946,-31.70013,0.4328002999999999,-26.539890000000003,4.410019,0.5298972,0.5684345000000001,1.0,-0.06069946,-0.0473938,0.9970245,33.15405,3.3162540000000003,-28.72746,4.113708,0.4898559,0.4746061,0.3368436999999999,0.5655295,0.1524063,0.1124239,0.6637135999999999,-0.1632759,0.5242997,76.35547,32.31
3,-0.1422882,-0.06625366,0.9875946,1.0,-0.1422882,-0.06625366,0.9875946,-31.70013,0.4328002999999999,-26.539890000000003,4.410019,0.5298972,0.5684345000000001,1.0,-0.06069946,-0.0473938,0.9970245,33.15405,3.3162540000000003,-28.72746,4.113708,0.4898559,0.4746061,0.3368436999999999,0.5655295,0.1524063,0.1124239,0.6637135999999999,-0.1632759,0.5242997,76.35547,32.31
3,-0.1422882,-0.06625366,0.9875946,1.0,-0.1422882,-0.06625366,0.9875946,-31.70013,0.4328002999999999,-26.539890000000003,4.410019,0.5298972,0.5684345000000001,1.0,-0.06069946,-0.0473938,0.9970245,33.15405,3.3162540000000003,-28.72746,4.113708,0.4898559,0.4746061,0.3368436999999999,0.5655295,0.1524063,0.1124239,0.6637135999999999,-0.1632759,0.5242997,76.35547,32.31
4,-0.1302185,-0.03977966,0.9906769,1.0,-0.1302185,-0.03977966,0.9906769,-31.64279,0.4862212999999999,-26.60187,4.396454,0.5265988,0.5640606,1.0,-0.05184937,-0.04891968,0.9974518,33.21805,3.358505,-28.70076,4.113403,0.4866765999999999,0.4730907999999999,0.3387111,0.5607376000000001,0.1488519,0.1209109999999999,0.6653559,-0.1755797999999999,0.5268623,166.0442,32.31
4,-0.1302185,-0.03977966,0.9906769,1.0,-0.1302185,-0.03977966,0.9906769,-31.64279,0.4862212999999999,-26.60187,4.396454,0.5265988,0.5640606,1.0,-0.05184937,-0.04891968,0.9974518,33.21805,3.358505,-28.70076,4.113403,0.4866765999999999,0.4730907999999999,0.3387111,0.5607376000000001,0.1488519,0.1209109999999999,0.6653559,-0.1755797999999999,0.5268623,166.0442,32.31
4,-0.1302185,-0.03977966,0.9906769,1.0,-0.1302185,-0.03977966,0.9906769,-31.64279,0.4862212999999999,-26.60187,4.396454,0.5265988,0.5640606,1.0,-0.05184937,-0.04891968,0.9974518,33.21805,3.358505,-28.70076,4.113403,0.4866765999999999,0.4730907999999999,0.3387111,0.5607376000000001,0.1488519,0.1209109999999999,0.6653559,-0.1755797999999999,0.5268623,166.0442,32.31
4,-0.07087708,0.009872437,0.9974213,1.0,-0.1026001,-0.005950928,0.9946899,-31.59605,0.5723571999999999,-26.69305,4.394851999999999,0.5218894000000001,0.557982,1.0,-0.02783203,0.03126526,0.999115,33.2467,3.44841,-28.89149,4.337097,0.4827170999999999,0.4623332,0.3400707,0.5549819,0.145046,0.1320201,0.668006,-0.1899516,0.5268623,166.0442,32.31
4,-0.07087708,0.009872437,0.9974213,1.0,-0.1026001,-0.005950928,0.9946899,-31.59605,0.5723571999999999,-26.69305,4.394851999999999,0.5218894000000001,0.557982,1.0,-0.02783203,0.03126526,0.999115,33.2467,3.44841,-28.89149,4.337097,0.4827170999999999,0.4623332,0.3400707,0.5549819,0.145046,0.1320201,0.668006,-0.1899516,0.5268623,166.0442,32.31
4,-0.07087708,0.009872437,0.9974213,1.0,-0.1026001,-0.005950928,0.9946899,-31.59605,0.5723571999999999,-26.69305,4.394851999999999,0.5218894000000001,0.557982,1.0,-0.02783203,0.03126526,0.999115,33.2467,3.44841,-28.89149,4.337097,0.4827170999999999,0.4623332,0.3400707,0.5549819,0.145046,0.1320201,0.668006,-0.1899516,0.5268623,166.0442,32.31
4,-0.0243988,0.0072174069999999,0.9996643,1.0,-0.09677124,-0.008514404,0.9952698,-31.57251,0.7762756,-27.0584,4.268631,0.5205291,0.5545964,1.0,-0.01982117,0.008209229,0.9997559,33.26071,3.487839,-28.730390000000003,4.273834,0.4814140999999999,0.4622768,0.3400707,0.5549819,0.145046,0.1320201,0.668006,-0.1899516,0.5268623,166.0442,32.31
4,-0.0243988,0.0072174069999999,0.9996643,1.0,-0.09677124,-0.008514404,0.9952698,-31.57251,0.7762756,-27.0584,4.268631,0.5205291,0.5545964,1.0,-0.01982117,0.008209229,0.9997559,33.26071,3.487839,-28.730390000000003,4.273834,0.4814140999999999,0.4622768,0.3400707,0.5549819,0.145046,0.1320201,0.668006,-0.1899516,0.5268623,166.0442,32.31
4,-0.0243988,0.0072174069999999,0.9996643,1.0,-0.09677124,-0.008514404,0.9952698,-31.57251,0.7762756,-27.0584,4.268631,0.5205291,0.5545964,1.0,-0.01982117,0.008209229,0.9997559,33.26071,3.487839,-28.730390000000003,4.273834,0.4814140999999999,0.4622768,0.3400707,0.5549819,0.145046,0.1320201,0.668006,-0.1899516,0.5268623,166.0442,32.31
4,-0.008407593,0.05117798,0.998642,1.0,-0.09817505,0.007583618,0.9951324,-31.55403,0.8856506,-27.29669,4.286224,0.5202085999999999,0.551216,1.0,-0.0079803469999999,0.0513915999999999,0.998642,33.25995,3.5581050000000003,-28.8013,4.307358,0.4800678,0.4554672999999999,0.3415159,0.5412923000000001,0.1369332,0.1630877,0.6781579000000001,-0.2217889,0.5268623,166.0442,32.31
4,-0.008407593,0.05117798,0.998642,1.0,-0.09817505,0.007583618,0.9951324,-31.55403,0.8856506,-27.29669,4.286224,0.5202085999999999,0.551216,1.0,-0.0079803469999999,0.0513915999999999,0.998642,33.25995,3.5581050000000003,-28.8013,4.307358,0.4800678,0.4554672999999999,0.3415159,0.5412923000000001,0.1369332,0.1630877,0.6781579000000001,-0.2217889,0.5268623,166.0442,32.31
4,-0.008407593,0.05117798,0.998642,1.0,-0.09817505,0.007583618,0.9951324,-31.55403,0.8856506,-27.29669,4.286224,0.5202085999999999,0.551216,1.0,-0.0079803469999999,0.0513915999999999,0.998642,33.25995,3.5581050000000003,-28.8013,4.307358,0.4800678,0.4554672999999999,0.3415159,0.5412923000000001,0.1369332,0.1630877,0.6781579000000001,-0.2217889,0.5268623,166.0442,32.31
4,-0.07931519,-0.05577087,0.995285,1.0,-0.1871338,-0.05776978,0.9806213,-31.81335,0.4733275999999999,-27.24319,4.439499,0.5393905999999999,0.5728004,1.0,-0.07896423,-0.05575562,0.9953156,32.877559999999995,3.145126,-28.79237,4.200928,0.5011758,0.4821278,0.342033,0.5360239,0.1331602,0.1751165,0.68408,-0.2319837999999999,0.5268623,166.0442,32.31
4,-0.07931519,-0.05577087,0.995285,1.0,-0.1871338,-0.05776978,0.9806213,-31.81335,0.4733275999999999,-27.24319,4.439499,0.5393905999999999,0.5728004,1.0,-0.07896423,-0.05575562,0.9953156,32.877559999999995,3.145126,-28.79237,4.200928,0.5011758,0.4821278,0.342033,0.5360239,0.1331602,0.1751165,0.68408,-0.2319837999999999,0.5268623,166.0442,32.31
4,-0.07931519,-0.05577087,0.995285,1.0,-0.1871338,-0.05776978,0.9806213,-31.81335,0.4733275999999999,-27.24319,4.439499,0.5393905999999999,0.5728004,1.0,-0.07896423,-0.05575562,0.9953156,32.877559999999995,3.145126,-28.79237,4.200928,0.5011758,0.4821278,0.342033,0.5360239,0.1331602,0.1751165,0.68408,-0.2319837999999999,0.5268623,166.0442,32.31
4,-0.249176,-0.2783203,0.927597,1.0,-0.3160858,-0.3091736,0.8969269,-32.29112,-0.631546,-27.16389,4.547394000000001,0.571303,0.6416149999999999,1.0,-0.2240143,-0.266449,0.937439,32.12645,1.966949,-28.59491,4.076691,0.5434829999999999,0.5471889,0.342033,0.5360239,0.1331602,0.1751165,0.68408,-0.2319837999999999,0.5268623,103.7354,32.31
4,-0.249176,-0.2783203,0.927597,1.0,-0.3160858,-0.3091736,0.8969269,-32.29112,-0.631546,-27.16389,4.547394000000001,0.571303,0.6416149999999999,1.0,-0.2240143,-0.266449,0.937439,32.12645,1.966949,-28.59491,4.076691,0.5434829999999999,0.5471889,0.342033,0.5360239,0.1331602,0.1751165,0.68408,-0.2319837999999999,0.5268623,103.7354,32.31
4,-0.249176,-0.2783203,0.927597,1.0,-0.3160858,-0.3091736,0.8969269,-32.29112,-0.631546,-27.16389,4.547394000000001,0.571303,0.6416149999999999,1.0,-0.2240143,-0.266449,0.937439,32.12645,1.966949,-28.59491,4.076691,0.5434829999999999,0.5471889,0.342033,0.5360239,0.1331602,0.1751165,0.68408,-0.2319837999999999,0.5268623,103.7354,32.31
4,-0.2553711,-0.2756805,0.9266968,1.0,-0.2951813,-0.2735138,0.9154358,-32.17622,-0.3289795,-27.06718,4.590225,0.5646797,0.6255138000000001,1.0,-0.2066802999999999,-0.2776642,0.9381714,32.46127,2.199707,-28.47179,4.033218,0.530172,0.5393634,0.3431877,0.5295674,0.1276768,0.1894897,0.6919512,-0.2400092,0.5268623,103.7354,32.31
4,-0.2553711,-0.2756805,0.9266968,1.0,-0.2951813,-0.2735138,0.9154358,-32.17622,-0.3289795,-27.06718,4.590225,0.5646797,0.6255138000000001,1.0,-0.2066802999999999,-0.2776642,0.9381714,32.46127,2.199707,-28.47179,4.033218,0.530172,0.5393634,0.3431877,0.5295674,0.1276768,0.1894897,0.6919512,-0.2400092,0.5268623,103.7354,32.31
4,-0.2553711,-0.2756805,0.9266968,1.0,-0.2951813,-0.2735138,0.9154358,-32.17622,-0.3289795,-27.06718,4.590225,0.5646797,0.6255138000000001,1.0,-0.2066802999999999,-0.2776642,0.9381714,32.46127,2.199707,-28.47179,4.033218,0.530172,0.5393634,0.3431877,0.5295674,0.1276768,0.1894897,0.6919512,-0.2400092,0.5268623,103.7354,32.31
4,-0.2221222,-0.2249603,0.9487,1.0,-0.2523804,-0.2127837999999999,0.9439392,-32.016890000000004,-0.1415862999999999,-26.97975,4.477661,0.5539255999999999,0.6102406,1.0,-0.1940613,-0.2359772,0.952179,32.73291,2.370026,-28.38249,4.116776,0.5194015999999999,0.5273669,0.3436597,0.5278714,0.1258109999999999,0.191192,0.6948647,-0.2426919,0.5268623,103.7354,32.31
4,-0.2221222,-0.2249603,0.9487,1.0,-0.2523804,-0.2127837999999999,0.9439392,-32.016890000000004,-0.1415862999999999,-26.97975,4.477661,0.5539255999999999,0.6102406,1.0,-0.1940613,-0.2359772,0.952179,32.73291,2.370026,-28.38249,4.116776,0.5194015999999999,0.5273669,0.3436597,0.5278714,0.1258109999999999,0.191192,0.6948647,-0.2426919,0.5268623,103.7354,32.31
4,-0.2221222,-0.2249603,0.9487,1.0,-0.2523804,-0.2127837999999999,0.9439392,-32.016890000000004,-0.1415862999999999,-26.97975,4.477661,0.5539255999999999,0.6102406,1.0,-0.1940613,-0.2359772,0.952179,32.73291,2.370026,-28.38249,4.116776,0.5194015999999999,0.5273669,0.3436597,0.5278714,0.1258109999999999,0.191192,0.6948647,-0.2426919,0.5268623,103.7354,32.31
4,-0.1889648,-0.212204,0.9587708,1.0,-0.2297821,-0.1890411,0.9546966999999998,-31.963990000000003,-0.1425476,-26.96213,4.597595,0.5494263,0.6070793000000001,1.0,-0.1515045,-0.2328491,0.9606323,32.849059999999994,2.434311,-28.3259,3.969711,0.5107195999999999,0.5238845999999999,0.3433364,0.5269786,0.1244148,0.1936848,0.6967978,-0.2470936,0.5268623,103.7354,32.31
4,-0.1889648,-0.212204,0.9587708,1.0,-0.2297821,-0.1890411,0.9546966999999998,-31.963990000000003,-0.1425476,-26.96213,4.597595,0.5494263,0.6070793000000001,1.0,-0.1515045,-0.2328491,0.9606323,32.849059999999994,2.434311,-28.3259,3.969711,0.5107195999999999,0.5238845999999999,0.3433364,0.5269786,0.1244148,0.1936848,0.6967978,-0.2470936,0.5268623,103.7354,32.31
4,-0.1889648,-0.212204,0.9587708,1.0,-0.2297821,-0.1890411,0.9546966999999998,-31.963990000000003,-0.1425476,-26.96213,4.597595,0.5494263,0.6070793000000001,1.0,-0.1515045,-0.2328491,0.9606323,32.849059999999994,2.434311,-28.3259,3.969711,0.5107195999999999,0.5238845999999999,0.3433364,0.5269786,0.1244148,0.1936848,0.6967978,-0.2470936,0.5268623,103.7354,32.31
4,-0.1614075,-0.1719359999999999,0.9717865,1.0,-0.2046509,-0.181427,0.9618683,-31.88512,-0.1546477999999999,-26.94252,4.5418400000000005,0.5437295,0.6061776999999999,1.0,-0.1249083999999999,-0.1637115,0.9785614,32.92017,2.454971,-28.30769,4.13414,0.5050253,0.5143438,0.3438489,0.5271816999999999,0.1233895,0.192938,0.6991704000000001,-0.2471002,0.5268623,103.7354,32.31
4,-0.1614075,-0.1719359999999999,0.9717865,1.0,-0.2046509,-0.181427,0.9618683,-31.88512,-0.1546477999999999,-26.94252,4.5418400000000005,0.5437295,0.6061776999999999,1.0,-0.1249083999999999,-0.1637115,0.9785614,32.92017,2.454971,-28.30769,4.13414,0.5050253,0.5143438,0.3438489,0.5271816999999999,0.1233895,0.192938,0.6991704000000001,-0.2471002,0.5268623,103.7354,32.31
4,-0.1614075,-0.1719359999999999,0.9717865,1.0,-0.2046509,-0.181427,0.9618683,-31.88512,-0.1546477999999999,-26.94252,4.5418400000000005,0.5437295,0.6061776999999999,1.0,-0.1249083999999999,-0.1637115,0.9785614,32.92017,2.454971,-28.30769,4.13414,0.5050253,0.5143438,0.3438489,0.5271816999999999,0.1233895,0.192938,0.6991704000000001,-0.2471002,0.5268623,103.7354,32.31
4,-0.1586609,-0.1771698,0.9712982,1.0,-0.1934662,-0.185791,0.9633484,-31.84332,-0.06588745,-26.92288,4.50148,0.5409712,0.6034,1.0,-0.1280365,-0.1694489,0.9771729,32.966840000000005,2.525772,-28.292140000000003,4.099075,0.5038717,0.5125219,0.3443933,0.5279106,0.122771,0.1908268,0.7013756999999999,-0.2455929,0.5268623,26.19464,32.31
4,-0.1586609,-0.1771698,0.9712982,1.0,-0.1934662,-0.185791,0.9633484,-31.84332,-0.06588745,-26.92288,4.50148,0.5409712,0.6034,1.0,-0.1280365,-0.1694489,0.9771729,32.966840000000005,2.525772,-28.292140000000003,4.099075,0.5038717,0.5125219,0.3443933,0.5279106,0.122771,0.1908268,0.7013756999999999,-0.2455929,0.5268623,26.19464,32.31
