Second,eye_comb_direction_x,eye_comb_direction_y,eye_comb_direction_z,eye_r_openness,eye_r_direction_x,eye_r_direction_y,eye_r_direction_z,eye_r_origin_x,eye_r_origin_y,eye_r_origin_z,eye_r_pupil_diameter,eye_r_pupil_position_x,eye_r_pupil_position_y,eye_l_openness,eye_l_direction_x,eye_l_direction_y,eye_l_direction_z,eye_l_origin_x,eye_l_origin_y,eye_l_origin_z,eye_l_pupil_diameter,eye_l_pupil_position_x,eye_l_pupil_position_y,head_position_x,head_position_y,head_position_z,head_rotation_roll,head_rotation_pitch,head_rotation_yaw,EDA,BVP,TMP
0,-0.01875305,-0.1814575,0.9832153,0.1,-0.03695679,-0.1672973999999999,0.985199,-32.40732,1.457504,-20.81699,5.938004,0.5222682,0.4931342000000001,0.1,-0.004348755,-0.1925964,0.9812622,37.23514,3.4184879999999995,-20.12381,6.369095,0.3527640999999999,0.4257842,-0.2997862,1.190755,0.1047786,-0.07854122,0.7516911000000001,0.009209637,0,0,0
0,-0.01875305,-0.1814575,0.9832153,0.1,-0.03695679,-0.1672973999999999,0.985199,-32.40732,1.457504,-20.81699,5.938004,0.5222682,0.4931342000000001,0.1,-0.004348755,-0.1925964,0.9812622,37.23514,3.4184879999999995,-20.12381,6.369095,0.3527640999999999,0.4257842,-0.2997862,1.190755,0.1047786,-0.07854122,0.7516911000000001,0.009209637,0,0,0
0,-0.01875305,-0.1814575,0.9832153,0.1,-0.03695679,-0.1672973999999999,0.985199,-32.40732,1.457504,-20.81699,5.938004,0.5222682,0.4931342000000001,0.1,-0.004348755,-0.1925964,0.9812622,37.23514,3.4184879999999995,-20.12381,6.369095,0.3527640999999999,0.4257842,-0.2997862,1.190755,0.1047786,-0.07854122,0.7516911000000001,0.009209637,0,0,0
0,-0.01875305,-0.1814575,0.9832153,0.1,-0.03695679,-0.1672973999999999,0.985199,-32.40732,1.457504,-20.81699,5.938004,0.5222682,0.4931342000000001,0.1,-0.004348755,-0.1925964,0.9812622,37.23514,3.4184879999999995,-20.12381,6.369095,0.3527640999999999,0.4257842,-0.2997862,1.190755,0.1047786,-0.07854122,0.7516911000000001,0.009209637,0,0,0
0,0.06465149,-0.1208038,0.9905548,0.1,0.02720642,-0.05198669,0.9982758,-31.59906,2.159271,-21.84628,5.833054,0.4870313,0.4610159,0.1,0.06520081,-0.1218262,0.9904022,37.78491,3.968109,-19.93661,6.337585,0.3244605,0.3950335,-0.2997636,1.190621,0.1048436,-0.07791391,0.7515430999999999,0.008753813,0,0,0
0,0.06465149,-0.1208038,0.9905548,0.1,0.02720642,-0.05198669,0.9982758,-31.59906,2.159271,-21.84628,5.833054,0.4870313,0.4610159,0.1,0.06520081,-0.1218262,0.9904022,37.78491,3.968109,-19.93661,6.337585,0.3244605,0.3950335,-0.2997636,1.190621,0.1048436,-0.07791391,0.7515430999999999,0.008753813,0,0,0
0,0.06465149,-0.1208038,0.9905548,0.1,0.02720642,-0.05198669,0.9982758,-31.59906,2.159271,-21.84628,5.833054,0.4870313,0.4610159,0.1,0.06520081,-0.1218262,0.9904022,37.78491,3.968109,-19.93661,6.337585,0.3244605,0.3950335,-0.2997636,1.190621,0.1048436,-0.07791391,0.7515430999999999,0.008753813,0,0,0
0,0.08694458,-0.0466156,0.9951171999999998,0.1,0.03684998,-0.04022217,0.9985046,-31.4996,2.287827,-22.2001,5.821716,0.4823976,0.4580079000000001,0.1,0.08695984,-0.0466156,0.9951171999999998,37.87071,4.021255,-19.99358,6.512222,0.3183627999999999,0.3820275999999999,-0.2996716,1.190824,0.1048308,-0.07799342,0.7513884,0.008962405,0,0,0
0,0.08694458,-0.0466156,0.9951171999999998,0.1,0.03684998,-0.04022217,0.9985046,-31.4996,2.287827,-22.2001,5.821716,0.4823976,0.4580079000000001,0.1,0.08695984,-0.0466156,0.9951171999999998,37.87071,4.021255,-19.99358,6.512222,0.3183627999999999,0.3820275999999999,-0.2996716,1.190824,0.1048308,-0.07799342,0.7513884,0.008962405,0,0,0
0,0.08694458,-0.0466156,0.9951171999999998,0.1,0.03684998,-0.04022217,0.9985046,-31.4996,2.287827,-22.2001,5.821716,0.4823976,0.4580079000000001,0.1,0.08695984,-0.0466156,0.9951171999999998,37.87071,4.021255,-19.99358,6.512222,0.3183627999999999,0.3820275999999999,-0.2996716,1.190824,0.1048308,-0.07799342,0.7513884,0.008962405,0,0,0
0,0.08403015,-0.06228638,0.9945068,0.1,0.02848816,-0.05052185,0.9983063,-31.52727,2.262543,-22.03021,5.740952,0.4845510999999999,0.4589778,0.1,0.08403015,-0.06228638,0.9945068,37.94986,4.020676,-19.91023,6.346634,0.3162912,0.3837047,-0.2996804,1.191042,0.1048665,-0.07867146,0.7512042,0.009480708,0,0,0
0,0.08403015,-0.06228638,0.9945068,0.1,0.02848816,-0.05052185,0.9983063,-31.52727,2.262543,-22.03021,5.740952,0.4845510999999999,0.4589778,0.1,0.08403015,-0.06228638,0.9945068,37.94986,4.020676,-19.91023,6.346634,0.3162912,0.3837047,-0.2996804,1.191042,0.1048665,-0.07867146,0.7512042,0.009480708,0,0,0
0,0.08403015,-0.06228638,0.9945068,0.1,0.02848816,-0.05052185,0.9983063,-31.52727,2.262543,-22.03021,5.740952,0.4845510999999999,0.4589778,0.1,0.08403015,-0.06228638,0.9945068,37.94986,4.020676,-19.91023,6.346634,0.3162912,0.3837047,-0.2996804,1.191042,0.1048665,-0.07867146,0.7512042,0.009480708,0,0,0
0,0.08152771,-0.0662383999999999,0.9944611,0.1,0.03065491,-0.05540466,0.9979858,-31.531740000000003,2.256439,-22.03691,5.721039,0.4843571,0.4599842,0.1,0.08322144,-0.06658936,0.9942932,37.95975,3.98378,-19.8147,6.207351999999999,0.3163478,0.3848607999999999,-0.2996902999999999,1.191058,0.10495,-0.07872603,0.7510689,0.009180061,0,0,0
0,0.08152771,-0.0662383999999999,0.9944611,0.1,0.03065491,-0.05540466,0.9979858,-31.531740000000003,2.256439,-22.03691,5.721039,0.4843571,0.4599842,0.1,0.08322144,-0.06658936,0.9942932,37.95975,3.98378,-19.8147,6.207351999999999,0.3163478,0.3848607999999999,-0.2996902999999999,1.191058,0.10495,-0.07872603,0.7510689,0.009180061,0,0,0
0,0.08152771,-0.0662383999999999,0.9944611,0.1,0.03065491,-0.05540466,0.9979858,-31.531740000000003,2.256439,-22.03691,5.721039,0.4843571,0.4599842,0.1,0.08322144,-0.06658936,0.9942932,37.95975,3.98378,-19.8147,6.207351999999999,0.3163478,0.3848607999999999,-0.2996902999999999,1.191058,0.10495,-0.07872603,0.7510689,0.009180061,0,0,0
0,0.03132629,-0.05513,0.9979858,0.1,0.03042603,-0.05508423,0.9980164,-31.56023,2.091232,-21.84412,5.677855999999999,0.4852667,0.4635694999999999,0.1,0.07415771,-0.05711365,0.9956055,37.97713,3.823807,-19.71144,6.343735,0.3173098,0.3877457,-0.2997482999999999,1.190994,0.1050479,-0.07839472,0.7508938000000001,0.00875594,0,0,0
0,0.03132629,-0.05513,0.9979858,0.1,0.03042603,-0.05508423,0.9980164,-31.56023,2.091232,-21.84412,5.677855999999999,0.4852667,0.4635694999999999,0.1,0.07415771,-0.05711365,0.9956055,37.97713,3.823807,-19.71144,6.343735,0.3173098,0.3877457,-0.2997482999999999,1.190994,0.1050479,-0.07839472,0.7508938000000001,0.00875594,0,0,0
0,0.03132629,-0.05513,0.9979858,0.1,0.03042603,-0.05508423,0.9980164,-31.56023,2.091232,-21.84412,5.677855999999999,0.4852667,0.4635694999999999,0.1,0.07415771,-0.05711365,0.9956055,37.97713,3.823807,-19.71144,6.343735,0.3173098,0.3877457,-0.2997482999999999,1.190994,0.1050479,-0.07839472,0.7508938000000001,0.00875594,0,0,0
0,0.05200195,-0.056427,0.9970398,0.1,0.03178406,-0.05557251,0.9979401,-31.56273,2.091232,-21.83725,5.651077,0.4851344,0.4635694999999999,0.1,0.07679749,-0.0574646,0.9953766,37.98074,3.819794,-19.68872,6.3162080000000005,0.3168252,0.3877457,-0.2998465,1.191096,0.105194,-0.07883219,0.7506885,0.009354919,0,0,0
0,0.05200195,-0.056427,0.9970398,0.1,0.03178406,-0.05557251,0.9979401,-31.56273,2.091232,-21.83725,5.651077,0.4851344,0.4635694999999999,0.1,0.07679749,-0.0574646,0.9953766,37.98074,3.819794,-19.68872,6.3162080000000005,0.3168252,0.3877457,-0.2998465,1.191096,0.105194,-0.07883219,0.7506885,0.009354919,0,0,0
0,0.05200195,-0.056427,0.9970398,0.1,0.03178406,-0.05557251,0.9979401,-31.56273,2.091232,-21.83725,5.651077,0.4851344,0.4635694999999999,0.1,0.07679749,-0.0574646,0.9953766,37.98074,3.819794,-19.68872,6.3162080000000005,0.3168252,0.3877457,-0.2998465,1.191096,0.105194,-0.07883219,0.7506885,0.009354919,0,0,0
1,0.05545044,-0.06121826,0.996582,0.1,0.03225708,-0.05726624,0.9978333,-31.56502,2.1094060000000003,-21.8409,5.6367650000000005,0.4851366,0.4632838999999999,0.1,0.06993103,-0.06365967,0.9955139,38.00003,3.878204,-19.63869,6.309799,0.3173415999999999,0.3864549,-0.299903,1.191151,0.1053588,-0.07902132,0.7506626000000001,0.009412484,0,0,0
1,0.05545044,-0.06121826,0.996582,0.1,0.03225708,-0.05726624,0.9978333,-31.56502,2.1094060000000003,-21.8409,5.6367650000000005,0.4851366,0.4632838999999999,0.1,0.06993103,-0.06365967,0.9955139,38.00003,3.878204,-19.63869,6.309799,0.3173415999999999,0.3864549,-0.299903,1.191151,0.1053588,-0.07902132,0.7506626000000001,0.009412484,0,0,0
1,0.05545044,-0.06121826,0.996582,0.1,0.03225708,-0.05726624,0.9978333,-31.56502,2.1094060000000003,-21.8409,5.6367650000000005,0.4851366,0.4632838999999999,0.1,0.06993103,-0.06365967,0.9955139,38.00003,3.878204,-19.63869,6.309799,0.3173415999999999,0.3864549,-0.299903,1.191151,0.1053588,-0.07902132,0.7506626000000001,0.009412484,0,0,0
1,0.04801941,-0.06190491,0.9969177,0.1,0.03120422,-0.06018066,0.9976959,-31.56923,2.1185,-21.81744,5.626587000000001,0.4854314,0.4632505,0.1,0.06837463,-0.0639801,0.9956055,37.99826,3.865021,-19.62842,6.288544,0.3176629,0.3868501,-0.2999575,1.191066,0.1055288,-0.07815517,0.7506508000000001,0.009532042,0,0,0
1,0.04801941,-0.06190491,0.9969177,0.1,0.03120422,-0.06018066,0.9976959,-31.56923,2.1185,-21.81744,5.626587000000001,0.4854314,0.4632505,0.1,0.06837463,-0.0639801,0.9956055,37.99826,3.865021,-19.62842,6.288544,0.3176629,0.3868501,-0.2999575,1.191066,0.1055288,-0.07815517,0.7506508000000001,0.009532042,0,0,0
1,0.04801941,-0.06190491,0.9969177,0.1,0.03120422,-0.06018066,0.9976959,-31.56923,2.1185,-21.81744,5.626587000000001,0.4854314,0.4632505,0.1,0.06837463,-0.0639801,0.9956055,37.99826,3.865021,-19.62842,6.288544,0.3176629,0.3868501,-0.2999575,1.191066,0.1055288,-0.07815517,0.7506508000000001,0.009532042,0,0,0
1,0.04943848,-0.06001282,0.9969635,0.1,0.03068542,-0.0592804,0.997757,-31.57588,2.104874,-21.78697,5.618515,0.4857198,0.4632838999999999,0.1,0.0668335,-0.0606842,0.9959106,37.99582,3.835663,-19.62447,6.299118,0.3179843,0.3872474999999999,-0.2999381,1.191074,0.1055191,-0.07787053,0.7507218000000001,0.00982647,0,0,0
1,0.04943848,-0.06001282,0.9969635,0.1,0.03068542,-0.0592804,0.997757,-31.57588,2.104874,-21.78697,5.618515,0.4857198,0.4632838999999999,0.1,0.0668335,-0.0606842,0.9959106,37.99582,3.835663,-19.62447,6.299118,0.3179843,0.3872474999999999,-0.2999381,1.191074,0.1055191,-0.07787053,0.7507218000000001,0.00982647,0,0,0
1,0.04943848,-0.06001282,0.9969635,0.1,0.03068542,-0.0592804,0.997757,-31.57588,2.104874,-21.78697,5.618515,0.4857198,0.4632838999999999,0.1,0.0668335,-0.0606842,0.9959106,37.99582,3.835663,-19.62447,6.299118,0.3179843,0.3872474999999999,-0.2999381,1.191074,0.1055191,-0.07787053,0.7507218000000001,0.00982647,0,0,0
1,0.05085754,-0.06111145,0.9968262,0.1,0.03236389,-0.06132507,0.9975891,-31.58693,2.104874,-21.78224,5.605988,0.4858107,0.4635637999999999,0.1,0.0670929,-0.06089783,0.9958801,37.99483,3.835663,-19.62227,6.281937,0.3179843,0.3872501,-0.2999479,1.191011,0.1055048,-0.07777551,0.7508773,0.009811674,0,0,0
1,0.05085754,-0.06111145,0.9968262,0.1,0.03236389,-0.06132507,0.9975891,-31.58693,2.104874,-21.78224,5.605988,0.4858107,0.4635637999999999,0.1,0.0670929,-0.06089783,0.9958801,37.99483,3.835663,-19.62227,6.281937,0.3179843,0.3872501,-0.2999479,1.191011,0.1055048,-0.07777551,0.7508773,0.009811674,0,0,0
1,0.05085754,-0.06111145,0.9968262,0.1,0.03236389,-0.06132507,0.9975891,-31.58693,2.104874,-21.78224,5.605988,0.4858107,0.4635637999999999,0.1,0.0670929,-0.06089783,0.9958801,37.99483,3.835663,-19.62227,6.281937,0.3179843,0.3872501,-0.2999479,1.191011,0.1055048,-0.07777551,0.7508773,0.009811674,0,0,0
1,0.05003357,-0.06436157,0.9966583,0.1,0.0328064,-0.06488037,0.997345,-31.59784,2.104874,-21.72874,5.596146,0.4860862,0.4636768,0.1,0.06375122,-0.06393433,0.9959106,37.99452,3.844238,-19.59833,6.252228,0.3185514,0.3872596,-0.2998534,1.1909379999999998,0.1054024,-0.07779117,0.7512133000000001,0.0095566319999999,0,0,0
1,0.05003357,-0.06436157,0.9966583,0.1,0.0328064,-0.06488037,0.997345,-31.59784,2.104874,-21.72874,5.596146,0.4860862,0.4636768,0.1,0.06375122,-0.06393433,0.9959106,37.99452,3.844238,-19.59833,6.252228,0.3185514,0.3872596,-0.2998534,1.1909379999999998,0.1054024,-0.07779117,0.7512133000000001,0.0095566319999999,0,0,0
1,0.05003357,-0.06436157,0.9966583,0.1,0.0328064,-0.06488037,0.997345,-31.59784,2.104874,-21.72874,5.596146,0.4860862,0.4636768,0.1,0.06375122,-0.06393433,0.9959106,37.99452,3.844238,-19.59833,6.252228,0.3185514,0.3872596,-0.2998534,1.1909379999999998,0.1054024,-0.07779117,0.7512133000000001,0.0095566319999999,0,0,0
1,0.05055237,-0.06610107,0.996521,0.1,0.03475952,-0.06576538,0.9972229,-31.61269,2.09343,-21.68665,5.549332,0.4862508,0.4638007999999999,0.1,0.0632019,-0.06634521,0.9957886,37.99452,3.844025,-19.58801,6.223083,0.3186604,0.3875689,-0.2998388,1.190952,0.1054465,-0.07800418,0.7513568,0.009724339,0,0,0
1,0.05055237,-0.06610107,0.996521,0.1,0.03475952,-0.06576538,0.9972229,-31.61269,2.09343,-21.68665,5.549332,0.4862508,0.4638007999999999,0.1,0.0632019,-0.06634521,0.9957886,37.99452,3.844025,-19.58801,6.223083,0.3186604,0.3875689,-0.2998388,1.190952,0.1054465,-0.07800418,0.7513568,0.009724339,0,0,0
1,0.05055237,-0.06610107,0.996521,0.1,0.03475952,-0.06576538,0.9972229,-31.61269,2.09343,-21.68665,5.549332,0.4862508,0.4638007999999999,0.1,0.0632019,-0.06634521,0.9957886,37.99452,3.844025,-19.58801,6.223083,0.3186604,0.3875689,-0.2998388,1.190952,0.1054465,-0.07800418,0.7513568,0.009724339,0,0,0
1,-0.008529663,-0.2034912,0.9790344,0.1,-0.0342865,-0.2008972,0.9790039,-32.07448,1.439362,-21.51671,5.522507,0.5114814999999999,0.50495,0.1,-0.004394531,-0.2039032,0.9789734,37.02461,3.125702,-19.90732,5.823303,0.3598587,0.4352362,-0.2996785999999999,1.191099,0.1053224,-0.078414,0.7514625,0.009926051,0,0,0
1,-0.008529663,-0.2034912,0.9790344,0.1,-0.0342865,-0.2008972,0.9790039,-32.07448,1.439362,-21.51671,5.522507,0.5114814999999999,0.50495,0.1,-0.004394531,-0.2039032,0.9789734,37.02461,3.125702,-19.90732,5.823303,0.3598587,0.4352362,-0.2996785999999999,1.191099,0.1053224,-0.078414,0.7514625,0.009926051,0,0,0
1,-0.008529663,-0.2034912,0.9790344,0.1,-0.0342865,-0.2008972,0.9790039,-32.07448,1.439362,-21.51671,5.522507,0.5114814999999999,0.50495,0.1,-0.004394531,-0.2039032,0.9789734,37.02461,3.125702,-19.90732,5.823303,0.3598587,0.4352362,-0.2996785999999999,1.191099,0.1053224,-0.078414,0.7514625,0.009926051,0,0,0
1,-0.008529663,-0.2034912,0.9790344,0.1,-0.0342865,-0.2008972,0.9790039,-32.07448,1.439362,-21.51671,5.522507,0.5114814999999999,0.50495,0.1,-0.004394531,-0.2039032,0.9789734,37.02461,3.125702,-19.90732,5.823303,0.3598587,0.4352362,-0.2997184,1.191052,0.1053906,-0.07874004,0.7513550999999999,0.009863931,0,0,0
1,-0.008529663,-0.2034912,0.9790344,0.1,-0.0342865,-0.2008972,0.9790039,-32.07448,1.439362,-21.51671,5.522507,0.5114814999999999,0.50495,0.1,-0.004394531,-0.2039032,0.9789734,37.02461,3.125702,-19.90732,5.823303,0.3598587,0.4352362,-0.2997184,1.191052,0.1053906,-0.07874004,0.7513550999999999,0.009863931,0,0,0
1,-0.008529663,-0.2034912,0.9790344,0.1,-0.0342865,-0.2008972,0.9790039,-32.07448,1.439362,-21.51671,5.522507,0.5114814999999999,0.50495,0.1,-0.004394531,-0.2039032,0.9789734,37.02461,3.125702,-19.90732,5.823303,0.3598587,0.4352362,-0.2997184,1.191052,0.1053906,-0.07874004,0.7513550999999999,0.009863931,0,0,0
1,-0.008529663,-0.2034912,0.9790344,0.1,-0.0342865,-0.2008972,0.9790039,-32.07448,1.439362,-21.51671,5.522507,0.5114814999999999,0.50495,0.1,-0.004394531,-0.2039032,0.9789734,37.02461,3.125702,-19.90732,5.823303,0.3598587,0.4352362,-0.2996445,1.190915,0.105505,-0.07835241,0.7511572,0.009342966,0,0,0
1,-0.008529663,-0.2034912,0.9790344,0.1,-0.0342865,-0.2008972,0.9790039,-32.07448,1.439362,-21.51671,5.522507,0.5114814999999999,0.50495,0.1,-0.004394531,-0.2039032,0.9789734,37.02461,3.125702,-19.90732,5.823303,0.3598587,0.4352362,-0.2996445,1.190915,0.105505,-0.07835241,0.7511572,0.009342966,0,0,0
1,-0.008529663,-0.2034912,0.9790344,0.1,-0.0342865,-0.2008972,0.9790039,-32.07448,1.439362,-21.51671,5.522507,0.5114814999999999,0.50495,0.1,-0.004394531,-0.2039032,0.9789734,37.02461,3.125702,-19.90732,5.823303,0.3598587,0.4352362,-0.2996445,1.190915,0.105505,-0.07835241,0.7511572,0.009342966,0,0,0
1,-0.05258179,-0.3034821,0.9513702,0.1,-0.05461121,-0.2987212999999999,0.952774,-32.20367,1.2117,-21.63148,5.226456,0.5187394000000001,0.5294827,0.1,-0.04219055,-0.3275299,0.9438934,36.94286,2.929581,-19.98061,5.7202,0.3678522999999999,0.462578,-0.2996076,1.190878,0.1056545,-0.07805793,0.7507246,0.009421582,0,0,0
1,-0.05258179,-0.3034821,0.9513702,0.1,-0.05461121,-0.2987212999999999,0.952774,-32.20367,1.2117,-21.63148,5.226456,0.5187394000000001,0.5294827,0.1,-0.04219055,-0.3275299,0.9438934,36.94286,2.929581,-19.98061,5.7202,0.3678522999999999,0.462578,-0.2996076,1.190878,0.1056545,-0.07805793,0.7507246,0.009421582,0,0,0
1,-0.05258179,-0.3034821,0.9513702,0.1,-0.05461121,-0.2987212999999999,0.952774,-32.20367,1.2117,-21.63148,5.226456,0.5187394000000001,0.5294827,0.1,-0.04219055,-0.3275299,0.9438934,36.94286,2.929581,-19.98061,5.7202,0.3678522999999999,0.462578,-0.2996076,1.190878,0.1056545,-0.07805793,0.7507246,0.009421582,0,0,0
1,-0.03993225,-0.28685,0.9571381,0.1,-0.03736877,-0.2839508,0.9580994,-32.25282,1.165176,-21.62494,5.082382,0.5176662000000001,0.5283918000000001,0.1,-0.04016113,-0.2870940999999999,0.9570465,37.04973,2.850403,-19.99405,5.577148,0.3642116,0.4584590999999999,-0.2996612999999999,1.190908,0.1058163,-0.07783694,0.7503138,0.009424745,0,0,0
1,-0.03993225,-0.28685,0.9571381,0.1,-0.03736877,-0.2839508,0.9580994,-32.25282,1.165176,-21.62494,5.082382,0.5176662000000001,0.5283918000000001,0.1,-0.04016113,-0.2870940999999999,0.9570465,37.04973,2.850403,-19.99405,5.577148,0.3642116,0.4584590999999999,-0.2996612999999999,1.190908,0.1058163,-0.07783694,0.7503138,0.009424745,0,0,0
1,-0.03993225,-0.28685,0.9571381,0.1,-0.03736877,-0.2839508,0.9580994,-32.25282,1.165176,-21.62494,5.082382,0.5176662000000001,0.5283918000000001,0.1,-0.04016113,-0.2870940999999999,0.9570465,37.04973,2.850403,-19.99405,5.577148,0.3642116,0.4584590999999999,-0.2996612999999999,1.190908,0.1058163,-0.07783694,0.7503138,0.009424745,0,0,0
1,-0.043396,-0.2883301,0.956543,0.1,-0.04524231,-0.27771,0.9595947,-32.288540000000005,1.179733,-21.61792,5.005661,0.5200353,0.5268438,0.1,-0.04148865,-0.2992554,0.9532623,37.05251,2.882141,-19.98582,5.454848999999999,0.3643347,0.4594277,-0.2997329,1.190807,0.1060654,-0.07688124,0.7497409,0.008681594,0,0,0
1,-0.043396,-0.2883301,0.956543,0.1,-0.04524231,-0.27771,0.9595947,-32.288540000000005,1.179733,-21.61792,5.005661,0.5200353,0.5268438,0.1,-0.04148865,-0.2992554,0.9532623,37.05251,2.882141,-19.98582,5.454848999999999,0.3643347,0.4594277,-0.2997329,1.190807,0.1060654,-0.07688124,0.7497409,0.008681594,0,0,0
1,-0.043396,-0.2883301,0.956543,0.1,-0.04524231,-0.27771,0.9595947,-32.288540000000005,1.179733,-21.61792,5.005661,0.5200353,0.5268438,0.1,-0.04148865,-0.2992554,0.9532623,37.05251,2.882141,-19.98582,5.454848999999999,0.3643347,0.4594277,-0.2997329,1.190807,0.1060654,-0.07688124,0.7497409,0.008681594,0,0,0
1,-0.04319763,-0.2890778,0.9563141,0.1,-0.04220581,-0.2774506,0.9598083,-32.309940000000005,1.162643,-21.61862,4.935471,0.5202565,0.5273455,0.1,-0.04418945,-0.3007355,0.9526671999999998,37.05147,2.865402,-19.98944,5.402618,0.3647867,0.4602455,-0.2995791,1.190958,0.1062315,-0.07694851,0.7492665,0.008500775,0,0,0
1,-0.04319763,-0.2890778,0.9563141,0.1,-0.04220581,-0.2774506,0.9598083,-32.309940000000005,1.162643,-21.61862,4.935471,0.5202565,0.5273455,0.1,-0.04418945,-0.3007355,0.9526671999999998,37.05147,2.865402,-19.98944,5.402618,0.3647867,0.4602455,-0.2995791,1.190958,0.1062315,-0.07694851,0.7492665,0.008500775,0,0,0
1,-0.04319763,-0.2890778,0.9563141,0.1,-0.04220581,-0.2774506,0.9598083,-32.309940000000005,1.162643,-21.61862,4.935471,0.5202565,0.5273455,0.1,-0.04418945,-0.3007355,0.9526671999999998,37.05147,2.865402,-19.98944,5.402618,0.3647867,0.4602455,-0.2995791,1.190958,0.1062315,-0.07694851,0.7492665,0.008500775,0,0,0
1,-0.04408264,-0.3641968,0.9302673,0.1,-0.04118347,-0.3478241,0.9366455,-32.352509999999995,0.9624176,-21.67493,4.535568,0.5214875,0.5463018,0.1,-0.04786682,-0.3855133,0.9214478000000002,36.90811,2.716064,-20.07742,4.949631,0.3696719,0.4803661,-0.2995764999999999,1.191052,0.1062476,-0.07768171,0.7492988,0.008431693,0,0,0
1,-0.04408264,-0.3641968,0.9302673,0.1,-0.04118347,-0.3478241,0.9366455,-32.352509999999995,0.9624176,-21.67493,4.535568,0.5214875,0.5463018,0.1,-0.04786682,-0.3855133,0.9214478000000002,36.90811,2.716064,-20.07742,4.949631,0.3696719,0.4803661,-0.2995764999999999,1.191052,0.1062476,-0.07768171,0.7492988,0.008431693,0,0,0
1,-0.04408264,-0.3641968,0.9302673,0.1,-0.04118347,-0.3478241,0.9366455,-32.352509999999995,0.9624176,-21.67493,4.535568,0.5214875,0.5463018,0.1,-0.04786682,-0.3855133,0.9214478000000002,36.90811,2.716064,-20.07742,4.949631,0.3696719,0.4803661,-0.2995764999999999,1.191052,0.1062476,-0.07768171,0.7492988,0.008431693,0,0,0
1,-0.04606628,-0.3544769,0.9339142,0.1,-0.04281616,-0.3339233,0.9416199,-32.34558,0.9391327,-21.67523,4.471817,0.5215247000000001,0.5446615,0.1,-0.05024719,-0.3807831,0.9232941,36.91946,2.691589,-20.08121,4.947632,0.3696797,0.4803661,-0.2995885,1.19104,0.106239,-0.0776099,0.7492684000000001,0.008540998,0,0,0
1,-0.04606628,-0.3544769,0.9339142,0.1,-0.04281616,-0.3339233,0.9416199,-32.34558,0.9391327,-21.67523,4.471817,0.5215247000000001,0.5446615,0.1,-0.05024719,-0.3807831,0.9232941,36.91946,2.691589,-20.08121,4.947632,0.3696797,0.4803661,-0.2995885,1.19104,0.106239,-0.0776099,0.7492684000000001,0.008540998,0,0,0
1,-0.04606628,-0.3544769,0.9339142,0.1,-0.04281616,-0.3339233,0.9416199,-32.34558,0.9391327,-21.67523,4.471817,0.5215247000000001,0.5446615,0.1,-0.05024719,-0.3807831,0.9232941,36.91946,2.691589,-20.08121,4.947632,0.3696797,0.4803661,-0.2995885,1.19104,0.106239,-0.0776099,0.7492684000000001,0.008540998,0,0,0
1,-0.04592896,-0.3524627999999999,0.9346924,0.1,-0.03944397,-0.3363037,0.940918,-32.35963,0.9481659,-21.66449,4.456635,0.5214491,0.544683,0.1,-0.05262756,-0.3690643,0.9279022,36.9379,2.678726,-20.07806,4.90094,0.3695055999999999,0.478743,-0.2995314,1.190986,0.1061695,-0.07781357,0.7495156999999999,0.009257245,0,0,0
1,-0.04592896,-0.3524627999999999,0.9346924,0.1,-0.03944397,-0.3363037,0.940918,-32.35963,0.9481659,-21.66449,4.456635,0.5214491,0.544683,0.1,-0.05262756,-0.3690643,0.9279022,36.9379,2.678726,-20.07806,4.90094,0.3695055999999999,0.478743,-0.2995314,1.190986,0.1061695,-0.07781357,0.7495156999999999,0.009257245,0,0,0
1,-0.04592896,-0.3524627999999999,0.9346924,0.1,-0.03944397,-0.3363037,0.940918,-32.35963,0.9481659,-21.66449,4.456635,0.5214491,0.544683,0.1,-0.05262756,-0.3690643,0.9279022,36.9379,2.678726,-20.07806,4.90094,0.3695055999999999,0.478743,-0.2995314,1.190986,0.1061695,-0.07781357,0.7495156999999999,0.009257245,0,0,0
1,-0.04884338,-0.3535309,0.9341278,0.1,-0.03952026,-0.3386078,0.9400787,-32.36363,0.9572906,-21.65495,4.440353,0.521588,0.5447142,0.1,-0.05769348,-0.36763,0.9281616,36.95978,2.676178,-20.0787,4.8720550000000005,0.3695973,0.4786117999999999,-0.2994732,1.19089,0.1059898999999999,-0.07759261,0.7501044,0.0092961969999999,0,0,0
1,-0.04884338,-0.3535309,0.9341278,0.1,-0.03952026,-0.3386078,0.9400787,-32.36363,0.9572906,-21.65495,4.440353,0.521588,0.5447142,0.1,-0.05769348,-0.36763,0.9281616,36.95978,2.676178,-20.0787,4.8720550000000005,0.3695973,0.4786117999999999,-0.2994732,1.19089,0.1059898999999999,-0.07759261,0.7501044,0.0092961969999999,0,0,0
1,-0.04884338,-0.3535309,0.9341278,0.1,-0.03952026,-0.3386078,0.9400787,-32.36363,0.9572906,-21.65495,4.440353,0.521588,0.5447142,0.1,-0.05769348,-0.36763,0.9281616,36.95978,2.676178,-20.0787,4.8720550000000005,0.3695973,0.4786117999999999,-0.2994732,1.19089,0.1059898999999999,-0.07759261,0.7501044,0.0092961969999999,0,0,0
1,-0.04919434,-0.3535919,0.9340973,0.1,-0.03787231,-0.3390960999999999,0.9399719,-32.3752,0.9535675,-21.64888,4.432983,0.5217004,0.5448555,0.1,-0.05987549,-0.3672028,0.9281921,36.96472,2.674973,-20.07967,4.80928,0.3697935999999999,0.4786117999999999,-0.2995292999999999,1.190332,0.1057971,-0.07535096,0.750544,0.008052478,0,0,0
1,-0.04919434,-0.3535919,0.9340973,0.1,-0.03787231,-0.3390960999999999,0.9399719,-32.3752,0.9535675,-21.64888,4.432983,0.5217004,0.5448555,0.1,-0.05987549,-0.3672028,0.9281921,36.96472,2.674973,-20.07967,4.80928,0.3697935999999999,0.4786117999999999,-0.2995292999999999,1.190332,0.1057971,-0.07535096,0.750544,0.008052478,0,0,0
1,-0.04919434,-0.3535919,0.9340973,0.1,-0.03787231,-0.3390960999999999,0.9399719,-32.3752,0.9535675,-21.64888,4.432983,0.5217004,0.5448555,0.1,-0.05987549,-0.3672028,0.9281921,36.96472,2.674973,-20.07967,4.80928,0.3697935999999999,0.4786117999999999,-0.2995292999999999,1.190332,0.1057971,-0.07535096,0.750544,0.008052478,0,0,0
1,-0.04862976,-0.3555145,0.9333954,0.1,-0.03865051,-0.3413085999999999,0.9391479,-32.3752,0.9535675,-21.64281,4.333206,0.5218268,0.5452026999999999,0.1,-0.05828857,-0.3691559,0.9275208,36.96909,2.667114,-20.08151,4.724579,0.3694140999999999,0.4792293999999999,-0.2993697,1.190245,0.1057316,-0.07425197,0.7505646,0.007798182,0,0,0
1,-0.04862976,-0.3555145,0.9333954,0.1,-0.03865051,-0.3413085999999999,0.9391479,-32.3752,0.9535675,-21.64281,4.333206,0.5218268,0.5452026999999999,0.1,-0.05828857,-0.3691559,0.9275208,36.96909,2.667114,-20.08151,4.724579,0.3694140999999999,0.4792293999999999,-0.2993697,1.190245,0.1057316,-0.07425197,0.7505646,0.007798182,0,0,0
1,-0.04862976,-0.3555145,0.9333954,0.1,-0.03865051,-0.3413085999999999,0.9391479,-32.3752,0.9535675,-21.64281,4.333206,0.5218268,0.5452026999999999,0.1,-0.05828857,-0.3691559,0.9275208,36.96909,2.667114,-20.08151,4.724579,0.3694140999999999,0.4792293999999999,-0.2993697,1.190245,0.1057316,-0.07425197,0.7505646,0.007798182,0,0,0
1,-0.04942322,-0.3535461,0.9340973,0.1,-0.03862,-0.3404083,0.9394684,-32.3752,0.9439087,-21.64119,4.251862,0.5218268,0.5453636,0.1,-0.06056213,-0.3669890999999999,0.9282379,37.00209,2.6634830000000003,-20.08318,4.698212,0.3687165,0.4790005,-0.2990254,1.19019,0.1057124,-0.0734949,0.7506325,0.006870184,0,0,0
1,-0.04942322,-0.3535461,0.9340973,0.1,-0.03862,-0.3404083,0.9394684,-32.3752,0.9439087,-21.64119,4.251862,0.5218268,0.5453636,0.1,-0.06056213,-0.3669890999999999,0.9282379,37.00209,2.6634830000000003,-20.08318,4.698212,0.3687165,0.4790005,-0.2990254,1.19019,0.1057124,-0.0734949,0.7506325,0.006870184,0,0,0
1,-0.04942322,-0.3535461,0.9340973,0.1,-0.03862,-0.3404083,0.9394684,-32.3752,0.9439087,-21.64119,4.251862,0.5218268,0.5453636,0.1,-0.06056213,-0.3669890999999999,0.9282379,37.00209,2.6634830000000003,-20.08318,4.698212,0.3687165,0.4790005,-0.2990254,1.19019,0.1057124,-0.0734949,0.7506325,0.006870184,0,0,0
1,-0.05020142,-0.3461609,0.9368134,0.1,-0.03742981,-0.3378754,0.9404296999999998,-32.3752,0.9224701,-21.63855,4.229294,0.5216405,0.5455876000000001,0.1,-0.06333923,-0.3546143,0.9328613,37.0267,2.583252,-20.09305,4.58226,0.3683935,0.4795470999999999,-0.2987479,1.189902,0.1057587,-0.07289035,0.7503446,0.005849831,0,0,0
1,-0.05020142,-0.3461609,0.9368134,0.1,-0.03742981,-0.3378754,0.9404296999999998,-32.3752,0.9224701,-21.63855,4.229294,0.5216405,0.5455876000000001,0.1,-0.06333923,-0.3546143,0.9328613,37.0267,2.583252,-20.09305,4.58226,0.3683935,0.4795470999999999,-0.2987479,1.189902,0.1057587,-0.07289035,0.7503446,0.005849831,0,0,0
1,-0.05020142,-0.3461609,0.9368134,0.1,-0.03742981,-0.3378754,0.9404296999999998,-32.3752,0.9224701,-21.63855,4.229294,0.5216405,0.5455876000000001,0.1,-0.06333923,-0.3546143,0.9328613,37.0267,2.583252,-20.09305,4.58226,0.3683935,0.4795470999999999,-0.2987479,1.189902,0.1057587,-0.07289035,0.7503446,0.005849831,0,0,0
1,-0.04801941,-0.3400574,0.9391632,0.1,-0.0342865,-0.3358002,0.9412994,-32.38916,0.8998870999999999,-21.63394,4.151566000000001,0.5215976,0.5459175,0.1,-0.06581116,-0.345459,0.9361115,37.021640000000005,2.666489,-20.05388,4.550186,0.3690441,0.474996,-0.2985454,1.189837,0.1058769,-0.07329252,0.7499363,0.005711273,0,0,0
1,-0.04801941,-0.3400574,0.9391632,0.1,-0.0342865,-0.3358002,0.9412994,-32.38916,0.8998870999999999,-21.63394,4.151566000000001,0.5215976,0.5459175,0.1,-0.06581116,-0.345459,0.9361115,37.021640000000005,2.666489,-20.05388,4.550186,0.3690441,0.474996,-0.2985454,1.189837,0.1058769,-0.07329252,0.7499363,0.005711273,0,0,0
1,-0.04801941,-0.3400574,0.9391632,0.1,-0.0342865,-0.3358002,0.9412994,-32.38916,0.8998870999999999,-21.63394,4.151566000000001,0.5215976,0.5459175,0.1,-0.06581116,-0.345459,0.9361115,37.021640000000005,2.666489,-20.05388,4.550186,0.3690441,0.474996,-0.2985454,1.189837,0.1058769,-0.07329252,0.7499363,0.005711273,0,0,0
1,-0.04818726,-0.3443909,0.9375763,0.1,-0.03442383,-0.3369750999999999,0.9408722,-32.389790000000005,0.9108734,-21.63213,4.143692,0.5216405,0.5457565,0.1,-0.06642151,-0.3540955,0.9328308,37.01872,2.655182,-20.05945,4.5088040000000005,0.3692074,0.4769087,-0.2984539,1.189493,0.1058433,-0.07238276,0.7497335,0.004981007,0,0,0
1,-0.04818726,-0.3443909,0.9375763,0.1,-0.03442383,-0.3369750999999999,0.9408722,-32.389790000000005,0.9108734,-21.63213,4.143692,0.5216405,0.5457565,0.1,-0.06642151,-0.3540955,0.9328308,37.01872,2.655182,-20.05945,4.5088040000000005,0.3692074,0.4769087,-0.2984539,1.189493,0.1058433,-0.07238276,0.7497335,0.004981007,0,0,0
1,-0.04818726,-0.3443909,0.9375763,0.1,-0.03442383,-0.3369750999999999,0.9408722,-32.389790000000005,0.9108734,-21.63213,4.143692,0.5216405,0.5457565,0.1,-0.06642151,-0.3540955,0.9328308,37.01872,2.655182,-20.05945,4.5088040000000005,0.3692074,0.4769087,-0.2984539,1.189493,0.1058433,-0.07238276,0.7497335,0.004981007,0,0,0
1,0.1840973,-0.3935089,0.9006805,0.1,0.169281,-0.3724823,0.9124603,-31.03607,0.7169800000000001,-21.8412,3.81842,0.4459863,0.5604783,0.1,0.197052,-0.4118042,0.8896941999999999,38.1138,2.507782,-20.26399,4.582901000000001,0.2916427,0.4937074000000001,-0.2982290999999999,1.189277,0.1059527,-0.07093709,0.7494833000000001,0.004524019,0,0,0
1,0.1840973,-0.3935089,0.9006805,0.1,0.169281,-0.3724823,0.9124603,-31.03607,0.7169800000000001,-21.8412,3.81842,0.4459863,0.5604783,0.1,0.197052,-0.4118042,0.8896941999999999,38.1138,2.507782,-20.26399,4.582901000000001,0.2916427,0.4937074000000001,-0.2982290999999999,1.189277,0.1059527,-0.07093709,0.7494833000000001,0.004524019,0,0,0
1,0.1840973,-0.3935089,0.9006805,0.1,0.169281,-0.3724823,0.9124603,-31.03607,0.7169800000000001,-21.8412,3.81842,0.4459863,0.5604783,0.1,0.197052,-0.4118042,0.8896941999999999,38.1138,2.507782,-20.26399,4.582901000000001,0.2916427,0.4937074000000001,-0.2982290999999999,1.189277,0.1059527,-0.07093709,0.7494833000000001,0.004524019,0,0,0
1,0.1947173999999999,-0.4007874,0.8952332000000001,0.1,0.1873779,-0.3753967,0.9077148000000002,-30.98361,0.736557,-21.84958,3.823456,0.4414199,0.5605858,0.1,0.1995239,-0.417572,0.8864594000000001,38.27148,2.5513,-20.26965,4.582047,0.2860565,0.4933612,-0.298079,1.189457,0.1059195,-0.07127307,0.7493969,0.004905647,0,0,0
1,0.1947173999999999,-0.4007874,0.8952332000000001,0.1,0.1873779,-0.3753967,0.9077148000000002,-30.98361,0.736557,-21.84958,3.823456,0.4414199,0.5605858,0.1,0.1995239,-0.417572,0.8864594000000001,38.27148,2.5513,-20.26965,4.582047,0.2860565,0.4933612,-0.298079,1.189457,0.1059195,-0.07127307,0.7493969,0.004905647,0,0,0
1,0.1947173999999999,-0.4007874,0.8952332000000001,0.1,0.1873779,-0.3753967,0.9077148000000002,-30.98361,0.736557,-21.84958,3.823456,0.4414199,0.5605858,0.1,0.1995239,-0.417572,0.8864594000000001,38.27148,2.5513,-20.26965,4.582047,0.2860565,0.4933612,-0.298079,1.189457,0.1059195,-0.07127307,0.7493969,0.004905647,0,0,0
1,0.1903076,-0.3853912,0.9029083,0.1,0.1812744,-0.3736267,0.9096832,-30.997390000000003,0.7302856,-21.84512,3.785492,0.4428187,0.5603961999999999,0.1,0.2003326,-0.3984222,0.89505,38.31219,2.502869,-20.28001,4.627975,0.2846518,0.4915710999999999,-0.2979779,1.189367,0.1058023,-0.07109021,0.7494536,0.005056717,0,0,0
1,0.1903076,-0.3853912,0.9029083,0.1,0.1812744,-0.3736267,0.9096832,-30.997390000000003,0.7302856,-21.84512,3.785492,0.4428187,0.5603961999999999,0.1,0.2003326,-0.3984222,0.89505,38.31219,2.502869,-20.28001,4.627975,0.2846518,0.4915710999999999,-0.2979779,1.189367,0.1058023,-0.07109021,0.7494536,0.005056717,0,0,0
1,0.1903076,-0.3853912,0.9029083,0.1,0.1812744,-0.3736267,0.9096832,-30.997390000000003,0.7302856,-21.84512,3.785492,0.4428187,0.5603961999999999,0.1,0.2003326,-0.3984222,0.89505,38.31219,2.502869,-20.28001,4.627975,0.2846518,0.4915710999999999,-0.2979779,1.189367,0.1058023,-0.07109021,0.7494536,0.005056717,0,0,0
1,0.1892853,-0.386261,0.9027557,0.1,0.1813354,-0.3761902,0.9086151,-30.99806,0.7224884,-21.84657,3.783005,0.4428277,0.5611195999999999,0.1,0.1975708,-0.396698,0.8964233,38.32491,2.482574,-20.2892,4.5999300000000005,0.2846559,0.4919832,-0.2978947999999999,1.189323,0.1057053999999999,-0.0710346999999999,0.7495688,0.004903369,0,0,0
1,0.1892853,-0.386261,0.9027557,0.1,0.1813354,-0.3761902,0.9086151,-30.99806,0.7224884,-21.84657,3.783005,0.4428277,0.5611195999999999,0.1,0.1975708,-0.396698,0.8964233,38.32491,2.482574,-20.2892,4.5999300000000005,0.2846559,0.4919832,-0.2978947999999999,1.189323,0.1057053999999999,-0.0710346999999999,0.7495688,0.004903369,0,0,0
1,0.1892853,-0.386261,0.9027557,0.1,0.1813354,-0.3761902,0.9086151,-30.99806,0.7224884,-21.84657,3.783005,0.4428277,0.5611195999999999,0.1,0.1975708,-0.396698,0.8964233,38.32491,2.482574,-20.2892,4.5999300000000005,0.2846559,0.4919832,-0.2978947999999999,1.189323,0.1057053999999999,-0.0710346999999999,0.7495688,0.004903369,0,0,0
1,0.1888427999999999,-0.3929138,0.8999634,0.1,0.1816864,-0.3744965,0.9092407,-30.99908,0.7084961,-21.85175,3.802612,0.4428092999999999,0.5613087,0.1,0.1963348,-0.4122314,0.8896636999999998,38.33745,2.490189,-20.2912,4.575409,0.2843739,0.4945172,-0.2978206,1.189402,0.1055161,-0.07235181,0.7500265,0.005035308,0,0,0
1,0.1888427999999999,-0.3929138,0.8999634,0.1,0.1816864,-0.3744965,0.9092407,-30.99908,0.7084961,-21.85175,3.802612,0.4428092999999999,0.5613087,0.1,0.1963348,-0.4122314,0.8896636999999998,38.33745,2.490189,-20.2912,4.575409,0.2843739,0.4945172,-0.2978206,1.189402,0.1055161,-0.07235181,0.7500265,0.005035308,0,0,0
1,0.1888427999999999,-0.3929138,0.8999634,0.1,0.1816864,-0.3744965,0.9092407,-30.99908,0.7084961,-21.85175,3.802612,0.4428092999999999,0.5613087,0.1,0.1963348,-0.4122314,0.8896636999999998,38.33745,2.490189,-20.2912,4.575409,0.2843739,0.4945172,-0.2978206,1.189402,0.1055161,-0.07235181,0.7500265,0.005035308,0,0,0
1,0.1878815,-0.3896179,0.9015961,0.1,0.1816101,-0.3759918,0.9086456,-30.99898,0.7053986,-21.85188,3.782394,0.4428092999999999,0.5616769,0.1,0.1944427,-0.4039001,0.8938904000000001,38.35036,2.496796,-20.29227,4.568069,0.2842885,0.4928108,-0.2977902999999999,1.189459,0.1054251,-0.07259408,0.7501653,0.004819846,0,0,0
1,0.1878815,-0.3896179,0.9015961,0.1,0.1816101,-0.3759918,0.9086456,-30.99898,0.7053986,-21.85188,3.782394,0.4428092999999999,0.5616769,0.1,0.1944427,-0.4039001,0.8938904000000001,38.35036,2.496796,-20.29227,4.568069,0.2842885,0.4928108,-0.2977902999999999,1.189459,0.1054251,-0.07259408,0.7501653,0.004819846,0,0,0
1,0.1878815,-0.3896179,0.9015961,0.1,0.1816101,-0.3759918,0.9086456,-30.99898,0.7053986,-21.85188,3.782394,0.4428092999999999,0.5616769,0.1,0.1944427,-0.4039001,0.8938904000000001,38.35036,2.496796,-20.29227,4.568069,0.2842885,0.4928108,-0.2977902999999999,1.189459,0.1054251,-0.07259408,0.7501653,0.004819846,0,0,0
1,0.1935425,-0.3877105999999999,0.9012146,0.1,0.1860962,-0.3773955999999999,0.9071503,-30.99532,0.7031403,-21.853620000000003,3.791275,0.4419787,0.5620531999999999,0.1,0.201828,-0.3991699,0.8943787,38.44223,2.477844,-20.31763,4.549164,0.2800509,0.4928456,-0.2978578,1.189369,0.1053903,-0.07235213,0.7501175,0.004623388,0,0,0
1,0.1935425,-0.3877105999999999,0.9012146,0.1,0.1860962,-0.3773955999999999,0.9071503,-30.99532,0.7031403,-21.853620000000003,3.791275,0.4419787,0.5620531999999999,0.1,0.201828,-0.3991699,0.8943787,38.44223,2.477844,-20.31763,4.549164,0.2800509,0.4928456,-0.2978578,1.189369,0.1053903,-0.07235213,0.7501175,0.004623388,0,0,0
1,0.1935425,-0.3877105999999999,0.9012146,0.1,0.1860962,-0.3773955999999999,0.9071503,-30.99532,0.7031403,-21.853620000000003,3.791275,0.4419787,0.5620531999999999,0.1,0.201828,-0.3991699,0.8943787,38.44223,2.477844,-20.31763,4.549164,0.2800509,0.4928456,-0.2978578,1.189369,0.1053903,-0.07235213,0.7501175,0.004623388,0,0,0
1,0.1920624,-0.3898163,0.9006348,0.1,0.1846161,-0.377243,0.9075165,-30.9874,0.7037964,-21.85445,3.790756,0.4419589,0.5620016,0.1,0.2003174,-0.403717,0.8926697,38.44894,2.479248,-20.31618,4.501083,0.2800509,0.4936058,-0.2977995,1.189299,0.1054143,-0.07234167,0.7497710999999999,0.004654706,0,0,0
1,0.1920624,-0.3898163,0.9006348,0.1,0.1846161,-0.377243,0.9075165,-30.9874,0.7037964,-21.85445,3.790756,0.4419589,0.5620016,0.1,0.2003174,-0.403717,0.8926697,38.44894,2.479248,-20.31618,4.501083,0.2800509,0.4936058,-0.2977995,1.189299,0.1054143,-0.07234167,0.7497710999999999,0.004654706,0,0,0
1,0.1920624,-0.3898163,0.9006348,0.1,0.1846161,-0.377243,0.9075165,-30.9874,0.7037964,-21.85445,3.790756,0.4419589,0.5620016,0.1,0.2003174,-0.403717,0.8926697,38.44894,2.479248,-20.31618,4.501083,0.2800509,0.4936058,-0.2977995,1.189299,0.1054143,-0.07234167,0.7497710999999999,0.004654706,0,0,0
1,0.1914672999999999,-0.3914337,0.9000549000000001,0.1,0.1831207,-0.3759308,0.9083557,-30.96165,0.7089539,-21.85619,3.790131,0.4413697,0.5615969,0.1,0.2000732,-0.4073944,0.8910521999999998,38.45859,2.503464,-20.31618,4.507935,0.2797660999999999,0.4934782999999999,-0.2978015,1.189294,0.1055744999999999,-0.07245965,0.7493401999999999,0.003761469,0,0,0
1,0.1914672999999999,-0.3914337,0.9000549000000001,0.1,0.1831207,-0.3759308,0.9083557,-30.96165,0.7089539,-21.85619,3.790131,0.4413697,0.5615969,0.1,0.2000732,-0.4073944,0.8910521999999998,38.45859,2.503464,-20.31618,4.507935,0.2797660999999999,0.4934782999999999,-0.2978015,1.189294,0.1055744999999999,-0.07245965,0.7493401999999999,0.003761469,0,0,0
1,0.1914672999999999,-0.3914337,0.9000549000000001,0.1,0.1831207,-0.3759308,0.9083557,-30.96165,0.7089539,-21.85619,3.790131,0.4413697,0.5615969,0.1,0.2000732,-0.4073944,0.8910521999999998,38.45859,2.503464,-20.31618,4.507935,0.2797660999999999,0.4934782999999999,-0.2978015,1.189294,0.1055744999999999,-0.07245965,0.7493401999999999,0.003761469,0,0,0
2,0.1915741,-0.3914185,0.9000396999999999,0.1,0.1829071,-0.3744812,0.9090118,-30.96086,0.7136078,-21.85553,3.766083,0.4413697,0.5611916,0.1,0.2004547,-0.4087677,0.8903351,38.4603,2.499878,-20.31685,4.502289,0.2796405,0.4938429,-0.2977828,1.189207,0.1057517,-0.07269853,0.7487275,0.003353047,0,0,0
2,0.1915741,-0.3914185,0.9000396999999999,0.1,0.1829071,-0.3744812,0.9090118,-30.96086,0.7136078,-21.85553,3.766083,0.4413697,0.5611916,0.1,0.2004547,-0.4087677,0.8903351,38.4603,2.499878,-20.31685,4.502289,0.2796405,0.4938429,-0.2977828,1.189207,0.1057517,-0.07269853,0.7487275,0.003353047,0,0,0
2,0.1915741,-0.3914185,0.9000396999999999,0.1,0.1829071,-0.3744812,0.9090118,-30.96086,0.7136078,-21.85553,3.766083,0.4413697,0.5611916,0.1,0.2004547,-0.4087677,0.8903351,38.4603,2.499878,-20.31685,4.502289,0.2796405,0.4938429,-0.2977828,1.189207,0.1057517,-0.07269853,0.7487275,0.003353047,0,0,0
2,0.1914672999999999,-0.3920135,0.8997955,0.1,0.1829681,-0.3734741,0.9094086,-30.96162,0.7136078,-21.85504,3.73674,0.4413697,0.5610236,0.1,0.2001343,-0.4109649999999999,0.8894042999999999,38.46138,2.499878,-20.31918,4.464737,0.2796350999999999,0.494274,-0.2979212,1.189135,0.1061696,-0.07245267,0.747881,0.002887421,0,0,0
2,0.1914672999999999,-0.3920135,0.8997955,0.1,0.1829681,-0.3734741,0.9094086,-30.96162,0.7136078,-21.85504,3.73674,0.4413697,0.5610236,0.1,0.2001343,-0.4109649999999999,0.8894042999999999,38.46138,2.499878,-20.31918,4.464737,0.2796350999999999,0.494274,-0.2979212,1.189135,0.1061696,-0.07245267,0.747881,0.002887421,0,0,0
2,0.1914672999999999,-0.3920135,0.8997955,0.1,0.1829681,-0.3734741,0.9094086,-30.96162,0.7136078,-21.85504,3.73674,0.4413697,0.5610236,0.1,0.2001343,-0.4109649999999999,0.8894042999999999,38.46138,2.499878,-20.31918,4.464737,0.2796350999999999,0.494274,-0.2979212,1.189135,0.1061696,-0.07245267,0.747881,0.002887421,0,0,0
2,0.1901092999999999,-0.3922729,0.8999786,0.1,0.1812286,-0.3735809,0.9097136999999998,-30.96323,0.7127533,-21.85521,3.729919,0.4416965,0.5610510999999999,0.1,0.1991577,-0.4113312,0.8894501,38.46138,2.48851,-20.32993,4.443176,0.2797660999999999,0.494801,-0.2980776,1.188799,0.1065573999999999,-0.07115763,0.7473555000000001,0.002497226,0,0,0
2,0.1901092999999999,-0.3922729,0.8999786,0.1,0.1812286,-0.3735809,0.9097136999999998,-30.96323,0.7127533,-21.85521,3.729919,0.4416965,0.5610510999999999,0.1,0.1991577,-0.4113312,0.8894501,38.46138,2.48851,-20.32993,4.443176,0.2797660999999999,0.494801,-0.2980776,1.188799,0.1065573999999999,-0.07115763,0.7473555000000001,0.002497226,0,0,0
2,0.1901092999999999,-0.3922729,0.8999786,0.1,0.1812286,-0.3735809,0.9097136999999998,-30.96323,0.7127533,-21.85521,3.729919,0.4416965,0.5610510999999999,0.1,0.1991577,-0.4113312,0.8894501,38.46138,2.48851,-20.32993,4.443176,0.2797660999999999,0.494801,-0.2980776,1.188799,0.1065573999999999,-0.07115763,0.7473555000000001,0.002497226,0,0,0
2,0.1357573999999999,-0.3936005,0.9091949,0.1,0.1299744,-0.3720398,0.9190674,-31.2137,0.7366028,-21.79918,3.572708,0.4578650999999999,0.5592248000000001,0.1,0.1420746,-0.4172974,0.897583,38.13628,2.506439,-20.27759,4.502686,0.2996296,0.4944699000000001,-0.29817,1.188367,0.107054,-0.06993793,0.747077,0.002605279,0,0,0
2,0.1357573999999999,-0.3936005,0.9091949,0.1,0.1299744,-0.3720398,0.9190674,-31.2137,0.7366028,-21.79918,3.572708,0.4578650999999999,0.5592248000000001,0.1,0.1420746,-0.4172974,0.897583,38.13628,2.506439,-20.27759,4.502686,0.2996296,0.4944699000000001,-0.29817,1.188367,0.107054,-0.06993793,0.747077,0.002605279,0,0,0
2,0.1357573999999999,-0.3936005,0.9091949,0.1,0.1299744,-0.3720398,0.9190674,-31.2137,0.7366028,-21.79918,3.572708,0.4578650999999999,0.5592248000000001,0.1,0.1420746,-0.4172974,0.897583,38.13628,2.506439,-20.27759,4.502686,0.2996296,0.4944699000000001,-0.29817,1.188367,0.107054,-0.06993793,0.747077,0.002605279,0,0,0
2,0.07185364,-0.3918304,0.9172058,0.1,0.07066345,-0.378067,0.9230652,-31.41962,0.7649536,-21.74805,3.686722,0.4739326,0.5586641,0.1,0.07354736,-0.4116210999999999,0.908371,37.913790000000006,2.542313,-20.23964,4.31189,0.317833,0.4918485999999999,-0.2980622,1.188358,0.107399,-0.07011954,0.7465678000000001,0.003483819,0,0,0
2,0.07185364,-0.3918304,0.9172058,0.1,0.07066345,-0.378067,0.9230652,-31.41962,0.7649536,-21.74805,3.686722,0.4739326,0.5586641,0.1,0.07354736,-0.4116210999999999,0.908371,37.913790000000006,2.542313,-20.23964,4.31189,0.317833,0.4918485999999999,-0.2980622,1.188358,0.107399,-0.07011954,0.7465678000000001,0.003483819,0,0,0
2,0.07185364,-0.3918304,0.9172058,0.1,0.07066345,-0.378067,0.9230652,-31.41962,0.7649536,-21.74805,3.686722,0.4739326,0.5586641,0.1,0.07354736,-0.4116210999999999,0.908371,37.913790000000006,2.542313,-20.23964,4.31189,0.317833,0.4918485999999999,-0.2980622,1.188358,0.107399,-0.07011954,0.7465678000000001,0.003483819,0,0,0
2,0.07905579,-0.4028625,0.9118195,0.1,0.07830811,-0.3837433,0.920105,-31.46078,0.7793274,-21.74448,3.743027,0.4740576,0.5591968,0.1,0.07989502,-0.4252625,0.9015198,37.90279,2.572708,-20.23096,4.292328,0.3171522999999999,0.4932503,-0.2978741,1.18833,0.1074347,-0.07059992,0.7462789000000001,0.003474182,0,0,0
2,0.07905579,-0.4028625,0.9118195,0.1,0.07830811,-0.3837433,0.920105,-31.46078,0.7793274,-21.74448,3.743027,0.4740576,0.5591968,0.1,0.07989502,-0.4252625,0.9015198,37.90279,2.572708,-20.23096,4.292328,0.3171522999999999,0.4932503,-0.2978741,1.18833,0.1074347,-0.07059992,0.7462789000000001,0.003474182,0,0,0
2,0.07905579,-0.4028625,0.9118195,0.1,0.07830811,-0.3837433,0.920105,-31.46078,0.7793274,-21.74448,3.743027,0.4740576,0.5591968,0.1,0.07989502,-0.4252625,0.9015198,37.90279,2.572708,-20.23096,4.292328,0.3171522999999999,0.4932503,-0.2978741,1.18833,0.1074347,-0.07059992,0.7462789000000001,0.003474182,0,0,0
2,0.0801239,-0.4036865,0.9113617,0.1,0.0790863,-0.3830872,0.9203186,-31.46788,0.7723236,-21.74457,3.712296,0.4741553,0.5593098000000001,0.1,0.08117676,-0.4251099,0.9014893,37.90573,2.558823,-20.235,4.315903,0.3168449,0.4936963,-0.2976534,1.187933,0.1075257,-0.06972945,0.7457484999999999,0.002147536,0,0,0
2,0.0801239,-0.4036865,0.9113617,0.1,0.0790863,-0.3830872,0.9203186,-31.46788,0.7723236,-21.74457,3.712296,0.4741553,0.5593098000000001,0.1,0.08117676,-0.4251099,0.9014893,37.90573,2.558823,-20.235,4.315903,0.3168449,0.4936963,-0.2976534,1.187933,0.1075257,-0.06972945,0.7457484999999999,0.002147536,0,0,0
2,0.0801239,-0.4036865,0.9113617,0.1,0.0790863,-0.3830872,0.9203186,-31.46788,0.7723236,-21.74457,3.712296,0.4741553,0.5593098000000001,0.1,0.08117676,-0.4251099,0.9014893,37.90573,2.558823,-20.235,4.315903,0.3168449,0.4936963,-0.2976534,1.187933,0.1075257,-0.06972945,0.7457484999999999,0.002147536,0,0,0
2,0.07905579,-0.3991241,0.9134674,0.1,0.07977295,-0.3818817,0.9207458,-31.47151,0.7581787,-21.74774,3.681076,0.4741553,0.5596035,0.1,0.07818604,-0.4189757999999999,0.9046173,37.91194,2.529327,-20.24544,4.30722,0.3171178,0.4936382,-0.2973493,1.187486,0.1077997,-0.0691333,0.7448478000000001,0.0004727763,0,0,0
2,0.07905579,-0.3991241,0.9134674,0.1,0.07977295,-0.3818817,0.9207458,-31.47151,0.7581787,-21.74774,3.681076,0.4741553,0.5596035,0.1,0.07818604,-0.4189757999999999,0.9046173,37.91194,2.529327,-20.24544,4.30722,0.3171178,0.4936382,-0.2973493,1.187486,0.1077997,-0.0691333,0.7448478000000001,0.0004727763,0,0,0
2,0.07905579,-0.3991241,0.9134674,0.1,0.07977295,-0.3818817,0.9207458,-31.47151,0.7581787,-21.74774,3.681076,0.4741553,0.5596035,0.1,0.07818604,-0.4189757999999999,0.9046173,37.91194,2.529327,-20.24544,4.30722,0.3171178,0.4936382,-0.2973493,1.187486,0.1077997,-0.0691333,0.7448478000000001,0.0004727763,0,0,0
2,0.0778656,-0.3973236,0.9143524,0.1,0.07728577,-0.3809509,0.9213409,-31.47871,0.7523956,-21.75005,3.699265,0.4747831,0.5596243000000001,0.1,0.07847595,-0.4158173,0.9060516,37.9222,2.515442,-20.24706,4.309128,0.3167446,0.4935319999999999,-0.2970069,1.18696,0.1081688,-0.06750532,0.7435165,-0.0006103516,0,0,0
2,0.0778656,-0.3973236,0.9143524,0.1,0.07728577,-0.3809509,0.9213409,-31.47871,0.7523956,-21.75005,3.699265,0.4747831,0.5596243000000001,0.1,0.07847595,-0.4158173,0.9060516,37.9222,2.515442,-20.24706,4.309128,0.3167446,0.4935319999999999,-0.2970069,1.18696,0.1081688,-0.06750532,0.7435165,-0.0006103516,0,0,0
2,0.0778656,-0.3973236,0.9143524,0.1,0.07728577,-0.3809509,0.9213409,-31.47871,0.7523956,-21.75005,3.699265,0.4747831,0.5596243000000001,0.1,0.07847595,-0.4158173,0.9060516,37.9222,2.515442,-20.24706,4.309128,0.3167446,0.4935319999999999,-0.2970069,1.18696,0.1081688,-0.06750532,0.7435165,-0.0006103516,0,0,0
2,0.07655334,-0.3949432,0.9154968,0.1,0.07550049,-0.3765869,0.9232941,-31.49086,0.7254181,-21.74944,3.711075,0.4754569,0.5596930999999999,0.1,0.0776825,-0.4150085,0.9064789,37.92596,2.506714,-20.24884,4.312363,0.3167446,0.4936800999999999,-0.2966565,1.186296,0.1087963,-0.06542338,0.7413996,-0.0026618609999999,0,0,0
2,0.07655334,-0.3949432,0.9154968,0.1,0.07550049,-0.3765869,0.9232941,-31.49086,0.7254181,-21.74944,3.711075,0.4754569,0.5596930999999999,0.1,0.0776825,-0.4150085,0.9064789,37.92596,2.506714,-20.24884,4.312363,0.3167446,0.4936800999999999,-0.2966565,1.186296,0.1087963,-0.06542338,0.7413996,-0.0026618609999999,0,0,0
2,0.07655334,-0.3949432,0.9154968,0.1,0.07550049,-0.3765869,0.9232941,-31.49086,0.7254181,-21.74944,3.711075,0.4754569,0.5596930999999999,0.1,0.0776825,-0.4150085,0.9064789,37.92596,2.506714,-20.24884,4.312363,0.3167446,0.4936800999999999,-0.2966565,1.186296,0.1087963,-0.06542338,0.7413996,-0.0026618609999999,0,0,0
2,0.07548523,-0.3943634,0.9158325,0.1,0.07521057,-0.3760375999999999,0.9235382,-31.500120000000003,0.7251892,-21.74928,3.716873000000001,0.4758002999999999,0.5596035,0.1,0.07574463,-0.4129639,0.9075775,37.92635,2.501999,-20.25812,4.329619999999999,0.3170364,0.4935319999999999,-0.2964348,1.185668,0.1096738,-0.06436747,0.7392003,-0.0046104779999999,0,0,0
2,0.07548523,-0.3943634,0.9158325,0.1,0.07521057,-0.3760375999999999,0.9235382,-31.500120000000003,0.7251892,-21.74928,3.716873000000001,0.4758002999999999,0.5596035,0.1,0.07574463,-0.4129639,0.9075775,37.92635,2.501999,-20.25812,4.329619999999999,0.3170364,0.4935319999999999,-0.2964348,1.185668,0.1096738,-0.06436747,0.7392003,-0.0046104779999999,0,0,0
2,0.07548523,-0.3943634,0.9158325,0.1,0.07521057,-0.3760375999999999,0.9235382,-31.500120000000003,0.7251892,-21.74928,3.716873000000001,0.4758002999999999,0.5596035,0.1,0.07574463,-0.4129639,0.9075775,37.92635,2.501999,-20.25812,4.329619999999999,0.3170364,0.4935319999999999,-0.2964348,1.185668,0.1096738,-0.06436747,0.7392003,-0.0046104779999999,0,0,0
2,0.1077423,-0.3848267,0.9166718,0.1,0.09754944,-0.3750153,0.9218597,-31.262940000000004,0.7275696,-21.75725,3.67337,0.4646335999999999,0.5594777,0.1,0.1197815,-0.3963317999999999,0.9102478,38.088,2.554733,-20.24776,4.453049,0.3049,0.4888563,-0.2960127,1.1853209999999998,0.1102474,-0.06390489,0.7376515,-0.005543794,0,0,0
2,0.1077423,-0.3848267,0.9166718,0.1,0.09754944,-0.3750153,0.9218597,-31.262940000000004,0.7275696,-21.75725,3.67337,0.4646335999999999,0.5594777,0.1,0.1197815,-0.3963317999999999,0.9102478,38.088,2.554733,-20.24776,4.453049,0.3049,0.4888563,-0.2960127,1.1853209999999998,0.1102474,-0.06390489,0.7376515,-0.005543794,0,0,0
2,0.1077423,-0.3848267,0.9166718,0.1,0.09754944,-0.3750153,0.9218597,-31.262940000000004,0.7275696,-21.75725,3.67337,0.4646335999999999,0.5594777,0.1,0.1197815,-0.3963317999999999,0.9102478,38.088,2.554733,-20.24776,4.453049,0.3049,0.4888563,-0.2960127,1.1853209999999998,0.1102474,-0.06390489,0.7376515,-0.005543794,0,0,0
2,0.310791,-0.3963623,0.8638763,0.1,0.2878571,-0.3811035,0.8785553,-30.35345,0.6266632,-22.04326,3.88739,0.404944,0.5679692,0.1,0.3393402,-0.4150848,0.8441162,38.95776,2.53714,-20.50827,4.697189,0.2400007,0.4969543999999999,-0.2956382999999999,1.184766,0.1109605,-0.06281084,0.7359669,-0.006948364,0,0,0
2,0.310791,-0.3963623,0.8638763,0.1,0.2878571,-0.3811035,0.8785553,-30.35345,0.6266632,-22.04326,3.88739,0.404944,0.5679692,0.1,0.3393402,-0.4150848,0.8441162,38.95776,2.53714,-20.50827,4.697189,0.2400007,0.4969543999999999,-0.2956382999999999,1.184766,0.1109605,-0.06281084,0.7359669,-0.006948364,0,0,0
2,0.310791,-0.3963623,0.8638763,0.1,0.2878571,-0.3811035,0.8785553,-30.35345,0.6266632,-22.04326,3.88739,0.404944,0.5679692,0.1,0.3393402,-0.4150848,0.8441162,38.95776,2.53714,-20.50827,4.697189,0.2400007,0.4969543999999999,-0.2956382999999999,1.184766,0.1109605,-0.06281084,0.7359669,-0.006948364,0,0,0
2,0.3830109,-0.4157409999999999,0.8248749,0.1,0.3654785,-0.4122925,0.8345184000000001,-30.06848,0.6202087,-22.18613,4.03064,0.3830815,0.5764751,0.1,0.4169769,-0.4220276,0.8049927,39.32471,2.486145,-20.69655,4.906326,0.2138324,0.5027845999999999,-0.2954025,1.1841270000000002,0.1120236,-0.06135913,0.7331759,-0.008713291,0,0,0
2,0.3830109,-0.4157409999999999,0.8248749,0.1,0.3654785,-0.4122925,0.8345184000000001,-30.06848,0.6202087,-22.18613,4.03064,0.3830815,0.5764751,0.1,0.4169769,-0.4220276,0.8049927,39.32471,2.486145,-20.69655,4.906326,0.2138324,0.5027845999999999,-0.2954025,1.1841270000000002,0.1120236,-0.06135913,0.7331759,-0.008713291,0,0,0
2,0.3830109,-0.4157409999999999,0.8248749,0.1,0.3654785,-0.4122925,0.8345184000000001,-30.06848,0.6202087,-22.18613,4.03064,0.3830815,0.5764751,0.1,0.4169769,-0.4220276,0.8049927,39.32471,2.486145,-20.69655,4.906326,0.2138324,0.5027845999999999,-0.2954025,1.1841270000000002,0.1120236,-0.06135913,0.7331759,-0.008713291,0,0,0
2,0.373291,-0.4219970999999999,0.8261565999999999,0.1,0.3543549,-0.4129639,0.8389587,-30.07303,0.6239319000000001,-22.17458,4.034149,0.3850629,0.5761353,0.1,0.4011078,-0.4350128,0.8061371,39.34436,2.474197,-20.70395,4.823563,0.2157987999999999,0.5053259,-0.2951975,1.183515,0.113389,-0.05946679,0.7299575,-0.01125631,0,0,0
2,0.373291,-0.4219970999999999,0.8261565999999999,0.1,0.3543549,-0.4129639,0.8389587,-30.07303,0.6239319000000001,-22.17458,4.034149,0.3850629,0.5761353,0.1,0.4011078,-0.4350128,0.8061371,39.34436,2.474197,-20.70395,4.823563,0.2157987999999999,0.5053259,-0.2951975,1.183515,0.113389,-0.05946679,0.7299575,-0.01125631,0,0,0
2,0.373291,-0.4219970999999999,0.8261565999999999,0.1,0.3543549,-0.4129639,0.8389587,-30.07303,0.6239319000000001,-22.17458,4.034149,0.3850629,0.5761353,0.1,0.4011078,-0.4350128,0.8061371,39.34436,2.474197,-20.70395,4.823563,0.2157987999999999,0.5053259,-0.2951975,1.183515,0.113389,-0.05946679,0.7299575,-0.01125631,0,0,0
2,0.3660583,-0.4157104,0.8325653000000001,0.1,0.3470917,-0.4096069,0.8436431999999999,-30.07384,0.6195831,-22.16747,4.047073,0.386299,0.5754551,0.1,0.3856964,-0.4218444999999999,0.8205261,39.39713,2.463821,-20.68185,4.927917,0.2168371,0.5026398,-0.2948187,1.182902,0.1151674999999999,-0.0576309,0.7251436,-0.01531192,0,0,0
2,0.3660583,-0.4157104,0.8325653000000001,0.1,0.3470917,-0.4096069,0.8436431999999999,-30.07384,0.6195831,-22.16747,4.047073,0.386299,0.5754551,0.1,0.3856964,-0.4218444999999999,0.8205261,39.39713,2.463821,-20.68185,4.927917,0.2168371,0.5026398,-0.2948187,1.182902,0.1151674999999999,-0.0576309,0.7251436,-0.01531192,0,0,0
2,0.3660583,-0.4157104,0.8325653000000001,0.1,0.3470917,-0.4096069,0.8436431999999999,-30.07384,0.6195831,-22.16747,4.047073,0.386299,0.5754551,0.1,0.3856964,-0.4218444999999999,0.8205261,39.39713,2.463821,-20.68185,4.927917,0.2168371,0.5026398,-0.2948187,1.182902,0.1151674999999999,-0.0576309,0.7251436,-0.01531192,0,0,0
2,0.3608245999999999,-0.4136047,0.8358916999999999,0.1,0.3410339,-0.4098815999999999,0.8459778,-30.07384,0.6195831,-22.16585,4.044525,0.3872874,0.575363,0.1,0.3817444,-0.4173583999999999,0.8246613000000002,39.40137,2.453827,-20.68185,4.903122,0.2173887,0.5020738,-0.2944713,1.181987,0.1175383,-0.05431642,0.7183359,-0.01942204,0,0,0
2,0.3608245999999999,-0.4136047,0.8358916999999999,0.1,0.3410339,-0.4098815999999999,0.8459778,-30.07384,0.6195831,-22.16585,4.044525,0.3872874,0.575363,0.1,0.3817444,-0.4173583999999999,0.8246613000000002,39.40137,2.453827,-20.68185,4.903122,0.2173887,0.5020738,-0.2944713,1.181987,0.1175383,-0.05431642,0.7183359,-0.01942204,0,0,0
2,0.3608245999999999,-0.4136047,0.8358916999999999,0.1,0.3410339,-0.4098815999999999,0.8459778,-30.07384,0.6195831,-22.16585,4.044525,0.3872874,0.575363,0.1,0.3817444,-0.4173583999999999,0.8246613000000002,39.40137,2.453827,-20.68185,4.903122,0.2173887,0.5020738,-0.2944713,1.181987,0.1175383,-0.05431642,0.7183359,-0.01942204,0,0,0
2,0.3317870999999999,-0.4016265999999999,0.8535767,0.1,0.3321228,-0.3979492,0.8551636,-30.07613,0.6305084,-22.15977,4.014679,0.3888112,0.5726154,0.1,0.3312988,-0.4069061,0.8512573,39.33728,2.428268,-20.5928,4.875031,0.228428,0.4993535,-0.2939448,1.181019,0.1201323,-0.0494558,0.7102361,-0.02339486,0,0,0
2,0.3317870999999999,-0.4016265999999999,0.8535767,0.1,0.3321228,-0.3979492,0.8551636,-30.07613,0.6305084,-22.15977,4.014679,0.3888112,0.5726154,0.1,0.3312988,-0.4069061,0.8512573,39.33728,2.428268,-20.5928,4.875031,0.228428,0.4993535,-0.2939448,1.181019,0.1201323,-0.0494558,0.7102361,-0.02339486,0,0,0
2,0.3317870999999999,-0.4016265999999999,0.8535767,0.1,0.3321228,-0.3979492,0.8551636,-30.07613,0.6305084,-22.15977,4.014679,0.3888112,0.5726154,0.1,0.3312988,-0.4069061,0.8512573,39.33728,2.428268,-20.5928,4.875031,0.228428,0.4993535,-0.2939448,1.181019,0.1201323,-0.0494558,0.7102361,-0.02339486,0,0,0
2,0.2952575999999999,-0.3874207,0.8733215,0.1,0.2739563,-0.3707428,0.8874054,-30.24969,0.6585999,-22.0358,3.950119,0.4039007,0.5647759,0.1,0.3194732999999999,-0.4062042,0.8561095999999999,39.21454,2.483368,-20.52946,4.870026,0.2347054,0.4967559,-0.2933408,1.1795,0.1228553,-0.04451124,0.7014421999999999,-0.02887382,0,0,0
2,0.2952575999999999,-0.3874207,0.8733215,0.1,0.2739563,-0.3707428,0.8874054,-30.24969,0.6585999,-22.0358,3.950119,0.4039007,0.5647759,0.1,0.3194732999999999,-0.4062042,0.8561095999999999,39.21454,2.483368,-20.52946,4.870026,0.2347054,0.4967559,-0.2933408,1.1795,0.1228553,-0.04451124,0.7014421999999999,-0.02887382,0,0,0
2,0.2952575999999999,-0.3874207,0.8733215,0.1,0.2739563,-0.3707428,0.8874054,-30.24969,0.6585999,-22.0358,3.950119,0.4039007,0.5647759,0.1,0.3194732999999999,-0.4062042,0.8561095999999999,39.21454,2.483368,-20.52946,4.870026,0.2347054,0.4967559,-0.2933408,1.1795,0.1228553,-0.04451124,0.7014421999999999,-0.02887382,0,0,0
2,0.269516,-0.3776397999999999,0.885849,0.1,0.2557373,-0.3627319,0.8961029,-30.38979,0.8104401,-21.9511,4.131073000000001,0.4115403,0.5574194,0.1,0.2813415999999999,-0.3903960999999999,0.8765869000000001,39.06715,2.553482,-20.42928,4.783051,0.2462913,0.4903607,-0.2928032,1.177926,0.1258081999999999,-0.03977339,0.6924911,-0.03379452,0,0,0
2,0.269516,-0.3776397999999999,0.885849,0.1,0.2557373,-0.3627319,0.8961029,-30.38979,0.8104401,-21.9511,4.131073000000001,0.4115403,0.5574194,0.1,0.2813415999999999,-0.3903960999999999,0.8765869000000001,39.06715,2.553482,-20.42928,4.783051,0.2462913,0.4903607,-0.2928032,1.177926,0.1258081999999999,-0.03977339,0.6924911,-0.03379452,0,0,0
2,0.269516,-0.3776397999999999,0.885849,0.1,0.2557373,-0.3627319,0.8961029,-30.38979,0.8104401,-21.9511,4.131073000000001,0.4115403,0.5574194,0.1,0.2813415999999999,-0.3903960999999999,0.8765869000000001,39.06715,2.553482,-20.42928,4.783051,0.2462913,0.4903607,-0.2928032,1.177926,0.1258081999999999,-0.03977339,0.6924911,-0.03379452,0,0,0
2,0.3814545,-0.3672028,0.8483124,0.1,0.3521881,-0.3565063,0.8653564,-29.90547,0.791748,-22.11484,4.085083,0.3801895,0.5598149,0.1,0.4210358,-0.3811797999999999,0.8230438,39.50691,2.661392,-20.63292,4.889511,0.2073881,0.4890962,-0.292308,1.176197,0.1286845,-0.03423599,0.6835666,-0.03982627,0,0,0
2,0.3814545,-0.3672028,0.8483124,0.1,0.3521881,-0.3565063,0.8653564,-29.90547,0.791748,-22.11484,4.085083,0.3801895,0.5598149,0.1,0.4210358,-0.3811797999999999,0.8230438,39.50691,2.661392,-20.63292,4.889511,0.2073881,0.4890962,-0.292308,1.176197,0.1286845,-0.03423599,0.6835666,-0.03982627,0,0,0
2,0.3814545,-0.3672028,0.8483124,0.1,0.3521881,-0.3565063,0.8653564,-29.90547,0.791748,-22.11484,4.085083,0.3801895,0.5598149,0.1,0.4210358,-0.3811797999999999,0.8230438,39.50691,2.661392,-20.63292,4.889511,0.2073881,0.4890962,-0.292308,1.176197,0.1286845,-0.03423599,0.6835666,-0.03982627,0,0,0
2,0.3934021,-0.333252,0.8568268,0.1,0.3691559,-0.3278656,0.8695984,-29.97853,0.8548279000000001,-22.08366,4.226852,0.3799454,0.5527008000000001,0.1,0.4415282999999999,-0.343338,0.8289489999999999,39.49361,2.708374,-20.62025,5.008316000000001,0.2043974,0.4810157999999999,-0.2917865,1.174783,0.1314984,-0.03004976,0.6756203000000001,-0.04507115,0,0,0
2,0.3934021,-0.333252,0.8568268,0.1,0.3691559,-0.3278656,0.8695984,-29.97853,0.8548279000000001,-22.08366,4.226852,0.3799454,0.5527008000000001,0.1,0.4415282999999999,-0.343338,0.8289489999999999,39.49361,2.708374,-20.62025,5.008316000000001,0.2043974,0.4810157999999999,-0.2917865,1.174783,0.1314984,-0.03004976,0.6756203000000001,-0.04507115,0,0,0
2,0.3934021,-0.333252,0.8568268,0.1,0.3691559,-0.3278656,0.8695984,-29.97853,0.8548279000000001,-22.08366,4.226852,0.3799454,0.5527008000000001,0.1,0.4415282999999999,-0.343338,0.8289489999999999,39.49361,2.708374,-20.62025,5.008316000000001,0.2043974,0.4810157999999999,-0.2917865,1.174783,0.1314984,-0.03004976,0.6756203000000001,-0.04507115,0,0,0
2,0.3444977,-0.3247223,0.8808289,0.1,0.3225708,-0.3214111,0.8902893,-30.2085,1.029709,-21.94576,4.085037000000001,0.3949663,0.5439466,0.1,0.3802795,-0.3297577,0.8640747,39.26109,2.837494,-20.4189,5.025574,0.2235481,0.4716556999999999,-0.2907994,1.172922,0.1364013,-0.02316845,0.662619,-0.05182305,0,0,0
2,0.3444977,-0.3247223,0.8808289,0.1,0.3225708,-0.3214111,0.8902893,-30.2085,1.029709,-21.94576,4.085037000000001,0.3949663,0.5439466,0.1,0.3802795,-0.3297577,0.8640747,39.26109,2.837494,-20.4189,5.025574,0.2235481,0.4716556999999999,-0.2907994,1.172922,0.1364013,-0.02316845,0.662619,-0.05182305,0,0,0
2,0.3444977,-0.3247223,0.8808289,0.1,0.3225708,-0.3214111,0.8902893,-30.2085,1.029709,-21.94576,4.085037000000001,0.3949663,0.5439466,0.1,0.3802795,-0.3297577,0.8640747,39.26109,2.837494,-20.4189,5.025574,0.2235481,0.4716556999999999,-0.2907994,1.172922,0.1364013,-0.02316845,0.662619,-0.05182305,0,0,0
2,0.3226776,-0.3092041,0.8945618000000001,0.1,0.2980347,-0.3061523,0.9041138,-30.28983,1.032608,-21.91368,4.166656,0.4016343,0.5405217,0.1,0.3561554,-0.3130341,0.8804169,39.15541,2.790741,-20.37537,5.207642,0.2313974999999999,0.4694842999999999,-0.2907994,1.172922,0.1364013,-0.02316845,0.662619,-0.05182305,0,0,0
2,0.3226776,-0.3092041,0.8945618000000001,0.1,0.2980347,-0.3061523,0.9041138,-30.28983,1.032608,-21.91368,4.166656,0.4016343,0.5405217,0.1,0.3561554,-0.3130341,0.8804169,39.15541,2.790741,-20.37537,5.207642,0.2313974999999999,0.4694842999999999,-0.2907994,1.172922,0.1364013,-0.02316845,0.662619,-0.05182305,0,0,0
2,0.3226776,-0.3092041,0.8945618000000001,0.1,0.2980347,-0.3061523,0.9041138,-30.28983,1.032608,-21.91368,4.166656,0.4016343,0.5405217,0.1,0.3561554,-0.3130341,0.8804169,39.15541,2.790741,-20.37537,5.207642,0.2313974999999999,0.4694842999999999,-0.2907994,1.172922,0.1364013,-0.02316845,0.662619,-0.05182305,0,0,0
2,0.3041992,-0.3086395,0.9012146,0.1,0.2797852,-0.3061523,0.9099274,-30.31218,1.085907,-21.87785,4.286942,0.4054027,0.5382274,0.1,0.3360442999999999,-0.311615,0.8887939,39.10147,2.835632,-20.32761,5.014435,0.2366598,0.4671814,-0.2903022999999999,1.171959,0.1386067,-0.01896407,0.6570597,-0.05471464,0,0,0
2,0.3041992,-0.3086395,0.9012146,0.1,0.2797852,-0.3061523,0.9099274,-30.31218,1.085907,-21.87785,4.286942,0.4054027,0.5382274,0.1,0.3360442999999999,-0.311615,0.8887939,39.10147,2.835632,-20.32761,5.014435,0.2366598,0.4671814,-0.2903022999999999,1.171959,0.1386067,-0.01896407,0.6570597,-0.05471464,0,0,0
2,0.3041992,-0.3086395,0.9012146,0.1,0.2797852,-0.3061523,0.9099274,-30.31218,1.085907,-21.87785,4.286942,0.4054027,0.5382274,0.1,0.3360442999999999,-0.311615,0.8887939,39.10147,2.835632,-20.32761,5.014435,0.2366598,0.4671814,-0.2903022999999999,1.171959,0.1386067,-0.01896407,0.6570597,-0.05471464,0,0,0
2,0.2880249,-0.2858124,0.9139709,0.1,0.266861,-0.2789001,0.9224854,-30.34917,1.147095,-21.81537,4.332808999999999,0.4087387,0.5308421,0.1,0.3164825,-0.2949370999999999,0.9015808,39.11354,2.902679,-20.27086,5.081085,0.2397372,0.4613799,-0.2899085,1.171526,0.1411474,-0.01650005,0.6509299,-0.05623342,0,0,0
2,0.2880249,-0.2858124,0.9139709,0.1,0.266861,-0.2789001,0.9224854,-30.34917,1.147095,-21.81537,4.332808999999999,0.4087387,0.5308421,0.1,0.3164825,-0.2949370999999999,0.9015808,39.11354,2.902679,-20.27086,5.081085,0.2397372,0.4613799,-0.2899085,1.171526,0.1411474,-0.01650005,0.6509299,-0.05623342,0,0,0
2,0.2880249,-0.2858124,0.9139709,0.1,0.266861,-0.2789001,0.9224854,-30.34917,1.147095,-21.81537,4.332808999999999,0.4087387,0.5308421,0.1,0.3164825,-0.2949370999999999,0.9015808,39.11354,2.902679,-20.27086,5.081085,0.2397372,0.4613799,-0.2899085,1.171526,0.1411474,-0.01650005,0.6509299,-0.05623342,0,0,0
2,0.2692870999999999,-0.2810515999999999,0.9211273,0.1,0.2457275,-0.2857819,0.926239,-30.36113,1.161591,-21.81537,4.193512,0.4124165,0.5313265,0.1,0.2967529,-0.2752686,0.9144135,39.04088,2.878769,-20.23997,5.130936,0.2455389,0.4583272,-0.289812,1.170898,0.1436586,-0.01313136,0.6441366,-0.05797662,0,0,0
2,0.2692870999999999,-0.2810515999999999,0.9211273,0.1,0.2457275,-0.2857819,0.926239,-30.36113,1.161591,-21.81537,4.193512,0.4124165,0.5313265,0.1,0.2967529,-0.2752686,0.9144135,39.04088,2.878769,-20.23997,5.130936,0.2455389,0.4583272,-0.289812,1.170898,0.1436586,-0.01313136,0.6441366,-0.05797662,0,0,0
2,0.2692870999999999,-0.2810515999999999,0.9211273,0.1,0.2457275,-0.2857819,0.926239,-30.36113,1.161591,-21.81537,4.193512,0.4124165,0.5313265,0.1,0.2967529,-0.2752686,0.9144135,39.04088,2.878769,-20.23997,5.130936,0.2455389,0.4583272,-0.289812,1.170898,0.1436586,-0.01313136,0.6441366,-0.05797662,0,0,0
2,0.3361206,-0.2493896,0.9081879,0.1,0.3082123,-0.2532501,0.9169769,-30.06036,1.329224,-21.84348,4.377411,0.3928779,0.5213324,0.1,0.3718719,-0.2440796,0.8956146,39.35333,3.09845,-20.29694,5.1763,0.2224369,0.4471653,-0.2896717,1.170461,0.1463273,-0.010033,0.6367508000000001,-0.05819039,0,0,0
2,0.3361206,-0.2493896,0.9081879,0.1,0.3082123,-0.2532501,0.9169769,-30.06036,1.329224,-21.84348,4.377411,0.3928779,0.5213324,0.1,0.3718719,-0.2440796,0.8956146,39.35333,3.09845,-20.29694,5.1763,0.2224369,0.4471653,-0.2896717,1.170461,0.1463273,-0.010033,0.6367508000000001,-0.05819039,0,0,0
2,0.3361206,-0.2493896,0.9081879,0.1,0.3082123,-0.2532501,0.9169769,-30.06036,1.329224,-21.84348,4.377411,0.3928779,0.5213324,0.1,0.3718719,-0.2440796,0.8956146,39.35333,3.09845,-20.29694,5.1763,0.2224369,0.4471653,-0.2896717,1.170461,0.1463273,-0.010033,0.6367508000000001,-0.05819039,0,0,0
2,0.3161011,-0.2334595,0.9195404,0.1,0.2818604,-0.2328949,0.9307556,-30.10738,1.428223,-21.78229,4.291534,0.3986195,0.5138247,0.1,0.360199,-0.2337341,0.9031067,39.3271,3.151291,-20.25362,5.242294,0.2254316,0.4431905,-0.2892238,1.170282,0.1491497,-0.007572789,0.6284659,-0.05626336,0,0,0
2,0.3161011,-0.2334595,0.9195404,0.1,0.2818604,-0.2328949,0.9307556,-30.10738,1.428223,-21.78229,4.291534,0.3986195,0.5138247,0.1,0.360199,-0.2337341,0.9031067,39.3271,3.151291,-20.25362,5.242294,0.2254316,0.4431905,-0.2892238,1.170282,0.1491497,-0.007572789,0.6284659,-0.05626336,0,0,0
2,0.3161011,-0.2334595,0.9195404,0.1,0.2818604,-0.2328949,0.9307556,-30.10738,1.428223,-21.78229,4.291534,0.3986195,0.5138247,0.1,0.360199,-0.2337341,0.9031067,39.3271,3.151291,-20.25362,5.242294,0.2254316,0.4431905,-0.2892238,1.170282,0.1491497,-0.007572789,0.6284659,-0.05626336,0,0,0
2,0.306839,-0.2364502,0.9219055,0.1,0.2657165999999999,-0.2281036,0.9366608,-30.15341,1.482742,-21.76122,4.331299,0.4027323,0.5109098,0.1,0.3451385,-0.2439117,0.9062958,39.32106,3.227661,-20.21288,5.244675,0.2282739999999999,0.4419112,-0.2886932,1.171009,0.1524319,-0.007409678,0.6185778000000001,-0.05105772,0,0,0
2,0.306839,-0.2364502,0.9219055,0.1,0.2657165999999999,-0.2281036,0.9366608,-30.15341,1.482742,-21.76122,4.331299,0.4027323,0.5109098,0.1,0.3451385,-0.2439117,0.9062958,39.32106,3.227661,-20.21288,5.244675,0.2282739999999999,0.4419112,-0.2886932,1.171009,0.1524319,-0.007409678,0.6185778000000001,-0.05105772,0,0,0
2,0.306839,-0.2364502,0.9219055,0.1,0.2657165999999999,-0.2281036,0.9366608,-30.15341,1.482742,-21.76122,4.331299,0.4027323,0.5109098,0.1,0.3451385,-0.2439117,0.9062958,39.32106,3.227661,-20.21288,5.244675,0.2282739999999999,0.4419112,-0.2886932,1.171009,0.1524319,-0.007409678,0.6185778000000001,-0.05105772,0,0,0
3,0.2553558,-0.23703,0.9373322,0.1,0.2347717,-0.2355957,0.9430542,-30.23695,1.447174,-21.73627,4.230438,0.4102982,0.5127788,0.1,0.2857819,-0.2389526,0.928009,39.21692,3.190735,-20.13901,5.225693,0.2418274,0.4410685,-0.2885216,1.171611,0.1559485,-0.00776419,0.6075590999999999,-0.04855338,0,0,0
3,0.2553558,-0.23703,0.9373322,0.1,0.2347717,-0.2355957,0.9430542,-30.23695,1.447174,-21.73627,4.230438,0.4102982,0.5127788,0.1,0.2857819,-0.2389526,0.928009,39.21692,3.190735,-20.13901,5.225693,0.2418274,0.4410685,-0.2885216,1.171611,0.1559485,-0.00776419,0.6075590999999999,-0.04855338,0,0,0
3,0.2553558,-0.23703,0.9373322,0.1,0.2347717,-0.2355957,0.9430542,-30.23695,1.447174,-21.73627,4.230438,0.4102982,0.5127788,0.1,0.2857819,-0.2389526,0.928009,39.21692,3.190735,-20.13901,5.225693,0.2418274,0.4410685,-0.2885216,1.171611,0.1559485,-0.00776419,0.6075590999999999,-0.04855338,0,0,0
3,0.2305145,-0.2455444,0.9415588,0.1,0.2063292999999999,-0.2378998,0.9491119,-30.41423,1.425049,-21.69563,4.2754970000000005,0.4205457,0.5133041,0.1,0.2641754,-0.2559813999999999,0.9298706,38.95155,3.238083,-20.08183,5.095505,0.2542882,0.4419045,-0.2884713,1.17187,0.1590541,-0.008436552,0.5974384,-0.04900534,0,0,0
3,0.2305145,-0.2455444,0.9415588,0.1,0.2063292999999999,-0.2378998,0.9491119,-30.41423,1.425049,-21.69563,4.2754970000000005,0.4205457,0.5133041,0.1,0.2641754,-0.2559813999999999,0.9298706,38.95155,3.238083,-20.08183,5.095505,0.2542882,0.4419045,-0.2884713,1.17187,0.1590541,-0.008436552,0.5974384,-0.04900534,0,0,0
3,0.2305145,-0.2455444,0.9415588,0.1,0.2063292999999999,-0.2378998,0.9491119,-30.41423,1.425049,-21.69563,4.2754970000000005,0.4205457,0.5133041,0.1,0.2641754,-0.2559813999999999,0.9298706,38.95155,3.238083,-20.08183,5.095505,0.2542882,0.4419045,-0.2884713,1.17187,0.1590541,-0.008436552,0.5974384,-0.04900534,0,0,0
3,0.2062377999999999,-0.2439117,0.9476013,0.1,0.1789703,-0.2486114999999999,0.9519196,-30.64388,1.439209,-21.65656,4.184357,0.4322129,0.514145,0.1,0.2414551,-0.2375031,0.9408875,38.7063,3.275223,-20.01633,5.283951,0.266286,0.4369865,-0.288432,1.172141,0.1616138,-0.0102,0.5888114000000001,-0.05053062,0,0,0
3,0.2062377999999999,-0.2439117,0.9476013,0.1,0.1789703,-0.2486114999999999,0.9519196,-30.64388,1.439209,-21.65656,4.184357,0.4322129,0.514145,0.1,0.2414551,-0.2375031,0.9408875,38.7063,3.275223,-20.01633,5.283951,0.266286,0.4369865,-0.288432,1.172141,0.1616138,-0.0102,0.5888114000000001,-0.05053062,0,0,0
3,0.2062377999999999,-0.2439117,0.9476013,0.1,0.1789703,-0.2486114999999999,0.9519196,-30.64388,1.439209,-21.65656,4.184357,0.4322129,0.514145,0.1,0.2414551,-0.2375031,0.9408875,38.7063,3.275223,-20.01633,5.283951,0.266286,0.4369865,-0.288432,1.172141,0.1616138,-0.0102,0.5888114000000001,-0.05053062,0,0,0
3,0.1655121,-0.2401581,0.9565125,0.1,0.1523895,-0.2367706,0.9595337,-30.73633,1.407669,-21.631870000000003,4.239883,0.4394055,0.5127823,0.1,0.1824492999999999,-0.2444611,0.9523315,38.57072,3.249741,-19.97707,4.886978,0.2802702,0.4383431,-0.2889245,1.172554,0.1650159,-0.01327343,0.5759656999999999,-0.05507123,0,0,0
3,0.1655121,-0.2401581,0.9565125,0.1,0.1523895,-0.2367706,0.9595337,-30.73633,1.407669,-21.631870000000003,4.239883,0.4394055,0.5127823,0.1,0.1824492999999999,-0.2444611,0.9523315,38.57072,3.249741,-19.97707,4.886978,0.2802702,0.4383431,-0.2889245,1.172554,0.1650159,-0.01327343,0.5759656999999999,-0.05507123,0,0,0
3,0.1655121,-0.2401581,0.9565125,0.1,0.1523895,-0.2367706,0.9595337,-30.73633,1.407669,-21.631870000000003,4.239883,0.4394055,0.5127823,0.1,0.1824492999999999,-0.2444611,0.9523315,38.57072,3.249741,-19.97707,4.886978,0.2802702,0.4383431,-0.2889245,1.172554,0.1650159,-0.01327343,0.5759656999999999,-0.05507123,0,0,0
3,0.2102509,-0.2483672999999999,0.9455566,0.1,0.182663,-0.2471619,0.9515839,-30.533,1.403793,-21.6769,4.156784,0.4280517,0.5152156,0.1,0.2423859,-0.249527,0.9375305,38.69397,3.318451,-20.00069,5.2556,0.2665697,0.4374894,-0.2889245,1.172554,0.1650159,-0.01327343,0.5759656999999999,-0.05507123,0,0,0
3,0.2102509,-0.2483672999999999,0.9455566,0.1,0.182663,-0.2471619,0.9515839,-30.533,1.403793,-21.6769,4.156784,0.4280517,0.5152156,0.1,0.2423859,-0.249527,0.9375305,38.69397,3.318451,-20.00069,5.2556,0.2665697,0.4374894,-0.2889245,1.172554,0.1650159,-0.01327343,0.5759656999999999,-0.05507123,0,0,0
3,0.2102509,-0.2483672999999999,0.9455566,0.1,0.182663,-0.2471619,0.9515839,-30.533,1.403793,-21.6769,4.156784,0.4280517,0.5152156,0.1,0.2423859,-0.249527,0.9375305,38.69397,3.318451,-20.00069,5.2556,0.2665697,0.4374894,-0.2889245,1.172554,0.1650159,-0.01327343,0.5759656999999999,-0.05507123,0,0,0
3,0.2409821,-0.2559662,0.9361572,0.1,0.2149506,-0.2477416999999999,0.9446716,-30.51366,1.43663,-21.69795,4.276642,0.4223634,0.5147166,0.1,0.2721252,-0.2656097,0.9248657,38.73682,3.294418,-20.03419,4.89534,0.2601545,0.4415462999999999,-0.288999,1.172813,0.1661244999999999,-0.01518758,0.5726528000000001,-0.05725351,0,0,0
3,0.2409821,-0.2559662,0.9361572,0.1,0.2149506,-0.2477416999999999,0.9446716,-30.51366,1.43663,-21.69795,4.276642,0.4223634,0.5147166,0.1,0.2721252,-0.2656097,0.9248657,38.73682,3.294418,-20.03419,4.89534,0.2601545,0.4415462999999999,-0.288999,1.172813,0.1661244999999999,-0.01518758,0.5726528000000001,-0.05725351,0,0,0
3,0.2409821,-0.2559662,0.9361572,0.1,0.2149506,-0.2477416999999999,0.9446716,-30.51366,1.43663,-21.69795,4.276642,0.4223634,0.5147166,0.1,0.2721252,-0.2656097,0.9248657,38.73682,3.294418,-20.03419,4.89534,0.2601545,0.4415462999999999,-0.288999,1.172813,0.1661244999999999,-0.01518758,0.5726528000000001,-0.05725351,0,0,0
3,0.2271422999999999,-0.2494965,0.9413452,0.1,0.2042389,-0.2512665,0.9461212,-30.58896,1.443497,-21.68222,4.231781,0.4264629,0.5148733,0.1,0.2521362,-0.247406,0.9355164,38.69379,3.266617,-20.01503,5.136368,0.2649335,0.4390159999999999,-0.2885791,1.172827,0.1668552,-0.01637745,0.570233,-0.05832304,0,0,0
3,0.2271422999999999,-0.2494965,0.9413452,0.1,0.2042389,-0.2512665,0.9461212,-30.58896,1.443497,-21.68222,4.231781,0.4264629,0.5148733,0.1,0.2521362,-0.247406,0.9355164,38.69379,3.266617,-20.01503,5.136368,0.2649335,0.4390159999999999,-0.2885791,1.172827,0.1668552,-0.01637745,0.570233,-0.05832304,0,0,0
3,0.2271422999999999,-0.2494965,0.9413452,0.1,0.2042389,-0.2512665,0.9461212,-30.58896,1.443497,-21.68222,4.231781,0.4264629,0.5148733,0.1,0.2521362,-0.247406,0.9355164,38.69379,3.266617,-20.01503,5.136368,0.2649335,0.4390159999999999,-0.2885791,1.172827,0.1668552,-0.01637745,0.570233,-0.05832304,0,0,0
3,0.2164154,-0.2551575,0.9423523,0.1,0.1885529,-0.249176,0.9499207,-30.58977,1.439697,-21.67511,4.083588,0.4289069,0.5144435,0.1,0.2427368,-0.2606506,0.9344177,38.69757,3.208511,-20.02687,5.076477,0.2662746,0.443131,-0.2883555,1.172405,0.1674217,-0.01599796,0.5680744000000001,-0.05822824,0,0,0
3,0.2164154,-0.2551575,0.9423523,0.1,0.1885529,-0.249176,0.9499207,-30.58977,1.439697,-21.67511,4.083588,0.4289069,0.5144435,0.1,0.2427368,-0.2606506,0.9344177,38.69757,3.208511,-20.02687,5.076477,0.2662746,0.443131,-0.2883555,1.172405,0.1674217,-0.01599796,0.5680744000000001,-0.05822824,0,0,0
3,0.2164154,-0.2551575,0.9423523,0.1,0.1885529,-0.249176,0.9499207,-30.58977,1.439697,-21.67511,4.083588,0.4289069,0.5144435,0.1,0.2427368,-0.2606506,0.9344177,38.69757,3.208511,-20.02687,5.076477,0.2662746,0.443131,-0.2883555,1.172405,0.1674217,-0.01599796,0.5680744000000001,-0.05822824,0,0,0
3,0.2049866,-0.2556,0.9447937,0.1,0.1789246,-0.2516784999999999,0.9511108,-30.56192,1.406937,-21.67685,4.0351870000000005,0.4295157,0.5158568,0.1,0.2314453,-0.2593994,0.9376221,38.71858,3.184692,-20.02985,5.045517,0.2673979,0.4436134,-0.2883394,1.171773,0.1682749,-0.0143317,0.5655170999999999,-0.05967778,0,0,0
3,0.2049866,-0.2556,0.9447937,0.1,0.1789246,-0.2516784999999999,0.9511108,-30.56192,1.406937,-21.67685,4.0351870000000005,0.4295157,0.5158568,0.1,0.2314453,-0.2593994,0.9376221,38.71858,3.184692,-20.02985,5.045517,0.2673979,0.4436134,-0.2883394,1.171773,0.1682749,-0.0143317,0.5655170999999999,-0.05967778,0,0,0
3,0.2049866,-0.2556,0.9447937,0.1,0.1789246,-0.2516784999999999,0.9511108,-30.56192,1.406937,-21.67685,4.0351870000000005,0.4295157,0.5158568,0.1,0.2314453,-0.2593994,0.9376221,38.71858,3.184692,-20.02985,5.045517,0.2673979,0.4436134,-0.2883394,1.171773,0.1682749,-0.0143317,0.5655170999999999,-0.05967778,0,0,0
3,0.1959839,-0.2524872,0.947525,0.1,0.1616974,-0.2440186,0.956192,-30.55431,1.426468,-21.65233,4.080887000000001,0.432036,0.5135917,0.1,0.2277985,-0.2601166,0.9383087,38.72028,3.196381,-20.0239,4.963333,0.2679364999999999,0.4432996,-0.2881849999999999,1.171408,0.1690492999999999,-0.01305154,0.562711,-0.06148764,0,0,0
3,0.1959839,-0.2524872,0.947525,0.1,0.1616974,-0.2440186,0.956192,-30.55431,1.426468,-21.65233,4.080887000000001,0.432036,0.5135917,0.1,0.2277985,-0.2601166,0.9383087,38.72028,3.196381,-20.0239,4.963333,0.2679364999999999,0.4432996,-0.2881849999999999,1.171408,0.1690492999999999,-0.01305154,0.562711,-0.06148764,0,0,0
3,0.1959839,-0.2524872,0.947525,0.1,0.1616974,-0.2440186,0.956192,-30.55431,1.426468,-21.65233,4.080887000000001,0.432036,0.5135917,0.1,0.2277985,-0.2601166,0.9383087,38.72028,3.196381,-20.0239,4.963333,0.2679364999999999,0.4432996,-0.2881849999999999,1.171408,0.1690492999999999,-0.01305154,0.562711,-0.06148764,0,0,0
3,0.2733612,-0.2252655,0.9351501,0.1,0.2442932,-0.2221069,0.9439087,-29.95111,1.474457,-21.76823,4.173706,0.3995704,0.5099416,0.1,0.3081817999999999,-0.2288208,0.9233856,39.33289,3.328568,-20.1205,4.920364,0.2343054999999999,0.4349928,-0.2881954,1.170875,0.1700131,-0.0108447,0.5587438,-0.06408861,0,0,0
3,0.2733612,-0.2252655,0.9351501,0.1,0.2442932,-0.2221069,0.9439087,-29.95111,1.474457,-21.76823,4.173706,0.3995704,0.5099416,0.1,0.3081817999999999,-0.2288208,0.9233856,39.33289,3.328568,-20.1205,4.920364,0.2343054999999999,0.4349928,-0.2881954,1.170875,0.1700131,-0.0108447,0.5587438,-0.06408861,0,0,0
3,0.2733612,-0.2252655,0.9351501,0.1,0.2442932,-0.2221069,0.9439087,-29.95111,1.474457,-21.76823,4.173706,0.3995704,0.5099416,0.1,0.3081817999999999,-0.2288208,0.9233856,39.33289,3.328568,-20.1205,4.920364,0.2343054999999999,0.4349928,-0.2881954,1.170875,0.1700131,-0.0108447,0.5587438,-0.06408861,0,0,0
3,0.4075928,-0.192749,0.8925780999999999,0.1,0.3997192,-0.1969147,0.8952179,-29.25671,1.648468,-22.00545,4.239822,0.3519105999999999,0.5042037,0.1,0.4805755999999999,-0.1523895,0.8636017,40.312740000000005,3.521561,-20.517,5.417984,0.169463,0.4204155,-0.2889430999999999,1.170107,0.1727512,-0.009747679,0.5450484,-0.0708487,0,0,0
3,0.4075928,-0.192749,0.8925780999999999,0.1,0.3997192,-0.1969147,0.8952179,-29.25671,1.648468,-22.00545,4.239822,0.3519105999999999,0.5042037,0.1,0.4805755999999999,-0.1523895,0.8636017,40.312740000000005,3.521561,-20.517,5.417984,0.169463,0.4204155,-0.2889430999999999,1.170107,0.1727512,-0.009747679,0.5450484,-0.0708487,0,0,0
3,0.4075928,-0.192749,0.8925780999999999,0.1,0.3997192,-0.1969147,0.8952179,-29.25671,1.648468,-22.00545,4.239822,0.3519105999999999,0.5042037,0.1,0.4805755999999999,-0.1523895,0.8636017,40.312740000000005,3.521561,-20.517,5.417984,0.169463,0.4204155,-0.2889430999999999,1.170107,0.1727512,-0.009747679,0.5450484,-0.0708487,0,0,0
3,0.4011078,-0.189743,0.8961486999999999,0.1,0.3728942999999999,-0.1992493,0.9062195,-29.412,1.639069,-21.93617,4.207443,0.3613677999999999,0.5038688,0.1,0.4428406,-0.1750487999999999,0.8793334999999999,40.21353,3.482574,-20.44305,4.959457,0.1800497,0.424506,-0.2896432,1.169667,0.1741501,-0.008722263,0.5379566,-0.07432955,0,0,0
3,0.4011078,-0.189743,0.8961486999999999,0.1,0.3728942999999999,-0.1992493,0.9062195,-29.412,1.639069,-21.93617,4.207443,0.3613677999999999,0.5038688,0.1,0.4428406,-0.1750487999999999,0.8793334999999999,40.21353,3.482574,-20.44305,4.959457,0.1800497,0.424506,-0.2896432,1.169667,0.1741501,-0.008722263,0.5379566,-0.07432955,0,0,0
3,0.4011078,-0.189743,0.8961486999999999,0.1,0.3728942999999999,-0.1992493,0.9062195,-29.412,1.639069,-21.93617,4.207443,0.3613677999999999,0.5038688,0.1,0.4428406,-0.1750487999999999,0.8793334999999999,40.21353,3.482574,-20.44305,4.959457,0.1800497,0.424506,-0.2896432,1.169667,0.1741501,-0.008722263,0.5379566,-0.07432955,0,0,0
3,0.3748015999999999,-0.1911621,0.9071655,0.1,0.3575134,-0.1792908,0.9165192,-29.49597,1.670395,-21.88683,4.045593,0.3664953,0.4988074999999999,0.1,0.3952484,-0.2052612,0.8953399999999999,40.13428,3.512894,-20.3362,4.9970550000000005,0.1915862,0.4271777,-0.2899637,1.16934,0.175342,-0.0091760019999999,0.5317006,-0.07802323,0,0,0
3,0.3748015999999999,-0.1911621,0.9071655,0.1,0.3575134,-0.1792908,0.9165192,-29.49597,1.670395,-21.88683,4.045593,0.3664953,0.4988074999999999,0.1,0.3952484,-0.2052612,0.8953399999999999,40.13428,3.512894,-20.3362,4.9970550000000005,0.1915862,0.4271777,-0.2899637,1.16934,0.175342,-0.0091760019999999,0.5317006,-0.07802323,0,0,0
3,0.3748015999999999,-0.1911621,0.9071655,0.1,0.3575134,-0.1792908,0.9165192,-29.49597,1.670395,-21.88683,4.045593,0.3664953,0.4988074999999999,0.1,0.3952484,-0.2052612,0.8953399999999999,40.13428,3.512894,-20.3362,4.9970550000000005,0.1915862,0.4271777,-0.2899637,1.16934,0.175342,-0.0091760019999999,0.5317006,-0.07802323,0,0,0
3,0.3682709,-0.1984253,0.9082947,0.1,0.3538055,-0.1816711,0.9174957,-29.51428,1.666412,-21.88039,4.064865,0.3677129,0.4992293,0.1,0.3870544,-0.2203827,0.8953247,40.10284,3.517807,-20.31456,4.74791,0.1941552,0.4293888,-0.2907818,1.168744,0.1770108,-0.0089702999999999,0.5250357,-0.0816987,0,0,0
3,0.3682709,-0.1984253,0.9082947,0.1,0.3538055,-0.1816711,0.9174957,-29.51428,1.666412,-21.88039,4.064865,0.3677129,0.4992293,0.1,0.3870544,-0.2203827,0.8953247,40.10284,3.517807,-20.31456,4.74791,0.1941552,0.4293888,-0.2907818,1.168744,0.1770108,-0.0089702999999999,0.5250357,-0.0816987,0,0,0
3,0.3682709,-0.1984253,0.9082947,0.1,0.3538055,-0.1816711,0.9174957,-29.51428,1.666412,-21.88039,4.064865,0.3677129,0.4992293,0.1,0.3870544,-0.2203827,0.8953247,40.10284,3.517807,-20.31456,4.74791,0.1941552,0.4293888,-0.2907818,1.168744,0.1770108,-0.0089702999999999,0.5250357,-0.0816987,0,0,0
3,0.3700256,-0.1869048999999999,0.9100189,0.1,0.3542785999999999,-0.1795502,0.9177246,-29.521590000000003,1.6644900000000002,-21.87967,4.199463,0.3679792,0.4989627,0.1,0.3932495,-0.1977386,0.8979034,40.09714,3.508087,-20.3205,4.820816000000001,0.1932771,0.4259814,-0.291755,1.168256,0.1795981,-0.008694458,0.5151612,-0.08420153,0,0,0
3,0.3700256,-0.1869048999999999,0.9100189,0.1,0.3542785999999999,-0.1795502,0.9177246,-29.521590000000003,1.6644900000000002,-21.87967,4.199463,0.3679792,0.4989627,0.1,0.3932495,-0.1977386,0.8979034,40.09714,3.508087,-20.3205,4.820816000000001,0.1932771,0.4259814,-0.291755,1.168256,0.1795981,-0.008694458,0.5151612,-0.08420153,0,0,0
3,0.3700256,-0.1869048999999999,0.9100189,0.1,0.3542785999999999,-0.1795502,0.9177246,-29.521590000000003,1.6644900000000002,-21.87967,4.199463,0.3679792,0.4989627,0.1,0.3932495,-0.1977386,0.8979034,40.09714,3.508087,-20.3205,4.820816000000001,0.1932771,0.4259814,-0.291755,1.168256,0.1795981,-0.008694458,0.5151612,-0.08420153,0,0,0
3,0.3143158,-0.1766357,0.9327393,0.1,0.2875366,-0.1730499,0.9420013,-29.5118,1.66713,-21.80305,4.168213,0.3785390999999999,0.4962175999999999,0.1,0.3368988,-0.1795654,0.9242554,40.05977,3.35936,-20.26794,4.935242,0.2044967,0.4266707,-0.2927333,1.167663,0.1822257,-0.007424244,0.5038208,-0.08705378,0,0,0
3,0.3143158,-0.1766357,0.9327393,0.1,0.2875366,-0.1730499,0.9420013,-29.5118,1.66713,-21.80305,4.168213,0.3785390999999999,0.4962175999999999,0.1,0.3368988,-0.1795654,0.9242554,40.05977,3.35936,-20.26794,4.935242,0.2044967,0.4266707,-0.2927333,1.167663,0.1822257,-0.007424244,0.5038208,-0.08705378,0,0,0
3,0.3143158,-0.1766357,0.9327393,0.1,0.2875366,-0.1730499,0.9420013,-29.5118,1.66713,-21.80305,4.168213,0.3785390999999999,0.4962175999999999,0.1,0.3368988,-0.1795654,0.9242554,40.05977,3.35936,-20.26794,4.935242,0.2044967,0.4266707,-0.2927333,1.167663,0.1822257,-0.007424244,0.5038208,-0.08705378,0,0,0
3,0.2864837999999999,-0.1761017,0.9417572,0.1,0.2778015,-0.1726532,0.9449921,-29.52869,1.6596529999999998,-21.79858,4.0492550000000005,0.3805767,0.4962175999999999,0.1,0.2969970999999999,-0.1802826,0.9376984,40.0475,3.331924,-20.23,4.808716,0.2118174,0.4270021,-0.2938777999999999,1.166835,0.1856371,-0.00480126,0.4903709,-0.09092141,0,0,0
3,0.2864837999999999,-0.1761017,0.9417572,0.1,0.2778015,-0.1726532,0.9449921,-29.52869,1.6596529999999998,-21.79858,4.0492550000000005,0.3805767,0.4962175999999999,0.1,0.2969970999999999,-0.1802826,0.9376984,40.0475,3.331924,-20.23,4.808716,0.2118174,0.4270021,-0.2938777999999999,1.166835,0.1856371,-0.00480126,0.4903709,-0.09092141,0,0,0
3,0.2864837999999999,-0.1761017,0.9417572,0.1,0.2778015,-0.1726532,0.9449921,-29.52869,1.6596529999999998,-21.79858,4.0492550000000005,0.3805767,0.4962175999999999,0.1,0.2969970999999999,-0.1802826,0.9376984,40.0475,3.331924,-20.23,4.808716,0.2118174,0.4270021,-0.2938777999999999,1.166835,0.1856371,-0.00480126,0.4903709,-0.09092141,0,0,0
3,0.2471007999999999,-0.1568756,0.956192,0.1,0.2208557,-0.148941,0.9638519,-29.6086,1.679199,-21.73343,4.001511,0.3923163,0.4905202999999999,0.1,0.2766724,-0.165741,0.9465485,39.86795,3.343475,-20.18344,5.031281,0.2214476,0.4237939,-0.2952626,1.166349,0.1896052,-0.002480762,0.4754489999999999,-0.09615213,0,0,0
3,0.2471007999999999,-0.1568756,0.956192,0.1,0.2208557,-0.148941,0.9638519,-29.6086,1.679199,-21.73343,4.001511,0.3923163,0.4905202999999999,0.1,0.2766724,-0.165741,0.9465485,39.86795,3.343475,-20.18344,5.031281,0.2214476,0.4237939,-0.2952626,1.166349,0.1896052,-0.002480762,0.4754489999999999,-0.09615213,0,0,0
3,0.2471007999999999,-0.1568756,0.956192,0.1,0.2208557,-0.148941,0.9638519,-29.6086,1.679199,-21.73343,4.001511,0.3923163,0.4905202999999999,0.1,0.2766724,-0.165741,0.9465485,39.86795,3.343475,-20.18344,5.031281,0.2214476,0.4237939,-0.2952626,1.166349,0.1896052,-0.002480762,0.4754489999999999,-0.09615213,0,0,0
3,0.2118987999999999,-0.1531219,0.96521,0.1,0.188385,-0.1488037,0.9707489,-29.61697,1.7677919999999998,-21.68082,4.079407,0.3978658,0.4870127,0.1,0.2379607999999999,-0.1578369,0.9583588,39.80937,3.344543,-20.13065,4.690796,0.2300235,0.4217781,-0.2971167,1.166303,0.1944354,-0.0008631675,0.4578183,-0.09901506,0,0,0
3,0.2118987999999999,-0.1531219,0.96521,0.1,0.188385,-0.1488037,0.9707489,-29.61697,1.7677919999999998,-21.68082,4.079407,0.3978658,0.4870127,0.1,0.2379607999999999,-0.1578369,0.9583588,39.80937,3.344543,-20.13065,4.690796,0.2300235,0.4217781,-0.2971167,1.166303,0.1944354,-0.0008631675,0.4578183,-0.09901506,0,0,0
3,0.2118987999999999,-0.1531219,0.96521,0.1,0.188385,-0.1488037,0.9707489,-29.61697,1.7677919999999998,-21.68082,4.079407,0.3978658,0.4870127,0.1,0.2379607999999999,-0.1578369,0.9583588,39.80937,3.344543,-20.13065,4.690796,0.2300235,0.4217781,-0.2971167,1.166303,0.1944354,-0.0008631675,0.4578183,-0.09901506,0,0,0
3,0.1704712,-0.1333312999999999,0.9762878,0.1,0.1564331,-0.1332549999999999,0.978653,-29.75652,1.81424,-21.64241,4.093399,0.4074596,0.482466,0.2671744,0.1897125,-0.1333771,0.9727325,39.63547,3.266953,-20.08408,4.88298,0.243909,0.4197496,-0.2994145,1.1662290000000002,0.1997045,0.0009216106,0.43817,-0.1002671,0,0,0
3,0.1704712,-0.1333312999999999,0.9762878,0.1,0.1564331,-0.1332549999999999,0.978653,-29.75652,1.81424,-21.64241,4.093399,0.4074596,0.482466,0.2671744,0.1897125,-0.1333771,0.9727325,39.63547,3.266953,-20.08408,4.88298,0.243909,0.4197496,-0.2994145,1.1662290000000002,0.1997045,0.0009216106,0.43817,-0.1002671,0,0,0
3,0.1704712,-0.1333312999999999,0.9762878,0.1,0.1564331,-0.1332549999999999,0.978653,-29.75652,1.81424,-21.64241,4.093399,0.4074596,0.482466,0.2671744,0.1897125,-0.1333771,0.9727325,39.63547,3.266953,-20.08408,4.88298,0.243909,0.4197496,-0.2994145,1.1662290000000002,0.1997045,0.0009216106,0.43817,-0.1002671,0,0,0
3,0.3297577,-0.1072083,0.9379425,0.1,0.3008728,-0.1150055,0.9466858,-29.04646,1.773697,-21.84119,4.310257,0.3615073,0.4835979,0.0,0.3950805999999999,-0.08885193,0.9143219,40.3958,3.3591,-20.40138,5.270142,0.1823377,0.4130001,-0.3022185999999999,1.166107,0.2050361,0.003730641,0.4173504,-0.1007897,0,0,0
3,0.3297577,-0.1072083,0.9379425,0.1,0.3008728,-0.1150055,0.9466858,-29.04646,1.773697,-21.84119,4.310257,0.3615073,0.4835979,0.0,0.3950805999999999,-0.08885193,0.9143219,40.3958,3.3591,-20.40138,5.270142,0.1823377,0.4130001,-0.3022185999999999,1.166107,0.2050361,0.003730641,0.4173504,-0.1007897,0,0,0
3,0.3297577,-0.1072083,0.9379425,0.1,0.3008728,-0.1150055,0.9466858,-29.04646,1.773697,-21.84119,4.310257,0.3615073,0.4835979,0.0,0.3950805999999999,-0.08885193,0.9143219,40.3958,3.3591,-20.40138,5.270142,0.1823377,0.4130001,-0.3022185999999999,1.166107,0.2050361,0.003730641,0.4173504,-0.1007897,0,0,0
3,0.3891907,-0.1204681,0.9132385,0.1,0.3764038,-0.1243286,0.9180603,-29.02261,1.766968,-21.92316,4.315735,0.3483255,0.4870872,0.0,0.4672545999999999,-0.09584045,0.8789063,40.508590000000005,3.433975,-20.50856,5.356383999999999,0.1648519,0.4132840999999999,-0.3051252,1.165889,0.2100219,0.006430453,0.3989231,-0.1027956,0,0,0
3,0.3891907,-0.1204681,0.9132385,0.1,0.3764038,-0.1243286,0.9180603,-29.02261,1.766968,-21.92316,4.315735,0.3483255,0.4870872,0.0,0.4672545999999999,-0.09584045,0.8789063,40.508590000000005,3.433975,-20.50856,5.356383999999999,0.1648519,0.4132840999999999,-0.3051252,1.165889,0.2100219,0.006430453,0.3989231,-0.1027956,0,0,0
3,0.3891907,-0.1204681,0.9132385,0.1,0.3764038,-0.1243286,0.9180603,-29.02261,1.766968,-21.92316,4.315735,0.3483255,0.4870872,0.0,0.4672545999999999,-0.09584045,0.8789063,40.508590000000005,3.433975,-20.50856,5.356383999999999,0.1648519,0.4132840999999999,-0.3051252,1.165889,0.2100219,0.006430453,0.3989231,-0.1027956,0,0,0
3,0.3418427,-0.1247711,0.931427,0.1,0.3273773,-0.1278687,0.9361877,-29.14677,1.819809,-21.83115,4.380585,0.3604989,0.4845383,0.0,0.4161835,-0.1081085,0.9028168,40.43288,3.46727,-20.44653,5.094269000000001,0.177009,0.4131306999999999,-0.307803,1.166469,0.2149294,0.006802066,0.3828329,-0.1034734,0,0,0
3,0.3418427,-0.1247711,0.931427,0.1,0.3273773,-0.1278687,0.9361877,-29.14677,1.819809,-21.83115,4.380585,0.3604989,0.4845383,0.0,0.4161835,-0.1081085,0.9028168,40.43288,3.46727,-20.44653,5.094269000000001,0.177009,0.4131306999999999,-0.307803,1.166469,0.2149294,0.006802066,0.3828329,-0.1034734,0,0,0
3,0.3418427,-0.1247711,0.931427,0.1,0.3273773,-0.1278687,0.9361877,-29.14677,1.819809,-21.83115,4.380585,0.3604989,0.4845383,0.0,0.4161835,-0.1081085,0.9028168,40.43288,3.46727,-20.44653,5.094269000000001,0.177009,0.4131306999999999,-0.307803,1.166469,0.2149294,0.006802066,0.3828329,-0.1034734,0,0,0
3,0.3418427,-0.1247711,0.931427,0.1,0.3273773,-0.1278687,0.9361877,-29.14677,1.819809,-21.83115,4.380585,0.3604989,0.4845383,0.0,0.4161835,-0.1081085,0.9028168,40.43288,3.46727,-20.44653,5.094269000000001,0.177009,0.4131306999999999,-0.3111768,1.167133,0.219906,0.006897783,0.3656937,-0.102851,0,0,0
3,0.3418427,-0.1247711,0.931427,0.1,0.3273773,-0.1278687,0.9361877,-29.14677,1.819809,-21.83115,4.380585,0.3604989,0.4845383,0.0,0.4161835,-0.1081085,0.9028168,40.43288,3.46727,-20.44653,5.094269000000001,0.177009,0.4131306999999999,-0.3111768,1.167133,0.219906,0.006897783,0.3656937,-0.102851,0,0,0
3,0.3418427,-0.1247711,0.931427,0.1,0.3273773,-0.1278687,0.9361877,-29.14677,1.819809,-21.83115,4.380585,0.3604989,0.4845383,0.0,0.4161835,-0.1081085,0.9028168,40.43288,3.46727,-20.44653,5.094269000000001,0.177009,0.4131306999999999,-0.3111768,1.167133,0.219906,0.006897783,0.3656937,-0.102851,0,0,0
3,0.2287902999999999,-0.09559631,0.9687653,1.0,0.2114257999999999,-0.09700012,0.9725647,-29.29443,1.935211,-21.6772,4.205521,0.3839573,0.4732699000000001,0.4432471999999999,0.2554474,-0.09338379,0.9622955,40.287490000000005,3.423492,-20.24706,5.230835,0.2105436,0.4093105,-0.3155643,1.168413,0.2256372,0.00545642,0.3430531,-0.1027729,0,0,0
3,0.2287902999999999,-0.09559631,0.9687653,1.0,0.2114257999999999,-0.09700012,0.9725647,-29.29443,1.935211,-21.6772,4.205521,0.3839573,0.4732699000000001,0.4432471999999999,0.2554474,-0.09338379,0.9622955,40.287490000000005,3.423492,-20.24706,5.230835,0.2105436,0.4093105,-0.3155643,1.168413,0.2256372,0.00545642,0.3430531,-0.1027729,0,0,0
3,0.2287902999999999,-0.09559631,0.9687653,1.0,0.2114257999999999,-0.09700012,0.9725647,-29.29443,1.935211,-21.6772,4.205521,0.3839573,0.4732699000000001,0.4432471999999999,0.2554474,-0.09338379,0.9622955,40.287490000000005,3.423492,-20.24706,5.230835,0.2105436,0.4093105,-0.3155643,1.168413,0.2256372,0.00545642,0.3430531,-0.1027729,0,0,0
3,0.1432342999999999,-0.08772278,0.9857788,1.0,0.1367035,-0.09361267,0.9861755,-29.7674,1.895248,-21.60918,4.2783050000000005,0.4110464,0.473116,0.6510158,0.1539307,-0.07804871,0.9849854,39.72043,3.350174,-20.09181,5.21315,0.2468291,0.4079977,-0.3202077,1.169634,0.2312576,0.003561023,0.319252,-0.1033591,0,0,0
3,0.1432342999999999,-0.08772278,0.9857788,1.0,0.1367035,-0.09361267,0.9861755,-29.7674,1.895248,-21.60918,4.2783050000000005,0.4110464,0.473116,0.6510158,0.1539307,-0.07804871,0.9849854,39.72043,3.350174,-20.09181,5.21315,0.2468291,0.4079977,-0.3202077,1.169634,0.2312576,0.003561023,0.319252,-0.1033591,0,0,0
3,0.1432342999999999,-0.08772278,0.9857788,1.0,0.1367035,-0.09361267,0.9861755,-29.7674,1.895248,-21.60918,4.2783050000000005,0.4110464,0.473116,0.6510158,0.1539307,-0.07804871,0.9849854,39.72043,3.350174,-20.09181,5.21315,0.2468291,0.4079977,-0.3202077,1.169634,0.2312576,0.003561023,0.319252,-0.1033591,0,0,0
3,0.1048279,-0.09268188,0.9901581,1.0,0.1069031,-0.09664917,0.9895477,-29.974120000000003,1.909058,-21.60277,4.240784,0.4223651,0.4730294,0.6051608,0.1005554,-0.08447266,0.991333,39.48709,3.357193,-20.03432,5.231201,0.2633427,0.4084196,-0.3243477,1.17051,0.2361183999999999,0.003833086,0.2996427,-0.1035494999999999,0,0,0
3,0.1048279,-0.09268188,0.9901581,1.0,0.1069031,-0.09664917,0.9895477,-29.974120000000003,1.909058,-21.60277,4.240784,0.4223651,0.4730294,0.6051608,0.1005554,-0.08447266,0.991333,39.48709,3.357193,-20.03432,5.231201,0.2633427,0.4084196,-0.3243477,1.17051,0.2361183999999999,0.003833086,0.2996427,-0.1035494999999999,0,0,0
3,0.1048279,-0.09268188,0.9901581,1.0,0.1069031,-0.09664917,0.9895477,-29.974120000000003,1.909058,-21.60277,4.240784,0.4223651,0.4730294,0.6051608,0.1005554,-0.08447266,0.991333,39.48709,3.357193,-20.03432,5.231201,0.2633427,0.4084196,-0.3243477,1.17051,0.2361183999999999,0.003833086,0.2996427,-0.1035494999999999,0,0,0
3,0.3243408,-0.1796722,0.9287109,0.0,0.2888489,-0.1856689,0.9391785,-29.22206,1.407501,-21.86031,4.559737999999999,0.3691819,0.507154,0.2418092999999999,0.3669739,-0.1720428,0.9141693,39.9982,3.017487,-20.31812,5.311447,0.2013772,0.4373198,-0.3281958,1.170886,0.2402095,0.00537941,0.2841189,-0.1052587,0,0,0
3,0.3243408,-0.1796722,0.9287109,0.0,0.2888489,-0.1856689,0.9391785,-29.22206,1.407501,-21.86031,4.559737999999999,0.3691819,0.507154,0.2418092999999999,0.3669739,-0.1720428,0.9141693,39.9982,3.017487,-20.31812,5.311447,0.2013772,0.4373198,-0.3281958,1.170886,0.2402095,0.00537941,0.2841189,-0.1052587,0,0,0
3,0.3243408,-0.1796722,0.9287109,0.0,0.2888489,-0.1856689,0.9391785,-29.22206,1.407501,-21.86031,4.559737999999999,0.3691819,0.507154,0.2418092999999999,0.3669739,-0.1720428,0.9141693,39.9982,3.017487,-20.31812,5.311447,0.2013772,0.4373198,-0.3281958,1.170886,0.2402095,0.00537941,0.2841189,-0.1052587,0,0,0
3,0.3008422999999999,-0.2073212,0.9308472,0.0,0.2746582,-0.2063904,0.9391174,-29.24355,1.488205,-21.81889,4.618057,0.3722349,0.5075406,0.3648104,0.3660430999999999,-0.2089844,0.9068146,40.062,2.995941,-20.34245,5.485733,0.1992313,0.4443265,-0.3325491,1.171738,0.2445366,0.0054290419999999,0.2669143,-0.1060928999999999,0,0,0
3,0.3008422999999999,-0.2073212,0.9308472,0.0,0.2746582,-0.2063904,0.9391174,-29.24355,1.488205,-21.81889,4.618057,0.3722349,0.5075406,0.3648104,0.3660430999999999,-0.2089844,0.9068146,40.062,2.995941,-20.34245,5.485733,0.1992313,0.4443265,-0.3325491,1.171738,0.2445366,0.0054290419999999,0.2669143,-0.1060928999999999,0,0,0
3,0.3008422999999999,-0.2073212,0.9308472,0.0,0.2746582,-0.2063904,0.9391174,-29.24355,1.488205,-21.81889,4.618057,0.3722349,0.5075406,0.3648104,0.3660430999999999,-0.2089844,0.9068146,40.062,2.995941,-20.34245,5.485733,0.1992313,0.4443265,-0.3325491,1.171738,0.2445366,0.0054290419999999,0.2669143,-0.1060928999999999,0,0,0
4,0.2332916,-0.193924,0.9528656,1.0,0.2110138,-0.1874847,0.9593201,-29.45575,1.541168,-21.74174,4.615921,0.3892545,0.5014417,0.3414745999999999,0.265686,-0.2031555,0.9423981,39.84018,3.014481,-20.21837,5.342453,0.2240817,0.4408564,-0.3366936,1.1728459999999998,0.2486797,0.004490131,0.249659,-0.1067702,0,0,0
4,0.2332916,-0.193924,0.9528656,1.0,0.2110138,-0.1874847,0.9593201,-29.45575,1.541168,-21.74174,4.615921,0.3892545,0.5014417,0.3414745999999999,0.265686,-0.2031555,0.9423981,39.84018,3.014481,-20.21837,5.342453,0.2240817,0.4408564,-0.3366936,1.1728459999999998,0.2486797,0.004490131,0.249659,-0.1067702,0,0,0
4,0.2332916,-0.193924,0.9528656,1.0,0.2110138,-0.1874847,0.9593201,-29.45575,1.541168,-21.74174,4.615921,0.3892545,0.5014417,0.3414745999999999,0.265686,-0.2031555,0.9423981,39.84018,3.014481,-20.21837,5.342453,0.2240817,0.4408564,-0.3366936,1.1728459999999998,0.2486797,0.004490131,0.249659,-0.1067702,0,0,0
4,0.2043152,-0.1976318,0.9587402,0.0,0.1766052,-0.1939545,0.9649658,-29.62303,1.5339969999999998,-21.70103,4.520981,0.4000433,0.5021536,0.4105537,0.2401581,-0.202179,0.9494324,39.66154,2.995087,-20.18001,5.357834,0.2344078999999999,0.4409244,-0.3407344,1.173969,0.2524843,0.003465593,0.23374,-0.1070078,0,0,0
4,0.2043152,-0.1976318,0.9587402,0.0,0.1766052,-0.1939545,0.9649658,-29.62303,1.5339969999999998,-21.70103,4.520981,0.4000433,0.5021536,0.4105537,0.2401581,-0.202179,0.9494324,39.66154,2.995087,-20.18001,5.357834,0.2344078999999999,0.4409244,-0.3407344,1.173969,0.2524843,0.003465593,0.23374,-0.1070078,0,0,0
4,0.2043152,-0.1976318,0.9587402,0.0,0.1766052,-0.1939545,0.9649658,-29.62303,1.5339969999999998,-21.70103,4.520981,0.4000433,0.5021536,0.4105537,0.2401581,-0.202179,0.9494324,39.66154,2.995087,-20.18001,5.357834,0.2344078999999999,0.4409244,-0.3407344,1.173969,0.2524843,0.003465593,0.23374,-0.1070078,0,0,0
4,0.1626128999999999,-0.1970825,0.9667969,1.0,0.1408234,-0.1951599,0.9705963,-29.92581,1.551651,-21.6539,4.556366000000001,0.4154224,0.5012416000000001,0.4621031,0.1908875,-0.1994323999999999,0.9611206,39.37334,3.002335,-20.10388,5.285339,0.2522456,0.4394722,-0.3443835999999999,1.175267,0.2560911,0.002904145,0.2209947,-0.1081437,0,0,0
4,0.1626128999999999,-0.1970825,0.9667969,1.0,0.1408234,-0.1951599,0.9705963,-29.92581,1.551651,-21.6539,4.556366000000001,0.4154224,0.5012416000000001,0.4621031,0.1908875,-0.1994323999999999,0.9611206,39.37334,3.002335,-20.10388,5.285339,0.2522456,0.4394722,-0.3443835999999999,1.175267,0.2560911,0.002904145,0.2209947,-0.1081437,0,0,0
4,0.1626128999999999,-0.1970825,0.9667969,1.0,0.1408234,-0.1951599,0.9705963,-29.92581,1.551651,-21.6539,4.556366000000001,0.4154224,0.5012416000000001,0.4621031,0.1908875,-0.1994323999999999,0.9611206,39.37334,3.002335,-20.10388,5.285339,0.2522456,0.4394722,-0.3443835999999999,1.175267,0.2560911,0.002904145,0.2209947,-0.1081437,0,0,0
4,0.102951,-0.179306,0.9783783,0.0,0.09684753,-0.1716614,0.9803772,-30.19655,1.52861,-21.58186,4.525574,0.4310280999999999,0.497338,0.5566193,0.1112823,-0.1897277999999999,0.9754944,39.15373,2.945145,-20.07014,5.2655330000000005,0.2723779,0.4392537999999999,-0.3481482,1.176385,0.2594322,0.002987607,0.2082953,-0.107699,0,0,0
4,0.102951,-0.179306,0.9783783,0.0,0.09684753,-0.1716614,0.9803772,-30.19655,1.52861,-21.58186,4.525574,0.4310280999999999,0.497338,0.5566193,0.1112823,-0.1897277999999999,0.9754944,39.15373,2.945145,-20.07014,5.2655330000000005,0.2723779,0.4392537999999999,-0.3481482,1.176385,0.2594322,0.002987607,0.2082953,-0.107699,0,0,0
4,0.102951,-0.179306,0.9783783,0.0,0.09684753,-0.1716614,0.9803772,-30.19655,1.52861,-21.58186,4.525574,0.4310280999999999,0.497338,0.5566193,0.1112823,-0.1897277999999999,0.9754944,39.15373,2.945145,-20.07014,5.2655330000000005,0.2723779,0.4392537999999999,-0.3481482,1.176385,0.2594322,0.002987607,0.2082953,-0.107699,0,0,0
4,0.09744263,-0.1857758,0.9777374,0.0,0.08502197,-0.1730499,0.9812317,-30.23735,1.5256040000000002,-21.55252,4.522812,0.4341976999999999,0.4973843,0.5817616999999999,0.1127471999999999,-0.2013855,0.9729919,39.11018,2.969437,-20.06502,5.115738,0.2735933,0.4403758,-0.3522108,1.177532,0.2625005,0.002704897,0.1958214,-0.1071846,0,0,0
4,0.09744263,-0.1857758,0.9777374,0.0,0.08502197,-0.1730499,0.9812317,-30.23735,1.5256040000000002,-21.55252,4.522812,0.4341976999999999,0.4973843,0.5817616999999999,0.1127471999999999,-0.2013855,0.9729919,39.11018,2.969437,-20.06502,5.115738,0.2735933,0.4403758,-0.3522108,1.177532,0.2625005,0.002704897,0.1958214,-0.1071846,0,0,0
4,0.09744263,-0.1857758,0.9777374,0.0,0.08502197,-0.1730499,0.9812317,-30.23735,1.5256040000000002,-21.55252,4.522812,0.4341976999999999,0.4973843,0.5817616999999999,0.1127471999999999,-0.2013855,0.9729919,39.11018,2.969437,-20.06502,5.115738,0.2735933,0.4403758,-0.3522108,1.177532,0.2625005,0.002704897,0.1958214,-0.1071846,0,0,0
4,0.08305359,-0.1668242999999999,0.9824677,0.0,0.06776428,-0.1636505,0.9841766,-30.05,1.619812,-21.5105,4.58786,0.4309645,0.4924242,0.4359145,0.09391785,-0.1690520999999999,0.9811096,39.29187,3.031479,-20.03491,5.333664,0.2707062,0.4327217,-0.3560364,1.17911,0.2652255,0.0011897939999999,0.1823409,-0.1069879,0,0,0
4,0.08305359,-0.1668242999999999,0.9824677,0.0,0.06776428,-0.1636505,0.9841766,-30.05,1.619812,-21.5105,4.58786,0.4309645,0.4924242,0.4359145,0.09391785,-0.1690520999999999,0.9811096,39.29187,3.031479,-20.03491,5.333664,0.2707062,0.4327217,-0.3560364,1.17911,0.2652255,0.0011897939999999,0.1823409,-0.1069879,0,0,0
4,0.08305359,-0.1668242999999999,0.9824677,0.0,0.06776428,-0.1636505,0.9841766,-30.05,1.619812,-21.5105,4.58786,0.4309645,0.4924242,0.4359145,0.09391785,-0.1690520999999999,0.9811096,39.29187,3.031479,-20.03491,5.333664,0.2707062,0.4327217,-0.3560364,1.17911,0.2652255,0.0011897939999999,0.1823409,-0.1069879,0,0,0
4,0.3357544,-0.1022949,0.9363708,0.0,0.3176117,-0.1076813,0.9420776,-28.92615,1.829163,-21.79147,4.726608000000001,0.3552603,0.4805332999999999,0.0,0.4212799,-0.07575989,0.9037476,40.44205,3.359421,-20.38681,5.783752,0.1760425,0.4110045,-0.3597309999999999,1.180446,0.2677168,-0.0001726334999999,0.1707204,-0.105545,0,0,0
4,0.3357544,-0.1022949,0.9363708,0.0,0.3176117,-0.1076813,0.9420776,-28.92615,1.829163,-21.79147,4.726608000000001,0.3552603,0.4805332999999999,0.0,0.4212799,-0.07575989,0.9037476,40.44205,3.359421,-20.38681,5.783752,0.1760425,0.4110045,-0.3597309999999999,1.180446,0.2677168,-0.0001726334999999,0.1707204,-0.105545,0,0,0
4,0.3357544,-0.1022949,0.9363708,0.0,0.3176117,-0.1076813,0.9420776,-28.92615,1.829163,-21.79147,4.726608000000001,0.3552603,0.4805332999999999,0.0,0.4212799,-0.07575989,0.9037476,40.44205,3.359421,-20.38681,5.783752,0.1760425,0.4110045,-0.3597309999999999,1.180446,0.2677168,-0.0001726334999999,0.1707204,-0.105545,0,0,0
4,0.3634033,-0.09333801,0.9269409,0.0,0.358902,-0.09513855,0.9284973,-28.99568,1.806366,-21.82076,4.935364,0.3508866,0.4800938,0.0,0.4194031,-0.07043457,0.9050446,40.532,3.358963,-20.42976,5.814148,0.1727826,0.4102295,-0.3629532,1.18177,0.269834,-0.001855308,0.1615611,-0.1027991,0,0,0
4,0.3634033,-0.09333801,0.9269409,0.0,0.358902,-0.09513855,0.9284973,-28.99568,1.806366,-21.82076,4.935364,0.3508866,0.4800938,0.0,0.4194031,-0.07043457,0.9050446,40.532,3.358963,-20.42976,5.814148,0.1727826,0.4102295,-0.3629532,1.18177,0.269834,-0.001855308,0.1615611,-0.1027991,0,0,0
4,0.3634033,-0.09333801,0.9269409,0.0,0.358902,-0.09513855,0.9284973,-28.99568,1.806366,-21.82076,4.935364,0.3508866,0.4800938,0.0,0.4194031,-0.07043457,0.9050446,40.532,3.358963,-20.42976,5.814148,0.1727826,0.4102295,-0.3629532,1.18177,0.269834,-0.001855308,0.1615611,-0.1027991,0,0,0
4,0.3282470999999999,-0.09255981,0.940033,1.0,0.3070679,-0.1005858999999999,0.9463501,-29.25926,1.603348,-21.77791,4.624725,0.3675514,0.4863682,0.1901272,0.374054,-0.07475281,0.9243774,40.32953,3.145813,-20.38451,5.496048,0.1882776,0.4173332,-0.3655722,1.183186,0.2715155999999999,-0.004377544,0.1560926,-0.09967921,0,0,0
4,0.3282470999999999,-0.09255981,0.940033,1.0,0.3070679,-0.1005858999999999,0.9463501,-29.25926,1.603348,-21.77791,4.624725,0.3675514,0.4863682,0.1901272,0.374054,-0.07475281,0.9243774,40.32953,3.145813,-20.38451,5.496048,0.1882776,0.4173332,-0.3655722,1.183186,0.2715155999999999,-0.004377544,0.1560926,-0.09967921,0,0,0
4,0.3282470999999999,-0.09255981,0.940033,1.0,0.3070679,-0.1005858999999999,0.9463501,-29.25926,1.603348,-21.77791,4.624725,0.3675514,0.4863682,0.1901272,0.374054,-0.07475281,0.9243774,40.32953,3.145813,-20.38451,5.496048,0.1882776,0.4173332,-0.3655722,1.183186,0.2715155999999999,-0.004377544,0.1560926,-0.09967921,0,0,0
4,0.3127594,-0.09725952,0.9448242,1.0,0.2848053,-0.09706116,0.9536438,-29.34207,1.445206,-21.78033,4.581161,0.3737342999999999,0.4906097,0.7043449,0.3560944,-0.09741211,0.9293518,40.21152,2.982025,-20.37381,5.4490050000000005,0.1956244999999999,0.426247,-0.3682442,1.18456,0.2728867,-0.006949436,0.151307,-0.09940474,0,0,0
4,0.3127594,-0.09725952,0.9448242,1.0,0.2848053,-0.09706116,0.9536438,-29.34207,1.445206,-21.78033,4.581161,0.3737342999999999,0.4906097,0.7043449,0.3560944,-0.09741211,0.9293518,40.21152,2.982025,-20.37381,5.4490050000000005,0.1956244999999999,0.426247,-0.3682442,1.18456,0.2728867,-0.006949436,0.151307,-0.09940474,0,0,0
4,0.3127594,-0.09725952,0.9448242,1.0,0.2848053,-0.09706116,0.9536438,-29.34207,1.445206,-21.78033,4.581161,0.3737342999999999,0.4906097,0.7043449,0.3560944,-0.09741211,0.9293518,40.21152,2.982025,-20.37381,5.4490050000000005,0.1956244999999999,0.426247,-0.3682442,1.18456,0.2728867,-0.006949436,0.151307,-0.09940474,0,0,0
4,0.2873383,-0.09783936,0.9528046,1.0,0.2645264,-0.1016541,0.9589996,-29.28899,1.3529209999999998,-21.78383,4.551285,0.375256,0.4941038,1.0,0.3144379,-0.09318542,0.9446869,40.30414,2.738602,-20.42078,5.334091,0.1994862999999999,0.4333639,-0.3711678,1.185884,0.2740899,-0.009336583,0.1445177,-0.09818066,0,0,0
4,0.2873383,-0.09783936,0.9528046,1.0,0.2645264,-0.1016541,0.9589996,-29.28899,1.3529209999999998,-21.78383,4.551285,0.375256,0.4941038,1.0,0.3144379,-0.09318542,0.9446869,40.30414,2.738602,-20.42078,5.334091,0.1994862999999999,0.4333639,-0.3711678,1.185884,0.2740899,-0.009336583,0.1445177,-0.09818066,0,0,0
4,0.2873383,-0.09783936,0.9528046,1.0,0.2645264,-0.1016541,0.9589996,-29.28899,1.3529209999999998,-21.78383,4.551285,0.375256,0.4941038,1.0,0.3144379,-0.09318542,0.9446869,40.30414,2.738602,-20.42078,5.334091,0.1994862999999999,0.4333639,-0.3711678,1.185884,0.2740899,-0.009336583,0.1445177,-0.09818066,0,0,0
4,0.2615967,-0.1068115,0.9592438,1.0,0.243454,-0.1060637999999999,0.9640808,-29.28342,1.391464,-21.7493,4.622849,0.3785301,0.4931246,1.0,0.2838135,-0.1076813,0.9528046,40.35204,2.712296,-20.4126,5.532166,0.2030964999999999,0.4362801999999999,-0.3743371,1.187635,0.2753075,-0.01222228,0.1352898,-0.0966773,0,0,0
4,0.2615967,-0.1068115,0.9592438,1.0,0.243454,-0.1060637999999999,0.9640808,-29.28342,1.391464,-21.7493,4.622849,0.3785301,0.4931246,1.0,0.2838135,-0.1076813,0.9528046,40.35204,2.712296,-20.4126,5.532166,0.2030964999999999,0.4362801999999999,-0.3743371,1.187635,0.2753075,-0.01222228,0.1352898,-0.0966773,0,0,0
4,0.2615967,-0.1068115,0.9592438,1.0,0.243454,-0.1060637999999999,0.9640808,-29.28342,1.391464,-21.7493,4.622849,0.3785301,0.4931246,1.0,0.2838135,-0.1076813,0.9528046,40.35204,2.712296,-20.4126,5.532166,0.2030964999999999,0.4362801999999999,-0.3743371,1.187635,0.2753075,-0.01222228,0.1352898,-0.0966773,0,0,0
4,0.2428284,-0.1183472,0.9628143,1.0,0.2215424,-0.1102905,0.9688873,-29.33031,1.301682,-21.747020000000003,4.574646,0.3834932,0.4964615,1.0,0.2617797999999999,-0.1255188,0.9569244,40.26006,2.616669,-20.40575,5.480423,0.2100002999999999,0.4421486,-0.3777282,1.189123,0.2762375999999999,-0.0150434,0.1243500999999999,-0.09556312,0,0,0
4,0.2428284,-0.1183472,0.9628143,1.0,0.2215424,-0.1102905,0.9688873,-29.33031,1.301682,-21.747020000000003,4.574646,0.3834932,0.4964615,1.0,0.2617797999999999,-0.1255188,0.9569244,40.26006,2.616669,-20.40575,5.480423,0.2100002999999999,0.4421486,-0.3777282,1.189123,0.2762375999999999,-0.0150434,0.1243500999999999,-0.09556312,0,0,0
4,0.2428284,-0.1183472,0.9628143,1.0,0.2215424,-0.1102905,0.9688873,-29.33031,1.301682,-21.747020000000003,4.574646,0.3834932,0.4964615,1.0,0.2617797999999999,-0.1255188,0.9569244,40.26006,2.616669,-20.40575,5.480423,0.2100002999999999,0.4421486,-0.3777282,1.189123,0.2762375999999999,-0.0150434,0.1243500999999999,-0.09556312,0,0,0
4,0.2217864999999999,-0.1235046,0.9672394,1.0,0.2036437999999999,-0.1174773999999999,0.9719543,-29.33322,1.323578,-21.72501,4.618835,0.3864774,0.4966255,1.0,0.242157,-0.1302337999999999,0.961441,40.249590000000005,2.650543,-20.38013,5.423035,0.2137392,0.4414747,-0.3812027999999999,1.190636,0.2768732,-0.01709943,0.1130063,-0.09519967,0,0,0
4,0.2217864999999999,-0.1235046,0.9672394,1.0,0.2036437999999999,-0.1174773999999999,0.9719543,-29.33322,1.323578,-21.72501,4.618835,0.3864774,0.4966255,1.0,0.242157,-0.1302337999999999,0.961441,40.249590000000005,2.650543,-20.38013,5.423035,0.2137392,0.4414747,-0.3812027999999999,1.190636,0.2768732,-0.01709943,0.1130063,-0.09519967,0,0,0
4,0.2217864999999999,-0.1235046,0.9672394,1.0,0.2036437999999999,-0.1174773999999999,0.9719543,-29.33322,1.323578,-21.72501,4.618835,0.3864774,0.4966255,1.0,0.242157,-0.1302337999999999,0.961441,40.249590000000005,2.650543,-20.38013,5.423035,0.2137392,0.4414747,-0.3812027999999999,1.190636,0.2768732,-0.01709943,0.1130063,-0.09519967,0,0,0
4,0.3892517,-0.01251221,0.9210358,1.0,0.3653412,-0.0196990999999999,0.9306488000000002,-28.55768,1.690552,-21.942120000000003,4.791,0.3353198,0.4724831,1.0,0.4689789000000001,0.0121459999999999,0.8831177,41.08208,3.225616,-20.72897,5.833542,0.1427496,0.4033745999999999,-0.3844954,1.192418,0.2771579,-0.02094458,0.1029561999999999,-0.09533051,0,0,0
4,0.3892517,-0.01251221,0.9210358,1.0,0.3653412,-0.0196990999999999,0.9306488000000002,-28.55768,1.690552,-21.942120000000003,4.791,0.3353198,0.4724831,1.0,0.4689789000000001,0.0121459999999999,0.8831177,41.08208,3.225616,-20.72897,5.833542,0.1427496,0.4033745999999999,-0.3844954,1.192418,0.2771579,-0.02094458,0.1029561999999999,-0.09533051,0,0,0
4,0.3892517,-0.01251221,0.9210358,1.0,0.3653412,-0.0196990999999999,0.9306488000000002,-28.55768,1.690552,-21.942120000000003,4.791,0.3353198,0.4724831,1.0,0.4689789000000001,0.0121459999999999,0.8831177,41.08208,3.225616,-20.72897,5.833542,0.1427496,0.4033745999999999,-0.3844954,1.192418,0.2771579,-0.02094458,0.1029561999999999,-0.09533051,0,0,0
4,0.3706055,-0.01083374,0.9287109,1.0,0.3613434,-0.01481628,0.932312,-28.60501,1.643372,-21.93474,4.839645,0.3375176,0.4731292,1.0,0.4374542,0.01837158,0.8990478999999999,41.08974,3.14035,-20.709,5.900803,0.1481282,0.404531,-0.3880261,1.194095,0.2773815,-0.02549751,0.09192818,-0.09481988,0,0,0
4,0.3706055,-0.01083374,0.9287109,1.0,0.3613434,-0.01481628,0.932312,-28.60501,1.643372,-21.93474,4.839645,0.3375176,0.4731292,1.0,0.4374542,0.01837158,0.8990478999999999,41.08974,3.14035,-20.709,5.900803,0.1481282,0.404531,-0.3880261,1.194095,0.2773815,-0.02549751,0.09192818,-0.09481988,0,0,0
4,0.3706055,-0.01083374,0.9287109,1.0,0.3613434,-0.01481628,0.932312,-28.60501,1.643372,-21.93474,4.839645,0.3375176,0.4731292,1.0,0.4374542,0.01837158,0.8990478999999999,41.08974,3.14035,-20.709,5.900803,0.1481282,0.404531,-0.3880261,1.194095,0.2773815,-0.02549751,0.09192818,-0.09481988,0,0,0
4,0.3651123,-0.01026917,0.9308929,1.0,0.3432922,-0.02658081,0.9388428,-28.72179,1.630768,-21.88208,4.802063,0.3443007,0.4747564999999999,1.0,0.4044952,0.01972961,0.9143066,41.04405,3.118713,-20.65645,5.948837,0.156113,0.4044157,-0.391584,1.196013,0.2770575999999999,-0.03003203,0.08111744,-0.09563342,0,0,0
4,0.3651123,-0.01026917,0.9308929,1.0,0.3432922,-0.02658081,0.9388428,-28.72179,1.630768,-21.88208,4.802063,0.3443007,0.4747564999999999,1.0,0.4044952,0.01972961,0.9143066,41.04405,3.118713,-20.65645,5.948837,0.156113,0.4044157,-0.391584,1.196013,0.2770575999999999,-0.03003203,0.08111744,-0.09563342,0,0,0
4,0.3651123,-0.01026917,0.9308929,1.0,0.3432922,-0.02658081,0.9388428,-28.72179,1.630768,-21.88208,4.802063,0.3443007,0.4747564999999999,1.0,0.4044952,0.01972961,0.9143066,41.04405,3.118713,-20.65645,5.948837,0.156113,0.4044157,-0.391584,1.196013,0.2770575999999999,-0.03003203,0.08111744,-0.09563342,0,0,0
4,0.321701,-0.0369873,0.946106,1.0,0.289505,-0.04804993,0.9559631,-28.89026,1.589752,-21.79327,4.5380400000000005,0.3584174,0.4780647,1.0,0.368576,-0.02055359,0.9293518,40.8167,3.06694,-20.54605,5.636002,0.1714336,0.4117471,-0.3951344,1.19832,0.2766155,-0.03586708,0.06955802,-0.09542417,0,0,0
4,0.321701,-0.0369873,0.946106,1.0,0.289505,-0.04804993,0.9559631,-28.89026,1.589752,-21.79327,4.5380400000000005,0.3584174,0.4780647,1.0,0.368576,-0.02055359,0.9293518,40.8167,3.06694,-20.54605,5.636002,0.1714336,0.4117471,-0.3951344,1.19832,0.2766155,-0.03586708,0.06955802,-0.09542417,0,0,0
4,0.321701,-0.0369873,0.946106,1.0,0.289505,-0.04804993,0.9559631,-28.89026,1.589752,-21.79327,4.5380400000000005,0.3584174,0.4780647,1.0,0.368576,-0.02055359,0.9293518,40.8167,3.06694,-20.54605,5.636002,0.1714336,0.4117471,-0.3951344,1.19832,0.2766155,-0.03586708,0.06955802,-0.09542417,0,0,0
4,0.2911377,-0.04136658,0.95578,1.0,0.2652739999999999,-0.05654907,0.9624939,-29.08488,1.5547030000000002,-21.74419,4.699753,0.3687124,0.480037,1.0,0.3227844,-0.02252197,0.9461975,40.57016,3.012848,-20.47844,5.618668,0.1883953,0.4132002999999999,-0.3985396,1.201013,0.2761068,-0.04115345,0.05888017,-0.0954503999999999,0,0,0
4,0.2911377,-0.04136658,0.95578,1.0,0.2652739999999999,-0.05654907,0.9624939,-29.08488,1.5547030000000002,-21.74419,4.699753,0.3687124,0.480037,1.0,0.3227844,-0.02252197,0.9461975,40.57016,3.012848,-20.47844,5.618668,0.1883953,0.4132002999999999,-0.3985396,1.201013,0.2761068,-0.04115345,0.05888017,-0.0954503999999999,0,0,0
4,0.2911377,-0.04136658,0.95578,1.0,0.2652739999999999,-0.05654907,0.9624939,-29.08488,1.5547030000000002,-21.74419,4.699753,0.3687124,0.480037,1.0,0.3227844,-0.02252197,0.9461975,40.57016,3.012848,-20.47844,5.618668,0.1883953,0.4132002999999999,-0.3985396,1.201013,0.2761068,-0.04115345,0.05888017,-0.0954503999999999,0,0,0
4,0.2634277,-0.05723572,0.9629669,1.0,0.2387695,-0.06486511,0.9689026,-29.15509,1.480865,-21.7281,4.520645,0.3751277,0.4832875,1.0,0.2974395999999999,-0.04653931,0.953598,40.4501,2.898682,-20.45311,5.448792,0.1971347,0.4205177,-0.4018887,1.203416,0.2753736,-0.04645461,0.04761822,-0.09315757,0,0,0
4,0.2634277,-0.05723572,0.9629669,1.0,0.2387695,-0.06486511,0.9689026,-29.15509,1.480865,-21.7281,4.520645,0.3751277,0.4832875,1.0,0.2974395999999999,-0.04653931,0.953598,40.4501,2.898682,-20.45311,5.448792,0.1971347,0.4205177,-0.4018887,1.203416,0.2753736,-0.04645461,0.04761822,-0.09315757,0,0,0
4,0.2634277,-0.05723572,0.9629669,1.0,0.2387695,-0.06486511,0.9689026,-29.15509,1.480865,-21.7281,4.520645,0.3751277,0.4832875,1.0,0.2974395999999999,-0.04653931,0.953598,40.4501,2.898682,-20.45311,5.448792,0.1971347,0.4205177,-0.4018887,1.203416,0.2753736,-0.04645461,0.04761822,-0.09315757,0,0,0
4,0.2474364999999999,-0.08154297,0.9654541,1.0,0.2236328,-0.08447266,0.970993,-29.35959,1.435135,-21.69337,4.5293730000000005,0.3841325,0.4875436999999999,1.0,0.282196,-0.0771636999999999,0.9562378,40.22455,2.831177,-20.40388,5.40683,0.2077246,0.4274068,-0.4050208,1.205485,0.2745482,-0.04909367,0.03691593,-0.09139024,0,0,0
4,0.2474364999999999,-0.08154297,0.9654541,1.0,0.2236328,-0.08447266,0.970993,-29.35959,1.435135,-21.69337,4.5293730000000005,0.3841325,0.4875436999999999,1.0,0.282196,-0.0771636999999999,0.9562378,40.22455,2.831177,-20.40388,5.40683,0.2077246,0.4274068,-0.4050208,1.205485,0.2745482,-0.04909367,0.03691593,-0.09139024,0,0,0
4,0.2474364999999999,-0.08154297,0.9654541,1.0,0.2236328,-0.08447266,0.970993,-29.35959,1.435135,-21.69337,4.5293730000000005,0.3841325,0.4875436999999999,1.0,0.282196,-0.0771636999999999,0.9562378,40.22455,2.831177,-20.40388,5.40683,0.2077246,0.4274068,-0.4050208,1.205485,0.2745482,-0.04909367,0.03691593,-0.09139024,0,0,0
4,0.2114563,-0.08439636,0.9737244,1.0,0.1994934,-0.09597778,0.975174,-29.47464,1.409302,-21.65904,4.479645,0.3916638,0.4897627,1.0,0.2280121,-0.06826782,0.9712524,40.05988,2.747513,-20.35579,5.362991,0.2225572,0.4280587999999999,-0.4079763,1.207374,0.2737029,-0.0513670999999999,0.02571486,-0.08913776,0,0,0
4,0.2114563,-0.08439636,0.9737244,1.0,0.1994934,-0.09597778,0.975174,-29.47464,1.409302,-21.65904,4.479645,0.3916638,0.4897627,1.0,0.2280121,-0.06826782,0.9712524,40.05988,2.747513,-20.35579,5.362991,0.2225572,0.4280587999999999,-0.4079763,1.207374,0.2737029,-0.0513670999999999,0.02571486,-0.08913776,0,0,0
4,0.2114563,-0.08439636,0.9737244,1.0,0.1994934,-0.09597778,0.975174,-29.47464,1.409302,-21.65904,4.479645,0.3916638,0.4897627,1.0,0.2280121,-0.06826782,0.9712524,40.05988,2.747513,-20.35579,5.362991,0.2225572,0.4280587999999999,-0.4079763,1.207374,0.2737029,-0.0513670999999999,0.02571486,-0.08913776,0,0,0
4,0.1822204999999999,-0.08972168,0.9791412,1.0,0.1641846,-0.09721375,0.9816132,-29.55276,1.3754879999999998,-21.61563,4.382278,0.399758,0.4904224,1.0,0.2075042999999999,-0.07910156,0.9750214,39.95973,2.73111,-20.3354,5.283905,0.2294267,0.4301352,-0.4108157,1.20928,0.2728585,-0.05291576,0.01440119,-0.08839796,0,0,0
4,0.1822204999999999,-0.08972168,0.9791412,1.0,0.1641846,-0.09721375,0.9816132,-29.55276,1.3754879999999998,-21.61563,4.382278,0.399758,0.4904224,1.0,0.2075042999999999,-0.07910156,0.9750214,39.95973,2.73111,-20.3354,5.283905,0.2294267,0.4301352,-0.4108157,1.20928,0.2728585,-0.05291576,0.01440119,-0.08839796,0,0,0
4,0.1822204999999999,-0.08972168,0.9791412,1.0,0.1641846,-0.09721375,0.9816132,-29.55276,1.3754879999999998,-21.61563,4.382278,0.399758,0.4904224,1.0,0.2075042999999999,-0.07910156,0.9750214,39.95973,2.73111,-20.3354,5.283905,0.2294267,0.4301352,-0.4108157,1.20928,0.2728585,-0.05291576,0.01440119,-0.08839796,0,0,0
4,0.1729889,-0.09161377,0.9806366,1.0,0.1576385,-0.09606934,0.9828033000000002,-29.6123,1.380417,-21.6273,4.395721,0.402701,0.4901598,1.0,0.1922607,-0.08598328,0.9775543,39.87958,2.763641,-20.34665,5.245636,0.2346349,0.430266,-0.4140981999999999,1.211477,0.2722584,-0.05526496,0.001831055,-0.08819722,0,0,0
4,0.1729889,-0.09161377,0.9806366,1.0,0.1576385,-0.09606934,0.9828033000000002,-29.6123,1.380417,-21.6273,4.395721,0.402701,0.4901598,1.0,0.1922607,-0.08598328,0.9775543,39.87958,2.763641,-20.34665,5.245636,0.2346349,0.430266,-0.4140981999999999,1.211477,0.2722584,-0.05526496,0.001831055,-0.08819722,0,0,0
4,0.1729889,-0.09161377,0.9806366,1.0,0.1576385,-0.09606934,0.9828033000000002,-29.6123,1.380417,-21.6273,4.395721,0.402701,0.4901598,1.0,0.1922607,-0.08598328,0.9775543,39.87958,2.763641,-20.34665,5.245636,0.2346349,0.430266,-0.4140981999999999,1.211477,0.2722584,-0.05526496,0.001831055,-0.08819722,0,0,0
4,0.1533813,-0.08976746,0.9840698,1.0,0.1452942,-0.1029663,0.9840088,-29.646,1.404388,-21.62872,4.321396,0.4057125,0.4904499,1.0,0.1625519,-0.07469177,0.9838562,39.84656,2.771072,-20.3642,5.24205,0.2405926,0.4282412,-0.4179521,1.214167,0.2716555999999999,-0.05700749,-0.01312015,-0.08944914,0,0,0
4,0.1533813,-0.08976746,0.9840698,1.0,0.1452942,-0.1029663,0.9840088,-29.646,1.404388,-21.62872,4.321396,0.4057125,0.4904499,1.0,0.1625519,-0.07469177,0.9838562,39.84656,2.771072,-20.3642,5.24205,0.2405926,0.4282412,-0.4179521,1.214167,0.2716555999999999,-0.05700749,-0.01312015,-0.08944914,0,0,0
4,0.1533813,-0.08976746,0.9840698,1.0,0.1452942,-0.1029663,0.9840088,-29.646,1.404388,-21.62872,4.321396,0.4057125,0.4904499,1.0,0.1625519,-0.07469177,0.9838562,39.84656,2.771072,-20.3642,5.24205,0.2405926,0.4282412,-0.4179521,1.214167,0.2716555999999999,-0.05700749,-0.01312015,-0.08944914,0,0,0
4,0.3027344,0.01135254,0.9530029,1.0,0.2896575999999999,0.007507324,0.9570923,-28.71654,1.767563,-21.7963,4.713394,0.3528625,0.4635404999999999,1.0,0.376297,0.03323364,0.9258881,40.81552,3.341354,-20.5844,6.05246,0.1693168,0.394307,-0.4223399,1.217235,0.2714027,-0.06003179,-0.02890567,-0.08940232,0,0,0
4,0.3027344,0.01135254,0.9530029,1.0,0.2896575999999999,0.007507324,0.9570923,-28.71654,1.767563,-21.7963,4.713394,0.3528625,0.4635404999999999,1.0,0.376297,0.03323364,0.9258881,40.81552,3.341354,-20.5844,6.05246,0.1693168,0.394307,-0.4223399,1.217235,0.2714027,-0.06003179,-0.02890567,-0.08940232,0,0,0
4,0.3027344,0.01135254,0.9530029,1.0,0.2896575999999999,0.007507324,0.9570923,-28.71654,1.767563,-21.7963,4.713394,0.3528625,0.4635404999999999,1.0,0.376297,0.03323364,0.9258881,40.81552,3.341354,-20.5844,6.05246,0.1693168,0.394307,-0.4223399,1.217235,0.2714027,-0.06003179,-0.02890567,-0.08940232,0,0,0
4,0.262085,0.003738403,0.9650269,1.0,0.2501831,-0.00541687,0.9681702,-29.044490000000003,1.7251740000000002,-21.71786,4.478577,0.369726,0.4658746,1.0,0.301712,0.03460693,0.9527588,40.53633,3.194473,-20.4919,5.823746,0.1927902,0.3980267,-0.4268233,1.220017,0.270802,-0.06284072,-0.04384313,-0.08750662,0,0,0
