Second,eye_comb_direction_x,eye_comb_direction_y,eye_comb_direction_z,eye_r_openness,eye_r_direction_x,eye_r_direction_y,eye_r_direction_z,eye_r_origin_x,eye_r_origin_y,eye_r_origin_z,eye_r_pupil_diameter,eye_r_pupil_position_x,eye_r_pupil_position_y,eye_l_openness,eye_l_direction_x,eye_l_direction_y,eye_l_direction_z,eye_l_origin_x,eye_l_origin_y,eye_l_origin_z,eye_l_pupil_diameter,eye_l_pupil_position_x,eye_l_pupil_position_y,head_position_x,head_position_y,head_position_z,head_rotation_roll,head_rotation_pitch,head_rotation_yaw,EDA,BVP,TMP
0,0.0,0.0,0.0,0.0,0.0,0.0,0.0,0.0,0.0,0.0,0.0,0.0,0.0,0.0,0.0,0.0,0.0,0.0,0.0,0.0,0.0,0.0,0.0,0.0,0.0,0.0,0.0,0.0,0.0,0.14015676303387334,0.023961672714776606,33.47698330878743
1,-0.05201721,-0.1012878,0.9934845,1.0,-0.05201721,-0.1012878,0.9934845,-30.88573,2.246185,-36.3091,5.247162,0.4764759,0.6019285,1.0,-0.0355835,-0.04273987,0.9984436,28.88174,3.560913,-32.91862,5.4272,0.6433021,0.5102165,0.009510994,1.131711,-0.2541877,-0.001671517,0.6607213,0.02711459,0.14015676303387334,0.023961672714776606,33.47698330878743
1,-0.05636597,-0.1088409,0.9924469,1.0,-0.05636597,-0.1088409,0.9924469,-30.89497,2.172729,-36.29086,5.229904,0.4775527,0.605767,1.0,-0.04093933,-0.04040527,0.9983368,28.86913,3.483963,-32.89937,5.474762,0.6446812,0.5123885,0.007835984,1.137394,-0.2529258,-0.02523226,0.652429,0.04656338,0.14015676303387334,0.023961672714776606,33.47698330878743
1,-0.05636597,-0.1088409,0.9924469,1.0,-0.05636597,-0.1088409,0.9924469,-30.89497,2.172729,-36.29086,5.229904,0.4775527,0.605767,1.0,-0.04093933,-0.04040527,0.9983368,28.86913,3.483963,-32.89937,5.474762,0.6446812,0.5123885,0.007835984,1.137394,-0.2529258,-0.02523226,0.652429,0.04656338,0.14015676303387334,0.023961672714776606,33.47698330878743
1,-0.05636597,-0.1088409,0.9924469,1.0,-0.05636597,-0.1088409,0.9924469,-30.89497,2.172729,-36.29086,5.229904,0.4775527,0.605767,1.0,-0.04093933,-0.04040527,0.9983368,28.86913,3.483963,-32.89937,5.474762,0.6446812,0.5123885,0.007835984,1.137394,-0.2529258,-0.02523226,0.652429,0.04656338,0.14015676303387334,0.023961672714776606,33.47698330878743
1,-0.05636597,-0.1088409,0.9924469,1.0,-0.05636597,-0.1088409,0.9924469,-30.89497,2.172729,-36.29086,5.229904,0.4775527,0.605767,1.0,-0.04093933,-0.04040527,0.9983368,28.86913,3.483963,-32.89937,5.474762,0.6446812,0.5123885,0.007835984,1.137394,-0.2529258,-0.02523226,0.652429,0.04656338,0.14015676303387334,0.023961672714776606,33.47698330878743
1,-0.05636597,-0.1088409,0.9924469,1.0,-0.05636597,-0.1088409,0.9924469,-30.89497,2.172729,-36.29086,5.229904,0.4775527,0.605767,1.0,-0.04093933,-0.04040527,0.9983368,28.86913,3.483963,-32.89937,5.474762,0.6446812,0.5123885,0.007835984,1.137394,-0.2529258,-0.02523226,0.652429,0.04656338,0.14015676303387334,0.023961672714776606,33.47698330878743
1,-0.05636597,-0.1088409,0.9924469,1.0,-0.05636597,-0.1088409,0.9924469,-30.89497,2.172729,-36.29086,5.229904,0.4775527,0.605767,1.0,-0.04093933,-0.04040527,0.9983368,28.86913,3.483963,-32.89937,5.474762,0.6446812,0.5123885,0.007835984,1.137394,-0.2529258,-0.02523226,0.652429,0.04656338,0.14015676303387334,0.023961672714776606,33.47698330878743
1,-0.05636597,-0.1088409,0.9924469,1.0,-0.05636597,-0.1088409,0.9924469,-30.89497,2.172729,-36.29086,5.229904,0.4775527,0.605767,1.0,-0.04093933,-0.04040527,0.9983368,28.86913,3.483963,-32.89937,5.474762,0.6446812,0.5123885,0.007835984,1.137394,-0.2529258,-0.02523226,0.652429,0.04656338,0.14015676303387334,0.023961672714776606,33.47698330878743
1,-0.05636597,-0.1088409,0.9924469,1.0,-0.05636597,-0.1088409,0.9924469,-30.89497,2.172729,-36.29086,5.229904,0.4775527,0.605767,1.0,-0.04093933,-0.04040527,0.9983368,28.86913,3.483963,-32.89937,5.474762,0.6446812,0.5123885,0.007835984,1.137394,-0.2529258,-0.02523226,0.652429,0.04656338,0.14015676303387334,0.023961672714776606,33.47698330878743
1,-0.05636597,-0.1088409,0.9924469,1.0,-0.05636597,-0.1088409,0.9924469,-30.89497,2.172729,-36.29086,5.229904,0.4775527,0.605767,1.0,-0.04093933,-0.04040527,0.9983368,28.86913,3.483963,-32.89937,5.474762,0.6446812,0.5123885,0.007835984,1.137394,-0.2529258,-0.02523226,0.652429,0.04656338,0.14015676303387334,0.023961672714776606,33.47698330878743
1,-0.1023254,-0.1063232,0.9890442,1.0,-0.1206207,-0.1285095,0.9843445,-31.15082,1.882324,-36.32564,4.641663,0.4982033,0.6201527,1.0,-0.05911255,-0.05401611,0.9967804,28.73663,3.229584,-33.17569,4.867767,0.6528612,0.5262266,0.00459969,1.13835,-0.2522051,-0.0298289,0.651511,0.0556741,0.14015676303387334,0.023961672714776606,33.47698330878743
1,-0.1023254,-0.1063232,0.9890442,1.0,-0.1206207,-0.1285095,0.9843445,-31.15082,1.882324,-36.32564,4.641663,0.4982033,0.6201527,1.0,-0.05911255,-0.05401611,0.9967804,28.73663,3.229584,-33.17569,4.867767,0.6528612,0.5262266,0.00459969,1.13835,-0.2522051,-0.0298289,0.651511,0.0556741,0.14015676303387334,0.023961672714776606,33.47698330878743
1,-0.1023254,-0.1063232,0.9890442,1.0,-0.1206207,-0.1285095,0.9843445,-31.15082,1.882324,-36.32564,4.641663,0.4982033,0.6201527,1.0,-0.05911255,-0.05401611,0.9967804,28.73663,3.229584,-33.17569,4.867767,0.6528612,0.5262266,0.00459969,1.13835,-0.2522051,-0.0298289,0.651511,0.0556741,0.14015676303387334,0.023961672714776606,33.47698330878743
1,-0.1023254,-0.1063232,0.9890442,1.0,-0.1206207,-0.1285095,0.9843445,-31.15082,1.882324,-36.32564,4.641663,0.4982033,0.6201527,1.0,-0.05911255,-0.05401611,0.9967804,28.73663,3.229584,-33.17569,4.867767,0.6528612,0.5262266,0.00459969,1.13835,-0.2522051,-0.0298289,0.651511,0.0556741,0.14015676303387334,0.023961672714776606,33.47698330878743
1,-0.1023254,-0.1063232,0.9890442,1.0,-0.1206207,-0.1285095,0.9843445,-31.15082,1.882324,-36.32564,4.641663,0.4982033,0.6201527,1.0,-0.05911255,-0.05401611,0.9967804,28.73663,3.229584,-33.17569,4.867767,0.6528612,0.5262266,0.00459969,1.13835,-0.2522051,-0.0298289,0.651511,0.0556741,0.14015676303387334,0.023961672714776606,33.47698330878743
1,-0.1023254,-0.1063232,0.9890442,1.0,-0.1206207,-0.1285095,0.9843445,-31.15082,1.882324,-36.32564,4.641663,0.4982033,0.6201527,1.0,-0.05911255,-0.05401611,0.9967804,28.73663,3.229584,-33.17569,4.867767,0.6528612,0.5262266,0.00459969,1.13835,-0.2522051,-0.0298289,0.651511,0.0556741,0.14015676303387334,0.023961672714776606,33.47698330878743
1,-0.1023254,-0.1063232,0.9890442,1.0,-0.1206207,-0.1285095,0.9843445,-31.15082,1.882324,-36.32564,4.641663,0.4982033,0.6201527,1.0,-0.05911255,-0.05401611,0.9967804,28.73663,3.229584,-33.17569,4.867767,0.6528612,0.5262266,0.00459969,1.13835,-0.2522051,-0.0298289,0.651511,0.0556741,0.14015676303387334,0.023961672714776606,33.47698330878743
1,-0.1035767,-0.1013947,0.9894257,1.0,-0.1053162,-0.1034241,0.9890442,-31.11871,2.008987,-36.35553,4.320023,0.494471,0.6109349,1.0,-0.05397034,-0.04301453,0.9976044,28.73344,3.301056,-32.96161,4.602097,0.6516795,0.5194294,0.005589604,1.136722,-0.2528943,-0.02291527,0.6557016,0.0493814,0.14015676303387334,0.023961672714776606,33.47698330878743
1,-0.1035767,-0.1013947,0.9894257,1.0,-0.1053162,-0.1034241,0.9890442,-31.11871,2.008987,-36.35553,4.320023,0.494471,0.6109349,1.0,-0.05397034,-0.04301453,0.9976044,28.73344,3.301056,-32.96161,4.602097,0.6516795,0.5194294,0.005589604,1.136722,-0.2528943,-0.02291527,0.6557016,0.0493814,0.14015676303387334,0.023961672714776606,33.47698330878743
2,-0.0993042,-0.08605957,0.9913177,1.0,-0.1034088,-0.0907135,0.9904785,-31.10385,2.066925,-36.42319,4.313293,0.4936347,0.6071954,1.0,-0.05186462,-0.03245544,0.9981232,28.73718,3.306213,-32.80275,4.46579,0.6509032,0.5157188,0.006216168,1.135919,-0.253374,-0.01969025,0.6582518,0.0466116,0.14015676303387334,0.023961672714776606,33.47698330878743
2,-0.0993042,-0.08605957,0.9913177,1.0,-0.1034088,-0.0907135,0.9904785,-31.10385,2.066925,-36.42319,4.313293,0.4936347,0.6071954,1.0,-0.05186462,-0.03245544,0.9981232,28.73718,3.306213,-32.80275,4.46579,0.6509032,0.5157188,0.006216168,1.135919,-0.253374,-0.01969025,0.6582518,0.0466116,0.14015676303387334,0.023961672714776606,33.47698330878743
2,-0.1168671,-0.1247559,0.9852753,1.0,-0.1170654,-0.1250305,0.9852142,-31.11176,1.97142,-36.30782,4.286514,0.4962865,0.6158397,1.0,-0.06791687,-0.05752563,0.9960175,28.66045,3.284302,-33.01575,4.539154,0.6568731,0.523162,0.006401181,1.135652,-0.2535892,-0.01867177,0.6591949,0.04569141,0.14015676303387334,6.710205,33.47698330878743
2,-0.1168671,-0.1247559,0.9852753,1.0,-0.1170654,-0.1250305,0.9852142,-31.11176,1.97142,-36.30782,4.286514,0.4962865,0.6158397,1.0,-0.06791687,-0.05752563,0.9960175,28.66045,3.284302,-33.01575,4.539154,0.6568731,0.523162,0.006401181,1.135652,-0.2535892,-0.01867177,0.6591949,0.04569141,0.14015676303387334,6.710205,33.47698330878743
2,-0.1210175,-0.1436462,0.982193,1.0,-0.1210327,-0.1436615,0.982193,-31.0892,1.925964,-36.34157,4.157028,0.4962027,0.6212554,1.0,-0.06446838,-0.07514954,0.9950714,28.61661,3.151093,-32.83279,4.472488,0.657491,0.5292391,0.006804585,1.135172,-0.2540374,-0.01668036,0.6611904,0.04397785,0.14015676303387334,6.710205,33.47698330878743
2,-0.1210175,-0.1436462,0.982193,1.0,-0.1210327,-0.1436615,0.982193,-31.0892,1.925964,-36.34157,4.157028,0.4962027,0.6212554,1.0,-0.06446838,-0.07514954,0.9950714,28.61661,3.151093,-32.83279,4.472488,0.657491,0.5292391,0.006804585,1.135172,-0.2540374,-0.01668036,0.6611904,0.04397785,0.14015676303387334,6.710205,33.47698330878743
2,-0.1116638,-0.1396484,0.9838715,1.0,-0.1116638,-0.1396637,0.9838715,-31.10381,2.004593,-36.36183,4.12764,0.4950818,0.6178178,1.0,-0.06097412,-0.06567383,0.9959717,28.65788,3.193237,-32.71637,4.429214,0.6552356,0.5248407,0.007229686,1.134724,-0.2545094,-0.0148088,0.6633724,0.04219133,0.14015676303387334,6.710205,33.47698330878743
2,-0.1116638,-0.1396484,0.9838715,1.0,-0.1116638,-0.1396637,0.9838715,-31.10381,2.004593,-36.36183,4.12764,0.4950818,0.6178178,1.0,-0.06097412,-0.06567383,0.9959717,28.65788,3.193237,-32.71637,4.429214,0.6552356,0.5248407,0.007229686,1.134724,-0.2545094,-0.0148088,0.6633724,0.04219133,0.14015676303387334,6.710205,33.47698330878743
2,-0.1011505,-0.1240997,0.9870911,1.0,-0.1011505,-0.124115,0.9870911,-31.10538,2.047867,-36.40886,4.092178,0.4933014,0.6137657,1.0,-0.05987549,-0.063797,0.9961548,28.69841,3.261063,-32.77406,4.435654,0.6536705,0.5226709,0.007663965,1.134317,-0.2550265,-0.01304383,0.6655973,0.04031279,0.14015676303387334,6.710205,33.47698330878743
2,-0.1019135,-0.1139984,0.9882355,1.0,-0.1027374,-0.114975,0.9880371,-31.07126,2.084488,-36.5128,3.960846,0.4924245,0.6117639,1.0,-0.05836487,-0.06237793,0.9963379,28.73509,3.336319,-32.94946,4.313538,0.6523086,0.5213806,0.008088827,1.133919,-0.2555579,-0.01162876,0.6679646,0.0382614,0.14015676303387334,6.710205,33.47698330878743
2,-0.1019135,-0.1139984,0.9882355,1.0,-0.1027374,-0.114975,0.9880371,-31.07126,2.084488,-36.5128,3.960846,0.4924245,0.6117639,1.0,-0.05836487,-0.06237793,0.9963379,28.73509,3.336319,-32.94946,4.313538,0.6523086,0.5213806,0.008088827,1.133919,-0.2555579,-0.01162876,0.6679646,0.0382614,0.14015676303387334,6.710205,33.47698330878743
2,-0.07427979,-0.08435059,0.9936523,1.0,-0.1026306,-0.1165466,0.987854,-31.06456,2.116974,-36.56609,3.866287,0.4922008,0.6113861,1.0,-0.04949951,-0.05621338,0.9971771,28.7368,3.335693,-32.93404,4.27359,0.6506314,0.5200917,0.008357763,1.133727,-0.2558103,-0.01088481,0.6693305,0.03722064,0.14015676303387334,6.710205,33.47698330878743
2,-0.09750366,-0.1141357,0.9886627,1.0,-0.09764099,-0.1143188,0.9886322,-31.06023,2.128799,-36.57327,3.975464,0.4911236,0.610662,1.0,-0.045578,-0.04251099,0.9980469,28.73076,3.05043,-31.95222,4.243805,0.6486827,0.5181687,0.00880003,1.133332,-0.2564081,-0.009695181,0.6719413,0.03530218,0.14015676303387334,6.710205,33.47698330878743
2,-0.09750366,-0.1141357,0.9886627,1.0,-0.09764099,-0.1143188,0.9886322,-31.06023,2.128799,-36.57327,3.975464,0.4911236,0.610662,1.0,-0.045578,-0.04251099,0.9980469,28.73076,3.05043,-31.95222,4.243805,0.6486827,0.5181687,0.00880003,1.133332,-0.2564081,-0.009695181,0.6719413,0.03530218,0.14015676303387334,6.710205,33.47698330878743
2,-0.0962677,-0.1116486,0.9890594,1.0,-0.0962677,-0.1116486,0.9890594,-31.04337,2.075562,-36.32507,3.981293,0.4902321,0.6094418,1.0,-0.04206848,-0.03811646,0.9983826,28.75395,3.042023,-31.82715,4.196014,0.6470377,0.5164407,0.009024143,1.133154,-0.2566947,-0.009013801,0.6732994,0.0344103,0.14015676303387334,6.710205,33.47698330878743
2,-0.0962677,-0.1116486,0.9890594,1.0,-0.0962677,-0.1116486,0.9890594,-31.04337,2.075562,-36.32507,3.981293,0.4902321,0.6094418,1.0,-0.04206848,-0.03811646,0.9983826,28.75395,3.042023,-31.82715,4.196014,0.6470377,0.5164407,0.009024143,1.133154,-0.2566947,-0.009013801,0.6732994,0.0344103,0.14015676303387334,6.710205,33.47698330878743
2,-0.08892822,-0.111145,0.9898071,1.0,-0.08892822,-0.1111603,0.9898071,-31.02325,2.105637,-36.32918,3.926468,0.4882138,0.608221,1.0,-0.0406189,-0.03164673,0.9986725,28.79683,3.078476,-31.85522,4.15065,0.6452808,0.51425,0.009426951,1.132764,-0.2572934,-0.007666171,0.6758738,0.03240823,0.14015676303387334,6.710205,33.47698330878743
2,-0.0826416,-0.104599,0.9910583,1.0,-0.08273315,-0.1047363,0.9910431,-31.01372,2.122025,-36.34291,3.82901,0.486799,0.6064841,1.0,-0.03157043,-0.026474,0.9991455,28.81647,3.110474,-31.91971,4.035507,0.6430414,0.5127174,0.00987792,1.132359,-0.2579713,-0.006242318,0.6786202,0.03059244,0.14015676303387334,3.594601,33.47698330878743
2,-0.04458618,-0.04698181,0.9978943,1.0,-0.08015442,-0.1069031,0.9910278,-30.98561,2.122986,-36.28067,3.850433,0.4853126,0.6061859,1.0,-0.02908325,-0.02090454,0.9993439,28.85594,3.173203,-32.0192,4.036087,0.6413375,0.5104748,0.01026988,1.131998,-0.2586523,-0.004919297,0.6812759,0.02917557,0.14015676303387334,3.594601,33.47698330878743
2,-0.04458618,-0.04698181,0.9978943,1.0,-0.08015442,-0.1069031,0.9910278,-30.98561,2.122986,-36.28067,3.850433,0.4853126,0.6061859,1.0,-0.02908325,-0.02090454,0.9993439,28.85594,3.173203,-32.0192,4.036087,0.6413375,0.5104748,0.01026988,1.131998,-0.2586523,-0.004919297,0.6812759,0.02917557,0.14015676303387334,3.594601,33.47698330878743
2,-0.05523682,-0.06526184,0.9963226,1.0,-0.07966614,-0.1015472,0.9916229,-30.96069,2.130081,-36.22794,3.806671,0.4843446,0.6043406,1.0,-0.0275116,-0.02409363,0.9993286,28.8858,3.190948,-31.97878,4.060791,0.6399465,0.5100374,0.01026988,1.131998,-0.2586523,-0.004919297,0.6812759,0.02917557,0.14015676303387334,3.594601,33.47698330878743
2,-0.05371094,-0.06848145,0.9962006,1.0,-0.07028198,-0.09329224,0.9931488,-30.94194,2.189499,-36.37064,3.745361,0.482033,0.6020979,1.0,-0.02630615,-0.02748108,0.9992676,28.92357,3.242874,-32.03809,4.019562,0.6384596,0.5093653,0.01057971,1.13169,-0.2593725,-0.003657019,0.684106,0.02766031,0.14015676303387334,3.594601,33.47698330878743
2,-0.05371094,-0.06848145,0.9962006,1.0,-0.07028198,-0.09329224,0.9931488,-30.94194,2.189499,-36.37064,3.745361,0.482033,0.6020979,1.0,-0.02630615,-0.02748108,0.9992676,28.92357,3.242874,-32.03809,4.019562,0.6384596,0.5093653,0.01057971,1.13169,-0.2593725,-0.003657019,0.684106,0.02766031,0.14015676303387334,3.594601,33.47698330878743
2,-0.06158447,-0.07518005,0.9952545,1.0,-0.06802368,-0.08314514,0.9942017,-30.91444,2.171158,-36.30997,3.697174,0.4806585,0.6001811,1.0,-0.01783752,-0.02110291,0.9996033,28.96541,3.369614,-32.37634,3.924988,0.6359041,0.5069286,0.01086104,1.131381,-0.2601034,-0.002465699,0.6869521,0.02610422,0.14015676303387334,3.594601,33.47698330878743
2,-0.06434631,-0.0790863,0.9947815,1.0,-0.06773376,-0.08279419,0.9942474,-30.89445,2.326019,-36.69711,3.634323,0.4799384,0.5985809,1.0,-0.02035522,-0.03082275,0.9993134,29.00041,3.415924,-32.47395,3.85321,0.6352147,0.5079215,0.01100838,1.131156,-0.2608978,-0.001684836,0.6898283,0.02512144,0.14015676303387334,3.594601,33.47698330878743
2,-0.06434631,-0.0790863,0.9947815,1.0,-0.06773376,-0.08279419,0.9942474,-30.89445,2.326019,-36.69711,3.634323,0.4799384,0.5985809,1.0,-0.02035522,-0.03082275,0.9993134,29.00041,3.415924,-32.47395,3.85321,0.6352147,0.5079215,0.01100838,1.131156,-0.2608978,-0.001684836,0.6898283,0.02512144,0.14015676303387334,3.594601,33.47698330878743
2,-0.0256958,-0.04830933,0.9984894,1.0,-0.05805969,-0.08770752,0.9944458,-30.86432,2.325287,-36.61639,3.612473,0.4771061,0.5986086,1.0,-0.004714966,-0.0227356,0.9997253,29.01166,3.381699,-32.26918,3.855331,0.6317572,0.5057068,0.01119792,1.131036,-0.2616825,-0.001115458,0.6928601,0.02450195,0.14015676303387334,3.594601,33.47698330878743
2,-0.0256958,-0.04830933,0.9984894,1.0,-0.05805969,-0.08770752,0.9944458,-30.86432,2.325287,-36.61639,3.612473,0.4771061,0.5986086,1.0,-0.004714966,-0.0227356,0.9997253,29.01166,3.381699,-32.26918,3.855331,0.6317572,0.5057068,0.01119792,1.131036,-0.2616825,-0.001115458,0.6928601,0.02450195,0.14015676303387334,3.594601,33.47698330878743
2,-0.0196991,-0.04377747,0.9988403,1.0,-0.05856323,-0.09127808,0.9940948,-30.83374,2.356888,-36.66338,3.596298,0.4760997,0.5986124,1.0,-0.0005187988,-0.02032471,0.9997864,29.03992,3.462814,-32.4518,3.806366,0.6302286,0.5041255,0.01136017,1.130923,-0.2624867,-0.0007117862,0.6959685,0.02415389,0.14015676303387334,3.594601,33.47698330878743
2,-0.0196991,-0.04377747,0.9988403,1.0,-0.05856323,-0.09127808,0.9940948,-30.83374,2.356888,-36.66338,3.596298,0.4760997,0.5986124,1.0,-0.0005187988,-0.02032471,0.9997864,29.03992,3.462814,-32.4518,3.806366,0.6302286,0.5041255,0.01136017,1.130923,-0.2624867,-0.0007117862,0.6959685,0.02415389,0.14015676303387334,3.594601,33.47698330878743
2,-0.0327301,-0.05763245,0.9977875,1.0,-0.05552673,-0.08058167,0.9951935,-30.76482,2.279877,-36.47229,3.564941,0.4730809,0.5973347,1.0,0.005401611,-0.01913452,0.9998016,29.08324,3.467758,-32.45921,3.690079,0.6275994,0.5037239,0.01157463,1.130935,-0.2633315,-0.0005390479,0.6990405,0.02410649,0.1409294,3.594601,33.47698330878743
2,-0.0327301,-0.05763245,0.9977875,1.0,-0.05552673,-0.08058167,0.9951935,-30.76482,2.279877,-36.47229,3.564941,0.4730809,0.5973347,1.0,0.005401611,-0.01913452,0.9998016,29.08324,3.467758,-32.45921,3.690079,0.6275994,0.5037239,0.01157463,1.130935,-0.2633315,-0.0005390479,0.6990405,0.02410649,0.1409294,3.594601,33.47698330878743
2,-0.001556396,-0.0189209,0.9998169,1.0,-0.04570007,-0.079422,0.9957886,-30.74402,2.209549,-36.17004,3.492218,0.4705838,0.5963722,1.0,0.005859375,-0.008728027,0.999939,29.15207,3.491135,-32.42351,3.713028,0.6250268,0.5007077,0.01178718,1.131111,-0.2642589,-0.0009650505,0.7025188,0.02479906,0.1409294,3.594601,33.47698330878743
2,-0.001556396,-0.0189209,0.9998169,1.0,-0.04570007,-0.079422,0.9957886,-30.74402,2.209549,-36.17004,3.492218,0.4705838,0.5963722,1.0,0.005859375,-0.008728027,0.999939,29.15207,3.491135,-32.42351,3.713028,0.6250268,0.5007077,0.01178718,1.131111,-0.2642589,-0.0009650505,0.7025188,0.02479906,0.1409294,3.594601,33.47698330878743
2,0.02111816,-0.01014709,0.9997253,1.0,-0.04335022,-0.08766174,0.9951935,-30.73357,2.496872,-36.96959,3.483032,0.4697835,0.5959671,1.0,0.0224762,-0.008499146,0.9997101,29.09756,3.539658,-32.47704,3.748047,0.6240903,0.4994963,0.0119468,1.131342,-0.26525,-0.001413066,0.7068215,0.02590826,0.1409294,-2.671829,33.47698330878743
2,0.02111816,-0.01014709,0.9997253,1.0,-0.04335022,-0.08766174,0.9951935,-30.73357,2.496872,-36.96959,3.483032,0.4697835,0.5959671,1.0,0.0224762,-0.008499146,0.9997101,29.09756,3.539658,-32.47704,3.748047,0.6240903,0.4994963,0.0119468,1.131342,-0.26525,-0.001413066,0.7068215,0.02590826,0.1409294,-2.671829,33.47698330878743
2,-0.00592041,0.02868652,0.9995575,1.0,-0.06463623,-0.04190063,0.9970245,-30.87421,2.641098,-36.7569,3.376984,0.4788143,0.5800768,1.0,-0.005584717,0.02909851,0.9995575,28.87653,3.677582,-32.30911,3.716919,0.6368095,0.4863146,0.01202786,1.131598,-0.2664411,-0.0015344,0.7113771,0.02702693,0.1409294,-2.671829,33.47698330878743
2,-0.00592041,0.02868652,0.9995575,1.0,-0.06463623,-0.04190063,0.9970245,-30.87421,2.641098,-36.7569,3.376984,0.4788143,0.5800768,1.0,-0.005584717,0.02909851,0.9995575,28.87653,3.677582,-32.30911,3.716919,0.6368095,0.4863146,0.01202786,1.131598,-0.2664411,-0.0015344,0.7113771,0.02702693,0.1409294,-2.671829,33.47698330878743
2,-0.05282593,0.0438385,0.9976349,1.0,-0.08673096,0.002243042,0.9962158,-30.96544,2.629608,-36.20374,3.44574,0.4861005,0.5668693,1.0,-0.03164673,0.06967163,0.9970551,28.65999,3.744919,-31.99281,3.64006,0.6488212,0.4737213,0.01212859,1.131941,-0.2676939,-0.002311291,0.7160306,0.02858101,0.1409294,-2.671829,33.47698330878743
2,-0.05282593,0.0438385,0.9976349,1.0,-0.08673096,0.002243042,0.9962158,-30.96544,2.629608,-36.20374,3.44574,0.4861005,0.5668693,1.0,-0.03164673,0.06967163,0.9970551,28.65999,3.744919,-31.99281,3.64006,0.6488212,0.4737213,0.01212859,1.131941,-0.2676939,-0.002311291,0.7160306,0.02858101,0.1409294,-2.671829,33.47698330878743
2,-0.06312561,0.009414673,0.9979553,1.0,-0.07592773,-0.008361816,0.9970703,-30.93172,2.639236,-36.29671,3.431503,0.4829392,0.5693469,1.0,-0.0222168,0.06596375,0.9975739,28.73235,3.63768,-31.71783,3.629059,0.6441299,0.4755874,0.01220691,1.132307,-0.2689768,-0.003326276,0.721191,0.0303819,0.1409294,-2.671829,33.47698330878743
2,-0.06312561,0.009414673,0.9979553,1.0,-0.07592773,-0.008361816,0.9970703,-30.93172,2.639236,-36.29671,3.431503,0.4829392,0.5693469,1.0,-0.0222168,0.06596375,0.9975739,28.73235,3.63768,-31.71783,3.629059,0.6441299,0.4755874,0.01220691,1.132307,-0.2689768,-0.003326276,0.721191,0.0303819,0.1409294,-2.671829,33.47698330878743
2,-0.05334473,0.003509521,0.9985657,1.0,-0.0668335,-0.01567078,0.9976349,-30.89964,2.565186,-36.27821,3.432068,0.4801267,0.5730916,1.0,-0.01426697,0.05888367,0.9981537,28.83209,3.721085,-32.1263,3.646454,0.6397108,0.4777299,0.01224852,1.132628,-0.2703261,-0.004206558,0.726561,0.03181202,0.1409294,-2.671829,33.47698330878743
2,-0.05334473,0.003509521,0.9985657,1.0,-0.0668335,-0.01567078,0.9976349,-30.89964,2.565186,-36.27821,3.432068,0.4801267,0.5730916,1.0,-0.01426697,0.05888367,0.9981537,28.83209,3.721085,-32.1263,3.646454,0.6397108,0.4777299,0.01224852,1.132628,-0.2703261,-0.004206558,0.726561,0.03181202,0.1409294,-2.671829,33.47698330878743
2,-0.05522156,-0.005615234,0.9984436,1.0,-0.05984497,-0.01289368,0.9981232,-30.86908,2.578888,-36.43385,3.482742,0.4777718,0.573695,1.0,-0.01228333,0.06159973,0.9980164,28.89993,3.665146,-32.05107,3.636642,0.6368319,0.4784971,0.01226771,1.132849,-0.2716827,-0.004923839,0.7318689,0.03323968,0.1409294,-2.671829,33.47698330878743
2,-0.05522156,-0.005615234,0.9984436,1.0,-0.05984497,-0.01289368,0.9981232,-30.86908,2.578888,-36.43385,3.482742,0.4777718,0.573695,1.0,-0.01228333,0.06159973,0.9980164,28.89993,3.665146,-32.05107,3.636642,0.6368319,0.4784971,0.01226771,1.132849,-0.2716827,-0.004923839,0.7318689,0.03323968,0.1409294,-2.671829,33.47698330878743
2,-0.0390625,-0.01396179,0.9991302,1.0,-0.04301453,-0.02125549,0.9988403,-30.78998,2.610596,-36.6082,3.426346,0.4718954,0.5757702,1.0,0.003829956,0.06495667,0.997879,28.95949,3.485046,-31.58867,3.553238,0.6311774,0.4798459,0.0123229,1.133303,-0.2730711,-0.006208208,0.7372434,0.03516123,0.1409294,-2.671829,33.47698330878743
2,-0.0390625,-0.01396179,0.9991302,1.0,-0.04301453,-0.02125549,0.9988403,-30.78998,2.610596,-36.6082,3.426346,0.4718954,0.5757702,1.0,0.003829956,0.06495667,0.997879,28.95949,3.485046,-31.58867,3.553238,0.6311774,0.4798459,0.0123229,1.133303,-0.2730711,-0.006208208,0.7372434,0.03516123,0.1409294,-2.671829,33.47698330878743
2,-0.02305603,-0.01733398,0.9995728,1.0,-0.02708435,-0.02339172,0.9993439,-30.72302,2.523804,-36.42014,3.370758,0.466614,0.577223,1.0,0.02685547,0.05793762,0.9979553,29.04051,3.576828,-31.91225,3.595169,0.6246179,0.4809304,0.01234865,1.133769,-0.2744881,-0.007613998,0.7426806,0.03707754,0.1409294,-7.26915,33.47698330878743
2,-0.02305603,-0.01733398,0.9995728,1.0,-0.02708435,-0.02339172,0.9993439,-30.72302,2.523804,-36.42014,3.370758,0.466614,0.577223,1.0,0.02685547,0.05793762,0.9979553,29.04051,3.576828,-31.91225,3.595169,0.6246179,0.4809304,0.01234865,1.133769,-0.2744881,-0.007613998,0.7426806,0.03707754,0.1409294,-7.26915,33.47698330878743
2,-0.01228333,-0.01417542,0.9998169,1.0,-0.01821899,-0.02284241,0.9995728,-30.65114,2.435852,-36.23773,3.377289,0.4624397,0.5783616,1.0,0.04006958,0.06230164,0.9972382,29.10521,3.609467,-32.07861,3.539261,0.6201394,0.4805273,0.01234746,1.134244,-0.2759099,-0.009444882,0.7480663,0.03905287,0.1409294,-7.26915,33.47698330878743
2,-0.01228333,-0.01417542,0.9998169,1.0,-0.01821899,-0.02284241,0.9995728,-30.65114,2.435852,-36.23773,3.377289,0.4624397,0.5783616,1.0,0.04006958,0.06230164,0.9972382,29.10521,3.609467,-32.07861,3.539261,0.6201394,0.4805273,0.01234746,1.134244,-0.2759099,-0.009444882,0.7480663,0.03905287,0.1409294,-7.26915,33.47698330878743
2,0.02412415,0.01979065,0.9995117,1.0,-0.003448486,-0.01792908,0.9998322,-30.57892,2.461838,-36.43666,3.317001,0.4571706,0.5784819,1.0,0.05293274,0.05923462,0.9968262,29.17844,3.525314,-31.82755,3.562576,0.6149569,0.4817182,0.01240194,1.134948,-0.2774432,-0.01194762,0.7535765,0.04171636,0.1409294,-7.26915,33.47698330878743
2,0.02412415,0.01979065,0.9995117,1.0,-0.003448486,-0.01792908,0.9998322,-30.57892,2.461838,-36.43666,3.317001,0.4571706,0.5784819,1.0,0.05293274,0.05923462,0.9968262,29.17844,3.525314,-31.82755,3.562576,0.6149569,0.4817182,0.01240194,1.134948,-0.2774432,-0.01194762,0.7535765,0.04171636,0.1409294,-7.26915,33.47698330878743
2,0.02412415,0.01979065,0.9995117,1.0,-0.003448486,-0.01792908,0.9998322,-30.57892,2.461838,-36.43666,3.317001,0.4571706,0.5784819,1.0,0.05293274,0.05923462,0.9968262,29.17844,3.525314,-31.82755,3.562576,0.6149569,0.4817182,0.01241076,1.1358,-0.2790663,-0.014852,0.7593838,0.04531078,0.1409294,-7.26915,33.47698330878743
2,0.02412415,0.01979065,0.9995117,1.0,-0.003448486,-0.01792908,0.9998322,-30.57892,2.461838,-36.43666,3.317001,0.4571706,0.5784819,1.0,0.05293274,0.05923462,0.9968262,29.17844,3.525314,-31.82755,3.562576,0.6149569,0.4817182,0.01241076,1.1358,-0.2790663,-0.014852,0.7593838,0.04531078,0.1409294,-7.26915,33.47698330878743
2,0.02412415,0.01979065,0.9995117,1.0,-0.003448486,-0.01792908,0.9998322,-30.57892,2.461838,-36.43666,3.317001,0.4571706,0.5784819,1.0,0.05293274,0.05923462,0.9968262,29.17844,3.525314,-31.82755,3.562576,0.6149569,0.4817182,0.01232684,1.136626,-0.280717,-0.01771513,0.7653013,0.04902996,0.1409294,-7.26915,33.47698330878743
2,0.02412415,0.01979065,0.9995117,1.0,-0.003448486,-0.01792908,0.9998322,-30.57892,2.461838,-36.43666,3.317001,0.4571706,0.5784819,1.0,0.05293274,0.05923462,0.9968262,29.17844,3.525314,-31.82755,3.562576,0.6149569,0.4817182,0.01232684,1.136626,-0.280717,-0.01771513,0.7653013,0.04902996,0.1409294,-7.26915,33.47698330878743
2,0.03817749,0.02651978,0.9989166,1.0,0.002670288,-0.02342224,0.9997101,-30.55663,2.508087,-36.57764,3.351257,0.4552387,0.5793154,1.0,0.05691528,0.05291748,0.9969635,29.21388,3.550049,-31.89348,3.535614,0.6130571,0.4825701,0.01221216,1.137511,-0.2823701,-0.0208883,0.7708366,0.05330896,0.1409294,-7.26915,33.47698330878743
2,0.03817749,0.02651978,0.9989166,1.0,0.002670288,-0.02342224,0.9997101,-30.55663,2.508087,-36.57764,3.351257,0.4552387,0.5793154,1.0,0.05691528,0.05291748,0.9969635,29.21388,3.550049,-31.89348,3.535614,0.6130571,0.4825701,0.01221216,1.137511,-0.2823701,-0.0208883,0.7708366,0.05330896,0.1409294,-7.26915,33.47698330878743
2,0.04901123,-0.0224762,0.9985352,1.0,0.04901123,-0.0224762,0.9985352,-30.23589,2.187851,-35.99493,3.250427,0.435436,0.5843917,1.0,0.1089935,-0.000579834,0.9940338,29.56377,3.972488,-33.29646,3.457199,0.5927832,0.4905331,0.01205623,1.138553,-0.2839648,-0.02484963,0.7762199,0.05807289,0.1409294,-7.26915,33.47698330878743
2,0.04901123,-0.0224762,0.9985352,1.0,0.04901123,-0.0224762,0.9985352,-30.23589,2.187851,-35.99493,3.250427,0.435436,0.5843917,1.0,0.1089935,-0.000579834,0.9940338,29.56377,3.972488,-33.29646,3.457199,0.5927832,0.4905331,0.01205623,1.138553,-0.2839648,-0.02484963,0.7762199,0.05807289,0.1409294,-7.26915,33.47698330878743
2,0.068573,-0.03955078,0.9968567,1.0,0.068573,-0.03955078,0.9968567,-30.12967,2.185883,-36.14795,3.314865,0.428016,0.5892676,1.0,0.1200714,-0.004119873,0.9927521,29.69501,4.054184,-33.64313,3.300537,0.5863425,0.4914973,0.01185226,1.139567,-0.2855746,-0.02913801,0.7817141,0.06273072,0.1409294,-7.26915,33.47698330878743
2,0.068573,-0.03955078,0.9968567,1.0,0.068573,-0.03955078,0.9968567,-30.12967,2.185883,-36.14795,3.314865,0.428016,0.5892676,1.0,0.1200714,-0.004119873,0.9927521,29.69501,4.054184,-33.64313,3.300537,0.5863425,0.4914973,0.01185226,1.139567,-0.2855746,-0.02913801,0.7817141,0.06273072,0.1409294,-7.26915,33.47698330878743
2,0.0693512,-0.04328918,0.9966431,1.0,0.0693512,-0.04328918,0.9966431,-30.15718,2.173248,-36.14624,3.360535,0.428861,0.5904393,1.0,0.1212311,-0.009307861,0.992569,29.65956,3.997421,-33.4769,3.357025,0.5872774,0.4929165,0.01165783,1.139975,-0.2863939,-0.03110794,0.7844108,0.06460859,0.1409294,-7.26915,33.47698330878743
2,0.0693512,-0.04328918,0.9966431,1.0,0.0693512,-0.04328918,0.9966431,-30.15718,2.173248,-36.14624,3.360535,0.428861,0.5904393,1.0,0.1212311,-0.009307861,0.992569,29.65956,3.997421,-33.4769,3.357025,0.5872774,0.4929165,0.01165783,1.139975,-0.2863939,-0.03110794,0.7844108,0.06460859,0.1409294,-7.26915,33.47698330878743
2,0.003311157,-0.03175354,0.9994812,1.0,0.003311157,-0.03175354,0.9994812,-30.49513,2.580048,-36.91151,3.225296,0.4528534,0.5816092,1.0,0.06799316,0.03735352,0.9969788,29.22037,3.613495,-32.03931,3.477661,0.6109986,0.4844509,0.0113225,1.140903,-0.2880217,-0.0349328,0.7895727,0.06912382,0.1409294,8.787521,33.47698330878743
2,-0.05444336,0.00831604,0.9984741,1.0,-0.05444336,0.00831604,0.9984741,-30.77621,2.679825,-36.53687,3.183228,0.4735665,0.5669369,1.0,-0.00769043,0.07106018,0.9974365,28.81491,3.740463,-31.89795,3.519653,0.6388209,0.472656,0.0110954,1.14146,-0.2887673,-0.03693217,0.7920551,0.07160675,0.1409294,8.787521,33.47698330878743
2,-0.05444336,0.00831604,0.9984741,1.0,-0.05444336,0.00831604,0.9984741,-30.77621,2.679825,-36.53687,3.183228,0.4735665,0.5669369,1.0,-0.00769043,0.07106018,0.9974365,28.81491,3.740463,-31.89795,3.519653,0.6388209,0.472656,0.0110954,1.14146,-0.2887673,-0.03693217,0.7920551,0.07160675,0.1409294,8.787521,33.47698330878743
2,-0.08621216,0.0184021,0.9960938,1.0,-0.08621216,0.0184021,0.9960938,-30.93149,2.758286,-36.68851,3.324341,0.4849095,0.5641341,1.0,-0.03414917,0.08428955,0.9958496,28.61742,3.742966,-31.75511,3.460526,0.6504182,0.4688508,0.01076019,1.142556,-0.2903012,-0.04077167,0.7968401,0.07659316,0.1409294,8.787521,33.47698330878743
2,-0.06907654,0.01678467,0.997467,1.0,-0.06938171,0.01631165,0.9974518,-30.90042,2.611816,-36.38042,3.275482,0.4807103,0.5664836,1.0,-0.03134155,0.07530212,0.9966583,28.7187,3.656525,-31.63774,3.511032,0.6461301,0.4724369,0.01012099,1.143362,-0.2918551,-0.04431472,0.8013701,0.08113829,0.1409294,8.787521,33.47698330878743
2,-0.06907654,0.01678467,0.997467,1.0,-0.06938171,0.01631165,0.9974518,-30.90042,2.611816,-36.38042,3.275482,0.4807103,0.5664836,1.0,-0.03134155,0.07530212,0.9966583,28.7187,3.656525,-31.63774,3.511032,0.6461301,0.4724369,0.01012099,1.143362,-0.2918551,-0.04431472,0.8013701,0.08113829,0.1409294,8.787521,33.47698330878743
2,-0.02255249,0.06916809,0.997345,1.0,-0.06086731,-0.0004425049,0.9981384,-30.85406,2.616638,-36.51854,3.235245,0.4774916,0.5707111,1.0,-0.02154541,0.07096863,0.9972382,28.81725,3.725143,-32.01796,3.427872,0.6413601,0.4742484,0.009843469,1.143828,-0.2925528,-0.04607762,0.8034595,0.08344326,0.1409294,8.787521,33.47698330878743
2,-0.02255249,0.06916809,0.997345,1.0,-0.06086731,-0.0004425049,0.9981384,-30.85406,2.616638,-36.51854,3.235245,0.4774916,0.5707111,1.0,-0.02154541,0.07096863,0.9972382,28.81725,3.725143,-32.01796,3.427872,0.6413601,0.4742484,0.009843469,1.143828,-0.2925528,-0.04607762,0.8034595,0.08344326,0.1409294,8.787521,33.47698330878743
2,-0.03349304,0.02326965,0.9991608,1.0,-0.04998779,-0.01152039,0.9986725,-30.80136,2.639282,-36.67242,3.262909,0.4736088,0.5734917,1.0,-0.01147461,0.0695343,0.9975128,28.88367,3.496826,-31.3894,3.450745,0.6363351,0.4766949,0.009435892,1.144745,-0.2939904,-0.04973508,0.8075144,0.08802285,0.1409294,8.787521,33.47698330878743
2,-0.02697754,0.0009613037,0.9996338,1.0,-0.0398407,-0.02061462,0.9989929,-30.75085,2.654755,-36.90102,3.26683,0.4699321,0.5769311,1.0,0.01133728,0.06512451,0.9978027,28.94344,3.416687,-31.28722,3.426346,0.6299802,0.4792989,0.009169936,1.145143,-0.2946715,-0.05148944,0.8095305,0.09015531,0.1409294,8.787521,33.47698330878743
2,-0.02697754,0.0009613037,0.9996338,1.0,-0.0398407,-0.02061462,0.9989929,-30.75085,2.654755,-36.90102,3.26683,0.4699321,0.5769311,1.0,0.01133728,0.06512451,0.9978027,28.94344,3.416687,-31.28722,3.426346,0.6299802,0.4792989,0.009169936,1.145143,-0.2946715,-0.05148944,0.8095305,0.09015531,0.1409294,8.787521,33.47698330878743
2,-0.005859375,0.009674072,0.9999237,1.0,-0.02604675,-0.02862549,0.9992371,-30.70262,2.369446,-36.16891,3.269104,0.4656931,0.5810153,1.0,0.01760864,0.05418396,0.9983673,29.01471,3.530457,-31.79723,3.415848,0.6269748,0.4819895,0.008516908,1.145895,-0.2959737,-0.05459294,0.8134328,0.09391703,0.1409294,8.787521,33.47698330878743
2,-0.005859375,0.009674072,0.9999237,1.0,-0.02604675,-0.02862549,0.9992371,-30.70262,2.369446,-36.16891,3.269104,0.4656931,0.5810153,1.0,0.01760864,0.05418396,0.9983673,29.01471,3.530457,-31.79723,3.415848,0.6269748,0.4819895,0.008516908,1.145895,-0.2959737,-0.05459294,0.8134328,0.09391703,0.1409294,8.787521,33.47698330878743
2,-0.004013062,-0.01972961,0.9997864,1.0,-0.01438904,-0.03448486,0.9992981,-30.61015,2.389175,-36.3266,3.133026,0.4602645,0.5828617,1.0,0.03648376,0.03791809,0.9986115,29.11983,3.496033,-31.76404,3.421829,0.6198337,0.4857828,0.007897496,1.146663,-0.2971827,-0.05765313,0.8170404,0.09763748,0.1409294,8.787521,33.47698330878743
2,0.0005187988,-0.00189209,0.9999847,1.0,-0.02398682,-0.03103638,0.9992218,-30.61148,2.417252,-36.25838,3.157166,0.4620643,0.5805535,1.0,0.03633118,0.0406189,0.9985046,29.11331,3.627625,-32.00787,3.420746,0.6203939,0.4829745,0.007614374,1.147029,-0.2978096,-0.05904065,0.818618,0.09972271,0.1409294,-3.575229,33.47698330878743
2,0.0005187988,-0.00189209,0.9999847,1.0,-0.02398682,-0.03103638,0.9992218,-30.61148,2.417252,-36.25838,3.157166,0.4620643,0.5805535,1.0,0.03633118,0.0406189,0.9985046,29.11331,3.627625,-32.00787,3.420746,0.6203939,0.4829745,0.007065177,1.147669,-0.298943,-0.06160228,0.8218663,0.1035714,0.1409294,-3.575229,33.47698330878743
2,0.0005187988,-0.00189209,0.9999847,1.0,-0.02398682,-0.03103638,0.9992218,-30.61148,2.417252,-36.25838,3.157166,0.4620643,0.5805535,1.0,0.03633118,0.0406189,0.9985046,29.11331,3.627625,-32.00787,3.420746,0.6203939,0.4829745,0.007065177,1.147669,-0.298943,-0.06160228,0.8218663,0.1035714,0.1409294,-3.575229,33.47698330878743
2,0.0005187988,-0.00189209,0.9999847,1.0,-0.02398682,-0.03103638,0.9992218,-30.61148,2.417252,-36.25838,3.157166,0.4620643,0.5805535,1.0,0.03633118,0.0406189,0.9985046,29.11331,3.627625,-32.00787,3.420746,0.6203939,0.4829745,0.006760955,1.147988,-0.2994604,-0.06258649,0.8234179,0.1053971,0.1409294,-3.575229,33.47698330878743
2,0.0005187988,-0.00189209,0.9999847,1.0,-0.02398682,-0.03103638,0.9992218,-30.61148,2.417252,-36.25838,3.157166,0.4620643,0.5805535,1.0,0.03633118,0.0406189,0.9985046,29.11331,3.627625,-32.00787,3.420746,0.6203939,0.4829745,0.006080031,1.148578,-0.3003917,-0.06419506,0.8261784,0.1087509,0.1409294,-3.575229,33.47698330878743
2,0.0005187988,-0.00189209,0.9999847,1.0,-0.02398682,-0.03103638,0.9992218,-30.61148,2.417252,-36.25838,3.157166,0.4620643,0.5805535,1.0,0.03633118,0.0406189,0.9985046,29.11331,3.627625,-32.00787,3.420746,0.6203939,0.4829745,0.006080031,1.148578,-0.3003917,-0.06419506,0.8261784,0.1087509,0.1409294,-3.575229,33.47698330878743
2,0.03193665,0.07876587,0.9963684,1.0,-0.02586365,0.0256958,0.9993286,-30.56671,2.467285,-35.89561,3.190002,0.4609342,0.5646999,1.0,0.03312683,0.07984924,0.9962463,29.04358,3.711792,-31.69092,3.502747,0.6231235,0.4702045,0.005678654,1.148876,-0.3008305,-0.06492081,0.8273923,0.1102618,0.1409294,-3.575229,33.47698330878743
2,0.05484009,0.08570862,0.9947968,1.0,0.00668335,0.03379822,0.9994049,-30.424,2.429291,-35.9342,3.201904,0.4499498,0.5648915,1.0,0.05749512,0.08856201,0.9944,29.23766,3.593414,-31.41676,3.318481,0.6115165,0.4701495,0.005381346,1.149148,-0.3012369,-0.06550127,0.8284696,0.1116631,0.1409294,-3.575229,34.39
2,0.05484009,0.08570862,0.9947968,1.0,0.00668335,0.03379822,0.9994049,-30.424,2.429291,-35.9342,3.201904,0.4499498,0.5648915,1.0,0.05749512,0.08856201,0.9944,29.23766,3.593414,-31.41676,3.318481,0.6115165,0.4701495,0.005381346,1.149148,-0.3012369,-0.06550127,0.8284696,0.1116631,0.1409294,-3.575229,34.39
3,0.01127625,0.02313232,0.9996643,1.0,0.01115417,0.02304077,0.9996643,-30.35417,2.429367,-36.00047,3.166336,0.4466186,0.5674583,1.0,0.06767273,0.05853271,0.9959869,29.39964,4.087128,-32.99825,3.215332,0.6056677,0.472731,0.004437447,1.149915,-0.3021348,-0.06755762,0.8311207,0.1155787,0.1409294,-3.575229,34.39
3,0.01127625,0.02313232,0.9996643,1.0,0.01115417,0.02304077,0.9996643,-30.35417,2.429367,-36.00047,3.166336,0.4466186,0.5674583,1.0,0.06767273,0.05853271,0.9959869,29.39964,4.087128,-32.99825,3.215332,0.6056677,0.472731,0.004437447,1.149915,-0.3021348,-0.06755762,0.8311207,0.1155787,0.1409294,-3.575229,34.39
3,0.01715088,0.01144409,0.9997864,1.0,0.01715088,0.01144409,0.9997864,-30.31709,2.450134,-36.12764,3.114502,0.4441635,0.5700752,1.0,0.07525635,0.06796265,0.9948425,29.41895,3.857727,-32.3403,3.322754,0.60294,0.4731155,0.004086494,1.150112,-0.302413,-0.06830971,0.8318579,0.1167851,0.1409294,-3.575229,34.39
3,0.01715088,0.01144409,0.9997864,1.0,0.01715088,0.01144409,0.9997864,-30.31709,2.450134,-36.12764,3.114502,0.4441635,0.5700752,1.0,0.07525635,0.06796265,0.9948425,29.41895,3.857727,-32.3403,3.322754,0.60294,0.4731155,0.004086494,1.150112,-0.302413,-0.06830971,0.8318579,0.1167851,0.1409294,-3.575229,34.39
3,0.03181458,0.007568359,0.9994507,1.0,0.03181458,0.007568359,0.9994507,-30.29166,2.497086,-36.33627,3.081436,0.4405378,0.571202,1.0,0.07814026,0.06079102,0.9950714,29.44936,3.839233,-32.34454,3.313538,0.6013423,0.4750836,0.003416061,1.150427,-0.3027769,-0.0698542,0.8331169,0.1186785,0.1409294,-3.575229,34.39
3,0.03973389,-0.004959106,0.9991913,1.0,0.03968811,-0.005004883,0.9991913,-30.2724,2.454742,-36.26988,3.25116,0.438422,0.574507,1.0,0.08580017,0.05563354,0.994751,29.50844,4.020721,-32.91766,3.296722,0.5984582,0.474957,0.003069997,1.150612,-0.3029712,-0.0705585,0.8336146,0.1194685,0.1409294,-3.575229,34.39
3,0.04397583,-0.0138092,0.9989319,1.0,0.04374695,-0.01412964,0.9989319,-30.25327,2.399994,-36.13528,3.193008,0.4370226,0.5766992,1.0,0.09043884,0.04876709,0.9947052,29.54198,4.041519,-32.96344,3.25383,0.5964581,0.4758639,0.002501965,1.150837,-0.30325,-0.07195711,0.8343014,0.1206079,0.1409294,-2.000711,34.39
3,0.04397583,-0.0138092,0.9989319,1.0,0.04374695,-0.01412964,0.9989319,-30.25327,2.399994,-36.13528,3.193008,0.4370226,0.5766992,1.0,0.09043884,0.04876709,0.9947052,29.54198,4.041519,-32.96344,3.25383,0.5964581,0.4758639,0.002501965,1.150837,-0.30325,-0.07195711,0.8343014,0.1206079,0.1409294,-2.000711,34.39
3,0.04559326,-0.008377075,0.9989166,1.0,0.04550171,-0.008499146,0.9989166,-30.22939,2.332382,-35.94467,3.175125,0.4359023,0.5760879,1.0,0.0922699,0.05177307,0.9943848,29.55057,3.814819,-32.36028,3.280396,0.5952195,0.4776962,0.001955032,1.151136,-0.3033576,-0.07319859,0.8344705,0.1212764,0.1409294,-2.000711,34.39
3,0.04559326,-0.008377075,0.9989166,1.0,0.04550171,-0.008499146,0.9989166,-30.22939,2.332382,-35.94467,3.175125,0.4359023,0.5760879,1.0,0.0922699,0.05177307,0.9943848,29.55057,3.814819,-32.36028,3.280396,0.5952195,0.4776962,0.001955032,1.151136,-0.3033576,-0.07319859,0.8344705,0.1212764,0.1409294,-2.000711,34.39
3,0.04481506,-0.008499146,0.9989471,1.0,0.04423523,-0.00920105,0.9989777,-30.21349,2.298141,-35.85454,3.220535,0.4355881,0.5765575,1.0,0.09576416,0.05247498,0.9940033,29.57553,3.824814,-32.40923,3.201431,0.593716,0.4776188,0.001675248,1.151234,-0.3033484,-0.07377462,0.8343862,0.1213987,0.1409294,-2.000711,34.39
3,0.04481506,-0.008499146,0.9989471,1.0,0.04423523,-0.00920105,0.9989777,-30.21349,2.298141,-35.85454,3.220535,0.4355881,0.5765575,1.0,0.09576416,0.05247498,0.9940033,29.57553,3.824814,-32.40923,3.201431,0.593716,0.4776188,0.001675248,1.151234,-0.3033484,-0.07377462,0.8343862,0.1213987,0.1409294,-2.000711,34.39
3,0.05360413,-0.004043579,0.9985504,1.0,0.0509491,-0.007614136,0.9986572,-30.20497,2.2388,-35.73427,3.202148,0.434101,0.5771307,1.0,0.09381104,0.05015564,0.9943237,29.58997,3.848526,-32.50247,3.2211,0.59366,0.4780817,0.001136422,1.151296,-0.3033931,-0.07455863,0.8342106,0.1209805,0.1409294,-2.000711,34.39
3,0.06143188,0.004592896,0.9980927,1.0,0.050354,-0.0100708,0.9986725,-30.19922,2.240601,-35.75835,3.181686,0.4339909,0.5777391,1.0,0.09341431,0.04708862,0.9945068,29.61259,3.910248,-32.72389,3.255249,0.5931606,0.4785564,0.0007405281,1.151379,-0.3034233,-0.07539979,0.8337125,0.1202343,0.1409294,-2.000711,34.39
3,0.06143188,0.004592896,0.9980927,1.0,0.050354,-0.0100708,0.9986725,-30.19922,2.240601,-35.75835,3.181686,0.4339909,0.5777391,1.0,0.09341431,0.04708862,0.9945068,29.61259,3.910248,-32.72389,3.255249,0.5931606,0.4785564,0.0007405281,1.151379,-0.3034233,-0.07539979,0.8337125,0.1202343,0.1409294,-2.000711,34.39
3,0.05166626,-0.01402283,0.9985504,1.0,0.04942322,-0.01629639,0.998642,-30.18021,2.254227,-35.86511,3.222748,0.4334383,0.5795304,1.0,0.1001892,0.03527832,0.994339,29.63255,3.962097,-32.93427,3.258621,0.5914441,0.4808348,0.0007405281,1.151379,-0.3034233,-0.07539979,0.8337125,0.1202343,0.1409294,-2.000711,34.39
3,0.04545593,-0.04685974,0.9978638,1.0,0.03108215,-0.06340027,0.9974976,-30.25488,2.284821,-36.44563,3.244675,0.4391782,0.5931767,1.0,0.08395386,-0.00227356,0.99646,29.39886,3.540344,-32.30086,3.178879,0.6019718,0.4963584,0.0005387068,1.151423,-0.3033751,-0.0760212,0.8329359,0.1197568,0.1409294,-2.000711,34.39
3,0.04545593,-0.04685974,0.9978638,1.0,0.03108215,-0.06340027,0.9974976,-30.25488,2.284821,-36.44563,3.244675,0.4391782,0.5931767,1.0,0.08395386,-0.00227356,0.99646,29.39886,3.540344,-32.30086,3.178879,0.6019718,0.4963584,0.0005387068,1.151423,-0.3033751,-0.0760212,0.8329359,0.1197568,0.1409294,-2.000711,34.39
3,0.05470276,-0.06848145,0.9961395,1.0,-0.003463745,-0.1075134,0.9941864,-30.3154,1.944336,-36.35034,3.123764,0.4474836,0.6126047,1.0,0.06005859,-0.06484985,0.9960785,29.20099,3.381668,-32.72597,3.193817,0.6137796,0.5173141,0.0002933741,1.151274,-0.303177,-0.07609472,0.832083,0.1186995,0.1409294,-2.000711,34.39
3,0.04602051,-0.1450043,0.9883575,1.0,-0.009368896,-0.1719208,0.9850616,-30.30884,1.672028,-36.226,3.109299,0.4481727,0.6333363,1.0,0.05810547,-0.1390533,0.9885712,29.10161,3.017349,-32.3316,3.257172,0.6172987,0.5399649,0.0001648664,1.1511,-0.302963,-0.07601772,0.8311531,0.1175851,0.1409294,-2.000711,34.39
3,0.04602051,-0.1450043,0.9883575,1.0,-0.009368896,-0.1719208,0.9850616,-30.30884,1.672028,-36.226,3.109299,0.4481727,0.6333363,1.0,0.05810547,-0.1390533,0.9885712,29.10161,3.017349,-32.3316,3.257172,0.6172987,0.5399649,0.0001648664,1.1511,-0.302963,-0.07601772,0.8311531,0.1175851,0.1409294,-2.000711,34.39
3,0.00567627,-0.2117462,0.9772949,1.0,0.001373291,-0.2141724,0.9767914,-30.26273,1.521027,-36.24055,3.160095,0.4444442,0.6471288,1.0,0.0526886,-0.1848755,0.9813385,29.10178,2.870575,-32.45422,3.259293,0.6184575,0.55487,0.0001850128,1.151122,-0.3027989,-0.07607547,0.8301089,0.1176466,0.1409294,-10.23056,34.39
3,0.00567627,-0.2117462,0.9772949,1.0,0.001373291,-0.2141724,0.9767914,-30.26273,1.521027,-36.24055,3.160095,0.4444442,0.6471288,1.0,0.0526886,-0.1848755,0.9813385,29.10178,2.870575,-32.45422,3.259293,0.6184575,0.55487,0.0001850128,1.151122,-0.3027989,-0.07607547,0.8301089,0.1176466,0.1409294,-10.23056,34.39
3,0.006164551,-0.2311859,0.9728851,1.0,-0.0001983643,-0.2382507,0.9711914,-30.36148,1.619843,-36.22337,3.119141,0.4482907,0.6480849,1.0,0.04980469,-0.1824341,0.9819489,29.15817,2.922394,-32.48579,3.231873,0.6169879,0.5528864,0.0003317595,1.151146,-0.3026221,-0.0758379,0.8291528,0.1176642,0.1409294,-10.23056,34.39
3,0.006164551,-0.2311859,0.9728851,1.0,-0.0001983643,-0.2382507,0.9711914,-30.36148,1.619843,-36.22337,3.119141,0.4482907,0.6480849,1.0,0.04980469,-0.1824341,0.9819489,29.15817,2.922394,-32.48579,3.231873,0.6169879,0.5528864,0.0003317595,1.151146,-0.3026221,-0.0758379,0.8291528,0.1176642,0.1409294,-10.23056,34.39
3,0.003585815,-0.221817,0.9750671,1.0,-0.003692627,-0.2297974,0.9732208,-30.39993,1.608398,-36.22964,3.120941,0.4503194,0.646922,1.0,0.04364014,-0.1774597,0.9831543,29.15903,2.922714,-32.48346,3.251282,0.6180537,0.5519145,0.0004091263,1.151037,-0.302428,-0.0752389,0.8284981,0.1174297,0.1409294,-10.23056,34.39
3,0.003585815,-0.221817,0.9750671,1.0,-0.003692627,-0.2297974,0.9732208,-30.39993,1.608398,-36.22964,3.120941,0.4503194,0.646922,1.0,0.04364014,-0.1774597,0.9831543,29.15903,2.922714,-32.48346,3.251282,0.6180537,0.5519145,0.0004091263,1.151037,-0.302428,-0.0752389,0.8284981,0.1174297,0.1409294,-10.23056,34.39
3,0.001800537,-0.2204742,0.9753876,1.0,-0.007720947,-0.2304077,0.973053,-30.44647,1.602325,-36.2249,3.175461,0.45272,0.6472411,1.0,0.04302979,-0.1770325,0.9832611,29.14713,2.917313,-32.47609,3.215393,0.6185656,0.5519477,0.0006209612,1.151002,-0.3022079,-0.07470055,0.8279404,0.1172313,0.1409294,-10.23056,34.39
3,0.001800537,-0.2204742,0.9753876,1.0,-0.007720947,-0.2304077,0.973053,-30.44647,1.602325,-36.2249,3.175461,0.45272,0.6472411,1.0,0.04302979,-0.1770325,0.9832611,29.14713,2.917313,-32.47609,3.215393,0.6185656,0.5519477,0.0006209612,1.151002,-0.3022079,-0.07470055,0.8279404,0.1172313,0.1409294,-10.23056,34.39
3,0.01501465,-0.2058258,0.9784698,1.0,-0.01039124,-0.2304993,0.9730072,-30.49019,1.606857,-36.22105,3.191422,0.4547812,0.6470631,1.0,0.04299927,-0.1783447,0.983017,29.13632,2.919266,-32.45241,3.253677,0.6189419,0.5518997,0.0008440018,1.150898,-0.3020759,-0.07405745,0.8274344,0.1172122,0.1409294,-10.23056,34.39
3,0.01501465,-0.2058258,0.9784698,1.0,-0.01039124,-0.2304993,0.9730072,-30.49019,1.606857,-36.22105,3.191422,0.4547812,0.6470631,1.0,0.04299927,-0.1783447,0.983017,29.13632,2.919266,-32.45241,3.253677,0.6189419,0.5518997,0.0008440018,1.150898,-0.3020759,-0.07405745,0.8274344,0.1172122,0.1409294,-10.23056,34.39
3,0.01454163,-0.2074585,0.9781342,1.0,-0.01087952,-0.233078,0.9723816,-30.49391,1.610016,-36.22026,3.196167,0.455002,0.6474513,1.0,0.04275513,-0.1786804,0.9829712,29.13452,2.920105,-32.45154,3.25473,0.6190489,0.5519181,0.001107097,1.150785,-0.3019391,-0.07329009,0.8270946,0.1168084,0.1409294,-10.23056,34.39
3,0.01454163,-0.2074585,0.9781342,1.0,-0.01087952,-0.233078,0.9723816,-30.49391,1.610016,-36.22026,3.196167,0.455002,0.6474513,1.0,0.04275513,-0.1786804,0.9829712,29.13452,2.920105,-32.45154,3.25473,0.6190489,0.5519181,0.001107097,1.150785,-0.3019391,-0.07329009,0.8270946,0.1168084,0.1409294,-10.23056,34.39
3,0.01429749,-0.205719,0.9785004,1.0,-0.01145935,-0.230011,0.973114,-30.52896,1.615494,-36.2123,3.181473,0.4563791,0.6465595,1.0,0.04251099,-0.178772,0.9829559,29.13274,2.920944,-32.45065,3.255493,0.6191559,0.5518997,0.001384497,1.1506,-0.3017957,-0.07270873,0.8267714,0.1160605,0.1409294,-10.23056,34.39
3,0.01429749,-0.205719,0.9785004,1.0,-0.01145935,-0.230011,0.973114,-30.52896,1.615494,-36.2123,3.181473,0.4563791,0.6465595,1.0,0.04251099,-0.178772,0.9829559,29.13274,2.920944,-32.45065,3.255493,0.6191559,0.5518997,0.001384497,1.1506,-0.3017957,-0.07270873,0.8267714,0.1160605,0.1409294,-10.23056,34.39
3,0.01429749,-0.205719,0.9785004,1.0,-0.01145935,-0.230011,0.973114,-30.52896,1.615494,-36.2123,3.181473,0.4563791,0.6465595,1.0,0.04251099,-0.178772,0.9829559,29.13274,2.920944,-32.45065,3.255493,0.6191559,0.5518997,0.001786113,1.150495,-0.3015594,-0.0721799,0.8263205,0.1152042,0.1409294,-10.23056,34.39
3,0.01429749,-0.205719,0.9785004,1.0,-0.01145935,-0.230011,0.973114,-30.52896,1.615494,-36.2123,3.181473,0.4563791,0.6465595,1.0,0.04251099,-0.178772,0.9829559,29.13274,2.920944,-32.45065,3.255493,0.6191559,0.5518997,0.001786113,1.150495,-0.3015594,-0.0721799,0.8263205,0.1152042,0.1409294,-10.23056,34.39
3,0.006332397,-0.2059631,0.9785309,1.0,-0.01463318,-0.229248,0.9732513,-30.56415,1.629044,-36.21443,3.215668,0.4582236,0.6459726,1.0,0.02909851,-0.1804657,0.983139,29.11995,2.956863,-32.41991,3.271667,0.6219767,0.5506414,0.002223849,1.150217,-0.3013502,-0.07137456,0.8257291,0.1140474,0.1409294,-10.23056,34.39
3,0.006332397,-0.2059631,0.9785309,1.0,-0.01463318,-0.229248,0.9732513,-30.56415,1.629044,-36.21443,3.215668,0.4582236,0.6459726,1.0,0.02909851,-0.1804657,0.983139,29.11995,2.956863,-32.41991,3.271667,0.6219767,0.5506414,0.002223849,1.150217,-0.3013502,-0.07137456,0.8257291,0.1140474,0.1409294,-10.23056,34.39
3,0.007614136,-0.2015381,0.9794464,1.0,-0.01325989,-0.2272949,0.9737244,-30.56856,1.631973,-36.21182,3.222351,0.4581371,0.6454607,1.0,0.03105164,-0.1723633,0.9845428,29.12209,2.971268,-32.42244,3.290756,0.6215504,0.548647,0.002688527,1.149843,-0.3010241,-0.0703752,0.8251388,0.1124051,0.1409294,-15.39545,34.39
3,0.007614136,-0.2015381,0.9794464,1.0,-0.01325989,-0.2272949,0.9737244,-30.56856,1.631973,-36.21182,3.222351,0.4581371,0.6454607,1.0,0.03105164,-0.1723633,0.9845428,29.12209,2.971268,-32.42244,3.290756,0.6215504,0.548647,0.002688527,1.149843,-0.3010241,-0.0703752,0.8251388,0.1124051,0.1409294,-15.39545,34.39
3,0.007949829,-0.2003784,0.9796753,1.0,-0.01289368,-0.2258148,0.9740753,-30.57581,1.634811,-36.20956,3.226471,0.4583374,0.6450426,1.0,0.03048706,-0.1726227,0.9845123,29.12251,2.972229,-32.41949,3.32399,0.6216426,0.548647,0.003195405,1.149342,-0.3006448,-0.06869609,0.8242344,0.1099963,0.1409294,-15.39545,34.39
3,0.007949829,-0.2003784,0.9796753,1.0,-0.01289368,-0.2258148,0.9740753,-30.57581,1.634811,-36.20956,3.226471,0.4583374,0.6450426,1.0,0.03048706,-0.1726227,0.9845123,29.12251,2.972229,-32.41949,3.32399,0.6216426,0.548647,0.003195405,1.149342,-0.3006448,-0.06869609,0.8242344,0.1099963,0.1409294,-15.39545,34.39
3,0.00491333,-0.1963654,0.9805145,1.0,-0.01985168,-0.2208252,0.9750977,-30.59462,1.661621,-36.20468,3.292252,0.4602769,0.6430833,1.0,0.02906799,-0.172287,0.9846039,29.12279,2.97258,-32.42102,3.399109,0.6219088,0.5486077,0.00372541,1.148807,-0.3001814,-0.06676152,0.8230237,0.1074473,0.1409294,-15.39545,34.39
3,0.00491333,-0.1963654,0.9805145,1.0,-0.01985168,-0.2208252,0.9750977,-30.59462,1.661621,-36.20468,3.292252,0.4602769,0.6430833,1.0,0.02906799,-0.172287,0.9846039,29.12279,2.97258,-32.42102,3.399109,0.6219088,0.5486077,0.00372541,1.148807,-0.3001814,-0.06676152,0.8230237,0.1074473,0.1409294,-15.39545,34.39
3,-0.0006408691,-0.19104,0.9815674,1.0,-0.02453613,-0.2148438,0.9763336,-30.59998,1.727921,-36.19693,3.371826,0.461327,0.639482,1.0,0.0241394,-0.1660767,0.9858093,29.11523,3.042313,-32.45151,3.472702,0.623111,0.5453236,0.004342198,1.1482,-0.2995955,-0.06435126,0.8213579,0.1046467,0.1409294,-15.39545,34.39
3,-0.0006408691,-0.19104,0.9815674,1.0,-0.02453613,-0.2148438,0.9763336,-30.59998,1.727921,-36.19693,3.371826,0.461327,0.639482,1.0,0.0241394,-0.1660767,0.9858093,29.11523,3.042313,-32.45151,3.472702,0.623111,0.5453236,0.004342198,1.1482,-0.2995955,-0.06435126,0.8213579,0.1046467,0.1409294,-15.39545,34.39
3,-0.005279541,-0.1867828,0.9823761,1.0,-0.03050232,-0.2100525,0.9772034,-30.61795,1.720322,-36.19647,3.325165,0.4630607,0.6388201,1.0,0.02159119,-0.1617279,0.9865875,29.11183,3.043884,-32.43187,3.484634,0.6236594,0.5442693,0.005012512,1.147343,-0.2988305,-0.06103583,0.8191471,0.1005142,0.1409294,-15.39545,34.39
3,-0.005279541,-0.1867828,0.9823761,1.0,-0.03050232,-0.2100525,0.9772034,-30.61795,1.720322,-36.19647,3.325165,0.4630607,0.6388201,1.0,0.02159119,-0.1617279,0.9865875,29.11183,3.043884,-32.43187,3.484634,0.6236594,0.5442693,0.005012512,1.147343,-0.2988305,-0.06103583,0.8191471,0.1005142,0.1409294,-15.39545,34.39
3,0.03437805,-0.1839905,0.9823151,1.0,0.008239746,-0.2024536,0.979248,-30.30487,1.669983,-36.21141,3.393967,0.4447888,0.6392549,1.0,0.06797791,-0.1599121,0.9847717,29.38354,3.036041,-32.51988,3.526657,0.6058402,0.5451133,0.00571382,1.14623,-0.2978296,-0.05724662,0.8163067,0.09499522,0.1409294,-15.39545,34.39
3,0.03437805,-0.1839905,0.9823151,1.0,0.008239746,-0.2024536,0.979248,-30.30487,1.669983,-36.21141,3.393967,0.4447888,0.6392549,1.0,0.06797791,-0.1599121,0.9847717,29.38354,3.036041,-32.51988,3.526657,0.6058402,0.5451133,0.00571382,1.14623,-0.2978296,-0.05724662,0.8163067,0.09499522,0.1409294,-15.39545,34.39
3,0.1002808,-0.1809387,0.978363,0.9678118,0.07727051,-0.200592,0.9766083,-29.83188,1.674835,-36.2422,3.335114,0.4152364,0.6390199,0.9592835,0.1368713,-0.1491547,0.9792938,29.76605,3.107986,-32.54506,3.392853,0.5799388,0.5409868,0.006519079,1.145,-0.2965312,-0.05342498,0.8126682,0.08831211,0.1409294,-15.39545,34.39
3,0.1002808,-0.1809387,0.978363,0.9678118,0.07727051,-0.200592,0.9766083,-29.83188,1.674835,-36.2422,3.335114,0.4152364,0.6390199,0.9592835,0.1368713,-0.1491547,0.9792938,29.76605,3.107986,-32.54506,3.392853,0.5799388,0.5409868,0.006519079,1.145,-0.2965312,-0.05342498,0.8126682,0.08831211,0.1409294,-15.39545,34.39
3,0.2066345,-0.156189,0.9658661,0.9011077,0.1732635,-0.1792297,0.9684143,-29.31564,1.700851,-36.30565,3.433624,0.3790772,0.635178,0.9372295,0.2233887,-0.1444397,0.9639587,30.17769,3.150604,-32.58687,3.382324,0.5499129,0.539605,0.00716114,1.143663,-0.2951579,-0.04893611,0.808154,0.0808116,0.1409294,9.123991,34.39
3,0.2066345,-0.156189,0.9658661,0.9011077,0.1732635,-0.1792297,0.9684143,-29.31564,1.700851,-36.30565,3.433624,0.3790772,0.635178,0.9372295,0.2233887,-0.1444397,0.9639587,30.17769,3.150604,-32.58687,3.382324,0.5499129,0.539605,0.00716114,1.143663,-0.2951579,-0.04893611,0.808154,0.0808116,0.1409294,9.123991,34.39
3,0.1880493,-0.1492004,0.9707489,0.910538,0.1521912,-0.1710815,0.9734192,-29.41521,1.771317,-36.27655,3.445541,0.3866309,0.6305935,0.9348971,0.2064056,-0.1378021,0.9687042,30.16859,3.218491,-32.56154,3.430679,0.5532884,0.5356023,0.007969022,1.142278,-0.2936442,-0.04366535,0.8030022,0.0730005,0.1409294,9.123991,34.39
3,0.1880493,-0.1492004,0.9707489,0.910538,0.1521912,-0.1710815,0.9734192,-29.41521,1.771317,-36.27655,3.445541,0.3866309,0.6305935,0.9348971,0.2064056,-0.1378021,0.9687042,30.16859,3.218491,-32.56154,3.430679,0.5532884,0.5356023,0.007969022,1.142278,-0.2936442,-0.04366535,0.8030022,0.0730005,0.1409294,9.123991,34.39
3,0.1737366,-0.1453705,0.973999,0.9274131,0.1454773,-0.1725159,0.9741974,-29.4801,1.818878,-36.25949,3.467422,0.390249,0.6289338,0.9603503,0.19664,-0.1230316,0.9727173,30.12915,3.231339,-32.56149,3.405975,0.5563936,0.5323313,0.008715868,1.140751,-0.2920074,-0.03761985,0.7970915,0.06478819,0.1409294,9.123991,34.39
3,0.1737366,-0.1453705,0.973999,0.9274131,0.1454773,-0.1725159,0.9741974,-29.4801,1.818878,-36.25949,3.467422,0.390249,0.6289338,0.9603503,0.19664,-0.1230316,0.9727173,30.12915,3.231339,-32.56149,3.405975,0.5563936,0.5323313,0.008715868,1.140751,-0.2920074,-0.03761985,0.7970915,0.06478819,0.1409294,9.123991,34.39
3,0.1577454,-0.1112976,0.9811707,0.9350945,0.1345062,-0.1318207,0.9821014,-29.57399,1.91011,-36.23495,3.255173,0.3957401,0.6174408,0.9775315,0.1777802,-0.09341431,0.9796143,30.05646,3.288895,-32.56342,3.544418,0.5623939,0.5248188,0.009538531,1.139045,-0.2901851,-0.03147533,0.7907968,0.05628825,0.1409294,9.123991,34.39
3,0.1577454,-0.1112976,0.9811707,0.9350945,0.1345062,-0.1318207,0.9821014,-29.57399,1.91011,-36.23495,3.255173,0.3957401,0.6174408,0.9775315,0.1777802,-0.09341431,0.9796143,30.05646,3.288895,-32.56342,3.544418,0.5623939,0.5248188,0.009538531,1.139045,-0.2901851,-0.03147533,0.7907968,0.05628825,0.1409294,9.123991,34.39
3,0.1389313,-0.1030579,0.9849091,0.9439845,0.1101074,-0.1298218,0.9853973,-29.70946,2.031509,-36.18291,3.401352,0.4051926,0.612121,0.983443,0.1613922,-0.0819397,0.9834747,29.95045,3.4328,-32.60426,3.400269,0.5690224,0.5178947,0.0101372,1.137147,-0.2882733,-0.02505863,0.7839037,0.04714791,0.1409294,9.123991,34.39
3,0.1389313,-0.1030579,0.9849091,0.9439845,0.1101074,-0.1298218,0.9853973,-29.70946,2.031509,-36.18291,3.401352,0.4051926,0.612121,0.983443,0.1613922,-0.0819397,0.9834747,29.95045,3.4328,-32.60426,3.400269,0.5690224,0.5178947,0.0101372,1.137147,-0.2882733,-0.02505863,0.7839037,0.04714791,0.1409294,9.123991,34.39
3,0.1076202,-0.09625244,0.9895172,0.9366964,0.0967865,-0.1053009,0.9897156,-29.77232,2.042404,-36.14781,3.406265,0.4099397,0.606711,0.979889,0.1478271,-0.06237793,0.98703,29.87126,3.614929,-32.99617,3.445816,0.574594,0.5116441,0.01036775,1.136206,-0.2872945,-0.02169248,0.7803198,0.04219203,0.1409294,9.123991,34.39
3,0.07385254,-0.09457397,0.9927673,0.9614064,0.07385254,-0.09457397,0.9927673,-29.8573,2.248596,-36.47626,3.412979,0.417058,0.6007217,0.9892388,0.1092072,-0.06384277,0.9919586,29.98611,4.449951,-35.70911,3.391083,0.5797807,0.5082589,0.01064193,1.135244,-0.2862949,-0.01831848,0.7766427,0.03748066,0.1409294,9.123991,34.39
3,0.05915833,-0.09049988,0.9941254,0.9577617,0.05915833,-0.09049988,0.9941254,-29.96535,2.396164,-36.61807,3.340439,0.4235958,0.596082,0.9926993,0.116684,-0.04052734,0.9923401,29.70319,3.80809,-33.25671,3.520264,0.5864261,0.5032678,0.01116014,1.133335,-0.2842009,-0.01163773,0.7691007,0.02809925,0.1409294,9.123991,34.39
3,0.05915833,-0.09049988,0.9941254,0.9577617,0.05915833,-0.09049988,0.9941254,-29.96535,2.396164,-36.61807,3.340439,0.4235958,0.596082,0.9926993,0.116684,-0.04052734,0.9923401,29.70319,3.80809,-33.25671,3.520264,0.5864261,0.5032678,0.01116014,1.133335,-0.2842009,-0.01163773,0.7691007,0.02809925,0.1409294,9.123991,34.39
3,0.04846191,-0.07513428,0.9959869,1.0,0.04846191,-0.07513428,0.9959869,-30.04163,2.55751,-36.77533,3.363937,0.4282886,0.5890794,1.0,0.1032104,-0.022995,0.9943848,29.55663,3.656387,-32.44931,3.416183,0.59322,0.4976481,0.01145065,1.132395,-0.2831213,-0.00843611,0.7651099,0.0236281,0.1409294,9.123991,34.39
3,0.02876282,-0.06655884,0.9973602,1.0,0.02876282,-0.06655884,0.9973602,-30.10248,2.676804,-36.94316,3.30278,0.4340343,0.5849044,1.0,0.09350586,-0.01322937,0.9955292,29.52254,3.784271,-32.70482,3.532211,0.5964752,0.4938544,0.01204813,1.130602,-0.2811775,-0.001664817,0.7569844,0.01522115,0.1409294,2.788542,34.39
3,0.02876282,-0.06655884,0.9973602,1.0,0.02876282,-0.06655884,0.9973602,-30.10248,2.676804,-36.94316,3.30278,0.4340343,0.5849044,1.0,0.09350586,-0.01322937,0.9955292,29.52254,3.784271,-32.70482,3.532211,0.5964752,0.4938544,0.01204813,1.130602,-0.2811775,-0.001664817,0.7569844,0.01522115,0.1409294,2.788542,34.39
3,0.02510071,-0.05783081,0.9980011,1.0,0.02510071,-0.05783081,0.9980011,-30.15012,2.653961,-36.72508,3.310425,0.4365025,0.5818457,1.0,0.07810974,-0.01507568,0.9968262,29.52405,4.065079,-33.38763,3.518661,0.5998924,0.4906931,0.01276982,1.128797,-0.2791866,0.004949496,0.7488735,0.007073761,0.1409294,2.788542,34.39
3,0.02510071,-0.05783081,0.9980011,1.0,0.02510071,-0.05783081,0.9980011,-30.15012,2.653961,-36.72508,3.310425,0.4365025,0.5818457,1.0,0.07810974,-0.01507568,0.9968262,29.52405,4.065079,-33.38763,3.518661,0.5998924,0.4906931,0.01276982,1.128797,-0.2791866,0.004949496,0.7488735,0.007073761,0.1409294,2.788542,34.39
3,0.02510071,-0.05783081,0.9980011,1.0,0.02510071,-0.05783081,0.9980011,-30.15012,2.653961,-36.72508,3.310425,0.4365025,0.5818457,1.0,0.07810974,-0.01507568,0.9968262,29.52405,4.065079,-33.38763,3.518661,0.5998924,0.4906931,0.01297748,1.127925,-0.2781982,0.008246299,0.7449594,0.003281172,0.1409294,2.788542,34.39
3,0.02510071,-0.05783081,0.9980011,1.0,0.02510071,-0.05783081,0.9980011,-30.15012,2.653961,-36.72508,3.310425,0.4365025,0.5818457,1.0,0.07810974,-0.01507568,0.9968262,29.52405,4.065079,-33.38763,3.518661,0.5998924,0.4906931,0.01328945,1.127069,-0.2771914,0.01123279,0.7411646,-0.0002589503,0.1409294,2.788542,34.39
3,0.02510071,-0.05783081,0.9980011,1.0,0.02510071,-0.05783081,0.9980011,-30.15012,2.653961,-36.72508,3.310425,0.4365025,0.5818457,1.0,0.07810974,-0.01507568,0.9968262,29.52405,4.065079,-33.38763,3.518661,0.5998924,0.4906931,0.01328945,1.127069,-0.2771914,0.01123279,0.7411646,-0.0002589503,0.1409294,2.788542,34.39
3,0.01524353,-0.05285645,0.9984741,1.0,0.01524353,-0.05285645,0.9984741,-30.23567,2.695618,-36.68124,3.362198,0.4413989,0.5790315,1.0,0.074646,0.008483887,0.9971619,29.31743,3.785248,-32.27266,3.589371,0.6067069,0.485857,0.0138216,1.125388,-0.2752193,0.01714078,0.7334959,-0.007224872,0.1409294,2.788542,34.39
3,0.01353455,-0.04188538,0.9990234,1.0,0.01353455,-0.04188538,0.9990234,-30.2477,2.75061,-36.72427,3.391846,0.4421554,0.5755143,1.0,0.07128906,0.01716614,0.9972992,29.19897,3.767639,-32.10345,3.653976,0.6113487,0.4833795,0.0145582,1.123848,-0.2733116,0.02266156,0.7257832,-0.01391307,0.1383671,2.788542,34.39
3,0.01353455,-0.04188538,0.9990234,1.0,0.01353455,-0.04188538,0.9990234,-30.2477,2.75061,-36.72427,3.391846,0.4421554,0.5755143,1.0,0.07128906,0.01716614,0.9972992,29.19897,3.767639,-32.10345,3.653976,0.6113487,0.4833795,0.0145582,1.123848,-0.2733116,0.02266156,0.7257832,-0.01391307,0.1383671,2.788542,34.39
3,0.03790283,-0.0760498,0.9963684,1.0,0.03790283,-0.0760498,0.9963684,-30.06425,2.62886,-36.76326,3.347321,0.4310421,0.5865495,1.0,0.08854675,-0.0322113,0.9955444,29.42561,4.068649,-33.55031,3.495377,0.6017109,0.4952411,0.01491416,1.123105,-0.2723629,0.02533275,0.722064,-0.01703089,0.1383671,2.788542,34.39
3,0.03790283,-0.0760498,0.9963684,1.0,0.03790283,-0.0760498,0.9963684,-30.06425,2.62886,-36.76326,3.347321,0.4310421,0.5865495,1.0,0.08854675,-0.0322113,0.9955444,29.42561,4.068649,-33.55031,3.495377,0.6017109,0.4952411,0.01491416,1.123105,-0.2723629,0.02533275,0.722064,-0.01703089,0.1383671,2.788542,34.39
3,0.0521698,-0.1101227,0.9925385,1.0,0.0521698,-0.1101379,0.9925385,-30.07332,2.673767,-37.19354,3.348114,0.428569,0.595867,1.0,0.09831238,-0.05233765,0.9937744,29.33348,3.626389,-32.4157,3.506363,0.6020513,0.5037392,0.01572955,1.121808,-0.2703805,0.03025645,0.7148274,-0.02249243,0.1383671,2.788542,34.39
3,0.02313232,-0.08210754,0.9963531,1.0,0.0229187,-0.08224487,0.9963379,-30.2746,2.629974,-36.75523,3.279282,0.4413352,0.5875847,1.0,0.076828,-0.04666138,0.9959412,29.26237,3.806259,-32.77039,3.613632,0.6088532,0.4997662,0.01603055,1.121181,-0.2694498,0.03270653,0.7113678,-0.02483958,0.1383671,2.788542,34.39
3,0.02313232,-0.08210754,0.9963531,1.0,0.0229187,-0.08224487,0.9963379,-30.2746,2.629974,-36.75523,3.279282,0.4413352,0.5875847,1.0,0.076828,-0.04666138,0.9959412,29.26237,3.806259,-32.77039,3.613632,0.6088532,0.4997662,0.01603055,1.121181,-0.2694498,0.03270653,0.7113678,-0.02483958,0.1383671,2.788542,34.39
3,0.009658813,-0.06600952,0.997757,1.0,0.0050354,-0.06959534,0.9975586,-30.34851,2.749313,-36.96092,3.392288,0.4472222,0.5831779,1.0,0.06135559,-0.02568054,0.9977722,29.21402,3.84874,-32.80579,3.49675,0.6133238,0.4946962,0.01680505,1.119958,-0.2676234,0.03745242,0.7045532,-0.02905261,0.1383671,6.625785,34.39
3,0.009658813,-0.06600952,0.997757,1.0,0.0050354,-0.06959534,0.9975586,-30.34851,2.749313,-36.96092,3.392288,0.4472222,0.5831779,1.0,0.06135559,-0.02568054,0.9977722,29.21402,3.84874,-32.80579,3.49675,0.6133238,0.4946962,0.01680505,1.119958,-0.2676234,0.03745242,0.7045532,-0.02905261,0.1383671,6.625785,34.39
3,0.02882385,-0.03103638,0.9990997,1.0,0.0007781982,-0.06216431,0.9980621,-30.4272,2.750565,-36.81718,3.333206,0.4508802,0.5802367,1.0,0.04756165,-0.01019287,0.9988098,29.15753,3.754318,-32.4525,3.54512,0.6174042,0.491904,0.01744211,1.118969,-0.2658684,0.04170171,0.6977969,-0.03238742,0.1383671,6.625785,34.39
3,-0.012146,-0.05635071,0.9983215,1.0,-0.01496887,-0.06002808,0.9980774,-30.52704,2.882828,-36.96381,3.360062,0.45733,0.5766765,1.0,0.02955627,-0.001754761,0.9995575,29.05055,3.919769,-32.82034,3.568817,0.6249083,0.4880163,0.01824582,1.118158,-0.2641515,0.04503402,0.6914263,-0.03473732,0.1383671,6.625785,34.39
3,-0.012146,-0.05635071,0.9983215,1.0,-0.01496887,-0.06002808,0.9980774,-30.52704,2.882828,-36.96381,3.360062,0.45733,0.5766765,1.0,0.02955627,-0.001754761,0.9995575,29.05055,3.919769,-32.82034,3.568817,0.6249083,0.4880163,0.01824582,1.118158,-0.2641515,0.04503402,0.6914263,-0.03473732,0.1383671,6.625785,34.39
3,-0.02810669,-0.04351807,0.998642,1.0,-0.03033447,-0.04641724,0.9984589,-30.57739,2.833847,-36.73145,3.525574,0.4619424,0.5736833,1.0,0.01315308,0.01022339,0.9998474,28.9994,3.887924,-32.62888,3.632248,0.6294659,0.4852178,0.01859641,1.117812,-0.2633227,0.04656946,0.6883709,-0.03565122,0.1383671,6.625785,34.39
3,-0.02810669,-0.04351807,0.998642,1.0,-0.03033447,-0.04641724,0.9984589,-30.57739,2.833847,-36.73145,3.525574,0.4619424,0.5736833,1.0,0.01315308,0.01022339,0.9998474,28.9994,3.887924,-32.62888,3.632248,0.6294659,0.4852178,0.01859641,1.117812,-0.2633227,0.04656946,0.6883709,-0.03565122,0.1383671,6.625785,34.39
3,-0.03479004,-0.03923035,0.9986115,1.0,-0.03930664,-0.04568481,0.9981689,-30.6646,2.926117,-36.93614,3.525131,0.4667014,0.5723961,1.0,0.004043579,0.01620483,0.9998474,28.92101,3.869232,-32.54643,3.66391,0.6338081,0.4840494,0.01928985,1.117158,-0.2617394,0.04956288,0.6823142,-0.03705724,0.1383671,6.625785,34.39
4,-0.01945496,-0.008346558,0.9997711,1.0,-0.0463562,-0.04116821,0.9980621,-30.76057,2.921692,-36.83775,3.515396,0.4714433,0.570734,1.0,0.002670288,0.01861572,0.9998169,28.86295,3.868408,-32.55057,3.765533,0.6361713,0.4837643,0.01968372,1.116911,-0.2608238,0.0510818,0.6795215,-0.03753648,0.1383671,6.625785,34.39
4,-0.01945496,-0.008346558,0.9997711,1.0,-0.0463562,-0.04116821,0.9980621,-30.76057,2.921692,-36.83775,3.515396,0.4714433,0.570734,1.0,0.002670288,0.01861572,0.9998169,28.86295,3.868408,-32.55057,3.765533,0.6361713,0.4837643,0.01968372,1.116911,-0.2608238,0.0510818,0.6795215,-0.03753648,0.1383671,6.625785,34.39
4,-0.05314636,-0.02459717,0.9982758,1.0,-0.0587616,-0.03282166,0.9977264,-30.80402,2.915955,-36.76552,3.504898,0.4752602,0.5687053,1.0,-0.01220703,0.03518677,0.9992981,28.79732,3.693436,-31.97195,3.615631,0.6403503,0.4814406,0.02034795,1.116329,-0.2592882,0.05382505,0.6741152,-0.03807469,0.1383671,6.625785,34.39
4,-0.06515503,-0.03106689,0.9973755,1.0,-0.06518555,-0.03111267,0.9973755,-30.8743,2.961472,-36.87103,3.466217,0.4789688,0.5678491,1.0,-0.01472473,0.03765869,0.999176,28.7142,3.618134,-31.78424,3.707047,0.64351,0.4819652,0.02069533,1.116059,-0.2585702,0.05513499,0.6716712,-0.03807772,0.1383671,6.625785,34.39
4,-0.0418396,-0.05831909,0.997406,1.0,-0.04214478,-0.05870056,0.9973755,-30.66974,2.605484,-36.38367,3.535065,0.4673604,0.5805932,1.0,0.003219604,-0.00163269,0.9999847,28.82281,3.609329,-32.39597,3.769867,0.6372479,0.4950676,0.02124798,1.115687,-0.2572179,0.05769343,0.6671681,-0.03814302,0.1383671,6.625785,34.39
4,-0.0418396,-0.05831909,0.997406,1.0,-0.04214478,-0.05870056,0.9973755,-30.66974,2.605484,-36.38367,3.535065,0.4673604,0.5805932,1.0,0.003219604,-0.00163269,0.9999847,28.82281,3.609329,-32.39597,3.769867,0.6372479,0.4950676,0.02124798,1.115687,-0.2572179,0.05769343,0.6671681,-0.03814302,0.1383671,6.625785,34.39
4,-0.02000427,-0.1088104,0.9938507,1.0,-0.02012634,-0.108902,0.9938354,-30.53427,2.531387,-36.9337,3.638626,0.4583563,0.5983418,1.0,0.0304718,-0.07115173,0.996994,28.87854,3.522202,-32.81627,3.727997,0.6309338,0.5146736,0.02172291,1.11529,-0.255957,0.06037157,0.6631513,-0.0383799,0.1383671,6.625785,34.39
4,-0.02000427,-0.1088104,0.9938507,1.0,-0.02012634,-0.108902,0.9938354,-30.53427,2.531387,-36.9337,3.638626,0.4583563,0.5983418,1.0,0.0304718,-0.07115173,0.996994,28.87854,3.522202,-32.81627,3.727997,0.6309338,0.5146736,0.02172291,1.11529,-0.255957,0.06037157,0.6631513,-0.0383799,0.1383671,6.625785,34.39
4,-0.01841736,-0.118576,0.9927673,1.0,-0.01843262,-0.1185913,0.9927673,-30.57254,2.431412,-36.91328,3.467575,0.4594195,0.6034507,1.0,0.02983093,-0.07862854,0.9964447,28.88408,3.402603,-32.69376,3.837219,0.6307309,0.519132,0.0219003,1.115055,-0.2552924,0.06149794,0.6612438,-0.03840009,0.1383671,-0.4268284,34.39
4,-0.0308075,-0.1110992,0.9933167,1.0,-0.03227234,-0.1123047,0.9931488,-30.65866,2.345932,-36.69327,3.5345,0.465032,0.6030995,1.0,0.01156616,-0.0763855,0.9970093,28.86263,3.396194,-32.66895,3.808487,0.634709,0.5186847,0.02224815,1.114668,-0.2541528,0.06390507,0.657545,-0.03882585,0.1383671,-0.4268284,34.39
4,-0.0308075,-0.1110992,0.9933167,1.0,-0.03227234,-0.1123047,0.9931488,-30.65866,2.345932,-36.69327,3.5345,0.465032,0.6030995,1.0,0.01156616,-0.0763855,0.9970093,28.86263,3.396194,-32.66895,3.808487,0.634709,0.5186847,0.02224815,1.114668,-0.2541528,0.06390507,0.657545,-0.03882585,0.1383671,-0.4268284,34.39
4,0.006103516,-0.0753479,0.9971313,1.0,-0.03713989,-0.1077423,0.9934692,-30.72107,2.308136,-36.56555,3.575592,0.4681615,0.6023055,1.0,0.008804321,-0.07333374,0.9972534,28.84085,3.365799,-32.58575,3.752594,0.6358457,0.5183719,0.02242315,1.114323,-0.2530228,0.06614555,0.6543432,-0.03923398,0.1383671,-0.4268284,34.39
4,0.006103516,-0.0753479,0.9971313,1.0,-0.03713989,-0.1077423,0.9934692,-30.72107,2.308136,-36.56555,3.575592,0.4681615,0.6023055,1.0,0.008804321,-0.07333374,0.9972534,28.84085,3.365799,-32.58575,3.752594,0.6358457,0.5183719,0.02242315,1.114323,-0.2530228,0.06614555,0.6543432,-0.03923398,0.1383671,-0.4268284,34.39
4,-0.001678467,-0.0652771,0.9978638,1.0,-0.04492188,-0.1022339,0.9937439,-30.76649,2.327713,-36.58374,3.574432,0.4712079,0.6007946,1.0,0.0006256104,-0.06329346,0.9979858,28.81882,3.370102,-32.6071,3.823593,0.6381409,0.5166473,0.02242315,1.114323,-0.2530228,0.06614555,0.6543432,-0.03923398,0.1383671,-0.4268284,34.39
4,-0.0177002,-0.0809021,0.9965515,1.0,-0.0504303,-0.102005,0.9934998,-30.78641,2.358475,-36.69164,3.623642,0.4729102,0.6008484,1.0,-0.003723145,-0.07185364,0.997406,28.80673,3.416107,-32.76772,3.807556,0.6395745,0.5181219,0.02267933,1.11387,-0.2519873,0.0681254,0.6514947,-0.03990953,0.1383671,-0.4268284,34.39
4,-0.0177002,-0.0809021,0.9965515,1.0,-0.0504303,-0.102005,0.9934998,-30.78641,2.358475,-36.69164,3.623642,0.4729102,0.6008484,1.0,-0.003723145,-0.07185364,0.997406,28.80673,3.416107,-32.76772,3.807556,0.6395745,0.5181219,0.02267933,1.11387,-0.2519873,0.0681254,0.6514947,-0.03990953,0.1383671,-0.4268284,34.39
4,-0.0177002,-0.0809021,0.9965515,1.0,-0.0504303,-0.102005,0.9934998,-30.78641,2.358475,-36.69164,3.623642,0.4729102,0.6008484,1.0,-0.003723145,-0.07185364,0.997406,28.80673,3.416107,-32.76772,3.807556,0.6395745,0.5181219,0.02267933,1.11387,-0.2519873,0.0681254,0.6514947,-0.03990953,0.1383671,-0.4268284,34.39
4,-0.04640198,-0.08633423,0.9951782,1.0,-0.06044006,-0.09689331,0.993454,-30.84886,2.330505,-36.5247,3.559067,0.4769742,0.5991322,1.0,-0.01309204,-0.06121826,0.9980316,28.79469,3.425629,-32.84476,3.866241,0.6418025,0.5166382,0.02284479,1.11344,-0.2510421,0.07002943,0.648719,-0.04072285,0.1383671,-0.4268284,34.39
4,-0.04640198,-0.08633423,0.9951782,1.0,-0.06044006,-0.09689331,0.993454,-30.84886,2.330505,-36.5247,3.559067,0.4769742,0.5991322,1.0,-0.01309204,-0.06121826,0.9980316,28.79469,3.425629,-32.84476,3.866241,0.6418025,0.5166382,0.02284479,1.11344,-0.2510421,0.07002943,0.648719,-0.04072285,0.1383671,-0.4268284,34.39
4,-0.03585815,-0.07797241,0.9963074,1.0,-0.06158447,-0.1027374,0.9927979,-30.87193,2.43924,-36.78142,3.619965,0.4780129,0.599079,1.0,-0.016922,-0.05970764,0.9980621,28.79146,3.423782,-32.84476,3.858047,0.6425995,0.5164244,0.02301919,1.113096,-0.249933,0.07157912,0.6460353,-0.04157906,0.1383671,-0.4268284,34.39
4,-0.03494263,-0.04980469,0.9981384,1.0,-0.06764221,-0.09617615,0.9930573,-30.86923,2.466537,-36.7955,3.538513,0.4790398,0.5969802,1.0,-0.0282135,-0.04025269,0.9987793,28.77924,3.29184,-32.50829,3.827637,0.6445702,0.5143245,0.02303541,1.112816,-0.2488724,0.07277935,0.6429871,-0.04236763,0.1383671,-0.4268284,34.39
4,-0.03494263,-0.04980469,0.9981384,1.0,-0.06764221,-0.09617615,0.9930573,-30.86923,2.466537,-36.7955,3.538513,0.4790398,0.5969802,1.0,-0.0282135,-0.04025269,0.9987793,28.77924,3.29184,-32.50829,3.827637,0.6445702,0.5143245,0.02303541,1.112816,-0.2488724,0.07277935,0.6429871,-0.04236763,0.1383671,-0.4268284,34.39
4,-0.0526886,-0.0763855,0.9956818,1.0,-0.07356262,-0.100708,0.9921875,-30.87938,2.507172,-36.83861,3.593155,0.4804603,0.5968834,1.0,-0.02674866,-0.0461731,0.9985657,28.77844,3.305557,-32.55473,3.920944,0.6444256,0.515412,0.0231415,1.11259,-0.2476805,0.0735368,0.6394956,-0.04313282,0.1383671,-0.4268284,34.39
4,-0.0526886,-0.0763855,0.9956818,1.0,-0.07356262,-0.100708,0.9921875,-30.87938,2.507172,-36.83861,3.593155,0.4804603,0.5968834,1.0,-0.02674866,-0.0461731,0.9985657,28.77844,3.305557,-32.55473,3.920944,0.6444256,0.515412,0.0231415,1.11259,-0.2476805,0.0735368,0.6394956,-0.04313282,0.1383671,-0.4268284,34.39
4,-0.06745911,-0.0945282,0.9932251,1.0,-0.07400513,-0.1057281,0.9916229,-30.89235,2.562393,-36.9608,3.708008,0.4809901,0.5972078,1.0,-0.03852844,-0.04516602,0.99823,28.77316,3.31073,-32.58464,3.901657,0.6467596,0.515344,0.02311432,1.112392,-0.2464782,0.07409351,0.6356486,-0.04360021,0.1383671,-6.802634,34.39
4,-0.06745911,-0.0945282,0.9932251,1.0,-0.07400513,-0.1057281,0.9916229,-30.89235,2.562393,-36.9608,3.708008,0.4809901,0.5972078,1.0,-0.03852844,-0.04516602,0.99823,28.77316,3.31073,-32.58464,3.901657,0.6467596,0.515344,0.02311432,1.112392,-0.2464782,0.07409351,0.6356486,-0.04360021,0.1383671,-6.802634,34.39
4,-0.0771637,-0.0867157,0.9932251,1.0,-0.08207703,-0.09547424,0.9920349,-30.89294,2.546677,-36.86763,3.672226,0.4824801,0.5948969,1.0,-0.05116272,-0.04043579,0.9978638,28.76372,3.163193,-32.12468,4.057953,0.6487236,0.5153826,0.02305388,1.112288,-0.2451912,0.07431902,0.6314236,-0.04386496,0.1383671,-6.802634,34.39
4,-0.08422852,-0.09484863,0.9919128,1.0,-0.08840942,-0.09941101,0.9911041,-30.78822,2.543121,-36.84836,3.747849,0.4798127,0.5956113,1.0,-0.03674316,-0.04292297,0.9983978,28.88988,3.324524,-32.80315,4.007492,0.6425713,0.5166252,0.02294505,1.112251,-0.2437291,0.07412554,0.6261502,-0.04377817,0.1383671,-6.802634,34.39
4,-0.08422852,-0.09484863,0.9919128,1.0,-0.08840942,-0.09941101,0.9911041,-30.78822,2.543121,-36.84836,3.747849,0.4798127,0.5956113,1.0,-0.03674316,-0.04292297,0.9983978,28.88988,3.324524,-32.80315,4.007492,0.6425713,0.5166252,0.02294505,1.112251,-0.2437291,0.07412554,0.6261502,-0.04377817,0.1383671,-6.802634,34.39
4,-0.04924011,-0.1102905,0.9926758,1.0,-0.04949951,-0.1104889,0.99263,-30.57193,2.426651,-36.59378,3.738998,0.4649948,0.5989773,1.0,0.008575439,-0.06524658,0.997818,29.13861,3.60611,-33.64063,3.977356,0.6266338,0.5187543,0.02291405,1.112258,-0.2420892,0.07357099,0.6195449,-0.04373159,0.1383671,-6.802634,34.39
4,-0.04924011,-0.1102905,0.9926758,1.0,-0.04949951,-0.1104889,0.99263,-30.57193,2.426651,-36.59378,3.738998,0.4649948,0.5989773,1.0,0.008575439,-0.06524658,0.997818,29.13861,3.60611,-33.64063,3.977356,0.6266338,0.5187543,0.02291405,1.112258,-0.2420892,0.07357099,0.6195449,-0.04373159,0.1383671,-6.802634,34.39
4,0.06460571,-0.1244659,0.9901123,0.8959299,0.06460571,-0.1244659,0.9901123,-29.74983,2.311905,-36.72748,3.892868,0.414717,0.6069924,0.9977654,0.1118317,-0.08927917,0.9897003,29.79749,3.597168,-34.09914,3.938171,0.5849078,0.5280653,0.02281082,1.112264,-0.240217,0.07307104,0.6122358,-0.04344923,0.1383671,-6.802634,34.39
4,0.06460571,-0.1244659,0.9901123,0.8959299,0.06460571,-0.1244659,0.9901123,-29.74983,2.311905,-36.72748,3.892868,0.414717,0.6069924,0.9977654,0.1118317,-0.08927917,0.9897003,29.79749,3.597168,-34.09914,3.938171,0.5849078,0.5280653,0.02281082,1.112264,-0.240217,0.07307104,0.6122358,-0.04344923,0.1383671,-6.802634,34.39
4,0.1646729,-0.1685638,0.9718323,0.8789027,0.1646729,-0.1685638,0.9718323,-29.15788,2.20253,-36.89885,3.905289,0.3747599,0.6215155,0.9860698,0.2216492,-0.124115,0.9671783,30.20667,3.097046,-32.99042,3.884064,0.5497546,0.5419189,0.02265537,1.112391,-0.2383418,0.0724268,0.6039796,-0.04286963,0.1383671,-6.802634,34.39
4,0.1646729,-0.1685638,0.9718323,0.8789027,0.1646729,-0.1685638,0.9718323,-29.15788,2.20253,-36.89885,3.905289,0.3747599,0.6215155,0.9860698,0.2216492,-0.124115,0.9671783,30.20667,3.097046,-32.99042,3.884064,0.5497546,0.5419189,0.02265537,1.112391,-0.2383418,0.0724268,0.6039796,-0.04286963,0.1383671,-6.802634,34.39
4,0.2181244,-0.1793518,0.9592896,0.8897437,0.2181244,-0.1793518,0.9592896,-28.83739,2.105728,-36.98943,3.897934,0.3529885,0.6285726,0.9737058,0.2796478,-0.1509857,0.9481506,30.4801,2.998215,-33.09099,3.922348,0.5297427,0.5520109,0.02246785,1.112545,-0.2361276,0.07169732,0.5941749,-0.04204122,0.1383671,-6.802634,34.39
4,0.2181244,-0.1793518,0.9592896,0.8897437,0.2181244,-0.1793518,0.9592896,-28.83739,2.105728,-36.98943,3.897934,0.3529885,0.6285726,0.9737058,0.2796478,-0.1509857,0.9481506,30.4801,2.998215,-33.09099,3.922348,0.5297427,0.5520109,0.02246785,1.112545,-0.2361276,0.07169732,0.5941749,-0.04204122,0.1383671,-6.802634,34.39
4,0.2064362,-0.1845551,0.9608917,0.8848364,0.2064056,-0.1845703,0.9608917,-28.85786,2.075134,-36.9803,3.993759,0.3559126,0.6305192,0.9746792,0.2719269,-0.1604156,0.9488373,30.55408,2.95195,-33.1026,3.857056,0.52844,0.5553796,0.02216399,1.112657,-0.2338209,0.07111824,0.5831724,-0.04114268,0.1383671,-6.802634,34.39
4,0.2064362,-0.1845551,0.9608917,0.8848364,0.2064056,-0.1845703,0.9608917,-28.85786,2.075134,-36.9803,3.993759,0.3559126,0.6305192,0.9746792,0.2719269,-0.1604156,0.9488373,30.55408,2.95195,-33.1026,3.857056,0.52844,0.5553796,0.02216399,1.112657,-0.2338209,0.07111824,0.5831724,-0.04114268,0.1383671,-6.802634,34.39
4,0.2145538,-0.1786346,0.9602203,0.8846079,0.1826019,-0.1958618,0.9634705,-28.97934,2.062775,-36.95576,3.931931,0.3647286,0.6326327,0.9803032,0.251358,-0.1583099,0.9548492,30.46045,2.919907,-33.08252,3.922867,0.535498,0.5557175,0.02188373,1.112764,-0.2315207,0.07054328,0.5724058,-0.04037973,0.1383671,17.07241,34.39
4,0.2145538,-0.1786346,0.9602203,0.8846079,0.1826019,-0.1958618,0.9634705,-28.97934,2.062775,-36.95576,3.931931,0.3647286,0.6326327,0.9803032,0.251358,-0.1583099,0.9548492,30.46045,2.919907,-33.08252,3.922867,0.535498,0.5557175,0.02188373,1.112764,-0.2315207,0.07054328,0.5724058,-0.04037973,0.1383671,17.07241,34.39
4,0.2091675,-0.1759644,0.9618988,0.8979245,0.1760406,-0.2015533,0.9635162,-29.13271,2.103271,-36.91994,3.981262,0.3716195,0.6318466,0.9830526,0.2366943,-0.1542511,0.959259,30.37569,2.922607,-33.06314,3.87085,0.5410895,0.5545057,0.02157784,1.112814,-0.2291834,0.0696767,0.5609237,-0.0395698,0.1383671,17.07241,34.39
4,0.2091675,-0.1759644,0.9618988,0.8979245,0.1760406,-0.2015533,0.9635162,-29.13271,2.103271,-36.91994,3.981262,0.3716195,0.6318466,0.9830526,0.2366943,-0.1542511,0.959259,30.37569,2.922607,-33.06314,3.87085,0.5410895,0.5545057,0.02157784,1.112814,-0.2291834,0.0696767,0.5609237,-0.0395698,0.1383671,17.07241,34.39
4,0.1809998,-0.171051,0.9684906,1.0,0.1562805,-0.2004395,0.9671478,-29.25952,2.103226,-36.90057,4.035507,0.3799058,0.6312954,1.0,0.2019348,-0.1457214,0.9684906,30.29767,2.92627,-33.037,3.896164,0.5500615,0.5522251,0.02120078,1.11291,-0.2267128,0.06871051,0.5485756,-0.03915813,0.1383671,17.07241,34.39
4,0.1809998,-0.171051,0.9684906,1.0,0.1562805,-0.2004395,0.9671478,-29.25952,2.103226,-36.90057,4.035507,0.3799058,0.6312954,1.0,0.2019348,-0.1457214,0.9684906,30.29767,2.92627,-33.037,3.896164,0.5500615,0.5522251,0.02120078,1.11291,-0.2267128,0.06871051,0.5485756,-0.03915813,0.1383671,17.07241,34.39
4,0.1661377,-0.1746674,0.9705048,1.0,0.1435852,-0.2033539,0.9685059,-29.34198,2.093384,-36.89482,3.984116,0.3852106,0.632059,1.0,0.1877441,-0.1467133,0.9711914,30.24475,2.922897,-33.02644,3.885239,0.5544614,0.5523038,0.02077055,1.112985,-0.2242202,0.06784359,0.5353916,-0.03883688,0.1383671,17.07241,34.39
4,0.1407471,-0.1771088,0.9740601,1.0,0.1135712,-0.2001343,0.9731598,-29.48123,2.084442,-36.87776,4.018814,0.3957668,0.6314275,1.0,0.1660767,-0.1552887,0.9738007,30.10699,2.929489,-32.99561,3.945908,0.5632565,0.5532398,0.02021468,1.112937,-0.2217003,0.06722462,0.5219148,-0.03822555,0.1383671,17.07241,34.39
4,0.1407471,-0.1771088,0.9740601,1.0,0.1135712,-0.2001343,0.9731598,-29.48123,2.084442,-36.87776,4.018814,0.3957668,0.6314275,1.0,0.1660767,-0.1552887,0.9738007,30.10699,2.929489,-32.99561,3.945908,0.5632565,0.5532398,0.02021468,1.112937,-0.2217003,0.06722462,0.5219148,-0.03822555,0.1383671,17.07241,34.39
4,0.1407471,-0.1771088,0.9740601,1.0,0.1135712,-0.2001343,0.9731598,-29.48123,2.084442,-36.87776,4.018814,0.3957668,0.6314275,1.0,0.1660767,-0.1552887,0.9738007,30.10699,2.929489,-32.99561,3.945908,0.5632565,0.5532398,0.02021468,1.112937,-0.2217003,0.06722462,0.5219148,-0.03822555,0.1383671,17.07241,34.39
4,0.1099396,-0.1757813,0.9782562,0.8204221,0.08638,-0.1993561,0.9761047,-29.66321,2.113907,-36.84866,3.936096,0.4073431,0.629754,0.9972318,0.131134,-0.1542969,0.9792786,29.9696,2.91008,-32.98763,3.997177,0.5743719,0.5534915,0.019593,1.112895,-0.2190825,0.06682104,0.5075834,-0.03762331,0.1383671,17.07241,34.39
4,0.1099396,-0.1757813,0.9782562,0.8204221,0.08638,-0.1993561,0.9761047,-29.66321,2.113907,-36.84866,3.936096,0.4073431,0.629754,0.9972318,0.131134,-0.1542969,0.9792786,29.9696,2.91008,-32.98763,3.997177,0.5743719,0.5534915,0.019593,1.112895,-0.2190825,0.06682104,0.5075834,-0.03762331,0.1383671,17.07241,34.39
4,0.08314514,-0.1765137,0.9807739,1.0,0.05641174,-0.2002869,0.9781036,-29.79175,2.114548,-36.81804,3.94133,0.4174384,0.6295173,1.0,0.1074524,-0.1546326,0.9821014,29.84987,2.899658,-33.00163,4.097824,0.5829028,0.5540165,0.01901305,1.112795,-0.216414,0.06694185,0.4925319,-0.03696393,0.1383671,17.07241,34.39
4,0.08314514,-0.1765137,0.9807739,1.0,0.05641174,-0.2002869,0.9781036,-29.79175,2.114548,-36.81804,3.94133,0.4174384,0.6295173,1.0,0.1074524,-0.1546326,0.9821014,29.84987,2.899658,-33.00163,4.097824,0.5829028,0.5540165,0.01901305,1.112795,-0.216414,0.06694185,0.4925319,-0.03696393,0.1383671,17.07241,34.39
4,0.06486511,-0.1786652,0.9817657,0.81508,0.04107666,-0.2010193,0.978714,-29.90202,2.097992,-36.81932,3.851608,0.4241965,0.6302327,0.9931945,0.08583069,-0.1587219,0.9835815,29.7417,2.880661,-33.01724,4.100861,0.5906124,0.5555506,0.01832891,1.112616,-0.2137017,0.06742691,0.4777714,-0.03658221,0.1383671,17.07241,34.39
4,0.06486511,-0.1786652,0.9817657,0.81508,0.04107666,-0.2010193,0.978714,-29.90202,2.097992,-36.81932,3.851608,0.4241965,0.6302327,0.9931945,0.08583069,-0.1587219,0.9835815,29.7417,2.880661,-33.01724,4.100861,0.5906124,0.5555506,0.01832891,1.112616,-0.2137017,0.06742691,0.4777714,-0.03658221,0.1383671,17.07241,34.39
4,0.03343201,-0.1689453,0.9850464,0.8403129,0.008712769,-0.1934509,0.9810638,-30.08072,2.082565,-36.80025,3.89151,0.4365095,0.6291896,0.9813588,0.0559082,-0.1464386,0.9876251,29.5722,2.86705,-33.04356,4.090958,0.6019828,0.5539899,0.01746345,1.112452,-0.2111423,0.06778201,0.4625846,-0.03648718,0.1383671,11.38346,34.39
4,0.03343201,-0.1689453,0.9850464,0.8403129,0.008712769,-0.1934509,0.9810638,-30.08072,2.082565,-36.80025,3.89151,0.4365095,0.6291896,0.9813588,0.0559082,-0.1464386,0.9876251,29.5722,2.86705,-33.04356,4.090958,0.6019828,0.5539899,0.01746345,1.112452,-0.2111423,0.06778201,0.4625846,-0.03648718,0.1383671,11.38346,34.39
4,0.01467896,-0.1740875,0.9846039,0.8594331,-0.007766724,-0.1960449,0.9805603,-30.18112,2.081741,-36.79907,3.98999,0.4430912,0.6297768,0.9824978,0.04043579,-0.1486969,0.9880524,29.46034,2.896545,-33.05301,4.058167,0.6087367,0.5534359,0.01650655,1.112018,-0.2084724,0.06894909,0.4470108,-0.03607462,0.1383671,11.38346,34.39
4,0.01467896,-0.1740875,0.9846039,0.8594331,-0.007766724,-0.1960449,0.9805603,-30.18112,2.081741,-36.79907,3.98999,0.4430912,0.6297768,0.9824978,0.04043579,-0.1486969,0.9880524,29.46034,2.896545,-33.05301,4.058167,0.6087367,0.5534359,0.01650655,1.112018,-0.2084724,0.06894909,0.4470108,-0.03607462,0.1383671,11.38346,34.39
4,-0.01570129,-0.1815338,0.9832458,0.8617203,-0.03527832,-0.1997223,0.9792023,-30.33528,2.127777,-36.78604,3.96698,0.4536161,0.6287393,0.9801686,0.006942749,-0.1603241,0.98703,29.31337,2.889542,-33.09337,4.164169,0.6200368,0.5563004,0.01536405,1.111494,-0.2058347,0.07061712,0.431064,-0.03516028,0.1383671,11.38346,34.39
4,-0.01570129,-0.1815338,0.9832458,0.8617203,-0.03527832,-0.1997223,0.9792023,-30.33528,2.127777,-36.78604,3.96698,0.4536161,0.6287393,0.9801686,0.006942749,-0.1603241,0.98703,29.31337,2.889542,-33.09337,4.164169,0.6200368,0.5563004,0.01536405,1.111494,-0.2058347,0.07061712,0.431064,-0.03516028,0.1383671,11.38346,34.39
4,0.05969238,-0.1567535,0.9858246,0.827453,0.03356934,-0.1775055,0.9835358,-29.83923,2.252396,-36.7565,4.031876,0.423396,0.6195263,0.9657621,0.09645081,-0.127182,0.9871674,29.71941,3.033615,-33.17783,4.082565,0.5896544,0.5459518,0.01486719,1.111273,-0.2044567,0.07122779,0.4231546,-0.03454655,0.1383671,11.38346,34.39
4,0.1131592,-0.1247864,0.9857025,0.7810476,0.09585571,-0.139679,0.9855347,-29.43411,2.495712,-36.69943,4.080841,0.3977103,0.6030424,0.9565576,0.1556854,-0.08770752,0.983902,30.02235,3.203674,-33.18829,4.171463,0.5683488,0.5331011,0.01359808,1.11077,-0.2016813,0.07278105,0.4066991,-0.03310087,0.1383671,11.38346,34.39
4,0.1131592,-0.1247864,0.9857025,0.7810476,0.09585571,-0.139679,0.9855347,-29.43411,2.495712,-36.69943,4.080841,0.3977103,0.6030424,0.9565576,0.1556854,-0.08770752,0.983902,30.02235,3.203674,-33.18829,4.171463,0.5683488,0.5331011,0.01359808,1.11077,-0.2016813,0.07278105,0.4066991,-0.03310087,0.1383671,11.38346,34.39
4,0.1503296,-0.1040802,0.983139,0.7810476,0.1285858,-0.1172485,0.984726,-29.22124,2.543747,-36.76253,4.091522,0.3840723,0.5978835,0.9565576,0.1997833,-0.07362366,0.977066,30.2007,3.262833,-33.11911,4.079208,0.5540268,0.5280023,0.01291001,1.110522,-0.2002672,0.073859,0.3982281,-0.03208778,0.1383671,11.38346,34.39
4,0.1503296,-0.1040802,0.983139,0.7810476,0.1285858,-0.1172485,0.984726,-29.22124,2.543747,-36.76253,4.091522,0.3840723,0.5978835,0.9565576,0.1997833,-0.07362366,0.977066,30.2007,3.262833,-33.11911,4.079208,0.5540268,0.5280023,0.01145625,1.110033,-0.1973839,0.07596531,0.3806323,-0.02966359,0.1383671,11.38346,34.39
4,0.1503296,-0.1040802,0.983139,0.7810476,0.1285858,-0.1172485,0.984726,-29.22124,2.543747,-36.76253,4.091522,0.3840723,0.5978835,0.9565576,0.1997833,-0.07362366,0.977066,30.2007,3.262833,-33.11911,4.079208,0.5540268,0.5280023,0.01145625,1.110033,-0.1973839,0.07596531,0.3806323,-0.02966359,0.1383671,11.38346,34.39
4,0.1503296,-0.1040802,0.983139,0.7810476,0.1285858,-0.1172485,0.984726,-29.22124,2.543747,-36.76253,4.091522,0.3840723,0.5978835,0.9565576,0.1997833,-0.07362366,0.977066,30.2007,3.262833,-33.11911,4.079208,0.5540268,0.5280023,0.01067007,1.109837,-0.1959517,0.07677806,0.3717313,-0.0283403,0.1383671,11.38346,34.39
4,0.1503296,-0.1040802,0.983139,0.7810476,0.1285858,-0.1172485,0.984726,-29.22124,2.543747,-36.76253,4.091522,0.3840723,0.5978835,0.9565576,0.1997833,-0.07362366,0.977066,30.2007,3.262833,-33.11911,4.079208,0.5540268,0.5280023,0.008954644,1.109557,-0.1931596,0.07754982,0.3538004,-0.02622012,0.1383671,-6.482641,34.39
4,0.1503296,-0.1040802,0.983139,0.7810476,0.1285858,-0.1172485,0.984726,-29.22124,2.543747,-36.76253,4.091522,0.3840723,0.5978835,0.9565576,0.1997833,-0.07362366,0.977066,30.2007,3.262833,-33.11911,4.079208,0.5540268,0.5280023,0.008954644,1.109557,-0.1931596,0.07754982,0.3538004,-0.02622012,0.1383671,-6.482641,34.39
4,0.2558746,-0.02017212,0.9664917,0.8214609,0.2091217,-0.05003357,0.976593,-28.72296,2.823364,-36.83916,4.027573,0.3513115,0.5764698,0.9346493,0.2779541,-0.005844116,0.9605713,30.71835,3.444855,-33.21954,4.084396,0.5215399,0.5109528,0.008030295,1.109321,-0.1919689,0.07785187,0.3448845,-0.02509221,0.1383671,-6.482641,34.39
4,0.2241821,-0.01747131,0.9743805,0.9644573,0.1802521,-0.05140686,0.9822693,-28.85712,2.810516,-36.80774,4.062973,0.361564,0.5767051,0.9938738,0.2493286,0.002212524,0.9684143,30.61688,3.469421,-33.18425,3.882217,0.5301216,0.5078571,0.00594008,1.109126,-0.1895019,0.07765131,0.3277646,-0.0232184,0.1383671,-6.482641,34.39
4,0.2241821,-0.01747131,0.9743805,0.9644573,0.1802521,-0.05140686,0.9822693,-28.85712,2.810516,-36.80774,4.062973,0.361564,0.5767051,0.9938738,0.2493286,0.002212524,0.9684143,30.61688,3.469421,-33.18425,3.882217,0.5301216,0.5078571,0.00594008,1.109126,-0.1895019,0.07765131,0.3277646,-0.0232184,0.1383671,-6.482641,34.39
4,0.2020416,-0.0128479,0.9792786,1.0,0.157608,-0.0619812,0.9855499,-29.12825,2.787628,-36.53374,4.022049,0.375808,0.5765273,1.0,0.2167358,0.003631592,0.9762115,30.44505,3.49353,-33.17366,4.001755,0.5421807,0.5064791,0.004950285,1.10913,-0.188291,0.0771469,0.3193951,-0.02228176,0.1383671,-6.482641,34.39
4,0.1867981,-0.009490967,0.9823456,1.0,0.1333771,-0.04943848,0.9898224,-29.27966,2.828857,-36.51883,4.182541,0.3857692,0.5726258,1.0,0.1879425,-0.008621216,0.982132,30.31345,3.595566,-33.2433,3.981552,0.5520887,0.5055289,0.002857447,1.10919,-0.186022,0.07537434,0.3032507,-0.02023755,0.1383671,-6.482641,34.39
4,0.1867981,-0.009490967,0.9823456,1.0,0.1333771,-0.04943848,0.9898224,-29.27966,2.828857,-36.51883,4.182541,0.3857692,0.5726258,1.0,0.1879425,-0.008621216,0.982132,30.31345,3.595566,-33.2433,3.981552,0.5520887,0.5055289,0.002857447,1.10919,-0.186022,0.07537434,0.3032507,-0.02023755,0.1383671,-6.482641,34.39
4,0.1867981,-0.009490967,0.9823456,1.0,0.1333771,-0.04943848,0.9898224,-29.27966,2.828857,-36.51883,4.182541,0.3857692,0.5726258,1.0,0.1879425,-0.008621216,0.982132,30.31345,3.595566,-33.2433,3.981552,0.5520887,0.5055289,0.00196743,1.109264,-0.1848801,0.07432909,0.2956027,-0.01921512,0.1383671,-6.482641,34.39
4,0.1867981,-0.009490967,0.9823456,1.0,0.1333771,-0.04943848,0.9898224,-29.27966,2.828857,-36.51883,4.182541,0.3857692,0.5726258,1.0,0.1879425,-0.008621216,0.982132,30.31345,3.595566,-33.2433,3.981552,0.5520887,0.5055289,0.00196743,1.109264,-0.1848801,0.07432909,0.2956027,-0.01921512,0.1383671,-6.482641,34.39
4,0.1867981,-0.009490967,0.9823456,1.0,0.1333771,-0.04943848,0.9898224,-29.27966,2.828857,-36.51883,4.182541,0.3857692,0.5726258,1.0,0.1879425,-0.008621216,0.982132,30.31345,3.595566,-33.2433,3.981552,0.5520887,0.5055289,-0.0009900331,1.109793,-0.1819819,0.0701147,0.2746901,-0.01557916,0.1383671,-6.482641,34.39
4,0.1867981,-0.009490967,0.9823456,1.0,0.1333771,-0.04943848,0.9898224,-29.27966,2.828857,-36.51883,4.182541,0.3857692,0.5726258,1.0,0.1879425,-0.008621216,0.982132,30.31345,3.595566,-33.2433,3.981552,0.5520887,0.5055289,-0.0009900331,1.109793,-0.1819819,0.0701147,0.2746901,-0.01557916,0.1383671,-6.482641,34.39
4,0.1867981,-0.009490967,0.9823456,1.0,0.1333771,-0.04943848,0.9898224,-29.27966,2.828857,-36.51883,4.182541,0.3857692,0.5726258,1.0,0.1879425,-0.008621216,0.982132,30.31345,3.595566,-33.2433,3.981552,0.5520887,0.5055289,-0.00200069,1.110024,-0.1811147,0.06852201,0.2681186,-0.01414858,0.1383671,-6.482641,34.39
4,0.1091461,-0.04066467,0.9931793,1.0,0.1091309,-0.04067993,0.9931793,-29.43806,2.556168,-35.6808,4.014069,0.3963689,0.5719719,1.0,0.1404266,-0.01548767,0.9899597,30.3213,4.350494,-35.83197,3.882813,0.5621592,0.5045356,-0.003737092,1.110486,-0.1795396,0.06601013,0.2555707,-0.01188792,0.1383671,-6.482641,34.39
4,0.1091461,-0.04066467,0.9931793,1.0,0.1091309,-0.04067993,0.9931793,-29.43806,2.556168,-35.6808,4.014069,0.3963689,0.5719719,1.0,0.1404266,-0.01548767,0.9899597,30.3213,4.350494,-35.83197,3.882813,0.5621592,0.5045356,-0.003737092,1.110486,-0.1795396,0.06601013,0.2555707,-0.01188792,0.1383671,-6.482641,34.39
4,0.02027893,-0.05484009,0.9982758,1.0,0.02026367,-0.05484009,0.9982758,-30.0154,2.726929,-36.14494,4.014114,0.4327489,0.5732301,1.0,0.07955933,-0.01646423,0.9966888,29.61501,3.620865,-33.49791,4.089371,0.5966754,0.508144,-0.004673362,1.110723,-0.1789156,0.06464888,0.2500376,-0.01074912,0.1383671,-6.482641,34.39
4,0.02027893,-0.05484009,0.9982758,1.0,0.02026367,-0.05484009,0.9982758,-30.0154,2.726929,-36.14494,4.014114,0.4327489,0.5732301,1.0,0.07955933,-0.01646423,0.9966888,29.61501,3.620865,-33.49791,4.089371,0.5966754,0.508144,-0.004673362,1.110723,-0.1789156,0.06464888,0.2500376,-0.01074912,0.1383671,-6.482641,34.39
4,0.003570557,-0.06124878,0.9981079,1.0,0.003570557,-0.06124878,0.9981079,-30.13097,2.74144,-36.23125,3.916031,0.4398466,0.5747371,1.0,0.06568909,-0.01689148,0.9976959,29.51192,3.578888,-33.42027,4.050446,0.6027444,0.5089079,-0.006641865,1.111274,-0.1777287,0.06153567,0.2395876,-0.007938326,0.1383671,-6.482641,34.39
4,0.01473999,-0.04472351,0.9988861,1.0,0.01473999,-0.04472351,0.9988861,-29.98325,2.926865,-36.3174,3.901672,0.432589,0.5659124,1.0,0.08244324,-0.008621216,0.9965515,29.65633,3.740952,-33.53729,4.088058,0.594727,0.502851,-0.007477641,1.111699,-0.1770772,0.06004098,0.2345089,-0.00627921,0.1383671,-10.68162,34.39
4,0.08837891,0.01899719,0.9958954,1.0,0.08473206,0.0164032,0.9962616,-29.53873,2.926346,-35.5979,4.008102,0.4045763,0.54763,1.0,0.1463776,0.06039429,0.987381,29.9684,3.995926,-33.74219,3.867447,0.5721327,0.4834318,-0.009192467,1.112325,-0.1760922,0.05662773,0.2249262,-0.003487026,0.1383671,-10.68162,34.37
4,0.08837891,0.01899719,0.9958954,1.0,0.08473206,0.0164032,0.9962616,-29.53873,2.926346,-35.5979,4.008102,0.4045763,0.54763,1.0,0.1463776,0.06039429,0.987381,29.9684,3.995926,-33.74219,3.867447,0.5721327,0.4834318,-0.009192467,1.112325,-0.1760922,0.05662773,0.2249262,-0.003487026,0.1383671,-10.68162,34.37
4,0.1513062,0.04353333,0.9875183,1.0,0.1203003,0.02500916,0.9924164,-29.35732,2.864456,-35.23593,3.95459,0.3919453,0.5446753,1.0,0.1760254,0.05834961,0.9826508,30.14374,4.339432,-34.5347,3.887131,0.5611294,0.479247,-0.01000953,1.112672,-0.1757069,0.05480182,0.2209612,-0.002163091,0.1383671,-10.68162,34.37
5,0.1712646,0.06393433,0.983139,1.0,0.1363831,0.03042603,0.9901733,-29.25768,3.158386,-35.94778,3.924957,0.3850248,0.5403445,1.0,0.1883545,0.08044434,0.9787903,30.2406,4.239441,-34.1115,3.886566,0.5550809,0.4749157,-0.01155627,1.113382,-0.1749534,0.05112779,0.2139093,0.00059802,0.1383671,-10.68162,34.37
5,0.1712646,0.06393433,0.983139,1.0,0.1363831,0.03042603,0.9901733,-29.25768,3.158386,-35.94778,3.924957,0.3850248,0.5403445,1.0,0.1883545,0.08044434,0.9787903,30.2406,4.239441,-34.1115,3.886566,0.5550809,0.4749157,-0.01155627,1.113382,-0.1749534,0.05112779,0.2139093,0.00059802,0.1383671,-10.68162,34.37
5,0.1273804,0.02305603,0.9915771,1.0,0.1272583,0.02293396,0.9915924,-29.37692,3.226303,-36.23328,3.855652,0.3907562,0.5420619,1.0,0.1662903,0.06105042,0.9841766,30.28613,4.615433,-35.49704,3.782166,0.5583884,0.4778444,-0.01224387,1.113772,-0.1745843,0.04933348,0.2108703,0.002060784,0.1383671,-10.68162,34.37
5,0.110199,0.02049255,0.9936829,1.0,0.110199,0.02049255,0.9936829,-29.44296,3.156937,-36.11743,3.862244,0.3962804,0.5437871,1.0,0.1722412,0.05682373,0.9834137,30.12939,4.197388,-34.00693,3.787827,0.5618821,0.4794817,-0.01300788,1.114102,-0.1742857,0.04762604,0.2074296,0.003273215,0.1383671,-10.68162,34.37
5,0.110199,0.02049255,0.9936829,1.0,0.110199,0.02049255,0.9936829,-29.44296,3.156937,-36.11743,3.862244,0.3962804,0.5437871,1.0,0.1722412,0.05682373,0.9834137,30.12939,4.197388,-34.00693,3.787827,0.5618821,0.4794817,-0.01300788,1.114102,-0.1742857,0.04762604,0.2074296,0.003273215,0.1383671,-10.68162,34.37
5,0.1033325,0.03251648,0.9941101,1.0,0.1033325,0.03251648,0.9941101,-29.55634,2.817581,-35.16341,3.76825,0.4021038,0.5440959,1.0,0.1603241,0.04641724,0.9859619,30.10994,4.359116,-34.61154,3.878448,0.5652633,0.4813178,-0.01429462,1.114736,-0.173915,0.04503303,0.202341,0.005163156,0.1383671,-10.68162,34.37
5,0.09635925,0.02389526,0.9950562,1.0,0.09629822,0.02386475,0.9950562,-29.63829,2.830963,-35.19501,3.762024,0.4062627,0.545486,1.0,0.1534271,0.05300903,0.9867249,30.0553,4.299484,-34.42355,3.725174,0.568233,0.4803063,-0.01541734,1.115341,-0.1735665,0.04222768,0.1989323,0.007282392,0.1383671,-10.68162,34.37
5,0.09635925,0.02389526,0.9950562,1.0,0.09629822,0.02386475,0.9950562,-29.63829,2.830963,-35.19501,3.762024,0.4062627,0.545486,1.0,0.1534271,0.05300903,0.9867249,30.0553,4.299484,-34.42355,3.725174,0.568233,0.4803063,-0.01541734,1.115341,-0.1735665,0.04222768,0.1989323,0.007282392,0.1383671,-10.68162,34.37
5,0.08747864,0.01979065,0.9959564,1.0,0.08735657,0.01974487,0.9959717,-29.6631,2.97052,-35.56453,3.731827,0.4085673,0.5449075,1.0,0.1491089,0.04458618,0.9878082,30.00537,4.225128,-34.1469,3.743774,0.5706104,0.4818513,-0.0159626,1.115651,-0.173435,0.04082755,0.1971457,0.008503842,0.1383671,-10.68162,34.37
5,0.08636475,0.02098083,0.9960327,1.0,0.08628845,0.02096558,0.996048,-29.6922,2.887878,-35.32123,3.702606,0.4099122,0.5451788,1.0,0.1445313,0.03620911,0.9888306,30.0025,4.235428,-34.16785,3.727295,0.5715584,0.4831533,-0.01652682,1.115958,-0.1731834,0.03944534,0.1956233,0.009738886,0.1383671,-10.68162,34.37
5,0.1373291,0.03244019,0.9899902,1.0,0.07739258,0.007141113,0.9969635,-29.69981,3.07399,-35.86887,3.739807,0.4115151,0.5465482,1.0,0.1444702,0.03546143,0.9888611,29.99908,4.227264,-34.14441,3.706467,0.5716628,0.4833508,-0.017537,1.116587,-0.1729136,0.03687716,0.1927012,0.0118622,0.1383671,-13.79206,34.37
5,0.1373291,0.03244019,0.9899902,1.0,0.07739258,0.007141113,0.9969635,-29.69981,3.07399,-35.86887,3.739807,0.4115151,0.5465482,1.0,0.1444702,0.03546143,0.9888611,29.99908,4.227264,-34.14441,3.706467,0.5716628,0.4833508,-0.017537,1.116587,-0.1729136,0.03687716,0.1927012,0.0118622,0.1383671,-13.79206,34.37
5,0.135376,0.02996826,0.9903259,1.0,0.07807922,0.004272461,0.996933,-29.73695,2.964813,-35.54134,3.717606,0.4128678,0.5476575,1.0,0.1373444,0.03085327,0.990036,29.97467,4.215546,-34.11966,3.657028,0.5737827,0.484286,-0.01814032,1.116792,-0.1728727,0.03567503,0.1914336,0.01300607,0.1383671,-13.79206,34.37
5,0.07658386,0.0002441406,0.9970551,1.0,0.07566833,-0.0004119873,0.9971313,-29.76064,2.972839,-35.59113,3.551605,0.4140993,0.5485727,1.0,0.1340332,0.0425415,0.9900513,29.92961,3.905472,-33.20757,3.629639,0.5751873,0.4845247,-0.01925302,1.117273,-0.1728358,0.03353714,0.1893758,0.01502209,0.1383671,-13.79206,34.37
5,0.07658386,0.0002441406,0.9970551,1.0,0.07566833,-0.0004119873,0.9971313,-29.76064,2.972839,-35.59113,3.551605,0.4140993,0.5485727,1.0,0.1340332,0.0425415,0.9900513,29.92961,3.905472,-33.20757,3.629639,0.5751873,0.4845247,-0.01925302,1.117273,-0.1728358,0.03353714,0.1893758,0.01502209,0.1383671,-13.79206,34.37
5,0.07069397,-0.00541687,0.9974823,1.0,0.07069397,-0.00541687,0.9974823,-29.77745,2.976746,-35.62006,3.647369,0.4155833,0.549715,1.0,0.124527,0.03497314,0.9915924,29.91324,3.922592,-33.27013,3.520538,0.577482,0.48573,-0.01974618,1.117497,-0.1727993,0.03247254,0.1883488,0.01614377,0.1383671,-13.79206,34.37
5,0.07051086,-0.006698608,0.9974823,1.0,0.07051086,-0.006698608,0.9974823,-29.78427,2.976746,-35.59741,3.640579,0.4158686,0.549715,1.0,0.1256409,0.03479004,0.9914551,29.90466,3.932709,-33.30162,3.554352,0.5776328,0.4857424,-0.02079523,1.117931,-0.1727583,0.03034792,0.1863275,0.01850281,0.1383671,-13.79206,34.37
5,0.07051086,-0.006698608,0.9974823,1.0,0.07051086,-0.006698608,0.9974823,-29.78427,2.976746,-35.59741,3.640579,0.4158686,0.549715,1.0,0.1256409,0.03479004,0.9914551,29.90466,3.932709,-33.30162,3.554352,0.5776328,0.4857424,-0.02079523,1.117931,-0.1727583,0.03034792,0.1863275,0.01850281,0.1383671,-13.79206,34.37
5,0.06855774,-0.008728027,0.9976044,1.0,0.0684967,-0.008773804,0.9976044,-29.78667,2.974884,-35.57335,3.557999,0.4163211,0.5498393,1.0,0.1234741,0.02944946,0.9918976,29.90962,3.969193,-33.41853,3.61586,0.5779827,0.486554,-0.02132809,1.118108,-0.1726203,0.02949735,0.1852508,0.01975089,0.1383671,-13.79206,34.37
5,0.06716919,-0.008529663,0.9976959,1.0,0.06608582,-0.009338379,0.997757,-29.8028,2.950455,-35.49995,3.624878,0.4173642,0.5501302,1.0,0.1227722,0.03282166,0.9918823,29.90662,3.990097,-33.4942,3.494385,0.5782179,0.4858169,-0.02188075,1.118281,-0.1726477,0.02885485,0.184273,0.02077313,0.1383671,-13.79206,34.37
5,0.06716919,-0.008529663,0.9976959,1.0,0.06608582,-0.009338379,0.997757,-29.8028,2.950455,-35.49995,3.624878,0.4173642,0.5501302,1.0,0.1227722,0.03282166,0.9918823,29.90662,3.990097,-33.4942,3.494385,0.5782179,0.4858169,-0.02188075,1.118281,-0.1726477,0.02885485,0.184273,0.02077313,0.1383671,-13.79206,34.37
5,0.07736206,-0.008560181,0.9969635,1.0,0.0665741,-0.01956177,0.9975891,-29.83652,2.921646,-35.38762,3.453232,0.4185065,0.5517421,1.0,0.1125793,0.02740479,0.9932556,29.89307,4.018631,-33.59059,3.559647,0.5806611,0.4867069,-0.02262402,1.118748,-0.1725879,0.02733421,0.1828267,0.0226489,0.1383671,-13.79206,34.37
5,0.08543396,-0.001831055,0.9963379,1.0,0.06663513,-0.01693726,0.9976196,-29.85384,2.900711,-35.36821,3.516418,0.4191216,0.5518731,1.0,0.1129761,0.02035522,0.9933777,29.87988,4.011612,-33.54083,3.574982,0.5810323,0.4877632,-0.02262402,1.118748,-0.1725879,0.02733421,0.1828267,0.0226489,0.1383671,-13.79206,34.37
5,0.09063721,0.004974365,0.9958649,1.0,0.06411743,-0.0191803,0.9977417,-29.87358,2.912125,-35.38597,3.515839,0.4202677,0.5520597,1.0,0.1133118,0.02571106,0.9932098,29.8631,3.992599,-33.45607,3.553955,0.5814798,0.4866562,-0.02343488,1.11924,-0.1726671,0.02549838,0.1814274,0.02505625,0.1383671,-13.79206,34.37
5,0.08175659,-0.005325317,0.9966278,1.0,0.06587219,-0.02297974,0.9975586,-29.9001,2.912445,-35.40816,3.530579,0.4208883,0.5529761,1.0,0.1084442,0.02445984,0.9937897,29.83417,3.945786,-33.27455,3.473724,0.5831872,0.4867496,-0.02422023,1.119585,-0.1728239,0.02393325,0.1801291,0.02697616,0.1383671,-13.79206,34.37
5,0.08175659,-0.005325317,0.9966278,1.0,0.06587219,-0.02297974,0.9975586,-29.9001,2.912445,-35.40816,3.530579,0.4208883,0.5529761,1.0,0.1084442,0.02445984,0.9937897,29.83417,3.945786,-33.27455,3.473724,0.5831872,0.4867496,-0.02422023,1.119585,-0.1728239,0.02393325,0.1801291,0.02697616,0.1383671,-13.79206,34.37
5,0.0665741,-0.02070618,0.9975586,1.0,0.05657959,-0.02828979,0.9979858,-29.90858,2.928757,-35.46422,3.435471,0.4228176,0.5538409,1.0,0.1107483,0.01293945,0.9937592,29.82083,3.930267,-33.20918,3.531982,0.5832285,0.4888043,-0.02490234,1.120014,-0.1728266,0.02254669,0.1793605,0.02847014,0.1383671,2.043137,34.37
5,0.0665741,-0.02070618,0.9975586,1.0,0.05657959,-0.02828979,0.9979858,-29.90858,2.928757,-35.46422,3.435471,0.4228176,0.5538409,1.0,0.1107483,0.01293945,0.9937592,29.82083,3.930267,-33.20918,3.531982,0.5832285,0.4888043,-0.02490234,1.120014,-0.1728266,0.02254669,0.1793605,0.02847014,0.1383671,2.043137,34.37
5,0.06665039,-0.02217102,0.9975281,1.0,0.06030273,-0.02728271,0.9978027,-29.91597,2.964554,-35.57001,3.455002,0.4223765,0.5534685,1.0,0.1070099,0.01043701,0.9942017,29.80624,3.933472,-33.19638,3.537292,0.5844125,0.4890167,-0.02553427,1.120346,-0.1728306,0.02076631,0.1784548,0.03088934,0.1383671,2.043137,34.37
5,0.07780457,-0.01260376,0.9968872,1.0,0.0606842,-0.02633667,0.9978027,-29.91788,2.965591,-35.57191,3.455078,0.4223765,0.5532764,1.0,0.1072083,0.01109314,0.9941711,29.80559,3.941086,-33.22162,3.516983,0.5844125,0.4888469,-0.02608776,1.120785,-0.1729119,0.01903318,0.1773168,0.03269001,0.1422106,2.043137,34.37
5,0.07780457,-0.01260376,0.9968872,1.0,0.0606842,-0.02633667,0.9978027,-29.91788,2.965591,-35.57191,3.455078,0.4223765,0.5532764,1.0,0.1072083,0.01109314,0.9941711,29.80559,3.941086,-33.22162,3.516983,0.5844125,0.4888469,-0.02608776,1.120785,-0.1729119,0.01903318,0.1773168,0.03269001,0.1422106,2.043137,34.37
5,0.09098816,0.001251221,0.9958496,1.0,0.0619812,-0.02922058,0.9976349,-29.90034,2.936111,-35.29716,3.505615,0.4216446,0.5521385,1.0,0.1026917,0.01359558,0.9946136,29.82625,4.050903,-33.37677,3.481567,0.5846221,0.4859328,-0.02669895,1.121055,-0.1730505,0.01767577,0.1766326,0.03397088,0.1422106,2.043137,34.37
5,0.09098816,0.001251221,0.9958496,1.0,0.0619812,-0.02922058,0.9976349,-29.90034,2.936111,-35.29716,3.505615,0.4216446,0.5521385,1.0,0.1026917,0.01359558,0.9946136,29.82625,4.050903,-33.37677,3.481567,0.5846221,0.4859328,-0.02669895,1.121055,-0.1730505,0.01767577,0.1766326,0.03397088,0.1422106,2.043137,34.37
5,0.09098816,0.001251221,0.9958496,1.0,0.0619812,-0.02922058,0.9976349,-29.90034,2.936111,-35.29716,3.505615,0.4216446,0.5521385,1.0,0.1026917,0.01359558,0.9946136,29.82625,4.050903,-33.37677,3.481567,0.5846221,0.4859328,-0.02669895,1.121055,-0.1730505,0.01767577,0.1766326,0.03397088,0.1422106,2.043137,34.37
5,0.1277466,0.06414795,0.9897156,1.0,0.07019043,0.03219604,0.9970093,-29.73935,3.125534,-34.99725,3.530029,0.4147106,0.5314252,1.0,0.1317291,0.06636047,0.9890594,29.82303,4.278137,-33.23352,3.392441,0.5793403,0.4671375,-0.02713084,1.121372,-0.1731513,0.0164451,0.1759106,0.03538881,0.1422106,2.043137,34.37
5,0.1277466,0.06414795,0.9897156,1.0,0.07019043,0.03219604,0.9970093,-29.73935,3.125534,-34.99725,3.530029,0.4147106,0.5314252,1.0,0.1317291,0.06636047,0.9890594,29.82303,4.278137,-33.23352,3.392441,0.5793403,0.4671375,-0.02713084,1.121372,-0.1731513,0.0164451,0.1759106,0.03538881,0.1422106,2.043137,34.37
5,0.1343842,0.07388306,0.9881592,1.0,0.07658386,0.03794861,0.9963379,-29.7477,3.177475,-34.98047,3.421799,0.4138795,0.5283164,1.0,0.1352386,0.07443237,0.9880066,29.843,4.339447,-33.35468,3.459839,0.5781363,0.4647237,-0.02762997,1.121716,-0.1732311,0.01491158,0.175169,0.03683329,0.1422106,2.043137,34.37
5,0.1343842,0.07388306,0.9881592,1.0,0.07658386,0.03794861,0.9963379,-29.7477,3.177475,-34.98047,3.421799,0.4138795,0.5283164,1.0,0.1352386,0.07443237,0.9880066,29.843,4.339447,-33.35468,3.459839,0.5781363,0.4647237,-0.02762997,1.121716,-0.1732311,0.01491158,0.175169,0.03683329,0.1422106,2.043137,34.37
5,0.126297,0.07644653,0.9890289,1.0,0.07327271,0.03250122,0.9967804,-29.77695,3.214783,-35.10831,3.469009,0.4154564,0.5292601,1.0,0.1278992,0.07777405,0.9887238,29.85233,4.346283,-33.36165,3.418655,0.5791128,0.4638753,-0.02793038,1.122105,-0.17336,0.01361727,0.1747174,0.0378154,0.1422106,2.043137,34.37
5,0.126297,0.07644653,0.9890289,1.0,0.07327271,0.03250122,0.9967804,-29.77695,3.214783,-35.10831,3.469009,0.4154564,0.5292601,1.0,0.1278992,0.07777405,0.9887238,29.85233,4.346283,-33.36165,3.418655,0.5791128,0.4638753,-0.02793038,1.122105,-0.17336,0.01361727,0.1747174,0.0378154,0.1422106,2.043137,34.37
5,0.128891,0.06698608,0.9893799,1.0,0.07229614,0.03044128,0.9969177,-29.82248,3.282974,-35.34737,3.445496,0.417141,0.5295572,1.0,0.1298828,0.06762695,0.989212,29.84331,4.326782,-33.27512,3.435333,0.5790188,0.4656011,-0.02817523,1.122449,-0.1734836,0.01254239,0.1750396,0.03864003,0.1422106,2.043137,34.37
5,0.1273041,0.06617737,0.9896393,1.0,0.07252502,0.02191162,0.9971161,-29.83188,3.214966,-35.16072,3.497589,0.4175107,0.5317164,1.0,0.1292725,0.06776428,0.9892883,29.83788,4.325989,-33.27431,3.43541,0.5793221,0.4656011,-0.02826428,1.12269,-0.1735184,0.01155549,0.1754438,0.03938031,0.1422106,8.541473,34.37
5,0.1273041,0.06617737,0.9896393,1.0,0.07252502,0.02191162,0.9971161,-29.83188,3.214966,-35.16072,3.497589,0.4175107,0.5317164,1.0,0.1292725,0.06776428,0.9892883,29.83788,4.325989,-33.27431,3.43541,0.5793221,0.4656011,-0.02826428,1.12269,-0.1735184,0.01155549,0.1754438,0.03938031,0.1422106,8.541473,34.37
5,0.1273041,0.06617737,0.9896393,1.0,0.07252502,0.02191162,0.9971161,-29.83188,3.214966,-35.16072,3.497589,0.4175107,0.5317164,1.0,0.1292725,0.06776428,0.9892883,29.83788,4.325989,-33.27431,3.43541,0.5793221,0.4656011,-0.02826428,1.12269,-0.1735184,0.01155549,0.1754438,0.03938031,0.1422106,8.541473,34.37
5,0.1207428,0.06271362,0.9906921,1.0,0.07099915,0.02671814,0.9971161,-29.83459,3.198502,-35.12576,3.463501,0.4178938,0.5310554,1.0,0.1277771,0.06782532,0.9894714,29.83788,4.313797,-33.25919,3.444168,0.5795801,0.465883,-0.0283004,1.122845,-0.1735402,0.01061871,0.1758732,0.04004855,0.1422106,8.541473,34.37
5,0.1207428,0.06271362,0.9906921,1.0,0.07099915,0.02671814,0.9971161,-29.83459,3.198502,-35.12576,3.463501,0.4178938,0.5310554,1.0,0.1277771,0.06782532,0.9894714,29.83788,4.313797,-33.25919,3.444168,0.5795801,0.465883,-0.0283004,1.122845,-0.1735402,0.01061871,0.1758732,0.04004855,0.1422106,8.541473,34.37
5,0.1196747,0.0610199,0.990921,1.0,0.07106018,0.02630615,0.9971161,-29.836,3.196487,-35.12576,3.462967,0.4179311,0.5312029,1.0,0.1288147,0.06756592,0.9893494,29.84003,4.312912,-33.26752,3.442551,0.5793221,0.4660417,-0.0282346,1.123013,-0.173676,0.01004765,0.1764651,0.04061788,0.1422106,8.541473,34.37
5,0.1044464,0.04956055,0.9932861,1.0,0.07182312,0.02674866,0.9970551,-29.83986,3.193939,-35.12561,3.454575,0.4179311,0.5312029,1.0,0.1281281,0.06616211,0.9895325,29.84331,4.307739,-33.25919,3.442413,0.5793221,0.4663902,-0.02824962,1.123092,-0.1738315,0.009497196,0.1773767,0.04138364,0.1422106,8.541473,34.37
5,0.1044464,0.04956055,0.9932861,1.0,0.07182312,0.02674866,0.9970551,-29.83986,3.193939,-35.12561,3.454575,0.4179311,0.5312029,1.0,0.1281281,0.06616211,0.9895325,29.84331,4.307739,-33.25919,3.442413,0.5793221,0.4663902,-0.02824962,1.123092,-0.1738315,0.009497196,0.1773767,0.04138364,0.1422106,8.541473,34.37
5,0.09991455,0.04190063,0.9941101,1.0,0.07173157,0.02305603,0.9971466,-29.8389,3.197495,-35.12617,3.457611,0.4179125,0.5317501,1.0,0.1284637,0.0610199,0.9898224,29.84413,4.306091,-33.25919,3.440155,0.5792335,0.4673726,-0.02821481,1.123345,-0.1739551,0.009048038,0.1779076,0.04204503,0.1422106,8.541473,34.37
5,0.09991455,0.04190063,0.9941101,1.0,0.07173157,0.02305603,0.9971466,-29.8389,3.197495,-35.12617,3.457611,0.4179125,0.5317501,1.0,0.1284637,0.0610199,0.9898224,29.84413,4.306091,-33.25919,3.440155,0.5792335,0.4673726,-0.02821481,1.123345,-0.1739551,0.009048038,0.1779076,0.04204503,0.1422106,8.541473,34.37
5,0.09991455,0.04190063,0.9941101,1.0,0.07173157,0.02305603,0.9971466,-29.8389,3.197495,-35.12617,3.457611,0.4179125,0.5317501,1.0,0.1284637,0.0610199,0.9898224,29.84413,4.306091,-33.25919,3.440155,0.5792335,0.4673726,-0.02821481,1.123345,-0.1739551,0.009048038,0.1779076,0.04204503,0.1422106,8.541473,34.37
5,0.09495544,0.034729,0.994873,1.0,0.07141113,0.02209473,0.9971924,-29.836,3.200516,-35.13002,3.439056,0.4178609,0.531837,1.0,0.1333771,0.05537415,0.989502,29.89763,4.342941,-33.3768,3.394516,0.5765221,0.4681588,-0.02817166,1.123523,-0.1741287,0.00849683,0.178533,0.04242589,0.1422106,8.541473,34.37
5,0.08958435,0.03431702,0.9953766,1.0,0.07148743,0.02488708,0.9971161,-29.83459,3.204697,-35.19829,3.419601,0.4177653,0.531837,1.0,0.1321564,0.0565033,0.9896088,29.90468,4.35759,-33.41437,3.393951,0.5765221,0.4677729,-0.02806902,1.123784,-0.1742176,0.007898808,0.1794418,0.04283729,0.1422106,8.541473,34.37
5,0.08958435,0.03431702,0.9953766,1.0,0.07148743,0.02488708,0.9971161,-29.83459,3.204697,-35.19829,3.419601,0.4177653,0.531837,1.0,0.1321564,0.0565033,0.9896088,29.90468,4.35759,-33.41437,3.393951,0.5765221,0.4677729,-0.02806902,1.123784,-0.1742176,0.007898808,0.1794418,0.04283729,0.1422106,8.541473,34.37
5,0.08958435,0.03431702,0.9953766,1.0,0.07148743,0.02488708,0.9971161,-29.83459,3.204697,-35.19829,3.419601,0.4177653,0.531837,1.0,0.1321564,0.0565033,0.9896088,29.90468,4.35759,-33.41437,3.393951,0.5765221,0.4677729,-0.02806902,1.123784,-0.1742176,0.007898808,0.1794418,0.04283729,0.1422106,8.541473,34.37
5,0.1062927,0.04098511,0.9934845,1.0,0.07115173,0.01939392,0.9972687,-29.82233,3.247681,-35.32988,3.409882,0.4173287,0.5325846,1.0,0.1321564,0.05691528,0.9895782,29.90814,4.355789,-33.38274,3.401016,0.5763758,0.4674722,-0.02794516,1.124028,-0.1743228,0.007024083,0.1801963,0.04362899,0.1422106,-4.843582,34.37
5,0.1062927,0.04098511,0.9934845,1.0,0.07115173,0.01939392,0.9972687,-29.82233,3.247681,-35.32988,3.409882,0.4173287,0.5325846,1.0,0.1321564,0.05691528,0.9895782,29.90814,4.355789,-33.38274,3.401016,0.5763758,0.4674722,-0.02794516,1.124028,-0.1743228,0.007024083,0.1801963,0.04362899,0.1422106,-4.843582,34.37
5,0.1215515,0.04966736,0.991333,1.0,0.07250977,0.01795959,0.9971924,-29.81071,3.26088,-35.36429,3.408569,0.4166588,0.5327081,1.0,0.1328583,0.05699158,0.9894867,29.91245,4.350174,-33.36903,3.403656,0.5760869,0.4675378,-0.02785456,1.124295,-0.1745182,0.005790303,0.1806601,0.04459829,0.1422106,-4.843582,34.37
5,0.1147308,0.04595947,0.9923248,1.0,0.07321167,0.01799011,0.9971466,-29.80511,3.26088,-35.36429,3.408661,0.4163328,0.5327081,1.0,0.1328125,0.0581665,0.9894257,29.91655,4.342941,-33.35745,3.400116,0.5759339,0.4674737,-0.02780616,1.124664,-0.1746556,0.004333067,0.1812838,0.04532969,0.1422106,-4.843582,34.37
5,0.1147308,0.04595947,0.9923248,1.0,0.07321167,0.01799011,0.9971466,-29.80511,3.26088,-35.36429,3.408661,0.4163328,0.5327081,1.0,0.1328125,0.0581665,0.9894257,29.91655,4.342941,-33.35745,3.400116,0.5759339,0.4674737,-0.02780616,1.124664,-0.1746556,0.004333067,0.1812838,0.04532969,0.1422106,-4.843582,34.37
5,0.09970093,0.03582764,0.9943695,1.0,0.07266235,0.01789856,0.9971924,-29.79346,3.26088,-35.36429,3.400955,0.4160168,0.5327081,1.0,0.1325684,0.05766296,0.9894867,29.92358,4.323044,-33.27611,3.400238,0.5756598,0.4675058,-0.02776873,1.124925,-0.1748711,0.002572181,0.1819407,0.04622389,0.1422106,-4.843582,34.37
5,0.09970093,0.03582764,0.9943695,1.0,0.07266235,0.01789856,0.9971924,-29.79346,3.26088,-35.36429,3.400955,0.4160168,0.5327081,1.0,0.1325684,0.05766296,0.9894867,29.92358,4.323044,-33.27611,3.400238,0.5756598,0.4675058,-0.02776873,1.124925,-0.1748711,0.002572181,0.1819407,0.04622389,0.1422106,-4.843582,34.37
5,0.09970093,0.03582764,0.9943695,1.0,0.07266235,0.01789856,0.9971924,-29.79346,3.26088,-35.36429,3.400955,0.4160168,0.5327081,1.0,0.1325684,0.05766296,0.9894867,29.92358,4.323044,-33.27611,3.400238,0.5756598,0.4675058,-0.02776873,1.124925,-0.1748711,0.002572181,0.1819407,0.04622389,0.1422106,-4.843582,34.37
5,0.08180237,0.02085876,0.9964142,1.0,0.07351685,0.01635742,0.9971466,-29.79033,3.218338,-35.19336,3.405029,0.4158268,0.5328182,1.0,0.1405029,0.05285645,0.9886627,29.94557,4.232742,-32.9227,3.441727,0.5731808,0.4683543,-0.0278604,1.125294,-0.1750637,0.000345267,0.1823047,0.04728614,0.1422106,-4.843582,34.37
5,0.07824707,0.01663208,0.9967804,1.0,0.07493591,0.01473999,0.9970703,-29.78751,3.196518,-35.12936,3.404541,0.4155003,0.5332438,1.0,0.1411285,0.05274963,0.9885712,29.95354,4.2285,-32.90442,3.442398,0.5727716,0.4683543,-0.02791631,1.125753,-0.1752489,-0.001810595,0.1825435,0.04832443,0.1422106,-4.843582,34.37
5,0.07824707,0.01663208,0.9967804,1.0,0.07493591,0.01473999,0.9970703,-29.78751,3.196518,-35.12936,3.404541,0.4155003,0.5332438,1.0,0.1411285,0.05274963,0.9885712,29.95354,4.2285,-32.90442,3.442398,0.5727716,0.4683543,-0.02791631,1.125753,-0.1752489,-0.001810595,0.1825435,0.04832443,0.1422106,-4.843582,34.37
5,0.07824707,0.01663208,0.9967804,1.0,0.07493591,0.01473999,0.9970703,-29.78751,3.196518,-35.12936,3.404541,0.4155003,0.5332438,1.0,0.1411285,0.05274963,0.9885712,29.95354,4.2285,-32.90442,3.442398,0.5727716,0.4683543,-0.02791631,1.125753,-0.1752489,-0.001810595,0.1825435,0.04832443,0.1422106,-4.843582,34.37
5,0.1406708,0.05178833,0.9886932,1.0,0.09056091,0.006500244,0.9958649,-29.77072,2.971527,-34.56424,3.352844,0.4123381,0.5370859,1.0,0.1426544,0.05358887,0.9883118,29.96504,4.203781,-32.8746,3.385849,0.5720271,0.4687564,-0.02793634,1.126009,-0.1753321,-0.002735029,0.1826551,0.04892081,0.1422106,-4.843582,34.37
5,0.1459808,0.05465698,0.9877625,1.0,0.09216309,0.001098633,0.9957275,-29.76834,2.95752,-34.63332,3.325577,0.4119173,0.5392097,1.0,0.1460266,0.05470276,0.9877625,29.97177,4.21077,-32.98476,3.434921,0.5712921,0.4693922,-0.02792442,1.126201,-0.1754245,-0.003600557,0.182833,0.0493937,0.1422106,-4.843582,34.37
5,0.1475525,0.0433197,0.9880981,1.0,0.0957489,-0.0003356934,0.9953918,-29.7598,2.975235,-34.7563,3.430084,0.4109232,0.5401485,1.0,0.1479187,0.04362488,0.9880219,29.97177,4.202545,-32.97844,3.416077,0.5709457,0.4715998,-0.02789176,1.126529,-0.1755513,-0.005323721,0.1832954,0.05004555,0.1422106,-4.843582,34.37
5,0.1475525,0.0433197,0.9880981,1.0,0.0957489,-0.0003356934,0.9953918,-29.7598,2.975235,-34.7563,3.430084,0.4109232,0.5401485,1.0,0.1479187,0.04362488,0.9880219,29.97177,4.202545,-32.97844,3.416077,0.5709457,0.4715998,-0.02789176,1.126529,-0.1755513,-0.005323721,0.1832954,0.05004555,0.1422106,-4.843582,34.37
5,0.1412964,0.03775024,0.9892426,1.0,0.09483337,-0.00112915,0.9954834,-29.75632,2.994385,-34.84149,3.444336,0.4109232,0.5404643,1.0,0.1481171,0.04348755,0.9880066,29.97177,4.176971,-32.89149,3.416138,0.5708413,0.4717164,-0.02789056,1.126678,-0.1756212,-0.006075375,0.1835391,0.05033813,0.1422106,-14.00402,34.37
5,0.1412964,0.03775024,0.9892426,1.0,0.09483337,-0.00112915,0.9954834,-29.75632,2.994385,-34.84149,3.444336,0.4109232,0.5404643,1.0,0.1481171,0.04348755,0.9880066,29.97177,4.176971,-32.89149,3.416138,0.5708413,0.4717164,-0.02789056,1.126678,-0.1756212,-0.006075375,0.1835391,0.05033813,0.1422106,-14.00402,34.37
5,0.1449738,0.03401184,0.9888458,1.0,0.1001434,-0.002456665,0.9949646,-29.74188,3.064972,-35.13756,3.429047,0.4093072,0.5411338,1.0,0.1496124,0.03781128,0.9880066,29.9742,4.189758,-32.93497,3.413498,0.5705254,0.4726938,-0.02773499,1.127081,-0.175893,-0.007575247,0.1841115,0.05090127,0.1422106,-14.00402,34.37
5,0.1449738,0.03401184,0.9888458,1.0,0.1001434,-0.002456665,0.9949646,-29.74188,3.064972,-35.13756,3.429047,0.4093072,0.5411338,1.0,0.1496124,0.03781128,0.9880066,29.9742,4.189758,-32.93497,3.413498,0.5705254,0.4726938,-0.02773499,1.127081,-0.175893,-0.007575247,0.1841115,0.05090127,0.1422106,-14.00402,34.37
5,0.1501465,0.03460693,0.9880524,1.0,0.1045532,-0.01397705,0.9944153,-29.73657,3.06311,-35.16907,3.455902,0.4083057,0.5436228,1.0,0.1512756,0.03581238,0.9878387,29.97559,4.20665,-32.9816,3.413025,0.5702171,0.4728971,-0.02770019,1.127138,-0.1759266,-0.007862883,0.1844528,0.05112327,0.1422106,-14.00402,34.37
5,0.1503601,0.03334045,0.9880676,1.0,0.1039276,-0.01174927,0.9945068,-29.73729,3.026321,-35.06555,3.481308,0.4084975,0.5435226,1.0,0.1515961,0.03456116,0.9878235,29.97615,4.21077,-32.98476,3.41394,0.5701427,0.4730087,-0.02757752,1.127274,-0.175977,-0.008366047,0.1846897,0.05132371,0.1422106,-14.00402,34.37
5,0.1503601,0.03334045,0.9880676,1.0,0.1039276,-0.01174927,0.9945068,-29.73729,3.026321,-35.06555,3.481308,0.4084975,0.5435226,1.0,0.1515961,0.03456116,0.9878235,29.97615,4.21077,-32.98476,3.41394,0.5701427,0.4730087,-0.02757752,1.127274,-0.175977,-0.008366047,0.1846897,0.05132371,0.1422106,-14.00402,34.37
5,0.0941925,0.03538513,0.9949188,1.0,0.05577087,0.00843811,0.9983978,-29.98674,3.212357,-35.31967,3.339554,0.4259185,0.5356662,1.0,0.09846497,0.03839111,0.9943848,29.72244,4.369873,-33.41348,3.478653,0.5891682,0.47053,-0.02759802,1.12751,-0.1760877,-0.009075171,0.1849757,0.05189453,0.1422106,-14.00402,34.37
5,0.03599548,0.03956604,0.9985657,1.0,0.003143311,-0.002059937,0.9999847,-30.24431,3.438034,-35.95113,3.296265,0.4443535,0.5358498,1.0,0.05819702,0.06771851,0.9960022,29.2795,3.79213,-31.6208,3.38237,0.610193,0.4688443,-0.0276314,1.127598,-0.176158,-0.009502687,0.1850154,0.05219845,0.1422106,-14.00402,34.37
5,-0.006652832,-0.009796143,0.9999237,1.0,-0.008483887,-0.01219177,0.9998779,-30.3351,3.456512,-35.96439,3.377579,0.4496663,0.5372781,1.0,0.03997803,0.05126953,0.997879,29.27054,4.007629,-32.23836,3.521362,0.6145307,0.4699883,-0.02757049,1.12777,-0.1762806,-0.01003504,0.1849775,0.05241922,0.1422106,-14.00402,34.37
5,-0.006652832,-0.009796143,0.9999237,1.0,-0.008483887,-0.01219177,0.9998779,-30.3351,3.456512,-35.96439,3.377579,0.4496663,0.5372781,1.0,0.03997803,0.05126953,0.997879,29.27054,4.007629,-32.23836,3.521362,0.6145307,0.4699883,-0.02757049,1.12777,-0.1762806,-0.01003504,0.1849775,0.05241922,0.1422106,-14.00402,34.37
5,-0.01216125,-0.008636475,0.9998779,1.0,-0.01335144,-0.009963989,0.9998474,-30.34332,3.446945,-35.96475,3.277359,0.4508421,0.5371369,1.0,0.04074097,0.05075073,0.997879,29.27992,3.972336,-32.13206,3.518875,0.6139366,0.4703327,-0.02759099,1.127862,-0.1763201,-0.01029379,0.1850711,0.05254088,0.1422106,-14.00402,34.37
5,-0.01235962,-0.01248169,0.9998322,1.0,-0.0124054,-0.01252747,0.9998322,-30.35095,3.412689,-35.85173,3.303101,0.4509563,0.5377173,1.0,0.04574585,0.05651855,0.997345,29.26395,3.881622,-31.85507,3.49501,0.613278,0.4699177,-0.02763522,1.127963,-0.1765474,-0.01099311,0.1851918,0.05302041,0.1422106,-14.00402,34.37
5,-0.01235962,-0.01248169,0.9998322,1.0,-0.0124054,-0.01252747,0.9998322,-30.35095,3.412689,-35.85173,3.303101,0.4509563,0.5377173,1.0,0.04574585,0.05651855,0.997345,29.26395,3.881622,-31.85507,3.49501,0.613278,0.4699177,-0.02763522,1.127963,-0.1765474,-0.01099311,0.1851918,0.05302041,0.1422106,-14.00402,34.37
5,-0.01023865,-0.01303101,0.9998627,1.0,-0.01037598,-0.01318359,0.9998474,-30.35829,3.389832,-35.75557,3.351379,0.4508646,0.5377406,1.0,0.04510498,0.05508423,0.9974518,29.26883,3.866714,-31.79851,3.496506,0.6131558,0.4701799,-0.02778137,1.128029,-0.1766382,-0.0113925,0.1852174,0.05338675,0.1422106,-14.00402,34.37
