Second,eye_comb_direction_x,eye_comb_direction_y,eye_comb_direction_z,eye_r_openness,eye_r_direction_x,eye_r_direction_y,eye_r_direction_z,eye_r_origin_x,eye_r_origin_y,eye_r_origin_z,eye_r_pupil_diameter,eye_r_pupil_position_x,eye_r_pupil_position_y,eye_l_openness,eye_l_direction_x,eye_l_direction_y,eye_l_direction_z,eye_l_origin_x,eye_l_origin_y,eye_l_origin_z,eye_l_pupil_diameter,eye_l_pupil_position_x,eye_l_pupil_position_y,head_position_x,head_position_y,head_position_z,head_rotation_roll,head_rotation_pitch,head_rotation_yaw,EDA,BVP,TMP
0,0.0,0.0,0.0,0.0,0.0,0.0,0.0,0.0,0.0,0.0,0.0,0.0,0.0,0.0,0.0,0.0,0.0,0.0,0.0,0.0,0.0,0.0,0.0,0.0,0.0,0.0,0.0,0.0,0.0,0.047197301,0.15946611219999995,27.0917421686747
0,-0.03656006,-0.271286,0.961792,0.9374213,0.05619812,-0.2275848,0.9721222,-23.92874,0.3813019,-23.96837,5.340881,0.2286701,0.5639442,0.9392851,-0.1166534,-0.306839,0.9445801,33.24837,-0.682373,-30.86772,4.661026,0.4994045,0.6866894,0.203823,1.255338,-0.03513473,-0.1456557,0.001459749,0.01505825,0.047197301,0.15946611219999995,27.0917421686747
1,-0.02626038,-0.2690735,0.9627533,0.9352633,0.06248474,-0.2275238,0.971756,-23.92874,0.3813019,-23.96837,5.339035,0.2276316,0.5639442,0.9382007,-0.1128845,-0.3072357,0.9449005,33.24837,-0.6828766,-30.86891,4.660645,0.4987529,0.6867611,0.2040426,1.25544,-0.03529269,-0.1464345,0.001035801,0.01519665,0.047197301,0.15946611219999995,27.0917421686747
1,-0.02626038,-0.2690735,0.9627533,0.9352633,0.06248474,-0.2275238,0.971756,-23.92874,0.3813019,-23.96837,5.339035,0.2276316,0.5639442,0.9382007,-0.1128845,-0.3072357,0.9449005,33.24837,-0.6828766,-30.86891,4.660645,0.4987529,0.6867611,0.2040426,1.25544,-0.03529269,-0.1464345,0.001035801,0.01519665,0.047197301,0.15946611219999995,27.0917421686747
1,-0.02626038,-0.2690735,0.9627533,0.9352633,0.06248474,-0.2275238,0.971756,-23.92874,0.3813019,-23.96837,5.339035,0.2276316,0.5639442,0.9382007,-0.1128845,-0.3072357,0.9449005,33.24837,-0.6828766,-30.86891,4.660645,0.4987529,0.6867611,0.2040426,1.25544,-0.03529269,-0.1464345,0.001035801,0.01519665,0.047197301,0.15946611219999995,27.0917421686747
1,-0.02626038,-0.2690735,0.9627533,0.9352633,0.06248474,-0.2275238,0.971756,-23.92874,0.3813019,-23.96837,5.339035,0.2276316,0.5639442,0.9382007,-0.1128845,-0.3072357,0.9449005,33.24837,-0.6828766,-30.86891,4.660645,0.4987529,0.6867611,0.2040426,1.25544,-0.03529269,-0.1464345,0.001035801,0.01519665,0.047197301,0.15946611219999995,27.0917421686747
1,-0.02626038,-0.2690735,0.9627533,0.9352633,0.06248474,-0.2275238,0.971756,-23.92874,0.3813019,-23.96837,5.339035,0.2276316,0.5639442,0.9382007,-0.1128845,-0.3072357,0.9449005,33.24837,-0.6828766,-30.86891,4.660645,0.4987529,0.6867611,0.2040426,1.25544,-0.03529269,-0.1464345,0.001035801,0.01519665,0.047197301,0.15946611219999995,27.0917421686747
1,-0.02626038,-0.2690735,0.9627533,0.9352633,0.06248474,-0.2275238,0.971756,-23.92874,0.3813019,-23.96837,5.339035,0.2276316,0.5639442,0.9382007,-0.1128845,-0.3072357,0.9449005,33.24837,-0.6828766,-30.86891,4.660645,0.4987529,0.6867611,0.2040426,1.25544,-0.03529269,-0.1464345,0.001035801,0.01519665,0.047197301,0.15946611219999995,27.0917421686747
1,-0.02626038,-0.2690735,0.9627533,0.9352633,0.06248474,-0.2275238,0.971756,-23.92874,0.3813019,-23.96837,5.339035,0.2276316,0.5639442,0.9382007,-0.1128845,-0.3072357,0.9449005,33.24837,-0.6828766,-30.86891,4.660645,0.4987529,0.6867611,0.2040426,1.25544,-0.03529269,-0.1464345,0.001035801,0.01519665,0.047197301,0.15946611219999995,27.0917421686747
1,-0.02626038,-0.2690735,0.9627533,0.9352633,0.06248474,-0.2275238,0.971756,-23.92874,0.3813019,-23.96837,5.339035,0.2276316,0.5639442,0.9382007,-0.1128845,-0.3072357,0.9449005,33.24837,-0.6828766,-30.86891,4.660645,0.4987529,0.6867611,0.2040426,1.25544,-0.03529269,-0.1464345,0.001035801,0.01519665,0.047197301,0.15946611219999995,27.0917421686747
1,-0.02626038,-0.2690735,0.9627533,0.9352633,0.06248474,-0.2275238,0.971756,-23.92874,0.3813019,-23.96837,5.339035,0.2276316,0.5639442,0.9382007,-0.1128845,-0.3072357,0.9449005,33.24837,-0.6828766,-30.86891,4.660645,0.4987529,0.6867611,0.2040426,1.25544,-0.03529269,-0.1464345,0.001035801,0.01519665,0.047197301,0.15946611219999995,27.0917421686747
1,-0.1119232,-0.1356812,0.9844055,1.0,-0.003799438,-0.09674072,0.9953003,-24.54613,0.9780273,-23.63097,4.929764,0.2611339,0.5193956,1.0,-0.1418457,-0.146225,0.9790192,32.85046,-0.2581635,-30.81317,4.422058,0.5182768,0.6412079,0.2049525,1.255456,-0.03496087,-0.1463798,0.001953125,0.01467892,0.047197301,0.15946611219999995,27.0917421686747
1,-0.1119232,-0.1356812,0.9844055,1.0,-0.003799438,-0.09674072,0.9953003,-24.54613,0.9780273,-23.63097,4.929764,0.2611339,0.5193956,1.0,-0.1418457,-0.146225,0.9790192,32.85046,-0.2581635,-30.81317,4.422058,0.5182768,0.6412079,0.2049525,1.255456,-0.03496087,-0.1463798,0.001953125,0.01467892,0.047197301,0.15946611219999995,27.0917421686747
1,-0.1119232,-0.1356812,0.9844055,1.0,-0.003799438,-0.09674072,0.9953003,-24.54613,0.9780273,-23.63097,4.929764,0.2611339,0.5193956,1.0,-0.1418457,-0.146225,0.9790192,32.85046,-0.2581635,-30.81317,4.422058,0.5182768,0.6412079,0.2049525,1.255456,-0.03496087,-0.1463798,0.001953125,0.01467892,0.047197301,0.15946611219999995,27.0917421686747
1,-0.1119232,-0.1356812,0.9844055,1.0,-0.003799438,-0.09674072,0.9953003,-24.54613,0.9780273,-23.63097,4.929764,0.2611339,0.5193956,1.0,-0.1418457,-0.146225,0.9790192,32.85046,-0.2581635,-30.81317,4.422058,0.5182768,0.6412079,0.2049525,1.255456,-0.03496087,-0.1463798,0.001953125,0.01467892,0.047197301,0.15946611219999995,27.0917421686747
1,-0.1119232,-0.1356812,0.9844055,1.0,-0.003799438,-0.09674072,0.9953003,-24.54613,0.9780273,-23.63097,4.929764,0.2611339,0.5193956,1.0,-0.1418457,-0.146225,0.9790192,32.85046,-0.2581635,-30.81317,4.422058,0.5182768,0.6412079,0.2049525,1.255456,-0.03496087,-0.1463798,0.001953125,0.01467892,0.047197301,0.15946611219999995,27.0917421686747
1,-0.1119232,-0.1356812,0.9844055,1.0,-0.003799438,-0.09674072,0.9953003,-24.54613,0.9780273,-23.63097,4.929764,0.2611339,0.5193956,1.0,-0.1418457,-0.146225,0.9790192,32.85046,-0.2581635,-30.81317,4.422058,0.5182768,0.6412079,0.2049525,1.255456,-0.03496087,-0.1463798,0.001953125,0.01467892,0.047197301,0.15946611219999995,27.0917421686747
1,-0.1139679,-0.1278992,0.9852142,1.0,-0.01260376,-0.09307861,0.995575,-24.51416,0.901535,-23.37955,4.852966,0.2620303,0.5190233,1.0,-0.1257935,-0.131897,0.9832458,32.86676,-0.2675934,-30.81805,4.377472,0.5149479,0.6388311,0.2051083,1.255411,-0.03491676,-0.1459399,0.00211432,0.01397372,0.047197301,0.15946611219999995,27.0917421686747
1,-0.1139679,-0.1278992,0.9852142,1.0,-0.01260376,-0.09307861,0.995575,-24.51416,0.901535,-23.37955,4.852966,0.2620303,0.5190233,1.0,-0.1257935,-0.131897,0.9832458,32.86676,-0.2675934,-30.81805,4.377472,0.5149479,0.6388311,0.2051083,1.255411,-0.03491676,-0.1459399,0.00211432,0.01397372,0.047197301,0.15946611219999995,27.0917421686747
1,-0.06951904,-0.1124878,0.9912109,1.0,-0.01832581,-0.09379578,0.9954224,-24.51816,0.9001923,-23.38609,4.864044,0.2630731,0.5192521,1.0,-0.1239014,-0.1320648,0.9834595,32.86874,-0.27388,-30.82104,4.337265,0.5145609,0.639073,0.2051514,1.255412,-0.03493929,-0.1458993,0.002117841,0.01397105,0.047197301,0.15946611219999995,27.0917421686747
1,-0.06951904,-0.1124878,0.9912109,1.0,-0.01832581,-0.09379578,0.9954224,-24.51816,0.9001923,-23.38609,4.864044,0.2630731,0.5192521,1.0,-0.1239014,-0.1320648,0.9834595,32.86874,-0.27388,-30.82104,4.337265,0.5145609,0.639073,0.2051514,1.255412,-0.03493929,-0.1458993,0.002117841,0.01397105,0.047197301,0.15946611219999995,27.0917421686747
1,-0.068573,-0.1141357,0.9910889,1.0,-0.01924133,-0.0947876,0.9953003,-24.51918,0.8988495,-23.37299,4.844772,0.2632879,0.5193335,1.0,-0.1232605,-0.1352997,0.9830933,32.86916,-0.2743073,-30.82289,4.296555,0.5144426,0.6396773,0.2051613,1.255418,-0.03497303,-0.1459063,0.002142325,0.0139203,0.047197301,0.15946611219999995,27.0917421686747
1,-0.06590271,-0.1125488,0.9914551,1.0,-0.01785278,-0.09396362,0.9954071,-24.51909,0.8954926,-23.36642,4.844284,0.2630731,0.5192521,1.0,-0.1223297,-0.134079,0.9833832,32.87041,-0.2789612,-30.82927,4.296051,0.5142389,0.6396773,0.2051551,1.255416,-0.03499413,-0.1460269,0.002200654,0.01386613,0.047197301,0.15946611219999995,27.0917421686747
1,-0.06590271,-0.1125488,0.9914551,1.0,-0.01785278,-0.09396362,0.9954071,-24.51909,0.8954926,-23.36642,4.844284,0.2630731,0.5192521,1.0,-0.1223297,-0.134079,0.9833832,32.87041,-0.2789612,-30.82927,4.296051,0.5142389,0.6396773,0.2051551,1.255416,-0.03499413,-0.1460269,0.002200654,0.01386613,0.047197301,0.15946611219999995,27.0917421686747
1,-0.06480408,-0.1121368,0.9915619,1.0,-0.01759338,-0.09416199,0.9953918,-24.51909,0.8903656,-23.34477,4.836075,0.2630731,0.5192521,1.0,-0.1210022,-0.1332245,0.9836578,32.87102,-0.2885895,-30.83687,4.280319,0.5139909,0.6399154,0.2051475,1.255421,-0.03498757,-0.1460804,0.00218707,0.0138919,0.047197301,0.15946611219999995,27.0917421686747
1,-0.06547546,-0.1131439,0.9914093,1.0,-0.01754761,-0.09455872,0.9953613,-24.51822,0.8867035,-23.3241,4.836639,0.2630731,0.5192521,1.0,-0.1210327,-0.1344147,0.98349,32.87135,-0.2947235,-30.84216,4.258881,0.5139909,0.6403975,0.2051133,1.255383,-0.03501713,-0.1460673,0.002169969,0.01390316,0.047197301,0.15946611219999995,27.0917421686747
1,-0.06547546,-0.1131439,0.9914093,1.0,-0.01754761,-0.09455872,0.9953613,-24.51822,0.8867035,-23.3241,4.836639,0.2630731,0.5192521,1.0,-0.1210327,-0.1344147,0.98349,32.87135,-0.2947235,-30.84216,4.258881,0.5139909,0.6403975,0.2051133,1.255383,-0.03501713,-0.1460673,0.002169969,0.01390316,0.047197301,0.15946611219999995,27.0917421686747
1,-0.06547546,-0.1131439,0.9914093,1.0,-0.01754761,-0.09455872,0.9953613,-24.51822,0.8867035,-23.3241,4.836639,0.2630731,0.5192521,1.0,-0.1210327,-0.1344147,0.98349,32.87135,-0.2947235,-30.84216,4.258881,0.5139909,0.6403975,0.2050699,1.255386,-0.03509414,-0.1460618,0.001998377,0.01392779,0.047197301,0.15946611219999995,27.0917421686747
1,-0.06547546,-0.1131439,0.9914093,1.0,-0.01754761,-0.09455872,0.9953613,-24.51822,0.8867035,-23.3241,4.836639,0.2630731,0.5192521,1.0,-0.1210327,-0.1344147,0.98349,32.87135,-0.2947235,-30.84216,4.258881,0.5139909,0.6403975,0.2050728,1.255393,-0.03509045,-0.1461816,0.001964536,0.01392083,0.047197301,0.15946611219999995,27.0917421686747
1,-0.06547546,-0.1131439,0.9914093,1.0,-0.01754761,-0.09455872,0.9953613,-24.51822,0.8867035,-23.3241,4.836639,0.2630731,0.5192521,1.0,-0.1210327,-0.1344147,0.98349,32.87135,-0.2947235,-30.84216,4.258881,0.5139909,0.6403975,0.2050599,1.255384,-0.03508353,-0.14617,0.001773174,0.01385001,0.047197301,0.15946611219999995,27.0917421686747
1,-0.06547546,-0.1131439,0.9914093,1.0,-0.01754761,-0.09455872,0.9953613,-24.51822,0.8867035,-23.3241,4.836639,0.2630731,0.5192521,1.0,-0.1210327,-0.1344147,0.98349,32.87135,-0.2947235,-30.84216,4.258881,0.5139909,0.6403975,0.2050599,1.255384,-0.03508353,-0.14617,0.001773174,0.01385001,0.047197301,0.15946611219999995,27.0917421686747
1,-0.06547546,-0.1131439,0.9914093,1.0,-0.01754761,-0.09455872,0.9953613,-24.51822,0.8867035,-23.3241,4.836639,0.2630731,0.5192521,1.0,-0.1210327,-0.1344147,0.98349,32.87135,-0.2947235,-30.84216,4.258881,0.5139909,0.6403975,0.2049497,1.255374,-0.03510141,-0.1460993,0.001700243,0.01363149,0.047197301,0.15946611219999995,27.0917421686747
1,-0.07371521,-0.1343842,0.9881744,1.0,-0.01860046,-0.09895325,0.9949036,-24.51822,0.8777466,-23.29018,4.700638,0.2633772,0.5199097,1.0,-0.1157074,-0.1611176,0.9801178,32.87135,-0.2995605,-30.84467,4.09726,0.5130675,0.6453609,0.2049406,1.255381,-0.03512084,-0.1461072,0.001596276,0.01364842,0.047197301,0.15946611219999995,27.0917421686747
1,-0.07371521,-0.1343842,0.9881744,1.0,-0.01860046,-0.09895325,0.9949036,-24.51822,0.8777466,-23.29018,4.700638,0.2633772,0.5199097,1.0,-0.1157074,-0.1611176,0.9801178,32.87135,-0.2995605,-30.84467,4.09726,0.5130675,0.6453609,0.2049406,1.255381,-0.03512084,-0.1461072,0.001596276,0.01364842,0.047197301,0.15946611219999995,27.0917421686747
1,-0.07440186,-0.1360779,0.9878845,1.0,-0.01358032,-0.09567261,0.9953156,-24.51884,0.8761597,-23.28694,4.608643,0.2626483,0.5193335,1.0,-0.1160583,-0.1634827,0.9796906,32.86826,-0.2948151,-30.84686,3.878662,0.5133017,0.6455397,0.2049679,1.2554,-0.0351184,-0.1460532,0.001509926,0.01368549,0.047197301,2.559357,27.0917421686747
1,-0.06419373,-0.125351,0.9900208,1.0,-0.01321411,-0.08895874,0.9959412,-24.51884,0.8761597,-23.28694,4.535614,0.2626483,0.5181898,1.0,-0.1179199,-0.1633606,0.9794922,32.87033,-0.2553101,-30.84311,3.926559,0.5135474,0.6441283,0.204963,1.255421,-0.03511,-0.1460601,0.001490058,0.01375825,0.047197301,2.559357,27.0917421686747
1,-0.06454468,-0.1251831,0.9900208,1.0,-0.01319885,-0.08895874,0.9959412,-24.51884,0.8761597,-23.28694,4.527725,0.2626483,0.5181898,1.0,-0.1195374,-0.16362,0.979248,32.87498,-0.2543793,-30.83173,3.894913,0.5136741,0.6440198,0.2049545,1.255412,-0.03513265,-0.1461772,0.001524658,0.01384086,0.047197301,2.559357,27.0917421686747
1,-0.06454468,-0.1251831,0.9900208,1.0,-0.01319885,-0.08895874,0.9959412,-24.51884,0.8761597,-23.28694,4.527725,0.2626483,0.5181898,1.0,-0.1195374,-0.16362,0.979248,32.87498,-0.2543793,-30.83173,3.894913,0.5136741,0.6440198,0.2049545,1.255412,-0.03513265,-0.1461772,0.001524658,0.01384086,0.047197301,2.559357,27.0917421686747
1,-0.06800842,-0.1241455,0.9899139,1.0,-0.02090454,-0.08753967,0.9959412,-24.51839,0.8789063,-23.32404,4.485947,0.2638601,0.5181898,1.0,-0.1204376,-0.1645966,0.9789734,32.87579,-0.2529297,-30.82036,3.885361,0.5137992,0.6440198,0.2048439,1.255411,-0.03510606,-0.1461984,0.001568022,0.01399343,0.047197301,2.559357,27.0917421686747
1,-0.097229,-0.1199799,0.9879913,1.0,-0.02198792,-0.08851624,0.9958191,-24.51884,0.9224396,-23.43187,4.460022,0.2638601,0.5178816,1.0,-0.1471558,-0.1405487,0.9790649,32.88132,-0.2545013,-30.84094,3.689255,0.5184143,0.6399691,0.2048556,1.255439,-0.03508335,-0.1462511,0.00149505,0.01407148,0.047197301,2.559357,27.0917421686747
1,-0.097229,-0.1199799,0.9879913,1.0,-0.02198792,-0.08851624,0.9958191,-24.51884,0.9224396,-23.43187,4.460022,0.2638601,0.5178816,1.0,-0.1471558,-0.1405487,0.9790649,32.88132,-0.2545013,-30.84094,3.689255,0.5184143,0.6399691,0.2048556,1.255439,-0.03508335,-0.1462511,0.00149505,0.01407148,0.047197301,2.559357,27.0917421686747
1,-0.09346008,-0.1383057,0.9859619,1.0,-0.0211792,-0.08638,0.9960327,-24.52292,0.9415894,-23.44487,4.396439,0.2638877,0.516982,1.0,-0.1230621,-0.1594086,0.9795074,32.88451,-0.2540741,-30.83601,3.635818,0.5140458,0.6431625,0.2047019,1.255435,-0.03506196,-0.1463728,0.001454636,0.01413172,0.047197301,2.559357,27.0917421686747
2,-0.09275818,-0.1431732,0.9853363,1.0,-0.02288818,-0.08583069,0.9960327,-24.52486,0.9513702,-23.45412,4.396805,0.2642201,0.5166588,1.0,-0.122757,-0.1676025,0.9781799,32.88448,-0.2536469,-30.83264,3.587906,0.5139936,0.644612,0.2045985,1.255436,-0.03505111,-0.1463837,0.001348311,0.01422211,0.047197301,2.559357,27.0917421686747
2,-0.09275818,-0.1431732,0.9853363,1.0,-0.02288818,-0.08583069,0.9960327,-24.52486,0.9513702,-23.45412,4.396805,0.2642201,0.5166588,1.0,-0.122757,-0.1676025,0.9781799,32.88448,-0.2536469,-30.83264,3.587906,0.5139936,0.644612,0.2045985,1.255436,-0.03505111,-0.1463837,0.001348311,0.01422211,0.047197301,2.559357,27.0917421686747
2,-0.08834839,-0.1343689,0.986969,1.0,-0.02264404,-0.08590698,0.9960327,-24.52771,0.952179,-23.45807,4.340317,0.2642971,0.5166588,1.0,-0.1229401,-0.1596985,0.9794769,32.88452,-0.2525787,-30.83008,3.560257,0.5140458,0.6430727,0.2044529,1.255415,-0.03503656,-0.1464103,0.001226791,0.01432078,0.047197301,2.559357,27.0917421686747
2,-0.08288574,-0.1303864,0.9879761,1.0,-0.02850342,-0.08555603,0.9959106,-24.52773,0.9538574,-23.46983,4.327682,0.2652452,0.5166588,1.0,-0.1226349,-0.1629486,0.9789734,32.88458,-0.2515106,-30.82753,3.530777,0.5139936,0.6435965,0.2043045,1.255378,-0.03503424,-0.1464189,0.0008970299,0.01430777,0.047197301,2.559357,27.0917421686747
2,-0.08288574,-0.1303864,0.9879761,1.0,-0.02850342,-0.08555603,0.9959106,-24.52773,0.9538574,-23.46983,4.327682,0.2652452,0.5166588,1.0,-0.1226349,-0.1629486,0.9789734,32.88458,-0.2515106,-30.82753,3.530777,0.5139936,0.6435965,0.2043045,1.255378,-0.03503424,-0.1464189,0.0008970299,0.01430777,0.047197301,2.559357,27.0917421686747
2,-0.08288574,-0.1303864,0.9879761,1.0,-0.02850342,-0.08555603,0.9959106,-24.52773,0.9538574,-23.46983,4.327682,0.2652452,0.5166588,1.0,-0.1226349,-0.1629486,0.9789734,32.88458,-0.2515106,-30.82753,3.530777,0.5139936,0.6435965,0.2043045,1.255378,-0.03503424,-0.1464189,0.0008970299,0.01430777,0.047197301,2.559357,27.0917421686747
2,-0.08288574,-0.1303864,0.9879761,1.0,-0.02850342,-0.08555603,0.9959106,-24.52773,0.9538574,-23.46983,4.327682,0.2652452,0.5166588,1.0,-0.1226349,-0.1629486,0.9789734,32.88458,-0.2515106,-30.82753,3.530777,0.5139936,0.6435965,0.2043045,1.255378,-0.03503424,-0.1464189,0.0008970299,0.01430777,0.047197301,2.559357,27.0917421686747
2,-0.08288574,-0.1303864,0.9879761,1.0,-0.02850342,-0.08555603,0.9959106,-24.52773,0.9538574,-23.46983,4.327682,0.2652452,0.5166588,1.0,-0.1226349,-0.1629486,0.9789734,32.88458,-0.2515106,-30.82753,3.530777,0.5139936,0.6435965,0.2041677,1.255408,-0.03497839,-0.1463146,0.00059802,0.01445799,0.047197301,2.559357,27.0917421686747
2,-0.0178833,-0.1364136,0.9904785,1.0,0.0348053,-0.09124756,0.9952087,-24.06476,0.7754517,-23.50395,4.156647,0.2392768,0.5233926,1.0,-0.05950928,-0.1716919,0.9833374,33.19489,-0.3869324,-30.8253,3.486435,0.4919326,0.6495093,0.2039558,1.255422,-0.03488767,-0.1463004,0.000211432,0.01479067,0.047197301,4.503967,27.0917421686747
2,-0.0178833,-0.1364136,0.9904785,1.0,0.0348053,-0.09124756,0.9952087,-24.06476,0.7754517,-23.50395,4.156647,0.2392768,0.5233926,1.0,-0.05950928,-0.1716919,0.9833374,33.19489,-0.3869324,-30.8253,3.486435,0.4919326,0.6495093,0.2039558,1.255422,-0.03488767,-0.1463004,0.000211432,0.01479067,0.047197301,4.503967,27.0917421686747
2,-0.04241943,-0.1746368,0.9837036,1.0,0.008880615,-0.1420898,0.9898071,-23.92085,0.6188507,-23.11659,3.789581,0.2395885,0.5333912,1.0,-0.04302979,-0.1750183,0.9836121,33.29736,-0.4425659,-30.82687,3.565186,0.4854003,0.6520555,0.203769,1.255402,-0.0348835,-0.1462233,-0.0003662109,0.01493903,0.047197301,4.503967,27.0917421686747
2,-0.04518127,-0.1723633,0.9839935,1.0,0.01016235,-0.141449,0.9898834,-23.92421,0.6012573,-23.06441,3.790878,0.2395885,0.5333912,1.0,-0.04571533,-0.1726685,0.9839172,33.29893,-0.441803,-30.82672,3.53334,0.4858232,0.6515816,0.203482,1.255365,-0.03485644,-0.1461122,-0.0009841624,0.01512047,0.047197301,4.503967,27.0917421686747
2,-0.04518127,-0.1723633,0.9839935,1.0,0.01016235,-0.141449,0.9898834,-23.92421,0.6012573,-23.06441,3.790878,0.2395885,0.5333912,1.0,-0.04571533,-0.1726685,0.9839172,33.29893,-0.441803,-30.82672,3.53334,0.4858232,0.6515816,0.203482,1.255365,-0.03485644,-0.1461122,-0.0009841624,0.01512047,0.047197301,4.503967,27.0917421686747
2,-0.0438385,-0.1693573,0.9845734,1.0,0.009246826,-0.1405792,0.9900208,-23.92715,0.5944214,-23.03413,3.768036,0.2399214,0.5331869,1.0,-0.04673767,-0.1709137,0.9841614,33.29922,-0.4419556,-30.82672,3.500595,0.4859998,0.65125,0.2031873,1.255312,-0.03479207,-0.1459307,-0.001879249,0.01511948,0.047197301,4.503967,27.0917421686747
2,-0.0438385,-0.1693573,0.9845734,1.0,0.009246826,-0.1405792,0.9900208,-23.92715,0.5944214,-23.03413,3.768036,0.2399214,0.5331869,1.0,-0.04673767,-0.1709137,0.9841614,33.29922,-0.4419556,-30.82672,3.500595,0.4859998,0.65125,0.2031873,1.255312,-0.03479207,-0.1459307,-0.001879249,0.01511948,0.047197301,4.503967,27.0917421686747
2,-0.02619934,-0.1604309,0.9866943,1.0,0.01434326,-0.1402283,0.9900055,-23.92699,0.5732422,-22.94362,3.716858,0.239285,0.5329776,1.0,-0.0478363,-0.1710968,0.9840851,33.30034,-0.4418793,-30.82637,3.463028,0.4861584,0.6512659,0.2028648,1.255262,-0.03475207,-0.1456877,-0.002919497,0.01518586,0.047197301,4.503967,27.0917421686747
2,-0.02619934,-0.1604309,0.9866943,1.0,0.01434326,-0.1402283,0.9900055,-23.92699,0.5732422,-22.94362,3.716858,0.239285,0.5329776,1.0,-0.0478363,-0.1710968,0.9840851,33.30034,-0.4418793,-30.82637,3.463028,0.4861584,0.6512659,0.2028648,1.255262,-0.03475207,-0.1456877,-0.002919497,0.01518586,0.047197301,4.503967,27.0917421686747
2,-0.02844238,-0.1623993,0.9863129,1.0,0.01457214,-0.1403961,0.989975,-23.92737,0.5739746,-22.92679,3.714035,0.2393072,0.5328372,1.0,-0.04785156,-0.1722107,0.9838867,33.30034,-0.4417419,-30.82629,3.456787,0.4861584,0.6514587,0.2025989,1.255211,-0.03463286,-0.1452699,-0.00388713,0.01528854,0.047197301,4.503967,27.0917421686747
2,-0.02844238,-0.1623993,0.9863129,1.0,0.01457214,-0.1403961,0.989975,-23.92737,0.5739746,-22.92679,3.714035,0.2393072,0.5328372,1.0,-0.04785156,-0.1722107,0.9838867,33.30034,-0.4417419,-30.82629,3.456787,0.4861584,0.6514587,0.2025989,1.255211,-0.03463286,-0.1452699,-0.00388713,0.01528854,0.047197301,4.503967,27.0917421686747
2,-0.02481079,-0.1600342,0.9867859,1.0,0.01657104,-0.1366577,0.9904785,-23.92798,0.5739288,-22.92412,3.690887,0.2390258,0.5321645,1.0,-0.04815674,-0.1730652,0.9837189,33.29922,-0.4409027,-30.82642,3.437592,0.4862545,0.6515875,0.2021983,1.25517,-0.03456903,-0.1447148,-0.005052296,0.01542294,0.047197301,4.503967,27.0917421686747
2,-0.02481079,-0.1600342,0.9867859,1.0,0.01657104,-0.1366577,0.9904785,-23.92798,0.5739288,-22.92412,3.690887,0.2390258,0.5321645,1.0,-0.04815674,-0.1730652,0.9837189,33.29922,-0.4409027,-30.82642,3.437592,0.4862545,0.6515875,0.2021983,1.25517,-0.03456903,-0.1447148,-0.005052296,0.01542294,0.047197301,4.503967,27.0917421686747
2,-0.02073669,-0.1532135,0.9879608,1.0,0.01208496,-0.1318359,0.9911957,-23.9303,0.5735626,-22.90874,3.636108,0.2399214,0.5312118,1.0,-0.04956055,-0.171814,0.9838715,33.29887,-0.4391479,-30.82698,3.36174,0.4865257,0.6512659,0.2018447,1.25502,-0.0344615,-0.1441952,-0.006431612,0.01546203,0.047197301,4.503967,27.0917421686747
2,-0.02073669,-0.1532135,0.9879608,1.0,0.01208496,-0.1318359,0.9911957,-23.9303,0.5735626,-22.90874,3.636108,0.2399214,0.5312118,1.0,-0.04956055,-0.171814,0.9838715,33.29887,-0.4391479,-30.82698,3.36174,0.4865257,0.6512659,0.2018447,1.25502,-0.0344615,-0.1441952,-0.006431612,0.01546203,0.047197301,4.503967,27.0917421686747
2,-0.02131653,-0.1539154,0.9878387,1.0,0.01107788,-0.129776,0.9914703,-23.93373,0.5722198,-22.90729,3.598907,0.2402288,0.5308848,1.0,-0.05352783,-0.1776886,0.9826202,33.23451,-0.4516602,-30.83742,3.155746,0.4895096,0.6528574,0.2014685,1.254912,-0.03443754,-0.143392,-0.007446289,0.01509482,0.047197301,6.656448,27.0917421686747
2,-0.02131653,-0.1539154,0.9878387,1.0,0.01107788,-0.129776,0.9914703,-23.93373,0.5722198,-22.90729,3.598907,0.2402288,0.5308848,1.0,-0.05352783,-0.1776886,0.9826202,33.23451,-0.4516602,-30.83742,3.155746,0.4895096,0.6528574,0.2014685,1.254912,-0.03443754,-0.143392,-0.007446289,0.01509482,0.047197301,6.656448,27.0917421686747
2,-0.1364594,-0.2400513,0.9611053,1.0,-0.09388733,-0.2119446,0.9727478,-24.57323,0.3148193,-23.21014,3.483429,0.2777779,0.5564052,1.0,-0.1488495,-0.2481537,0.9571991,32.64882,-0.7510986,-30.98175,3.090332,0.5269365,0.6791843,0.2011886,1.254703,-0.03439105,-0.1422031,-0.00847488,0.01456069,0.047197301,6.656448,27.0917421686747
2,-0.1364594,-0.2400513,0.9611053,1.0,-0.09388733,-0.2119446,0.9727478,-24.57323,0.3148193,-23.21014,3.483429,0.2777779,0.5564052,1.0,-0.1488495,-0.2481537,0.9571991,32.64882,-0.7510986,-30.98175,3.090332,0.5269365,0.6791843,0.2011886,1.254703,-0.03439105,-0.1422031,-0.00847488,0.01456069,0.047197301,6.656448,27.0917421686747
2,-0.2237701,-0.3185883,0.9210968,1.0,-0.1966095,-0.2843628,0.938324,-24.99966,0.01548767,-23.38069,3.325058,0.3079488,0.5813144,1.0,-0.2249908,-0.3201141,0.9202576,32.14948,-1.016632,-31.18166,2.955566,0.5583066,0.7061432,0.2009875,1.254395,-0.03426903,-0.140227,-0.00920802,0.01404923,0.047197301,6.656448,27.0917421686747
2,-0.2237701,-0.3185883,0.9210968,1.0,-0.1966095,-0.2843628,0.938324,-24.99966,0.01548767,-23.38069,3.325058,0.3079488,0.5813144,1.0,-0.2249908,-0.3201141,0.9202576,32.14948,-1.016632,-31.18166,2.955566,0.5583066,0.7061432,0.2009875,1.254395,-0.03426903,-0.140227,-0.00920802,0.01404923,0.047197301,6.656448,27.0917421686747
2,-0.2453766,-0.3542938,0.902359,1.0,-0.2168732,-0.3110352,0.9253082,-25.11618,-0.110611,-23.46059,3.378357,0.3147325,0.5912078,1.0,-0.2475433,-0.3575745,0.9004669,32.03435,-1.106796,-31.24391,3.1194,0.5663933,0.7180865,0.2008997,1.254064,-0.03416711,-0.1378312,-0.009798377,0.01339051,0.047197301,6.656448,27.0917421686747
2,-0.2453766,-0.3542938,0.902359,1.0,-0.2168732,-0.3110352,0.9253082,-25.11618,-0.110611,-23.46059,3.378357,0.3147325,0.5912078,1.0,-0.2475433,-0.3575745,0.9004669,32.03435,-1.106796,-31.24391,3.1194,0.5663933,0.7180865,0.2008997,1.254064,-0.03416711,-0.1378312,-0.009798377,0.01339051,0.047197301,6.656448,27.0917421686747
2,-0.2332458,-0.321167,0.9178314,1.0,-0.2075958,-0.3131409,0.9267273,-25.20863,-0.07626343,-23.45418,3.40303,0.3162407,0.5903013,1.0,-0.2695465,-0.3321838,0.9038696,32.09261,-1.12883,-31.26472,3.114304,0.5683254,0.7143421,0.2008308,1.253657,-0.03402996,-0.1350514,-0.009843137,0.01282958,0.04227882,6.656448,27.0917421686747
2,-0.2332458,-0.321167,0.9178314,1.0,-0.2075958,-0.3131409,0.9267273,-25.20863,-0.07626343,-23.45418,3.40303,0.3162407,0.5903013,1.0,-0.2695465,-0.3321838,0.9038696,32.09261,-1.12883,-31.26472,3.114304,0.5683254,0.7143421,0.2008308,1.253657,-0.03402996,-0.1350514,-0.009843137,0.01282958,0.04227882,6.656448,27.0917421686747
2,-0.2450104,-0.3106384,0.918396,1.0,-0.2207031,-0.2908173,0.9309692,-25.25276,-0.03721619,-23.4655,3.275833,0.3200429,0.5853019,1.0,-0.267746,-0.329071,0.9055328,32.10156,-1.089996,-31.25864,3.147583,0.5676572,0.7122108,0.2008067,1.253027,-0.03396356,-0.1317925,-0.009686723,0.01249359,0.04227882,6.656448,27.0917421686747
2,-0.2450104,-0.3106384,0.918396,1.0,-0.2207031,-0.2908173,0.9309692,-25.25276,-0.03721619,-23.4655,3.275833,0.3200429,0.5853019,1.0,-0.267746,-0.329071,0.9055328,32.10156,-1.089996,-31.25864,3.147583,0.5676572,0.7122108,0.2008067,1.253027,-0.03396356,-0.1317925,-0.009686723,0.01249359,0.04227882,6.656448,27.0917421686747
2,-0.2415924,-0.3059692,0.9208679,1.0,-0.2178497,-0.281601,0.9344635,-25.25569,-0.03128052,-23.45882,3.291565,0.3197182,0.5833585,1.0,-0.2639771,-0.3288727,0.906723,32.07062,-1.038147,-31.23044,3.024353,0.5681382,0.7099309,0.200945,1.252414,-0.03384846,-0.1275107,-0.008974452,0.01233514,0.04227882,6.656448,27.0917421686747
2,-0.2415924,-0.3059692,0.9208679,1.0,-0.2178497,-0.281601,0.9344635,-25.25569,-0.03128052,-23.45882,3.291565,0.3197182,0.5833585,1.0,-0.2639771,-0.3288727,0.906723,32.07062,-1.038147,-31.23044,3.024353,0.5681382,0.7099309,0.200945,1.252414,-0.03384846,-0.1275107,-0.008974452,0.01233514,0.04227882,6.656448,27.0917421686747
2,-0.2432404,-0.307724,0.9198456,1.0,-0.2180939,-0.2791595,0.9351349,-25.25934,0.007064819,-23.43082,3.292618,0.3199367,0.5814148,1.0,-0.2618866,-0.3288574,0.9073334,32.07068,-1.038971,-31.23094,2.939758,0.5678158,0.7099309,0.2011237,1.251765,-0.03366685,-0.1229746,-0.007912944,0.01217648,0.04227882,6.656448,27.0917421686747
2,-0.2432404,-0.307724,0.9198456,1.0,-0.2180939,-0.2791595,0.9351349,-25.25934,0.007064819,-23.43082,3.292618,0.3199367,0.5814148,1.0,-0.2618866,-0.3288574,0.9073334,32.07068,-1.038971,-31.23094,2.939758,0.5678158,0.7099309,0.2011237,1.251765,-0.03366685,-0.1229746,-0.007912944,0.01217648,0.04227882,6.656448,27.0917421686747
2,-0.2419739,-0.3088226,0.9198151,1.0,-0.217453,-0.2859497,0.9332428,-25.27086,0.03948975,-23.40834,3.309052,0.3202031,0.5813578,1.0,-0.2611237,-0.3266144,0.9083557,32.07069,-1.036682,-31.228,2.906601,0.5676963,0.7093359,0.2014424,1.251083,-0.033481,-0.1175364,-0.006201605,0.01191734,0.04227882,7.339203,27.0917421686747
2,-0.2419739,-0.3088226,0.9198151,1.0,-0.217453,-0.2859497,0.9332428,-25.27086,0.03948975,-23.40834,3.309052,0.3202031,0.5813578,1.0,-0.2611237,-0.3266144,0.9083557,32.07069,-1.036682,-31.228,2.906601,0.5676963,0.7093359,0.2014424,1.251083,-0.033481,-0.1175364,-0.006201605,0.01191734,0.04227882,7.339203,27.0917421686747
2,-0.2406464,-0.3022766,0.9223328,1.0,-0.221283,-0.2776184,0.934845,-25.28149,0.04364014,-23.44693,3.30954,0.3211734,0.580146,1.0,-0.259552,-0.3263397,0.908905,32.07066,-1.023163,-31.22794,2.940842,0.5673908,0.708775,0.2018886,1.250322,-0.03327608,-0.1112931,-0.003742605,0.01159604,0.04227882,7.339203,27.0917421686747
2,-0.2406464,-0.3022766,0.9223328,1.0,-0.221283,-0.2776184,0.934845,-25.28149,0.04364014,-23.44693,3.30954,0.3211734,0.580146,1.0,-0.259552,-0.3263397,0.908905,32.07066,-1.023163,-31.22794,2.940842,0.5673908,0.708775,0.2018886,1.250322,-0.03327608,-0.1112931,-0.003742605,0.01159604,0.04227882,7.339203,27.0917421686747
2,-0.2407837,-0.3039093,0.9217682,1.0,-0.2192078,-0.2781219,0.9351807,-25.2944,0.04837036,-23.44115,3.334717,0.3212445,0.580002,1.0,-0.2577057,-0.3241272,0.9102173,32.06833,-1.005234,-31.22148,2.973709,0.5671179,0.7075832,0.2025987,1.249391,-0.03303492,-0.1042538,-0.0004882813,0.0111706,0.04227882,7.339203,27.0917421686747
2,-0.2407837,-0.3039093,0.9217682,1.0,-0.2192078,-0.2781219,0.9351807,-25.2944,0.04837036,-23.44115,3.334717,0.3212445,0.580002,1.0,-0.2577057,-0.3241272,0.9102173,32.06833,-1.005234,-31.22148,2.973709,0.5671179,0.7075832,0.2025987,1.249391,-0.03303492,-0.1042538,-0.0004882813,0.0111706,0.04227882,7.339203,27.0917421686747
2,-0.2384033,-0.299942,0.9236755,1.0,-0.2142334,-0.2722931,0.9380493,-25.32065,0.06193542,-23.43716,3.352386,0.3213155,0.5784379,1.0,-0.256546,-0.3206787,0.9117737,32.0677,-0.9764709,-31.21385,2.974701,0.5669272,0.7057419,0.2033447,1.248312,-0.03282952,-0.09648329,0.003516812,0.01087043,0.04227882,7.339203,27.0917421686747
2,-0.2384033,-0.299942,0.9236755,1.0,-0.2142334,-0.2722931,0.9380493,-25.32065,0.06193542,-23.43716,3.352386,0.3213155,0.5784379,1.0,-0.256546,-0.3206787,0.9117737,32.0677,-0.9764709,-31.21385,2.974701,0.5669272,0.7057419,0.2033447,1.248312,-0.03282952,-0.09648329,0.003516812,0.01087043,0.04227882,7.339203,27.0917421686747
2,-0.2379761,-0.2926178,0.9261322,1.0,-0.2140961,-0.2660065,0.9398804,-25.32065,0.07345581,-23.43416,3.375229,0.3213155,0.5769119,1.0,-0.2559204,-0.3125916,0.9147491,32.06812,-0.9341278,-31.19887,2.972534,0.5667965,0.7024255,0.2037967,1.247719,-0.03271258,-0.09242924,0.005897399,0.01063064,0.04227882,7.339203,27.0917421686747
2,-0.2311859,-0.2669983,0.9355469,1.0,-0.209671,-0.2655792,0.9409943,-25.32339,0.08256531,-23.43416,3.387589,0.3206798,0.5764945,1.0,-0.2486725,-0.2680511,0.9307404,32.04797,-0.8672333,-31.15967,2.899857,0.566269,0.6906098,0.2043267,1.247085,-0.03262222,-0.08830165,0.008681594,0.01010459,0.04227882,7.339203,27.0917421686747
2,-0.2311859,-0.2669983,0.9355469,1.0,-0.209671,-0.2655792,0.9409943,-25.32339,0.08256531,-23.43416,3.387589,0.3206798,0.5764945,1.0,-0.2486725,-0.2680511,0.9307404,32.04797,-0.8672333,-31.15967,2.899857,0.566269,0.6906098,0.2043267,1.247085,-0.03262222,-0.08830165,0.008681594,0.01010459,0.04227882,7.339203,27.0917421686747
2,-0.2501831,-0.3055878,0.9187012,1.0,-0.2200317,-0.2926483,0.930542,-25.53934,0.001434326,-23.50929,3.217682,0.3293168,0.5848266,1.0,-0.2809753,-0.3185577,0.9052887,31.79092,-1.008286,-31.28296,2.940887,0.5813049,0.7077894,0.2054385,1.245777,-0.03241473,-0.07970136,0.01516426,0.009245165,0.04227882,7.339203,27.0917421686747
2,-0.2992096,-0.3264313,0.8966064,1.0,-0.2819366,-0.3134155,0.9067841,-25.6454,-0.1490173,-23.61002,3.191895,0.3426796,0.5953299,1.0,-0.3266144,-0.3469849,0.8791504,31.55727,-1.151062,-31.4292,2.848053,0.5982448,0.7215021,0.2067227,1.244414,-0.03214359,-0.07053921,0.02247055,0.008271108,0.04227882,7.339203,27.0917421686747
2,-0.2992096,-0.3264313,0.8966064,1.0,-0.2819366,-0.3134155,0.9067841,-25.6454,-0.1490173,-23.61002,3.191895,0.3426796,0.5953299,1.0,-0.3266144,-0.3469849,0.8791504,31.55727,-1.151062,-31.4292,2.848053,0.5982448,0.7215021,0.2067227,1.244414,-0.03214359,-0.07053921,0.02247055,0.008271108,0.04227882,7.339203,27.0917421686747
2,-0.2992096,-0.3264313,0.8966064,1.0,-0.2819366,-0.3134155,0.9067841,-25.6454,-0.1490173,-23.61002,3.191895,0.3426796,0.5953299,1.0,-0.3266144,-0.3469849,0.8791504,31.55727,-1.151062,-31.4292,2.848053,0.5982448,0.7215021,0.2067227,1.244414,-0.03214359,-0.07053921,0.02247055,0.008271108,0.04227882,7.339203,27.0917421686747
2,-0.3495941,-0.3904724,0.8516388,1.0,-0.339859,-0.394165,0.8538818,-25.97025,-0.1927032,-23.78561,2.989914,0.3624393,0.6146368,1.0,-0.385498,-0.3763733,0.8424377,31.30312,-1.224701,-31.59074,3.126404,0.6183334,0.7338954,0.2081349,1.2431,-0.03192818,-0.06202073,0.03073967,0.007212486,0.04227882,1.471085,27.0917421686747
2,-0.3411255,-0.4118958,0.8449554,1.0,-0.3172455,-0.4236145,0.848465,-26.00066,-0.2082977,-23.79617,2.603088,0.3598643,0.620569,1.0,-0.3822937,-0.3907013,0.8373718,31.3002,-1.201508,-31.58482,3.066696,0.6179056,0.7359325,0.2089044,1.242499,-0.03183067,-0.05803901,0.03523881,0.006607602,0.04227882,1.471085,27.0917421686747
2,-0.3470306,-0.3761292,0.8591156,1.0,-0.3132019,-0.3700562,0.8746033,-26.00531,-0.1199341,-23.7393,3.092056,0.3592673,0.6066914,1.0,-0.3726807,-0.3804321,0.8463745,31.33749,-1.152069,-31.54123,3.026779,0.6147112,0.7311364,0.2097316,1.241893,-0.03172523,-0.05429083,0.03990131,0.006031064,0.04227882,1.471085,27.0917421686747
2,-0.3451385,-0.3730774,0.8612061,1.0,-0.3311005,-0.3833923,0.8621826,-25.98045,-0.07246399,-23.73598,3.015274,0.3614363,0.6079839,1.0,-0.3555908,-0.3652649,0.8603058,31.34956,-1.119766,-31.50012,2.864426,0.6111554,0.7258353,0.2106104,1.241288,-0.03164804,-0.0504109,0.04468491,0.005682501,0.04227882,1.471085,27.0917421686747
2,-0.3451385,-0.3730774,0.8612061,1.0,-0.3311005,-0.3833923,0.8621826,-25.98045,-0.07246399,-23.73598,3.015274,0.3614363,0.6079839,1.0,-0.3555908,-0.3652649,0.8603058,31.34956,-1.119766,-31.50012,2.864426,0.6111554,0.7258353,0.2106104,1.241288,-0.03164804,-0.0504109,0.04468491,0.005682501,0.04227882,1.471085,27.0917421686747
2,-0.3439941,-0.324585,0.881073,1.0,-0.3279114,-0.2995758,0.8959351,-25.89168,-0.06234741,-23.68333,3.372757,0.3581552,0.5915271,1.0,-0.3602448,-0.3501434,0.8646393,31.46985,-1.064987,-31.45055,2.918839,0.6075651,0.7201952,0.2122989,1.239942,-0.03149629,-0.04225396,0.05452076,0.004818299,0.04227882,1.471085,27.0917421686747
2,-0.3134766,-0.3348541,0.8885803,1.0,-0.2745209,-0.3336792,0.9018097,-25.82607,-0.0378418,-23.61824,2.919296,0.3475211,0.5954405,1.0,-0.3501434,-0.3354645,0.8745575,31.53508,-1.069733,-31.42964,3.005661,0.6032472,0.7167957,0.2141072,1.23846,-0.03154123,-0.03401121,0.06479865,0.004134203,0.04227882,1.471085,27.0917421686747
2,-0.3134766,-0.3348541,0.8885803,1.0,-0.2745209,-0.3336792,0.9018097,-25.82607,-0.0378418,-23.61824,2.919296,0.3475211,0.5954405,1.0,-0.3501434,-0.3354645,0.8745575,31.53508,-1.069733,-31.42964,3.005661,0.6032472,0.7167957,0.2141072,1.23846,-0.03154123,-0.03401121,0.06479865,0.004134203,0.04227882,1.471085,27.0917421686747
2,-0.3186951,-0.2983856,0.8996582,1.0,-0.2874908,-0.2664642,0.9199524,-25.72961,0.02206421,-23.58322,3.299866,0.3465692,0.5811501,1.0,-0.3394928,-0.3197021,0.8845978,31.6503,-1.013458,-31.36775,3.023529,0.597064,0.7105193,0.2149867,1.237729,-0.03164428,-0.03010686,0.07003763,0.003858272,0.04227882,1.471085,27.0917421686747
2,-0.3057556,-0.3083191,0.9007874,1.0,-0.2725372,-0.2961426,0.9154205,-25.65654,0.08491516,-23.52863,3.060684,0.3418556,0.583676,1.0,-0.328125,-0.3163452,0.8900757,31.70361,-0.9443665,-31.31642,2.991898,0.5930343,0.70648,0.2158451,1.237074,-0.0317421,-0.0262025,0.07518194,0.003896702,0.04227882,1.471085,27.0917421686747
2,-0.3057556,-0.3083191,0.9007874,1.0,-0.2725372,-0.2961426,0.9154205,-25.65654,0.08491516,-23.52863,3.060684,0.3418556,0.583676,1.0,-0.328125,-0.3163452,0.8900757,31.70361,-0.9443665,-31.31642,2.991898,0.5930343,0.70648,0.2158451,1.237074,-0.0317421,-0.0262025,0.07518194,0.003896702,0.04227882,1.471085,27.0917421686747
2,-0.2943268,-0.2901001,0.9105988,1.0,-0.2654724,-0.2779846,0.9231567,-25.6035,0.1724396,-23.48701,3.243073,0.3389741,0.5770542,1.0,-0.3225861,-0.3017578,0.8971405,31.79272,-0.8717041,-31.27002,2.998016,0.5887861,0.7002526,0.2175839,1.235737,-0.03191304,-0.01876392,0.08533423,0.003734634,0.04227882,1.471085,27.0917421686747
2,-0.2633514,-0.248291,0.9321899,1.0,-0.2406311,-0.2189636,0.9455872,-25.50623,0.1573639,-23.46751,3.580811,0.3317553,0.5665921,1.0,-0.3001709,-0.2961121,0.9067535,31.86829,-0.8405304,-31.22987,3.060394,0.5819195,0.6970491,0.2184465,1.235119,-0.03205562,-0.01562738,0.09011856,0.003846668,0.04227882,1.471085,27.0917421686747
2,-0.250824,-0.271759,0.9290924,1.0,-0.2239838,-0.2527924,0.9412231,-25.40964,0.2106171,-23.42813,3.197159,0.3260922,0.5701894,1.0,-0.2856903,-0.2962494,0.911377,31.95744,-0.8006439,-31.19579,2.969467,0.5761488,0.6949385,0.2192359,1.234486,-0.03219783,-0.01274978,0.09488586,0.003892876,0.04227882,1.471085,27.0917421686747
2,-0.250824,-0.271759,0.9290924,1.0,-0.2239838,-0.2527924,0.9412231,-25.40964,0.2106171,-23.42813,3.197159,0.3260922,0.5701894,1.0,-0.2856903,-0.2962494,0.911377,31.95744,-0.8006439,-31.19579,2.969467,0.5761488,0.6949385,0.2192359,1.234486,-0.03219783,-0.01274978,0.09488586,0.003892876,0.04227882,1.471085,27.0917421686747
2,-0.2347412,-0.2330627,0.9436951,1.0,-0.1838074,-0.1960144,0.9632111,-25.19958,0.2252197,-23.37227,3.533554,0.3127488,0.5588375,1.0,-0.2758636,-0.2627869,0.9245758,32.05554,-0.762085,-31.16557,2.924805,0.5709187,0.6863733,0.2207124,1.23361,-0.03253913,-0.007794359,0.1039659,0.004460162,0.04227882,-5.949188,27.0917421686747
2,-0.2462616,-0.2458954,0.9374847,1.0,-0.228653,-0.2445526,0.942276,-25.18257,0.2896271,-23.38657,3.289032,0.3194804,0.5658003,1.0,-0.2620239,-0.2470398,0.9328918,32.08617,-0.7438049,-31.14157,3.03627,0.5672552,0.6821308,0.2214937,1.233194,-0.03263748,-0.005378025,0.1083574,0.004735636,0.04227882,-5.949188,27.0917421686747
2,-0.2253265,-0.2419739,0.9437408,1.0,-0.1940765,-0.2156525,0.9569855,-25.15361,0.3905334,-23.3315,3.60257,0.3128893,0.5566167,1.0,-0.2528687,-0.2650604,0.9304657,32.18021,-0.6889191,-31.10834,2.940186,0.5622809,0.683146,0.2222008,1.232798,-0.03285718,-0.003105004,0.1125441,0.005096344,0.04227882,-5.949188,27.0917421686747
2,-0.2253265,-0.2419739,0.9437408,1.0,-0.1940765,-0.2156525,0.9569855,-25.15361,0.3905334,-23.3315,3.60257,0.3128893,0.5566167,1.0,-0.2528687,-0.2650604,0.9304657,32.18021,-0.6889191,-31.10834,2.940186,0.5622809,0.683146,0.2222008,1.232798,-0.03285718,-0.003105004,0.1125441,0.005096344,0.04227882,-5.949188,27.0917421686747
2,-0.2108917,-0.2439575,0.9465637,1.0,-0.1674347,-0.2203674,0.9609222,-25.08624,0.4231567,-23.29533,3.582306,0.3064044,0.5557761,1.0,-0.2480164,-0.2638397,0.9321289,32.2592,-0.6963654,-31.09412,2.95282,0.5585891,0.6829106,0.2228534,1.232383,-0.03309059,-0.0006459354,0.1165776,0.005448221,0.04227882,-5.949188,27.0917421686747
2,-0.2211456,-0.2506409,0.9424744,0.9740643,-0.1828003,-0.2411804,0.9530945,-25.01747,0.4411926,-23.29637,3.465286,0.3066463,0.5589449,0.9993461,-0.2473145,-0.256897,0.9342499,32.27609,-0.6970215,-31.09438,2.999985,0.557844,0.6815768,0.22421,1.231448,-0.03360522,0.004495106,0.1243045,0.00595523,0.04227882,-5.949188,27.0917421686747
2,-0.193222,-0.2220764,0.9556885,1.0,-0.1447906,-0.1982269,0.9693909,-24.91786,0.3325653,-23.29559,3.627686,0.2972369,0.5546753,1.0,-0.2309113,-0.2403564,0.9428101,32.38768,-0.7086334,-31.07486,3.048767,0.5509211,0.67827,0.2248122,1.230932,-0.03392136,0.00687723,0.1279862,0.006149727,0.04227882,-5.949188,27.0917421686747
2,-0.193222,-0.2220764,0.9556885,1.0,-0.1447906,-0.1982269,0.9693909,-24.91786,0.3325653,-23.29559,3.627686,0.2972369,0.5546753,1.0,-0.2309113,-0.2403564,0.9428101,32.38768,-0.7086334,-31.07486,3.048767,0.5509211,0.67827,0.2248122,1.230932,-0.03392136,0.00687723,0.1279862,0.006149727,0.04227882,-5.949188,27.0917421686747
2,-0.1834259,-0.2295074,0.9558563,1.0,-0.1502838,-0.2016144,0.9678497,-24.84758,0.3390045,-23.29961,3.536682,0.2958637,0.5550968,1.0,-0.2083588,-0.2503815,0.9454498,32.4586,-0.6792145,-31.0462,2.936478,0.5443965,0.6785016,0.2260494,1.23017,-0.03442192,0.01128012,0.1349989,0.006344134,0.04227882,-5.949188,27.0917421686747
2,-0.1695404,-0.2255249,0.9593658,1.0,-0.1363525,-0.1869202,0.9728546,-24.79048,0.3494415,-23.2832,3.731689,0.2916754,0.5520041,1.0,-0.2031097,-0.2645111,0.9427338,32.50861,-0.6367493,-31.028,2.86087,0.5416993,0.6794568,0.2265977,1.229795,-0.03471541,0.01335262,0.1384077,0.006306441,0.04227882,-5.949188,27.0917421686747
2,-0.1922607,-0.2328186,0.9533234,1.0,-0.1513672,-0.2183838,0.964035,-24.89789,0.27211,-23.30818,3.605347,0.2975358,0.5602764,1.0,-0.2351227,-0.2475891,0.9398956,32.28717,-0.7839203,-31.12357,3.155777,0.5551886,0.6829919,0.227127,1.229406,-0.03495002,0.01553606,0.141905,0.006293432,0.04227882,-5.949188,27.0917421686747
2,-0.1922607,-0.2328186,0.9533234,1.0,-0.1513672,-0.2183838,0.964035,-24.89789,0.27211,-23.30818,3.605347,0.2975358,0.5602764,1.0,-0.2351227,-0.2475891,0.9398956,32.28717,-0.7839203,-31.12357,3.155777,0.5551886,0.6829919,0.227127,1.229406,-0.03495002,0.01553606,0.141905,0.006293432,0.04227882,-5.949188,27.0917421686747
2,-0.2570801,-0.2598572,0.9307861,1.0,-0.2331848,-0.2532959,0.938858,-25.30344,0.2537994,-23.43068,3.531494,0.3238775,0.5690131,1.0,-0.2956848,-0.2701721,0.916275,31.96931,-0.8456879,-31.23634,3.276428,0.5773782,0.6920496,0.2281952,1.228519,-0.03556961,0.02028131,0.1486007,0.006173911,0.04227882,-5.949188,27.0917421686747
2,-0.2570801,-0.2598572,0.9307861,1.0,-0.2331848,-0.2532959,0.938858,-25.30344,0.2537994,-23.43068,3.531494,0.3238775,0.5690131,1.0,-0.2956848,-0.2701721,0.916275,31.96931,-0.8456879,-31.23634,3.276428,0.5773782,0.6920496,0.2281952,1.228519,-0.03556961,0.02028131,0.1486007,0.006173911,0.04227882,-5.949188,27.0917421686747
2,-0.2817383,-0.2913513,0.9141693,1.0,-0.258728,-0.2973328,0.9190369,-25.37199,0.2524719,-23.44446,3.195175,0.3303189,0.577383,1.0,-0.3288727,-0.2784119,0.9023895,31.83409,-0.8057556,-31.27525,3.204254,0.5883183,0.6934258,0.2292321,1.227577,-0.03627992,0.02470228,0.1553248,0.006375764,0.04227882,-5.949188,27.0917421686747
2,-0.2594452,-0.2863464,0.9223175,1.0,-0.2299652,-0.2925262,0.9281769,-25.38617,0.2581329,-23.43959,3.051926,0.3262208,0.5759102,1.0,-0.3158875,-0.2736053,0.9084778,31.85451,-0.7981567,-31.256,3.241089,0.5851812,0.6917011,0.2292321,1.227577,-0.03627992,0.02470228,0.1553248,0.006375764,0.04227882,-8.896027,27.0917421686747
2,-0.2787933,-0.2600555,0.9244537,1.0,-0.2302094,-0.2554474,0.9390106,-25.35594,0.244751,-23.44019,3.310242,0.3252501,0.5697299,1.0,-0.3080902,-0.2625275,0.9143982,31.95393,-0.8010101,-31.23752,3.238693,0.5802156,0.6892058,0.2302659,1.226842,-0.03696239,0.02864468,0.162093,0.006692749,0.04227882,-8.896027,27.0917421686747
2,-0.2787933,-0.2600555,0.9244537,1.0,-0.2302094,-0.2554474,0.9390106,-25.35594,0.244751,-23.44019,3.310242,0.3252501,0.5697299,1.0,-0.3080902,-0.2625275,0.9143982,31.95393,-0.8010101,-31.23752,3.238693,0.5802156,0.6892058,0.2302659,1.226842,-0.03696239,0.02864468,0.162093,0.006692749,0.04227882,-8.896027,27.0917421686747
2,-0.2656555,-0.2339478,0.9352417,1.0,-0.2213745,-0.2183228,0.9504242,-25.31244,0.2568512,-23.41982,3.544891,0.3224053,0.5625484,1.0,-0.2986298,-0.2453766,0.9222717,31.99231,-0.7814636,-31.21571,3.275177,0.5771095,0.6847159,0.231279,1.226017,-0.03767031,0.03240846,0.1685283,0.006653673,0.04227882,-8.896027,27.0917421686747
2,-0.2656555,-0.2339478,0.9352417,1.0,-0.2213745,-0.2183228,0.9504242,-25.31244,0.2568512,-23.41982,3.544891,0.3224053,0.5625484,1.0,-0.2986298,-0.2453766,0.9222717,31.99231,-0.7814636,-31.21571,3.275177,0.5771095,0.6847159,0.231279,1.226017,-0.03767031,0.03240846,0.1685283,0.006653673,0.04227882,-8.896027,27.0917421686747
2,-0.2522888,-0.2378693,0.9379425,1.0,-0.2271881,-0.2327576,0.9456177,-25.23503,0.2841949,-23.42134,3.712082,0.3206264,0.5642629,1.0,-0.2796021,-0.2432556,0.928772,32.02959,-0.7744446,-31.19858,3.153625,0.5724136,0.683461,0.232139,1.225182,-0.03833997,0.036396,0.174781,0.00665815,0.04227882,-8.896027,28.13
3,-0.2368927,-0.2228088,0.9456329,1.0,-0.2111359,-0.215744,0.9533386,-25.18907,0.3075409,-23.39075,3.579681,0.316739,0.5600492,1.0,-0.2664337,-0.2307587,0.9358063,32.10709,-0.7561188,-31.17131,3.224655,0.5672292,0.679848,0.2329932,1.224453,-0.03893685,0.03985498,0.1805516,0.006828304,0.04227882,-8.896027,28.13
3,-0.2368927,-0.2228088,0.9456329,1.0,-0.2111359,-0.215744,0.9533386,-25.18907,0.3075409,-23.39075,3.579681,0.316739,0.5600492,1.0,-0.2664337,-0.2307587,0.9358063,32.10709,-0.7561188,-31.17131,3.224655,0.5672292,0.679848,0.2329932,1.224453,-0.03893685,0.03985498,0.1805516,0.006828304,0.04227882,-8.896027,28.13
3,-0.2365417,-0.2442017,0.9404144,1.0,-0.2160034,-0.2341614,0.9478912,-25.12196,0.367157,-23.36142,3.612656,0.3152874,0.561105,1.0,-0.2569427,-0.2541046,0.9324036,32.15149,-0.7381287,-31.1476,3.049698,0.5640059,0.6832735,0.2338064,1.223922,-0.03950667,0.04268361,0.1857929,0.006863131,0.04227882,-8.896027,28.13
3,-0.2365417,-0.2442017,0.9404144,1.0,-0.2160034,-0.2341614,0.9478912,-25.12196,0.367157,-23.36142,3.612656,0.3152874,0.561105,1.0,-0.2569427,-0.2541046,0.9324036,32.15149,-0.7381287,-31.1476,3.049698,0.5640059,0.6832735,0.2338064,1.223922,-0.03950667,0.04268361,0.1857929,0.006863131,0.04227882,-8.896027,28.13
3,-0.2181549,-0.2418213,0.9454651,1.0,-0.2011719,-0.2451019,0.9483795,-25.03726,0.3586731,-23.37027,3.372238,0.3102075,0.5631742,1.0,-0.2403259,-0.2374268,0.9411926,32.23814,-0.6973877,-31.11066,3.170044,0.5578678,0.677903,0.2344618,1.223307,-0.04013258,0.04544968,0.1904727,0.006850092,0.04227882,-8.896027,28.13
3,-0.2181549,-0.2418213,0.9454651,1.0,-0.2011719,-0.2451019,0.9483795,-25.03726,0.3586731,-23.37027,3.372238,0.3102075,0.5631742,1.0,-0.2403259,-0.2374268,0.9411926,32.23814,-0.6973877,-31.11066,3.170044,0.5578678,0.677903,0.2344618,1.223307,-0.04013258,0.04544968,0.1904727,0.006850092,0.04227882,-8.896027,28.13
3,-0.2166595,-0.2278442,0.9492798,1.0,-0.2027893,-0.2229462,0.9534912,-24.9985,0.3736267,-23.36031,3.668304,0.3091004,0.5587679,1.0,-0.2351532,-0.234314,0.9432831,32.31161,-0.6868744,-31.08934,3.271149,0.554267,0.6766205,0.2350532,1.222589,-0.04072732,0.04844531,0.1944553,0.006758111,0.04227882,-8.896027,28.13
3,-0.2166595,-0.2278442,0.9492798,1.0,-0.2027893,-0.2229462,0.9534912,-24.9985,0.3736267,-23.36031,3.668304,0.3091004,0.5587679,1.0,-0.2351532,-0.234314,0.9432831,32.31161,-0.6868744,-31.08934,3.271149,0.554267,0.6766205,0.2350532,1.222589,-0.04072732,0.04844531,0.1944553,0.006758111,0.04227882,-8.896027,28.13
3,-0.1952972,-0.2076263,0.9584961,1.0,-0.1629333,-0.1924438,0.9676819,-24.92854,0.3577576,-23.32805,3.783875,0.3004071,0.5533366,1.0,-0.2373962,-0.2271423,0.9444733,32.35591,-0.6867523,-31.08823,3.275665,0.5531049,0.6752451,0.2355486,1.221874,-0.04126596,0.05110345,0.1980511,0.007060056,0.04227882,-8.896027,28.13
3,-0.1952972,-0.2076263,0.9584961,1.0,-0.1629333,-0.1924438,0.9676819,-24.92854,0.3577576,-23.32805,3.783875,0.3004071,0.5533366,1.0,-0.2373962,-0.2271423,0.9444733,32.35591,-0.6867523,-31.08823,3.275665,0.5531049,0.6752451,0.2355486,1.221874,-0.04126596,0.05110345,0.1980511,0.007060056,0.04227882,-8.896027,28.13
3,-0.1979218,-0.2102509,0.9573975,1.0,-0.1627502,-0.1847534,0.9692078,-24.89955,0.3839569,-23.32121,3.746918,0.2995072,0.5510932,1.0,-0.2239685,-0.2290344,0.9472961,32.3804,-0.6711426,-31.08685,3.392212,0.5497673,0.6748747,0.2358613,1.221356,-0.04170293,0.05347766,0.2012139,0.007342507,0.04227882,-8.896027,28.13
3,-0.1979218,-0.2102509,0.9573975,1.0,-0.1627502,-0.1847534,0.9692078,-24.89955,0.3839569,-23.32121,3.746918,0.2995072,0.5510932,1.0,-0.2239685,-0.2290344,0.9472961,32.3804,-0.6711426,-31.08685,3.392212,0.5497673,0.6748747,0.2358613,1.221356,-0.04170293,0.05347766,0.2012139,0.007342507,0.04227882,-8.896027,28.13
3,-0.1750031,-0.2170868,0.9603271,1.0,-0.1285858,-0.175293,0.9760742,-24.81787,0.4338379,-23.28142,3.971527,0.2912281,0.5472834,1.0,-0.2073059,-0.2460327,0.9468231,32.42625,-0.6414948,-31.06834,3.186996,0.5452464,0.6766162,0.2363991,1.22063,-0.0418328,0.05625534,0.2037032,0.00773294,0.04227882,-1.159225,28.13
3,-0.1750031,-0.2170868,0.9603271,1.0,-0.1285858,-0.175293,0.9760742,-24.81787,0.4338379,-23.28142,3.971527,0.2912281,0.5472834,1.0,-0.2073059,-0.2460327,0.9468231,32.42625,-0.6414948,-31.06834,3.186996,0.5452464,0.6766162,0.2363991,1.22063,-0.0418328,0.05625534,0.2037032,0.00773294,0.04227882,-1.159225,28.13
3,-0.1528473,-0.2180634,0.9638824,1.0,-0.106842,-0.1774445,0.978302,-24.80185,0.4406586,-23.27925,4.01857,0.2871354,0.5472834,1.0,-0.18573,-0.2469025,0.9510651,32.45432,-0.6392365,-31.05237,3.061737,0.5404527,0.6762076,0.2368056,1.219961,-0.04214829,0.05838688,0.2058014,0.008146765,0.04227882,-1.159225,28.13
3,-0.1528473,-0.2180634,0.9638824,1.0,-0.106842,-0.1774445,0.978302,-24.80185,0.4406586,-23.27925,4.01857,0.2871354,0.5472834,1.0,-0.18573,-0.2469025,0.9510651,32.45432,-0.6392365,-31.05237,3.061737,0.5404527,0.6762076,0.2368056,1.219961,-0.04214829,0.05838688,0.2058014,0.008146765,0.04227882,-1.159225,28.13
3,-0.1457825,-0.2016907,0.9685211,1.0,-0.09454346,-0.1572266,0.983017,-24.74745,0.4508514,-23.28516,4.094467,0.2833652,0.5435262,1.0,-0.1898651,-0.2396698,0.9521027,32.4854,-0.6154633,-31.05251,3.243515,0.5400158,0.674053,0.2371265,1.21933,-0.04236221,0.06041248,0.2073326,0.008575386,0.04227882,-1.159225,28.13
3,-0.1457825,-0.2016907,0.9685211,1.0,-0.09454346,-0.1572266,0.983017,-24.74745,0.4508514,-23.28516,4.094467,0.2833652,0.5435262,1.0,-0.1898651,-0.2396698,0.9521027,32.4854,-0.6154633,-31.05251,3.243515,0.5400158,0.674053,0.2371265,1.21933,-0.04236221,0.06041248,0.2073326,0.008575386,0.04227882,-1.159225,28.13
3,-0.1391907,-0.1860046,0.9726257,1.0,-0.07984924,-0.1118622,0.990509,-24.70148,0.480835,-23.33742,4.433929,0.2793398,0.5354701,1.0,-0.1888275,-0.2479401,0.9501801,32.50131,-0.5894775,-31.04036,3.216599,0.5392665,0.6745717,0.2374644,1.218659,-0.04248804,0.06281251,0.2086313,0.008736347,0.04227882,-1.159225,28.13
3,-0.1391907,-0.1860046,0.9726257,1.0,-0.07984924,-0.1118622,0.990509,-24.70148,0.480835,-23.33742,4.433929,0.2793398,0.5354701,1.0,-0.1888275,-0.2479401,0.9501801,32.50131,-0.5894775,-31.04036,3.216599,0.5392665,0.6745717,0.2374644,1.218659,-0.04248804,0.06281251,0.2086313,0.008736347,0.04227882,-1.159225,28.13
3,-0.1499634,-0.1916809,0.9699249,1.0,-0.09765625,-0.1122131,0.9888611,-24.61513,0.4286957,-23.41019,4.267517,0.2793398,0.537875,1.0,-0.1868896,-0.2479553,0.9505615,32.50516,-0.5740509,-31.03658,3.24646,0.5387717,0.6739702,0.2378598,1.217955,-0.04272938,0.06552959,0.2099354,0.009031554,0.04227882,-1.159225,28.13
3,-0.1499634,-0.1916809,0.9699249,1.0,-0.09765625,-0.1122131,0.9888611,-24.61513,0.4286957,-23.41019,4.267517,0.2793398,0.537875,1.0,-0.1868896,-0.2479553,0.9505615,32.50516,-0.5740509,-31.03658,3.24646,0.5387717,0.6739702,0.2378598,1.217955,-0.04272938,0.06552959,0.2099354,0.009031554,0.04227882,-1.159225,28.13
3,-0.1499634,-0.1916809,0.9699249,1.0,-0.09765625,-0.1122131,0.9888611,-24.61513,0.4286957,-23.41019,4.267517,0.2793398,0.537875,1.0,-0.1868896,-0.2479553,0.9505615,32.50516,-0.5740509,-31.03658,3.24646,0.5387717,0.6739702,0.2383134,1.217232,-0.04286808,0.06813952,0.2114946,0.009152832,0.04227882,-1.159225,28.13
3,-0.1499634,-0.1916809,0.9699249,1.0,-0.09765625,-0.1122131,0.9888611,-24.61513,0.4286957,-23.41019,4.267517,0.2793398,0.537875,1.0,-0.1868896,-0.2479553,0.9505615,32.50516,-0.5740509,-31.03658,3.24646,0.5387717,0.6739702,0.2383134,1.217232,-0.04286808,0.06813952,0.2114946,0.009152832,0.04227882,-1.159225,28.13
3,-0.1499634,-0.1916809,0.9699249,1.0,-0.09765625,-0.1122131,0.9888611,-24.61513,0.4286957,-23.41019,4.267517,0.2793398,0.537875,1.0,-0.1868896,-0.2479553,0.9505615,32.50516,-0.5740509,-31.03658,3.24646,0.5387717,0.6739702,0.2388872,1.216445,-0.04297101,0.07076763,0.2135392,0.009418419,0.04227882,0.8474884,28.13
3,-0.1499634,-0.1916809,0.9699249,1.0,-0.09765625,-0.1122131,0.9888611,-24.61513,0.4286957,-23.41019,4.267517,0.2793398,0.537875,1.0,-0.1868896,-0.2479553,0.9505615,32.50516,-0.5740509,-31.03658,3.24646,0.5387717,0.6739702,0.2388872,1.216445,-0.04297101,0.07076763,0.2135392,0.009418419,0.04227882,0.8474884,28.13
3,-0.3565979,-0.2065277,0.9111328,1.0,-0.3110504,-0.2192993,0.9247284,-25.91687,0.5614624,-23.54001,3.6483,0.3566708,0.5553126,1.0,-0.4375458,-0.1819153,0.8805847,31.18115,-0.6338043,-31.50499,3.48703,0.6318858,0.6740041,0.2395843,1.215701,-0.04301602,0.07352494,0.2157997,0.009581547,0.04227882,0.8474884,28.13
3,-0.3565979,-0.2065277,0.9111328,1.0,-0.3110504,-0.2192993,0.9247284,-25.91687,0.5614624,-23.54001,3.6483,0.3566708,0.5553126,1.0,-0.4375458,-0.1819153,0.8805847,31.18115,-0.6338043,-31.50499,3.48703,0.6318858,0.6740041,0.2395843,1.215701,-0.04301602,0.07352494,0.2157997,0.009581547,0.04227882,0.8474884,28.13
3,-0.4681702,-0.226593,0.8540802,1.0,-0.4675446,-0.2266388,0.8544159,-26.62109,0.6736145,-23.86354,3.596558,0.4054475,0.5594159,1.0,-0.506958,-0.2238312,0.8323975,30.48848,-0.6227264,-31.8141,3.366592,0.6708376,0.6878839,0.2403287,1.215042,-0.04305744,0.07609545,0.2183907,0.009819645,0.04227882,0.8474884,28.13
3,-0.4681702,-0.226593,0.8540802,1.0,-0.4675446,-0.2266388,0.8544159,-26.62109,0.6736145,-23.86354,3.596558,0.4054475,0.5594159,1.0,-0.506958,-0.2238312,0.8323975,30.48848,-0.6227264,-31.8141,3.366592,0.6708376,0.6878839,0.2403287,1.215042,-0.04305744,0.07609545,0.2183907,0.009819645,0.04227882,0.8474884,28.13
3,-0.4804993,-0.2135162,0.8506012,1.0,-0.4773407,-0.2085876,0.8535919,-26.62665,0.5896759,-23.91087,3.673111,0.4072454,0.5596479,1.0,-0.4983521,-0.2418976,0.8325348,30.52318,-0.6205902,-31.78787,3.358414,0.6678659,0.6908052,0.2411312,1.214295,-0.0431217,0.07855108,0.2215495,0.009882419,0.04227882,0.8474884,28.13
3,-0.4804993,-0.2135162,0.8506012,1.0,-0.4773407,-0.2085876,0.8535919,-26.62665,0.5896759,-23.91087,3.673111,0.4072454,0.5596479,1.0,-0.4983521,-0.2418976,0.8325348,30.52318,-0.6205902,-31.78787,3.358414,0.6678659,0.6908052,0.2411312,1.214295,-0.0431217,0.07855108,0.2215495,0.009882419,0.04227882,0.8474884,28.13
3,-0.4993591,-0.2299957,0.8352966,1.0,-0.4796753,-0.1978149,0.8548431,-26.58179,0.59758,-23.87988,3.782867,0.4061154,0.5572695,1.0,-0.5090942,-0.2463074,0.824707,30.5385,-0.612915,-31.79988,3.280075,0.6695052,0.6919239,0.2418998,1.213558,-0.04317379,0.08113471,0.2249299,0.009700558,0.04227882,0.8474884,28.13
3,-0.4993591,-0.2299957,0.8352966,1.0,-0.4796753,-0.1978149,0.8548431,-26.58179,0.59758,-23.87988,3.782867,0.4061154,0.5572695,1.0,-0.5090942,-0.2463074,0.824707,30.5385,-0.612915,-31.79988,3.280075,0.6695052,0.6919239,0.2418998,1.213558,-0.04317379,0.08113471,0.2249299,0.009700558,0.04227882,0.8474884,28.13
3,-0.4918671,-0.2210388,0.8421326,1.0,-0.4755859,-0.2026215,0.8560028,-26.5867,0.605484,-23.87679,3.767456,0.4055808,0.5577101,1.0,-0.5041809,-0.2351379,0.8309631,30.5423,-0.6157379,-31.80016,3.415253,0.6682627,0.6896335,0.2427223,1.212896,-0.04323637,0.08364133,0.2281691,0.010095,0.04227882,0.8474884,28.13
3,-0.4918671,-0.2210388,0.8421326,1.0,-0.4755859,-0.2026215,0.8560028,-26.5867,0.605484,-23.87679,3.767456,0.4055808,0.5577101,1.0,-0.5041809,-0.2351379,0.8309631,30.5423,-0.6157379,-31.80016,3.415253,0.6682627,0.6896335,0.2427223,1.212896,-0.04323637,0.08364133,0.2281691,0.010095,0.04227882,0.8474884,28.13
3,-0.490036,-0.2124786,0.8453979,1.0,-0.4746246,-0.2041626,0.8561707,-26.58621,0.6120758,-23.87418,3.70578,0.4054699,0.5577125,1.0,-0.5036926,-0.2198486,0.8354187,30.56007,-0.6261597,-31.79765,3.433914,0.6674984,0.6868971,0.2431754,1.212497,-0.04333985,0.0850421,0.2298005,0.01024373,0.04227882,0.8474884,28.13
3,-0.4915466,-0.2100372,0.8451233,1.0,-0.4758453,-0.2062836,0.8549805,-26.58295,0.6238098,-23.87183,3.675446,0.4055986,0.5577188,1.0,-0.5053406,-0.2133179,0.8361206,30.57716,-0.6237488,-31.79407,3.455093,0.6671696,0.6855224,0.2436067,1.212129,-0.04338372,0.08616167,0.2315205,0.01041754,0.04227882,0.8474884,28.13
3,-0.4915466,-0.2100372,0.8451233,1.0,-0.4758453,-0.2062836,0.8549805,-26.58295,0.6238098,-23.87183,3.675446,0.4055986,0.5577188,1.0,-0.5053406,-0.2133179,0.8361206,30.57716,-0.6237488,-31.79407,3.455093,0.6671696,0.6855224,0.2436067,1.212129,-0.04338372,0.08616167,0.2315205,0.01041754,0.04227882,0.8474884,28.13
3,-0.4788208,-0.2156525,0.8509979,1.0,-0.4557648,-0.2233582,0.8616028,-26.59062,0.694046,-23.82889,3.680969,0.4024043,0.5575294,1.0,-0.501236,-0.2078857,0.8399506,30.64122,-0.5952759,-31.74681,3.521988,0.6638846,0.6827302,0.2444448,1.211489,-0.04348421,0.0882191,0.2349416,0.01066422,0.04227882,0.8474884,28.13
3,-0.4788208,-0.2156525,0.8509979,1.0,-0.4557648,-0.2233582,0.8616028,-26.59062,0.694046,-23.82889,3.680969,0.4024043,0.5575294,1.0,-0.501236,-0.2078857,0.8399506,30.64122,-0.5952759,-31.74681,3.521988,0.6638846,0.6827302,0.2444448,1.211489,-0.04348421,0.0882191,0.2349416,0.01066422,0.04227882,0.8474884,28.13
3,-0.4759064,-0.2177429,0.8520966,1.0,-0.4551239,-0.2156982,0.8638916,-26.57785,0.7003021,-23.82411,3.628479,0.4019851,0.5559002,1.0,-0.4971313,-0.2197266,0.8393707,30.65329,-0.5926056,-31.73518,3.454193,0.6626914,0.6846812,0.2452255,1.210837,-0.04350346,0.09018957,0.238198,0.01068795,0.04227882,0.8474884,28.13
3,-0.4759064,-0.2177429,0.8520966,1.0,-0.4551239,-0.2156982,0.8638916,-26.57785,0.7003021,-23.82411,3.628479,0.4019851,0.5559002,1.0,-0.4971313,-0.2197266,0.8393707,30.65329,-0.5926056,-31.73518,3.454193,0.6626914,0.6846812,0.2455726,1.210536,-0.04358613,0.09132794,0.239953,0.01050301,0.04227882,0.6384125,28.13
3,-0.4759064,-0.2177429,0.8520966,1.0,-0.4551239,-0.2156982,0.8638916,-26.57785,0.7003021,-23.82411,3.628479,0.4019851,0.5559002,1.0,-0.4971313,-0.2197266,0.8393707,30.65329,-0.5926056,-31.73518,3.454193,0.6626914,0.6846812,0.2455726,1.210536,-0.04358613,0.09132794,0.239953,0.01050301,0.04227882,0.6384125,28.13
3,-0.4759064,-0.2177429,0.8520966,1.0,-0.4551239,-0.2156982,0.8638916,-26.57785,0.7003021,-23.82411,3.628479,0.4019851,0.5559002,1.0,-0.4971313,-0.2197266,0.8393707,30.65329,-0.5926056,-31.73518,3.454193,0.6626914,0.6846812,0.2465466,1.21007,-0.04368865,0.09307107,0.2431636,0.01002167,0.04227882,0.6384125,28.13
3,-0.4791412,-0.2063446,0.8531189,1.0,-0.455368,-0.2009735,0.8673096,-26.56972,0.699585,-23.82375,3.797775,0.4016361,0.5533415,1.0,-0.5003052,-0.2110443,0.8397217,30.68039,-0.5873108,-31.73071,3.465881,0.6623036,0.6828122,0.2469348,1.20981,-0.04376185,0.09393222,0.2446482,0.00996725,0.04227882,0.6384125,28.13
3,-0.4791412,-0.2063446,0.8531189,1.0,-0.455368,-0.2009735,0.8673096,-26.56972,0.699585,-23.82375,3.797775,0.4016361,0.5533415,1.0,-0.5003052,-0.2110443,0.8397217,30.68039,-0.5873108,-31.73071,3.465881,0.6623036,0.6828122,0.2469348,1.20981,-0.04376185,0.09393222,0.2446482,0.00996725,0.04227882,0.6384125,28.13
3,-0.4501495,-0.1930542,0.8718262,1.0,-0.4181671,-0.1635742,0.8935089,-26.43185,0.6456146,-23.77449,3.38591,0.3915705,0.5471136,1.0,-0.4785004,-0.2196503,0.8501587,30.75323,-0.5515289,-31.66055,3.48732,0.6552995,0.681648,0.2476994,1.209289,-0.04393387,0.0953759,0.2476519,0.009765625,0.04227882,0.6384125,28.13
3,-0.4189758,-0.2266693,0.8792419,1.0,-0.3465424,-0.244751,0.9055328,-26.39986,0.6677856,-23.6586,2.698151,0.3789708,0.5581276,1.0,-0.4801025,-0.2097015,0.8517609,30.82838,-0.5094757,-31.63126,3.509796,0.6528075,0.6778734,0.2480214,1.209028,-0.04400533,0.09612253,0.2491176,0.009511306,0.04227882,0.6384125,28.13
3,-0.4453278,-0.2013245,0.8724213,1.0,-0.4017334,-0.1969757,0.8943176,-26.39153,0.6874542,-23.71323,3.292526,0.387489,0.5506635,1.0,-0.4817047,-0.2046661,0.8520813,30.836,-0.501297,-31.63261,3.517365,0.6528333,0.6766526,0.2483371,1.208835,-0.04409873,0.09667106,0.2505464,0.00936686,0.04227882,0.6384125,28.13
3,-0.4453278,-0.2013245,0.8724213,1.0,-0.4017334,-0.1969757,0.8943176,-26.39153,0.6874542,-23.71323,3.292526,0.387489,0.5506635,1.0,-0.4817047,-0.2046661,0.8520813,30.836,-0.501297,-31.63261,3.517365,0.6528333,0.6766526,0.2483371,1.208835,-0.04409873,0.09667106,0.2505464,0.00936686,0.04227882,0.6384125,28.13
3,-0.4389038,-0.1928864,0.8775787,1.0,-0.3987579,-0.194519,0.8961792,-26.38121,0.7046509,-23.70848,3.297882,0.3866686,0.5495632,1.0,-0.4705811,-0.1912994,0.8613586,30.85982,-0.4676971,-31.59616,3.55423,0.6497525,0.6720628,0.2492257,1.208486,-0.04427016,0.09780294,0.254488,0.008748279,0.04227882,0.6384125,28.13
3,-0.4389038,-0.1928864,0.8775787,1.0,-0.3987579,-0.194519,0.8961792,-26.38121,0.7046509,-23.70848,3.297882,0.3866686,0.5495632,1.0,-0.4705811,-0.1912994,0.8613586,30.85982,-0.4676971,-31.59616,3.55423,0.6497525,0.6720628,0.2492257,1.208486,-0.04427016,0.09780294,0.254488,0.008748279,0.04227882,0.6384125,28.13
3,-0.4306488,-0.1937561,0.8814697,1.0,-0.3960724,-0.1981659,0.8965607,-26.36078,0.7177887,-23.70848,3.211334,0.3856342,0.5496954,1.0,-0.462616,-0.1893463,0.8660889,30.8679,-0.461853,-31.58069,3.535797,0.6479405,0.6710483,0.2494993,1.208389,-0.04434013,0.09800308,0.2557183,0.008536199,0.04227882,0.6384125,28.13
3,-0.4306488,-0.1937561,0.8814697,1.0,-0.3960724,-0.1981659,0.8965607,-26.36078,0.7177887,-23.70848,3.211334,0.3856342,0.5496954,1.0,-0.462616,-0.1893463,0.8660889,30.8679,-0.461853,-31.58069,3.535797,0.6479405,0.6710483,0.2494993,1.208389,-0.04434013,0.09800308,0.2557183,0.008536199,0.04227882,0.6384125,28.13
3,-0.4306488,-0.1937561,0.8814697,1.0,-0.3960724,-0.1981659,0.8965607,-26.36078,0.7177887,-23.70848,3.211334,0.3856342,0.5496954,1.0,-0.462616,-0.1893463,0.8660889,30.8679,-0.461853,-31.58069,3.535797,0.6479405,0.6710483,0.2494993,1.208389,-0.04434013,0.09800308,0.2557183,0.008536199,0.04227882,0.6384125,28.13
3,-0.4166718,-0.2043152,0.885788,1.0,-0.3644867,-0.22229,0.9042664,-26.28171,0.7289429,-23.64163,2.961578,0.3779859,0.5523053,1.0,-0.4625702,-0.1875,0.8665161,30.89339,-0.4638672,-31.57381,3.573441,0.6469662,0.6706749,0.2501832,1.20795,-0.04449904,0.0986208,0.2593418,0.008357137,0.04227882,0.6384125,28.13
3,-0.4234161,-0.2112122,0.8809509,1.0,-0.3653412,-0.205368,0.9079285,-26.2773,0.7280884,-23.64227,3.254654,0.3777651,0.549399,1.0,-0.4685059,-0.2152557,0.8568268,30.92548,-0.461853,-31.57236,3.307877,0.6471784,0.6761169,0.2506667,1.207678,-0.04468334,0.09910983,0.2615333,0.008359812,0.04227882,-4.733704,28.13
3,-0.4234161,-0.2112122,0.8809509,1.0,-0.3653412,-0.205368,0.9079285,-26.2773,0.7280884,-23.64227,3.254654,0.3777651,0.549399,1.0,-0.4685059,-0.2152557,0.8568268,30.92548,-0.461853,-31.57236,3.307877,0.6471784,0.6761169,0.2506667,1.207678,-0.04468334,0.09910983,0.2615333,0.008359812,0.04227882,-4.733704,28.13
3,-0.4167023,-0.2039032,0.8858643,1.0,-0.3644257,-0.223175,0.9040833,-26.27951,0.7258453,-23.64281,3.0215,0.3778361,0.5525801,1.0,-0.4646149,-0.1851196,0.8659363,30.94873,-0.4588623,-31.56096,3.458328,0.6454588,0.6698894,0.2509688,1.207564,-0.04470801,0.09931911,0.2627094,0.00850209,0.04227882,-4.733704,28.13
3,-0.4167023,-0.2039032,0.8858643,1.0,-0.3644257,-0.223175,0.9040833,-26.27951,0.7258453,-23.64281,3.0215,0.3778361,0.5525801,1.0,-0.4646149,-0.1851196,0.8659363,30.94873,-0.4588623,-31.56096,3.458328,0.6454588,0.6698894,0.2509688,1.207564,-0.04470801,0.09931911,0.2627094,0.00850209,0.04227882,-4.733704,28.13
3,-0.4123535,-0.2077179,0.8870087,1.0,-0.3634338,-0.2130737,0.9069061,-26.28195,0.7238312,-23.65135,3.083786,0.3777309,0.5509197,1.0,-0.4654541,-0.2010651,0.8619232,30.95427,-0.4616394,-31.56267,3.455002,0.6454065,0.6731514,0.2514089,1.207411,-0.04475141,0.09978985,0.2648235,0.00889942,0.04227882,-4.733704,28.13
3,-0.4123535,-0.2077179,0.8870087,1.0,-0.3634338,-0.2130737,0.9069061,-26.28195,0.7238312,-23.65135,3.083786,0.3777309,0.5509197,1.0,-0.4654541,-0.2010651,0.8619232,30.95427,-0.4616394,-31.56267,3.455002,0.6454065,0.6731514,0.2514089,1.207411,-0.04475141,0.09978985,0.2648235,0.00889942,0.04227882,-4.733704,28.13
3,-0.4123535,-0.2077179,0.8870087,1.0,-0.3634338,-0.2130737,0.9069061,-26.28195,0.7238312,-23.65135,3.083786,0.3777309,0.5509197,1.0,-0.4654541,-0.2010651,0.8619232,30.95427,-0.4616394,-31.56267,3.455002,0.6454065,0.6731514,0.2518812,1.207189,-0.04479676,0.1001116,0.267069,0.009495627,0.04227882,-4.733704,28.13
3,-0.4123535,-0.2077179,0.8870087,1.0,-0.3634338,-0.2130737,0.9069061,-26.28195,0.7238312,-23.65135,3.083786,0.3777309,0.5509197,1.0,-0.4654541,-0.2010651,0.8619232,30.95427,-0.4616394,-31.56267,3.455002,0.6454065,0.6731514,0.2518812,1.207189,-0.04479676,0.1001116,0.267069,0.009495627,0.04227882,-4.733704,28.13
3,-0.4123535,-0.2077179,0.8870087,1.0,-0.3634338,-0.2130737,0.9069061,-26.28195,0.7238312,-23.65135,3.083786,0.3777309,0.5509197,1.0,-0.4654541,-0.2010651,0.8619232,30.95427,-0.4616394,-31.56267,3.455002,0.6454065,0.6731514,0.2523777,1.206952,-0.0448482,0.1006974,0.269353,0.01009279,0.04227882,-4.733704,28.13
3,-0.4110565,-0.2096863,0.8871613,1.0,-0.3637848,-0.2199554,0.9051361,-26.27951,0.7234802,-23.66086,3.020676,0.3777309,0.5522347,1.0,-0.4628296,-0.1974945,0.864151,30.9648,-0.4702148,-31.56096,3.437958,0.6445485,0.6726409,0.2526491,1.206835,-0.04483569,0.1010517,0.2704643,0.01042612,0.04227882,-4.733704,28.13
3,-0.4139557,-0.1954803,0.8890533,1.0,-0.3669281,-0.2078552,0.906723,-26.31435,0.6951599,-23.68779,3.00647,0.3794343,0.551324,1.0,-0.4620819,-0.1819305,0.8679657,30.92169,-0.5489197,-31.59093,3.446762,0.6460318,0.6727567,0.2532336,1.206493,-0.04490268,0.1018065,0.2730698,0.01075466,0.04227882,-4.733704,28.13
3,-0.4139557,-0.1954803,0.8890533,1.0,-0.3669281,-0.2078552,0.906723,-26.31435,0.6951599,-23.68779,3.00647,0.3794343,0.551324,1.0,-0.4620819,-0.1819305,0.8679657,30.92169,-0.5489197,-31.59093,3.446762,0.6460318,0.6727567,0.2532336,1.206493,-0.04490268,0.1018065,0.2730698,0.01075466,0.04227882,-4.733704,28.13
3,-0.4112244,-0.2083893,0.8873901,1.0,-0.3691254,-0.2246704,0.9018097,-26.42311,0.6754456,-23.71002,2.899155,0.3833542,0.5552176,1.0,-0.466507,-0.1856995,0.8647919,30.74342,-0.5450287,-31.64742,3.265915,0.6535738,0.6741274,0.2535501,1.206352,-0.04491711,0.1022398,0.2743457,0.01111443,0.04227882,-4.733704,28.13
3,-0.412674,-0.201828,0.8882294,1.0,-0.3751831,-0.2193146,0.9006195,-26.4113,0.6894531,-23.70847,3.022186,0.3838853,0.5539211,1.0,-0.4637146,-0.1767883,0.8681488,30.75201,-0.5493164,-31.64499,3.423553,0.6525791,0.6724835,0.2538388,1.206191,-0.04492247,0.1023515,0.2755767,0.01130519,0.04227882,-4.733704,28.13
3,-0.4143066,-0.2040863,0.8869476,1.0,-0.3768768,-0.2234192,0.8989105,-26.40881,0.6927948,-23.70882,2.962509,0.3841281,0.5545694,1.0,-0.4658203,-0.1761017,0.8671722,30.75854,-0.5471802,-31.64325,3.433304,0.6527348,0.6723295,0.2541789,1.206082,-0.04491687,0.102563,0.2769979,0.01158575,0.04227882,-4.733704,28.13
3,-0.4143066,-0.2040863,0.8869476,1.0,-0.3768768,-0.2234192,0.8989105,-26.40881,0.6927948,-23.70882,2.962509,0.3841281,0.5545694,1.0,-0.4658203,-0.1761017,0.8671722,30.75854,-0.5471802,-31.64325,3.433304,0.6527348,0.6723295,0.2541789,1.206082,-0.04491687,0.102563,0.2769979,0.01158575,0.04227882,-4.733704,28.13
3,-0.4160004,-0.2047577,0.8860016,1.0,-0.3772888,-0.2245026,0.8984528,-26.40868,0.6992645,-23.70959,2.970993,0.3841805,0.5545694,1.0,-0.468338,-0.176651,0.8656921,30.77174,-0.5429535,-31.64101,3.434769,0.652733,0.6723295,0.2548875,1.205852,-0.04489529,0.1029885,0.2799872,0.01204915,0.04227882,-16.17705,28.13
3,-0.4244232,-0.1994781,0.8832092,1.0,-0.3779297,-0.2206421,0.8991547,-26.40492,0.6983337,-23.71069,2.971481,0.3841805,0.5539388,1.0,-0.4698334,-0.1776733,0.8646698,30.78566,-0.5366364,-31.63991,3.435577,0.6525097,0.6723295,0.255283,1.205651,-0.04495329,0.1033877,0.2814704,0.01207941,0.04227882,-16.17705,28.13
3,-0.4240265,-0.2019043,0.882843,1.0,-0.3768463,-0.2238464,0.8988037,-26.40155,0.6967163,-23.71069,2.910858,0.3839376,0.5545349,1.0,-0.4706268,-0.1790314,0.8639679,30.79744,-0.5291595,-31.63786,3.443848,0.6522223,0.6723295,0.2557436,1.205494,-0.0450151,0.1037813,0.2830812,0.01221435,0.04227882,-16.17705,28.13
3,-0.4240265,-0.2019043,0.882843,1.0,-0.3768463,-0.2238464,0.8988037,-26.40155,0.6967163,-23.71069,2.910858,0.3839376,0.5545349,1.0,-0.4706268,-0.1790314,0.8639679,30.79744,-0.5291595,-31.63786,3.443848,0.6522223,0.6723295,0.2557436,1.205494,-0.0450151,0.1037813,0.2830812,0.01221435,0.04227882,-16.17705,28.13
3,-0.4250946,-0.2014465,0.882431,1.0,-0.3779755,-0.22229,0.8987122,-26.40492,0.6976624,-23.71172,2.971558,0.3841805,0.5542701,1.0,-0.4705811,-0.1802063,0.8637543,30.8051,-0.5236816,-31.63547,3.443863,0.6519293,0.6723295,0.2566531,1.205073,-0.04515851,0.104613,0.2869507,0.01229885,0.04227882,-16.17705,28.13
3,-0.4250946,-0.2014465,0.882431,1.0,-0.3779755,-0.22229,0.8987122,-26.40492,0.6976624,-23.71172,2.971558,0.3841805,0.5542701,1.0,-0.4705811,-0.1802063,0.8637543,30.8051,-0.5236816,-31.63547,3.443863,0.6519293,0.6723295,0.2566531,1.205073,-0.04515851,0.104613,0.2869507,0.01229885,0.04227882,-16.17705,28.13
3,-0.4250946,-0.2014465,0.882431,1.0,-0.3779755,-0.22229,0.8987122,-26.40492,0.6976624,-23.71172,2.971558,0.3841805,0.5542701,1.0,-0.4705811,-0.1802063,0.8637543,30.8051,-0.5236816,-31.63547,3.443863,0.6519293,0.6723295,0.2577736,1.204723,-0.04535496,0.1056303,0.291709,0.01233273,0.03971646,-16.17705,28.13
3,-0.4250946,-0.2014465,0.882431,1.0,-0.3779755,-0.22229,0.8987122,-26.40492,0.6976624,-23.71172,2.971558,0.3841805,0.5542701,1.0,-0.4705811,-0.1802063,0.8637543,30.8051,-0.5236816,-31.63547,3.443863,0.6519293,0.6723295,0.2577736,1.204723,-0.04535496,0.1056303,0.291709,0.01233273,0.03971646,-16.17705,28.13
3,-0.4250946,-0.2014465,0.882431,1.0,-0.3779755,-0.22229,0.8987122,-26.40492,0.6976624,-23.71172,2.971558,0.3841805,0.5542701,1.0,-0.4705811,-0.1802063,0.8637543,30.8051,-0.5236816,-31.63547,3.443863,0.6519293,0.6723295,0.2588938,1.204248,-0.04565459,0.1064741,0.2973032,0.0124356,0.03971646,-16.17705,28.13
3,-0.4264526,-0.2006531,0.881958,1.0,-0.3791199,-0.2203369,0.8987122,-26.40633,0.6973114,-23.71205,3.023849,0.3843709,0.5539565,1.0,-0.4707947,-0.1811829,0.8634186,30.80821,-0.5214539,-31.63449,3.444229,0.6518544,0.6724365,0.2602315,1.203879,-0.04599404,0.1071097,0.3035648,0.01265534,0.03971646,-16.17705,28.13
3,-0.4264526,-0.2006531,0.881958,1.0,-0.3791199,-0.2203369,0.8987122,-26.40633,0.6973114,-23.71205,3.023849,0.3843709,0.5539565,1.0,-0.4707947,-0.1811829,0.8634186,30.80821,-0.5214539,-31.63449,3.444229,0.6518544,0.6724365,0.2602315,1.203879,-0.04599404,0.1071097,0.3035648,0.01265534,0.03971646,-16.17705,28.13
3,-0.3800659,-0.2218628,0.897934,1.0,-0.3464203,-0.2488861,0.9044495,-26.36874,0.7008209,-23.69984,2.637558,0.3779559,0.5581611,1.0,-0.4333954,-0.1768951,0.883667,30.87053,-0.4899292,-31.54927,3.390671,0.6424209,0.6683542,0.2602315,1.203879,-0.04599404,0.1071097,0.3035648,0.01265534,0.03971646,-16.17705,28.13
3,-0.3800659,-0.2218628,0.897934,1.0,-0.3464203,-0.2488861,0.9044495,-26.36874,0.7008209,-23.69984,2.637558,0.3779559,0.5581611,1.0,-0.4333954,-0.1768951,0.883667,30.87053,-0.4899292,-31.54927,3.390671,0.6424209,0.6683542,0.2602315,1.203879,-0.04599404,0.1071097,0.3035648,0.01265534,0.03971646,-16.17705,28.13
3,-0.3697052,-0.2247314,0.9015503,1.0,-0.3400879,-0.2406769,0.9090576,-26.38388,0.7020111,-23.71344,2.602524,0.3774552,0.556656,1.0,-0.4297028,-0.1908417,0.8825684,30.87292,-0.4780579,-31.54276,3.224609,0.6417645,0.6703987,0.261613,1.2035,-0.04651421,0.1076591,0.3109945,0.01309741,0.03971646,-16.17705,28.13
3,-0.3674622,-0.216156,0.9045563,1.0,-0.3403473,-0.2378845,0.9096985,-26.34862,0.7015839,-23.71732,2.699112,0.3762653,0.5562059,1.0,-0.4197388,-0.1724243,0.891098,30.94658,-0.4547882,-31.50388,3.390594,0.6370517,0.6653227,0.2639245,1.203,-0.04731506,0.1085282,0.3230394,0.01365388,0.03971646,-16.17705,28.13
3,-0.3674622,-0.216156,0.9045563,1.0,-0.3403473,-0.2378845,0.9096985,-26.34862,0.7015839,-23.71732,2.699112,0.3762653,0.5562059,1.0,-0.4197388,-0.1724243,0.891098,30.94658,-0.4547882,-31.50388,3.390594,0.6370517,0.6653227,0.2639245,1.203,-0.04731506,0.1085282,0.3230394,0.01365388,0.03971646,-16.17705,28.13
3,-0.3647919,-0.206604,0.9078674,1.0,-0.335907,-0.2305145,0.9132385,-26.31285,0.7117462,-23.70966,2.729568,0.374375,0.5544117,1.0,-0.4141998,-0.1639709,0.8952789,30.98239,-0.4492798,-31.48862,3.36087,0.634743,0.6631589,0.2665166,1.202772,-0.04857755,0.1087149,0.3386183,0.01524609,0.03971646,-16.17705,28.13
3,-0.3647919,-0.206604,0.9078674,1.0,-0.335907,-0.2305145,0.9132385,-26.31285,0.7117462,-23.70966,2.729568,0.374375,0.5544117,1.0,-0.4141998,-0.1639709,0.8952789,30.98239,-0.4492798,-31.48862,3.36087,0.634743,0.6631589,0.2665166,1.202772,-0.04857755,0.1087149,0.3386183,0.01524609,0.03971646,-16.17705,28.13
4,-0.3550262,-0.190979,0.9151306,1.0,-0.3276825,-0.2124329,0.9205933,-26.23468,0.7147522,-23.66531,2.905441,0.3704139,0.5505444,1.0,-0.3921356,-0.1609039,0.9057159,31.03455,-0.4624634,-31.4543,3.423859,0.6286571,0.6621081,0.2691801,1.202509,-0.05040634,0.1095239,0.3558786,0.01771492,0.03971646,-0.5979309,28.13
4,-0.3550262,-0.190979,0.9151306,1.0,-0.3276825,-0.2124329,0.9205933,-26.23468,0.7147522,-23.66531,2.905441,0.3704139,0.5505444,1.0,-0.3921356,-0.1609039,0.9057159,31.03455,-0.4624634,-31.4543,3.423859,0.6286571,0.6621081,0.2691801,1.202509,-0.05040634,0.1095239,0.3558786,0.01771492,0.03971646,-0.5979309,28.13
4,-0.3550262,-0.190979,0.9151306,1.0,-0.3276825,-0.2124329,0.9205933,-26.23468,0.7147522,-23.66531,2.905441,0.3704139,0.5505444,1.0,-0.3921356,-0.1609039,0.9057159,31.03455,-0.4624634,-31.4543,3.423859,0.6286571,0.6621081,0.2691801,1.202509,-0.05040634,0.1095239,0.3558786,0.01771492,0.03971646,-0.5979309,28.13
4,-0.3376923,-0.1884766,0.9221802,1.0,-0.3033142,-0.2207184,0.9269714,-26.12291,0.6917877,-23.62476,2.821106,0.3628044,0.5519435,1.0,-0.3710632,-0.1560822,0.91539,31.17751,-0.507019,-31.41476,3.363556,0.6196497,0.6617483,0.2718242,1.202599,-0.0524891,0.1099074,0.3737974,0.01929059,0.03971646,-0.5979309,28.13
4,-0.3376923,-0.1884766,0.9221802,1.0,-0.3033142,-0.2207184,0.9269714,-26.12291,0.6917877,-23.62476,2.821106,0.3628044,0.5519435,1.0,-0.3710632,-0.1560822,0.91539,31.17751,-0.507019,-31.41476,3.363556,0.6196497,0.6617483,0.2718242,1.202599,-0.0524891,0.1099074,0.3737974,0.01929059,0.03971646,-0.5979309,28.13
4,-0.3376923,-0.1884766,0.9221802,1.0,-0.3033142,-0.2207184,0.9269714,-26.12291,0.6917877,-23.62476,2.821106,0.3628044,0.5519435,1.0,-0.3710632,-0.1560822,0.91539,31.17751,-0.507019,-31.41476,3.363556,0.6196497,0.6617483,0.2718242,1.202599,-0.0524891,0.1099074,0.3737974,0.01929059,0.03971646,-0.5979309,28.13
4,-0.2922211,-0.157547,0.9432831,1.0,-0.2615662,-0.1524506,0.953064,-25.94472,0.7188416,-23.56851,3.398239,0.349988,0.5381291,1.0,-0.3274231,-0.1632538,0.9306488,31.30646,-0.4669495,-31.33324,3.308212,0.6069545,0.6597927,0.2739055,1.202785,-0.05484897,0.1094748,0.3919673,0.0200106,0.03971646,-0.5979309,28.13
4,-0.2922211,-0.157547,0.9432831,1.0,-0.2615662,-0.1524506,0.953064,-25.94472,0.7188416,-23.56851,3.398239,0.349988,0.5381291,1.0,-0.3274231,-0.1632538,0.9306488,31.30646,-0.4669495,-31.33324,3.308212,0.6069545,0.6597927,0.2739055,1.202785,-0.05484897,0.1094748,0.3919673,0.0200106,0.03971646,-0.5979309,28.13
4,-0.2922211,-0.157547,0.9432831,1.0,-0.2615662,-0.1524506,0.953064,-25.94472,0.7188416,-23.56851,3.398239,0.349988,0.5381291,1.0,-0.3274231,-0.1632538,0.9306488,31.30646,-0.4669495,-31.33324,3.308212,0.6069545,0.6597927,0.2739055,1.202785,-0.05484897,0.1094748,0.3919673,0.0200106,0.03971646,-0.5979309,28.13
4,-0.2703552,-0.14505,0.951767,1.0,-0.2500916,-0.1352081,0.958725,-25.7097,0.6760864,-23.56393,3.632523,0.3403181,0.5364073,1.0,-0.2960815,-0.1575317,0.9420776,31.47426,-0.489151,-31.2883,3.156937,0.5953347,0.6582896,0.276073,1.203271,-0.05733979,0.1080352,0.410411,0.02020844,0.03971646,1.565979,28.13
4,-0.2703552,-0.14505,0.951767,1.0,-0.2500916,-0.1352081,0.958725,-25.7097,0.6760864,-23.56393,3.632523,0.3403181,0.5364073,1.0,-0.2960815,-0.1575317,0.9420776,31.47426,-0.489151,-31.2883,3.156937,0.5953347,0.6582896,0.276073,1.203271,-0.05733979,0.1080352,0.410411,0.02020844,0.03971646,1.565979,28.13
4,-0.2703552,-0.14505,0.951767,1.0,-0.2500916,-0.1352081,0.958725,-25.7097,0.6760864,-23.56393,3.632523,0.3403181,0.5364073,1.0,-0.2960815,-0.1575317,0.9420776,31.47426,-0.489151,-31.2883,3.156937,0.5953347,0.6582896,0.276073,1.203271,-0.05733979,0.1080352,0.410411,0.02020844,0.03971646,1.565979,28.13
4,-0.228775,-0.1621704,0.9598694,1.0,-0.216629,-0.1435242,0.9656372,-25.32167,0.4865417,-23.53462,3.694946,0.3220657,0.5432616,1.0,-0.2457428,-0.1884003,0.9508362,31.72644,-0.5791321,-31.23737,3.31723,0.577071,0.6659464,0.277648,1.20341,-0.06006861,0.1056768,0.4288006,0.01971577,0.03971646,1.565979,28.13
4,-0.228775,-0.1621704,0.9598694,1.0,-0.216629,-0.1435242,0.9656372,-25.32167,0.4865417,-23.53462,3.694946,0.3220657,0.5432616,1.0,-0.2457428,-0.1884003,0.9508362,31.72644,-0.5791321,-31.23737,3.31723,0.577071,0.6659464,0.277648,1.20341,-0.06006861,0.1056768,0.4288006,0.01971577,0.03971646,1.565979,28.13
4,-0.228775,-0.1621704,0.9598694,1.0,-0.216629,-0.1435242,0.9656372,-25.32167,0.4865417,-23.53462,3.694946,0.3220657,0.5432616,1.0,-0.2457428,-0.1884003,0.9508362,31.72644,-0.5791321,-31.23737,3.31723,0.577071,0.6659464,0.277648,1.20341,-0.06006861,0.1056768,0.4288006,0.01971577,0.03971646,1.565979,28.13
4,-0.1894531,-0.1363678,0.9723663,1.0,-0.1811218,-0.1056061,0.9777679,-25.12405,0.4689026,-23.50517,3.852219,0.3098634,0.5368296,1.0,-0.2007751,-0.179184,0.9631042,31.92691,-0.5848541,-31.18735,3.143585,0.5619525,0.6631134,0.2794163,1.203722,-0.06299305,0.1028386,0.4481535,0.01956327,0.03971646,1.565979,28.13
4,-0.1894531,-0.1363678,0.9723663,1.0,-0.1811218,-0.1056061,0.9777679,-25.12405,0.4689026,-23.50517,3.852219,0.3098634,0.5368296,1.0,-0.2007751,-0.179184,0.9631042,31.92691,-0.5848541,-31.18735,3.143585,0.5619525,0.6631134,0.2794163,1.203722,-0.06299305,0.1028386,0.4481535,0.01956327,0.03971646,1.565979,28.13
4,-0.1894531,-0.1363678,0.9723663,1.0,-0.1811218,-0.1056061,0.9777679,-25.12405,0.4689026,-23.50517,3.852219,0.3098634,0.5368296,1.0,-0.2007751,-0.179184,0.9631042,31.92691,-0.5848541,-31.18735,3.143585,0.5619525,0.6631134,0.2794163,1.203722,-0.06299305,0.1028386,0.4481535,0.01956327,0.03971646,1.565979,28.13
4,-0.1655273,-0.1693573,0.9715424,1.0,-0.1255188,-0.1563416,0.9796906,-24.96344,0.4904785,-23.46815,3.660889,0.2955142,0.5438384,1.0,-0.2042694,-0.1817627,0.9618835,32.08678,-0.5558167,-31.16568,3.291031,0.5568277,0.6623905,0.2808558,1.20367,-0.06652099,0.1007076,0.4677881,0.01932185,0.03971646,1.565979,28.13
4,-0.1655273,-0.1693573,0.9715424,1.0,-0.1255188,-0.1563416,0.9796906,-24.96344,0.4904785,-23.46815,3.660889,0.2955142,0.5438384,1.0,-0.2042694,-0.1817627,0.9618835,32.08678,-0.5558167,-31.16568,3.291031,0.5568277,0.6623905,0.2808558,1.20367,-0.06652099,0.1007076,0.4677881,0.01932185,0.03971646,1.565979,28.13
4,-0.1655273,-0.1693573,0.9715424,1.0,-0.1255188,-0.1563416,0.9796906,-24.96344,0.4904785,-23.46815,3.660889,0.2955142,0.5438384,1.0,-0.2042694,-0.1817627,0.9618835,32.08678,-0.5558167,-31.16568,3.291031,0.5568277,0.6623905,0.2808558,1.20367,-0.06652099,0.1007076,0.4677881,0.01932185,0.03971646,1.565979,28.13
4,-0.1105957,-0.1729431,0.9786987,1.0,-0.1021423,-0.1499176,0.9833984,-24.77737,0.4862671,-23.45673,3.682129,0.2855967,0.5426001,1.0,-0.120575,-0.2002716,0.9722748,32.28494,-0.5804749,-31.12274,3.058792,0.534935,0.665334,0.2827754,1.204135,-0.07018161,0.09880361,0.4880575,0.0194299,0.03971646,1.565979,28.13
4,-0.1105957,-0.1729431,0.9786987,1.0,-0.1021423,-0.1499176,0.9833984,-24.77737,0.4862671,-23.45673,3.682129,0.2855967,0.5426001,1.0,-0.120575,-0.2002716,0.9722748,32.28494,-0.5804749,-31.12274,3.058792,0.534935,0.665334,0.2827754,1.204135,-0.07018161,0.09880361,0.4880575,0.0194299,0.03971646,1.565979,28.13
4,-0.1105957,-0.1729431,0.9786987,1.0,-0.1021423,-0.1499176,0.9833984,-24.77737,0.4862671,-23.45673,3.682129,0.2855967,0.5426001,1.0,-0.120575,-0.2002716,0.9722748,32.28494,-0.5804749,-31.12274,3.058792,0.534935,0.665334,0.2827754,1.204135,-0.07018161,0.09880361,0.4880575,0.0194299,0.03971646,1.565979,28.13
4,-0.08366394,-0.1703186,0.9818268,1.0,-0.06803894,-0.1397247,0.9878387,-24.67598,0.4659119,-23.51059,3.688812,0.276603,0.5418446,1.0,-0.1100006,-0.2218475,0.9688416,32.37326,-0.5872803,-31.09813,2.927963,0.5299318,0.6692953,0.2879069,1.207303,-0.07230043,0.09716506,0.5094451,0.01974372,0.03971646,1.565979,28.13
4,-0.08366394,-0.1703186,0.9818268,1.0,-0.06803894,-0.1397247,0.9878387,-24.67598,0.4659119,-23.51059,3.688812,0.276603,0.5418446,1.0,-0.1100006,-0.2218475,0.9688416,32.37326,-0.5872803,-31.09813,2.927963,0.5299318,0.6692953,0.2879069,1.207303,-0.07230043,0.09716506,0.5094451,0.01974372,0.03971646,1.565979,28.13
4,-0.08366394,-0.1703186,0.9818268,1.0,-0.06803894,-0.1397247,0.9878387,-24.67598,0.4659119,-23.51059,3.688812,0.276603,0.5418446,1.0,-0.1100006,-0.2218475,0.9688416,32.37326,-0.5872803,-31.09813,2.927963,0.5299318,0.6692953,0.2879069,1.207303,-0.07230043,0.09716506,0.5094451,0.01974372,0.03971646,1.565979,28.13
4,-0.2491608,-0.1941833,0.9487762,1.0,-0.233902,-0.1881409,0.9538727,-25.61124,0.4664612,-23.62338,3.531723,0.3341845,0.5525764,1.0,-0.2713623,-0.2029266,0.9408264,31.47183,-0.6282196,-31.31425,3.090714,0.5909387,0.6717334,0.2899485,1.207662,-0.07691902,0.09523198,0.5314714,0.0193869,0.03971646,0.2370758,28.13
4,-0.2491608,-0.1941833,0.9487762,1.0,-0.233902,-0.1881409,0.9538727,-25.61124,0.4664612,-23.62338,3.531723,0.3341845,0.5525764,1.0,-0.2713623,-0.2029266,0.9408264,31.47183,-0.6282196,-31.31425,3.090714,0.5909387,0.6717334,0.2899485,1.207662,-0.07691902,0.09523198,0.5314714,0.0193869,0.03971646,0.2370758,28.13
4,-0.2491608,-0.1941833,0.9487762,1.0,-0.233902,-0.1881409,0.9538727,-25.61124,0.4664612,-23.62338,3.531723,0.3341845,0.5525764,1.0,-0.2713623,-0.2029266,0.9408264,31.47183,-0.6282196,-31.31425,3.090714,0.5909387,0.6717334,0.2899485,1.207662,-0.07691902,0.09523198,0.5314714,0.0193869,0.03971646,0.2370758,28.13
4,-0.3406677,-0.2424316,0.9083862,1.0,-0.3270569,-0.2501526,0.9112854,-26.29196,0.4207764,-23.82404,2.976425,0.371726,0.5682825,1.0,-0.3938751,-0.2111664,0.8945618,30.79469,-0.7196503,-31.57893,3.190399,0.6379563,0.6824471,0.2918373,1.207612,-0.08176112,0.09343412,0.5540327,0.01807713,0.03971646,0.2370758,28.13
4,-0.3406677,-0.2424316,0.9083862,1.0,-0.3270569,-0.2501526,0.9112854,-26.29196,0.4207764,-23.82404,2.976425,0.371726,0.5682825,1.0,-0.3938751,-0.2111664,0.8945618,30.79469,-0.7196503,-31.57893,3.190399,0.6379563,0.6824471,0.2918373,1.207612,-0.08176112,0.09343412,0.5540327,0.01807713,0.03971646,0.2370758,28.13
4,-0.3406677,-0.2424316,0.9083862,1.0,-0.3270569,-0.2501526,0.9112854,-26.29196,0.4207764,-23.82404,2.976425,0.371726,0.5682825,1.0,-0.3938751,-0.2111664,0.8945618,30.79469,-0.7196503,-31.57893,3.190399,0.6379563,0.6824471,0.2918373,1.207612,-0.08176112,0.09343412,0.5540327,0.01807713,0.03971646,0.2370758,28.13
4,-0.3729553,-0.2240906,0.9003754,1.0,-0.3607635,-0.2250519,0.9050903,-26.46899,0.4022675,-23.89218,3.269882,0.3828832,0.5657251,1.0,-0.4265289,-0.2192993,0.8774719,30.68013,-0.7370758,-31.65683,3.166275,0.6483824,0.6865141,0.2936088,1.207392,-0.08724666,0.09241928,0.5768262,0.01691258,0.03971646,0.2370758,28.13
4,-0.3729553,-0.2240906,0.9003754,1.0,-0.3607635,-0.2250519,0.9050903,-26.46899,0.4022675,-23.89218,3.269882,0.3828832,0.5657251,1.0,-0.4265289,-0.2192993,0.8774719,30.68013,-0.7370758,-31.65683,3.166275,0.6483824,0.6865141,0.2936088,1.207392,-0.08724666,0.09241928,0.5768262,0.01691258,0.03971646,0.2370758,28.13
4,-0.3729553,-0.2240906,0.9003754,1.0,-0.3607635,-0.2250519,0.9050903,-26.46899,0.4022675,-23.89218,3.269882,0.3828832,0.5657251,1.0,-0.4265289,-0.2192993,0.8774719,30.68013,-0.7370758,-31.65683,3.166275,0.6483824,0.6865141,0.2936088,1.207392,-0.08724666,0.09241928,0.5768262,0.01691258,0.03971646,0.2370758,28.13
4,-0.3729553,-0.2240906,0.9003754,1.0,-0.3607635,-0.2250519,0.9050903,-26.46899,0.4022675,-23.89218,3.269882,0.3828832,0.5657251,1.0,-0.4265289,-0.2192993,0.8774719,30.68013,-0.7370758,-31.65683,3.166275,0.6483824,0.6865141,0.2965993,1.207842,-0.09226441,0.0931678,0.5994619,0.01569304,0.03971646,0.2370758,28.13
4,-0.3729553,-0.2240906,0.9003754,1.0,-0.3607635,-0.2250519,0.9050903,-26.46899,0.4022675,-23.89218,3.269882,0.3828832,0.5657251,1.0,-0.4265289,-0.2192993,0.8774719,30.68013,-0.7370758,-31.65683,3.166275,0.6483824,0.6865141,0.2965993,1.207842,-0.09226441,0.0931678,0.5994619,0.01569304,0.03971646,0.2370758,28.13
4,-0.3729553,-0.2240906,0.9003754,1.0,-0.3607635,-0.2250519,0.9050903,-26.46899,0.4022675,-23.89218,3.269882,0.3828832,0.5657251,1.0,-0.4265289,-0.2192993,0.8774719,30.68013,-0.7370758,-31.65683,3.166275,0.6483824,0.6865141,0.2965993,1.207842,-0.09226441,0.0931678,0.5994619,0.01569304,0.03971646,0.2370758,28.13
4,-0.4096375,-0.2263031,0.8837128,1.0,-0.3857117,-0.2278442,0.8940277,-26.60658,0.3024445,-23.97894,3.242996,0.3914623,0.57083,1.0,-0.4448395,-0.2236938,0.867218,30.6216,-0.8525238,-31.72719,3.292618,0.6540219,0.692958,0.2988394,1.207536,-0.09776187,0.09577344,0.6211013,0.01315899,0.03971646,0.2370758,28.13
4,-0.4096375,-0.2263031,0.8837128,1.0,-0.3857117,-0.2278442,0.8940277,-26.60658,0.3024445,-23.97894,3.242996,0.3914623,0.57083,1.0,-0.4448395,-0.2236938,0.867218,30.6216,-0.8525238,-31.72719,3.292618,0.6540219,0.692958,0.2988394,1.207536,-0.09776187,0.09577344,0.6211013,0.01315899,0.03971646,0.2370758,28.13
4,-0.4096375,-0.2263031,0.8837128,1.0,-0.3857117,-0.2278442,0.8940277,-26.60658,0.3024445,-23.97894,3.242996,0.3914623,0.57083,1.0,-0.4448395,-0.2236938,0.867218,30.6216,-0.8525238,-31.72719,3.292618,0.6540219,0.692958,0.2988394,1.207536,-0.09776187,0.09577344,0.6211013,0.01315899,0.03971646,0.2370758,28.13
4,-0.3798981,-0.2183838,0.8988647,1.0,-0.3604736,-0.2029877,0.9104004,-26.32654,0.3241119,-23.89249,3.354675,0.3781759,0.5643559,1.0,-0.3961792,-0.2313538,0.8885345,30.90027,-0.849884,-31.59811,3.012787,0.634806,0.69129,0.300964,1.206717,-0.1033657,0.09838863,0.6413639,0.009929428,0.03971646,0.2370758,28.13
4,-0.3798981,-0.2183838,0.8988647,1.0,-0.3604736,-0.2029877,0.9104004,-26.32654,0.3241119,-23.89249,3.354675,0.3781759,0.5643559,1.0,-0.3961792,-0.2313538,0.8885345,30.90027,-0.849884,-31.59811,3.012787,0.634806,0.69129,0.300964,1.206717,-0.1033657,0.09838863,0.6413639,0.009929428,0.03971646,0.2370758,28.13
4,-0.3798981,-0.2183838,0.8988647,1.0,-0.3604736,-0.2029877,0.9104004,-26.32654,0.3241119,-23.89249,3.354675,0.3781759,0.5643559,1.0,-0.3961792,-0.2313538,0.8885345,30.90027,-0.849884,-31.59811,3.012787,0.634806,0.69129,0.300964,1.206717,-0.1033657,0.09838863,0.6413639,0.009929428,0.03971646,0.2370758,28.13
4,-0.325119,-0.2068939,0.9227448,1.0,-0.2965393,-0.2065125,0.9324188,-26.05922,0.3412018,-23.78598,3.192078,0.3590934,0.5622451,1.0,-0.3625641,-0.2071075,0.9086456,31.2032,-0.8057861,-31.48596,3.260971,0.6173096,0.682779,0.3027897,1.205594,-0.1089967,0.1003575,0.6609517,0.005960857,0.03971646,11.06342,28.13
4,-0.325119,-0.2068939,0.9227448,1.0,-0.2965393,-0.2065125,0.9324188,-26.05922,0.3412018,-23.78598,3.192078,0.3590934,0.5622451,1.0,-0.3625641,-0.2071075,0.9086456,31.2032,-0.8057861,-31.48596,3.260971,0.6173096,0.682779,0.3027897,1.205594,-0.1089967,0.1003575,0.6609517,0.005960857,0.03971646,11.06342,28.13
4,-0.325119,-0.2068939,0.9227448,1.0,-0.2965393,-0.2065125,0.9324188,-26.05922,0.3412018,-23.78598,3.192078,0.3590934,0.5622451,1.0,-0.3625641,-0.2071075,0.9086456,31.2032,-0.8057861,-31.48596,3.260971,0.6173096,0.682779,0.3027897,1.205594,-0.1089967,0.1003575,0.6609517,0.005960857,0.03971646,11.06342,28.13
4,-0.2683411,-0.1994781,0.9424286,1.0,-0.2497253,-0.2015076,0.947113,-25.77817,0.4028473,-23.7132,3.452621,0.3421087,0.5580115,1.0,-0.3051605,-0.1952057,0.9320679,31.45731,-0.7382507,-31.37923,3.131302,0.5976668,0.6755093,0.3043442,1.204416,-0.1145266,0.10331,0.6788429,0.002112557,0.03971646,11.06342,28.13
4,-0.2683411,-0.1994781,0.9424286,1.0,-0.2497253,-0.2015076,0.947113,-25.77817,0.4028473,-23.7132,3.452621,0.3421087,0.5580115,1.0,-0.3051605,-0.1952057,0.9320679,31.45731,-0.7382507,-31.37923,3.131302,0.5976668,0.6755093,0.3043442,1.204416,-0.1145266,0.10331,0.6788429,0.002112557,0.03971646,11.06342,28.13
4,-0.2683411,-0.1994781,0.9424286,1.0,-0.2497253,-0.2015076,0.947113,-25.77817,0.4028473,-23.7132,3.452621,0.3421087,0.5580115,1.0,-0.3051605,-0.1952057,0.9320679,31.45731,-0.7382507,-31.37923,3.131302,0.5976668,0.6755093,0.3043442,1.204416,-0.1145266,0.10331,0.6788429,0.002112557,0.03971646,11.06342,28.13
4,-0.2382813,-0.1799927,0.954361,1.0,-0.2229614,-0.170578,0.9597778,-25.4619,0.4619598,-23.62558,3.466782,0.3276292,0.5495427,1.0,-0.258606,-0.1924744,0.9465942,31.70529,-0.7023315,-31.29376,3.195358,0.5802602,0.6718773,0.3057803,1.203616,-0.1199752,0.1051641,0.6956314,-0.0008188726,0.03971646,11.06342,28.13
4,-0.2382813,-0.1799927,0.954361,1.0,-0.2229614,-0.170578,0.9597778,-25.4619,0.4619598,-23.62558,3.466782,0.3276292,0.5495427,1.0,-0.258606,-0.1924744,0.9465942,31.70529,-0.7023315,-31.29376,3.195358,0.5802602,0.6718773,0.3057803,1.203616,-0.1199752,0.1051641,0.6956314,-0.0008188726,0.03971646,11.06342,28.13
4,-0.2382813,-0.1799927,0.954361,1.0,-0.2229614,-0.170578,0.9597778,-25.4619,0.4619598,-23.62558,3.466782,0.3276292,0.5495427,1.0,-0.258606,-0.1924744,0.9465942,31.70529,-0.7023315,-31.29376,3.195358,0.5802602,0.6718773,0.3057803,1.203616,-0.1199752,0.1051641,0.6956314,-0.0008188726,0.03971646,11.06342,28.13
4,-0.2462006,-0.1945343,0.9494781,1.0,-0.228241,-0.1694641,0.958725,-25.43784,0.3864594,-23.6442,3.593918,0.3275715,0.5520633,1.0,-0.2628326,-0.2179108,0.9398956,31.63165,-0.7862549,-31.33968,2.920807,0.5838267,0.6802798,0.3066902,1.203144,-0.1254018,0.1066157,0.7113145,-0.004380947,0.03971646,11.06342,28.13
4,-0.2462006,-0.1945343,0.9494781,1.0,-0.228241,-0.1694641,0.958725,-25.43784,0.3864594,-23.6442,3.593918,0.3275715,0.5520633,1.0,-0.2628326,-0.2179108,0.9398956,31.63165,-0.7862549,-31.33968,2.920807,0.5838267,0.6802798,0.3066902,1.203144,-0.1254018,0.1066157,0.7113145,-0.004380947,0.03971646,11.06342,28.13
4,-0.2462006,-0.1945343,0.9494781,1.0,-0.228241,-0.1694641,0.958725,-25.43784,0.3864594,-23.6442,3.593918,0.3275715,0.5520633,1.0,-0.2628326,-0.2179108,0.9398956,31.63165,-0.7862549,-31.33968,2.920807,0.5838267,0.6802798,0.3066902,1.203144,-0.1254018,0.1066157,0.7113145,-0.004380947,0.03971646,11.06342,28.13
4,-0.3180237,-0.2682495,0.9093323,1.0,-0.2937317,-0.2674866,0.9176941,-25.97794,0.1540222,-23.85722,3.192032,0.3555616,0.5797595,1.0,-0.3543396,-0.2690582,0.8955536,31.09531,-0.9635315,-31.55762,3.168625,0.6198168,0.7012784,0.3075594,1.202985,-0.130446,0.1060211,0.7263688,-0.006816837,0.03971646,15.40369,28.13
4,-0.3180237,-0.2682495,0.9093323,1.0,-0.2937317,-0.2674866,0.9176941,-25.97794,0.1540222,-23.85722,3.192032,0.3555616,0.5797595,1.0,-0.3543396,-0.2690582,0.8955536,31.09531,-0.9635315,-31.55762,3.168625,0.6198168,0.7012784,0.3075594,1.202985,-0.130446,0.1060211,0.7263688,-0.006816837,0.03971646,15.40369,28.13
4,-0.3180237,-0.2682495,0.9093323,1.0,-0.2937317,-0.2674866,0.9176941,-25.97794,0.1540222,-23.85722,3.192032,0.3555616,0.5797595,1.0,-0.3543396,-0.2690582,0.8955536,31.09531,-0.9635315,-31.55762,3.168625,0.6198168,0.7012784,0.3075594,1.202985,-0.130446,0.1060211,0.7263688,-0.006816837,0.03971646,15.40369,28.13
4,-0.3310242,-0.2752075,0.9025879,1.0,-0.3011932,-0.2745819,0.9131622,-26.05038,0.1775665,-23.87314,3.052933,0.3592446,0.5805581,1.0,-0.3679962,-0.2756042,0.888031,31.10149,-0.9496918,-31.56528,3.273117,0.6220531,0.7025387,0.3082839,1.203352,-0.1352931,0.1038829,0.7406019,-0.009056269,0.03971646,15.40369,28.13
4,-0.3310242,-0.2752075,0.9025879,1.0,-0.3011932,-0.2745819,0.9131622,-26.05038,0.1775665,-23.87314,3.052933,0.3592446,0.5805581,1.0,-0.3679962,-0.2756042,0.888031,31.10149,-0.9496918,-31.56528,3.273117,0.6220531,0.7025387,0.3082839,1.203352,-0.1352931,0.1038829,0.7406019,-0.009056269,0.03971646,15.40369,28.13
4,-0.3310242,-0.2752075,0.9025879,1.0,-0.3011932,-0.2745819,0.9131622,-26.05038,0.1775665,-23.87314,3.052933,0.3592446,0.5805581,1.0,-0.3679962,-0.2756042,0.888031,31.10149,-0.9496918,-31.56528,3.273117,0.6220531,0.7025387,0.3082839,1.203352,-0.1352931,0.1038829,0.7406019,-0.009056269,0.03971646,15.40369,28.13
4,-0.2973022,-0.2498779,0.9214935,1.0,-0.278183,-0.2397614,0.9301147,-25.85912,0.2181091,-23.82169,3.311066,0.3491965,0.5721403,1.0,-0.3211365,-0.2624207,0.9099426,31.35284,-0.9167175,-31.46141,2.991013,0.6044759,0.6962839,0.308503,1.203474,-0.1398817,0.1011411,0.7547457,-0.01245267,0.03971646,15.40369,28.13
4,-0.2973022,-0.2498779,0.9214935,1.0,-0.278183,-0.2397614,0.9301147,-25.85912,0.2181091,-23.82169,3.311066,0.3491965,0.5721403,1.0,-0.3211365,-0.2624207,0.9099426,31.35284,-0.9167175,-31.46141,2.991013,0.6044759,0.6962839,0.308503,1.203474,-0.1398817,0.1011411,0.7547457,-0.01245267,0.03971646,15.40369,28.13
4,-0.2973022,-0.2498779,0.9214935,1.0,-0.278183,-0.2397614,0.9301147,-25.85912,0.2181091,-23.82169,3.311066,0.3491965,0.5721403,1.0,-0.3211365,-0.2624207,0.9099426,31.35284,-0.9167175,-31.46141,2.991013,0.6044759,0.6962839,0.308503,1.203474,-0.1398817,0.1011411,0.7547457,-0.01245267,0.03971646,15.40369,28.13
4,-0.2672119,-0.2285004,0.936142,1.0,-0.2533264,-0.2145538,0.9432831,-25.6293,0.1942139,-23.78888,3.357376,0.3376979,0.5677856,1.0,-0.2934113,-0.2548523,0.9213715,31.55344,-0.8851929,-31.40482,3.185776,0.592036,0.6924231,0.3085861,1.203402,-0.1428334,0.09966221,0.7638931,-0.0144701,0.03971646,15.40369,28.13
4,-0.2672119,-0.2285004,0.936142,1.0,-0.2533264,-0.2145538,0.9432831,-25.6293,0.1942139,-23.78888,3.357376,0.3376979,0.5677856,1.0,-0.2934113,-0.2548523,0.9213715,31.55344,-0.8851929,-31.40482,3.185776,0.592036,0.6924231,0.3085861,1.203402,-0.1428334,0.09966221,0.7638931,-0.0144701,0.03971646,15.40369,28.13
4,-0.237442,-0.2250061,0.9449768,1.0,-0.2203674,-0.2020569,0.9542542,-25.48814,0.2052612,-23.73801,3.490387,0.3276865,0.5643569,1.0,-0.2598419,-0.2552338,0.9313049,31.71284,-0.8791199,-31.35522,3.164932,0.5802242,0.6910436,0.3084216,1.203315,-0.1456565,0.09877578,0.7726964,-0.01582212,0.03971646,15.40369,28.13
4,-0.237442,-0.2250061,0.9449768,1.0,-0.2203674,-0.2020569,0.9542542,-25.48814,0.2052612,-23.73801,3.490387,0.3276865,0.5643569,1.0,-0.2598419,-0.2552338,0.9313049,31.71284,-0.8791199,-31.35522,3.164932,0.5802242,0.6910436,0.3084216,1.203315,-0.1456565,0.09877578,0.7726964,-0.01582212,0.03971646,15.40369,28.13
4,-0.2101288,-0.2318726,0.9497681,1.0,-0.1982117,-0.2179108,0.9556122,-25.37828,0.2125092,-23.72388,3.384308,0.3204896,0.5664681,1.0,-0.2258759,-0.2503204,0.9414368,31.83031,-0.8657379,-31.31335,2.918076,0.5700185,0.6885044,0.3080961,1.203228,-0.1485192,0.09847553,0.7811519,-0.01664392,0.03971646,15.40369,28.13
4,-0.2101288,-0.2318726,0.9497681,1.0,-0.1982117,-0.2179108,0.9556122,-25.37828,0.2125092,-23.72388,3.384308,0.3204896,0.5664681,1.0,-0.2258759,-0.2503204,0.9414368,31.83031,-0.8657379,-31.31335,2.918076,0.5700185,0.6885044,0.3080961,1.203228,-0.1485192,0.09847553,0.7811519,-0.01664392,0.03971646,15.40369,28.13
4,-0.1786041,-0.2207031,0.9588318,1.0,-0.1536713,-0.2277527,0.9615021,-25.23265,0.2841492,-23.65744,3.323669,0.3085296,0.564788,1.0,-0.2086792,-0.2119598,0.9547272,31.95839,-0.8549347,-31.28937,3.096512,0.5622979,0.6801607,0.3073299,1.203213,-0.1513031,0.09845995,0.7894157,-0.01747291,0.03971646,15.40369,28.13
4,-0.1786041,-0.2207031,0.9588318,1.0,-0.1536713,-0.2277527,0.9615021,-25.23265,0.2841492,-23.65744,3.323669,0.3085296,0.564788,1.0,-0.2086792,-0.2119598,0.9547272,31.95839,-0.8549347,-31.28937,3.096512,0.5622979,0.6801607,0.3073299,1.203213,-0.1513031,0.09845995,0.7894157,-0.01747291,0.03971646,15.40369,28.13
4,-0.1484833,-0.2219086,0.9636841,1.0,-0.1248016,-0.2212219,0.9671936,-25.04057,0.2687683,-23.62672,3.353729,0.2975402,0.5636091,1.0,-0.1790771,-0.2225952,0.958313,32.14522,-0.8652496,-31.25041,3.116989,0.5503079,0.6817283,0.3065935,1.203261,-0.1538722,0.0982732,0.7975582,-0.01788153,0.03971646,26.78931,28.13
4,-0.1484833,-0.2219086,0.9636841,1.0,-0.1248016,-0.2212219,0.9671936,-25.04057,0.2687683,-23.62672,3.353729,0.2975402,0.5636091,1.0,-0.1790771,-0.2225952,0.958313,32.14522,-0.8652496,-31.25041,3.116989,0.5503079,0.6817283,0.3065935,1.203261,-0.1538722,0.0982732,0.7975582,-0.01788153,0.03971646,26.78931,28.13
4,-0.1685638,-0.2310028,0.9582214,1.0,-0.1434937,-0.2020721,0.9687958,-25.09978,0.2746124,-23.64168,3.634094,0.3024317,0.5604362,1.0,-0.2011261,-0.2684784,0.9420471,32.08813,-0.8358612,-31.25964,2.785324,0.5564051,0.6899621,0.3057264,1.203249,-0.1563984,0.0974396,0.8057712,-0.01909318,0.03971646,26.78931,28.13
4,-0.1685638,-0.2310028,0.9582214,1.0,-0.1434937,-0.2020721,0.9687958,-25.09978,0.2746124,-23.64168,3.634094,0.3024317,0.5604362,1.0,-0.2011261,-0.2684784,0.9420471,32.08813,-0.8358612,-31.25964,2.785324,0.5564051,0.6899621,0.3057264,1.203249,-0.1563984,0.0974396,0.8057712,-0.01909318,0.03971646,26.78931,28.13
4,-0.2730408,-0.2258453,0.9351044,1.0,-0.2584839,-0.2067871,0.9436188,-25.70224,0.2728882,-23.81303,3.443375,0.3408993,0.5641741,1.0,-0.2970123,-0.2574005,0.9195099,31.44617,-0.8015289,-31.41005,3.068985,0.5965992,0.6900656,0.3048295,1.203423,-0.1588075,0.09556133,0.8141708,-0.0199599,0.03971646,26.78931,28.13
4,-0.2730408,-0.2258453,0.9351044,1.0,-0.2584839,-0.2067871,0.9436188,-25.70224,0.2728882,-23.81303,3.443375,0.3408993,0.5641741,1.0,-0.2970123,-0.2574005,0.9195099,31.44617,-0.8015289,-31.41005,3.068985,0.5965992,0.6900656,0.3048295,1.203423,-0.1588075,0.09556133,0.8141708,-0.0199599,0.03971646,26.78931,28.13
4,-0.3003693,-0.2420959,0.9225769,1.0,-0.2827454,-0.2410431,0.9284058,-25.89697,0.3283081,-23.83687,3.151337,0.351337,0.5689808,1.0,-0.3267517,-0.2435303,0.9131775,31.23471,-0.7400208,-31.45265,3.158463,0.6095839,0.6863251,0.3037256,1.204041,-0.1611977,0.09317508,0.8225979,-0.01947548,0.03971646,26.78931,28.13
4,-0.3003693,-0.2420959,0.9225769,1.0,-0.2827454,-0.2410431,0.9284058,-25.89697,0.3283081,-23.83687,3.151337,0.351337,0.5689808,1.0,-0.3267517,-0.2435303,0.9131775,31.23471,-0.7400208,-31.45265,3.158463,0.6095839,0.6863251,0.3037256,1.204041,-0.1611977,0.09317508,0.8225979,-0.01947548,0.03971646,26.78931,28.13
4,-0.3003693,-0.2420959,0.9225769,1.0,-0.2827454,-0.2410431,0.9284058,-25.89697,0.3283081,-23.83687,3.151337,0.351337,0.5689808,1.0,-0.3267517,-0.2435303,0.9131775,31.23471,-0.7400208,-31.45265,3.158463,0.6095839,0.6863251,0.3025743,1.204526,-0.1635235,0.0912444,0.8310545,-0.01843403,0.03971646,26.78931,28.13
4,-0.3003693,-0.2420959,0.9225769,1.0,-0.2827454,-0.2410431,0.9284058,-25.89697,0.3283081,-23.83687,3.151337,0.351337,0.5689808,1.0,-0.3267517,-0.2435303,0.9131775,31.23471,-0.7400208,-31.45265,3.158463,0.6095839,0.6863251,0.3025743,1.204526,-0.1635235,0.0912444,0.8310545,-0.01843403,0.03971646,26.78931,28.13
4,-0.3003693,-0.2420959,0.9225769,1.0,-0.2827454,-0.2410431,0.9284058,-25.89697,0.3283081,-23.83687,3.151337,0.351337,0.5689808,1.0,-0.3267517,-0.2435303,0.9131775,31.23471,-0.7400208,-31.45265,3.158463,0.6095839,0.6863251,0.3010769,1.20474,-0.1657869,0.09072822,0.839591,-0.01725903,0.03971646,26.78931,28.13
4,-0.3003693,-0.2420959,0.9225769,1.0,-0.2827454,-0.2410431,0.9284058,-25.89697,0.3283081,-23.83687,3.151337,0.351337,0.5689808,1.0,-0.3267517,-0.2435303,0.9131775,31.23471,-0.7400208,-31.45265,3.158463,0.6095839,0.6863251,0.3010769,1.20474,-0.1657869,0.09072822,0.839591,-0.01725903,0.03971646,26.78931,28.13
4,-0.3176727,-0.2113495,0.9243317,1.0,-0.2996826,-0.2050629,0.9317322,-26.03697,0.3432159,-23.86278,3.322495,0.3587055,0.5627009,1.0,-0.3526611,-0.2234344,0.9086761,31.06723,-0.7387848,-31.50418,3.205322,0.6203911,0.6835734,0.2994789,1.204992,-0.1680227,0.09019051,0.8477973,-0.01614215,0.03971646,26.78931,28.13
4,-0.3176727,-0.2113495,0.9243317,1.0,-0.2996826,-0.2050629,0.9317322,-26.03697,0.3432159,-23.86278,3.322495,0.3587055,0.5627009,1.0,-0.3526611,-0.2234344,0.9086761,31.06723,-0.7387848,-31.50418,3.205322,0.6203911,0.6835734,0.2994789,1.204992,-0.1680227,0.09019051,0.8477973,-0.01614215,0.03971646,26.78931,28.13
4,-0.3176727,-0.2113495,0.9243317,1.0,-0.2996826,-0.2050629,0.9317322,-26.03697,0.3432159,-23.86278,3.322495,0.3587055,0.5627009,1.0,-0.3526611,-0.2234344,0.9086761,31.06723,-0.7387848,-31.50418,3.205322,0.6203911,0.6835734,0.297779,1.205146,-0.1700801,0.08999331,0.8559295,-0.01494701,0.03971646,30.24033,28.09
4,-0.3176727,-0.2113495,0.9243317,1.0,-0.2996826,-0.2050629,0.9317322,-26.03697,0.3432159,-23.86278,3.322495,0.3587055,0.5627009,1.0,-0.3526611,-0.2234344,0.9086761,31.06723,-0.7387848,-31.50418,3.205322,0.6203911,0.6835734,0.297779,1.205146,-0.1700801,0.08999331,0.8559295,-0.01494701,0.03971646,30.24033,28.09
5,-0.3514709,-0.2479858,0.9027405,1.0,-0.3382568,-0.2505798,0.907074,-26.18333,0.3520813,-23.9254,3.04744,0.3698599,0.5717301,1.0,-0.3852539,-0.2410736,0.8907471,30.89995,-0.7402039,-31.57999,3.054108,0.6326747,0.6887848,0.2959316,1.205206,-0.1722761,0.09014729,0.8638322,-0.01418513,0.03971646,30.24033,28.09
5,-0.3514709,-0.2479858,0.9027405,1.0,-0.3382568,-0.2505798,0.907074,-26.18333,0.3520813,-23.9254,3.04744,0.3698599,0.5717301,1.0,-0.3852539,-0.2410736,0.8907471,30.89995,-0.7402039,-31.57999,3.054108,0.6326747,0.6887848,0.2959316,1.205206,-0.1722761,0.09014729,0.8638322,-0.01418513,0.03971646,30.24033,28.09
5,-0.334137,-0.2276306,0.9146118,1.0,-0.3101349,-0.2228546,0.9241943,-26.2549,0.3193512,-23.91478,3.27919,0.3674545,0.5672917,1.0,-0.3765106,-0.2357635,0.8959045,30.9919,-0.8276978,-31.57626,3.044891,0.627763,0.6905687,0.2940961,1.205363,-0.1743162,0.09023127,0.8716869,-0.01391869,0.03971646,30.24033,28.09
5,-0.334137,-0.2276306,0.9146118,1.0,-0.3101349,-0.2228546,0.9241943,-26.2549,0.3193512,-23.91478,3.27919,0.3674545,0.5672917,1.0,-0.3765106,-0.2357635,0.8959045,30.9919,-0.8276978,-31.57626,3.044891,0.627763,0.6905687,0.2940961,1.205363,-0.1743162,0.09023127,0.8716869,-0.01391869,0.03971646,30.24033,28.09
5,-0.3173981,-0.2264404,0.9208527,1.0,-0.2803497,-0.2138519,0.9357605,-26.12456,0.3382263,-23.86476,3.255829,0.3583948,0.5641321,1.0,-0.3584747,-0.2401581,0.9020996,31.18495,-0.7998199,-31.50948,3.094482,0.6173491,0.6891721,0.2921959,1.205422,-0.176344,0.08998818,0.8792273,-0.01361891,0.03971646,30.24033,28.09
5,-0.3173981,-0.2264404,0.9208527,1.0,-0.2803497,-0.2138519,0.9357605,-26.12456,0.3382263,-23.86476,3.255829,0.3583948,0.5641321,1.0,-0.3584747,-0.2401581,0.9020996,31.18495,-0.7998199,-31.50948,3.094482,0.6173491,0.6891721,0.2921959,1.205422,-0.176344,0.08998818,0.8792273,-0.01361891,0.03971646,30.24033,28.09
5,-0.2836456,-0.2193451,0.9335022,1.0,-0.2700348,-0.2023773,0.94133,-25.90625,0.3140411,-23.85777,3.447647,0.3494495,0.5626847,1.0,-0.3055115,-0.2467651,0.9196472,31.34602,-0.7622833,-31.41885,3.180054,0.601665,0.6869032,0.2902372,1.205374,-0.1782522,0.08889736,0.8866833,-0.01409793,0.03971646,30.24033,28.09
5,-0.2836456,-0.2193451,0.9335022,1.0,-0.2700348,-0.2023773,0.94133,-25.90625,0.3140411,-23.85777,3.447647,0.3494495,0.5626847,1.0,-0.3055115,-0.2467651,0.9196472,31.34602,-0.7622833,-31.41885,3.180054,0.601665,0.6869032,0.2902372,1.205374,-0.1782522,0.08889736,0.8866833,-0.01409793,0.03971646,30.24033,28.09
5,-0.2570343,-0.2075348,0.9438477,1.0,-0.2444305,-0.1969299,0.9494476,-25.72487,0.3195801,-23.81596,3.475113,0.3393611,0.5607918,1.0,-0.2849121,-0.2310333,0.9302826,31.53734,-0.7398682,-31.37366,3.115387,0.5910941,0.6820412,0.288247,1.205281,-0.1800413,0.08734905,0.8939905,-0.01589213,0.03971646,30.24033,28.09
5,-0.2570343,-0.2075348,0.9438477,1.0,-0.2444305,-0.1969299,0.9494476,-25.72487,0.3195801,-23.81596,3.475113,0.3393611,0.5607918,1.0,-0.2849121,-0.2310333,0.9302826,31.53734,-0.7398682,-31.37366,3.115387,0.5910941,0.6820412,0.288247,1.205281,-0.1800413,0.08734905,0.8939905,-0.01589213,0.03971646,30.24033,28.09
5,-0.2470245,-0.204834,0.9470978,1.0,-0.2311401,-0.1881256,0.9545441,-25.57596,0.3082123,-23.77312,3.551468,0.3323307,0.5590622,1.0,-0.2702026,-0.229248,0.9351044,31.66858,-0.7531891,-31.35223,2.992416,0.5838096,0.6815886,0.2862902,1.205322,-0.1816252,0.08600622,0.9005764,-0.01754376,0.03971646,30.24033,28.09
5,-0.2470245,-0.204834,0.9470978,1.0,-0.2311401,-0.1881256,0.9545441,-25.57596,0.3082123,-23.77312,3.551468,0.3323307,0.5590622,1.0,-0.2702026,-0.229248,0.9351044,31.66858,-0.7531891,-31.35223,2.992416,0.5838096,0.6815886,0.2862902,1.205322,-0.1816252,0.08600622,0.9005764,-0.01754376,0.03971646,30.24033,28.09
5,-0.2094879,-0.2243652,0.9517059,1.0,-0.1916199,-0.2017517,0.960495,-25.33498,0.3313751,-23.71535,3.377563,0.3181102,0.5596247,1.0,-0.2303619,-0.250824,0.9402161,31.843,-0.7377014,-31.28621,2.848907,0.5703967,0.6837805,0.2842454,1.205386,-0.1832001,0.08480172,0.9065768,-0.01868992,0.03971646,30.24033,28.09
5,-0.2094879,-0.2243652,0.9517059,1.0,-0.1916199,-0.2017517,0.960495,-25.33498,0.3313751,-23.71535,3.377563,0.3181102,0.5596247,1.0,-0.2303619,-0.250824,0.9402161,31.843,-0.7377014,-31.28621,2.848907,0.5703967,0.6837805,0.2842454,1.205386,-0.1832001,0.08480172,0.9065768,-0.01868992,0.03971646,30.24033,28.09
5,-0.1622009,-0.2091217,0.964325,1.0,-0.13414,-0.1984711,0.970871,-25.15486,0.3661652,-23.66983,3.545013,0.3027741,0.5570221,1.0,-0.1881409,-0.2188416,0.9574432,32.02806,-0.7340546,-31.24628,3.083069,0.556116,0.6764339,0.2823097,1.205473,-0.1846081,0.08365736,0.9121103,-0.01940918,0.03971646,16.07666,28.09
5,-0.1622009,-0.2091217,0.964325,1.0,-0.13414,-0.1984711,0.970871,-25.15486,0.3661652,-23.66983,3.545013,0.3027741,0.5570221,1.0,-0.1881409,-0.2188416,0.9574432,32.02806,-0.7340546,-31.24628,3.083069,0.556116,0.6764339,0.2823097,1.205473,-0.1846081,0.08365736,0.9121103,-0.01940918,0.03971646,16.07666,28.09
5,-0.1695099,-0.2189026,0.9608917,1.0,-0.1391907,-0.1979218,0.9702759,-25.17262,0.3676147,-23.67319,3.553436,0.3041778,0.5569507,1.0,-0.1960449,-0.2371521,0.9514771,31.97952,-0.7410889,-31.25627,2.860229,0.5593492,0.6803867,0.2804916,1.205556,-0.1858135,0.08150303,0.9172499,-0.02000278,0.03971646,16.07666,28.09
5,-0.1695099,-0.2189026,0.9608917,1.0,-0.1391907,-0.1979218,0.9702759,-25.17262,0.3676147,-23.67319,3.553436,0.3041778,0.5569507,1.0,-0.1960449,-0.2371521,0.9514771,31.97952,-0.7410889,-31.25627,2.860229,0.5593492,0.6803867,0.2804916,1.205556,-0.1858135,0.08150303,0.9172499,-0.02000278,0.03971646,16.07666,28.09
5,-0.2857513,-0.2107086,0.934845,1.0,-0.2556458,-0.1976624,0.9463348,-25.72812,0.4316864,-23.80266,3.472656,0.341356,0.5572982,1.0,-0.3115387,-0.221817,0.9239655,31.46138,-0.5715027,-31.34164,3.150833,0.5985949,0.6744384,0.2787523,1.205602,-0.1868986,0.07937715,0.922048,-0.02086831,0.03971646,16.07666,28.09
5,-0.2857513,-0.2107086,0.934845,1.0,-0.2556458,-0.1976624,0.9463348,-25.72812,0.4316864,-23.80266,3.472656,0.341356,0.5572982,1.0,-0.3115387,-0.221817,0.9239655,31.46138,-0.5715027,-31.34164,3.150833,0.5985949,0.6744384,0.2787523,1.205602,-0.1868986,0.07937715,0.922048,-0.02086831,0.03971646,16.07666,28.09
5,-0.3250122,-0.204071,0.9234161,1.0,-0.3013153,-0.205246,0.9311523,-25.99615,0.4837036,-23.86598,3.227936,0.3577586,0.5581918,1.0,-0.3657837,-0.2017212,0.9085693,31.1929,-0.6523743,-31.48419,3.184143,0.6183183,0.6762874,0.2768821,1.205503,-0.1879634,0.07842626,0.9262044,-0.0216808,0.03971646,16.07666,28.09
5,-0.3250122,-0.204071,0.9234161,1.0,-0.3013153,-0.205246,0.9311523,-25.99615,0.4837036,-23.86598,3.227936,0.3577586,0.5581918,1.0,-0.3657837,-0.2017212,0.9085693,31.1929,-0.6523743,-31.48419,3.184143,0.6183183,0.6762874,0.2768821,1.205503,-0.1879634,0.07842626,0.9262044,-0.0216808,0.03971646,16.07666,28.09
5,-0.3114319,-0.1960907,0.9298096,1.0,-0.2991333,-0.1858215,0.9359283,-25.90877,0.4590302,-23.86601,3.36731,0.3544985,0.5555726,1.0,-0.3298035,-0.2114563,0.9200439,31.26614,-0.6813507,-31.43822,3.095291,0.6090719,0.6778328,0.2750582,1.205497,-0.188967,0.0774305,0.9298526,-0.02307419,0.03971646,16.07666,28.09
5,-0.3114319,-0.1960907,0.9298096,1.0,-0.2991333,-0.1858215,0.9359283,-25.90877,0.4590302,-23.86601,3.36731,0.3544985,0.5555726,1.0,-0.3298035,-0.2114563,0.9200439,31.26614,-0.6813507,-31.43822,3.095291,0.6090719,0.6778328,0.2750582,1.205497,-0.188967,0.0774305,0.9298526,-0.02307419,0.03971646,16.07666,28.09
5,-0.292038,-0.179184,0.9394531,1.0,-0.2775726,-0.1710968,0.9453278,-25.75705,0.4498444,-23.84996,3.43396,0.3460095,0.5528363,1.0,-0.3105011,-0.1894836,0.931488,31.44138,-0.7170563,-31.41071,3.152542,0.5992355,0.6741199,0.273394,1.205603,-0.1898742,0.07611806,0.9330721,-0.0242155,0.03971646,16.07666,28.09
5,-0.292038,-0.179184,0.9394531,1.0,-0.2775726,-0.1710968,0.9453278,-25.75705,0.4498444,-23.84996,3.43396,0.3460095,0.5528363,1.0,-0.3105011,-0.1894836,0.931488,31.44138,-0.7170563,-31.41071,3.152542,0.5992355,0.6741199,0.273394,1.205603,-0.1898742,0.07611806,0.9330721,-0.0242155,0.03971646,16.07666,28.09
5,-0.2706604,-0.1808167,0.9455261,1.0,-0.2579346,-0.1821289,0.9488373,-25.63393,0.4581757,-23.802,3.470383,0.3387251,0.5537471,1.0,-0.2887268,-0.1788788,0.9405365,31.57275,-0.7103882,-31.3726,3.252487,0.5904882,0.6710124,0.2717112,1.205681,-0.190551,0.07473705,0.9357482,-0.02494689,0.03971646,16.07666,28.09
5,-0.2706604,-0.1808167,0.9455261,1.0,-0.2579346,-0.1821289,0.9488373,-25.63393,0.4581757,-23.802,3.470383,0.3387251,0.5537471,1.0,-0.2887268,-0.1788788,0.9405365,31.57275,-0.7103882,-31.3726,3.252487,0.5904882,0.6710124,0.2717112,1.205681,-0.190551,0.07473705,0.9357482,-0.02494689,0.03971646,16.07666,28.09
5,-0.2631989,-0.1724548,0.9491882,1.0,-0.2481384,-0.1556396,0.956131,-25.53156,0.4235229,-23.78862,3.493362,0.3338735,0.5500395,1.0,-0.2803497,-0.1916962,0.9405518,31.66283,-0.7158966,-31.35362,3.142563,0.5858002,0.6732379,0.2701807,1.205941,-0.1912329,0.07294454,0.9381208,-0.02548201,0.03971646,12.46953,28.09
5,-0.2631989,-0.1724548,0.9491882,1.0,-0.2481384,-0.1556396,0.956131,-25.53156,0.4235229,-23.78862,3.493362,0.3338735,0.5500395,1.0,-0.2803497,-0.1916962,0.9405518,31.66283,-0.7158966,-31.35362,3.142563,0.5858002,0.6732379,0.2701807,1.205941,-0.1912329,0.07294454,0.9381208,-0.02548201,0.03971646,12.46953,28.09
5,-0.2458496,-0.1756592,0.9532471,1.0,-0.2253571,-0.1548004,0.9618988,-25.40738,0.4179077,-23.75539,3.523697,0.3260843,0.54949,1.0,-0.2679596,-0.1982422,0.9428101,31.76755,-0.727478,-31.33292,3.104568,0.5798262,0.6744189,0.2687124,1.206388,-0.1918996,0.07142177,0.9400534,-0.02555005,0.03715411,12.46953,28.09
5,-0.2458496,-0.1756592,0.9532471,1.0,-0.2253571,-0.1548004,0.9618988,-25.40738,0.4179077,-23.75539,3.523697,0.3260843,0.54949,1.0,-0.2679596,-0.1982422,0.9428101,31.76755,-0.727478,-31.33292,3.104568,0.5798262,0.6744189,0.2687124,1.206388,-0.1918996,0.07142177,0.9400534,-0.02555005,0.03715411,12.46953,28.09
5,-0.2296753,-0.1657257,0.9590454,1.0,-0.2088165,-0.1334686,0.9687958,-25.31331,0.4110413,-23.73694,3.492264,0.3204288,0.5456783,1.0,-0.2509308,-0.1989136,0.9473419,31.85789,-0.7632751,-31.31889,3.207794,0.5734561,0.6753974,0.2671703,1.206758,-0.1927818,0.06965809,0.9416915,-0.02497554,0.03715411,12.46953,28.09
5,-0.2296753,-0.1657257,0.9590454,1.0,-0.2088165,-0.1334686,0.9687958,-25.31331,0.4110413,-23.73694,3.492264,0.3204288,0.5456783,1.0,-0.2509308,-0.1989136,0.9473419,31.85789,-0.7632751,-31.31889,3.207794,0.5734561,0.6753974,0.2671703,1.206758,-0.1927818,0.06965809,0.9416915,-0.02497554,0.03715411,12.46953,28.09
5,-0.2133484,-0.1737518,0.9613953,1.0,-0.2033691,-0.1363678,0.9695435,-25.27364,0.4006042,-23.73268,3.520966,0.3182034,0.546416,1.0,-0.2241364,-0.215332,0.9504547,31.90886,-0.7989807,-31.31282,2.830322,0.5670012,0.6792262,0.2656451,1.207017,-0.1936808,0.06794877,0.9431664,-0.02480281,0.03715411,12.46953,28.09
5,-0.2133484,-0.1737518,0.9613953,1.0,-0.2033691,-0.1363678,0.9695435,-25.27364,0.4006042,-23.73268,3.520966,0.3182034,0.546416,1.0,-0.2241364,-0.215332,0.9504547,31.90886,-0.7989807,-31.31282,2.830322,0.5670012,0.6792262,0.2656451,1.207017,-0.1936808,0.06794877,0.9431664,-0.02480281,0.03715411,12.46953,28.09
5,-0.2057037,-0.1619568,0.9651031,1.0,-0.1885529,-0.16008,0.9689178,-25.23846,0.3645325,-23.73918,3.30513,0.3146599,0.5514864,1.0,-0.2277832,-0.1643219,0.9597321,31.9726,-0.8422546,-31.33118,3.078094,0.5653348,0.6712903,0.264104,1.207146,-0.1947234,0.06648497,0.9445072,-0.02492268,0.03715411,12.46953,28.09
5,-0.2057037,-0.1619568,0.9651031,1.0,-0.1885529,-0.16008,0.9689178,-25.23846,0.3645325,-23.73918,3.30513,0.3146599,0.5514864,1.0,-0.2277832,-0.1643219,0.9597321,31.9726,-0.8422546,-31.33118,3.078094,0.5653348,0.6712903,0.264104,1.207146,-0.1947234,0.06648497,0.9445072,-0.02492268,0.03715411,12.46953,28.09
5,-0.1841888,-0.1764832,0.9669037,1.0,-0.1588135,-0.1648102,0.9734497,-25.17288,0.2970581,-23.74478,3.519501,0.3074263,0.5543327,1.0,-0.2093201,-0.1879883,0.9595947,32.00958,-0.8682098,-31.3239,2.997055,0.5606979,0.6763577,0.2626569,1.207229,-0.1957595,0.06538515,0.9458439,-0.02499701,0.03715411,12.46953,28.09
5,-0.1841888,-0.1764832,0.9669037,1.0,-0.1588135,-0.1648102,0.9734497,-25.17288,0.2970581,-23.74478,3.519501,0.3074263,0.5543327,1.0,-0.2093201,-0.1879883,0.9595947,32.00958,-0.8682098,-31.3239,2.997055,0.5606979,0.6763577,0.2626569,1.207229,-0.1957595,0.06538515,0.9458439,-0.02499701,0.03715411,12.46953,28.09
5,-0.1689606,-0.1794128,0.9691467,1.0,-0.1369629,-0.1749878,0.9749908,-25.11856,0.27771,-23.73401,3.293228,0.3021725,0.5563815,1.0,-0.2009277,-0.1836853,0.9622192,32.04393,-0.878952,-31.3161,3.082703,0.5579249,0.6757423,0.2618973,1.207147,-0.1964082,0.065543,0.9462613,-0.02485922,0.03715411,12.46953,28.09
5,-0.1689606,-0.1794128,0.9691467,1.0,-0.1369629,-0.1749878,0.9749908,-25.11856,0.27771,-23.73401,3.293228,0.3021725,0.5563815,1.0,-0.2009277,-0.1836853,0.9622192,32.04393,-0.878952,-31.3161,3.082703,0.5579249,0.6757423,0.2618973,1.207147,-0.1964082,0.065543,0.9462613,-0.02485922,0.03715411,12.46953,28.09
5,-0.1620789,-0.1728668,0.9715118,1.0,-0.1357422,-0.1580505,0.9780426,-25.0746,0.2669067,-23.72212,3.428604,0.3005241,0.5537251,1.0,-0.1903381,-0.1886902,0.9634094,32.05846,-0.8836365,-31.3161,3.030945,0.5555251,0.6767219,0.2605127,1.207147,-0.1974082,0.06508145,0.9473217,-0.0252234,0.03715411,12.46953,28.09
5,-0.1620789,-0.1728668,0.9715118,1.0,-0.1357422,-0.1580505,0.9780426,-25.0746,0.2669067,-23.72212,3.428604,0.3005241,0.5537251,1.0,-0.1903381,-0.1886902,0.9634094,32.05846,-0.8836365,-31.3161,3.030945,0.5555251,0.6767219,0.2605127,1.207147,-0.1974082,0.06508145,0.9473217,-0.0252234,0.03715411,12.46953,28.09
5,-0.1641998,-0.1714325,0.971405,1.0,-0.1367645,-0.1578674,0.9779358,-25.07556,0.2246399,-23.73419,3.440216,0.3006852,0.5551906,1.0,-0.1903229,-0.1842804,0.9642639,32.09888,-0.9062805,-31.32152,3.154953,0.5540345,0.6767744,0.2590965,1.207162,-0.1984268,0.06449311,0.9481629,-0.02564523,0.03715411,-2.932076,28.09
5,-0.1641998,-0.1714325,0.971405,1.0,-0.1367645,-0.1578674,0.9779358,-25.07556,0.2246399,-23.73419,3.440216,0.3006852,0.5551906,1.0,-0.1903229,-0.1842804,0.9642639,32.09888,-0.9062805,-31.32152,3.154953,0.5540345,0.6767744,0.2590965,1.207162,-0.1984268,0.06449311,0.9481629,-0.02564523,0.03715411,-2.932076,28.09
5,-0.2742157,-0.1940155,0.9418793,1.0,-0.2608795,-0.1702881,0.9502258,-25.54495,0.1650391,-23.8911,3.534348,0.3361089,0.5620933,1.0,-0.2909393,-0.2240448,0.93013,31.58673,-1.004517,-31.46973,3.197128,0.5904849,0.6913156,0.2578094,1.207285,-0.1993659,0.0634721,0.9489215,-0.02587948,0.03715411,-2.932076,28.09
5,-0.2742157,-0.1940155,0.9418793,1.0,-0.2608795,-0.1702881,0.9502258,-25.54495,0.1650391,-23.8911,3.534348,0.3361089,0.5620933,1.0,-0.2909393,-0.2240448,0.93013,31.58673,-1.004517,-31.46973,3.197128,0.5904849,0.6913156,0.2578094,1.207285,-0.1993659,0.0634721,0.9489215,-0.02587948,0.03715411,-2.932076,28.09
5,-0.2848969,-0.2023163,0.9369507,1.0,-0.2697906,-0.1924438,0.9434814,-25.64517,0.1725311,-23.90923,3.473877,0.3407849,0.5659897,1.0,-0.3028564,-0.2140656,0.9286804,31.50403,-1.014252,-31.4995,3.270035,0.5956044,0.6903268,0.2567014,1.207369,-0.2002346,0.06242199,0.9493954,-0.02574266,0.03715411,-2.932076,28.09
5,-0.2848969,-0.2023163,0.9369507,1.0,-0.2697906,-0.1924438,0.9434814,-25.64517,0.1725311,-23.90923,3.473877,0.3407849,0.5659897,1.0,-0.3028564,-0.2140656,0.9286804,31.50403,-1.014252,-31.4995,3.270035,0.5956044,0.6903268,0.2567014,1.207369,-0.2002346,0.06242199,0.9493954,-0.02574266,0.03715411,-2.932076,28.09
5,-0.2823181,-0.2048492,0.9371796,1.0,-0.2721405,-0.1837616,0.9445343,-25.60794,0.1441956,-23.92532,3.497986,0.3399448,0.5655838,1.0,-0.293869,-0.2290802,0.9279785,31.60152,-1.03833,-31.48358,3.20343,0.5905013,0.6937152,0.2558478,1.207432,-0.2008949,0.06159799,0.949461,-0.02538886,0.03715411,-2.932076,28.09
5,-0.2823181,-0.2048492,0.9371796,1.0,-0.2721405,-0.1837616,0.9445343,-25.60794,0.1441956,-23.92532,3.497986,0.3399448,0.5655838,1.0,-0.293869,-0.2290802,0.9279785,31.60152,-1.03833,-31.48358,3.20343,0.5905013,0.6937152,0.2558478,1.207432,-0.2008949,0.06159799,0.949461,-0.02538886,0.03715411,-2.932076,28.09
5,-0.289566,-0.2123108,0.9333038,1.0,-0.2611389,-0.1766357,0.9489899,-25.53044,0.105072,-23.93303,3.476059,0.3356262,0.5655171,1.0,-0.3156586,-0.2453461,0.9165955,31.65266,-1.047745,-31.49969,3.07106,0.5927545,0.6978197,0.2551583,1.207533,-0.201407,0.06089792,0.9492145,-0.02515804,0.03715411,-2.932076,28.09
5,-0.289566,-0.2123108,0.9333038,1.0,-0.2611389,-0.1766357,0.9489899,-25.53044,0.105072,-23.93303,3.476059,0.3356262,0.5655171,1.0,-0.3156586,-0.2453461,0.9165955,31.65266,-1.047745,-31.49969,3.07106,0.5927545,0.6978197,0.2551583,1.207533,-0.201407,0.06089792,0.9492145,-0.02515804,0.03715411,-2.932076,28.09
5,-0.2849274,-0.2034149,0.9367065,1.0,-0.2551422,-0.1800232,0.9499817,-25.51608,0.09547424,-23.93643,3.38974,0.3342188,0.5663526,1.0,-0.3125916,-0.2251434,0.9228058,31.67465,-1.048111,-31.49384,3.100037,0.5913984,0.6937324,0.2546579,1.207637,-0.2019068,0.06002994,0.9488409,-0.02482233,0.03715411,-2.932076,28.09
5,-0.2849274,-0.2034149,0.9367065,1.0,-0.2551422,-0.1800232,0.9499817,-25.51608,0.09547424,-23.93643,3.38974,0.3342188,0.5663526,1.0,-0.3125916,-0.2251434,0.9228058,31.67465,-1.048111,-31.49384,3.100037,0.5913984,0.6937324,0.2546579,1.207637,-0.2019068,0.06002994,0.9488409,-0.02482233,0.03715411,-2.932076,28.09
5,-0.2847748,-0.2059174,0.936203,1.0,-0.2543793,-0.1801147,0.9501648,-25.51358,0.09329224,-23.93774,3.38858,0.3340108,0.5664389,1.0,-0.3135376,-0.230423,0.9211731,31.68959,-1.046204,-31.49196,3.099777,0.5910319,0.6946976,0.2543763,1.207764,-0.2022535,0.05931437,0.9482269,-0.02462313,0.03715411,-2.932076,28.09
5,-0.2847748,-0.2059174,0.936203,1.0,-0.2543793,-0.1801147,0.9501648,-25.51358,0.09329224,-23.93774,3.38858,0.3340108,0.5664389,1.0,-0.3135376,-0.230423,0.9211731,31.68959,-1.046204,-31.49196,3.099777,0.5910319,0.6946976,0.2543763,1.207764,-0.2022535,0.05931437,0.9482269,-0.02462313,0.03715411,-2.932076,28.09
5,-0.2819977,-0.2037659,0.9375153,1.0,-0.252655,-0.1804962,0.9505615,-25.51355,0.09190369,-23.94127,3.392731,0.3337153,0.5665625,1.0,-0.3119202,-0.2275391,0.9224396,31.7032,-1.046326,-31.49176,3.103226,0.59025,0.6940864,0.2541217,1.207898,-0.2025768,0.0587129,0.9474277,-0.02461405,0.03715411,-2.932076,28.09
5,-0.2819977,-0.2037659,0.9375153,1.0,-0.252655,-0.1804962,0.9505615,-25.51355,0.09190369,-23.94127,3.392731,0.3337153,0.5665625,1.0,-0.3119202,-0.2275391,0.9224396,31.7032,-1.046326,-31.49176,3.103226,0.59025,0.6940864,0.2541217,1.207898,-0.2025768,0.0587129,0.9474277,-0.02461405,0.03715411,-2.932076,28.09
5,-0.2823792,-0.204361,0.9372711,1.0,-0.2502747,-0.1815033,0.951004,-25.51355,0.09048462,-23.94366,3.391769,0.3333153,0.5667716,1.0,-0.313797,-0.2267303,0.9220123,31.70844,-1.046326,-31.49168,3.10379,0.5904061,0.693969,0.2540612,1.208143,-0.2028365,0.05756337,0.9466648,-0.02429905,0.03715411,-17.84895,28.09
5,-0.2823792,-0.204361,0.9372711,1.0,-0.2502747,-0.1815033,0.951004,-25.51355,0.09048462,-23.94366,3.391769,0.3333153,0.5667716,1.0,-0.313797,-0.2267303,0.9220123,31.70844,-1.046326,-31.49168,3.10379,0.5904061,0.693969,0.2540612,1.208143,-0.2028365,0.05756337,0.9466648,-0.02429905,0.03715411,-17.84895,28.09
5,-0.2830811,-0.2050323,0.9369049,1.0,-0.2528076,-0.1827393,0.9500885,-25.51407,0.08862305,-23.95033,3.417206,0.3337153,0.5671464,1.0,-0.3120117,-0.2263336,0.9227142,31.70334,-1.045822,-31.49106,3.116806,0.59025,0.6938326,0.254162,1.208429,-0.2030952,0.0562523,0.9459162,-0.02404258,0.03715411,-17.84895,28.09
