Second,eye_comb_direction_x,eye_comb_direction_y,eye_comb_direction_z,eye_r_openness,eye_r_direction_x,eye_r_direction_y,eye_r_direction_z,eye_r_origin_x,eye_r_origin_y,eye_r_origin_z,eye_r_pupil_diameter,eye_r_pupil_position_x,eye_r_pupil_position_y,eye_l_openness,eye_l_direction_x,eye_l_direction_y,eye_l_direction_z,eye_l_origin_x,eye_l_origin_y,eye_l_origin_z,eye_l_pupil_diameter,eye_l_pupil_position_x,eye_l_pupil_position_y,head_position_x,head_position_y,head_position_z,head_rotation_roll,head_rotation_pitch,head_rotation_yaw,EDA,BVP,TMP
0,0.0,0.0,0.0,0.0,0.0,0.0,0.0,0.0,0.0,0.0,0.0,0.0,0.0,0.0,0.0,0.0,0.0,0.0,0.0,0.0,0.0,0.0,0.0,0.0,0.0,0.0,0.0,0.0,0.0,2.12750653320454,-0.3410595555421396,28.539657087659986
0,-1.0,-1.0,-1.0,0.0,0.0,0.0,0.0,-32.24062,10.44513,-56.08006,-1.0,-1.0,-1.0,0.0,0.0,0.0,0.0,36.60747,16.79956,-87.38991,-1.0,-1.0,-1.0,0.2846069,1.256506,-0.2575824,0.02171154,0.7920691,-0.004363053,2.12750653320454,-0.3410595555421396,28.539657087659986
1,-1.0,-1.0,-1.0,0.0,0.0,0.0,0.0,-32.24062,10.44513,-56.08006,-1.0,-1.0,-1.0,0.0,0.0,0.0,0.0,36.60747,16.79956,-87.38991,-1.0,-1.0,-1.0,0.2862822,1.255738,-0.2659814,0.01215198,0.8013145,-0.01606048,2.401903,-0.3410595555421396,28.539657087659986
1,-1.0,-1.0,-1.0,0.0,0.0,0.0,0.0,-32.24062,10.44513,-56.08006,-1.0,-1.0,-1.0,0.0,0.0,0.0,0.0,36.60747,16.79956,-87.38991,-1.0,-1.0,-1.0,0.2862822,1.255738,-0.2659814,0.01215198,0.8013145,-0.01606048,2.401903,-0.3410595555421396,28.539657087659986
1,-1.0,-1.0,-1.0,0.0,0.0,0.0,0.0,-32.24062,10.44513,-56.08006,-1.0,-1.0,-1.0,0.0,0.0,0.0,0.0,36.60747,16.79956,-87.38991,-1.0,-1.0,-1.0,0.2862822,1.255738,-0.2659814,0.01215198,0.8013145,-0.01606048,2.401903,-0.3410595555421396,28.539657087659986
1,-1.0,-1.0,-1.0,0.0,0.0,0.0,0.0,-32.24062,10.44513,-56.08006,-1.0,-1.0,-1.0,0.0,0.0,0.0,0.0,36.60747,16.79956,-87.38991,-1.0,-1.0,-1.0,0.2862822,1.255738,-0.2659814,0.01215198,0.8013145,-0.01606048,2.401903,-0.3410595555421396,28.539657087659986
1,-1.0,-1.0,-1.0,0.0,0.0,0.0,0.0,-32.24062,10.44513,-56.08006,-1.0,-1.0,-1.0,0.0,0.0,0.0,0.0,36.60747,16.79956,-87.38991,-1.0,-1.0,-1.0,0.2862822,1.255738,-0.2659814,0.01215198,0.8013145,-0.01606048,2.401903,-0.3410595555421396,28.539657087659986
1,-1.0,-1.0,-1.0,0.0,0.0,0.0,0.0,-32.24062,10.44513,-56.08006,-1.0,-1.0,-1.0,0.0,0.0,0.0,0.0,36.60747,16.79956,-87.38991,-1.0,-1.0,-1.0,0.2862822,1.255738,-0.2659814,0.01215198,0.8013145,-0.01606048,2.401903,-0.3410595555421396,28.539657087659986
1,-1.0,-1.0,-1.0,0.0,0.0,0.0,0.0,-32.24062,10.44513,-56.08006,-1.0,-1.0,-1.0,0.0,0.0,0.0,0.0,36.60747,16.79956,-87.38991,-1.0,-1.0,-1.0,0.2862822,1.255738,-0.2659814,0.01215198,0.8013145,-0.01606048,2.401903,-0.3410595555421396,28.539657087659986
1,-1.0,-1.0,-1.0,0.0,0.0,0.0,0.0,-32.24062,10.44513,-56.08006,-1.0,-1.0,-1.0,0.0,0.0,0.0,0.0,36.60747,16.79956,-87.38991,-1.0,-1.0,-1.0,0.2862822,1.255738,-0.2659814,0.01215198,0.8013145,-0.01606048,2.401903,-0.3410595555421396,28.539657087659986
1,-1.0,-1.0,-1.0,0.0,0.0,0.0,0.0,-32.24062,10.44513,-56.08006,-1.0,-1.0,-1.0,0.0,0.0,0.0,0.0,36.60747,16.79956,-87.38991,-1.0,-1.0,-1.0,0.2862822,1.255738,-0.2659814,0.01215198,0.8013145,-0.01606048,2.401903,-0.3410595555421396,28.539657087659986
1,-0.02929688,-0.07661438,0.9966278,1.0,-0.02929688,-0.07661438,0.9966278,-32.37152,11.14012,-58.07706,3.549652,0.5384024,0.4868088,1.0,0.0531311,-0.1226654,0.9910126,36.72839,15.98769,-85.98837,2.855743,0.2442802,0.659333,0.2880048,1.25641,-0.2625793,0.005543122,0.7859276,-0.02345466,2.401903,-0.3410595555421396,28.539657087659986
1,-0.02929688,-0.07661438,0.9966278,1.0,-0.02929688,-0.07661438,0.9966278,-32.37152,11.14012,-58.07706,3.549652,0.5384024,0.4868088,1.0,0.0531311,-0.1226654,0.9910126,36.72839,15.98769,-85.98837,2.855743,0.2442802,0.659333,0.2880048,1.25641,-0.2625793,0.005543122,0.7859276,-0.02345466,2.401903,-0.3410595555421396,28.539657087659986
1,-0.02929688,-0.07661438,0.9966278,1.0,-0.02929688,-0.07661438,0.9966278,-32.37152,11.14012,-58.07706,3.549652,0.5384024,0.4868088,1.0,0.0531311,-0.1226654,0.9910126,36.72839,15.98769,-85.98837,2.855743,0.2442802,0.659333,0.2880048,1.25641,-0.2625793,0.005543122,0.7859276,-0.02345466,2.401903,-0.3410595555421396,28.539657087659986
1,-0.02929688,-0.07661438,0.9966278,1.0,-0.02929688,-0.07661438,0.9966278,-32.37152,11.14012,-58.07706,3.549652,0.5384024,0.4868088,1.0,0.0531311,-0.1226654,0.9910126,36.72839,15.98769,-85.98837,2.855743,0.2442802,0.659333,0.2880048,1.25641,-0.2625793,0.005543122,0.7859276,-0.02345466,2.401903,-0.3410595555421396,28.539657087659986
1,-0.02212524,-0.08039856,0.9965057,1.0,-0.02212524,-0.08039856,0.9965057,-32.34737,11.35838,-58.76839,3.439392,0.5362393,0.4861094,1.0,0.03903198,-0.1184235,0.9921875,36.84071,15.36847,-83.98712,2.901489,0.2483566,0.6581932,0.2892865,1.256868,-0.2635241,0.001673744,0.7829412,-0.02522222,2.401903,-0.3410595555421396,28.539657087659986
1,-0.02212524,-0.08039856,0.9965057,1.0,-0.02212524,-0.08039856,0.9965057,-32.34737,11.35838,-58.76839,3.439392,0.5362393,0.4861094,1.0,0.03903198,-0.1184235,0.9921875,36.84071,15.36847,-83.98712,2.901489,0.2483566,0.6581932,0.2892865,1.256868,-0.2635241,0.001673744,0.7829412,-0.02522222,2.401903,-0.3410595555421396,28.539657087659986
1,-0.02726746,-0.07592773,0.9967346,1.0,-0.02726746,-0.07592773,0.9967346,-32.36586,11.17593,-58.18703,3.561554,0.5377932,0.4863842,1.0,0.04634094,-0.1266785,0.9908447,36.80476,15.47563,-84.41531,2.79718,0.2468779,0.6623575,0.2899153,1.256955,-0.2638192,0.0001726335,0.7811759,-0.02627604,2.401903,-0.3410595555421396,28.539657087659986
1,-0.02726746,-0.07592773,0.9967346,1.0,-0.02726746,-0.07592773,0.9967346,-32.36586,11.17593,-58.18703,3.561554,0.5377932,0.4863842,1.0,0.04634094,-0.1266785,0.9908447,36.80476,15.47563,-84.41531,2.79718,0.2468779,0.6623575,0.2899153,1.256955,-0.2638192,0.0001726335,0.7811759,-0.02627604,2.401903,-0.3410595555421396,28.539657087659986
1,-0.03163147,-0.0695343,0.9970703,1.0,-0.03163147,-0.0695343,0.9970703,-32.36102,11.22078,-58.37268,3.543884,0.5386608,0.4851522,1.0,0.04463196,-0.1163177,0.9922028,36.85652,15.06239,-83.18019,2.882797,0.2480529,0.6611077,0.2902207,1.256955,-0.2639855,-0.0006342959,0.7800851,-0.02684742,2.401903,-0.3410595555421396,28.539657087659986
1,-0.03163147,-0.0695343,0.9970703,1.0,-0.03163147,-0.0695343,0.9970703,-32.36102,11.22078,-58.37268,3.543884,0.5386608,0.4851522,1.0,0.04463196,-0.1163177,0.9922028,36.85652,15.06239,-83.18019,2.882797,0.2480529,0.6611077,0.2902207,1.256955,-0.2639855,-0.0006342959,0.7800851,-0.02684742,2.401903,-0.3410595555421396,28.539657087659986
1,-0.0320282,-0.06959534,0.9970551,1.0,-0.0320282,-0.06959534,0.9970551,-32.35905,11.22078,-58.37268,3.521744,0.5386608,0.4851522,1.0,0.04624939,-0.1098785,0.9928589,36.85652,15.01746,-83.04068,2.890839,0.2480529,0.6591374,0.2909764,1.257005,-0.2641947,-0.002230916,0.7777066,-0.02799272,2.401903,-0.3410595555421396,28.539657087659986
1,-0.02180481,-0.06381226,0.9977112,1.0,-0.02180481,-0.06381226,0.9977112,-32.38011,10.83128,-56.88202,3.671463,0.5363764,0.4835957,1.0,0.04574585,-0.1099091,0.9928741,36.85652,15.01746,-83.04068,2.890945,0.2482245,0.6591374,0.2917373,1.257042,-0.2643296,-0.00336746,0.775081,-0.02932052,2.401903,-0.3410595555421396,28.539657087659986
1,-0.02180481,-0.06381226,0.9977112,1.0,-0.02180481,-0.06381226,0.9977112,-32.38011,10.83128,-56.88202,3.671463,0.5363764,0.4835957,1.0,0.04574585,-0.1099091,0.9928741,36.85652,15.01746,-83.04068,2.890945,0.2482245,0.6591374,0.2917373,1.257042,-0.2643296,-0.00336746,0.775081,-0.02932052,2.401903,-0.3410595555421396,28.539657087659986
1,-0.02180481,-0.06381226,0.9977112,1.0,-0.02180481,-0.06381226,0.9977112,-32.38011,10.83128,-56.88202,3.671463,0.5363764,0.4835957,1.0,0.04574585,-0.1099091,0.9928741,36.85652,15.01746,-83.04068,2.890945,0.2482245,0.6591374,0.2917373,1.257042,-0.2643296,-0.00336746,0.775081,-0.02932052,2.401903,-0.3410595555421396,28.539657087659986
1,-0.0239563,-0.07850647,0.9966125,1.0,-0.0239563,-0.07850647,0.9966125,-32.38495,10.56152,-55.91005,3.471222,0.5363892,0.4871452,1.0,0.02365112,-0.1076813,0.9938965,36.80022,15.14796,-83.45151,2.923264,0.2579088,0.658078,0.2926741,1.25701,-0.2643464,-0.003876573,0.7721735,-0.03049596,2.401903,-0.3410595555421396,28.539657087659986
1,-0.0239563,-0.07850647,0.9966125,1.0,-0.0239563,-0.07850647,0.9966125,-32.38495,10.56152,-55.91005,3.471222,0.5363892,0.4871452,1.0,0.02365112,-0.1076813,0.9938965,36.80022,15.14796,-83.45151,2.923264,0.2579088,0.658078,0.2931639,1.256949,-0.2643304,-0.003969632,0.7705579,-0.03122341,2.401903,-0.3410595555421396,28.539657087659986
1,-0.0239563,-0.07850647,0.9966125,1.0,-0.0239563,-0.07850647,0.9966125,-32.38495,10.56152,-55.91005,3.471222,0.5363892,0.4871452,1.0,0.02365112,-0.1076813,0.9938965,36.80022,15.14796,-83.45151,2.923264,0.2579088,0.658078,0.293662,1.256866,-0.264289,-0.004031094,0.7689392,-0.03192075,2.401903,-0.3410595555421396,28.539657087659986
1,-0.0239563,-0.07850647,0.9966125,1.0,-0.0239563,-0.07850647,0.9966125,-32.38495,10.56152,-55.91005,3.471222,0.5363892,0.4871452,1.0,0.02365112,-0.1076813,0.9938965,36.80022,15.14796,-83.45151,2.923264,0.2579088,0.658078,0.293662,1.256866,-0.264289,-0.004031094,0.7689392,-0.03192075,2.401903,-0.3410595555421396,28.539657087659986
1,-0.0239563,-0.07850647,0.9966125,1.0,-0.0239563,-0.07850647,0.9966125,-32.38495,10.56152,-55.91005,3.471222,0.5363892,0.4871452,1.0,0.02365112,-0.1076813,0.9938965,36.80022,15.14796,-83.45151,2.923264,0.2579088,0.658078,0.2946993,1.256655,-0.2641507,-0.003450511,0.7654325,-0.03331893,2.401903,-0.3410595555421396,28.539657087659986
1,-0.029953,-0.07849121,0.99646,1.0,-0.029953,-0.07849121,0.99646,-32.39241,10.56152,-55.91005,3.471039,0.537986,0.4871452,1.0,0.03686523,-0.1111603,0.993103,36.81175,15.00468,-83.02504,2.808136,0.2543013,0.6598253,0.2951025,1.256448,-0.2639983,-0.002858896,0.7634914,-0.03388886,2.401903,-0.3410595555421396,28.539657087659986
1,-0.029953,-0.07849121,0.99646,1.0,-0.029953,-0.07849121,0.99646,-32.39241,10.56152,-55.91005,3.471039,0.537986,0.4871452,1.0,0.03686523,-0.1111603,0.993103,36.81175,15.00468,-83.02504,2.808136,0.2543013,0.6598253,0.2951025,1.256448,-0.2639983,-0.002858896,0.7634914,-0.03388886,2.401903,-0.3410595555421396,28.539657087659986
1,-0.05532837,-0.07240295,0.9958344,1.0,-0.0559082,-0.07232666,0.9958038,-32.41342,10.43877,-55.3703,3.337723,0.5440384,0.4849028,1.0,0.03985596,-0.08563232,0.9955139,38.00081,6.609146,-55.9198,3.959946,0.2586109,0.6582167,0.2960391,1.256021,-0.2635728,-0.001806476,0.7592185,-0.03551113,2.401903,-0.3410595555421396,28.539657087659986
1,-0.006988525,-0.03720093,0.9992828,1.0,-0.006988525,-0.03720093,0.9992828,-31.97989,10.42857,-55.18794,3.777802,0.5152634,0.4757938,1.0,0.09902954,-0.1546631,0.9829865,37.2921,13.6187,-78.34285,2.789047,0.2183473,0.6709758,0.2964736,1.255808,-0.2632979,-0.001477505,0.7569265,-0.0364738,2.401903,-0.3410595555421396,28.539657087659986
1,0.07174683,-0.06913757,0.9950104,0.8315269,0.07174683,-0.06913757,0.9950104,-31.48776,10.87804,-56.85303,3.508209,0.4779101,0.4821598,0.5996446,0.1328583,-0.09178162,0.9868622,37.68036,13.43944,-78.3736,3.037811,0.1811677,0.6637284,0.29695,1.255623,-0.2630086,-0.001326023,0.7546568,-0.03762737,2.401903,-0.3410595555421396,28.539657087659986
1,0.07174683,-0.06913757,0.9950104,0.8315269,0.07174683,-0.06913757,0.9950104,-31.48776,10.87804,-56.85303,3.508209,0.4779101,0.4821598,0.5996446,0.1328583,-0.09178162,0.9868622,37.68036,13.43944,-78.3736,3.037811,0.1811677,0.6637284,0.29695,1.255623,-0.2630086,-0.001326023,0.7546568,-0.03762737,2.401903,-0.3410595555421396,28.539657087659986
1,0.07049561,-0.05960083,0.9957275,0.7133653,0.07049561,-0.05960083,0.9957275,-31.55383,10.93069,-57.03865,3.475266,0.4810268,0.4799127,0.5103782,0.1227875,-0.09735107,0.9876404,37.66185,13.48543,-78.35945,2.920471,0.1864392,0.6620508,0.2979095,1.255309,-0.2623898,-0.001300493,0.7502545,-0.03969191,2.401903,-0.3410595555421396,28.539657087659986
1,0.05982971,-0.05349731,0.9967651,0.7793756,0.05982971,-0.05349731,0.9967651,-31.61792,10.64586,-55.90642,3.565369,0.4859357,0.4779718,0.5192801,0.1181183,-0.09831238,0.9881134,37.62761,13.55934,-78.33464,2.912247,0.1907161,0.6574054,0.298728,1.255057,-0.2618979,-0.001507457,0.7461218,-0.04116821,2.401903,-1.299942,28.539657087659986
1,0.05982971,-0.05349731,0.9967651,0.7793756,0.05982971,-0.05349731,0.9967651,-31.61792,10.64586,-55.90642,3.565369,0.4859357,0.4779718,0.5192801,0.1181183,-0.09831238,0.9881134,37.62761,13.55934,-78.33464,2.912247,0.1907161,0.6574054,0.298728,1.255057,-0.2618979,-0.001507457,0.7461218,-0.04116821,2.401903,-1.299942,28.539657087659986
1,0.05961609,-0.05055237,0.996933,0.7793756,0.05961609,-0.05055237,0.996933,-31.64493,10.47121,-55.22241,3.554047,0.4870194,0.4770464,0.5192801,0.1157074,-0.09313965,0.9888916,37.59978,13.57431,-78.33214,2.956451,0.1933993,0.6548755,0.2992245,1.254963,-0.2616182,-0.001713339,0.7440324,-0.04189645,2.401903,-1.299942,28.539657087659986
1,0.04377747,-0.0609436,0.9971771,0.7866254,0.04377747,-0.0609436,0.9971771,-31.73303,10.61177,-55.63712,3.453415,0.4941713,0.4779511,0.5011157,0.113678,-0.0904541,0.9893799,37.56651,13.59213,-78.336,2.836212,0.1967303,0.6527836,0.300226,1.254853,-0.2609927,-0.0021734,0.7398033,-0.04343766,2.401903,-1.299942,28.539657087659986
1,0.04377747,-0.0609436,0.9971771,0.7866254,0.04377747,-0.0609436,0.9971771,-31.73303,10.61177,-55.63712,3.453415,0.4941713,0.4779511,0.5011157,0.113678,-0.0904541,0.9893799,37.56651,13.59213,-78.336,2.836212,0.1967303,0.6527836,0.300226,1.254853,-0.2609927,-0.0021734,0.7398033,-0.04343766,2.401903,-1.299942,28.539657087659986
1,0.04379272,-0.03253174,0.9985046,0.8415474,0.04379272,-0.03253174,0.9985046,-31.75969,10.7041,-56.03587,3.562546,0.4954172,0.4724049,0.6022089,0.1067505,-0.08285522,0.9908142,37.53709,13.60229,-78.53639,2.833237,0.2001705,0.6533095,0.3011744,1.254867,-0.2602098,-0.003051758,0.7355331,-0.0451741,2.401903,-1.299942,28.539657087659986
1,0.04379272,-0.03253174,0.9985046,0.8415474,0.04379272,-0.03253174,0.9985046,-31.75969,10.7041,-56.03587,3.562546,0.4954172,0.4724049,0.6022089,0.1067505,-0.08285522,0.9908142,37.53709,13.60229,-78.53639,2.833237,0.2001705,0.6533095,0.3011744,1.254867,-0.2602098,-0.003051758,0.7355331,-0.0451741,2.401903,-1.299942,28.539657087659986
1,0.02542114,-0.03457642,0.9990692,0.8416467,0.02542114,-0.03457642,0.9990692,-31.79762,10.64711,-55.82549,3.508942,0.5008787,0.4728824,0.6178876,0.09690857,-0.09365845,0.9908752,37.48978,13.7242,-78.91762,2.751724,0.2051069,0.6561049,0.3020929,1.254793,-0.259394,-0.004161147,0.7314494,-0.04685561,2.401903,-1.299942,28.539657087659986
1,0.004455566,-0.04924011,0.998764,0.8659157,0.004455566,-0.04924011,0.998764,-31.83739,10.56212,-55.53073,3.365723,0.5069086,0.4762768,0.6681929,0.06977844,-0.1059418,0.9919128,36.86597,17.14285,-89.70335,2.399887,0.2154192,0.6517776,0.3020929,1.254793,-0.259394,-0.004161147,0.7314494,-0.04685561,2.401903,-1.299942,28.539657087659986
1,0.004455566,-0.04924011,0.998764,0.8659157,0.004455566,-0.04924011,0.998764,-31.83739,10.56212,-55.53073,3.365723,0.5069086,0.4762768,0.6681929,0.06977844,-0.1059418,0.9919128,36.86597,17.14285,-89.70335,2.399887,0.2154192,0.6517776,0.3020929,1.254793,-0.259394,-0.004161147,0.7314494,-0.04685561,2.401903,-1.299942,28.539657087659986
1,0.02285767,-0.04922485,0.9985199,0.8529693,0.02285767,-0.04922485,0.9985199,-31.88872,10.76355,-56.17271,3.413162,0.5053995,0.4749731,0.7074676,0.0700531,-0.03881836,0.9967804,38.27985,8.35112,-61.60115,3.499435,0.2239009,0.6463298,0.303021,1.254699,-0.2586013,-0.005144362,0.727248,-0.0484968,2.401903,-1.299942,28.539657087659986
1,0.002883911,-0.04788208,0.9988403,0.8723102,0.002883911,-0.04788208,0.9988403,-31.92258,10.57126,-55.43001,3.32135,0.5108138,0.4744582,0.6882238,0.0725708,-0.06729126,0.9950867,38.24944,8.24292,-61.12798,3.388657,0.2261248,0.6515178,0.3038733,1.254569,-0.2577453,-0.005915689,0.723003,-0.05010886,2.401903,-1.299942,28.539657087659986
1,-0.001342773,-0.05630493,0.9983978,0.9254448,-0.001342773,-0.05630493,0.9983978,-31.94878,10.62862,-55.67497,3.257751,0.5129135,0.4765771,0.7148992,0.05412292,-0.07774353,0.9954987,37.15195,15.05255,-83.19727,2.569168,0.2264537,0.6490026,0.304783,1.254458,-0.256944,-0.006748181,0.7190146,-0.05146158,2.401903,-1.299942,28.539657087659986
1,-0.001342773,-0.05630493,0.9983978,0.9254448,-0.001342773,-0.05630493,0.9983978,-31.94878,10.62862,-55.67497,3.257751,0.5129135,0.4765771,0.7148992,0.05412292,-0.07774353,0.9954987,37.15195,15.05255,-83.19727,2.569168,0.2264537,0.6490026,0.304783,1.254458,-0.256944,-0.006748181,0.7190146,-0.05146158,2.401903,-1.299942,28.539657087659986
1,-0.01557922,-0.05831909,0.9981689,0.9846762,-0.01557922,-0.05831909,0.9981689,-31.98529,10.67268,-55.79132,3.255737,0.5175512,0.4764775,0.7298504,0.05606079,-0.04136658,0.9975586,37.46565,13.01532,-76.71555,2.896347,0.2281241,0.6421612,0.3056324,1.254359,-0.2560931,-0.007631592,0.7153032,-0.05272837,2.401903,-1.299942,28.539657087659986
1,-0.01557922,-0.05831909,0.9981689,0.9846762,-0.01557922,-0.05831909,0.9981689,-31.98529,10.67268,-55.79132,3.255737,0.5175512,0.4764775,0.7298504,0.05606079,-0.04136658,0.9975586,37.46565,13.01532,-76.71555,2.896347,0.2281241,0.6421612,0.3056324,1.254359,-0.2560931,-0.007631592,0.7153032,-0.05272837,2.401903,-1.299942,28.539657087659986
1,-0.02041626,-0.05383301,0.9983368,0.9478258,-0.02041626,-0.05383301,0.9983368,-32.03311,10.62082,-55.58502,3.205307,0.5205155,0.4753696,0.7604703,0.05166626,-0.07481384,0.9958496,37.10147,14.92683,-82.66112,2.550049,0.2327646,0.6456478,0.3065306,1.254297,-0.2552597,-0.008560168,0.7121717,-0.05354235,2.401903,-5.975754,28.539657087659986
1,-0.02041626,-0.05383301,0.9983368,0.9478258,-0.02041626,-0.05383301,0.9983368,-32.03311,10.62082,-55.58502,3.205307,0.5205155,0.4753696,0.7604703,0.05166626,-0.07481384,0.9958496,37.10147,14.92683,-82.66112,2.550049,0.2327646,0.6456478,0.3065306,1.254297,-0.2552597,-0.008560168,0.7121717,-0.05354235,2.401903,-5.975754,28.539657087659986
1,-0.02412415,-0.03088379,0.9992218,0.9695663,-0.02412415,-0.03088379,0.9992218,-32.07181,10.74792,-56.01514,3.338165,0.52319,0.4699029,0.7648622,0.04986572,-0.06347656,0.9967346,36.89842,15.98299,-85.96547,2.486542,0.2356097,0.63836,0.3073756,1.254272,-0.2546661,-0.00964085,0.7099043,-0.0540611,2.401903,-5.975754,28.539657087659986
1,-0.02412415,-0.03088379,0.9992218,0.9695663,-0.02412415,-0.03088379,0.9992218,-32.07181,10.74792,-56.01514,3.338165,0.52319,0.4699029,0.7648622,0.04986572,-0.06347656,0.9967346,36.89842,15.98299,-85.96547,2.486542,0.2356097,0.63836,0.3073756,1.254272,-0.2546661,-0.00964085,0.7099043,-0.0540611,2.401903,-5.975754,28.539657087659986
1,-0.02912903,-0.04620361,0.9985046,0.9422386,-0.02912903,-0.04620361,0.9985046,-32.13689,11.10251,-57.34038,3.154022,0.52776,0.4729471,0.741715,0.03204346,-0.0670929,0.9972229,36.98318,15.10431,-83.0381,2.540131,0.2460719,0.6391404,0.3081936,1.254244,-0.2542918,-0.009895604,0.7082272,-0.05429131,2.401903,-5.975754,28.539657087659986
1,-0.02912903,-0.04620361,0.9985046,0.9422386,-0.02912903,-0.04620361,0.9985046,-32.13689,11.10251,-57.34038,3.154022,0.52776,0.4729471,0.741715,0.03204346,-0.0670929,0.9972229,36.98318,15.10431,-83.0381,2.540131,0.2460719,0.6391404,0.3081936,1.254244,-0.2542918,-0.009895604,0.7082272,-0.05429131,2.401903,-5.975754,28.539657087659986
1,-0.03312683,-0.04624939,0.9983673,1.0,-0.03312683,-0.04624939,0.9983673,-32.16882,11.20494,-57.69897,3.061783,0.5302195,0.4725701,1.0,0.02558899,-0.06355286,0.9976349,36.90947,15.347,-83.8576,2.424942,0.2506139,0.6380826,0.3089832,1.254134,-0.2538462,-0.009557801,0.7065582,-0.05389864,2.401903,-5.975754,28.539657087659986
1,-0.03312683,-0.04624939,0.9983673,1.0,-0.03312683,-0.04624939,0.9983673,-32.16882,11.20494,-57.69897,3.061783,0.5302195,0.4725701,1.0,0.02558899,-0.06355286,0.9976349,36.90947,15.347,-83.8576,2.424942,0.2506139,0.6380826,0.3089832,1.254134,-0.2538462,-0.009557801,0.7065582,-0.05389864,2.401903,-5.975754,28.539657087659986
1,-0.02809143,-0.04849243,0.9984131,1.0,-0.02809143,-0.04849243,0.9984131,-32.16852,11.29037,-58.01332,3.051956,0.5292864,0.4729463,1.0,0.02484131,-0.05413818,0.9982147,36.82449,15.87941,-85.69617,2.366226,0.2506139,0.6363084,0.3097557,1.254021,-0.2534306,-0.008401595,0.7050398,-0.05324771,2.401903,-5.975754,28.539657087659986
1,-0.02809143,-0.04849243,0.9984131,1.0,-0.02809143,-0.04849243,0.9984131,-32.16852,11.29037,-58.01332,3.051956,0.5292864,0.4729463,1.0,0.02484131,-0.05413818,0.9982147,36.82449,15.87941,-85.69617,2.366226,0.2506139,0.6363084,0.3097557,1.254021,-0.2534306,-0.008401595,0.7050398,-0.05324771,2.401903,-5.975754,28.539657087659986
2,-0.02677917,-0.04850769,0.9984589,0.988975,-0.02677917,-0.04850769,0.9984589,-32.17313,11.21986,-57.75273,3.032257,0.5290469,0.4730057,0.8212625,0.02035522,-0.01948547,0.999588,37.22061,13.11667,-77.10858,2.647278,0.2534582,0.6360773,0.3104879,1.253802,-0.253125,-0.006710537,0.7037961,-0.05269254,2.401903,-5.975754,28.539657087659986
2,-0.02677917,-0.04850769,0.9984589,0.988975,-0.02677917,-0.04850769,0.9984589,-32.17313,11.21986,-57.75273,3.032257,0.5290469,0.4730057,0.8212625,0.02035522,-0.01948547,0.999588,37.22061,13.11667,-77.10858,2.647278,0.2534582,0.6360773,0.3104879,1.253802,-0.253125,-0.006710537,0.7037961,-0.05269254,2.401903,-5.975754,28.539657087659986
2,-0.03048706,-0.05999756,0.9977264,0.9877624,-0.03048706,-0.05999756,0.9977264,-32.21747,11.13258,-57.448,2.911438,0.5315832,0.4758019,0.8192171,0.02125549,-0.04597473,0.998703,36.9068,15.03053,-83.13507,2.289505,0.2548047,0.6381615,0.3111537,1.253518,-0.2529945,-0.004965276,0.7030837,-0.05253245,2.401903,-5.975754,28.539657087659986
2,-0.03048706,-0.05999756,0.9977264,0.9877624,-0.03048706,-0.05999756,0.9977264,-32.21747,11.13258,-57.448,2.911438,0.5315832,0.4758019,0.8192171,0.02125549,-0.04597473,0.998703,36.9068,15.03053,-83.13507,2.289505,0.2548047,0.6381615,0.3111537,1.253518,-0.2529945,-0.004965276,0.7030837,-0.05253245,2.401903,-5.975754,28.539657087659986
2,-0.03631592,-0.05584717,0.9977722,1.0,-0.03631592,-0.05584717,0.9977722,-32.2373,11.13013,-57.45705,2.979645,0.533721,0.4751386,1.0,0.02166748,-0.04415894,0.9987793,36.89946,15.00357,-82.94728,2.346069,0.2557174,0.6358542,0.311632,1.253093,-0.2527431,-0.003324035,0.7026265,-0.05297352,2.401903,-5.975754,28.539657087659986
2,-0.03631592,-0.05584717,0.9977722,1.0,-0.03631592,-0.05584717,0.9977722,-32.2373,11.13013,-57.45705,2.979645,0.533721,0.4751386,1.0,0.02166748,-0.04415894,0.9987793,36.89946,15.00357,-82.94728,2.346069,0.2557174,0.6358542,0.311632,1.253093,-0.2527431,-0.003324035,0.7026265,-0.05297352,2.401903,-5.975754,28.539657087659986
2,-0.03840637,-0.05859375,0.9975281,1.0,-0.03840637,-0.05859375,0.9975281,-32.24443,11.13167,-57.47783,2.946579,0.534494,0.4759058,1.0,0.01930237,-0.04721069,0.9986877,36.87709,15.07146,-83.13507,2.326492,0.2573691,0.6361177,0.3122094,1.252647,-0.2523612,-0.00158926,0.702081,-0.05352119,2.401903,4.7164,28.539657087659986
2,-0.03840637,-0.05859375,0.9975281,1.0,-0.03840637,-0.05859375,0.9975281,-32.24443,11.13167,-57.47783,2.946579,0.534494,0.4759058,1.0,0.01930237,-0.04721069,0.9986877,36.87709,15.07146,-83.13507,2.326492,0.2573691,0.6361177,0.3122094,1.252647,-0.2523612,-0.00158926,0.702081,-0.05352119,2.401903,4.7164,28.539657087659986
2,-0.03840637,-0.05487061,0.9977417,1.0,-0.03840637,-0.05487061,0.9977417,-32.24245,11.12712,-57.4622,2.936676,0.5343997,0.4750762,1.0,0.02217102,-0.05010986,0.9984894,36.85919,15.07726,-83.10542,2.326996,0.2576622,0.6361504,0.3127414,1.252057,-0.2519627,0.0002441406,0.7012685,-0.05383121,2.401903,4.7164,28.539657087659986
2,-0.03840637,-0.05487061,0.9977417,1.0,-0.03840637,-0.05487061,0.9977417,-32.24245,11.12712,-57.4622,2.936676,0.5343997,0.4750762,1.0,0.02217102,-0.05010986,0.9984894,36.85919,15.07726,-83.10542,2.326996,0.2576622,0.6361504,0.3127414,1.252057,-0.2519627,0.0002441406,0.7012685,-0.05383121,2.401903,4.7164,28.539657087659986
2,-0.03900146,-0.04701233,0.9981232,1.0,-0.03900146,-0.04701233,0.9981232,-32.23946,11.11826,-57.43625,2.950043,0.5343908,0.4734393,1.0,0.006027222,-0.04560852,0.9989319,36.8387,15.41792,-84.2505,2.242844,0.2609777,0.6348264,0.3134127,1.251649,-0.2515026,0.001229824,0.7003799,-0.05419489,2.401903,4.7164,28.539657087659986
2,-0.03900146,-0.04701233,0.9981232,1.0,-0.03900146,-0.04701233,0.9981232,-32.23946,11.11826,-57.43625,2.950043,0.5343908,0.4734393,1.0,0.006027222,-0.04560852,0.9989319,36.8387,15.41792,-84.2505,2.242844,0.2609777,0.6348264,0.3134127,1.251649,-0.2515026,0.001229824,0.7003799,-0.05419489,2.401903,4.7164,28.539657087659986
2,-0.03900146,-0.04701233,0.9981232,1.0,-0.03900146,-0.04701233,0.9981232,-32.23946,11.11826,-57.43625,2.950043,0.5343908,0.4734393,1.0,0.006027222,-0.04560852,0.9989319,36.8387,15.41792,-84.2505,2.242844,0.2609777,0.6348264,0.3141803,1.251396,-0.2509333,0.001452072,0.6998106,-0.05472843,2.401903,4.7164,28.539657087659986
2,-0.03900146,-0.04701233,0.9981232,1.0,-0.03900146,-0.04701233,0.9981232,-32.23946,11.11826,-57.43625,2.950043,0.5343908,0.4734393,1.0,0.006027222,-0.04560852,0.9989319,36.8387,15.41792,-84.2505,2.242844,0.2609777,0.6348264,0.3141803,1.251396,-0.2509333,0.001452072,0.6998106,-0.05472843,2.401903,4.7164,28.539657087659986
2,-0.03900146,-0.04701233,0.9981232,1.0,-0.03900146,-0.04701233,0.9981232,-32.23946,11.11826,-57.43625,2.950043,0.5343908,0.4734393,1.0,0.006027222,-0.04560852,0.9989319,36.8387,15.41792,-84.2505,2.242844,0.2609777,0.6348264,0.3150007,1.251222,-0.2502875,0.002016933,0.6989838,-0.05549959,2.401903,4.7164,28.539657087659986
2,-0.03900146,-0.04701233,0.9981232,1.0,-0.03900146,-0.04701233,0.9981232,-32.23946,11.11826,-57.43625,2.950043,0.5343908,0.4734393,1.0,0.006027222,-0.04560852,0.9989319,36.8387,15.41792,-84.2505,2.242844,0.2609777,0.6348264,0.3150007,1.251222,-0.2502875,0.002016933,0.6989838,-0.05549959,2.401903,4.7164,28.539657087659986
2,-0.04081726,-0.03923035,0.9983826,1.0,-0.04081726,-0.03923035,0.9983826,-32.23517,11.01688,-56.85193,2.835785,0.5342461,0.4693826,1.0,0.0120697,-0.05702209,0.998291,36.95081,14.6794,-81.79066,2.268585,0.2591539,0.6382975,0.3157181,1.250866,-0.2495335,0.003260671,0.6977234,-0.05595143,2.401903,4.7164,28.539657087659986
2,-0.04081726,-0.03923035,0.9983826,1.0,-0.04081726,-0.03923035,0.9983826,-32.23517,11.01688,-56.85193,2.835785,0.5342461,0.4693826,1.0,0.0120697,-0.05702209,0.998291,36.95081,14.6794,-81.79066,2.268585,0.2591539,0.6382975,0.3157181,1.250866,-0.2495335,0.003260671,0.6977234,-0.05595143,2.401903,4.7164,28.539657087659986
2,-0.04804993,-0.04498291,0.997818,1.0,-0.04804993,-0.04498291,0.997818,-32.24236,11.04147,-56.87248,2.775543,0.5361426,0.4698232,1.0,0.008346558,-0.07214355,0.997345,37.47047,10.895,-69.03949,2.580612,0.2645576,0.6391778,0.3164335,1.250329,-0.2485694,0.004940456,0.6962009,-0.05626052,2.401903,4.7164,28.539657087659986
2,-0.04804993,-0.04498291,0.997818,1.0,-0.04804993,-0.04498291,0.997818,-32.24236,11.04147,-56.87248,2.775543,0.5361426,0.4698232,1.0,0.008346558,-0.07214355,0.997345,37.47047,10.895,-69.03949,2.580612,0.2645576,0.6391778,0.3164335,1.250329,-0.2485694,0.004940456,0.6962009,-0.05626052,2.401903,4.7164,28.539657087659986
2,-0.04153442,-0.007949829,0.9990997,1.0,-0.04153442,-0.007949829,0.9990997,-32.23549,11.0685,-57.08176,2.986923,0.5345897,0.4629596,1.0,0.01002502,-0.0632019,0.9979401,37.57071,10.23662,-67.00874,2.694824,0.2636942,0.6391778,0.3171098,1.249784,-0.2475515,0.006552686,0.6944943,-0.05703918,2.401903,4.7164,28.539657087659986
2,-0.04153442,-0.007949829,0.9990997,1.0,-0.04153442,-0.007949829,0.9990997,-32.23549,11.0685,-57.08176,2.986923,0.5345897,0.4629596,1.0,0.01002502,-0.0632019,0.9979401,37.57071,10.23662,-67.00874,2.694824,0.2636942,0.6391778,0.3171098,1.249784,-0.2475515,0.006552686,0.6944943,-0.05703918,2.401903,4.7164,28.539657087659986
2,-0.05197144,-0.04174805,0.9977722,1.0,-0.05197144,-0.04174805,0.9977722,-32.24876,11.0421,-56.9622,2.752625,0.5373313,0.4700757,1.0,0.009658813,-0.06814575,0.9976196,37.61923,9.851242,-65.80508,2.649551,0.2641701,0.641449,0.31783,1.249273,-0.2464805,0.007516994,0.6927815,-0.05795474,2.401903,5.840317,28.539657087659986
2,-0.05197144,-0.04174805,0.9977722,1.0,-0.05197144,-0.04174805,0.9977722,-32.24876,11.0421,-56.9622,2.752625,0.5373313,0.4700757,1.0,0.009658813,-0.06814575,0.9976196,37.61923,9.851242,-65.80508,2.649551,0.2641701,0.641449,0.31783,1.249273,-0.2464805,0.007516994,0.6927815,-0.05795474,2.401903,5.840317,28.539657087659986
2,-0.05064392,-0.02455139,0.9984131,1.0,-0.05064392,-0.02455139,0.9984131,-32.20473,11.07117,-57.18765,2.7435,0.5353085,0.4675425,1.0,-7.629395e-05,-0.06739807,0.9977112,36.90683,14.86586,-82.41563,2.194473,0.2639808,0.6416551,0.3185588,1.248805,-0.245368,0.008845677,0.6910123,-0.05880534,2.401903,5.840317,28.539657087659986
2,-0.05064392,-0.02455139,0.9984131,1.0,-0.05064392,-0.02455139,0.9984131,-32.20473,11.07117,-57.18765,2.7435,0.5353085,0.4675425,1.0,-7.629395e-05,-0.06739807,0.9977112,36.90683,14.86586,-82.41563,2.194473,0.2639808,0.6416551,0.3185588,1.248805,-0.245368,0.008845677,0.6910123,-0.05880534,2.401903,5.840317,28.539657087659986
2,-0.03694153,-0.0793457,0.9961548,0.9910913,-0.03694153,-0.0793457,0.9961548,-32.06532,10.93761,-57.39413,2.768936,0.5263626,0.4877675,0.7150851,0.05361938,-0.07543945,0.995697,38.09033,6.757782,-56.77112,2.959244,0.250312,0.6596945,0.3188653,1.248443,-0.2447218,0.009603295,0.6900687,-0.05934162,2.401903,5.840317,28.539657087659986
2,-0.03302002,-0.07424927,0.9966888,0.8824023,-0.03302002,-0.07424927,0.9966888,-32.15594,10.36172,-55.49017,2.810791,0.5283186,0.4894773,0.7966772,0.01664734,-0.08972168,0.9958191,37.89299,7.873672,-60.69115,2.838089,0.2595612,0.6671248,0.3194312,1.247637,-0.2435242,0.01155678,0.6882651,-0.06053789,2.401903,5.840317,28.539657087659986
2,-0.03302002,-0.07424927,0.9966888,0.8824023,-0.03302002,-0.07424927,0.9966888,-32.15594,10.36172,-55.49017,2.810791,0.5283186,0.4894773,0.7966772,0.01664734,-0.08972168,0.9958191,37.89299,7.873672,-60.69115,2.838089,0.2595612,0.6671248,0.3194312,1.247637,-0.2435242,0.01155678,0.6882651,-0.06053789,2.401903,5.840317,28.539657087659986
2,-0.03302002,-0.07424927,0.9966888,0.8824023,-0.03302002,-0.07424927,0.9966888,-32.15594,10.36172,-55.49017,2.810791,0.5283186,0.4894773,0.7966772,0.01664734,-0.08972168,0.9958191,37.89299,7.873672,-60.69115,2.838089,0.2595612,0.6671248,0.3196473,1.247233,-0.2429411,0.0127413,0.6873522,-0.06132105,2.401903,5.840317,28.539657087659986
2,-0.03302002,-0.07424927,0.9966888,0.8824023,-0.03302002,-0.07424927,0.9966888,-32.15594,10.36172,-55.49017,2.810791,0.5283186,0.4894773,0.7966772,0.01664734,-0.08972168,0.9958191,37.89299,7.873672,-60.69115,2.838089,0.2595612,0.6671248,0.3196473,1.247233,-0.2429411,0.0127413,0.6873522,-0.06132105,2.401903,5.840317,28.539657087659986
2,-0.03302002,-0.07424927,0.9966888,0.8824023,-0.03302002,-0.07424927,0.9966888,-32.15594,10.36172,-55.49017,2.810791,0.5283186,0.4894773,0.7966772,0.01664734,-0.08972168,0.9958191,37.89299,7.873672,-60.69115,2.838089,0.2595612,0.6671248,0.3202322,1.246336,-0.2418646,0.01519984,0.6855813,-0.06263878,2.401903,5.840317,28.539657087659986
2,-0.03302002,-0.07424927,0.9966888,0.8824023,-0.03302002,-0.07424927,0.9966888,-32.15594,10.36172,-55.49017,2.810791,0.5283186,0.4894773,0.7966772,0.01664734,-0.08972168,0.9958191,37.89299,7.873672,-60.69115,2.838089,0.2595612,0.6671248,0.3204248,1.245945,-0.2413442,0.01631021,0.6847866,-0.06318285,2.401903,5.840317,28.539657087659986
2,-0.03302002,-0.07424927,0.9966888,0.8824023,-0.03302002,-0.07424927,0.9966888,-32.15594,10.36172,-55.49017,2.810791,0.5283186,0.4894773,0.7966772,0.01664734,-0.08972168,0.9958191,37.89299,7.873672,-60.69115,2.838089,0.2595612,0.6671248,0.3204248,1.245945,-0.2413442,0.01631021,0.6847866,-0.06318285,2.401903,5.840317,28.539657087659986
2,-0.03849792,-0.06585693,0.9970703,0.9041862,-0.03849792,-0.06585693,0.9970703,-32.16742,10.52467,-56.0983,2.830673,0.5303386,0.4876549,0.8473711,0.02416992,-0.08731079,0.9958801,37.89279,7.879227,-60.71021,2.839966,0.2576679,0.6665576,0.3208145,1.245356,-0.2402633,0.01865461,0.6833242,-0.06361661,2.401903,5.840317,29.17
2,-0.03923035,-0.06091309,0.9973602,0.8500751,-0.03923035,-0.06091309,0.9973602,-32.23906,10.73196,-56.62779,2.865585,0.5338844,0.4838017,0.778209,0.01393127,-0.08248901,0.9964905,36.84598,14.87326,-82.92697,2.192917,0.2612546,0.6555791,0.3208305,1.245147,-0.2397169,0.01951847,0.6825845,-0.06376179,2.401903,-0.9344177,29.17
2,-0.03923035,-0.06091309,0.9973602,0.8500751,-0.03923035,-0.06091309,0.9973602,-32.23906,10.73196,-56.62779,2.865585,0.5338844,0.4838017,0.778209,0.01393127,-0.08248901,0.9964905,36.84598,14.87326,-82.92697,2.192917,0.2612546,0.6555791,0.3208305,1.245147,-0.2397169,0.01951847,0.6825845,-0.06376179,2.401903,-0.9344177,29.17
2,-0.03923035,-0.06091309,0.9973602,0.8500751,-0.03923035,-0.06091309,0.9973602,-32.23906,10.73196,-56.62779,2.865585,0.5338844,0.4838017,0.778209,0.01393127,-0.08248901,0.9964905,36.84598,14.87326,-82.92697,2.192917,0.2612546,0.6555791,0.3209246,1.244994,-0.2392119,0.02015233,0.681935,-0.06352349,2.401903,-0.9344177,29.17
2,-0.03923035,-0.06091309,0.9973602,0.8500751,-0.03923035,-0.06091309,0.9973602,-32.23906,10.73196,-56.62779,2.865585,0.5338844,0.4838017,0.778209,0.01393127,-0.08248901,0.9964905,36.84598,14.87326,-82.92697,2.192917,0.2612546,0.6555791,0.3210638,1.244765,-0.2379731,0.02187751,0.680114,-0.06278522,2.401903,-0.9344177,29.17
2,-0.03923035,-0.06091309,0.9973602,0.8500751,-0.03923035,-0.06091309,0.9973602,-32.23906,10.73196,-56.62779,2.865585,0.5338844,0.4838017,0.778209,0.01393127,-0.08248901,0.9964905,36.84598,14.87326,-82.92697,2.192917,0.2612546,0.6555791,0.3210638,1.244765,-0.2379731,0.02187751,0.680114,-0.06278522,2.401903,-0.9344177,29.17
2,-0.03923035,-0.06091309,0.9973602,0.8500751,-0.03923035,-0.06091309,0.9973602,-32.23906,10.73196,-56.62779,2.865585,0.5338844,0.4838017,0.778209,0.01393127,-0.08248901,0.9964905,36.84598,14.87326,-82.92697,2.192917,0.2612546,0.6555791,0.3210566,1.244668,-0.2375764,0.02263985,0.6795685,-0.06261559,2.401903,-0.9344177,29.17
2,-0.04653931,-0.0667572,0.9966736,0.8982802,-0.04653931,-0.0667572,0.9966736,-32.31027,10.70805,-56.29408,2.82608,0.5383007,0.4823404,0.8441392,0.008850098,-0.08004761,0.9967499,36.69724,15.69591,-85.24866,2.111267,0.265954,0.6475592,0.3209903,1.244615,-0.2372097,0.02317424,0.6790886,-0.06238253,2.401903,-0.9344177,29.17
2,-0.04653931,-0.0667572,0.9966736,0.8982802,-0.04653931,-0.0667572,0.9966736,-32.31027,10.70805,-56.29408,2.82608,0.5383007,0.4823404,0.8441392,0.008850098,-0.08004761,0.9967499,36.69724,15.69591,-85.24866,2.111267,0.265954,0.6475592,0.3209903,1.244615,-0.2372097,0.02317424,0.6790886,-0.06238253,2.401903,-0.9344177,29.17
2,-0.03192139,-0.06069946,0.9976349,0.9268661,-0.03192139,-0.06069946,0.9976349,-32.32785,10.93416,-57.13605,2.841431,0.5364393,0.4808761,0.7253991,0.0001983643,-0.09069824,0.9958649,36.65677,15.90215,-85.8924,2.097488,0.2695068,0.6504939,0.3208773,1.244621,-0.236447,0.02406427,0.6780914,-0.06170555,2.401903,-0.9344177,29.17
2,-0.04777527,-0.06265259,0.9968872,0.9435553,-0.04777527,-0.06265259,0.9968872,-32.32997,11.00754,-57.39925,2.793091,0.5401704,0.4811835,0.7584723,0.0001068115,-0.09306335,0.9956512,36.65677,15.90215,-85.8924,2.096939,0.2695068,0.6512937,0.3208133,1.24469,-0.2360928,0.02431192,0.6774795,-0.06121993,2.401903,-0.9344177,29.17
2,-0.04655457,-0.06257629,0.9969482,0.8859524,-0.04655457,-0.06257629,0.9969482,-32.33617,11.00754,-57.39925,2.822632,0.5401704,0.4811835,0.8155665,-0.00213623,-0.09458923,0.9954987,36.65677,15.89149,-85.83069,2.099289,0.2704494,0.6512937,0.3206639,1.244745,-0.2358015,0.02452307,0.6770845,-0.06078489,2.401903,-0.9344177,29.17
2,-0.04655457,-0.06257629,0.9969482,0.8859524,-0.04655457,-0.06257629,0.9969482,-32.33617,11.00754,-57.39925,2.822632,0.5401704,0.4811835,0.8155665,-0.00213623,-0.09458923,0.9954987,36.65677,15.89149,-85.83069,2.099289,0.2704494,0.6512937,0.3206639,1.244745,-0.2358015,0.02452307,0.6770845,-0.06078489,2.401903,-0.9344177,29.17
2,-0.04582214,-0.06274414,0.9969635,0.9736338,-0.04582214,-0.06274414,0.9969635,-32.34109,10.98643,-57.32507,2.809311,0.5401704,0.481275,0.787402,0.0006561279,-0.0941925,0.9955444,36.65677,15.88866,-85.82829,2.098495,0.2695068,0.6512937,0.3203123,1.244839,-0.2353237,0.02484783,0.6763772,-0.05996672,2.401903,-0.9344177,29.17
2,-0.04652405,-0.06237793,0.9969635,0.9736338,-0.04652405,-0.06237793,0.9969635,-32.34538,10.9603,-57.23917,2.804871,0.5404477,0.4813271,0.787402,0.0001678467,-0.09286499,0.9956665,36.65446,15.87334,-85.78047,2.103287,0.2699781,0.6508939,0.3201095,1.244957,-0.2351407,0.02504971,0.6761417,-0.0595478,2.401903,-0.9344177,29.17
2,-0.04649353,-0.06243896,0.9969635,0.9117854,-0.04649353,-0.06243896,0.9969635,-32.35512,10.93263,-57.14738,2.822006,0.5407958,0.4814886,0.774621,-0.0009613037,-0.09213257,0.9957428,36.65907,15.81898,-85.61484,2.108887,0.2705498,0.6508939,0.3194147,1.245154,-0.2347942,0.02528462,0.6756175,-0.05917232,2.401903,-0.9344177,29.17
2,-0.04649353,-0.06243896,0.9969635,0.9117854,-0.04649353,-0.06243896,0.9969635,-32.35512,10.93263,-57.14738,2.822006,0.5407958,0.4814886,0.774621,-0.0009613037,-0.09213257,0.9957428,36.65907,15.81898,-85.61484,2.108887,0.2705498,0.6508939,0.3194147,1.245154,-0.2347942,0.02528462,0.6756175,-0.05917232,2.401903,-0.9344177,29.17
2,-0.04649353,-0.06243896,0.9969635,0.9117854,-0.04649353,-0.06243896,0.9969635,-32.35512,10.93263,-57.14738,2.822006,0.5407958,0.4814886,0.774621,-0.0009613037,-0.09213257,0.9957428,36.65907,15.81898,-85.61484,2.108887,0.2705498,0.6508939,0.3194147,1.245154,-0.2347942,0.02528462,0.6756175,-0.05917232,2.401903,-0.9344177,29.17
2,-0.04379272,-0.06312561,0.9970398,0.9441466,-0.04379272,-0.06312561,0.9970398,-32.37396,10.99698,-57.36215,2.818878,0.5411692,0.4813271,0.8136876,0.001449585,-0.09228516,0.9957275,36.75035,15.04936,-83.19276,2.177261,0.2707577,0.6529143,0.3192202,1.245219,-0.2347251,0.02518468,0.6756202,-0.05893721,2.401903,-0.6656036,29.17
2,-0.04379272,-0.06312561,0.9970398,0.9441466,-0.04379272,-0.06312561,0.9970398,-32.37396,10.99698,-57.36215,2.818878,0.5411692,0.4813271,0.8136876,0.001449585,-0.09228516,0.9957275,36.75035,15.04936,-83.19276,2.177261,0.2707577,0.6529143,0.3192202,1.245219,-0.2347251,0.02518468,0.6756202,-0.05893721,2.401903,-0.6656036,29.17
2,-0.04554749,-0.06117249,0.9970856,0.936606,-0.04554749,-0.06117249,0.9970856,-32.33713,11.12239,-57.50235,2.822052,0.5400732,0.4771138,0.839076,0.02409363,-0.06558228,0.9975433,37.79141,7.539108,-58.54126,2.813568,0.2683267,0.646098,0.3187847,1.245353,-0.2346007,0.02492567,0.6755913,-0.05849168,2.401903,-0.6656036,29.17
2,-0.04026794,-0.07171631,0.9965973,0.9930175,-0.04026794,-0.07171631,0.9965973,-32.30661,10.91736,-56.42285,2.78389,0.5368901,0.4759676,0.6882393,0.02191162,-0.04733276,0.9986267,37.86879,7.146225,-57.05566,2.934006,0.2685237,0.6392825,0.3184869,1.245455,-0.2346476,0.02452702,0.6756371,-0.0583454,2.401903,-0.6656036,29.17
2,-0.04815674,-0.01504517,0.9987183,0.9647765,-0.04815674,-0.01504517,0.9987183,-32.29144,11.03772,-56.55742,2.949478,0.5380984,0.4599811,0.5984498,0.01194763,-0.02210999,0.9996796,37.81456,7.515488,-57.78462,3.028763,0.2721975,0.6267214,0.3182598,1.245555,-0.2346692,0.02441757,0.6757246,-0.05830931,2.401903,-0.6656036,29.17
2,-0.04815674,-0.01504517,0.9987183,0.9647765,-0.04815674,-0.01504517,0.9987183,-32.29144,11.03772,-56.55742,2.949478,0.5380984,0.4599811,0.5984498,0.01194763,-0.02210999,0.9996796,37.81456,7.515488,-57.78462,3.028763,0.2721975,0.6267214,0.3182598,1.245555,-0.2346692,0.02441757,0.6757246,-0.05830931,2.401903,-0.6656036,29.17
2,-0.03941345,-0.0227356,0.9989624,1.0,-0.03941345,-0.0227356,0.9989624,-32.32721,11.25935,-57.46397,2.997559,0.5383285,0.4623429,1.0,0.009231567,-0.03437805,0.9993591,37.89912,6.997391,-56.21524,3.020248,0.2720432,0.6316698,0.3176773,1.24568,-0.234884,0.0240018,0.6761949,-0.05851836,2.401903,-0.6656036,29.17
2,-0.04537964,0.02037048,0.9987488,1.0,-0.04537964,0.02037048,0.9987488,-32.32327,11.31119,-57.81136,3.163757,0.5397468,0.4546146,1.0,0.004608154,-0.04385376,0.9990234,37.83659,7.377228,-57.54324,2.832291,0.2733635,0.6345515,0.317422,1.245716,-0.234981,0.02393185,0.6766928,-0.05864389,2.401903,-0.6656036,29.17
2,-0.04537964,0.02037048,0.9987488,1.0,-0.04537964,0.02037048,0.9987488,-32.32327,11.31119,-57.81136,3.163757,0.5397468,0.4546146,1.0,0.004608154,-0.04385376,0.9990234,37.83659,7.377228,-57.54324,2.832291,0.2733635,0.6345515,0.317422,1.245716,-0.234981,0.02393185,0.6766928,-0.05864389,2.401903,-0.6656036,29.17
2,-0.04829407,-0.02278137,0.9985657,1.0,-0.05014038,-0.02224731,0.9984894,-32.34193,10.96928,-56.57271,2.812149,0.5406859,0.4645601,1.0,0.01580811,-0.04167175,0.9989929,37.90164,6.989563,-56.33272,2.853699,0.2701821,0.6351047,0.3172495,1.245682,-0.2350664,0.02396048,0.6771418,-0.05876193,2.401903,-0.6656036,29.17
2,-0.01982117,-0.04055786,0.9989777,1.0,-0.04748535,-0.03489685,0.9982605,-32.34885,10.84489,-56.11967,2.879684,0.5400778,0.4676136,1.0,0.007843018,-0.04620361,0.9988861,37.92403,6.881973,-56.00726,2.768005,0.271736,0.6364613,0.3166647,1.245611,-0.2352648,0.02397276,0.6781722,-0.05864065,2.401903,-0.6656036,29.17
2,-0.01631165,-0.04145813,0.9989929,1.0,-0.05093384,-0.04026794,0.997879,-32.34978,10.81989,-56.0323,2.825394,0.5407977,0.4688523,1.0,0.002243042,-0.04206848,0.9990997,37.86658,7.301025,-57.44032,2.847641,0.2726743,0.6361991,0.3166647,1.245611,-0.2352648,0.02397276,0.6781722,-0.05864065,2.401903,-0.6656036,29.17
2,-0.01631165,-0.04145813,0.9989929,1.0,-0.05093384,-0.04026794,0.997879,-32.34978,10.81989,-56.0323,2.825394,0.5407977,0.4688523,1.0,0.002243042,-0.04206848,0.9990997,37.86658,7.301025,-57.44032,2.847641,0.2726743,0.6361991,0.3161352,1.245599,-0.2354887,0.02414973,0.6793653,-0.05839575,2.401903,-0.6656036,29.17
2,-0.01631165,-0.04145813,0.9989929,1.0,-0.05093384,-0.04026794,0.997879,-32.34978,10.81989,-56.0323,2.825394,0.5407977,0.4688523,1.0,0.002243042,-0.04206848,0.9990997,37.86658,7.301025,-57.44032,2.847641,0.2726743,0.6361991,0.3161352,1.245599,-0.2354887,0.02414973,0.6793653,-0.05839575,2.401903,-0.6656036,29.17
2,-0.01631165,-0.04145813,0.9989929,1.0,-0.05093384,-0.04026794,0.997879,-32.34978,10.81989,-56.0323,2.825394,0.5407977,0.4688523,1.0,0.002243042,-0.04206848,0.9990997,37.86658,7.301025,-57.44032,2.847641,0.2726743,0.6361991,0.3156064,1.245686,-0.2357798,0.02458906,0.680584,-0.05805807,2.282746,22.98326,29.17
2,-0.01631165,-0.04145813,0.9989929,1.0,-0.05093384,-0.04026794,0.997879,-32.34978,10.81989,-56.0323,2.825394,0.5407977,0.4688523,1.0,0.002243042,-0.04206848,0.9990997,37.86658,7.301025,-57.44032,2.847641,0.2726743,0.6361991,0.3150944,1.245814,-0.236003,0.02480071,0.6819258,-0.05774004,2.282746,22.98326,29.17
2,-0.01631165,-0.04145813,0.9989929,1.0,-0.05093384,-0.04026794,0.997879,-32.34978,10.81989,-56.0323,2.825394,0.5407977,0.4688523,1.0,0.002243042,-0.04206848,0.9990997,37.86658,7.301025,-57.44032,2.847641,0.2726743,0.6361991,0.3150944,1.245814,-0.236003,0.02480071,0.6819258,-0.05774004,2.282746,22.98326,29.17
2,-0.03450012,-0.04164124,0.9985352,1.0,-0.05004883,-0.04289246,0.997818,-32.35069,10.84489,-56.11967,2.766464,0.5407063,0.4693027,1.0,0.004821777,-0.03840637,0.9992371,37.80913,7.720078,-58.8734,2.850677,0.271736,0.6359368,0.3145407,1.246001,-0.2361825,0.02494494,0.6831648,-0.05721199,2.282746,22.98326,29.17
2,-0.03450012,-0.04164124,0.9985352,1.0,-0.05004883,-0.04289246,0.997818,-32.35069,10.84489,-56.11967,2.766464,0.5407063,0.4693027,1.0,0.004821777,-0.03840637,0.9992371,37.80913,7.720078,-58.8734,2.850677,0.271736,0.6359368,0.3145407,1.246001,-0.2361825,0.02494494,0.6831648,-0.05721199,2.282746,22.98326,29.17
2,-0.03450012,-0.04164124,0.9985352,1.0,-0.05004883,-0.04289246,0.997818,-32.35069,10.84489,-56.11967,2.766464,0.5407063,0.4693027,1.0,0.004821777,-0.03840637,0.9992371,37.80913,7.720078,-58.8734,2.850677,0.271736,0.6359368,0.3141639,1.246109,-0.2362181,0.0250061,0.6842665,-0.05659674,2.282746,22.98326,29.17
2,-0.03450012,-0.04164124,0.9985352,1.0,-0.05004883,-0.04289246,0.997818,-32.35069,10.84489,-56.11967,2.766464,0.5407063,0.4693027,1.0,0.004821777,-0.03840637,0.9992371,37.80913,7.720078,-58.8734,2.850677,0.271736,0.6359368,0.3141639,1.246109,-0.2362181,0.0250061,0.6842665,-0.05659674,2.282746,22.98326,29.17
2,-0.03450012,-0.04164124,0.9985352,1.0,-0.05004883,-0.04289246,0.997818,-32.35069,10.84489,-56.11967,2.766464,0.5407063,0.4693027,1.0,0.004821777,-0.03840637,0.9992371,37.80913,7.720078,-58.8734,2.850677,0.271736,0.6359368,0.3137194,1.246294,-0.2361782,0.02522739,0.6852423,-0.05570053,2.282746,22.98326,29.17
2,-0.03450012,-0.04164124,0.9985352,1.0,-0.05004883,-0.04289246,0.997818,-32.35069,10.84489,-56.11967,2.766464,0.5407063,0.4693027,1.0,0.004821777,-0.03840637,0.9992371,37.80913,7.720078,-58.8734,2.850677,0.271736,0.6359368,0.3137194,1.246294,-0.2361782,0.02522739,0.6852423,-0.05570053,2.282746,22.98326,29.17
2,-0.0388031,-0.03115845,0.9987488,1.0,-0.0388031,-0.03115845,0.9987488,-32.2395,11.74638,-59.5793,2.700974,0.5357578,0.466927,1.0,0.01577759,-0.1035004,0.9944916,36.69104,15.90633,-85.06966,2.127686,0.2647875,0.6388194,0.3133169,1.246447,-0.2360573,0.02548538,0.685915,-0.05500599,2.282746,22.98326,29.17
2,-0.0388031,-0.03115845,0.9987488,1.0,-0.0388031,-0.03115845,0.9987488,-32.2395,11.74638,-59.5793,2.700974,0.5357578,0.466927,1.0,0.01577759,-0.1035004,0.9944916,36.69104,15.90633,-85.06966,2.127686,0.2647875,0.6388194,0.3133169,1.246447,-0.2360573,0.02548538,0.685915,-0.05500599,2.282746,22.98326,29.17
2,-0.03726196,-0.02726746,0.9989319,1.0,-0.03726196,-0.02726746,0.9989319,-32.23116,11.75735,-59.63313,2.753143,0.5350829,0.4662087,1.0,0.02084351,-0.09150696,0.995575,36.80991,15.14063,-82.62775,2.26683,0.2627066,0.6367822,0.3128986,1.246533,-0.2358468,0.02581924,0.686408,-0.05403028,2.282746,22.98326,29.17
2,-0.03726196,-0.02726746,0.9989319,1.0,-0.03726196,-0.02726746,0.9989319,-32.23116,11.75735,-59.63313,2.753143,0.5350829,0.4662087,1.0,0.02084351,-0.09150696,0.995575,36.80991,15.14063,-82.62775,2.26683,0.2627066,0.6367822,0.3128986,1.246533,-0.2358468,0.02581924,0.686408,-0.05403028,2.282746,22.98326,29.17
2,-0.03227234,-0.02610779,0.9991302,1.0,-0.03227234,-0.02610779,0.9991302,-32.22899,11.71738,-59.50624,2.721664,0.5337889,0.4662035,1.0,0.0178833,-0.08831787,0.9959259,37.29398,12.11449,-73.02583,2.393158,0.2613929,0.642816,0.3124577,1.246714,-0.2356273,0.0261142,0.6865124,-0.05317882,2.282746,22.98326,29.17
2,-0.03227234,-0.02610779,0.9991302,1.0,-0.03227234,-0.02610779,0.9991302,-32.22899,11.71738,-59.50624,2.721664,0.5337889,0.4662035,1.0,0.0178833,-0.08831787,0.9959259,37.29398,12.11449,-73.02583,2.393158,0.2613929,0.642816,0.3124577,1.246714,-0.2356273,0.0261142,0.6865124,-0.05317882,2.282746,22.98326,29.17
2,-0.05342102,-0.01611328,0.9984283,1.0,-0.05342102,-0.01611328,0.9984283,-32.32449,11.02429,-56.13719,2.896591,0.5403791,0.4561163,1.0,0.004043579,-0.03068542,0.9995117,37.80844,7.811279,-58.30734,2.90448,0.2735083,0.6222768,0.3121092,1.246899,-0.2353077,0.0261162,0.6864709,-0.05236148,2.282746,22.98326,29.17
2,-0.05342102,-0.01611328,0.9984283,1.0,-0.05342102,-0.01611328,0.9984283,-32.32449,11.02429,-56.13719,2.896591,0.5403791,0.4561163,1.0,0.004043579,-0.03068542,0.9995117,37.80844,7.811279,-58.30734,2.90448,0.2735083,0.6222768,0.3121092,1.246899,-0.2353077,0.0261162,0.6864709,-0.05236148,2.282746,22.98326,29.17
2,-0.06907654,0.01495361,0.9974976,1.0,-0.06907654,0.01495361,0.9974976,-32.38565,10.90874,-55.41782,2.995941,0.5458946,0.4464889,1.0,-0.02731323,-0.006149292,0.9996033,36.88461,13.90923,-78.44292,2.43338,0.2853228,0.609538,0.3118203,1.247089,-0.2349766,0.02605122,0.6864271,-0.05185697,2.282746,3.806946,29.17
2,-0.06907654,0.01495361,0.9974976,1.0,-0.06907654,0.01495361,0.9974976,-32.38565,10.90874,-55.41782,2.995941,0.5458946,0.4464889,1.0,-0.02731323,-0.006149292,0.9996033,36.88461,13.90923,-78.44292,2.43338,0.2853228,0.609538,0.3118203,1.247089,-0.2349766,0.02605122,0.6864271,-0.05185697,2.282746,3.806946,29.17
2,-0.05914307,0.006195068,0.9982147,1.0,-0.05914307,0.006195068,0.9982147,-32.38312,11.55159,-58.06798,2.807388,0.5455764,0.4500054,1.0,0.001556396,-0.01502991,0.9998779,37.50919,9.315979,-63.07173,2.669876,0.2788692,0.6142198,0.3114804,1.247293,-0.234553,0.02579773,0.6862342,-0.05134294,2.282746,3.806946,29.17
2,-0.05914307,0.006195068,0.9982147,1.0,-0.05914307,0.006195068,0.9982147,-32.38312,11.55159,-58.06798,2.807388,0.5455764,0.4500054,1.0,0.001556396,-0.01502991,0.9998779,37.50919,9.315979,-63.07173,2.669876,0.2788692,0.6142198,0.3114804,1.247293,-0.234553,0.02579773,0.6862342,-0.05134294,2.282746,3.806946,29.17
2,-0.05226135,0.01147461,0.9985657,1.0,-0.05226135,0.01147461,0.9985657,-32.40189,11.51868,-57.94281,2.89859,0.5447835,0.4489073,1.0,-0.006973267,-0.0219574,0.9997253,37.51347,9.300827,-62.97916,2.602966,0.2810363,0.6152738,0.3112158,1.247464,-0.2341892,0.02547368,0.6859882,-0.05080626,2.282746,3.806946,29.17
2,-0.05226135,0.01147461,0.9985657,1.0,-0.05226135,0.01147461,0.9985657,-32.40189,11.51868,-57.94281,2.89859,0.5447835,0.4489073,1.0,-0.006973267,-0.0219574,0.9997253,37.51347,9.300827,-62.97916,2.602966,0.2810363,0.6152738,0.3112158,1.247464,-0.2341892,0.02547368,0.6859882,-0.05080626,2.282746,3.806946,29.17
3,-0.05754089,0.00440979,0.9983215,1.0,-0.05754089,0.00440979,0.9983215,-32.42744,11.16168,-56.64319,2.864944,0.5460635,0.4513504,1.0,-0.007141113,-0.03012085,0.9995117,37.49432,9.442917,-63.44232,2.56337,0.2810203,0.6170521,0.3110458,1.247561,-0.2339401,0.0251758,0.6858206,-0.05046467,2.282746,3.806946,29.17
3,-0.05754089,0.00440979,0.9983215,1.0,-0.05754089,0.00440979,0.9983215,-32.42744,11.16168,-56.64319,2.864944,0.5460635,0.4513504,1.0,-0.007141113,-0.03012085,0.9995117,37.49432,9.442917,-63.44232,2.56337,0.2810203,0.6170521,0.3110458,1.247561,-0.2339401,0.0251758,0.6858206,-0.05046467,2.282746,3.806946,29.17
3,-0.05780029,0.003555298,0.9983215,1.0,-0.05780029,0.003555298,0.9983215,-32.43611,11.15625,-56.60796,2.818802,0.546465,0.4513504,1.0,-0.006713867,-0.03890991,0.9992065,37.48579,9.493423,-63.60837,2.556107,0.2809218,0.6191829,0.3108094,1.247567,-0.2336285,0.02510126,0.6858004,-0.0504058,2.282746,3.806946,29.17
3,-0.05780029,0.003555298,0.9983215,1.0,-0.05780029,0.003555298,0.9983215,-32.43611,11.15625,-56.60796,2.818802,0.546465,0.4513504,1.0,-0.006713867,-0.03890991,0.9992065,37.48579,9.493423,-63.60837,2.556107,0.2809218,0.6191829,0.3108094,1.247567,-0.2336285,0.02510126,0.6858004,-0.0504058,2.282746,3.806946,29.17
3,-0.05686951,-0.01283264,0.998291,1.0,-0.05686951,-0.01283264,0.998291,-32.46339,11.24126,-56.93616,2.77301,0.5476592,0.4549323,1.0,-0.003662109,-0.03739929,0.9992828,37.42973,9.763077,-64.51556,2.555695,0.2810044,0.6188305,0.3106652,1.247491,-0.2334212,0.02519488,0.6856862,-0.05040669,2.282746,3.806946,29.17
3,-0.05686951,-0.01283264,0.998291,1.0,-0.05686951,-0.01283264,0.998291,-32.46339,11.24126,-56.93616,2.77301,0.5476592,0.4549323,1.0,-0.003662109,-0.03739929,0.9992828,37.42973,9.763077,-64.51556,2.555695,0.2810044,0.6188305,0.3106652,1.247491,-0.2334212,0.02519488,0.6856862,-0.05040669,2.282746,3.806946,29.17
3,-0.05290222,-0.01220703,0.9985199,1.0,-0.05290222,-0.01220703,0.9985199,-32.46687,11.25887,-57.0071,2.756805,0.5469981,0.4548073,1.0,-0.002426147,-0.06307983,0.9980011,37.18388,11.55702,-70.15274,2.40834,0.2809218,0.6196997,0.3104697,1.247415,-0.2332603,0.02532231,0.6856965,-0.05023078,2.282746,3.806946,29.17
3,-0.05290222,-0.01220703,0.9985199,1.0,-0.05290222,-0.01220703,0.9985199,-32.46687,11.25887,-57.0071,2.756805,0.5469981,0.4548073,1.0,-0.002426147,-0.06307983,0.9980011,37.18388,11.55702,-70.15274,2.40834,0.2809218,0.6196997,0.3104697,1.247415,-0.2332603,0.02532231,0.6856965,-0.05023078,2.282746,3.806946,29.17
3,-0.05455017,-0.01452637,0.9983978,1.0,-0.05455017,-0.01452637,0.9983978,-32.46869,11.2496,-56.97714,2.700348,0.5474098,0.455349,1.0,-0.0008239746,-0.06335449,0.9979858,37.18849,11.51514,-70.02228,2.425354,0.2805158,0.6199493,0.3103334,1.247356,-0.2331249,0.02533863,0.6859434,-0.04997419,2.282746,3.806946,29.17
3,-0.05455017,-0.01452637,0.9983978,1.0,-0.05455017,-0.01452637,0.9983978,-32.46869,11.2496,-56.97714,2.700348,0.5474098,0.455349,1.0,-0.0008239746,-0.06335449,0.9979858,37.18849,11.51514,-70.02228,2.425354,0.2805158,0.6199493,0.3103334,1.247356,-0.2331249,0.02533863,0.6859434,-0.04997419,2.282746,3.806946,29.17
3,-0.0579071,-0.01701355,0.9981689,1.0,-0.0579071,-0.01701355,0.9981689,-32.47066,11.21448,-56.83194,2.712296,0.5481156,0.4558033,1.0,-0.002120972,-0.06703186,0.9977417,37.18849,11.51514,-70.02228,2.424561,0.2808393,0.6209452,0.3101486,1.247313,-0.2331592,0.02549648,0.686279,-0.04972571,2.282746,-26.91469,29.17
3,-0.0579071,-0.01701355,0.9981689,1.0,-0.0579071,-0.01701355,0.9981689,-32.47066,11.21448,-56.83194,2.712296,0.5481156,0.4558033,1.0,-0.002120972,-0.06703186,0.9977417,37.18849,11.51514,-70.02228,2.424561,0.2808393,0.6209452,0.3101486,1.247313,-0.2331592,0.02549648,0.686279,-0.04972571,2.282746,-26.91469,29.17
3,-0.0572052,-0.01838684,0.9981842,1.0,-0.0572052,-0.01838684,0.9981842,-32.47427,11.2234,-56.85031,2.706787,0.548131,0.4559297,1.0,-0.0003509521,-0.03244019,0.9994659,37.57025,8.570038,-60.73816,2.69136,0.2810888,0.6209452,0.3099843,1.247208,-0.2331587,0.0256747,0.6868201,-0.04934729,2.282746,-26.91469,29.17
3,-0.0572052,-0.01838684,0.9981842,1.0,-0.0572052,-0.01838684,0.9981842,-32.47427,11.2234,-56.85031,2.706787,0.548131,0.4559297,1.0,-0.0003509521,-0.03244019,0.9994659,37.57025,8.570038,-60.73816,2.69136,0.2810888,0.6209452,0.3099843,1.247208,-0.2331587,0.0256747,0.6868201,-0.04934729,2.282746,-26.91469,29.17
3,-0.05656433,-0.01858521,0.9982147,1.0,-0.05656433,-0.01858521,0.9982147,-32.47926,11.20528,-56.79866,2.707932,0.5481624,0.4561713,1.0,0.003082275,-0.03201294,0.9994812,37.57166,8.520264,-60.58205,2.672592,0.2805158,0.6209654,0.3098855,1.247194,-0.2333711,0.02581073,0.6874726,-0.04913576,2.282746,-26.91469,29.17
3,-0.05656433,-0.01858521,0.9982147,1.0,-0.05656433,-0.01858521,0.9982147,-32.47926,11.20528,-56.79866,2.707932,0.5481624,0.4561713,1.0,0.003082275,-0.03201294,0.9994812,37.57166,8.520264,-60.58205,2.672592,0.2805158,0.6209654,0.3098855,1.247194,-0.2333711,0.02581073,0.6874726,-0.04913576,2.282746,-26.91469,29.17
3,-0.05467224,-0.02055359,0.998291,1.0,-0.05467224,-0.02055359,0.998291,-32.49013,11.19792,-56.75256,2.717468,0.5481791,0.4564139,1.0,0.004852295,-0.03286743,0.9994354,37.57202,8.486877,-60.47194,2.675171,0.2802862,0.6211916,0.3098345,1.247206,-0.2335266,0.02581766,0.6881486,-0.04896412,2.282746,-26.91469,29.17
3,-0.05467224,-0.02055359,0.998291,1.0,-0.05467224,-0.02055359,0.998291,-32.49013,11.19792,-56.75256,2.717468,0.5481791,0.4564139,1.0,0.004852295,-0.03286743,0.9994354,37.57202,8.486877,-60.47194,2.675171,0.2802862,0.6211916,0.3098345,1.247206,-0.2335266,0.02581766,0.6881486,-0.04896412,2.282746,-26.91469,29.17
3,-0.05465698,-0.02000427,0.998291,1.0,-0.05465698,-0.02000427,0.998291,-32.49199,11.19354,-56.74728,2.71843,0.5482538,0.4564139,1.0,0.00390625,-0.03198242,0.9994659,37.57202,8.486786,-60.46802,2.701294,0.2805107,0.6209654,0.3098528,1.247171,-0.2336813,0.02572948,0.6892542,-0.04878561,2.282746,-26.91469,29.17
3,-0.05465698,-0.02000427,0.998291,1.0,-0.05465698,-0.02000427,0.998291,-32.49199,11.19354,-56.74728,2.71843,0.5482538,0.4564139,1.0,0.00390625,-0.03198242,0.9994659,37.57202,8.486786,-60.46802,2.701294,0.2805107,0.6209654,0.3098528,1.247171,-0.2336813,0.02572948,0.6892542,-0.04878561,2.282746,-26.91469,29.17
3,-0.05467224,-0.01974487,0.9983063,1.0,-0.05467224,-0.01974487,0.9983063,-32.49199,11.19354,-56.74728,2.788559,0.5482538,0.4564139,1.0,0.004562378,-0.0355835,0.9993439,37.57175,8.486786,-60.46802,2.754547,0.2802862,0.6218959,0.3098909,1.247129,-0.2338024,0.02569486,0.6898513,-0.04868066,2.282746,-26.91469,29.17
3,-0.05430603,-0.02024841,0.9983063,1.0,-0.05430603,-0.02024841,0.9983063,-32.49199,11.19792,-56.75256,2.823639,0.5481791,0.4564139,1.0,0.00604248,-0.03770447,0.9992676,37.57185,8.4776,-60.4455,2.79982,0.2799017,0.6225798,0.3098757,1.247089,-0.233989,0.02580597,0.6903347,-0.04864667,2.282746,-26.91469,29.17
3,-0.05430603,-0.02024841,0.9983063,1.0,-0.05430603,-0.02024841,0.9983063,-32.49199,11.19792,-56.75256,2.823639,0.5481791,0.4564139,1.0,0.00604248,-0.03770447,0.9992676,37.57185,8.4776,-60.4455,2.79982,0.2799017,0.6225798,0.3098757,1.247089,-0.233989,0.02580597,0.6903347,-0.04864667,2.282746,-26.91469,29.17
3,-0.05403137,-0.01919556,0.9983521,1.0,-0.05403137,-0.01919556,0.9983521,-32.49199,11.19975,-56.76711,2.825348,0.548131,0.4562717,1.0,0.006484985,-0.03610229,0.9993134,37.57185,8.473358,-60.40814,2.818939,0.2798761,0.6218959,0.3099059,1.247111,-0.2343634,0.02609908,0.6913651,-0.0486269,2.282746,-26.91469,29.17
3,-0.02003479,-0.02507019,0.9994812,1.0,-0.04629517,-0.01565552,0.9987946,-32.45889,12.11278,-60.20976,2.751328,0.5476523,0.4545953,1.0,0.006225586,-0.03445435,0.9993744,37.57175,8.4776,-60.4455,2.829407,0.2798597,0.6218334,0.3098787,1.247086,-0.2344983,0.02627973,0.6918722,-0.0486007,2.282746,-25.51501,29.17
3,-0.02003479,-0.02507019,0.9994812,1.0,-0.04629517,-0.01565552,0.9987946,-32.45889,12.11278,-60.20976,2.751328,0.5476523,0.4545953,1.0,0.006225586,-0.03445435,0.9993744,37.57175,8.4776,-60.4455,2.829407,0.2798597,0.6218334,0.3098787,1.247086,-0.2344983,0.02627973,0.6918722,-0.0486007,2.282746,-25.51501,29.17
3,-0.07066345,-0.02967834,0.9970551,1.0,-0.07066345,-0.02967834,0.9970551,-32.65503,10.99252,-55.83437,2.621109,0.5579554,0.4570006,1.0,-0.01785278,-0.05186462,0.9984894,37.34612,8.803513,-61.15588,2.732529,0.2952545,0.6207101,0.309908,1.246976,-0.2348166,0.0266333,0.6928665,-0.04865226,2.282746,-25.51501,29.17
3,-0.07066345,-0.02967834,0.9970551,1.0,-0.07066345,-0.02967834,0.9970551,-32.65503,10.99252,-55.83437,2.621109,0.5579554,0.4570006,1.0,-0.01785278,-0.05186462,0.9984894,37.34612,8.803513,-61.15588,2.732529,0.2952545,0.6207101,0.309908,1.246976,-0.2348166,0.0266333,0.6928665,-0.04865226,2.282746,-25.51501,29.17
3,-0.1352081,0.01603699,0.9906769,1.0,-0.1352081,0.01603699,0.9906769,-32.75569,10.97322,-55.40843,3.090393,0.5758646,0.4438181,1.0,-0.04675293,-0.04251099,0.9979858,37.19005,8.739502,-60.62851,2.661713,0.3108663,0.6141828,0.3099139,1.24694,-0.2351146,0.02683521,0.6938894,-0.04875376,2.282746,-25.51501,29.17
3,-0.1206818,-0.005371094,0.9926758,1.0,-0.1206818,-0.005371094,0.9926758,-32.77826,10.72804,-54.45827,2.983322,0.5726944,0.4483017,1.0,-0.0483551,-0.02890015,0.9983978,37.18527,8.903931,-61.16866,2.684509,0.3106201,0.6107221,0.3099129,1.246946,-0.2352935,0.02678171,0.6943113,-0.04876667,2.282746,-25.51501,29.17
3,-0.1206818,-0.005371094,0.9926758,1.0,-0.1206818,-0.005371094,0.9926758,-32.77826,10.72804,-54.45827,2.983322,0.5726944,0.4483017,1.0,-0.0483551,-0.02890015,0.9983978,37.18527,8.903931,-61.16866,2.684509,0.3106201,0.6107221,0.3099129,1.246946,-0.2352935,0.02678171,0.6943113,-0.04876667,2.282746,-25.51501,29.17
3,-0.1177826,0.01332092,0.9929352,1.0,-0.1177826,0.01332092,0.9929352,-32.78128,10.73018,-54.47661,3.153809,0.5722376,0.4444907,1.0,-0.04663086,-0.0372467,0.9982147,37.13754,9.362534,-62.71799,2.615479,0.3097752,0.6126868,0.3098849,1.246907,-0.2356081,0.02676279,0.6953559,-0.04863878,2.282746,-25.51501,29.17
3,-0.1177826,0.01332092,0.9929352,1.0,-0.1177826,0.01332092,0.9929352,-32.78128,10.73018,-54.47661,3.153809,0.5722376,0.4444907,1.0,-0.04663086,-0.0372467,0.9982147,37.13754,9.362534,-62.71799,2.615479,0.3097752,0.6126868,0.3098937,1.246955,-0.2358278,0.02651119,0.6959876,-0.04851048,2.282746,-25.51501,29.17
3,-0.1177826,0.01332092,0.9929352,1.0,-0.1177826,0.01332092,0.9929352,-32.78128,10.73018,-54.47661,3.153809,0.5722376,0.4444907,1.0,-0.04663086,-0.0372467,0.9982147,37.13754,9.362534,-62.71799,2.615479,0.3097752,0.6126868,0.3099118,1.247053,-0.2359746,0.02631118,0.6966024,-0.04841008,2.282746,-25.51501,29.17
3,-0.1177826,0.01332092,0.9929352,1.0,-0.1177826,0.01332092,0.9929352,-32.78128,10.73018,-54.47661,3.153809,0.5722376,0.4444907,1.0,-0.04663086,-0.0372467,0.9982147,37.13754,9.362534,-62.71799,2.615479,0.3097752,0.6126868,0.3099118,1.247053,-0.2359746,0.02631118,0.6966024,-0.04841008,2.282746,-25.51501,29.17
3,-0.1177826,0.01332092,0.9929352,1.0,-0.1177826,0.01332092,0.9929352,-32.78128,10.73018,-54.47661,3.153809,0.5722376,0.4444907,1.0,-0.04663086,-0.0372467,0.9982147,37.13754,9.362534,-62.71799,2.615479,0.3097752,0.6126868,0.3097953,1.247218,-0.2364119,0.02540603,0.698121,-0.04841677,2.282746,-25.51501,29.17
3,-0.1108856,0.03425598,0.9932404,1.0,-0.1108856,0.03425598,0.9932404,-32.80156,10.3506,-53.0475,3.352036,0.5702618,0.4406676,1.0,-0.04989624,-0.04092407,0.9979095,37.1451,9.585571,-63.34891,2.723877,0.3090008,0.6120234,0.3097208,1.247338,-0.2366379,0.02502844,0.6988433,-0.04838845,2.282746,-25.51501,29.17
3,-0.1108856,0.03425598,0.9932404,1.0,-0.1108856,0.03425598,0.9932404,-32.80156,10.3506,-53.0475,3.352036,0.5702618,0.4406676,1.0,-0.04989624,-0.04092407,0.9979095,37.1451,9.585571,-63.34891,2.723877,0.3090008,0.6120234,0.3097208,1.247338,-0.2366379,0.02502844,0.6988433,-0.04838845,2.282746,-25.51501,29.17
3,-0.1120605,0.01132202,0.9936218,1.0,-0.1120605,0.01132202,0.9936218,-32.81425,10.37354,-53.22926,3.151825,0.5711743,0.4463606,1.0,-0.04753113,-0.04867554,0.9976807,37.18491,9.360382,-62.61082,2.64534,0.3078169,0.6141414,0.3097154,1.247479,-0.2370816,0.0242857,0.7001801,-0.04802524,2.282746,-25.51501,29.17
3,-0.1076508,-0.008407593,0.9941406,1.0,-0.1076508,-0.008407593,0.9941406,-32.77652,10.81937,-54.81551,3.113297,0.5701574,0.4490102,1.0,-0.03475952,-0.05152893,0.9980621,37.21248,9.204376,-62.11546,2.647614,0.3042198,0.6152208,0.3097883,1.247603,-0.2372916,0.02399761,0.7007705,-0.04766263,2.282746,-35.30135,29.17
3,-0.1076508,-0.008407593,0.9941406,1.0,-0.1076508,-0.008407593,0.9941406,-32.77652,10.81937,-54.81551,3.113297,0.5701574,0.4490102,1.0,-0.03475952,-0.05152893,0.9980621,37.21248,9.204376,-62.11546,2.647614,0.3042198,0.6152208,0.3097883,1.247603,-0.2372916,0.02399761,0.7007705,-0.04766263,2.282746,-38.69824,29.17
3,-0.1038971,0.01521301,0.9944611,1.0,-0.1038971,0.01521301,0.9944611,-32.75813,10.91075,-55.1442,3.181473,0.5689331,0.4436563,1.0,-0.0375824,-0.05805969,0.9976044,37.24292,9.10878,-61.83888,2.629883,0.3039035,0.6174311,0.3098077,1.247748,-0.237564,0.02375138,0.7017077,-0.04680724,2.282746,-38.69824,29.17
3,-0.09837341,0.02163696,0.9949036,1.0,-0.09837341,0.02163696,0.9949036,-32.74722,10.91379,-55.15176,3.173584,0.5673059,0.4421934,1.0,-0.03875732,-0.04521179,0.9982147,37.2711,9.106552,-61.88527,2.890121,0.3025811,0.6153324,0.3097942,1.247815,-0.2377629,0.02361926,0.7022111,-0.04636005,2.282746,-38.69824,29.17
3,-0.09837341,0.02163696,0.9949036,1.0,-0.09837341,0.02163696,0.9949036,-32.74722,10.91379,-55.15176,3.173584,0.5673059,0.4421934,1.0,-0.03875732,-0.04521179,0.9982147,37.2711,9.106552,-61.88527,2.890121,0.3025811,0.6153324,0.3097942,1.247815,-0.2377629,0.02361926,0.7022111,-0.04636005,2.282746,-38.69824,29.17
3,-0.09823608,0.02127075,0.9949341,1.0,-0.09823608,0.02127075,0.9949341,-32.7404,10.95444,-55.30296,3.1689,0.5671286,0.4421934,1.0,-0.02427673,-0.06474304,0.9976044,37.28735,9.053436,-61.72701,2.671722,0.2986096,0.6201138,0.3098458,1.24807,-0.2380735,0.02331319,0.7030708,-0.04553534,2.282746,-38.69824,29.17
3,-0.09846497,0.01358032,0.9950409,1.0,-0.09846497,0.01358032,0.9950409,-32.73085,10.96851,-55.34183,3.133224,0.5667948,0.4436563,1.0,-0.02839661,-0.06494141,0.9974823,37.28735,9.056824,-61.74477,2.696472,0.2995559,0.6202837,0.3098468,1.248153,-0.2382536,0.02313514,0.7035093,-0.04510411,2.282746,-38.69824,29.17
3,-0.09846497,0.01358032,0.9950409,1.0,-0.09846497,0.01358032,0.9950409,-32.73085,10.96851,-55.34183,3.133224,0.5667948,0.4436563,1.0,-0.02839661,-0.06494141,0.9974823,37.28735,9.056824,-61.74477,2.696472,0.2995559,0.6202837,0.3098468,1.248153,-0.2382536,0.02313514,0.7035093,-0.04510411,2.282746,-38.69824,29.17
3,-0.09671021,0.004135132,0.9953003,1.0,-0.09671021,0.004135132,0.9953003,-32.72665,10.99588,-55.4586,3.128448,0.5663307,0.4458019,1.0,-0.02944946,-0.06063843,0.9977112,37.28256,9.132095,-61.99138,2.735779,0.2995814,0.6191907,0.3098191,1.248279,-0.2385415,0.02265613,0.704304,-0.04443711,2.282746,-38.69824,29.17
3,-0.09884644,0.001190186,0.9950867,1.0,-0.09884644,0.001190186,0.9950867,-32.7034,11.14571,-56.02713,3.119812,0.5663307,0.4463117,1.0,-0.02839661,-0.05860901,0.9978638,37.28407,9.148361,-62.06036,2.733719,0.299131,0.6188864,0.309808,1.24835,-0.2386849,0.02253975,0.7047669,-0.0441537,2.282746,-38.69824,29.17
3,-0.09884644,0.001190186,0.9950867,1.0,-0.09884644,0.001190186,0.9950867,-32.7034,11.14571,-56.02713,3.119812,0.5663307,0.4463117,1.0,-0.02839661,-0.05860901,0.9978638,37.28407,9.148361,-62.06036,2.733719,0.299131,0.6188864,0.309808,1.24835,-0.2386849,0.02253975,0.7047669,-0.0441537,2.282746,-38.69824,29.17
3,-0.1014404,-0.00112915,0.9948273,1.0,-0.1014404,-0.00112915,0.9948273,-32.68236,11.24319,-56.38866,3.117325,0.5663307,0.4466498,1.0,-0.02923584,-0.05386353,0.9981079,37.28784,9.112167,-61.93912,2.784393,0.2993723,0.6177757,0.3097404,1.248441,-0.2389642,0.02194891,0.7055371,-0.0437056,2.282746,-38.69824,29.17
3,-0.1006317,-0.001144409,0.9949188,1.0,-0.1006317,-0.001144409,0.9949188,-32.67786,11.26884,-56.49512,3.109009,0.5660654,0.4467208,1.0,-0.02690125,-0.04666138,0.9985352,37.29117,9.061554,-61.80086,2.819443,0.2989104,0.6164993,0.3096945,1.248491,-0.2391186,0.02174068,0.7059468,-0.04345643,2.282746,-38.69824,29.17
3,-0.1020203,-0.002380371,0.9947662,1.0,-0.1020203,-0.002380371,0.9947662,-32.67667,11.27795,-56.51346,3.108261,0.5663307,0.4468059,1.0,-0.02856445,-0.0423584,0.9986877,37.29503,9.022476,-61.67549,2.844696,0.2993723,0.6155576,0.3096552,1.248589,-0.239288,0.02147518,0.7063071,-0.04335378,2.282746,-38.69824,29.17
3,-0.1020203,-0.002380371,0.9947662,1.0,-0.1020203,-0.002380371,0.9947662,-32.67667,11.27795,-56.51346,3.108261,0.5663307,0.4468059,1.0,-0.02856445,-0.0423584,0.9986877,37.29503,9.022476,-61.67549,2.844696,0.2993723,0.6155576,0.3096552,1.248589,-0.239288,0.02147518,0.7063071,-0.04335378,2.282746,-38.69824,29.17
3,-0.1023254,-0.002334595,0.9947357,1.0,-0.1023254,-0.002334595,0.9947357,-32.67575,11.27795,-56.51346,3.113358,0.5663589,0.4468062,1.0,-0.0280304,-0.04447937,0.9986115,37.29887,9.017761,-61.61938,2.855179,0.2991517,0.6155285,0.3096777,1.24866,-0.2394279,0.02119634,0.7067537,-0.04327475,2.282746,-38.69824,29.17
3,-0.1028595,-0.004592896,0.9946747,1.0,-0.1028595,-0.004592896,0.9946747,-32.67252,11.27795,-56.51346,3.112793,0.5663307,0.4473054,1.0,-0.02902222,-0.04266357,0.9986572,37.30386,9.017761,-61.61938,2.867706,0.2991517,0.6151041,0.3096839,1.248812,-0.2397357,0.02066813,0.7075555,-0.04321375,2.282746,-38.69824,29.17
3,-0.1028595,-0.004592896,0.9946747,1.0,-0.1028595,-0.004592896,0.9946747,-32.67252,11.27795,-56.51346,3.112793,0.5663307,0.4473054,1.0,-0.02902222,-0.04266357,0.9986572,37.30386,9.017761,-61.61938,2.867706,0.2991517,0.6151041,0.3096839,1.248812,-0.2397357,0.02066813,0.7075555,-0.04321375,2.282746,-38.69824,29.17
3,-0.1028595,-0.004592896,0.9946747,1.0,-0.1028595,-0.004592896,0.9946747,-32.67252,11.27795,-56.51346,3.112793,0.5663307,0.4473054,1.0,-0.02902222,-0.04266357,0.9986572,37.30386,9.017761,-61.61938,2.867706,0.2991517,0.6151041,0.309693,1.248881,-0.2400372,0.02010495,0.7083617,-0.0429292,2.282746,-36.89855,29.17
3,-0.1028595,-0.004592896,0.9946747,1.0,-0.1028595,-0.004592896,0.9946747,-32.67252,11.27795,-56.51346,3.112793,0.5663307,0.4473054,1.0,-0.02902222,-0.04266357,0.9986572,37.30386,9.017761,-61.61938,2.867706,0.2991517,0.6151041,0.3096853,1.249,-0.2404065,0.01936075,0.7094017,-0.04257035,2.282746,-36.89855,29.17
3,-0.1028595,-0.004592896,0.9946747,1.0,-0.1028595,-0.004592896,0.9946747,-32.67252,11.27795,-56.51346,3.112793,0.5663307,0.4473054,1.0,-0.02902222,-0.04266357,0.9986572,37.30386,9.017761,-61.61938,2.867706,0.2991517,0.6151041,0.3096853,1.249,-0.2404065,0.01936075,0.7094017,-0.04257035,2.282746,-36.89855,29.17
3,-0.1015015,-0.006134033,0.994812,1.0,-0.1015015,-0.006134033,0.994812,-32.67192,11.27795,-56.51346,3.112579,0.566004,0.4476322,1.0,-0.02957153,-0.0418396,0.9986725,37.30644,9.017761,-61.61938,2.884949,0.2991517,0.6149226,0.3096436,1.249237,-0.2408017,0.01864502,0.710632,-0.04251001,2.282746,-36.89855,29.17
3,-0.1015015,-0.006134033,0.994812,1.0,-0.1015015,-0.006134033,0.994812,-32.67192,11.27795,-56.51346,3.112579,0.566004,0.4476322,1.0,-0.02957153,-0.0418396,0.9986725,37.30644,9.017761,-61.61938,2.884949,0.2991517,0.6149226,0.3096436,1.249237,-0.2408017,0.01864502,0.710632,-0.04251001,2.282746,-36.89855,29.17
3,-0.09559631,-0.010849,0.9953461,1.0,-0.09559631,-0.010849,0.9953461,-32.67854,11.11301,-55.93031,3.133759,0.5644504,0.4492592,1.0,-0.02026367,-0.03581238,0.9991455,37.29561,9.205627,-62.21669,2.877106,0.2963209,0.6129072,0.3094912,1.249404,-0.241246,0.0177044,0.7122749,-0.04259345,2.282746,-36.89855,29.17
3,-0.09559631,-0.010849,0.9953461,1.0,-0.09559631,-0.010849,0.9953461,-32.67854,11.11301,-55.93031,3.133759,0.5644504,0.4492592,1.0,-0.02026367,-0.03581238,0.9991455,37.29561,9.205627,-62.21669,2.877106,0.2963209,0.6129072,0.3094912,1.249404,-0.241246,0.0177044,0.7122749,-0.04259345,2.282746,-36.89855,29.17
3,-0.09648132,-0.0078125,0.9953003,1.0,-0.09648132,-0.0078125,0.9953003,-32.67346,11.20259,-56.26881,3.132523,0.5647435,0.4485125,1.0,-0.02532959,-0.0221405,0.9994202,37.29756,9.172836,-62.09358,2.976608,0.2977123,0.6095405,0.309484,1.24969,-0.2416641,0.01685388,0.7140867,-0.04244213,2.282746,-36.89855,29.17
3,-0.09648132,-0.0078125,0.9953003,1.0,-0.09648132,-0.0078125,0.9953003,-32.67346,11.20259,-56.26881,3.132523,0.5647435,0.4485125,1.0,-0.02532959,-0.0221405,0.9994202,37.29756,9.172836,-62.09358,2.976608,0.2977123,0.6095405,0.309484,1.24969,-0.2416641,0.01685388,0.7140867,-0.04244213,2.282746,-36.89855,29.17
3,-0.0934906,-0.001556396,0.9956055,1.0,-0.0934906,-0.001556396,0.9956055,-32.67184,11.23563,-56.40039,3.144943,0.5641575,0.4471719,1.0,-0.02510071,-0.02207947,0.9994354,37.30408,9.138947,-61.97952,2.985352,0.2975492,0.6095405,0.3093494,1.24995,-0.2422825,0.01565311,0.7162235,-0.04190676,2.282746,-36.89855,29.17
3,-0.0934906,-0.001556396,0.9956055,1.0,-0.0934906,-0.001556396,0.9956055,-32.67184,11.23563,-56.40039,3.144943,0.5641575,0.4471719,1.0,-0.02510071,-0.02207947,0.9994354,37.30408,9.138947,-61.97952,2.985352,0.2975492,0.6095405,0.3093494,1.24995,-0.2422825,0.01565311,0.7162235,-0.04190676,2.282746,-36.89855,29.17
3,-0.09640503,-0.001312256,0.9953308,1.0,-0.09640503,-0.001312256,0.9953308,-32.66988,11.24005,-56.42017,3.145981,0.564725,0.4471719,1.0,-0.02464294,-0.02851868,0.9992828,37.30408,9.156769,-62.06308,2.974884,0.2972329,0.6114162,0.3092068,1.250376,-0.2430493,0.01425377,0.7188604,-0.04111496,2.282746,-36.89855,29.17
3,-0.09640503,-0.001312256,0.9953308,1.0,-0.09640503,-0.001312256,0.9953308,-32.66988,11.24005,-56.42017,3.145981,0.564725,0.4471719,1.0,-0.02464294,-0.02851868,0.9992828,37.30408,9.156769,-62.06308,2.974884,0.2972329,0.6114162,0.3092068,1.250376,-0.2430493,0.01425377,0.7188604,-0.04111496,2.282746,-36.89855,29.17
3,-0.09640503,-0.001312256,0.9953308,1.0,-0.09640503,-0.001312256,0.9953308,-32.66988,11.24005,-56.42017,3.145981,0.564725,0.4471719,1.0,-0.02464294,-0.02851868,0.9992828,37.30408,9.156769,-62.06308,2.974884,0.2972329,0.6114162,0.3092068,1.250376,-0.2430493,0.01425377,0.7188604,-0.04111496,2.282746,-36.89855,29.17
3,-0.09654236,0.0009765625,0.9953156,1.0,-0.09654236,0.0009765625,0.9953156,-32.6689,11.24284,-56.4379,3.151382,0.5647342,0.446746,1.0,-0.02363586,-0.02534485,0.9993896,37.30296,9.164795,-62.07834,2.977676,0.297036,0.6104783,0.3091089,1.250816,-0.2439762,0.01289071,0.7216807,-0.03980587,2.282746,-36.89855,29.17
3,-0.09654236,0.0009765625,0.9953156,1.0,-0.09654236,0.0009765625,0.9953156,-32.6689,11.24284,-56.4379,3.151382,0.5647342,0.446746,1.0,-0.02363586,-0.02534485,0.9993896,37.30296,9.164795,-62.07834,2.977676,0.297036,0.6104783,0.3090067,1.251305,-0.2448432,0.01164093,0.7243167,-0.03848643,2.282746,10.11519,29.17
3,-0.09654236,0.0009765625,0.9953156,1.0,-0.09654236,0.0009765625,0.9953156,-32.6689,11.24284,-56.4379,3.151382,0.5647342,0.446746,1.0,-0.02363586,-0.02534485,0.9993896,37.30296,9.164795,-62.07834,2.977676,0.297036,0.6104783,0.3090067,1.251305,-0.2448432,0.01164093,0.7243167,-0.03848643,2.282746,10.11519,29.17
3,-0.09660339,0.003265381,0.9953156,1.0,-0.09660339,0.003265381,0.9953156,-32.66792,11.24562,-56.45563,3.156906,0.564725,0.4463201,1.0,-0.02282715,-0.02990723,0.9992828,37.30185,9.172836,-62.09358,2.973114,0.296839,0.6114162,0.3086834,1.251793,-0.2456725,0.01037418,0.7268443,-0.03694064,2.282746,10.11519,29.17
3,-0.09660339,0.003265381,0.9953156,1.0,-0.09660339,0.003265381,0.9953156,-32.66792,11.24562,-56.45563,3.156906,0.564725,0.4463201,1.0,-0.02282715,-0.02990723,0.9992828,37.30185,9.172836,-62.09358,2.973114,0.296839,0.6114162,0.3086834,1.251793,-0.2456725,0.01037418,0.7268443,-0.03694064,2.282746,10.11519,29.17
3,-0.07247925,0.009521484,0.9973145,1.0,-0.07247925,0.009521484,0.9973145,-32.55685,11.74937,-58.48297,3.205933,0.5564476,0.4456796,1.0,-0.02613831,-0.0629425,0.9976654,37.0303,11.80891,-70.90775,2.648987,0.2936896,0.6186373,0.3084911,1.252299,-0.2466346,0.009076813,0.7295328,-0.03534753,2.282746,10.11519,29.17
3,-0.07247925,0.009521484,0.9973145,1.0,-0.07247925,0.009521484,0.9973145,-32.55685,11.74937,-58.48297,3.205933,0.5564476,0.4456796,1.0,-0.02613831,-0.0629425,0.9976654,37.0303,11.80891,-70.90775,2.648987,0.2936896,0.6186373,0.3084911,1.252299,-0.2466346,0.009076813,0.7295328,-0.03534753,2.282746,10.11519,29.17
3,-0.07272339,0.01087952,0.9972839,1.0,-0.07272339,0.01087952,0.9972839,-32.54811,11.43353,-57.37329,3.180786,0.5551717,0.4466595,1.0,-0.01911926,-0.07084656,0.9972992,37.12749,10.91208,-68.00905,2.611725,0.2927912,0.6223398,0.3082803,1.252709,-0.2475109,0.007966433,0.7322636,-0.03362167,2.282746,10.11519,29.17
3,-0.07272339,0.01087952,0.9972839,1.0,-0.07272339,0.01087952,0.9972839,-32.54811,11.43353,-57.37329,3.180786,0.5551717,0.4466595,1.0,-0.01911926,-0.07084656,0.9972992,37.12749,10.91208,-68.00905,2.611725,0.2927912,0.6223398,0.3082803,1.252709,-0.2475109,0.007966433,0.7322636,-0.03362167,2.282746,10.11519,29.17
3,-0.07319641,0.01701355,0.9971619,1.0,-0.07319641,0.01701355,0.9971619,-32.50896,11.44289,-57.48325,3.234253,0.5536764,0.4461583,1.0,-0.01498413,-0.02685547,0.9995117,37.38274,9.41481,-63.26572,3.02269,0.28846,0.6156864,0.307994,1.25306,-0.248468,0.006987926,0.734831,-0.03194723,2.282746,10.11519,29.17
3,-0.07319641,0.01701355,0.9971619,1.0,-0.07319641,0.01701355,0.9971619,-32.50896,11.44289,-57.48325,3.234253,0.5536764,0.4461583,1.0,-0.01498413,-0.02685547,0.9995117,37.38274,9.41481,-63.26572,3.02269,0.28846,0.6156864,0.307994,1.25306,-0.248468,0.006987926,0.734831,-0.03194723,2.282746,10.11519,29.17
3,-0.07235718,0.01431274,0.9972687,1.0,-0.07235718,0.01431274,0.9972687,-32.46915,11.74753,-58.71799,3.238281,0.5527727,0.4473535,1.0,-0.008148193,-0.01774597,0.9998016,37.37415,9.637878,-64.09039,3.176132,0.285322,0.6146594,0.3078581,1.253466,-0.2494175,0.005735356,0.7375688,-0.03029423,2.282746,10.11519,29.17
3,-0.07235718,0.01431274,0.9972687,1.0,-0.07235718,0.01431274,0.9972687,-32.46915,11.74753,-58.71799,3.238281,0.5527727,0.4473535,1.0,-0.008148193,-0.01774597,0.9998016,37.37415,9.637878,-64.09039,3.176132,0.285322,0.6146594,0.3078581,1.253466,-0.2494175,0.005735356,0.7375688,-0.03029423,2.282746,10.11519,29.17
3,-0.06541443,0.00730896,0.997818,1.0,-0.06541443,0.00730896,0.997818,-32.45644,11.90784,-59.2907,3.133774,0.5511366,0.4482676,1.0,-0.009857178,-0.03884888,0.9991913,37.38474,9.67482,-64.17688,3.042419,0.2850467,0.6192223,0.3076373,1.253976,-0.2504826,0.004240077,0.7405465,-0.02861853,2.282746,10.11519,29.17
3,-0.06541443,0.00730896,0.997818,1.0,-0.06541443,0.00730896,0.997818,-32.45644,11.90784,-59.2907,3.133774,0.5511366,0.4482676,1.0,-0.009857178,-0.03884888,0.9991913,37.38474,9.67482,-64.17688,3.042419,0.2850467,0.6192223,0.3076373,1.253976,-0.2504826,0.004240077,0.7405465,-0.02861853,2.282746,10.11519,29.17
3,-0.05923462,0.008377075,0.9981995,1.0,-0.05923462,0.008377075,0.9981995,-32.45323,11.78017,-58.80252,3.17601,0.5492286,0.4481156,1.0,0.004364014,0.001663208,0.9999847,37.1848,11.4068,-69.91635,3.048355,0.2792428,0.607278,0.3074433,1.254417,-0.2515739,0.002997566,0.7434848,-0.02704705,2.282746,45.82795,29.17
3,-0.05923462,0.008377075,0.9981995,1.0,-0.05923462,0.008377075,0.9981995,-32.45323,11.78017,-58.80252,3.17601,0.5492286,0.4481156,1.0,0.004364014,0.001663208,0.9999847,37.1848,11.4068,-69.91635,3.048355,0.2792428,0.607278,0.3074433,1.254417,-0.2515739,0.002997566,0.7434848,-0.02704705,2.282746,45.82795,29.17
3,-0.04188538,0.001342773,0.999115,1.0,-0.04188538,0.001342773,0.999115,-32.39856,11.63084,-58.32437,3.167068,0.5426227,0.4507478,1.0,0.007141113,-0.02536011,0.999649,37.18361,11.39388,-69.72099,3.050064,0.2788589,0.6121736,0.3072525,1.254857,-0.2526085,0.001529537,0.7463583,-0.02545832,2.282746,45.82795,29.17
3,-0.04188538,0.001342773,0.999115,1.0,-0.04188538,0.001342773,0.999115,-32.39856,11.63084,-58.32437,3.167068,0.5426227,0.4507478,1.0,0.007141113,-0.02536011,0.999649,37.18361,11.39388,-69.72099,3.050064,0.2788589,0.6121736,0.3072525,1.254857,-0.2526085,0.001529537,0.7463583,-0.02545832,2.282746,45.82795,29.17
4,-0.04188538,0.001342773,0.999115,1.0,-0.04188538,0.001342773,0.999115,-32.39856,11.63084,-58.32437,3.167068,0.5426227,0.4507478,1.0,0.007141113,-0.02536011,0.999649,37.18361,11.39388,-69.72099,3.050064,0.2788589,0.6121736,0.307233,1.255538,-0.2536363,8.631674e-05,0.7491103,-0.02383202,2.282746,45.82795,29.17
4,-0.04188538,0.001342773,0.999115,1.0,-0.04188538,0.001342773,0.999115,-32.39856,11.63084,-58.32437,3.167068,0.5426227,0.4507478,1.0,0.007141113,-0.02536011,0.999649,37.18361,11.39388,-69.72099,3.050064,0.2788589,0.6121736,0.307233,1.255538,-0.2536363,8.631674e-05,0.7491103,-0.02383202,2.282746,45.82795,29.17
4,-0.04188538,0.001342773,0.999115,1.0,-0.04188538,0.001342773,0.999115,-32.39856,11.63084,-58.32437,3.167068,0.5426227,0.4507478,1.0,0.007141113,-0.02536011,0.999649,37.18361,11.39388,-69.72099,3.050064,0.2788589,0.6121736,0.3070296,1.256031,-0.2546467,-0.001504984,0.7516291,-0.02220539,2.282746,45.82795,29.17
4,-0.04188538,0.001342773,0.999115,1.0,-0.04188538,0.001342773,0.999115,-32.39856,11.63084,-58.32437,3.167068,0.5426227,0.4507478,1.0,0.007141113,-0.02536011,0.999649,37.18361,11.39388,-69.72099,3.050064,0.2788589,0.6121736,0.3070296,1.256031,-0.2546467,-0.001504984,0.7516291,-0.02220539,2.282746,45.82795,29.17
4,-0.03479004,0.009399414,0.9993439,1.0,-0.03479004,0.009399414,0.9993439,-32.31827,11.36378,-57.42871,3.240723,0.5369702,0.4505145,1.0,0.01693726,0.01060486,0.9997864,37.61142,9.206879,-63.03265,3.217804,0.2694513,0.6132421,0.3067936,1.256585,-0.2555071,-0.002532775,0.753913,-0.02056495,2.282746,45.82795,29.17
4,-0.03479004,0.009399414,0.9993439,1.0,-0.03479004,0.009399414,0.9993439,-32.31827,11.36378,-57.42871,3.240723,0.5369702,0.4505145,1.0,0.01693726,0.01060486,0.9997864,37.61142,9.206879,-63.03265,3.217804,0.2694513,0.6132421,0.3067936,1.256585,-0.2555071,-0.002532775,0.753913,-0.02056495,2.282746,45.82795,29.17
4,-0.03831482,0.01548767,0.9991302,1.0,-0.03831482,0.01548767,0.9991302,-32.27036,11.47382,-57.97604,3.189392,0.5360257,0.4505077,1.0,0.01342773,0.01176453,0.9998322,37.81053,8.128922,-59.70378,3.221741,0.2679427,0.6171361,0.3065233,1.257057,-0.2562261,-0.00359538,0.7558933,-0.01883229,2.282746,45.82795,29.17
4,-0.03831482,0.01548767,0.9991302,1.0,-0.03831482,0.01548767,0.9991302,-32.27036,11.47382,-57.97604,3.189392,0.5360257,0.4505077,1.0,0.01342773,0.01176453,0.9998322,37.81053,8.128922,-59.70378,3.221741,0.2679427,0.6171361,0.3065233,1.257057,-0.2562261,-0.00359538,0.7558933,-0.01883229,2.282746,45.82795,29.17
4,-0.03961182,0.01226807,0.9991302,1.0,-0.03961182,0.01226807,0.9991302,-32.24976,11.3096,-57.37646,3.259354,0.5350254,0.4516614,1.0,0.03009033,-0.003753662,0.999527,37.95958,7.296478,-56.80864,3.394623,0.2629763,0.619648,0.3062513,1.257491,-0.2570632,-0.004589422,0.7576221,-0.01732732,2.282746,45.82795,29.17
4,-0.03961182,0.01226807,0.9991302,1.0,-0.03961182,0.01226807,0.9991302,-32.24976,11.3096,-57.37646,3.259354,0.5350254,0.4516614,1.0,0.03009033,-0.003753662,0.999527,37.95958,7.296478,-56.80864,3.394623,0.2629763,0.619648,0.3062513,1.257491,-0.2570632,-0.004589422,0.7576221,-0.01732732,2.282746,45.82795,29.17
4,-0.034729,0.01696777,0.9992523,1.0,-0.034729,0.01696777,0.9992523,-32.23308,11.20958,-57.03798,3.295715,0.5330359,0.45117,1.0,0.02975464,-0.08937073,0.9955444,36.30844,18.40564,-92.66293,2.203064,0.2620973,0.6194479,0.3060553,1.257978,-0.2577355,-0.00605326,0.7591649,-0.01587243,2.282746,45.82795,29.17
4,-0.034729,0.01696777,0.9992523,1.0,-0.034729,0.01696777,0.9992523,-32.23308,11.20958,-57.03798,3.295715,0.5330359,0.45117,1.0,0.02975464,-0.08937073,0.9955444,36.30844,18.40564,-92.66293,2.203064,0.2620973,0.6194479,0.3060553,1.257978,-0.2577355,-0.00605326,0.7591649,-0.01587243,2.282746,45.82795,29.17
4,-0.03570557,0.01324463,0.9992676,1.0,-0.03570557,0.01324463,0.9992676,-32.22119,11.23288,-57.10371,3.273712,0.5327719,0.4517021,1.0,0.02980042,-0.08088684,0.9962616,36.30844,18.40564,-92.66293,2.25177,0.262091,0.6163576,0.3059185,1.258292,-0.2580785,-0.006863131,0.7599394,-0.01539103,2.282746,45.82795,29.17
4,-0.03411865,0.012146,0.9993286,1.0,-0.03411865,0.012146,0.9993286,-32.20488,11.29086,-57.27914,3.258179,0.5318315,0.4513891,1.0,0.03231812,-0.06512451,0.997345,36.54857,16.89252,-87.78038,2.424072,0.2603863,0.6151612,0.3056744,1.258912,-0.2586895,-0.008739758,0.7613582,-0.01401418,2.282746,33.49742,29.17
4,-0.03411865,0.012146,0.9993286,1.0,-0.03411865,0.012146,0.9993286,-32.20488,11.29086,-57.27914,3.258179,0.5318315,0.4513891,1.0,0.03231812,-0.06512451,0.997345,36.54857,16.89252,-87.78038,2.424072,0.2603863,0.6151612,0.3056744,1.258912,-0.2586895,-0.008739758,0.7613582,-0.01401418,2.282746,33.49742,29.17
4,-0.03274536,0.01118469,0.9993896,1.0,-0.03274536,0.01118469,0.9993896,-32.1998,11.31009,-57.33475,3.256119,0.5313482,0.4513891,1.0,0.0302887,-0.05070496,0.9982452,36.81384,15.29819,-82.68115,2.608643,0.2593813,0.6156347,0.305582,1.259198,-0.2589946,-0.00979077,0.7620158,-0.01339718,2.282746,33.49742,29.17
4,-0.03329468,0.01016235,0.9993896,1.0,-0.03329468,0.01016235,0.9993896,-32.1949,11.33162,-57.40152,3.250259,0.5312952,0.4514327,1.0,0.02983093,-0.05274963,0.9981537,36.78712,15.48402,-83.29385,2.586578,0.2593813,0.6160233,0.3054565,1.259471,-0.2592762,-0.01079477,0.7626743,-0.01281448,2.282746,33.49742,29.17
4,-0.03329468,0.01016235,0.9993896,1.0,-0.03329468,0.01016235,0.9993896,-32.1949,11.33162,-57.40152,3.250259,0.5312952,0.4514327,1.0,0.02983093,-0.05274963,0.9981537,36.78712,15.48402,-83.29385,2.586578,0.2593813,0.6160233,0.3054565,1.259471,-0.2592762,-0.01079477,0.7626743,-0.01281448,2.282746,33.49742,29.17
4,-0.03329468,0.00881958,0.9994049,1.0,-0.03329468,0.00881958,0.9994049,-32.19276,11.34865,-57.46608,3.244446,0.5312396,0.4517021,1.0,0.0304718,-0.002838135,0.999527,37.60231,10.16428,-66.27055,3.173019,0.2585743,0.6167474,0.305097,1.2599,-0.2599288,-0.01255545,0.7638776,-0.01169775,2.282746,33.49742,29.17
4,-0.03256226,0.008666992,0.9994202,1.0,-0.03256226,0.008666992,0.9994202,-32.18651,11.36694,-57.56013,3.229813,0.530866,0.4519837,1.0,0.02557373,0.004745483,0.999649,37.69612,9.555359,-64.5024,3.26355,0.2592213,0.6190053,0.305004,1.260132,-0.2602262,-0.01343328,0.7644057,-0.01100936,2.282746,33.49742,29.17
4,-0.03149414,0.01145935,0.9994354,1.0,-0.03149414,0.01145935,0.9994354,-32.17755,11.37746,-57.65816,3.216232,0.530305,0.4520029,1.0,0.02532959,-0.03773499,0.9989624,37.30292,12.12355,-72.61121,2.86171,0.2599577,0.6220419,0.3046931,1.260504,-0.2607828,-0.01469338,0.7655011,-0.009915161,2.282746,33.49742,29.17
4,-0.03149414,0.01145935,0.9994354,1.0,-0.03149414,0.01145935,0.9994354,-32.17755,11.37746,-57.65816,3.216232,0.530305,0.4520029,1.0,0.02532959,-0.03773499,0.9989624,37.30292,12.12355,-72.61121,2.86171,0.2599577,0.6220419,0.3046931,1.260504,-0.2607828,-0.01469338,0.7655011,-0.009915161,2.282746,33.49742,29.17
4,-0.02984619,0.008773804,0.9995117,1.0,-0.02984619,0.008773804,0.9995117,-32.14355,11.33287,-57.76598,3.146805,0.5285186,0.4556526,1.0,0.034729,0.01976013,0.9991913,37.75388,9.237854,-63.72089,3.209656,0.2559015,0.6192918,0.3045971,1.260585,-0.2610586,-0.01533113,0.7660106,-0.009579604,2.268652,33.49742,29.17
4,-0.02984619,0.008773804,0.9995117,1.0,-0.02984619,0.008773804,0.9995117,-32.14355,11.33287,-57.76598,3.146805,0.5285186,0.4556526,1.0,0.034729,0.01976013,0.9991913,37.75388,9.237854,-63.72089,3.209656,0.2559015,0.6192918,0.3044363,1.260705,-0.2612847,-0.01581977,0.7663457,-0.00929259,2.268652,33.49742,29.17
4,-0.02984619,0.008773804,0.9995117,1.0,-0.02984619,0.008773804,0.9995117,-32.14355,11.33287,-57.76598,3.146805,0.5285186,0.4556526,1.0,0.034729,0.01976013,0.9991913,37.75388,9.237854,-63.72089,3.209656,0.2559015,0.6192918,0.3044363,1.260705,-0.2612847,-0.01581977,0.7663457,-0.00929259,2.268652,33.49742,29.17
4,-0.02984619,0.008773804,0.9995117,1.0,-0.02984619,0.008773804,0.9995117,-32.14355,11.33287,-57.76598,3.146805,0.5285186,0.4556526,1.0,0.034729,0.01976013,0.9991913,37.75388,9.237854,-63.72089,3.209656,0.2559015,0.6192918,0.3042804,1.260896,-0.261627,-0.01666003,0.7669703,-0.008747851,2.268652,33.49742,29.17
4,-0.02984619,0.008773804,0.9995117,1.0,-0.02984619,0.008773804,0.9995117,-32.14355,11.33287,-57.76598,3.146805,0.5285186,0.4556526,1.0,0.034729,0.01976013,0.9991913,37.75388,9.237854,-63.72089,3.209656,0.2559015,0.6192918,0.304183,1.26097,-0.2618021,-0.01711576,0.7673534,-0.008450669,2.268652,33.49742,29.17
4,-0.02984619,0.008773804,0.9995117,1.0,-0.02984619,0.008773804,0.9995117,-32.14355,11.33287,-57.76598,3.146805,0.5285186,0.4556526,1.0,0.034729,0.01976013,0.9991913,37.75388,9.237854,-63.72089,3.209656,0.2559015,0.6192918,0.304183,1.26097,-0.2618021,-0.01711576,0.7673534,-0.008450669,2.268652,33.49742,29.17
4,-0.03056335,0.008712769,0.9994812,1.0,-0.03056335,0.008712769,0.9994812,-32.1104,11.30516,-57.70946,3.099533,0.527205,0.456195,1.0,0.03112793,-0.03276062,0.9989777,37.60963,10.48415,-67.55167,2.951416,0.2546875,0.6273198,0.3040985,1.261096,-0.2620238,-0.01771029,0.7677116,-0.008105505,2.268652,-2.171043,29.17
4,-0.02435303,0.004943848,0.9996796,1.0,-0.02435303,0.004943848,0.9996796,-32.11331,11.27669,-57.59244,3.057632,0.5258991,0.4568927,1.0,0.03431702,-0.01977539,0.9992065,37.5844,10.68745,-68.19322,2.941956,0.2536353,0.6233249,0.3040222,1.261128,-0.2620196,-0.01798022,0.7679019,-0.008036734,2.268652,-2.171043,29.17
4,-0.02435303,0.004943848,0.9996796,1.0,-0.02435303,0.004943848,0.9996796,-32.11331,11.27669,-57.59244,3.057632,0.5258991,0.4568927,1.0,0.03431702,-0.01977539,0.9992065,37.5844,10.68745,-68.19322,2.941956,0.2536353,0.6233249,0.3040222,1.261128,-0.2620196,-0.01798022,0.7679019,-0.008036734,2.268652,-2.171043,29.17
4,-0.02325439,0.002532959,0.9997253,1.0,-0.02325439,0.002532959,0.9997253,-32.11571,11.20906,-57.33569,3.059525,0.5256208,0.4574624,1.0,0.03390503,-0.02006531,0.9992218,37.57956,10.73039,-68.33206,2.963699,0.2536096,0.6233646,0.3038999,1.261189,-0.2621815,-0.01827491,0.7679926,-0.007785273,2.268652,-2.171043,29.17
4,-0.02272034,0.003173828,0.9997253,1.0,-0.02272034,0.003173828,0.9997253,-32.11511,11.10083,-56.93689,3.068375,0.5252631,0.4575127,1.0,0.03544617,-0.01774597,0.9992065,37.60963,10.48415,-67.55167,2.96373,0.2536353,0.6234043,0.3037401,1.261247,-0.2622685,-0.01852515,0.7678588,-0.007640373,2.268652,-2.171043,29.17
4,-0.02272034,0.003173828,0.9997253,1.0,-0.02272034,0.003173828,0.9997253,-32.11511,11.10083,-56.93689,3.068375,0.5252631,0.4575127,1.0,0.03544617,-0.01774597,0.9992065,37.60963,10.48415,-67.55167,2.96373,0.2536353,0.6234043,0.3037401,1.261247,-0.2622685,-0.01852515,0.7678588,-0.007640373,2.268652,-2.171043,29.17
4,-0.02233887,0.003646851,0.9997406,1.0,-0.02233887,0.003646851,0.9997406,-32.11452,11.08492,-56.88625,3.061295,0.5251274,0.4575127,1.0,0.02893066,0.01626587,0.9994354,37.9467,8.345505,-61.00151,3.197296,0.2542489,0.6239371,0.3037096,1.261244,-0.2622756,-0.01866898,0.7678463,-0.007791969,2.268652,-2.171043,29.17
4,-0.02206421,0.003646851,0.9997406,1.0,-0.02206421,0.003646851,0.9997406,-32.11481,11.06746,-56.82306,3.060577,0.5250455,0.4575633,1.0,0.03005981,0.01428223,0.9994354,37.94214,8.37825,-61.10207,3.19014,0.2539421,0.6242742,0.3036985,1.26123,-0.2622911,-0.01873769,0.7678112,-0.007892202,2.268652,-2.171043,29.19
4,-0.02206421,0.003646851,0.9997406,1.0,-0.02206421,0.003646851,0.9997406,-32.11481,11.06746,-56.82306,3.060577,0.5250455,0.4575633,1.0,0.03005981,0.01428223,0.9994354,37.94214,8.37825,-61.10207,3.19014,0.2539421,0.6242742,0.3036985,1.26123,-0.2622911,-0.01873769,0.7678112,-0.007892202,2.268652,-2.171043,29.19
4,-0.02206421,0.003646851,0.9997406,1.0,-0.02206421,0.003646851,0.9997406,-32.11481,11.06746,-56.82306,3.060577,0.5250455,0.4575633,1.0,0.03005981,0.01428223,0.9994354,37.94214,8.37825,-61.10207,3.19014,0.2539421,0.6242742,0.303719,1.261165,-0.2622997,-0.01899812,0.7677674,-0.00835134,2.268652,-2.171043,29.19
4,-0.02206421,0.003646851,0.9997406,1.0,-0.02206421,0.003646851,0.9997406,-32.11481,11.06746,-56.82306,3.060577,0.5250455,0.4575633,1.0,0.03005981,0.01428223,0.9994354,37.94214,8.37825,-61.10207,3.19014,0.2539421,0.6242742,0.3037711,1.261167,-0.2622576,-0.01912067,0.7676959,-0.008738904,2.268652,-2.171043,29.19
4,-0.02206421,0.003646851,0.9997406,1.0,-0.02206421,0.003646851,0.9997406,-32.11481,11.06746,-56.82306,3.060577,0.5250455,0.4575633,1.0,0.03005981,0.01428223,0.9994354,37.94214,8.37825,-61.10207,3.19014,0.2539421,0.6242742,0.3037432,1.261116,-0.2621995,-0.01911619,0.7676343,-0.008905698,2.268652,-2.171043,29.19
4,-0.02119446,0.009643555,0.9997253,1.0,-0.02119446,0.009643555,0.9997253,-32.14058,10.96605,-56.36566,3.062988,0.5257214,0.4555032,1.0,0.02992249,-0.009887695,0.9994965,37.58923,10.7303,-68.30739,2.970871,0.2543319,0.6203108,0.303766,1.261099,-0.2621767,-0.01901693,0.7674889,-0.009177627,2.268652,-2.171043,29.19
4,-0.02119446,0.009643555,0.9997253,1.0,-0.02119446,0.009643555,0.9997253,-32.14058,10.96605,-56.36566,3.062988,0.5257214,0.4555032,1.0,0.02992249,-0.009887695,0.9994965,37.58923,10.7303,-68.30739,2.970871,0.2543319,0.6203108,0.303766,1.261099,-0.2621767,-0.01901693,0.7674889,-0.009177627,2.268652,-2.171043,29.19
4,-0.01966858,0.001190186,0.9998016,1.0,-0.01966858,0.001190186,0.9998016,-32.13539,11.015,-56.51149,3.007721,0.5252388,0.4568323,1.0,0.03256226,-0.05496216,0.9979553,36.93826,14.88339,-81.47585,2.538193,0.2544354,0.6202276,0.3038074,1.261011,-0.2620742,-0.01889114,0.767111,-0.009365665,2.268652,-2.171043,29.19
4,-0.02073669,0.00630188,0.9997559,1.0,-0.02073669,0.00630188,0.9997559,-32.13506,11.04355,-56.59946,2.991547,0.5255083,0.4554642,1.0,0.03205872,-0.04289246,0.9985504,37.15268,13.49689,-77.02257,2.663239,0.254656,0.6201183,0.3038076,1.261025,-0.2620257,-0.01885819,0.7669376,-0.009464976,2.268652,30.74483,29.19
4,-0.02073669,0.00630188,0.9997559,1.0,-0.02073669,0.00630188,0.9997559,-32.13506,11.04355,-56.59946,2.991547,0.5255083,0.4554642,1.0,0.03205872,-0.04289246,0.9985504,37.15268,13.49689,-77.02257,2.663239,0.254656,0.6201183,0.3038076,1.261025,-0.2620257,-0.01885819,0.7669376,-0.009464976,2.268652,30.74483,29.19
4,-0.007598877,-0.02029419,0.9997559,1.0,-0.007598877,-0.02029419,0.9997559,-31.93582,11.03548,-56.86319,2.910049,0.5142194,0.4644686,1.0,0.05149841,-0.02232361,0.9984131,37.853,9.732162,-65.42015,2.959457,0.2419124,0.6302561,0.3038301,1.261012,-0.2619816,-0.01883723,0.7666655,-0.009378782,2.268652,30.74483,29.19
4,0.01637268,-0.02275085,0.9996033,1.0,0.01637268,-0.02275085,0.9996033,-31.72635,11.04004,-57.42419,2.913345,0.5001777,0.4710569,1.0,0.08483887,0.0007019043,0.9963837,38.30203,7.59024,-59.4044,3.283157,0.2257709,0.6408462,0.3038678,1.261003,-0.2618784,-0.01863842,0.7663867,-0.009412088,2.268652,30.74483,29.19
4,0.01637268,-0.02275085,0.9996033,1.0,0.01637268,-0.02275085,0.9996033,-31.72635,11.04004,-57.42419,2.913345,0.5001777,0.4710569,1.0,0.08483887,0.0007019043,0.9963837,38.30203,7.59024,-59.4044,3.283157,0.2257709,0.6408462,0.3038678,1.261003,-0.2618784,-0.01863842,0.7663867,-0.009412088,2.268652,30.74483,29.19
4,0.02227783,-0.04956055,0.9985199,1.0,0.02227783,-0.04956055,0.9985199,-31.72902,10.75642,-56.51698,2.999359,0.4987445,0.4789032,1.0,0.1054688,-0.01368713,0.9943237,38.22998,8.068558,-61.05977,3.331451,0.2190916,0.6457087,0.3038844,1.260963,-0.2617528,-0.0184041,0.7660158,-0.009486599,2.268652,30.74483,29.19
4,0.02186584,-0.0524292,0.9983826,1.0,0.02186584,-0.0524292,0.9983826,-31.74947,10.89413,-57.00853,2.965973,0.4998445,0.4792109,1.0,0.1055603,-0.03585815,0.9937592,37.99625,9.7621,-66.32602,3.049957,0.2159945,0.6464239,0.3038844,1.260963,-0.2617528,-0.0184041,0.7660158,-0.009486599,2.268652,30.74483,29.19
4,0.01608276,-0.05076599,0.9985657,1.0,0.01608276,-0.05076599,0.9985657,-31.76495,10.86925,-56.86595,3.044479,0.5017292,0.478344,1.0,0.08314514,-0.05725098,0.9948883,38.01291,9.55217,-65.33672,3.141693,0.2241221,0.6474078,0.3038343,1.260846,-0.2616026,-0.01803421,0.765837,-0.009627316,2.268652,30.74483,29.19
4,0.01608276,-0.05076599,0.9985657,1.0,0.01608276,-0.05076599,0.9985657,-31.76495,10.86925,-56.86595,3.044479,0.5017292,0.478344,1.0,0.08314514,-0.05725098,0.9948883,38.01291,9.55217,-65.33672,3.141693,0.2241221,0.6474078,0.3038343,1.260846,-0.2616026,-0.01803421,0.765837,-0.009627316,2.268652,30.74483,29.19
4,0.0125885,-0.05084229,0.9986267,1.0,0.0125885,-0.05084229,0.9986267,-31.77596,10.79553,-56.57233,2.894394,0.5028523,0.4780885,1.0,0.08848572,-0.06629944,0.993866,37.98987,9.689575,-65.76514,3.07843,0.2226314,0.6493707,0.3038343,1.260738,-0.2614862,-0.0177779,0.7656003,-0.009777824,2.268652,30.74483,29.19
4,0.01194763,-0.04908752,0.9987183,1.0,0.01194763,-0.04908752,0.9987183,-31.79004,10.7444,-56.33456,3.013641,0.5035264,0.4772824,1.0,0.1004944,-0.05262756,0.9935303,37.98987,9.689575,-65.77815,3.132767,0.2193259,0.6461647,0.3037962,1.260678,-0.261399,-0.01764497,0.7654015,-0.01005877,2.268652,30.74483,29.19
4,0.01194763,-0.04908752,0.9987183,1.0,0.01194763,-0.04908752,0.9987183,-31.79004,10.7444,-56.33456,3.013641,0.5035264,0.4772824,1.0,0.1004944,-0.05262756,0.9935303,37.98987,9.689575,-65.77815,3.132767,0.2193259,0.6461647,0.3037962,1.260678,-0.261399,-0.01764497,0.7654015,-0.01005877,2.268652,30.74483,29.19
4,0.01065063,-0.04605103,0.9988708,1.0,0.01065063,-0.04605103,0.9988708,-31.7986,10.89778,-56.87436,2.901672,0.5043416,0.4760963,1.0,0.09597778,-0.04118347,0.9945221,38.04425,9.458969,-65.33672,3.134827,0.2188956,0.647972,0.3038044,1.260657,-0.2612759,-0.017789,0.7651185,-0.009982561,2.268652,30.74483,29.19
4,0.01065063,-0.04605103,0.9988708,1.0,0.01065063,-0.04605103,0.9988708,-31.7986,10.89778,-56.87436,2.901672,0.5043416,0.4760963,1.0,0.09597778,-0.04118347,0.9945221,38.04425,9.458969,-65.33672,3.134827,0.2188956,0.647972,0.3038044,1.260657,-0.2612759,-0.017789,0.7651185,-0.009982561,2.268652,30.74483,29.19
4,0.01977539,-0.0241394,0.9995117,1.0,0.01977539,-0.0241394,0.9995117,-31.80283,11.29822,-58.28767,2.998825,0.5030213,0.4701193,1.0,0.100708,-0.05348206,0.9934692,38.25127,8.185349,-60.91006,3.266251,0.2196975,0.6476899,0.3038275,1.260728,-0.2611562,-0.01818233,0.7648349,-0.009809775,2.268652,29.79633,29.19
4,0.01977539,-0.0241394,0.9995117,1.0,0.01977539,-0.0241394,0.9995117,-31.80283,11.29822,-58.28767,2.998825,0.5030213,0.4701193,1.0,0.100708,-0.05348206,0.9934692,38.25127,8.185349,-60.91006,3.266251,0.2196975,0.6476899,0.3038275,1.260728,-0.2611562,-0.01818233,0.7648349,-0.009809775,2.268652,29.22644,29.19
4,0.01512146,-0.03739929,0.999176,1.0,0.01512146,-0.03739929,0.999176,-31.80548,11.02078,-57.11003,2.947754,0.5037646,0.4716191,1.0,0.09912109,-0.04801941,0.9939117,38.29474,7.930725,-60.06352,3.254395,0.2204174,0.6461647,0.3038164,1.260791,-0.2610708,-0.01846129,0.7646502,-0.009678259,2.268652,31.75558,29.19
4,0.01512146,-0.03739929,0.999176,1.0,0.01512146,-0.03739929,0.999176,-31.80548,11.02078,-57.11003,2.947754,0.5037646,0.4716191,1.0,0.09912109,-0.04801941,0.9939117,38.29474,7.930725,-60.06352,3.254395,0.2204174,0.6461647,0.3038164,1.260791,-0.2610708,-0.01846129,0.7646502,-0.009678259,2.268652,31.75558,29.19
4,0.01329041,-0.03764343,0.9991913,1.0,0.01329041,-0.03764343,0.9991913,-31.81493,11.01015,-57.06201,2.985458,0.5045547,0.4716173,1.0,0.09785461,-0.04307556,0.9942627,38.31754,7.842072,-59.77121,3.241684,0.2204993,0.6449136,0.303776,1.260738,-0.2610282,-0.01861342,0.7645338,-0.009622285,2.268652,31.75558,29.19
4,0.01329041,-0.03764343,0.9991913,1.0,0.01329041,-0.03764343,0.9991913,-31.81493,11.01015,-57.06201,2.985458,0.5045547,0.4716173,1.0,0.09785461,-0.04307556,0.9942627,38.31754,7.842072,-59.77121,3.241684,0.2204993,0.6449136,0.303776,1.260738,-0.2610282,-0.01861342,0.7645338,-0.009622285,2.268652,31.75558,29.19
4,0.01106262,-0.03749084,0.9992218,1.0,0.01106262,-0.03749084,0.9992218,-31.81575,11.02888,-57.13585,2.983398,0.5051005,0.4716173,1.0,0.09843445,-0.03596497,0.9944916,38.31754,7.842072,-59.77121,3.294388,0.2203355,0.6432652,0.3037735,1.260753,-0.2609197,-0.01863343,0.7644147,-0.009503862,2.268652,31.75558,29.19
4,0.01106262,-0.03749084,0.9992218,1.0,0.01106262,-0.03749084,0.9992218,-31.81575,11.02888,-57.13585,2.983398,0.5051005,0.4716173,1.0,0.09843445,-0.03596497,0.9944916,38.31754,7.842072,-59.77121,3.294388,0.2203355,0.6432652,0.3037735,1.260753,-0.2609197,-0.01863343,0.7644147,-0.009503862,2.268652,31.75558,29.19
4,0.01116943,-0.04324341,0.9989929,1.0,0.01048279,-0.0433197,0.9989929,-31.8176,11.0338,-57.14609,2.964462,0.5053017,0.472797,1.0,0.09857178,-0.03198242,0.9946136,38.31754,7.842072,-59.77121,3.296005,0.2203355,0.6422955,0.3037943,1.26077,-0.260799,-0.01834815,0.7640782,-0.009326603,2.268652,31.75558,29.19
4,0.01116943,-0.04324341,0.9989929,1.0,0.01048279,-0.0433197,0.9989929,-31.8176,11.0338,-57.14609,2.964462,0.5053017,0.472797,1.0,0.09857178,-0.03198242,0.9946136,38.31754,7.842072,-59.77121,3.296005,0.2203355,0.6422955,0.3037943,1.26077,-0.260799,-0.01834815,0.7640782,-0.009326603,2.268652,31.75558,29.19
4,0.01116943,-0.04324341,0.9989929,1.0,0.01048279,-0.0433197,0.9989929,-31.8176,11.0338,-57.14609,2.964462,0.5053017,0.472797,1.0,0.09857178,-0.03198242,0.9946136,38.31754,7.842072,-59.77121,3.296005,0.2203355,0.6422955,0.3038404,1.26076,-0.2607653,-0.01817721,0.7637072,-0.009123888,2.268652,31.75558,29.19
4,0.01116943,-0.04324341,0.9989929,1.0,0.01048279,-0.0433197,0.9989929,-31.8176,11.0338,-57.14609,2.964462,0.5053017,0.472797,1.0,0.09857178,-0.03198242,0.9946136,38.31754,7.842072,-59.77121,3.296005,0.2203355,0.6422955,0.3038404,1.26076,-0.2607653,-0.01817721,0.7637072,-0.009123888,2.268652,31.75558,29.19
4,0.01525879,-0.04316711,0.9989471,1.0,0.0110321,-0.04374695,0.9989777,-31.81952,11.03377,-57.12556,2.990524,0.5052639,0.4726782,1.0,0.0978241,-0.03190613,0.9946899,38.31754,7.842072,-59.77121,3.316467,0.2204993,0.6422955,0.3038653,1.260751,-0.2605964,-0.01810698,0.7633779,-0.009078864,2.268652,31.75558,29.19
4,0.01525879,-0.04316711,0.9989471,1.0,0.0110321,-0.04374695,0.9989777,-31.81952,11.03377,-57.12556,2.990524,0.5052639,0.4726782,1.0,0.0978241,-0.03190613,0.9946899,38.31754,7.842072,-59.77121,3.316467,0.2204993,0.6422955,0.3038653,1.260751,-0.2605964,-0.01810698,0.7633779,-0.009078864,2.268652,31.75558,29.19
4,0.00970459,-0.0352478,0.9993286,1.0,0.00970459,-0.0352478,0.9993286,-31.82956,10.84131,-56.47299,3.087479,0.5057673,0.4717469,1.0,0.0763092,-0.04620361,0.9960022,38.08495,9.405731,-64.78081,3.172028,0.223892,0.6434343,0.303937,1.260714,-0.2603946,-0.01803173,0.7628884,-0.008928674,2.268652,31.75558,29.19
4,0.00970459,-0.0352478,0.9993286,1.0,0.00970459,-0.0352478,0.9993286,-31.82956,10.84131,-56.47299,3.087479,0.5057673,0.4717469,1.0,0.0763092,-0.04620361,0.9960022,38.08495,9.405731,-64.78081,3.172028,0.223892,0.6434343,0.303937,1.260714,-0.2603946,-0.01803173,0.7628884,-0.008928674,2.268652,31.75558,29.19
4,0.01005554,-0.03262329,0.9994049,1.0,0.01005554,-0.03262329,0.9994049,-31.83104,10.80916,-56.35902,3.139893,0.5057201,0.4712943,1.0,0.08224487,-0.03981018,0.9958038,38.12729,9.143127,-63.94548,3.207779,0.2224997,0.6423346,0.3039113,1.260756,-0.2602323,-0.01819728,0.7624534,-0.008834299,2.268652,31.75558,29.19
4,0.01005554,-0.03262329,0.9994049,1.0,0.01005554,-0.03262329,0.9994049,-31.83104,10.80916,-56.35902,3.139893,0.5057201,0.4712943,1.0,0.08224487,-0.03981018,0.9958038,38.12729,9.143127,-63.94548,3.207779,0.2224997,0.6423346,0.3039113,1.260756,-0.2602323,-0.01819728,0.7624534,-0.008834299,2.268652,31.75558,29.19
4,0.009277344,-0.03134155,0.9994507,1.0,0.009277344,-0.03134155,0.9994507,-31.82953,10.84401,-56.48178,3.139297,0.5058668,0.4709059,1.0,0.08575439,-0.0382843,0.995575,38.13696,9.072418,-63.71396,3.213043,0.221731,0.6420076,0.3040164,1.26076,-0.2600666,-0.01827511,0.7619621,-0.008733788,2.268652,-18.64375,29.19
4,0.009277344,-0.03134155,0.9994507,1.0,0.009277344,-0.03134155,0.9994507,-31.82953,10.84401,-56.48178,3.139297,0.5058668,0.4709059,1.0,0.08575439,-0.0382843,0.995575,38.13696,9.072418,-63.71396,3.213043,0.221731,0.6420076,0.3040164,1.26076,-0.2600666,-0.01827511,0.7619621,-0.008733788,2.268652,-18.64375,29.19
4,0.008483887,-0.03143311,0.9994659,1.0,0.008483887,-0.03143311,0.9994659,-31.82808,10.87344,-56.58696,3.139206,0.5060133,0.4708601,1.0,0.08578491,-0.03938293,0.9955292,38.14207,9.036667,-63.59941,3.218597,0.2217705,0.6423346,0.3039702,1.260756,-0.2598301,-0.0180864,0.7614332,-0.008795418,2.268652,-18.64375,29.19
4,0.008483887,-0.03143311,0.9994659,1.0,0.008483887,-0.03143311,0.9994659,-31.82808,10.87344,-56.58696,3.139206,0.5060133,0.4708601,1.0,0.08578491,-0.03938293,0.9955292,38.14207,9.036667,-63.59941,3.218597,0.2217705,0.6423346,0.3039702,1.260756,-0.2598301,-0.0180864,0.7614332,-0.008795418,2.268652,-18.64375,29.19
4,0.008483887,-0.03143311,0.9994659,1.0,0.008483887,-0.03143311,0.9994659,-31.82808,10.87344,-56.58696,3.139206,0.5060133,0.4708601,1.0,0.08578491,-0.03938293,0.9955292,38.14207,9.036667,-63.59941,3.218597,0.2217705,0.6423346,0.3039702,1.260756,-0.2598301,-0.0180864,0.7614332,-0.008795418,2.268652,-18.64375,29.19
4,0.008483887,-0.03143311,0.9994659,1.0,0.008483887,-0.03143311,0.9994659,-31.82808,10.87344,-56.58696,3.139206,0.5060133,0.4708601,1.0,0.08578491,-0.03938293,0.9955292,38.14207,9.036667,-63.59941,3.218597,0.2217705,0.6423346,0.3039376,1.260726,-0.2596056,-0.01805135,0.7610672,-0.00904186,2.268652,-18.64375,29.19
4,0.008483887,-0.03143311,0.9994659,1.0,0.008483887,-0.03143311,0.9994659,-31.82808,10.87344,-56.58696,3.139206,0.5060133,0.4708601,1.0,0.08578491,-0.03938293,0.9955292,38.14207,9.036667,-63.59941,3.218597,0.2217705,0.6423346,0.3039376,1.260726,-0.2596056,-0.01805135,0.7610672,-0.00904186,2.268652,-18.64375,29.19
4,0.007995605,-0.0405426,0.9991302,1.0,0.007995605,-0.0405426,0.9991302,-31.83046,11.28055,-57.89214,3.184952,0.506691,0.4701907,1.0,0.08436584,-0.04052734,0.9956055,38.05161,9.634888,-65.62488,3.342346,0.2206174,0.643618,0.304064,1.260585,-0.2594224,-0.01791026,0.7606755,-0.0091569,2.268652,-18.64375,29.19
4,0.007995605,-0.0405426,0.9991302,1.0,0.007995605,-0.0405426,0.9991302,-31.83046,11.28055,-57.89214,3.184952,0.506691,0.4701907,1.0,0.08436584,-0.04052734,0.9956055,38.05161,9.634888,-65.62488,3.342346,0.2206174,0.643618,0.304064,1.260585,-0.2594224,-0.01791026,0.7606755,-0.0091569,2.268652,-18.64375,29.19
4,0.00793457,-0.04302979,0.9990387,1.0,0.00793457,-0.04302979,0.9990387,-31.84067,11.32849,-58.02684,3.204163,0.5071993,0.4702253,1.0,0.0816803,-0.05250549,0.9952698,37.87167,10.72585,-69.02684,3.162109,0.221069,0.64355,0.3040684,1.260601,-0.2592478,-0.01781453,0.7602044,-0.009058326,2.268652,-18.64375,29.19
4,0.00793457,-0.04302979,0.9990387,1.0,0.00793457,-0.04302979,0.9990387,-31.84067,11.32849,-58.02684,3.204163,0.5071993,0.4702253,1.0,0.0816803,-0.05250549,0.9952698,37.87167,10.72585,-69.02684,3.162109,0.221069,0.64355,0.3040684,1.260601,-0.2592478,-0.01781453,0.7602044,-0.009058326,2.268652,-18.64375,29.19
4,0.008270264,-0.04489136,0.9989471,1.0,0.008270264,-0.04489136,0.9989471,-31.84686,11.31044,-57.97899,3.22847,0.5073786,0.4708944,1.0,0.07426453,-0.07676697,0.994278,37.18982,14.86385,-82.24591,2.67807,0.2206053,0.6428007,0.3039975,1.260649,-0.2590172,-0.01775672,0.7598299,-0.00886881,2.268652,-18.64375,29.19
4,0.008270264,-0.04489136,0.9989471,1.0,0.008270264,-0.04489136,0.9989471,-31.84686,11.31044,-57.97899,3.22847,0.5073786,0.4708944,1.0,0.07426453,-0.07676697,0.994278,37.18982,14.86385,-82.24591,2.67807,0.2206053,0.6428007,0.3039975,1.260649,-0.2590172,-0.01775672,0.7598299,-0.00886881,2.268652,-18.64375,29.19
4,0.008270264,-0.04489136,0.9989471,1.0,0.008270264,-0.04489136,0.9989471,-31.84686,11.31044,-57.97899,3.22847,0.5073786,0.4708944,1.0,0.07426453,-0.07676697,0.994278,37.18982,14.86385,-82.24591,2.67807,0.2206053,0.6428007,0.3039975,1.260649,-0.2590172,-0.01775672,0.7598299,-0.00886881,2.268652,-18.64375,29.19
4,0.008270264,-0.04489136,0.9989471,1.0,0.008270264,-0.04489136,0.9989471,-31.84686,11.31044,-57.97899,3.22847,0.5073786,0.4708944,1.0,0.07426453,-0.07676697,0.994278,37.18982,14.86385,-82.24591,2.67807,0.2206053,0.6428007,0.303865,1.26069,-0.2589185,-0.01787736,0.7594122,-0.008812767,2.268652,-43.13082,29.19
4,0.008270264,-0.04489136,0.9989471,1.0,0.008270264,-0.04489136,0.9989471,-31.84686,11.31044,-57.97899,3.22847,0.5073786,0.4708944,1.0,0.07426453,-0.07676697,0.994278,37.18982,14.86385,-82.24591,2.67807,0.2206053,0.6428007,0.303865,1.26069,-0.2589185,-0.01787736,0.7594122,-0.008812767,2.268652,-43.13082,29.19
5,0.008270264,-0.04489136,0.9989471,1.0,0.008270264,-0.04489136,0.9989471,-31.84686,11.31044,-57.97899,3.22847,0.5073786,0.4708944,1.0,0.07426453,-0.07676697,0.994278,37.18982,14.86385,-82.24591,2.67807,0.2206053,0.6428007,0.3038511,1.26067,-0.2587315,-0.01813309,0.7591143,-0.008880143,2.268652,-43.13082,29.19
5,0.007980347,-0.04434204,0.9989777,1.0,0.007980347,-0.04434204,0.9989777,-31.84764,11.2838,-57.88844,3.231537,0.5074417,0.4708944,1.0,0.07395935,-0.08390808,0.9937134,37.14082,15.14116,-83.06815,2.647171,0.2209268,0.6433631,0.3038248,1.260629,-0.2585351,-0.0182439,0.7586873,-0.008768269,2.268652,-43.13082,29.19
5,0.007980347,-0.04434204,0.9989777,1.0,0.007980347,-0.04434204,0.9989777,-31.84764,11.2838,-57.88844,3.231537,0.5074417,0.4708944,1.0,0.07395935,-0.08390808,0.9937134,37.14082,15.14116,-83.06815,2.647171,0.2209268,0.6433631,0.3038248,1.260629,-0.2585351,-0.0182439,0.7586873,-0.008768269,2.268652,-43.13082,29.19
5,0.01268005,-0.04528809,0.9988861,1.0,0.01268005,-0.04528809,0.9988861,-31.90192,10.93288,-56.41661,3.301468,0.5082324,0.4695841,1.0,0.06472778,-0.08668518,0.9941254,37.15788,14.98334,-82.5126,2.598236,0.2251224,0.643446,0.3037297,1.260633,-0.258356,-0.0182439,0.7582541,-0.008722263,2.268652,-43.13082,29.19
5,0.01268005,-0.04528809,0.9988861,1.0,0.01268005,-0.04528809,0.9988861,-31.90192,10.93288,-56.41661,3.301468,0.5082324,0.4695841,1.0,0.06472778,-0.08668518,0.9941254,37.15788,14.98334,-82.5126,2.598236,0.2251224,0.643446,0.3037297,1.260633,-0.258356,-0.0182439,0.7582541,-0.008722263,2.268652,-43.13082,29.19
5,0.008087158,-0.04400635,0.9989929,1.0,0.008087158,-0.04400635,0.9989929,-31.90323,10.93578,-56.43001,3.362991,0.5092869,0.4693784,1.0,0.06655884,-0.087677,0.9939117,37.15669,14.97992,-82.50237,2.621216,0.2245417,0.64385,0.3036805,1.260625,-0.2582522,-0.01824778,0.7580857,-0.008741463,2.268652,-43.13082,29.19
5,0.007720947,-0.0453949,0.9989319,1.0,0.007720947,-0.0453949,0.9989319,-31.90738,10.91637,-56.3304,3.350494,0.5095045,0.4693784,1.0,0.06578064,-0.09043884,0.9937134,37.15474,14.97992,-82.50237,2.607254,0.2249324,0.6447147,0.3036674,1.260579,-0.2580727,-0.01816245,0.7577032,-0.008838515,2.268652,-43.13082,29.19
5,0.007720947,-0.0453949,0.9989319,1.0,0.007720947,-0.0453949,0.9989319,-31.90738,10.91637,-56.3304,3.350494,0.5095045,0.4693784,1.0,0.06578064,-0.09043884,0.9937134,37.15474,14.97992,-82.50237,2.607254,0.2249324,0.6447147,0.3036674,1.260579,-0.2580727,-0.01816245,0.7577032,-0.008838515,2.268652,-43.13082,29.19
5,0.008972168,-0.04748535,0.9988251,1.0,0.008972168,-0.04748535,0.9988251,-31.9102,10.89987,-56.2442,3.355637,0.5093219,0.4695841,1.0,0.06524658,-0.08848572,0.993927,37.15396,14.98027,-82.5126,2.61795,0.2251224,0.644254,0.3036224,1.260601,-0.2580311,-0.01824757,0.7574631,-0.008803039,2.268652,-43.13082,29.19
5,0.008972168,-0.04748535,0.9988251,1.0,0.008972168,-0.04748535,0.9988251,-31.9102,10.89987,-56.2442,3.355637,0.5093219,0.4695841,1.0,0.06524658,-0.08848572,0.993927,37.15396,14.98027,-82.5126,2.61795,0.2251224,0.644254,0.3036767,1.260674,-0.2579215,-0.01821079,0.7572814,-0.008806423,2.268652,-43.13082,29.19
5,0.008972168,-0.04748535,0.9988251,1.0,0.008972168,-0.04748535,0.9988251,-31.9102,10.89987,-56.2442,3.355637,0.5093219,0.4695841,1.0,0.06524658,-0.08848572,0.993927,37.15396,14.98027,-82.5126,2.61795,0.2251224,0.644254,0.30361,1.260775,-0.2577166,-0.01813248,0.7567894,-0.008465644,2.268652,-43.13082,29.19
5,0.008972168,-0.04748535,0.9988251,1.0,0.008972168,-0.04748535,0.9988251,-31.9102,10.89987,-56.2442,3.355637,0.5093219,0.4695841,1.0,0.06524658,-0.08848572,0.993927,37.15396,14.98027,-82.5126,2.61795,0.2251224,0.644254,0.30361,1.260775,-0.2577166,-0.01813248,0.7567894,-0.008465644,2.268652,-43.13082,29.19
5,0.008972168,-0.04748535,0.9988251,1.0,0.008972168,-0.04748535,0.9988251,-31.9102,10.89987,-56.2442,3.355637,0.5093219,0.4695841,1.0,0.06524658,-0.08848572,0.993927,37.15396,14.98027,-82.5126,2.61795,0.2251224,0.644254,0.303573,1.260836,-0.2576252,-0.01816737,0.7565294,-0.008347771,2.268652,-43.13082,29.19
5,0.0009918213,-0.05430603,0.9985199,0.9921197,0.0009918213,-0.05430603,0.9985199,-31.91562,10.88806,-56.20035,3.3992,0.5112439,0.4711172,0.754663,0.06666565,-0.09074402,0.9936371,37.15474,14.97838,-82.50237,2.624161,0.2245812,0.6449406,0.3036183,1.260886,-0.257565,-0.01816101,0.7563846,-0.008354464,2.268652,7.958084,29.19
5,0.0009918213,-0.05430603,0.9985199,0.9921197,0.0009918213,-0.05430603,0.9985199,-31.91562,10.88806,-56.20035,3.3992,0.5112439,0.4711172,0.754663,0.06666565,-0.09074402,0.9936371,37.15474,14.97838,-82.50237,2.624161,0.2245812,0.6449406,0.3036183,1.260886,-0.257565,-0.01816101,0.7563846,-0.008354464,2.268652,7.958084,29.19
5,-0.004943848,-0.04946899,0.9987488,1.0,-0.004943848,-0.04946899,0.9987488,-31.9209,10.87274,-56.13049,3.376572,0.5127144,0.4699232,1.0,0.06607056,-0.0916748,0.9935913,37.1555,14.97649,-82.49213,2.632095,0.2247423,0.6451752,0.3036145,1.261012,-0.2574071,-0.01841503,0.7561094,-0.008238165,2.268652,7.958084,29.19
5,-0.003860474,-0.04998779,0.9987335,1.0,-0.003860474,-0.04998779,0.9987335,-31.92308,10.85799,-56.08379,3.392639,0.512559,0.4701556,1.0,0.06716919,-0.08976746,0.9936829,37.15396,14.98027,-82.5126,2.631454,0.2244201,0.6447061,0.3035818,1.261047,-0.25731,-0.01857215,0.7559819,-0.008254427,2.268652,7.958084,29.19
5,-0.003860474,-0.04998779,0.9987335,1.0,-0.003860474,-0.04998779,0.9987335,-31.92308,10.85799,-56.08379,3.392639,0.512559,0.4701556,1.0,0.06716919,-0.08976746,0.9936829,37.15396,14.98027,-82.5126,2.631454,0.2244201,0.6447061,0.3035818,1.261047,-0.25731,-0.01857215,0.7559819,-0.008254427,2.268652,7.958084,29.19
5,-0.003585815,-0.04890442,0.9987946,1.0,-0.003585815,-0.04890442,0.9987946,-31.92657,10.84538,-56.04558,3.422821,0.5126367,0.4700394,1.0,0.06660461,-0.09222412,0.9934998,37.13306,15.08899,-82.85504,2.619019,0.2247423,0.645207,0.3035316,1.261097,-0.2570896,-0.01878654,0.7556821,-0.008109182,2.268652,7.958084,29.19
5,-0.003112793,-0.04867554,0.9987946,0.9738063,-0.003112793,-0.04867554,0.9987946,-31.92744,10.83914,-56.0157,3.430618,0.512559,0.4699232,0.7222764,0.06748962,-0.09233093,0.9934235,37.13306,15.08899,-82.85504,2.626755,0.2244201,0.6452565,0.3034192,1.261164,-0.2570585,-0.01873571,0.7553849,-0.008014918,2.268652,7.958084,29.19
5,-0.003112793,-0.04867554,0.9987946,0.9738063,-0.003112793,-0.04867554,0.9987946,-31.92744,10.83914,-56.0157,3.430618,0.512559,0.4699232,0.7222764,0.06748962,-0.09233093,0.9934235,37.13306,15.08899,-82.85504,2.626755,0.2244201,0.6452565,0.3034192,1.261164,-0.2570585,-0.01873571,0.7553849,-0.008014918,2.268652,7.958084,29.19
5,-0.003112793,-0.04867554,0.9987946,0.9738063,-0.003112793,-0.04867554,0.9987946,-31.92744,10.83914,-56.0157,3.430618,0.512559,0.4699232,0.7222764,0.06748962,-0.09233093,0.9934235,37.13306,15.08899,-82.85504,2.626755,0.2244201,0.6452565,0.3033453,1.261169,-0.2568842,-0.01861382,0.7547665,-0.007483717,2.268652,7.958084,29.19
5,-0.003112793,-0.04867554,0.9987946,0.9738063,-0.003112793,-0.04867554,0.9987946,-31.92744,10.83914,-56.0157,3.430618,0.512559,0.4699232,0.7222764,0.06748962,-0.09233093,0.9934235,37.13306,15.08899,-82.85504,2.626755,0.2244201,0.6452565,0.3033453,1.261169,-0.2568842,-0.01861382,0.7547665,-0.007483717,2.268652,7.958084,29.19
5,-0.003112793,-0.04867554,0.9987946,0.9738063,-0.003112793,-0.04867554,0.9987946,-31.92744,10.83914,-56.0157,3.430618,0.512559,0.4699232,0.7222764,0.06748962,-0.09233093,0.9934235,37.13306,15.08899,-82.85504,2.626755,0.2244201,0.6452565,0.3033124,1.261176,-0.2568196,-0.01857074,0.7545807,-0.007425247,2.268652,7.958084,29.19
5,-0.002609253,-0.04795837,0.9988403,0.9738063,-0.002609253,-0.04795837,0.9988403,-31.92908,10.83586,-56.02777,3.423645,0.5125273,0.4700394,0.7222764,0.07096863,-0.112793,0.9910736,36.812,16.87497,-88.41357,2.447388,0.2244201,0.6458145,0.3031565,1.261234,-0.2566819,-0.01853159,0.7542799,-0.007414704,2.268652,7.958084,29.19
5,-0.002609253,-0.04795837,0.9988403,0.9738063,-0.002609253,-0.04795837,0.9988403,-31.92908,10.83586,-56.02777,3.423645,0.5125273,0.4700394,0.7222764,0.07096863,-0.112793,0.9910736,36.812,16.87497,-88.41357,2.447388,0.2244201,0.6458145,0.3031565,1.261234,-0.2566819,-0.01853159,0.7542799,-0.007414704,2.268652,7.958084,29.19
5,-0.009597778,-0.04795837,0.9987946,1.0,-0.009597778,-0.04795837,0.9987946,-31.94197,10.82022,-56.05421,3.454361,0.5145769,0.4710356,1.0,0.07368469,-0.1122589,0.9909363,36.76889,17.03529,-88.95123,2.428131,0.2244201,0.6458145,0.3030752,1.26127,-0.2566509,-0.01842413,0.7541718,-0.007501119,2.268652,7.958084,29.19
5,-0.009597778,-0.04795837,0.9987946,1.0,-0.009597778,-0.04795837,0.9987946,-31.94197,10.82022,-56.05421,3.454361,0.5145769,0.4710356,1.0,0.07368469,-0.1122589,0.9909363,36.76889,17.03529,-88.95123,2.428131,0.2244201,0.6458145,0.3030242,1.261267,-0.2566009,-0.01848388,0.7539885,-0.007595873,2.268652,7.958084,29.19
5,-0.009597778,-0.04795837,0.9987946,1.0,-0.009597778,-0.04795837,0.9987946,-31.94197,10.82022,-56.05421,3.454361,0.5145769,0.4710356,1.0,0.07368469,-0.1122589,0.9909363,36.76889,17.03529,-88.95123,2.428131,0.2244201,0.6458145,0.3029419,1.261273,-0.2564514,-0.0184615,0.7537456,-0.007524424,2.268652,5.478378,29.19
5,-0.009597778,-0.04795837,0.9987946,1.0,-0.009597778,-0.04795837,0.9987946,-31.94197,10.82022,-56.05421,3.454361,0.5145769,0.4710356,1.0,0.07368469,-0.1122589,0.9909363,36.76889,17.03529,-88.95123,2.428131,0.2244201,0.6458145,0.3029419,1.261273,-0.2564514,-0.0184615,0.7537456,-0.007524424,2.268652,5.478378,29.19
5,-0.009597778,-0.04795837,0.9987946,1.0,-0.009597778,-0.04795837,0.9987946,-31.94197,10.82022,-56.05421,3.454361,0.5145769,0.4710356,1.0,0.07368469,-0.1122589,0.9909363,36.76889,17.03529,-88.95123,2.428131,0.2244201,0.6458145,0.302873,1.261332,-0.2563991,-0.01839397,0.7536798,-0.007473754,2.268652,5.478378,29.19
5,-0.005020142,-0.06170654,0.9980774,0.9773025,-0.005020142,-0.06170654,0.9980774,-31.94594,10.79536,-55.97577,3.40947,0.5137232,0.4741671,0.6516824,0.06982422,-0.1144867,0.9909668,36.76767,17.11041,-89.16821,2.421021,0.2250802,0.6459599,0.3028064,1.261378,-0.256397,-0.01829284,0.7532935,-0.007262414,2.268652,5.478378,29.19
5,-0.005020142,-0.06170654,0.9980774,0.9773025,-0.005020142,-0.06170654,0.9980774,-31.94594,10.79536,-55.97577,3.40947,0.5137232,0.4741671,0.6516824,0.06982422,-0.1144867,0.9909668,36.76767,17.11041,-89.16821,2.421021,0.2250802,0.6459599,0.3028064,1.261378,-0.256397,-0.01829284,0.7532935,-0.007262414,2.268652,5.478378,29.19
5,-0.005020142,-0.06170654,0.9980774,0.9773025,-0.005020142,-0.06170654,0.9980774,-31.94594,10.79536,-55.97577,3.40947,0.5137232,0.4741671,0.6516824,0.06982422,-0.1144867,0.9909668,36.76767,17.11041,-89.16821,2.421021,0.2250802,0.6459599,0.3027536,1.261348,-0.2563759,-0.01832112,0.753188,-0.007172085,2.268652,5.478378,29.19
5,-0.005020142,-0.06170654,0.9980774,0.9773025,-0.005020142,-0.06170654,0.9980774,-31.94594,10.79536,-55.97577,3.40947,0.5137232,0.4741671,0.6516824,0.06982422,-0.1144867,0.9909668,36.76767,17.11041,-89.16821,2.421021,0.2250802,0.6459599,0.3027846,1.261376,-0.2562815,-0.01829202,0.7529911,-0.007071128,2.268652,5.478378,29.19
5,-0.005020142,-0.06170654,0.9980774,0.9773025,-0.005020142,-0.06170654,0.9980774,-31.94594,10.79536,-55.97577,3.40947,0.5137232,0.4741671,0.6516824,0.06982422,-0.1144867,0.9909668,36.76767,17.11041,-89.16821,2.421021,0.2250802,0.6459599,0.3027846,1.261376,-0.2562815,-0.01829202,0.7529911,-0.007071128,2.268652,5.478378,29.19
5,-0.006912231,-0.05657959,0.9983673,1.0,-0.006912231,-0.05657959,0.9983673,-31.96138,10.9375,-56.45273,3.462799,0.5150005,0.4724057,1.0,0.07032776,-0.1128387,0.9911041,36.74538,17.18166,-89.42221,2.443207,0.2254481,0.6458145,0.3027694,1.261378,-0.2562436,-0.01834429,0.752913,-0.007038917,2.268652,5.478378,29.19
5,-0.01315308,-0.05108643,0.9985962,0.9937975,-0.01315308,-0.05108643,0.9985962,-31.97676,10.92706,-56.4183,3.471954,0.5169846,0.4712701,0.7278095,0.07092285,-0.1130829,0.9910431,36.72581,17.26706,-89.692,2.439041,0.2255823,0.6456687,0.3027403,1.261346,-0.2562287,-0.01825717,0.7528296,-0.007021961,2.268652,5.478378,29.19
5,-0.01315308,-0.05108643,0.9985962,0.9937975,-0.01315308,-0.05108643,0.9985962,-31.97676,10.92706,-56.4183,3.471954,0.5169846,0.4712701,0.7278095,0.07092285,-0.1130829,0.9910431,36.72581,17.26706,-89.692,2.439041,0.2255823,0.6456687,0.3027403,1.261346,-0.2562287,-0.01825717,0.7528296,-0.007021961,2.268652,5.478378,29.19
5,-0.008743286,-0.05392456,0.9985046,0.9934874,-0.008743286,-0.05392456,0.9985046,-31.97798,10.92166,-56.4059,3.451584,0.5160817,0.4719666,0.7076462,0.06829834,-0.112793,0.9912567,36.72455,17.26921,-89.70555,2.43721,0.2266151,0.6456687,0.3027823,1.261272,-0.2561458,-0.01843019,0.7527663,-0.007152321,2.268652,5.478378,29.19
5,-0.009246826,-0.04551697,0.9989166,1.0,-0.009246826,-0.04551697,0.9989166,-31.97916,10.91974,-56.40811,3.489258,0.5162483,0.4702577,1.0,0.07125854,-0.1117859,0.9911652,36.70503,17.29057,-89.78731,2.437454,0.2266151,0.6455674,0.3027074,1.261277,-0.2560252,-0.01839276,0.7526809,-0.007311492,2.268652,5.478378,29.19
5,-0.009246826,-0.04551697,0.9989166,1.0,-0.009246826,-0.04551697,0.9989166,-31.97916,10.91974,-56.40811,3.489258,0.5162483,0.4702577,1.0,0.07125854,-0.1117859,0.9911652,36.70503,17.29057,-89.78731,2.437454,0.2266151,0.6455674,0.3027074,1.261277,-0.2560252,-0.01839276,0.7526809,-0.007311492,2.268652,5.478378,29.19
5,-0.008346558,-0.04545593,0.9989166,0.9927681,-0.008346558,-0.04545593,0.9989166,-31.97958,10.92296,-56.42036,3.511993,0.5160817,0.4702577,0.750926,0.07099915,-0.111618,0.9912109,36.70503,17.29057,-89.78731,2.475098,0.2266151,0.6455674,0.3027074,1.261277,-0.2560252,-0.01839276,0.7526809,-0.007311492,2.268652,5.478378,29.19
5,-0.007064819,-0.04573059,0.9989166,0.9999608,-0.007064819,-0.04573059,0.9989166,-31.97951,10.92497,-56.42259,3.511887,0.5158058,0.4702577,0.7247135,0.07284546,-0.1151733,0.9906616,36.63379,17.67592,-90.99995,2.429169,0.2263427,0.6456687,0.3026958,1.261282,-0.2559211,-0.01826879,0.7526295,-0.007290061,2.268652,5.478378,29.19
