Second,eye_comb_direction_x,eye_comb_direction_y,eye_comb_direction_z,eye_r_openness,eye_r_direction_x,eye_r_direction_y,eye_r_direction_z,eye_r_origin_x,eye_r_origin_y,eye_r_origin_z,eye_r_pupil_diameter,eye_r_pupil_position_x,eye_r_pupil_position_y,eye_l_openness,eye_l_direction_x,eye_l_direction_y,eye_l_direction_z,eye_l_origin_x,eye_l_origin_y,eye_l_origin_z,eye_l_pupil_diameter,eye_l_pupil_position_x,eye_l_pupil_position_y,head_position_x,head_position_y,head_position_z,head_rotation_roll,head_rotation_pitch,head_rotation_yaw,EDA,BVP,TMP
0,0.0,0.0,0.0,0.0,0.0,0.0,0.0,0.0,0.0,0.0,0.0,0.0,0.0,0.0,0.0,0.0,0.0,0.0,0.0,0.0,0.0,0.0,0.0,0.0,0.0,0.0,0.0,0.0,0.0,0.33203113826714803,0.9060050722984361,29.871354993983154
0,-0.1272278,-0.04722595,0.9907379,0.9729044,-0.0823822,-0.04345703,0.9956512,-30.52795,10.17401,-34.58633,5.121155,0.4699949,0.2877783,0.9541142,-0.1274261,-0.04724121,0.9907074,29.70284,11.77429,-35.19296,4.764633,0.6412079,0.2168712,0.07280433,1.18076,-0.09089881,-0.05746971,-0.04594954,0.02931137,0.33203113826714803,0.9060050722984361,29.871354993983154
1,-0.1270599,-0.0471344,0.9907684,0.9729044,-0.0823822,-0.04135132,0.9957275,-30.52405,10.17401,-34.58633,5.120331,0.4698569,0.2873608,0.9541142,-0.1271362,-0.04714966,0.9907532,29.70134,11.77339,-35.19156,4.764679,0.6412079,0.2168712,0.07366431,1.181366,-0.0915997,-0.05979465,-0.04556723,0.02714713,0.3292426,0.9060050722984361,29.871354993983154
1,-0.1270599,-0.0471344,0.9907684,0.9729044,-0.0823822,-0.04135132,0.9957275,-30.52405,10.17401,-34.58633,5.120331,0.4698569,0.2873608,0.9541142,-0.1271362,-0.04714966,0.9907532,29.70134,11.77339,-35.19156,4.764679,0.6412079,0.2168712,0.07366431,1.181366,-0.0915997,-0.05979465,-0.04556723,0.02714713,0.3292426,0.9060050722984361,29.871354993983154
1,-0.1270599,-0.0471344,0.9907684,0.9729044,-0.0823822,-0.04135132,0.9957275,-30.52405,10.17401,-34.58633,5.120331,0.4698569,0.2873608,0.9541142,-0.1271362,-0.04714966,0.9907532,29.70134,11.77339,-35.19156,4.764679,0.6412079,0.2168712,0.07366431,1.181366,-0.0915997,-0.05979465,-0.04556723,0.02714713,0.3292426,0.9060050722984361,29.871354993983154
1,-0.1270599,-0.0471344,0.9907684,0.9729044,-0.0823822,-0.04135132,0.9957275,-30.52405,10.17401,-34.58633,5.120331,0.4698569,0.2873608,0.9541142,-0.1271362,-0.04714966,0.9907532,29.70134,11.77339,-35.19156,4.764679,0.6412079,0.2168712,0.07366431,1.181366,-0.0915997,-0.05979465,-0.04556723,0.02714713,0.3292426,0.9060050722984361,29.871354993983154
1,-0.1270599,-0.0471344,0.9907684,0.9729044,-0.0823822,-0.04135132,0.9957275,-30.52405,10.17401,-34.58633,5.120331,0.4698569,0.2873608,0.9541142,-0.1271362,-0.04714966,0.9907532,29.70134,11.77339,-35.19156,4.764679,0.6412079,0.2168712,0.07366431,1.181366,-0.0915997,-0.05979465,-0.04556723,0.02714713,0.3292426,0.9060050722984361,29.871354993983154
1,-0.1270599,-0.0471344,0.9907684,0.9729044,-0.0823822,-0.04135132,0.9957275,-30.52405,10.17401,-34.58633,5.120331,0.4698569,0.2873608,0.9541142,-0.1271362,-0.04714966,0.9907532,29.70134,11.77339,-35.19156,4.764679,0.6412079,0.2168712,0.07366431,1.181366,-0.0915997,-0.05979465,-0.04556723,0.02714713,0.3292426,0.9060050722984361,29.871354993983154
1,-0.1270599,-0.0471344,0.9907684,0.9729044,-0.0823822,-0.04135132,0.9957275,-30.52405,10.17401,-34.58633,5.120331,0.4698569,0.2873608,0.9541142,-0.1271362,-0.04714966,0.9907532,29.70134,11.77339,-35.19156,4.764679,0.6412079,0.2168712,0.07366431,1.181366,-0.0915997,-0.05979465,-0.04556723,0.02714713,0.3292426,0.9060050722984361,29.871354993983154
1,-0.1270599,-0.0471344,0.9907684,0.9729044,-0.0823822,-0.04135132,0.9957275,-30.52405,10.17401,-34.58633,5.120331,0.4698569,0.2873608,0.9541142,-0.1271362,-0.04714966,0.9907532,29.70134,11.77339,-35.19156,4.764679,0.6412079,0.2168712,0.07366431,1.181366,-0.0915997,-0.05979465,-0.04556723,0.02714713,0.3292426,0.9060050722984361,29.871354993983154
1,-0.1270599,-0.0471344,0.9907684,0.9729044,-0.0823822,-0.04135132,0.9957275,-30.52405,10.17401,-34.58633,5.120331,0.4698569,0.2873608,0.9541142,-0.1271362,-0.04714966,0.9907532,29.70134,11.77339,-35.19156,4.764679,0.6412079,0.2168712,0.07366431,1.181366,-0.0915997,-0.05979465,-0.04556723,0.02714713,0.3292426,0.9060050722984361,29.871354993983154
1,-0.05834961,-0.05729675,0.9966431,0.9948317,-0.05834961,-0.05729675,0.9966431,-30.2637,10.1927,-35.12778,4.629562,0.4563459,0.2947533,0.991722,-0.06793213,-0.03222656,0.9971619,30.07652,11.81967,-35.70128,4.412643,0.6155441,0.2186856,0.07272589,1.181346,-0.09187841,-0.06166944,-0.03958185,0.02844395,0.3292426,0.9060050722984361,29.871354993983154
1,-0.05834961,-0.05729675,0.9966431,0.9948317,-0.05834961,-0.05729675,0.9966431,-30.2637,10.1927,-35.12778,4.629562,0.4563459,0.2947533,0.991722,-0.06793213,-0.03222656,0.9971619,30.07652,11.81967,-35.70128,4.412643,0.6155441,0.2186856,0.07272589,1.181346,-0.09187841,-0.06166944,-0.03958185,0.02844395,0.3292426,0.9060050722984361,29.871354993983154
1,-0.05834961,-0.05729675,0.9966431,0.9948317,-0.05834961,-0.05729675,0.9966431,-30.2637,10.1927,-35.12778,4.629562,0.4563459,0.2947533,0.991722,-0.06793213,-0.03222656,0.9971619,30.07652,11.81967,-35.70128,4.412643,0.6155441,0.2186856,0.07272589,1.181346,-0.09187841,-0.06166944,-0.03958185,0.02844395,0.3292426,0.9060050722984361,29.871354993983154
1,-0.05834961,-0.05729675,0.9966431,0.9948317,-0.05834961,-0.05729675,0.9966431,-30.2637,10.1927,-35.12778,4.629562,0.4563459,0.2947533,0.991722,-0.06793213,-0.03222656,0.9971619,30.07652,11.81967,-35.70128,4.412643,0.6155441,0.2186856,0.07272589,1.181346,-0.09187841,-0.06166944,-0.03958185,0.02844395,0.3292426,0.9060050722984361,29.871354993983154
1,-0.05834961,-0.05729675,0.9966431,0.9948317,-0.05834961,-0.05729675,0.9966431,-30.2637,10.1927,-35.12778,4.629562,0.4563459,0.2947533,0.991722,-0.06793213,-0.03222656,0.9971619,30.07652,11.81967,-35.70128,4.412643,0.6155441,0.2186856,0.07272589,1.181346,-0.09187841,-0.06166944,-0.03958185,0.02844395,0.3292426,0.9060050722984361,29.871354993983154
1,-0.05834961,-0.05729675,0.9966431,0.9948317,-0.05834961,-0.05729675,0.9966431,-30.2637,10.1927,-35.12778,4.629562,0.4563459,0.2947533,0.991722,-0.06793213,-0.03222656,0.9971619,30.07652,11.81967,-35.70128,4.412643,0.6155441,0.2186856,0.07272589,1.181346,-0.09187841,-0.06166944,-0.03958185,0.02844395,0.3292426,0.9060050722984361,29.871354993983154
1,-0.05859375,-0.04011536,0.997467,1.0,-0.05595398,-0.05415344,0.9969482,-30.25359,10.14229,-34.95944,4.508911,0.455622,0.2947533,1.0,-0.06053162,-0.02984619,0.9977112,30.08482,11.82407,-35.71452,4.222565,0.6137034,0.2186025,0.07269824,1.181311,-0.09165025,-0.06152974,-0.03924708,0.02903683,0.3292426,0.9060050722984361,29.871354993983154
1,-0.05859375,-0.04011536,0.997467,1.0,-0.05595398,-0.05415344,0.9969482,-30.25359,10.14229,-34.95944,4.508911,0.455622,0.2947533,1.0,-0.06053162,-0.02984619,0.9977112,30.08482,11.82407,-35.71452,4.222565,0.6137034,0.2186025,0.07269824,1.181311,-0.09165025,-0.06152974,-0.03924708,0.02903683,0.3292426,0.9060050722984361,29.871354993983154
1,-0.05773926,-0.03668213,0.9976501,0.9859608,-0.05322266,-0.05392456,0.9971161,-30.25075,10.14229,-34.95944,4.450592,0.455054,0.2947533,0.9992296,-0.05929565,-0.03071594,0.997757,30.08847,11.82916,-35.72083,4.203568,0.6133199,0.2186856,0.07264411,1.181292,-0.09159994,-0.06149376,-0.03912063,0.02908785,0.3292426,0.9060050722984361,29.871354993983154
1,-0.05773926,-0.03668213,0.9976501,0.9859608,-0.05322266,-0.05392456,0.9971161,-30.25075,10.14229,-34.95944,4.450592,0.455054,0.2947533,0.9992296,-0.05929565,-0.03071594,0.997757,30.08847,11.82916,-35.72083,4.203568,0.6133199,0.2186856,0.07264411,1.181292,-0.09159994,-0.06149376,-0.03912063,0.02908785,0.3292426,0.9060050722984361,29.871354993983154
1,-0.05674744,-0.03507996,0.997757,1.0,-0.05201721,-0.05215454,0.9972687,-30.24673,10.14229,-34.95944,4.390106,0.4547144,0.2944588,1.0,-0.05796814,-0.03063965,0.9978333,30.09314,11.8302,-35.72232,4.190414,0.6128796,0.2186856,0.07262719,1.181272,-0.09156704,-0.06145983,-0.03908519,0.02909604,0.3292426,0.9060050722984361,29.871354993983154
1,-0.05456543,-0.03877258,0.9977417,1.0,-0.051651,-0.05215454,0.9972992,-30.24013,10.14229,-34.95944,4.383331,0.4544139,0.2944588,1.0,-0.05563354,-0.03390503,0.9978638,30.0939,11.83211,-35.72232,4.173004,0.6123559,0.2193938,0.07258642,1.181264,-0.09155178,-0.06137115,-0.03910216,0.02920722,0.3292426,0.9060050722984361,29.871354993983154
1,-0.05456543,-0.03877258,0.9977417,1.0,-0.051651,-0.05215454,0.9972992,-30.24013,10.14229,-34.95944,4.383331,0.4544139,0.2944588,1.0,-0.05563354,-0.03390503,0.9978638,30.0939,11.83211,-35.72232,4.173004,0.6123559,0.2193938,0.07258642,1.181264,-0.09155178,-0.06137115,-0.03910216,0.02920722,0.3292426,0.9060050722984361,29.871354993983154
1,-0.05348206,-0.04039001,0.9977417,1.0,-0.05137634,-0.04968262,0.9974365,-30.23888,10.15515,-34.99506,4.239594,0.4543621,0.2939173,1.0,-0.05502319,-0.03361511,0.9979095,30.09535,11.83211,-35.72406,4.157562,0.6121764,0.2193969,0.07252514,1.181205,-0.0914942,-0.0612495,-0.03916555,0.02926354,0.3292426,0.9060050722984361,29.871354993983154
1,-0.05131531,-0.04037476,0.9978638,1.0,-0.05209351,-0.0496521,0.997406,-30.23535,10.16922,-35.05374,4.185242,0.454372,0.2939173,1.0,-0.05072021,-0.03344727,0.9981384,30.09535,11.8322,-35.72083,4.139832,0.6113422,0.2193947,0.07246006,1.181214,-0.09147835,-0.06123722,-0.039241,0.02931518,0.3292426,0.9060050722984361,29.871354993983154
1,-0.05131531,-0.04037476,0.9978638,1.0,-0.05209351,-0.0496521,0.997406,-30.23535,10.16922,-35.05374,4.185242,0.454372,0.2939173,1.0,-0.05072021,-0.03344727,0.9981384,30.09535,11.8322,-35.72083,4.139832,0.6113422,0.2193947,0.07246006,1.181214,-0.09147835,-0.06123722,-0.039241,0.02931518,0.3292426,0.9060050722984361,29.871354993983154
1,-0.04914856,-0.03765869,0.9980774,1.0,-0.05220032,-0.0526123,0.9972382,-30.23535,10.24702,-35.32922,4.148254,0.4543621,0.2938842,1.0,-0.04823303,-0.03317261,0.9982758,30.09535,11.8322,-35.71565,4.101395,0.6108364,0.2193947,0.07238805,1.181208,-0.09143144,-0.06112494,-0.03935059,0.0292317,0.3292426,0.9060050722984361,29.871354993983154
1,-0.04756165,-0.03326416,0.9983063,1.0,-0.04995728,-0.0508728,0.9974518,-30.23535,10.25713,-35.37614,4.141998,0.4539579,0.2935502,1.0,-0.04750061,-0.03283691,0.9983215,30.09535,11.8322,-35.71552,4.067123,0.6106741,0.2193947,0.07235539,1.181191,-0.09145206,-0.0611136,-0.03937047,0.02920084,0.3292426,0.9060050722984361,29.871354993983154
1,-0.04756165,-0.03326416,0.9983063,1.0,-0.04995728,-0.0508728,0.9974518,-30.23535,10.25713,-35.37614,4.141998,0.4539579,0.2935502,1.0,-0.04750061,-0.03283691,0.9983215,30.09535,11.8322,-35.71552,4.067123,0.6106741,0.2193947,0.07235539,1.181191,-0.09145206,-0.0611136,-0.03937047,0.02920084,0.3292426,0.9060050722984361,29.871354993983154
1,-0.04756165,-0.03326416,0.9983063,1.0,-0.04995728,-0.0508728,0.9974518,-30.23535,10.25713,-35.37614,4.141998,0.4539579,0.2935502,1.0,-0.04750061,-0.03283691,0.9983215,30.09535,11.8322,-35.71552,4.067123,0.6106741,0.2193947,0.07227576,1.181181,-0.09143925,-0.06107494,-0.03944401,0.02910859,0.3292426,-195.135,29.871354993983154
1,-0.04756165,-0.03326416,0.9983063,1.0,-0.04995728,-0.0508728,0.9974518,-30.23535,10.25713,-35.37614,4.141998,0.4539579,0.2935502,1.0,-0.04750061,-0.03283691,0.9983215,30.09535,11.8322,-35.71552,4.067123,0.6106741,0.2193947,0.07223749,1.181182,-0.09145796,-0.06114175,-0.0394357,0.0290435,0.3292426,-195.135,29.871354993983154
1,-0.04756165,-0.03326416,0.9983063,1.0,-0.04995728,-0.0508728,0.9974518,-30.23535,10.25713,-35.37614,4.141998,0.4539579,0.2935502,1.0,-0.04750061,-0.03283691,0.9983215,30.09535,11.8322,-35.71552,4.067123,0.6106741,0.2193947,0.07218218,1.181193,-0.09145534,-0.06116064,-0.03946913,0.02899755,0.3292426,-195.135,29.871354993983154
1,-0.04756165,-0.03326416,0.9983063,1.0,-0.04995728,-0.0508728,0.9974518,-30.23535,10.25713,-35.37614,4.141998,0.4539579,0.2935502,1.0,-0.04750061,-0.03283691,0.9983215,30.09535,11.8322,-35.71552,4.067123,0.6106741,0.2193947,0.07213831,1.181189,-0.09147269,-0.06115199,-0.03943343,0.02926074,0.3292426,-195.135,29.871354993983154
1,-0.04756165,-0.03326416,0.9983063,1.0,-0.04995728,-0.0508728,0.9974518,-30.23535,10.25713,-35.37614,4.141998,0.4539579,0.2935502,1.0,-0.04750061,-0.03283691,0.9983215,30.09535,11.8322,-35.71552,4.067123,0.6106741,0.2193947,0.07213831,1.181189,-0.09147269,-0.06115199,-0.03943343,0.02926074,0.3292426,-195.135,29.871354993983154
1,-0.04756165,-0.03326416,0.9983063,1.0,-0.04995728,-0.0508728,0.9974518,-30.23535,10.25713,-35.37614,4.141998,0.4539579,0.2935502,1.0,-0.04750061,-0.03283691,0.9983215,30.09535,11.8322,-35.71552,4.067123,0.6106741,0.2193947,0.07213831,1.181189,-0.09147269,-0.06115199,-0.03943343,0.02926074,0.3292426,-195.135,29.871354993983154
1,-0.04756165,-0.03326416,0.9983063,1.0,-0.04995728,-0.0508728,0.9974518,-30.23535,10.25713,-35.37614,4.141998,0.4539579,0.2935502,1.0,-0.04750061,-0.03283691,0.9983215,30.09535,11.8322,-35.71552,4.067123,0.6106741,0.2193947,0.07201052,1.181143,-0.09152436,-0.06107543,-0.0394323,0.02956875,0.3292426,-195.135,29.871354993983154
1,-0.04756165,-0.03326416,0.9983063,1.0,-0.04995728,-0.0508728,0.9974518,-30.23535,10.25713,-35.37614,4.141998,0.4539579,0.2935502,1.0,-0.04750061,-0.03283691,0.9983215,30.09535,11.8322,-35.71552,4.067123,0.6106741,0.2193947,0.0719614,1.181134,-0.09151989,-0.06095026,-0.03955135,0.02984438,0.3292426,-195.135,29.871354993983154
1,-0.04756165,-0.03326416,0.9983063,1.0,-0.04995728,-0.0508728,0.9974518,-30.23535,10.25713,-35.37614,4.141998,0.4539579,0.2935502,1.0,-0.04750061,-0.03283691,0.9983215,30.09535,11.8322,-35.71552,4.067123,0.6106741,0.2193947,0.0719614,1.181134,-0.09151989,-0.06095026,-0.03955135,0.02984438,0.3292426,-195.135,29.871354993983154
1,-0.04756165,-0.03326416,0.9983063,1.0,-0.04995728,-0.0508728,0.9974518,-30.23535,10.25713,-35.37614,4.141998,0.4539579,0.2935502,1.0,-0.04750061,-0.03283691,0.9983215,30.09535,11.8322,-35.71552,4.067123,0.6106741,0.2193947,0.07184613,1.181083,-0.09145749,-0.06083169,-0.03953835,0.02999404,0.3292426,-195.135,29.871354993983154
1,-0.04756165,-0.03326416,0.9983063,1.0,-0.04995728,-0.0508728,0.9974518,-30.23535,10.25713,-35.37614,4.141998,0.4539579,0.2935502,1.0,-0.04750061,-0.03283691,0.9983215,30.09535,11.8322,-35.71552,4.067123,0.6106741,0.2193947,0.07184613,1.181083,-0.09145749,-0.06083169,-0.03953835,0.02999404,0.3292426,-195.135,29.871354993983154
1,-1.0,-1.0,-1.0,0.6888097,0.0,0.0,0.0,-30.32565,10.74144,-36.77222,-1.0,0.4540934,0.2857638,0.7768289,0.0,0.0,0.0,30.08389,11.94991,-35.52919,-1.0,0.6094493,0.2188494,0.0717653,1.181069,-0.09144914,-0.06076441,-0.03981533,0.03005881,0.3292426,-195.135,29.871354993983154
1,-1.0,-1.0,-1.0,0.6888097,0.0,0.0,0.0,-30.32565,10.74144,-36.77222,-1.0,0.4540934,0.2857638,0.7768289,0.0,0.0,0.0,30.08389,11.94991,-35.52919,-1.0,0.6094493,0.2188494,0.0717653,1.181069,-0.09144914,-0.06076441,-0.03981533,0.03005881,0.3292426,-195.135,29.871354993983154
1,-1.0,-1.0,-1.0,0.4104561,0.0,0.0,0.0,-29.90778,10.84206,-37.60817,-1.0,0.4332062,0.3023068,0.512645,0.0,0.0,0.0,30.82571,13.64919,-43.73885,-1.0,0.5933351,0.2428036,0.07171428,1.181074,-0.09140235,-0.06077962,-0.04015742,0.03017261,0.3292426,-195.135,29.871354993983154
1,-1.0,-1.0,-1.0,0.4104561,0.0,0.0,0.0,-29.90778,10.84206,-37.60817,-1.0,0.4332062,0.3023068,0.512645,0.0,0.0,0.0,30.82571,13.64919,-43.73885,-1.0,0.5933351,0.2428036,0.07171428,1.181074,-0.09140235,-0.06077962,-0.04015742,0.03017261,0.3292426,-195.135,29.871354993983154
1,-1.0,-1.0,-1.0,0.3332036,0.0,0.0,0.0,-28.78511,9.137787,-32.41412,-1.0,0.4046506,0.3238482,0.4622521,0.0,0.0,0.0,30.76701,12.11382,-38.76535,-1.0,0.565741,0.2589279,0.0716908,1.181119,-0.09131718,-0.06103345,-0.04023509,0.03014222,0.3292426,-195.135,29.871354993983154
1,-1.0,-1.0,-1.0,0.3332036,0.0,0.0,0.0,-28.78511,9.137787,-32.41412,-1.0,0.4046506,0.3238482,0.4622521,0.0,0.0,0.0,30.76701,12.11382,-38.76535,-1.0,0.565741,0.2589279,0.0716908,1.181119,-0.09131718,-0.06103345,-0.04023509,0.03014222,0.3292426,-195.135,29.871354993983154
1,0.05111694,-0.2093811,0.9764862,0.3538832,0.02267456,-0.2675476,0.9632721,-29.04726,10.14748,-34.99245,3.655136,0.3987248,0.3359945,0.5333393,0.06971741,-0.170578,0.9828644,30.73967,11.33534,-35.85451,3.856827,0.5624554,0.2737922,0.07168853,1.181132,-0.09135735,-0.06109653,-0.04027303,0.03013407,0.3292426,1.117186,29.871354993983154
1,0.05111694,-0.2093811,0.9764862,0.3538832,0.02267456,-0.2675476,0.9632721,-29.04726,10.14748,-34.99245,3.655136,0.3987248,0.3359945,0.5333393,0.06971741,-0.170578,0.9828644,30.73967,11.33534,-35.85451,3.856827,0.5624554,0.2737922,0.07168853,1.181132,-0.09135735,-0.06109653,-0.04027303,0.03013407,0.3292426,1.117186,29.871354993983154
1,0.07484436,-0.1806793,0.9806824,0.3887522,0.08016968,-0.1698914,0.982193,-29.4024,9.735016,-35.50993,3.522705,0.4010068,0.3370414,0.5772452,0.07015991,-0.1901703,0.9792328,30.76205,11.2755,-35.82109,3.318176,0.5611439,0.2807863,0.07173669,1.181101,-0.09139097,-0.06099486,-0.04018951,0.03017928,0.3292426,1.117186,29.871354993983154
1,0.07484436,-0.1806793,0.9806824,0.3887522,0.08016968,-0.1698914,0.982193,-29.4024,9.735016,-35.50993,3.522705,0.4010068,0.3370414,0.5772452,0.07015991,-0.1901703,0.9792328,30.76205,11.2755,-35.82109,3.318176,0.5611439,0.2807863,0.07173669,1.181101,-0.09139097,-0.06099486,-0.04018951,0.03017928,0.3292426,1.117186,29.871354993983154
1,0.08911133,-0.1632843,0.9825287,0.4091936,0.09242249,-0.1676178,0.9815063,-29.43549,9.762161,-35.46922,3.503662,0.3999996,0.3352588,0.6288406,0.08644104,-0.1598053,0.9833527,30.76231,11.25221,-35.80038,3.695114,0.5583527,0.2747655,0.07170057,1.181036,-0.09138227,-0.06086316,-0.04007905,0.03039159,0.3292426,1.117186,29.871354993983154
1,0.08911133,-0.1632843,0.9825287,0.4091936,0.09242249,-0.1676178,0.9815063,-29.43549,9.762161,-35.46922,3.503662,0.3999996,0.3352588,0.6288406,0.08644104,-0.1598053,0.9833527,30.76231,11.25221,-35.80038,3.695114,0.5583527,0.2747655,0.07170057,1.181036,-0.09138227,-0.06086316,-0.04007905,0.03039159,0.3292426,1.117186,29.871354993983154
1,0.08911133,-0.1632843,0.9825287,0.4091936,0.09242249,-0.1676178,0.9815063,-29.43549,9.762161,-35.46922,3.503662,0.3999996,0.3352588,0.6288406,0.08644104,-0.1598053,0.9833527,30.76231,11.25221,-35.80038,3.695114,0.5583527,0.2747655,0.07166708,1.18105,-0.09126109,-0.06067312,-0.04012624,0.03056417,0.3292426,1.117186,29.871354993983154
1,0.08911133,-0.1632843,0.9825287,0.4091936,0.09242249,-0.1676178,0.9815063,-29.43549,9.762161,-35.46922,3.503662,0.3999996,0.3352588,0.6288406,0.08644104,-0.1598053,0.9833527,30.76231,11.25221,-35.80038,3.695114,0.5583527,0.2747655,0.07166708,1.18105,-0.09126109,-0.06067312,-0.04012624,0.03056417,0.3292426,1.117186,29.871354993983154
1,0.08911133,-0.1632843,0.9825287,0.4091936,0.09242249,-0.1676178,0.9815063,-29.43549,9.762161,-35.46922,3.503662,0.3999996,0.3352588,0.6288406,0.08644104,-0.1598053,0.9833527,30.76231,11.25221,-35.80038,3.695114,0.5583527,0.2747655,0.07156539,1.181024,-0.09121025,-0.06063713,-0.0402073,0.03071615,0.3292426,1.117186,29.871354993983154
1,0.08911133,-0.1632843,0.9825287,0.4091936,0.09242249,-0.1676178,0.9815063,-29.43549,9.762161,-35.46922,3.503662,0.3999996,0.3352588,0.6288406,0.08644104,-0.1598053,0.9833527,30.76231,11.25221,-35.80038,3.695114,0.5583527,0.2747655,0.07156539,1.181024,-0.09121025,-0.06063713,-0.0402073,0.03071615,0.3292426,1.117186,29.871354993983154
1,0.07575989,-0.1553192,0.9849396,0.4705428,0.0692749,-0.2023621,0.9768524,-29.42679,9.717987,-35.4743,3.115311,0.403952,0.3440246,0.7136802,0.07577515,-0.1552277,0.9849548,30.83852,11.21196,-35.84773,3.089523,0.5572013,0.2765411,0.07159305,1.180964,-0.09109616,-0.06034818,-0.04035416,0.030753,0.3292426,1.117186,29.871354993983154
1,0.07575989,-0.1553192,0.9849396,0.4705428,0.0692749,-0.2023621,0.9768524,-29.42679,9.717987,-35.4743,3.115311,0.403952,0.3440246,0.7136802,0.07577515,-0.1552277,0.9849548,30.83852,11.21196,-35.84773,3.089523,0.5572013,0.2765411,0.07159305,1.180964,-0.09109616,-0.06034818,-0.04035416,0.030753,0.3292426,1.117186,29.871354993983154
1,0.09606934,-0.2013855,0.9747772,0.4781769,0.09663391,-0.2004242,0.9749146,-29.29652,9.582855,-35.50217,3.07666,0.394346,0.3487476,0.7324842,0.09344482,-0.2056885,0.9741364,30.89111,11.11559,-35.85648,3.168167,0.5518516,0.2910643,0.07156527,1.180827,-0.09107125,-0.06000212,-0.04034881,0.03061922,0.3292426,1.117186,29.871354993983154
1,0.09606934,-0.2013855,0.9747772,0.4781769,0.09663391,-0.2004242,0.9749146,-29.29652,9.582855,-35.50217,3.07666,0.394346,0.3487476,0.7324842,0.09344482,-0.2056885,0.9741364,30.89111,11.11559,-35.85648,3.168167,0.5518516,0.2910643,0.07156527,1.180827,-0.09107125,-0.06000212,-0.04034881,0.03061922,0.3292426,1.117186,29.871354993983154
1,0.2290497,-0.2713623,0.9348145,0.4641276,0.2257233,-0.2756348,0.9343719,-28.45654,9.06424,-35.77556,2.868912,0.3403244,0.3844632,0.7079724,0.2400208,-0.2571564,0.9360809,31.4371,10.56183,-36.11932,3.04863,0.5044525,0.3267065,0.07151997,1.180696,-0.09101593,-0.0594857,-0.04043053,0.03084058,0.3292426,1.117186,29.871354993983154
1,0.2290497,-0.2713623,0.9348145,0.4641276,0.2257233,-0.2756348,0.9343719,-28.45654,9.06424,-35.77556,2.868912,0.3403244,0.3844632,0.7079724,0.2400208,-0.2571564,0.9360809,31.4371,10.56183,-36.11932,3.04863,0.5044525,0.3267065,0.07151997,1.180696,-0.09101593,-0.0594857,-0.04043053,0.03084058,0.3292426,1.117186,29.871354993983154
1,0.2266541,-0.2796173,0.9329529,0.5185066,0.2296753,-0.2719421,0.934494,-28.49243,9.058014,-35.76996,3.04686,0.3409399,0.3838587,0.743626,0.2241821,-0.2859039,0.9316559,31.51761,10.51811,-36.13702,3.027847,0.5044488,0.3342458,0.07154202,1.180582,-0.09096491,-0.05898156,-0.04036081,0.03090911,0.3292426,71.70006,29.871354993983154
1,0.2266541,-0.2796173,0.9329529,0.5185066,0.2296753,-0.2719421,0.934494,-28.49243,9.058014,-35.76996,3.04686,0.3409399,0.3838587,0.743626,0.2241821,-0.2859039,0.9316559,31.51761,10.51811,-36.13702,3.027847,0.5044488,0.3342458,0.07154202,1.180582,-0.09096491,-0.05898156,-0.04036081,0.03090911,0.3292426,71.70006,29.871354993983154
1,0.2245178,-0.2683411,0.9367828,0.561891,0.2266388,-0.2559967,0.9397278,-28.50294,9.055298,-35.76009,3.090591,0.3418752,0.3806747,0.7678615,0.2217407,-0.2843018,0.932724,31.55527,10.51846,-36.14375,2.825073,0.5033826,0.3341109,0.07145572,1.180528,-0.09093803,-0.05852187,-0.04052165,0.03086014,0.3292426,71.70006,29.871354993983154
1,0.2245178,-0.2683411,0.9367828,0.561891,0.2266388,-0.2559967,0.9397278,-28.50294,9.055298,-35.76009,3.090591,0.3418752,0.3806747,0.7678615,0.2217407,-0.2843018,0.932724,31.55527,10.51846,-36.14375,2.825073,0.5033826,0.3341109,0.07145572,1.180528,-0.09093803,-0.05852187,-0.04052165,0.03086014,0.3292426,71.70006,29.871354993983154
1,0.2246246,-0.2706604,0.9360962,0.557114,0.2273865,-0.2630615,0.9375916,-28.50711,9.057678,-35.76009,2.953705,0.3418752,0.3820889,0.7802503,0.2214661,-0.2792358,0.9343262,31.57289,10.5247,-36.14531,2.917816,0.5028446,0.3327586,0.0713551,1.180515,-0.09092927,-0.05806609,-0.04064465,0.03108386,0.3292426,71.70006,29.871354993983154
1,0.2246246,-0.2706604,0.9360962,0.557114,0.2273865,-0.2630615,0.9375916,-28.50711,9.057678,-35.76009,2.953705,0.3418752,0.3820889,0.7802503,0.2214661,-0.2792358,0.9343262,31.57289,10.5247,-36.14531,2.917816,0.5028446,0.3327586,0.0713551,1.180515,-0.09092927,-0.05806609,-0.04064465,0.03108386,0.3292426,71.70006,29.871354993983154
1,0.2253876,-0.2659607,0.9372559,0.557114,0.2274323,-0.2561798,0.9394836,-28.51115,9.058014,-35.75999,3.044174,0.3420173,0.3806621,0.7802503,0.2235718,-0.2745514,0.9352112,31.58302,10.52231,-36.14832,2.856003,0.5020348,0.3319848,0.07118917,1.180434,-0.09092164,-0.05772545,-0.04090977,0.03139605,0.3292426,71.70006,29.871354993983154
1,0.2253876,-0.2659607,0.9372559,0.557114,0.2274323,-0.2561798,0.9394836,-28.51115,9.058014,-35.75999,3.044174,0.3420173,0.3806621,0.7802503,0.2235718,-0.2745514,0.9352112,31.58302,10.52231,-36.14832,2.856003,0.5020348,0.3319848,0.07118917,1.180434,-0.09092164,-0.05772545,-0.04090977,0.03139605,0.3292426,71.70006,29.871354993983154
1,0.2253876,-0.2659607,0.9372559,0.557114,0.2274323,-0.2561798,0.9394836,-28.51115,9.058014,-35.75999,3.044174,0.3420173,0.3806621,0.7802503,0.2235718,-0.2745514,0.9352112,31.58302,10.52231,-36.14832,2.856003,0.5020348,0.3319848,0.07113481,1.180358,-0.09086525,-0.05735135,-0.04116702,0.03175213,0.3292426,71.70006,29.871354993983154
1,0.2253876,-0.2659607,0.9372559,0.557114,0.2274323,-0.2561798,0.9394836,-28.51115,9.058014,-35.75999,3.044174,0.3420173,0.3806621,0.7802503,0.2235718,-0.2745514,0.9352112,31.58302,10.52231,-36.14832,2.856003,0.5020348,0.3319848,0.07113481,1.180358,-0.09086525,-0.05735135,-0.04116702,0.03175213,0.3292426,71.70006,29.871354993983154
2,0.2253876,-0.2659607,0.9372559,0.557114,0.2274323,-0.2561798,0.9394836,-28.51115,9.058014,-35.75999,3.044174,0.3420173,0.3806621,0.7802503,0.2235718,-0.2745514,0.9352112,31.58302,10.52231,-36.14832,2.856003,0.5020348,0.3319848,0.07106841,1.180323,-0.09085476,-0.05709395,-0.04141118,0.0319218,0.3292426,71.70006,29.871354993983154
2,0.2253876,-0.2659607,0.9372559,0.557114,0.2274323,-0.2561798,0.9394836,-28.51115,9.058014,-35.75999,3.044174,0.3420173,0.3806621,0.7802503,0.2235718,-0.2745514,0.9352112,31.58302,10.52231,-36.14832,2.856003,0.5020348,0.3319848,0.07106841,1.180323,-0.09085476,-0.05709395,-0.04141118,0.0319218,0.3292426,71.70006,29.871354993983154
2,0.2236938,-0.2634277,0.9383698,0.5882067,0.2246552,-0.256546,0.9400482,-28.51797,9.061325,-35.75613,2.895477,0.3427604,0.3806621,0.7969579,0.2228394,-0.269455,0.9368591,31.63753,10.52393,-36.15697,2.724121,0.5000795,0.3310355,0.07099521,1.180242,-0.09079498,-0.05656046,-0.04180031,0.03202131,0.3292426,71.70006,29.871354993983154
2,0.2236938,-0.2634277,0.9383698,0.5882067,0.2246552,-0.256546,0.9400482,-28.51797,9.061325,-35.75613,2.895477,0.3427604,0.3806621,0.7969579,0.2228394,-0.269455,0.9368591,31.63753,10.52393,-36.15697,2.724121,0.5000795,0.3310355,0.07099521,1.180242,-0.09079498,-0.05656046,-0.04180031,0.03202131,0.3292426,71.70006,29.871354993983154
2,0.2246094,-0.2630463,0.9382629,0.5938491,0.2245636,-0.2528839,0.9410553,-28.52173,9.062744,-35.75397,2.903992,0.3429086,0.3798611,0.7978806,0.2246246,-0.2706604,0.9360962,31.64587,10.52066,-36.15929,2.714188,0.4994351,0.3314438,0.07075226,1.180117,-0.09077239,-0.05584807,-0.04197923,0.03233297,0.3292426,33.29048,29.871354993983154
2,0.2246094,-0.2630463,0.9382629,0.5938491,0.2245636,-0.2528839,0.9410553,-28.52173,9.062744,-35.75397,2.903992,0.3429086,0.3798611,0.7978806,0.2246246,-0.2706604,0.9360962,31.64587,10.52066,-36.15929,2.714188,0.4994351,0.3314438,0.07075226,1.180117,-0.09077239,-0.05584807,-0.04197923,0.03233297,0.3292426,33.29048,29.871354993983154
2,0.2269287,-0.2646332,0.9372559,0.6043738,0.2285156,-0.2631836,0.9372864,-28.53749,9.062332,-35.74933,2.820999,0.3427604,0.3819779,0.8063568,0.225769,-0.2657013,0.9372406,31.65204,10.51364,-36.16412,2.68837,0.498973,0.3307716,0.07064009,1.179995,-0.09081066,-0.05533705,-0.04231423,0.0326989,0.3292426,33.29048,29.871354993983154
2,0.2269287,-0.2646332,0.9372559,0.6043738,0.2285156,-0.2631836,0.9372864,-28.53749,9.062332,-35.74933,2.820999,0.3427604,0.3819779,0.8063568,0.225769,-0.2657013,0.9372406,31.65204,10.51364,-36.16412,2.68837,0.498973,0.3307716,0.07064009,1.179995,-0.09081066,-0.05533705,-0.04231423,0.0326989,0.3292426,33.29048,29.871354993983154
2,0.2249908,-0.2628632,0.9382172,0.6128786,0.2280273,-0.263092,0.9374237,-28.5434,9.062332,-35.74892,2.776535,0.3430569,0.3819779,0.7988258,0.2227173,-0.2626953,0.9388123,31.65427,10.51089,-36.16565,2.665787,0.4994414,0.3302557,0.07058072,1.179966,-0.09084117,-0.05515052,-0.04243537,0.03278787,0.3292426,33.29048,29.871354993983154
2,0.2376404,-0.2709503,0.932785,0.5997459,0.2476501,-0.2787476,0.9278717,-28.51871,9.04686,-35.76968,2.612518,0.3384672,0.3860281,0.8033028,0.2289429,-0.2641754,0.9368896,31.70367,10.49295,-36.18846,2.624985,0.4964451,0.3315149,0.07049859,1.179921,-0.09085315,-0.05482031,-0.04244994,0.03285529,0.3292426,33.29048,29.871354993983154
2,0.2376404,-0.2709503,0.932785,0.5997459,0.2476501,-0.2787476,0.9278717,-28.51871,9.04686,-35.76968,2.612518,0.3384672,0.3860281,0.8033028,0.2289429,-0.2641754,0.9368896,31.70367,10.49295,-36.18846,2.624985,0.4964451,0.3315149,0.07049859,1.179921,-0.09085315,-0.05482031,-0.04244994,0.03285529,0.3292426,33.29048,29.871354993983154
2,0.2771149,-0.2554016,0.9262543,0.6238375,0.2774658,-0.2611542,0.9245453,-28.25999,9.02153,-35.82399,2.750351,0.3233152,0.3836966,0.8074296,0.2767639,-0.2496643,0.9279327,31.89084,10.51057,-36.24318,2.562393,0.4805739,0.3288417,0.0704037,1.179803,-0.09090346,-0.05395038,-0.04262195,0.03303666,0.3138694,33.29048,29.871354993983154
2,0.2844543,-0.2761688,0.918045,0.6047498,0.2845154,-0.2764435,0.9179382,-28.19771,9.044083,-35.83441,2.419846,0.3195845,0.3861947,0.7989219,0.2843781,-0.2758484,0.9181519,31.96654,10.48534,-36.28197,2.61676,0.4764546,0.3355592,0.07039177,1.1797,-0.09099507,-0.05352265,-0.04282755,0.03327597,0.3138694,33.29048,29.871354993983154
2,0.2844543,-0.2761688,0.918045,0.6047498,0.2845154,-0.2764435,0.9179382,-28.19771,9.044083,-35.83441,2.419846,0.3195845,0.3861947,0.7989219,0.2843781,-0.2758484,0.9181519,31.96654,10.48534,-36.28197,2.61676,0.4764546,0.3355592,0.07039177,1.1797,-0.09099507,-0.05352265,-0.04282755,0.03327597,0.3138694,33.29048,29.871354993983154
2,0.2880096,-0.2742004,0.9175262,0.6225881,0.2855072,-0.2677765,0.9201965,-28.20689,9.039948,-35.82695,2.546463,0.3197708,0.3844734,0.7980739,0.2911835,-0.2823639,0.914032,31.97459,10.48997,-36.29268,2.510345,0.4748065,0.3369791,0.07026994,1.179515,-0.09093881,-0.05263496,-0.0431582,0.03352403,0.3138694,33.29048,29.871354993983154
2,0.2872467,-0.2714386,0.9185791,0.6325925,0.2807312,-0.2667847,0.9219513,-28.20625,9.040024,-35.82481,2.551025,0.3206539,0.3842233,0.8158949,0.2954712,-0.277298,0.9142151,31.97734,10.49037,-36.29349,2.491608,0.4738756,0.3359975,0.07021022,1.179442,-0.09093547,-0.05199881,-0.04328008,0.03369097,0.3138694,33.29048,29.871354993983154
2,0.2865601,-0.2701569,0.9191742,0.6429261,0.2794495,-0.2648468,0.9228973,-28.20851,9.041794,-35.823,2.550873,0.3209788,0.3837427,0.8152341,0.2949982,-0.2764435,0.9146271,31.97957,10.48961,-36.29349,2.484634,0.4738756,0.3358418,0.07020342,1.179337,-0.09088933,-0.05138957,-0.04331226,0.03381921,0.3138694,33.29048,29.871354993983154
2,0.2869415,-0.2711945,0.9187469,0.6469985,0.2802582,-0.2669373,0.9220428,-28.21255,9.040024,-35.81993,2.541824,0.3209788,0.3842233,0.8237512,0.2949219,-0.2762604,0.9147034,31.97957,10.48972,-36.29601,2.468323,0.4738756,0.3358418,0.07017303,1.179187,-0.09088552,-0.05050997,-0.04328456,0.03394521,0.3138694,33.29048,29.871354993983154
2,0.2869415,-0.2711945,0.9187469,0.6469985,0.2802582,-0.2669373,0.9220428,-28.21255,9.040024,-35.81993,2.541824,0.3209788,0.3842233,0.8237512,0.2949219,-0.2762604,0.9147034,31.97957,10.48972,-36.29601,2.468323,0.4738756,0.3358418,0.07017303,1.179187,-0.09088552,-0.05050997,-0.04328456,0.03394521,0.3138694,33.29048,29.871354993983154
2,0.2876129,-0.2677307,0.9195557,0.6519545,0.2810669,-0.264801,0.9224243,-28.21672,9.040146,-35.81841,2.551071,0.3209788,0.3837776,0.8346053,0.2948456,-0.2709656,0.9163055,31.97966,10.49016,-36.29811,2.467072,0.4738756,0.3347456,0.0701853,1.178896,-0.09082323,-0.04840823,-0.04317701,0.03444027,0.3138694,33.29048,29.871354993983154
2,0.2852783,-0.2693634,0.9197998,0.6519545,0.2814941,-0.2658539,0.9219818,-28.21819,9.04097,-35.81801,2.546478,0.320953,0.3839594,0.8346053,0.2895203,-0.2733154,0.9173126,31.97966,10.49026,-36.29791,2.462357,0.4748788,0.3351613,0.07016182,1.178683,-0.09079897,-0.047097,-0.04319357,0.03476283,0.3138694,33.29048,29.871354993983154
2,0.2866974,-0.2694092,0.919342,0.6640772,0.2829285,-0.2664337,0.9213867,-28.22113,9.041916,-35.8175,2.539108,0.3207906,0.3840587,0.8479474,0.2915192,-0.2732239,0.9167023,31.97989,10.49052,-36.29865,2.462616,0.4744948,0.3351613,0.07014585,1.178135,-0.09063518,-0.0438625,-0.04340763,0.03559015,0.3138694,-28.16901,29.871354993983154
2,0.2866974,-0.2694092,0.919342,0.6640772,0.2829285,-0.2664337,0.9213867,-28.22113,9.041916,-35.8175,2.539108,0.3207906,0.3840587,0.8479474,0.2915192,-0.2732239,0.9167023,31.97989,10.49052,-36.29865,2.462616,0.4744948,0.3351613,0.07014585,1.178135,-0.09063518,-0.0438625,-0.04340763,0.03559015,0.3138694,-28.16901,29.871354993983154
2,0.2850952,-0.2675018,0.9203949,0.6684358,0.2831421,-0.2657013,0.921524,-28.22229,9.042404,-35.81607,2.538544,0.3207906,0.3838769,0.8546799,0.2875824,-0.2698212,0.9189453,31.98032,10.49052,-36.29999,2.460892,0.4752114,0.3344215,0.07001626,1.177793,-0.09062922,-0.0418582,-0.04359432,0.03617197,0.3138694,-28.16901,29.871354993983154
2,0.2850952,-0.2675018,0.9203949,0.6684358,0.2831421,-0.2657013,0.921524,-28.22229,9.042404,-35.81607,2.538544,0.3207906,0.3838769,0.8546799,0.2875824,-0.2698212,0.9189453,31.98032,10.49052,-36.29999,2.460892,0.4752114,0.3344215,0.07001626,1.177793,-0.09062922,-0.0418582,-0.04359432,0.03617197,0.3138694,-28.16901,29.871354993983154
2,0.2850494,-0.2652893,0.921051,0.686133,0.2842407,-0.2659607,0.9211121,-28.22197,9.046204,-35.81148,2.518707,0.3205691,0.3837698,0.8644212,0.2860565,-0.2644501,0.92099,31.98479,10.49037,-36.30092,2.438797,0.4753086,0.3333218,0.06984818,1.176963,-0.09057879,-0.03722764,-0.04414998,0.03739578,0.3138694,-28.16901,29.871354993983154
2,0.285141,-0.2650299,0.9211121,0.686133,0.2854462,-0.2663116,0.920639,-28.22197,9.048904,-35.80966,2.511398,0.3203377,0.3837427,0.8644212,0.2847595,-0.2634277,0.9216766,31.98724,10.49107,-36.30101,2.438171,0.4754582,0.3330665,0.0697242,1.176617,-0.09043515,-0.03487389,-0.04488521,0.0381182,0.3138694,-28.16901,29.871354993983154
2,0.3051605,-0.2662964,0.9143066,0.6935164,0.3139648,-0.2715759,0.9097443,-28.03958,8.952271,-35.8997,2.40361,0.3080496,0.3891821,0.8697267,0.2949219,-0.2601471,0.9194183,32.0627,10.44211,-36.34018,2.402542,0.4707373,0.3347009,0.06950152,1.176161,-0.09036314,-0.03241834,-0.04602876,0.03856031,0.3138694,-28.16901,29.871354993983154
2,0.3051605,-0.2662964,0.9143066,0.6935164,0.3139648,-0.2715759,0.9097443,-28.03958,8.952271,-35.8997,2.40361,0.3080496,0.3891821,0.8697267,0.2949219,-0.2601471,0.9194183,32.0627,10.44211,-36.34018,2.402542,0.4707373,0.3347009,0.06950152,1.176161,-0.09036314,-0.03241834,-0.04602876,0.03856031,0.3138694,-28.16901,29.871354993983154
2,0.320343,-0.2832184,0.9039612,0.6504248,0.3260345,-0.2717896,0.905426,-27.99043,8.904877,-35.93719,2.569931,0.3039467,0.3912457,0.8015772,0.3165436,-0.2907715,0.9029083,32.06757,10.4153,-36.38434,2.338486,0.4664752,0.3427688,0.06884754,1.175268,-0.09014809,-0.02693055,-0.04936065,0.03892397,0.3138694,-28.16901,29.871354993983154
2,0.3070831,-0.284668,0.9080963,0.6461564,0.3208923,-0.280777,0.9045258,-27.97705,8.920639,-35.93217,2.463074,0.3044172,0.3924393,0.8048536,0.2989349,-0.2869263,0.9101105,32.09048,10.41586,-36.36819,2.388901,0.4689942,0.3415203,0.06849372,1.174733,-0.09007412,-0.02388901,-0.05168954,0.0388479,0.3138694,-28.16901,29.871354993983154
2,0.3132477,-0.2574005,0.9141083,0.6493847,0.3181763,-0.2716522,0.9082642,-27.9776,8.931488,-35.92323,2.456894,0.3049404,0.3900792,0.8177135,0.3096466,-0.2471008,0.9181671,32.11644,10.44359,-36.37083,2.379623,0.4659324,0.3323935,0.06801713,1.174159,-0.0900104,-0.02073543,-0.05413292,0.03874613,0.3138694,-28.16901,29.871354993983154
2,0.3132477,-0.2574005,0.9141083,0.6493847,0.3181763,-0.2716522,0.9082642,-27.9776,8.931488,-35.92323,2.456894,0.3049404,0.3900792,0.8177135,0.3096466,-0.2471008,0.9181671,32.11644,10.44359,-36.37083,2.379623,0.4659324,0.3323935,0.06801713,1.174159,-0.0900104,-0.02073543,-0.05413292,0.03874613,0.3138694,-28.16901,29.871354993983154
2,0.3473511,-0.2451172,0.9051208,0.664447,0.3168488,-0.2697601,0.9092865,-27.97743,8.9319,-35.92174,2.452347,0.3051843,0.3896663,0.8372114,0.3729858,-0.2237549,0.9004364,32.12874,10.46881,-36.43192,2.215042,0.4531858,0.3281412,0.06686437,1.173001,-0.0898934,-0.01446726,-0.06113469,0.03830519,0.3138694,-28.16901,29.871354993983154
2,0.3104248,-0.258606,0.9147339,0.67952,0.3162842,-0.2657318,0.910675,-27.97777,8.939896,-35.9201,2.459457,0.3052954,0.388532,0.8360274,0.3032837,-0.249939,0.9195251,32.15227,10.495,-36.35707,2.282883,0.4657475,0.3308792,0.06606197,1.172393,-0.08981252,-0.01139316,-0.066232,0.03751493,0.3138694,-28.16901,29.871354993983154
2,0.2996521,-0.2605743,0.9177551,0.6617751,0.3147125,-0.2562256,0.9139404,-27.98633,8.952682,-35.91502,2.457764,0.3058869,0.3860889,0.8563128,0.2821808,-0.2655182,0.921875,32.17484,10.53752,-36.33363,2.352203,0.4689928,0.3319671,0.06415761,1.171237,-0.08970106,-0.005056717,-0.07787512,0.03539197,0.3138694,-28.16901,29.871354993983154
2,0.2996521,-0.2605743,0.9177551,0.6617751,0.3147125,-0.2562256,0.9139404,-27.98633,8.952682,-35.91502,2.457764,0.3058869,0.3860889,0.8563128,0.2821808,-0.2655182,0.921875,32.17484,10.53752,-36.33363,2.352203,0.4689928,0.3319671,0.06415761,1.171237,-0.08970106,-0.005056717,-0.07787512,0.03539197,0.3138694,-28.16901,29.871354993983154
2,0.2879333,-0.264389,0.9204254,0.6719217,0.3161774,-0.2705231,0.9093018,-27.99835,9.042389,-35.88843,2.458939,0.306074,0.3854768,0.8950043,0.2608032,-0.258316,0.9301758,32.14294,10.55888,-36.30441,2.301743,0.474143,0.3292274,0.06313729,1.170662,-0.08970392,-0.001798208,-0.08409422,0.03441539,0.3138694,-14.54239,29.871354993983154
2,0.2634277,-0.2539673,0.9306335,0.6812392,0.2748718,-0.2561188,0.9267273,-28.07262,9.112442,-35.80688,2.396866,0.3167347,0.3791045,0.9023863,0.2501678,-0.2514496,0.934967,32.07516,10.57841,-36.27768,2.285751,0.478609,0.3267641,0.06211019,1.170048,-0.08968413,0.001490058,-0.09065009,0.03345551,0.3138694,-14.54239,29.871354993983154
2,0.2567139,-0.2444305,0.9350586,0.6812392,0.2710419,-0.2489929,0.9297943,-28.11311,9.134308,-35.78664,2.430038,0.3189595,0.3767011,0.9023863,0.2392883,-0.2388306,0.9411011,32.01921,10.58867,-36.25679,2.347565,0.4827302,0.3234589,0.06112134,1.169491,-0.0896349,0.004711977,-0.09726316,0.0324404,0.3138694,-14.54239,29.871354993983154
2,0.2567139,-0.2444305,0.9350586,0.6812392,0.2710419,-0.2489929,0.9297943,-28.11311,9.134308,-35.78664,2.430038,0.3189595,0.3767011,0.9023863,0.2392883,-0.2388306,0.9411011,32.01921,10.58867,-36.25679,2.347565,0.4827302,0.3234589,0.06112134,1.169491,-0.0896349,0.004711977,-0.09726316,0.0324404,0.3138694,-14.54239,29.871354993983154
2,0.2434692,-0.2440491,0.9386902,0.6893427,0.2650452,-0.2410431,0.933609,-28.19334,9.187531,-35.75476,2.39595,0.3230337,0.3729621,0.9143047,0.2306519,-0.2457581,0.9414825,31.92827,10.62958,-36.23404,2.345215,0.4876986,0.3230962,0.05889189,1.168499,-0.0894891,0.01036304,-0.110676,0.03054174,0.3138694,-14.54239,29.871354993983154
2,0.228714,-0.2393646,0.9436035,0.7182324,0.2383881,-0.2506104,0.9382629,-28.26663,9.226318,-35.71054,2.220505,0.3307761,0.3731342,0.8998336,0.2236328,-0.2334442,0.9462891,31.84984,10.68306,-36.20438,2.420761,0.4919269,0.3181619,0.05889189,1.168499,-0.0894891,0.01036304,-0.110676,0.03054174,0.3138694,-14.54239,29.871354993983154
2,0.2443237,-0.2131042,0.9459839,0.7186823,0.2621613,-0.2152557,0.9407043,-28.31877,9.258682,-35.71791,2.623352,0.3281802,0.3648877,0.9156736,0.2339325,-0.2118073,0.9488831,31.81932,10.70236,-36.20334,2.435974,0.4910978,0.3130451,0.05651617,1.16766,-0.08944428,0.01467435,-0.1255662,0.02871663,0.3138694,-14.54239,29.871354993983154
2,0.2194214,-0.2287903,0.94841,0.7022181,0.2303314,-0.2364807,0.943924,-28.42805,9.29361,-35.67955,2.426376,0.3382249,0.3676353,0.9209502,0.2108002,-0.2227173,0.9518127,31.74088,10.72891,-36.17799,2.531174,0.4983864,0.3138005,0.0538677,1.166943,-0.08955729,0.01872576,-0.1421897,0.02695516,0.3138694,-14.54239,29.871354993983154
2,0.2194214,-0.2287903,0.94841,0.7022181,0.2303314,-0.2364807,0.943924,-28.42805,9.29361,-35.67955,2.426376,0.3382249,0.3676353,0.9209502,0.2108002,-0.2227173,0.9518127,31.74088,10.72891,-36.17799,2.531174,0.4983864,0.3138005,0.0538677,1.166943,-0.08955729,0.01872576,-0.1421897,0.02695516,0.3138694,-14.54239,29.871354993983154
2,0.2056122,-0.2262878,0.9521027,0.7208554,0.2203522,-0.2264099,0.9487762,-28.49252,9.305008,-35.66516,2.43222,0.3424373,0.3651198,0.9427444,0.1918945,-0.2261353,0.9550018,31.64769,10.75003,-36.15318,2.500046,0.5053248,0.3133686,0.05111563,1.166318,-0.08979201,0.023167,-0.1591043,0.02480221,0.3138694,-14.54239,29.871354993983154
2,0.2056122,-0.2262878,0.9521027,0.7208554,0.2203522,-0.2264099,0.9487762,-28.49252,9.305008,-35.66516,2.43222,0.3424373,0.3651198,0.9427444,0.1918945,-0.2261353,0.9550018,31.64769,10.75003,-36.15318,2.500046,0.5053248,0.3133686,0.05111563,1.166318,-0.08979201,0.023167,-0.1591043,0.02480221,0.3138694,-14.54239,29.871354993983154
2,0.1843719,-0.2193146,0.9580688,0.7197495,0.1975403,-0.2267303,0.9537048,-28.59898,9.298065,-35.64008,2.349091,0.3505903,0.3653274,0.9210426,0.171814,-0.2122192,0.9619904,31.53624,10.75092,-36.14827,2.426422,0.5131121,0.3103344,0.04818106,1.165496,-0.09026825,0.02802065,-0.1766104,0.02217618,0.3138694,-14.54239,29.871354993983154
2,0.1843719,-0.2193146,0.9580688,0.7197495,0.1975403,-0.2267303,0.9537048,-28.59898,9.298065,-35.64008,2.349091,0.3505903,0.3653274,0.9210426,0.171814,-0.2122192,0.9619904,31.53624,10.75092,-36.14827,2.426422,0.5131121,0.3103344,0.04818106,1.165496,-0.09026825,0.02802065,-0.1766104,0.02217618,0.3138694,-14.54239,29.871354993983154
2,0.1497803,-0.2065277,0.9669037,0.714635,0.1514282,-0.2059937,0.9667511,-28.73141,9.307495,-35.59937,2.501846,0.3639567,0.3605184,0.9162508,0.1483154,-0.2069855,0.9670258,31.38664,10.75931,-36.12633,2.542603,0.5230445,0.3085189,0.04528916,1.16465,-0.09111017,0.03281967,-0.1957096,0.01986973,0.3138694,-14.54239,29.871354993983154
2,0.1497803,-0.2065277,0.9669037,0.714635,0.1514282,-0.2059937,0.9667511,-28.73141,9.307495,-35.59937,2.501846,0.3639567,0.3605184,0.9162508,0.1483154,-0.2069855,0.9670258,31.38664,10.75931,-36.12633,2.542603,0.5230445,0.3085189,0.04528916,1.16465,-0.09111017,0.03281967,-0.1957096,0.01986973,0.3138694,-14.54239,29.871354993983154
2,0.1301422,-0.2087402,0.9692688,0.7071909,0.1247406,-0.2064056,0.9704742,-28.88211,9.318481,-35.57791,2.364944,0.3743206,0.3602242,0.9187093,0.1348114,-0.2107544,0.9681854,31.16136,10.78308,-36.08496,2.487045,0.5338031,0.3079788,0.04207671,1.163824,-0.09210593,0.03749089,-0.2156986,0.01753484,0.3138694,-31.25232,29.871354993983154
2,0.1301422,-0.2087402,0.9692688,0.7071909,0.1247406,-0.2064056,0.9704742,-28.88211,9.318481,-35.57791,2.364944,0.3743206,0.3602242,0.9187093,0.1348114,-0.2107544,0.9681854,31.16136,10.78308,-36.08496,2.487045,0.5338031,0.3079788,0.04207671,1.163824,-0.09210593,0.03749089,-0.2156986,0.01753484,0.3138694,-31.25232,29.871354993983154
2,0.1129761,-0.2052002,0.972168,0.7086269,0.1097717,-0.1931,0.9750061,-29.05606,9.33461,-35.58392,2.366135,0.3833106,0.3572453,0.920588,0.1159668,-0.216507,0.9693604,31.01326,10.80254,-36.07135,2.462112,0.5427464,0.3081845,0.03887808,1.163048,-0.09331775,0.04188488,-0.2357123,0.01556576,0.3138694,-31.25232,29.871354993983154
2,0.1129761,-0.2052002,0.972168,0.7086269,0.1097717,-0.1931,0.9750061,-29.05606,9.33461,-35.58392,2.366135,0.3833106,0.3572453,0.920588,0.1159668,-0.216507,0.9693604,31.01326,10.80254,-36.07135,2.462112,0.5427464,0.3081845,0.03887808,1.163048,-0.09331775,0.04188488,-0.2357123,0.01556576,0.3138694,-31.25232,29.871354993983154
2,0.06248474,-0.1985931,0.9780731,0.7118388,0.05819702,-0.1984711,0.978363,-29.23117,9.372528,-35.55408,2.416412,0.3990315,0.3568592,0.907159,0.06770325,-0.1987457,0.9777069,30.79585,10.84518,-36.05289,2.388245,0.5597542,0.3024402,0.03557158,1.162374,-0.0945524,0.04585638,-0.256331,0.01469364,0.3138694,-31.25232,29.871354993983154
2,0.06248474,-0.1985931,0.9780731,0.7118388,0.05819702,-0.1984711,0.978363,-29.23117,9.372528,-35.55408,2.416412,0.3990315,0.3568592,0.907159,0.06770325,-0.1987457,0.9777069,30.79585,10.84518,-36.05289,2.388245,0.5597542,0.3024402,0.03557158,1.162374,-0.0945524,0.04585638,-0.256331,0.01469364,0.3138694,-31.25232,29.871354993983154
2,0.03182983,-0.1957092,0.9801331,0.7597729,0.03178406,-0.1964874,0.9799805,-29.42632,9.405518,-35.54486,2.521622,0.4108053,0.355361,0.9255374,0.03187561,-0.1947784,0.9803162,30.59857,10.83545,-36.04774,2.390732,0.5737395,0.3017162,0.03233516,1.161762,-0.09600127,0.05029534,-0.2770396,0.0135085,0.3138694,-31.25232,29.871354993983154
2,0.03182983,-0.1957092,0.9801331,0.7597729,0.03178406,-0.1964874,0.9799805,-29.42632,9.405518,-35.54486,2.521622,0.4108053,0.355361,0.9255374,0.03187561,-0.1947784,0.9803162,30.59857,10.83545,-36.04774,2.390732,0.5737395,0.3017162,0.03233516,1.161762,-0.09600127,0.05029534,-0.2770396,0.0135085,0.3138694,-31.25232,29.871354993983154
2,-0.002685547,-0.1894684,0.9818726,0.7821606,0.002487183,-0.1952057,0.9807434,-29.59755,9.393768,-35.57491,2.358292,0.4222396,0.3560868,0.8994242,-0.009460449,-0.1819611,0.9832458,30.46509,10.85947,-36.08881,2.472214,0.586558,0.2982001,0.02909911,1.161062,-0.0977354,0.05452623,-0.297181,0.01191296,0.3138694,-31.25232,29.871354993983154
2,-0.002685547,-0.1894684,0.9818726,0.7821606,0.002487183,-0.1952057,0.9807434,-29.59755,9.393768,-35.57491,2.358292,0.4222396,0.3560868,0.8994242,-0.009460449,-0.1819611,0.9832458,30.46509,10.85947,-36.08881,2.472214,0.586558,0.2982001,0.02909911,1.161062,-0.0977354,0.05452623,-0.297181,0.01191296,0.3138694,-31.25232,29.871354993983154
2,0.03993225,-0.1753998,0.9836731,0.8122021,0.04162598,-0.1777039,0.9832001,-29.29019,9.418121,-35.56589,2.341461,0.4041444,0.3513401,0.9072703,0.03773499,-0.1723633,0.9842987,30.71382,10.95357,-36.08968,2.441193,0.5685689,0.2928357,0.02580154,1.16034,-0.09971213,0.05829366,-0.317883,0.01024082,0.3138694,-31.25232,29.871354993983154
2,0.03993225,-0.1753998,0.9836731,0.8122021,0.04162598,-0.1777039,0.9832001,-29.29019,9.418121,-35.56589,2.341461,0.4041444,0.3513401,0.9072703,0.03773499,-0.1723633,0.9842987,30.71382,10.95357,-36.08968,2.441193,0.5685689,0.2928357,0.02580154,1.16034,-0.09971213,0.05829366,-0.317883,0.01024082,0.3138694,-31.25232,29.871354993983154
2,0.1898193,-0.1143036,0.9751282,0.7972846,0.1934204,-0.1138153,0.9744873,-28.34267,9.737106,-35.59816,2.305252,0.3413168,0.3256806,0.9724611,0.1872711,-0.1146545,0.9755859,31.49753,11.20859,-36.11179,2.489029,0.5117315,0.2718178,0.02258074,1.159854,-0.1017011,0.0617987,-0.3388329,0.008753387,0.3138694,-31.25232,29.871354993983154
2,0.1898193,-0.1143036,0.9751282,0.7972846,0.1934204,-0.1138153,0.9744873,-28.34267,9.737106,-35.59816,2.305252,0.3413168,0.3256806,0.9724611,0.1872711,-0.1146545,0.9755859,31.49753,11.20859,-36.11179,2.489029,0.5117315,0.2718178,0.02258074,1.159854,-0.1017011,0.0617987,-0.3388329,0.008753387,0.3138694,-31.25232,29.871354993983154
2,0.2050323,-0.1018372,0.9734344,1.0,0.2097931,-0.08728027,0.9738312,-28.2216,9.765244,-35.62495,2.505493,0.3335499,0.3191967,1.0,0.2024841,-0.1095581,0.9731293,31.61339,11.26039,-36.11897,2.473907,0.5045701,0.2688139,0.01944029,1.159276,-0.1037493,0.06514233,-0.3582217,0.007025145,0.3138694,91.47705,29.871354993983154
2,0.2050323,-0.1018372,0.9734344,1.0,0.2097931,-0.08728027,0.9738312,-28.2216,9.765244,-35.62495,2.505493,0.3335499,0.3191967,1.0,0.2024841,-0.1095581,0.9731293,31.61339,11.26039,-36.11897,2.473907,0.5045701,0.2688139,0.01944029,1.159276,-0.1037493,0.06514233,-0.3582217,0.007025145,0.3138694,91.47705,29.871354993983154
2,0.16185,-0.1004181,0.9816895,1.0,0.1713562,-0.08422852,0.9815979,-28.56738,9.744614,-35.56377,2.423584,0.3536268,0.3195705,1.0,0.1559753,-0.1103668,0.9815674,31.37236,11.29263,-36.15088,2.479523,0.5223136,0.2676598,0.01651728,1.158761,-0.1058615,0.0689586,-0.3760546,0.005628487,0.3138694,91.47705,29.871354993983154
2,0.16185,-0.1004181,0.9816895,1.0,0.1713562,-0.08422852,0.9815979,-28.56738,9.744614,-35.56377,2.423584,0.3536268,0.3195705,1.0,0.1559753,-0.1103668,0.9815674,31.37236,11.29263,-36.15088,2.479523,0.5223136,0.2676598,0.01651728,1.158761,-0.1058615,0.0689586,-0.3760546,0.005628487,0.3138694,91.47705,29.871354993983154
2,0.12883,-0.09973145,0.9866333,1.0,0.1309662,-0.09344482,0.986969,-28.81271,9.772629,-35.60271,2.37114,0.3701372,0.3211527,1.0,0.1252899,-0.1101379,0.9859772,31.11176,11.24593,-36.01613,2.460175,0.537678,0.2680914,0.01345682,1.15811,-0.1082144,0.07222293,-0.394097,0.005836442,0.3138694,91.47705,29.871354993983154
2,0.12883,-0.09973145,0.9866333,1.0,0.1309662,-0.09344482,0.986969,-28.81271,9.772629,-35.60271,2.37114,0.3701372,0.3211527,1.0,0.1252899,-0.1101379,0.9859772,31.11176,11.24593,-36.01613,2.460175,0.537678,0.2680914,0.01345682,1.15811,-0.1082144,0.07222293,-0.394097,0.005836442,0.3138694,91.47705,29.871354993983154
2,0.1020966,-0.09657288,0.9900665,1.0,0.1060638,-0.08631897,0.9906006,-28.93349,9.983536,-36.36714,2.423157,0.3785173,0.3185785,1.0,0.1018982,-0.09709167,0.990036,30.98859,11.27449,-36.06427,2.563721,0.5467855,0.2643427,0.0105356,1.157461,-0.1105517,0.0753061,-0.4122003,0.007137721,0.3138694,91.47705,29.871354993983154
2,0.1020966,-0.09657288,0.9900665,1.0,0.1060638,-0.08631897,0.9906006,-28.93349,9.983536,-36.36714,2.423157,0.3785173,0.3185785,1.0,0.1018982,-0.09709167,0.990036,30.98859,11.27449,-36.06427,2.563721,0.5467855,0.2643427,0.0105356,1.157461,-0.1105517,0.0753061,-0.4122003,0.007137721,0.3138694,91.47705,29.871354993983154
2,0.07064819,-0.07804871,0.9944305,1.0,0.07623291,-0.07565308,0.9942017,-29.14297,9.937561,-36.10896,2.428467,0.3918378,0.3163393,1.0,0.07011414,-0.07827759,0.9944611,30.76917,11.14964,-35.57466,2.490799,0.5606142,0.2608999,0.007634044,1.156717,-0.1130592,0.07877471,-0.4295081,0.008835563,0.3138694,91.47705,29.871354993983154
2,0.05082703,-0.07286072,0.9960327,1.0,0.05158997,-0.0766449,0.9957123,-29.30313,10.03357,-36.58763,2.441574,0.4019294,0.317306,1.0,0.05056763,-0.07162476,0.9961395,30.58289,10.97945,-34.86429,2.50209,0.5706594,0.2599522,0.004641175,1.155701,-0.1156756,0.0821701,-0.4466259,0.01067679,0.3138694,91.47705,29.871354993983154
2,0.05082703,-0.07286072,0.9960327,1.0,0.05158997,-0.0766449,0.9957123,-29.30313,10.03357,-36.58763,2.441574,0.4019294,0.317306,1.0,0.05056763,-0.07162476,0.9961395,30.58289,10.97945,-34.86429,2.50209,0.5706594,0.2599522,0.004641175,1.155701,-0.1156756,0.0821701,-0.4466259,0.01067679,0.3138694,91.47705,29.871354993983154
2,0.05082703,-0.07286072,0.9960327,1.0,0.05158997,-0.0766449,0.9957123,-29.30313,10.03357,-36.58763,2.441574,0.4019294,0.317306,1.0,0.05056763,-0.07162476,0.9961395,30.58289,10.97945,-34.86429,2.50209,0.5706594,0.2599522,0.004641175,1.155701,-0.1156756,0.0821701,-0.4466259,0.01067679,0.3138694,91.47705,29.871354993983154
2,0.01698303,-0.07269287,0.9972076,1.0,0.01847839,-0.07214355,0.9972076,-29.46651,10.13402,-36.87534,2.44136,0.4138159,0.3153873,1.0,0.0003204346,-0.07879639,0.9968872,30.44687,11.40732,-36.43768,2.546799,0.5867369,0.2574197,0.001557231,1.154626,-0.1187587,0.08569831,-0.4648407,0.0125768,0.3138694,91.47705,29.871354993983154
2,0.01698303,-0.07269287,0.9972076,1.0,0.01847839,-0.07214355,0.9972076,-29.46651,10.13402,-36.87534,2.44136,0.4138159,0.3153873,1.0,0.0003204346,-0.07879639,0.9968872,30.44687,11.40732,-36.43768,2.546799,0.5867369,0.2574197,0.001557231,1.154626,-0.1187587,0.08569831,-0.4648407,0.0125768,0.3138694,91.47705,29.871354993983154
2,-0.02575684,-0.06951904,0.9972382,1.0,-0.02575684,-0.0695343,0.9972382,-29.58154,10.29095,-37.32648,2.37616,0.4259973,0.3131313,1.0,-0.02679443,-0.06538391,0.9974976,30.32132,11.51251,-36.79137,2.465225,0.5971345,0.2530988,-0.001520753,1.153497,-0.1220018,0.09010253,-0.4837518,0.01427701,0.3138694,91.47705,29.871354993983154
2,-0.02575684,-0.06951904,0.9972382,1.0,-0.02575684,-0.0695343,0.9972382,-29.58154,10.29095,-37.32648,2.37616,0.4259973,0.3131313,1.0,-0.02679443,-0.06538391,0.9974976,30.32132,11.51251,-36.79137,2.465225,0.5971345,0.2530988,-0.001520753,1.153497,-0.1220018,0.09010253,-0.4837518,0.01427701,0.3138694,91.47705,29.871354993983154
2,-0.04472351,-0.06185913,0.9970703,1.0,-0.03918457,-0.06282043,0.9972534,-29.55779,9.838669,-35.74223,2.368835,0.4282146,0.3153347,1.0,-0.05378723,-0.06030273,0.9967194,30.34692,11.41959,-36.67149,2.468658,0.6011711,0.2547126,-0.00461781,1.152191,-0.1254597,0.09444729,-0.5021446,0.01569803,0.3138694,86.40869,29.871354993983154
2,-0.04472351,-0.06185913,0.9970703,1.0,-0.03918457,-0.06282043,0.9972534,-29.55779,9.838669,-35.74223,2.368835,0.4282146,0.3153347,1.0,-0.05378723,-0.06030273,0.9967194,30.34692,11.41959,-36.67149,2.468658,0.6011711,0.2547126,-0.00461781,1.152191,-0.1254597,0.09444729,-0.5021446,0.01569803,0.3138694,86.40869,29.871354993983154
2,0.09197998,-0.1101532,0.9896393,1.0,0.1097412,-0.1010742,0.9888,-28.62025,9.596313,-36.18535,2.391418,0.3667954,0.3341381,1.0,0.09188843,-0.1102142,0.9896393,31.15338,10.94254,-36.33879,2.481094,0.5424311,0.2828721,-0.007816434,1.150871,-0.1289327,0.09811078,-0.5205677,0.01802533,0.3138694,86.40869,29.871354993983154
2,0.09197998,-0.1101532,0.9896393,1.0,0.1097412,-0.1010742,0.9888,-28.62025,9.596313,-36.18535,2.391418,0.3667954,0.3341381,1.0,0.09188843,-0.1102142,0.9896393,31.15338,10.94254,-36.33879,2.481094,0.5424311,0.2828721,-0.007816434,1.150871,-0.1289327,0.09811078,-0.5205677,0.01802533,0.3138694,86.40869,29.871354993983154
2,0.2131195,-0.1508789,0.9653015,1.0,0.2267151,-0.179245,0.9573212,-28.05522,9.450851,-36.30972,2.396118,0.3242185,0.3553109,1.0,0.2131042,-0.1508636,0.9653015,31.71962,10.54033,-36.33174,2.449219,0.498603,0.3076818,-0.01077783,1.149446,-0.1324104,0.1023478,-0.5388752,0.02041095,0.3138694,86.40869,29.871354993983154
2,0.2131195,-0.1508789,0.9653015,1.0,0.2267151,-0.179245,0.9573212,-28.05522,9.450851,-36.30972,2.396118,0.3242185,0.3553109,1.0,0.2131042,-0.1508636,0.9653015,31.71962,10.54033,-36.33174,2.449219,0.498603,0.3076818,-0.01077783,1.149446,-0.1324104,0.1023478,-0.5388752,0.02041095,0.3138694,86.40869,29.871354993983154
2,0.2066803,-0.1784668,0.9619904,1.0,0.2188721,-0.194931,0.9560699,-27.94998,9.267899,-36.36977,2.302002,0.321916,0.3656786,1.0,0.2050018,-0.1761932,0.9627533,31.77057,10.41385,-36.36473,2.410049,0.4982417,0.3179509,-0.01217496,1.148538,-0.1341517,0.1052033,-0.5472589,0.02127003,0.3138694,86.40869,29.871354993983154
2,0.172287,-0.1689148,0.9704437,1.0,0.172287,-0.1690063,0.9704285,-28.25613,9.198074,-36.32864,2.357056,0.3420478,0.3631067,1.0,0.1721954,-0.1674194,0.9707184,31.57811,10.412,-36.32962,2.575043,0.5115306,0.3156431,-0.01472092,1.146469,-0.1379195,0.1123036,-0.5624103,0.02283987,0.3138694,86.40869,29.871354993983154
2,0.172287,-0.1689148,0.9704437,1.0,0.172287,-0.1690063,0.9704285,-28.25613,9.198074,-36.32864,2.357056,0.3420478,0.3631067,1.0,0.1721954,-0.1674194,0.9707184,31.57811,10.412,-36.32962,2.575043,0.5115306,0.3156431,-0.01472092,1.146469,-0.1379195,0.1123036,-0.5624103,0.02283987,0.3138694,86.40869,29.871354993983154
3,0.1401215,-0.1556396,0.9778137,1.0,0.1480713,-0.1669464,0.9747772,-28.40639,9.188828,-36.30995,2.420746,0.3521151,0.3630544,1.0,0.132431,-0.1446991,0.9805603,31.49881,10.43063,-36.31177,2.401352,0.5217868,0.3099889,-0.01589477,1.145407,-0.1398973,0.1161525,-0.5696935,0.02403437,0.3138694,86.40869,29.871354993983154
3,0.1284027,-0.1500549,0.9803009,1.0,0.1347656,-0.1623535,0.977478,-28.54236,9.267227,-36.26674,2.34227,0.3595504,0.359063,1.0,0.1236267,-0.1408234,0.9822693,31.38593,10.46463,-36.30663,2.445206,0.5276142,0.3077805,-0.01708031,1.144375,-0.1418892,0.1198366,-0.5767391,0.02560976,0.3138694,86.40869,29.871354993983154
3,0.1284027,-0.1500549,0.9803009,1.0,0.1347656,-0.1623535,0.977478,-28.54236,9.267227,-36.26674,2.34227,0.3595504,0.359063,1.0,0.1236267,-0.1408234,0.9822693,31.38593,10.46463,-36.30663,2.445206,0.5276142,0.3077805,-0.01708031,1.144375,-0.1418892,0.1198366,-0.5767391,0.02560976,0.3138694,86.40869,29.871354993983154
3,0.111496,-0.1474762,0.9827576,1.0,0.1165619,-0.15065,0.9816742,-28.66731,9.333466,-36.23709,2.473709,0.3674605,0.3541655,1.0,0.1073914,-0.1448975,0.9835968,31.22737,10.49902,-36.28311,2.528854,0.5365221,0.3069482,-0.01941836,1.142174,-0.1454991,0.126777,-0.5902026,0.02974573,0.3138694,86.40869,29.871354993983154
3,0.09828186,-0.144989,0.9845276,1.0,0.09777832,-0.1505737,0.9837494,-28.7254,9.350662,-36.22549,2.471848,0.3730531,0.3535165,1.0,0.09869385,-0.1403809,0.9851532,31.09334,10.54344,-36.23206,2.490829,0.543065,0.3038232,-0.02040279,1.141214,-0.1470695,0.1302648,-0.5963005,0.03153221,0.3138694,86.40869,29.871354993983154
3,0.0750885,-0.1278687,0.9889374,1.0,0.0756073,-0.1306763,0.9885254,-28.91682,9.366745,-36.24373,2.401825,0.3840422,0.3494573,1.0,0.07437134,-0.1238403,0.989502,30.93661,10.56403,-36.12308,2.489578,0.5533785,0.2985457,-0.0215081,1.140096,-0.1487912,0.1338418,-0.6017025,0.03326153,0.3138694,86.40869,29.871354993983154
3,0.0750885,-0.1278687,0.9889374,1.0,0.0756073,-0.1306763,0.9885254,-28.91682,9.366745,-36.24373,2.401825,0.3840422,0.3494573,1.0,0.07437134,-0.1238403,0.989502,30.93661,10.56403,-36.12308,2.489578,0.5533785,0.2985457,-0.0215081,1.140096,-0.1487912,0.1338418,-0.6017025,0.03326153,0.3138694,86.40869,29.871354993983154
3,0.06234741,-0.1207123,0.9907227,1.0,0.06640625,-0.122818,0.9901886,-29.08983,9.445541,-36.47653,2.579117,0.3918087,0.3471987,1.0,0.05281067,-0.1157837,0.9918671,30.85477,10.66843,-36.41536,2.442368,0.5606846,0.2952649,-0.02345979,1.137773,-0.151764,0.1420448,-0.6109517,0.03656602,0.3138694,69.86877,29.871354993983154
3,0.04841614,-0.1170349,0.9919434,1.0,0.04870605,-0.1169434,0.9919281,-29.15126,9.494766,-36.61978,2.494659,0.3971925,0.3455965,1.0,0.02449036,-0.1248932,0.9918518,30.83749,10.98589,-37.4819,2.440781,0.5675364,0.2939093,-0.02440131,1.136552,-0.1532787,0.1460974,-0.6148904,0.03819943,0.3138694,69.86877,29.871354993983154
3,0.02476501,-0.1138916,0.9931793,1.0,0.0249939,-0.1143188,0.9931183,-29.27274,9.793137,-37.55325,2.376083,0.4054288,0.3423221,1.0,0.02206421,-0.1089935,0.9937897,30.62698,10.88184,-36.67207,2.586792,0.5753484,0.2873943,-0.02508771,1.135501,-0.1545507,0.1500478,-0.6179674,0.04002595,0.3138694,69.86877,29.871354993983154
3,0.02476501,-0.1138916,0.9931793,1.0,0.0249939,-0.1143188,0.9931183,-29.27274,9.793137,-37.55325,2.376083,0.4054288,0.3423221,1.0,0.02206421,-0.1089935,0.9937897,30.62698,10.88184,-36.67207,2.586792,0.5753484,0.2873943,-0.02508771,1.135501,-0.1545507,0.1500478,-0.6179674,0.04002595,0.3138694,69.86877,29.871354993983154
3,0.02476501,-0.1138916,0.9931793,1.0,0.0249939,-0.1143188,0.9931183,-29.27274,9.793137,-37.55325,2.376083,0.4054288,0.3423221,1.0,0.02206421,-0.1089935,0.9937897,30.62698,10.88184,-36.67207,2.586792,0.5753484,0.2873943,-0.02672827,1.133263,-0.1571625,0.1562964,-0.6238891,0.04534908,0.3138694,69.86877,29.871354993983154
3,0.02476501,-0.1138916,0.9931793,1.0,0.0249939,-0.1143188,0.9931183,-29.27274,9.793137,-37.55325,2.376083,0.4054288,0.3423221,1.0,0.02206421,-0.1089935,0.9937897,30.62698,10.88184,-36.67207,2.586792,0.5753484,0.2873943,-0.0274657,1.132077,-0.1584013,0.159346,-0.6266537,0.04907029,0.3138694,69.86877,29.871354993983154
3,0.02476501,-0.1138916,0.9931793,1.0,0.0249939,-0.1143188,0.9931183,-29.27274,9.793137,-37.55325,2.376083,0.4054288,0.3423221,1.0,0.02206421,-0.1089935,0.9937897,30.62698,10.88184,-36.67207,2.586792,0.5753484,0.2873943,-0.02827084,1.13102,-0.1595023,0.1626036,-0.6290638,0.05206953,0.3138694,69.86877,29.871354993983154
3,0.02476501,-0.1138916,0.9931793,1.0,0.0249939,-0.1143188,0.9931183,-29.27274,9.793137,-37.55325,2.376083,0.4054288,0.3423221,1.0,0.02206421,-0.1089935,0.9937897,30.62698,10.88184,-36.67207,2.586792,0.5753484,0.2873943,-0.02827084,1.13102,-0.1595023,0.1626036,-0.6290638,0.05206953,0.3138694,69.86877,29.871354993983154
3,-0.01704407,-0.04780579,0.998703,1.0,-0.0184021,-0.07440186,0.9970551,-29.50511,9.873917,-37.17154,2.515701,0.4219807,0.3284605,1.0,-0.01615906,-0.03060913,0.9993896,30.38705,10.85944,-36.21259,2.420639,0.591536,0.2676133,-0.02972782,1.128825,-0.1614211,0.1686389,-0.6320783,0.05762333,0.3138694,69.86877,29.871354993983154
3,0.001602173,-0.1094971,0.9939728,1.0,0.001907349,-0.1100159,0.993927,-29.27133,9.765228,-37.52792,2.557755,0.409627,0.3423479,1.0,-0.01161194,-0.08642578,0.9961853,30.51372,10.93794,-37.27136,2.507278,0.5865306,0.2855947,-0.03060877,1.127794,-0.162321,0.1714749,-0.6335506,0.06015033,0.3138694,69.86877,29.871354993983154
3,0.001602173,-0.1094971,0.9939728,1.0,0.001907349,-0.1100159,0.993927,-29.27133,9.765228,-37.52792,2.557755,0.409627,0.3423479,1.0,-0.01161194,-0.08642578,0.9961853,30.51372,10.93794,-37.27136,2.507278,0.5865306,0.2855947,-0.03060877,1.127794,-0.162321,0.1714749,-0.6335506,0.06015033,0.3138694,69.86877,29.871354993983154
3,0.05609131,-0.1909943,0.9799805,1.0,0.05612183,-0.1905823,0.9800568,-28.73367,9.025818,-36.66878,2.412704,0.3808472,0.3772925,1.0,0.05541992,-0.1980896,0.9786072,30.83226,10.13165,-36.56848,2.666107,0.5607276,0.3339418,-0.03188944,1.125809,-0.1639631,0.1771282,-0.6354163,0.06590226,0.3138694,69.86877,29.871354993983154
3,0.05609131,-0.1909943,0.9799805,1.0,0.05612183,-0.1905823,0.9800568,-28.73367,9.025818,-36.66878,2.412704,0.3808472,0.3772925,1.0,0.05541992,-0.1980896,0.9786072,30.83226,10.13165,-36.56848,2.666107,0.5607276,0.3339418,-0.03188944,1.125809,-0.1639631,0.1771282,-0.6354163,0.06590226,0.3138694,69.86877,29.871354993983154
3,0.04298401,-0.2544403,0.9661255,1.0,0.04197693,-0.2553406,0.9659271,-28.85008,8.710617,-36.74785,2.512054,0.3876211,0.4022332,1.0,0.04495239,-0.2526703,0.9664917,30.6904,9.763611,-36.68167,2.625641,0.5677332,0.3597572,-0.03262842,1.12371,-0.1652746,0.1842711,-0.6354664,0.07258099,0.3138694,69.86877,29.871354993983154
3,0.02201843,-0.2907257,0.956543,1.0,0.02354431,-0.2895355,0.9568634,-28.98627,8.431519,-36.82201,2.417175,0.3958265,0.4198571,1.0,0.01495361,-0.2961731,0.9550018,30.48149,9.506424,-36.76807,2.585739,0.5808955,0.37881,-0.03296936,1.122595,-0.1658944,0.187841,-0.6347839,0.0758656,0.3138694,-16.60834,29.871354993983154
3,0.02201843,-0.2907257,0.956543,1.0,0.02354431,-0.2895355,0.9568634,-28.98627,8.431519,-36.82201,2.417175,0.3958265,0.4198571,1.0,0.01495361,-0.2961731,0.9550018,30.48149,9.506424,-36.76807,2.585739,0.5808955,0.37881,-0.03296936,1.122595,-0.1658944,0.187841,-0.6347839,0.0758656,0.3138694,-16.60834,29.871354993983154
3,-0.0317688,-0.3234406,0.9457092,1.0,-0.03582764,-0.3215179,0.9462128,-29.32089,8.338516,-36.87181,2.37352,0.4185857,0.4303619,1.0,-0.02354431,-0.3273315,0.9446106,30.15768,9.396011,-36.81181,2.620026,0.5999698,0.3895166,-0.03341472,1.120912,-0.1667507,0.1926013,-0.6326889,0.08177978,0.3138694,-16.60834,31.29
3,-0.07504272,-0.3283844,0.9415436,1.0,-0.07623291,-0.3322296,0.9401093,-29.52354,8.386368,-36.87204,2.456421,0.4331503,0.431027,1.0,-0.07328796,-0.3226471,0.9436646,29.9921,9.448608,-36.81181,2.612289,0.6153932,0.3866233,-0.03376567,1.120424,-0.1669502,0.1938096,-0.6318149,0.08428326,0.3138694,-16.60834,31.29
3,-0.06932068,-0.3146973,0.9466553,1.0,-0.0753479,-0.3144836,0.9462585,-29.54308,8.447632,-36.84474,2.427109,0.4337502,0.4250839,1.0,-0.06274414,-0.3148956,0.9470367,30.02409,9.528336,-36.77663,2.630783,0.6122524,0.3817312,-0.03446805,1.11968,-0.167075,0.1956881,-0.6296391,0.08807557,0.3138694,-16.60834,31.29
3,-0.06932068,-0.3146973,0.9466553,1.0,-0.0753479,-0.3144836,0.9462585,-29.54308,8.447632,-36.84474,2.427109,0.4337502,0.4250839,1.0,-0.06274414,-0.3148956,0.9470367,30.02409,9.528336,-36.77663,2.630783,0.6122524,0.3817312,-0.03446805,1.11968,-0.167075,0.1956881,-0.6296391,0.08807557,0.3138694,-16.60834,31.29
3,-0.06570435,-0.3072662,0.9493408,1.0,-0.07154846,-0.3069153,0.9490356,-29.55325,8.464066,-36.83513,2.461578,0.433435,0.4228785,1.0,-0.06134033,-0.3075409,0.9495392,30.10951,9.533798,-36.7769,2.64949,0.6088393,0.3800465,-0.03477728,1.119301,-0.1669997,0.1966972,-0.6281458,0.08966117,0.3138694,-16.60834,31.29
3,-0.06155396,-0.3066254,0.9498291,1.0,-0.06820679,-0.3063507,0.9494629,-29.54924,8.460388,-36.83597,2.461273,0.4326872,0.4228785,1.0,-0.05549622,-0.3068542,0.9501343,30.1665,9.526337,-36.7709,2.688446,0.6056336,0.3801149,-0.03516495,1.118617,-0.1668575,0.1980316,-0.6250852,0.09299716,0.3138694,-16.60834,31.29
3,-0.06155396,-0.3066254,0.9498291,1.0,-0.06820679,-0.3063507,0.9494629,-29.54924,8.460388,-36.83597,2.461273,0.4326872,0.4228785,1.0,-0.05549622,-0.3068542,0.9501343,30.1665,9.526337,-36.7709,2.688446,0.6056336,0.3801149,-0.03516495,1.118617,-0.1668575,0.1980316,-0.6250852,0.09299716,0.3138694,-16.60834,31.29
3,-0.0539856,-0.2960815,0.9536285,1.0,-0.0612793,-0.3012695,0.9515533,-29.50728,8.485504,-36.8262,2.574005,0.4299074,0.4207886,1.0,-0.04586792,-0.2902832,0.9558258,30.22153,9.522293,-36.76775,2.627197,0.6018101,0.3769144,-0.03553689,1.118329,-0.1667536,0.1985674,-0.6237853,0.09412207,0.3138694,-16.60834,31.29
3,-0.05563354,-0.2947235,0.953949,1.0,-0.06011963,-0.2969818,0.9529877,-29.43604,8.492065,-36.81885,2.580048,0.4271453,0.4195941,1.0,-0.05014038,-0.2919617,0.9551086,30.35941,9.552582,-36.75764,2.733871,0.5975224,0.3760129,-0.03617418,1.118016,-0.1666739,0.2000934,-0.6215737,0.09523335,0.3138694,-16.60834,31.29
3,-0.05563354,-0.2947235,0.953949,1.0,-0.06011963,-0.2969818,0.9529877,-29.43604,8.492065,-36.81885,2.580048,0.4271453,0.4195941,1.0,-0.05014038,-0.2919617,0.9551086,30.35941,9.552582,-36.75764,2.733871,0.5975224,0.3760129,-0.03617418,1.118016,-0.1666739,0.2000934,-0.6215737,0.09523335,0.3138694,-16.60834,31.29
3,-0.0528717,-0.290451,0.9554138,1.0,-0.05084229,-0.2889252,0.9559937,-29.37193,8.496216,-36.81326,2.599609,0.4231747,0.4177234,1.0,-0.05516052,-0.2921753,0.9547577,30.45592,9.545059,-36.76576,2.852722,0.5949019,0.3763525,-0.03617418,1.118016,-0.1666739,0.2000934,-0.6215737,0.09523335,0.3138694,-16.60834,31.29
3,-0.0528717,-0.290451,0.9554138,1.0,-0.05084229,-0.2889252,0.9559937,-29.37193,8.496216,-36.81326,2.599609,0.4231747,0.4177234,1.0,-0.05516052,-0.2921753,0.9547577,30.45592,9.545059,-36.76576,2.852722,0.5949019,0.3763525,-0.03617418,1.118016,-0.1666739,0.2000934,-0.6215737,0.09523335,0.3138694,-16.60834,31.29
3,-0.05186462,-0.2865601,0.9566498,1.0,-0.04618835,-0.2883759,0.9563904,-29.3365,8.457764,-36.81819,2.762833,0.4210081,0.4189381,1.0,-0.05776978,-0.2846527,0.9568787,30.52638,9.489655,-36.78415,2.881241,0.5927836,0.3770767,-0.03660667,1.117618,-0.1665163,0.2023487,-0.619792,0.09558488,0.3138694,-16.60834,31.29
3,-0.04541016,-0.2796936,0.9589996,1.0,-0.04450989,-0.2793121,0.9591522,-29.31166,8.422363,-36.82895,2.677826,0.419842,0.4185402,1.0,-0.04637146,-0.2801208,0.9588318,30.58203,9.407501,-36.80495,2.864471,0.5885977,0.3794096,-0.03687465,1.116788,-0.1665599,0.2047206,-0.6182019,0.09757698,0.3138694,37.37219,31.29
3,-0.04541016,-0.2796936,0.9589996,1.0,-0.04450989,-0.2793121,0.9591522,-29.31166,8.422363,-36.82895,2.677826,0.419842,0.4185402,1.0,-0.04637146,-0.2801208,0.9588318,30.58203,9.407501,-36.80495,2.864471,0.5885977,0.3794096,-0.03687465,1.116788,-0.1665599,0.2047206,-0.6182019,0.09757698,0.3138694,37.37219,31.29
3,-0.04541016,-0.2796936,0.9589996,1.0,-0.04450989,-0.2793121,0.9591522,-29.31166,8.422363,-36.82895,2.677826,0.419842,0.4185402,1.0,-0.04637146,-0.2801208,0.9588318,30.58203,9.407501,-36.80495,2.864471,0.5885977,0.3794096,-0.03687465,1.116788,-0.1665599,0.2047206,-0.6182019,0.09757698,0.3138694,37.37219,31.29
3,-0.04751587,-0.2801971,0.9587555,1.0,-0.04928589,-0.2794952,0.9588623,-29.22545,8.439087,-36.81857,2.730637,0.4175943,0.4178522,1.0,-0.04542542,-0.2810211,0.9586182,30.66362,9.41568,-36.80519,2.92984,0.5854206,0.3792647,-0.0370487,1.116123,-0.1664557,0.206901,-0.6173778,0.09879483,0.3138694,37.37219,31.29
3,-0.04420471,-0.2780304,0.959549,1.0,-0.04493713,-0.2758942,0.9601288,-29.2034,8.45813,-36.81123,2.663071,0.4160463,0.4163806,1.0,-0.04336548,-0.2804565,0.9588776,30.69861,9.429459,-36.80228,2.937851,0.5837536,0.3786173,-0.03710377,1.115663,-0.1663957,0.2088065,-0.6168274,0.09980796,0.3138694,37.37219,31.29
3,-0.04005432,-0.2728882,0.9611969,1.0,-0.04208374,-0.2730408,0.9610748,-29.20364,8.457901,-36.81134,2.769043,0.4155108,0.4157741,1.0,-0.0378418,-0.2727356,0.9613342,30.7095,9.42421,-36.80223,2.969711,0.5823425,0.3772328,-0.03713882,1.115196,-0.1661752,0.2098748,-0.6162251,0.1013934,0.3138694,37.37219,31.29
3,-0.04005432,-0.2728882,0.9611969,1.0,-0.04208374,-0.2730408,0.9610748,-29.20364,8.457901,-36.81134,2.769043,0.4155108,0.4157741,1.0,-0.0378418,-0.2727356,0.9613342,30.7095,9.42421,-36.80223,2.969711,0.5823425,0.3772328,-0.03713882,1.115196,-0.1661752,0.2098748,-0.6162251,0.1013934,0.3138694,37.37219,31.29
3,-0.04074097,-0.2702942,0.9619141,1.0,-0.0448761,-0.2711945,0.9614716,-29.20027,8.466599,-36.8075,2.769333,0.4158975,0.4150771,1.0,-0.03675842,-0.2694092,0.9623108,30.7095,9.419189,-36.80325,2.969467,0.582144,0.3767667,-0.03724205,1.114826,-0.1658864,0.2101761,-0.6153744,0.1030125,0.3138694,37.37219,31.29
3,-0.04074097,-0.2702942,0.9619141,1.0,-0.0448761,-0.2711945,0.9614716,-29.20027,8.466599,-36.8075,2.769333,0.4158975,0.4150771,1.0,-0.03675842,-0.2694092,0.9623108,30.7095,9.419189,-36.80325,2.969467,0.582144,0.3767667,-0.03724205,1.114826,-0.1658864,0.2101761,-0.6153744,0.1030125,0.3138694,37.37219,31.29
3,-0.03132629,-0.2672882,0.9631042,1.0,-0.03381348,-0.2659607,0.9633789,-29.20959,8.496933,-36.79327,2.908783,0.4142127,0.412738,1.0,-0.02890015,-0.2685699,0.9628143,30.70331,9.412155,-36.81006,3.007767,0.580932,0.3768848,-0.03748405,1.114755,-0.165604,0.2099461,-0.6147732,0.1037225,0.3138694,37.37219,31.29
3,-0.03132629,-0.2672882,0.9631042,1.0,-0.03381348,-0.2659607,0.9633789,-29.20959,8.496933,-36.79327,2.908783,0.4142127,0.412738,1.0,-0.02890015,-0.2685699,0.9628143,30.70331,9.412155,-36.81006,3.007767,0.580932,0.3768848,-0.03748405,1.114755,-0.165604,0.2099461,-0.6147732,0.1037225,0.3138694,37.37219,31.29
3,-0.02642822,-0.2653198,0.9637909,1.0,-0.03134155,-0.2644653,0.9638824,-29.18597,8.527344,-36.78368,2.94133,0.4129139,0.4112238,1.0,-0.02183533,-0.2661133,0.9636841,30.75096,9.459335,-36.79532,3.110596,0.5779001,0.3744445,-0.03750122,1.114661,-0.1653484,0.2105983,-0.6140499,0.1034001,0.3138694,37.37219,31.29
3,-0.02642822,-0.2653198,0.9637909,1.0,-0.03134155,-0.2644653,0.9638824,-29.18597,8.527344,-36.78368,2.94133,0.4129139,0.4112238,1.0,-0.02183533,-0.2661133,0.9636841,30.75096,9.459335,-36.79532,3.110596,0.5779001,0.3744445,-0.03750122,1.114661,-0.1653484,0.2105983,-0.6140499,0.1034001,0.3138694,37.37219,31.29
3,-0.02848816,-0.2562256,0.9661865,1.0,-0.03753662,-0.2540131,0.9664612,-29.13068,8.48349,-36.79922,2.977203,0.4120328,0.4109023,1.0,-0.01976013,-0.258316,0.9658508,30.75951,9.441757,-36.80125,3.141571,0.5772146,0.3735845,-0.03738797,1.114554,-0.1651632,0.2114895,-0.6131854,0.103641,0.3138694,37.37219,31.29
3,-0.02848816,-0.2562256,0.9661865,1.0,-0.03753662,-0.2540131,0.9664612,-29.13068,8.48349,-36.79922,2.977203,0.4120328,0.4109023,1.0,-0.01976013,-0.258316,0.9658508,30.75951,9.441757,-36.80125,3.141571,0.5772146,0.3735845,-0.03738797,1.114554,-0.1651632,0.2114895,-0.6131854,0.103641,0.3138694,37.37219,31.29
3,-0.02514648,-0.2606049,0.9651031,1.0,-0.03356934,-0.2573395,0.9657288,-29.14818,8.466522,-36.80035,2.980377,0.4119408,0.4121545,1.0,-0.01657104,-0.2639313,0.964386,30.77075,9.42247,-36.80992,3.168274,0.5762097,0.3754842,-0.03713048,1.114553,-0.1649303,0.2116167,-0.6128124,0.1038091,0.3138694,37.37219,31.29
3,-0.02514648,-0.2606049,0.9651031,1.0,-0.03356934,-0.2573395,0.9657288,-29.14818,8.466522,-36.80035,2.980377,0.4119408,0.4121545,1.0,-0.01657104,-0.2639313,0.964386,30.77075,9.42247,-36.80992,3.168274,0.5762097,0.3754842,-0.03713048,1.114553,-0.1649303,0.2116167,-0.6128124,0.1038091,0.3138694,37.37219,31.29
3,-0.02140808,-0.2560425,0.9664154,1.0,-0.03353882,-0.254837,0.9664001,-29.0769,8.484756,-36.79689,3.03215,0.4093563,0.4109208,1.0,-0.009140015,-0.2572174,0.9662933,30.79523,9.434616,-36.80841,3.206604,0.5739599,0.3736636,-0.03688681,1.114733,-0.1646671,0.2112414,-0.6125894,0.1032153,0.3138694,94.75574,31.29
3,-0.02140808,-0.2560425,0.9664154,1.0,-0.03353882,-0.254837,0.9664001,-29.0769,8.484756,-36.79689,3.03215,0.4093563,0.4109208,1.0,-0.009140015,-0.2572174,0.9662933,30.79523,9.434616,-36.80841,3.206604,0.5739599,0.3736636,-0.03688681,1.114733,-0.1646671,0.2112414,-0.6125894,0.1032153,0.3138694,94.75574,31.29
3,-0.02052307,-0.257782,0.9659729,1.0,-0.03163147,-0.2561951,0.966095,-29.06897,8.496353,-36.78905,3.14592,0.4086965,0.4106358,1.0,-0.009735107,-0.2592926,0.965744,30.80786,9.453018,-36.8074,3.219574,0.573611,0.3733759,-0.03663433,1.114787,-0.1643447,0.2113724,-0.6115959,0.1023035,0.3266805,94.75574,31.29
3,-0.02052307,-0.257782,0.9659729,1.0,-0.03163147,-0.2561951,0.966095,-29.06897,8.496353,-36.78905,3.14592,0.4086965,0.4106358,1.0,-0.009735107,-0.2592926,0.965744,30.80786,9.453018,-36.8074,3.219574,0.573611,0.3733759,-0.03663433,1.114787,-0.1643447,0.2113724,-0.6115959,0.1023035,0.3266805,94.75574,31.29
3,-0.0209198,-0.254837,0.9667511,1.0,-0.0322876,-0.2510071,0.9674377,-29.0779,8.465683,-36.79694,3.057816,0.4091648,0.410851,1.0,-0.009902954,-0.2585144,0.9659424,30.8065,9.445999,-36.8101,3.229355,0.5736954,0.3735079,-0.03642571,1.114904,-0.1639622,0.2117147,-0.6103656,0.1015711,0.3266805,94.75574,31.29
3,-0.0209198,-0.254837,0.9667511,1.0,-0.0322876,-0.2510071,0.9674377,-29.0779,8.465683,-36.79694,3.057816,0.4091648,0.410851,1.0,-0.009902954,-0.2585144,0.9659424,30.8065,9.445999,-36.8101,3.229355,0.5736954,0.3735079,-0.03642571,1.114904,-0.1639622,0.2117147,-0.6103656,0.1015711,0.3266805,94.75574,31.29
3,-0.0188446,-0.2563171,0.9664001,1.0,-0.02812195,-0.2534027,0.9669342,-29.07597,8.464371,-36.79637,3.079437,0.4083357,0.4113275,1.0,-0.009811401,-0.2591248,0.9657898,30.80676,9.441635,-36.81154,3.251266,0.5736704,0.3737895,-0.03619182,1.114976,-0.163669,0.2117154,-0.6094898,0.10102,0.3266805,94.75574,31.29
3,-0.0188446,-0.2563171,0.9664001,1.0,-0.02812195,-0.2534027,0.9669342,-29.07597,8.464371,-36.79637,3.079437,0.4083357,0.4113275,1.0,-0.009811401,-0.2591248,0.9657898,30.80676,9.441635,-36.81154,3.251266,0.5736704,0.3737895,-0.03619182,1.114976,-0.163669,0.2117154,-0.6094898,0.10102,0.3266805,94.75574,31.29
3,-0.0188446,-0.2563171,0.9664001,1.0,-0.02812195,-0.2534027,0.9669342,-29.07597,8.464371,-36.79637,3.079437,0.4083357,0.4113275,1.0,-0.009811401,-0.2591248,0.9657898,30.80676,9.441635,-36.81154,3.251266,0.5736704,0.3737895,-0.03594935,1.114951,-0.163264,0.2123781,-0.6085092,0.1008307,0.3266805,94.75574,31.29
3,-0.0188446,-0.2563171,0.9664001,1.0,-0.02812195,-0.2534027,0.9669342,-29.07597,8.464371,-36.79637,3.079437,0.4083357,0.4113275,1.0,-0.009811401,-0.2591248,0.9657898,30.80676,9.441635,-36.81154,3.251266,0.5736704,0.3737895,-0.03594935,1.114951,-0.163264,0.2123781,-0.6085092,0.1008307,0.3266805,94.75574,31.29
3,-0.0188446,-0.2563171,0.9664001,1.0,-0.02812195,-0.2534027,0.9669342,-29.07597,8.464371,-36.79637,3.079437,0.4083357,0.4113275,1.0,-0.009811401,-0.2591248,0.9657898,30.80676,9.441635,-36.81154,3.251266,0.5736704,0.3737895,-0.03578556,1.114552,-0.162989,0.2134642,-0.6068482,0.100858,0.3266805,94.75574,31.29
3,-0.0188446,-0.2563171,0.9664001,1.0,-0.02812195,-0.2534027,0.9669342,-29.07597,8.464371,-36.79637,3.079437,0.4083357,0.4113275,1.0,-0.009811401,-0.2591248,0.9657898,30.80676,9.441635,-36.81154,3.251266,0.5736704,0.3737895,-0.03578556,1.114552,-0.162989,0.2134642,-0.6068482,0.100858,0.3266805,94.75574,31.29
3,-0.1788177,-0.3601837,0.9155731,1.0,-0.1780396,-0.3673096,0.9128876,-29.75577,7.881195,-37.10851,3.107773,0.4593627,0.4589201,1.0,-0.1799622,-0.3495331,0.9194641,29.73347,8.886017,-37.13658,3.23085,0.645116,0.4160024,-0.03557479,1.114162,-0.1627101,0.21488,-0.6050236,0.1017284,0.3266805,94.75574,31.29
3,-0.1788177,-0.3601837,0.9155731,1.0,-0.1780396,-0.3673096,0.9128876,-29.75577,7.881195,-37.10851,3.107773,0.4593627,0.4589201,1.0,-0.1799622,-0.3495331,0.9194641,29.73347,8.886017,-37.13658,3.23085,0.645116,0.4160024,-0.03557479,1.114162,-0.1627101,0.21488,-0.6050236,0.1017284,0.3266805,94.75574,31.29
3,-0.1932983,-0.3833466,0.9031372,1.0,-0.1967773,-0.3834229,0.9023438,-29.91425,7.708679,-37.21909,3.160385,0.4683485,0.4696226,1.0,-0.1816254,-0.3830414,0.9056854,29.59203,8.76889,-37.21684,3.397278,0.6507595,0.4278318,-0.03528798,1.113565,-0.1622449,0.2170537,-0.602891,0.1031304,0.3266805,50.84479,31.29
3,-0.1932983,-0.3833466,0.9031372,1.0,-0.1967773,-0.3834229,0.9023438,-29.91425,7.708679,-37.21909,3.160385,0.4683485,0.4696226,1.0,-0.1816254,-0.3830414,0.9056854,29.59203,8.76889,-37.21684,3.397278,0.6507595,0.4278318,-0.03528798,1.113565,-0.1622449,0.2170537,-0.602891,0.1031304,0.3266805,50.84479,31.29
3,-0.1933746,-0.3818512,0.9037628,1.0,-0.1955109,-0.382431,0.9030457,-29.93893,7.707642,-37.21739,3.096024,0.4690485,0.4694628,1.0,-0.1893005,-0.3807373,0.9050903,29.64543,8.745377,-37.2216,3.423248,0.6501885,0.4283401,-0.03504097,1.112878,-0.1617612,0.2196901,-0.5998905,0.1045391,0.3266805,50.84479,31.29
3,-0.1933746,-0.3818512,0.9037628,1.0,-0.1955109,-0.382431,0.9030457,-29.93893,7.707642,-37.21739,3.096024,0.4690485,0.4694628,1.0,-0.1893005,-0.3807373,0.9050903,29.64543,8.745377,-37.2216,3.423248,0.6501885,0.4283401,-0.03504097,1.112878,-0.1617612,0.2196901,-0.5998905,0.1045391,0.3266805,50.84479,31.29
3,-0.1923981,-0.3827972,0.9035645,1.0,-0.1943207,-0.3829346,0.9030914,-29.94472,7.706635,-37.22012,3.093826,0.4690428,0.4696207,1.0,-0.1899109,-0.3826294,0.9041595,29.65067,8.74585,-37.22189,3.428818,0.6501053,0.4287222,-0.03488457,1.112306,-0.1611258,0.2217289,-0.5969237,0.1058658,0.3266805,50.84479,31.29
3,-0.1923981,-0.3827972,0.9035645,1.0,-0.1943207,-0.3829346,0.9030914,-29.94472,7.706635,-37.22012,3.093826,0.4690428,0.4696207,1.0,-0.1899109,-0.3826294,0.9041595,29.65067,8.74585,-37.22189,3.428818,0.6501053,0.4287222,-0.03488457,1.112306,-0.1611258,0.2217289,-0.5969237,0.1058658,0.3266805,50.84479,31.29
3,-0.1923981,-0.3827972,0.9035645,1.0,-0.1943207,-0.3829346,0.9030914,-29.94472,7.706635,-37.22012,3.093826,0.4690428,0.4696207,1.0,-0.1899109,-0.3826294,0.9041595,29.65067,8.74585,-37.22189,3.428818,0.6501053,0.4287222,-0.03480697,1.111734,-0.1602932,0.2245325,-0.5933188,0.1063823,0.3266805,50.84479,31.29
3,-0.1923981,-0.3827972,0.9035645,1.0,-0.1943207,-0.3829346,0.9030914,-29.94472,7.706635,-37.22012,3.093826,0.4690428,0.4696207,1.0,-0.1899109,-0.3826294,0.9041595,29.65067,8.74585,-37.22189,3.428818,0.6501053,0.4287222,-0.03480697,1.111734,-0.1602932,0.2245325,-0.5933188,0.1063823,0.3266805,50.84479,31.29
3,-0.1923981,-0.3827972,0.9035645,1.0,-0.1943207,-0.3829346,0.9030914,-29.94472,7.706635,-37.22012,3.093826,0.4690428,0.4696207,1.0,-0.1899109,-0.3826294,0.9041595,29.65067,8.74585,-37.22189,3.428818,0.6501053,0.4287222,-0.03465235,1.110986,-0.1592312,0.2293302,-0.5881518,0.1061238,0.3266805,50.84479,31.29
3,-0.1923981,-0.3827972,0.9035645,1.0,-0.1943207,-0.3829346,0.9030914,-29.94472,7.706635,-37.22012,3.093826,0.4690428,0.4696207,1.0,-0.1899109,-0.3826294,0.9041595,29.65067,8.74585,-37.22189,3.428818,0.6501053,0.4287222,-0.03465235,1.110986,-0.1592312,0.2293302,-0.5881518,0.1061238,0.3266805,50.84479,31.29
3,-0.1820068,-0.3716431,0.9103394,1.0,-0.1773224,-0.3781281,0.9085999,-29.97018,7.748718,-37.19827,3.191742,0.4668579,0.4666844,1.0,-0.1870728,-0.364624,0.9121552,29.75253,8.778244,-37.19086,3.450348,0.6457219,0.4235131,-0.03401327,1.109885,-0.1580223,0.2362416,-0.5807128,0.1064707,0.3266805,50.84479,31.29
3,-0.1820068,-0.3716431,0.9103394,1.0,-0.1773224,-0.3781281,0.9085999,-29.97018,7.748718,-37.19827,3.191742,0.4668579,0.4666844,1.0,-0.1870728,-0.364624,0.9121552,29.75253,8.778244,-37.19086,3.450348,0.6457219,0.4235131,-0.03401327,1.109885,-0.1580223,0.2362416,-0.5807128,0.1064707,0.3266805,50.84479,31.29
3,-0.1729126,-0.3636475,0.915329,1.0,-0.1700134,-0.3669434,0.914566,-30.02678,7.65683,-37.22754,3.219315,0.4675729,0.4679423,1.0,-0.1761475,-0.3599548,0.9161835,29.73648,8.696838,-37.21736,3.516785,0.6442672,0.4256807,-0.03359616,1.109261,-0.1573768,0.2403067,-0.5763037,0.1071823,0.3266805,50.84479,31.29
3,-0.1773682,-0.3553925,0.9177246,1.0,-0.1750946,-0.3582458,0.9170532,-30.07442,7.626556,-37.24371,3.29071,0.4701782,0.4674796,1.0,-0.1797485,-0.3524017,0.9184113,29.71503,8.657654,-37.23723,3.398544,0.6457722,0.4258897,-0.03288627,1.108428,-0.1564688,0.2448847,-0.570742,0.1083504,0.3266805,50.84479,31.29
3,-0.1614685,-0.3555145,0.9206085,1.0,-0.1607666,-0.3650665,0.9169922,-30.09637,7.656143,-37.22632,3.136368,0.4684653,0.4675405,1.0,-0.1621704,-0.3457031,0.9242096,29.65544,8.663025,-37.22594,3.628845,0.6446941,0.4238929,-0.03221083,1.107503,-0.1553701,0.2494473,-0.5644367,0.1097663,0.3266805,50.84479,31.29
3,-0.1614685,-0.3555145,0.9206085,1.0,-0.1607666,-0.3650665,0.9169922,-30.09637,7.656143,-37.22632,3.136368,0.4684653,0.4675405,1.0,-0.1621704,-0.3457031,0.9242096,29.65544,8.663025,-37.22594,3.628845,0.6446941,0.4238929,-0.03221083,1.107503,-0.1553701,0.2494473,-0.5644367,0.1097663,0.3266805,50.84479,31.29
3,-0.1580505,-0.34729,0.9243317,1.0,-0.1580048,-0.349823,0.9233856,-30.11691,7.685684,-37.2148,3.109634,0.4687566,0.4633293,1.0,-0.1580811,-0.3448181,0.9252472,29.64412,8.683502,-37.21872,3.471436,0.6443582,0.422963,-0.03074729,1.105898,-0.1528239,0.2552483,-0.551304,0.1135519,0.3266805,50.84479,31.29
3,-0.1531677,-0.3385925,0.9283752,1.0,-0.1476898,-0.3442383,0.9271851,-30.09621,7.829407,-37.15613,3.138489,0.4661784,0.456407,1.0,-0.15802,-0.3335571,0.9293823,29.69417,8.747284,-37.18904,3.470413,0.6424701,0.4180375,-0.03004992,1.105185,-0.1514419,0.2574589,-0.5448393,0.1158477,0.3266805,-24.86908,31.29
3,-0.1441345,-0.3341522,0.931427,1.0,-0.1378784,-0.3463898,0.927887,-30.01579,7.921875,-37.11128,3.165253,0.461522,0.452971,1.0,-0.1486816,-0.3251801,0.9338837,29.79362,8.816422,-37.1528,3.572037,0.6369882,0.4133416,-0.02871788,1.103987,-0.1485342,0.2622413,-0.5308405,0.1196707,0.3266805,-24.86908,31.29
3,-0.1441345,-0.3341522,0.931427,1.0,-0.1378784,-0.3463898,0.927887,-30.01579,7.921875,-37.11128,3.165253,0.461522,0.452971,1.0,-0.1486816,-0.3251801,0.9338837,29.79362,8.816422,-37.1528,3.572037,0.6369882,0.4133416,-0.02871788,1.103987,-0.1485342,0.2622413,-0.5308405,0.1196707,0.3266805,-24.86908,31.29
3,-0.1416321,-0.3310547,0.9329071,1.0,-0.1367035,-0.3337097,0.9326935,-30.00023,7.847473,-37.13222,3.237366,0.4607282,0.4532725,1.0,-0.1450043,-0.3292084,0.9330444,29.77818,8.7948,-37.16734,3.649689,0.6368849,0.4150132,-0.02777767,1.103417,-0.1469796,0.2658867,-0.5223919,0.1207677,0.3266805,-24.86908,31.29
3,-0.1416321,-0.3310547,0.9329071,1.0,-0.1367035,-0.3337097,0.9326935,-30.00023,7.847473,-37.13222,3.237366,0.4607282,0.4532725,1.0,-0.1450043,-0.3292084,0.9330444,29.77818,8.7948,-37.16734,3.649689,0.6368849,0.4150132,-0.02777767,1.103417,-0.1469796,0.2658867,-0.5223919,0.1207677,0.3266805,-24.86908,31.29
3,-0.1746368,-0.3371887,0.9250946,1.0,-0.1729584,-0.3397369,0.924469,-30.13104,7.747375,-37.20868,3.17247,0.4719554,0.4591863,1.0,-0.175827,-0.3353577,0.9255219,29.5369,8.76358,-37.22018,3.513275,0.6517755,0.4181219,-0.02577853,1.102012,-0.1438593,0.2738386,-0.5033306,0.122939,0.3266805,-24.86908,31.29
4,-0.2399292,-0.3496399,0.9056244,0.8385091,-0.2369385,-0.3521423,0.9054413,-30.46327,7.594986,-37.3557,3.319839,0.4953574,0.4693071,0.9987063,-0.2447815,-0.3455658,0.905899,29.04208,8.726059,-37.35037,3.626068,0.6838316,0.423086,-0.02469587,1.101351,-0.1421697,0.2772245,-0.4928998,0.1241504,0.3266805,-24.86908,31.29
4,-0.2399292,-0.3496399,0.9056244,0.8385091,-0.2369385,-0.3521423,0.9054413,-30.46327,7.594986,-37.3557,3.319839,0.4953574,0.4693071,0.9987063,-0.2447815,-0.3455658,0.905899,29.04208,8.726059,-37.35037,3.626068,0.6838316,0.423086,-0.02469587,1.101351,-0.1421697,0.2772245,-0.4928998,0.1241504,0.3266805,-24.86908,31.29
4,-0.2689209,-0.3706818,0.8889618,0.9446898,-0.2580414,-0.3732452,0.8911133,-30.69646,7.525436,-37.45197,3.224503,0.5076496,0.4773551,0.9798496,-0.2980194,-0.3635254,0.8826141,28.84349,8.761261,-37.40915,3.826782,0.7018917,0.4263501,-0.02215695,1.100057,-0.1385103,0.2836014,-0.4717374,0.1272939,0.3266805,-24.86908,31.29
4,-0.2762451,-0.3639221,0.8895111,0.9446898,-0.2737579,-0.3722839,0.8868103,-30.80426,7.511566,-37.48436,3.355789,0.5143252,0.4781792,0.9798496,-0.282608,-0.3418884,0.896225,28.59261,8.687881,-37.47839,3.660553,0.7087109,0.4250159,-0.02065074,1.099328,-0.1366248,0.2866733,-0.4609107,0.1293843,0.3266805,-24.86908,31.29
4,-0.2863312,-0.3767395,0.8809357,1.0,-0.2919464,-0.3961945,0.8704987,-30.69107,7.692261,-37.39066,3.395981,0.5134735,0.4759029,1.0,-0.2746582,-0.337204,0.9004669,28.60542,8.723358,-37.45648,3.675201,0.7066535,0.4224036,-0.01754451,1.097931,-0.1327913,0.2913212,-0.4384343,0.1341095,0.3266805,-24.86908,31.29
4,-0.2863312,-0.3767395,0.8809357,1.0,-0.2919464,-0.3961945,0.8704987,-30.69107,7.692261,-37.39066,3.395981,0.5134735,0.4759029,1.0,-0.2746582,-0.337204,0.9004669,28.60542,8.723358,-37.45648,3.675201,0.7066535,0.4224036,-0.01754451,1.097931,-0.1327913,0.2913212,-0.4384343,0.1341095,0.3266805,-24.86908,31.29
4,-0.2823181,-0.3659363,0.8867798,1.0,-0.2893372,-0.392334,0.8731232,-30.62167,7.830994,-37.30951,3.327606,0.5105419,0.469336,1.0,-0.2736206,-0.334137,0.9019165,28.75758,8.759155,-37.41666,3.828003,0.7005266,0.420024,-0.01594257,1.097394,-0.1308897,0.2924865,-0.4276589,0.1365181,0.3266805,-24.86908,31.29
4,-0.2497101,-0.3394318,0.9068756,1.0,-0.2426758,-0.3489532,0.9051666,-30.70648,7.732529,-37.36192,3.350082,0.5051773,0.4639096,1.0,-0.2572632,-0.3290863,0.9085693,28.87971,8.812592,-37.35474,3.738815,0.6925779,0.4163828,-0.01463211,1.097175,-0.1290046,0.293213,-0.4177286,0.138383,0.3266805,-29.26801,31.29
4,-0.2497101,-0.3394318,0.9068756,1.0,-0.2426758,-0.3489532,0.9051666,-30.70648,7.732529,-37.36192,3.350082,0.5051773,0.4639096,1.0,-0.2572632,-0.3290863,0.9085693,28.87971,8.812592,-37.35474,3.738815,0.6925779,0.4163828,-0.01463211,1.097175,-0.1290046,0.293213,-0.4177286,0.138383,0.3266805,-53.54688,31.29
4,-0.2257843,-0.324173,0.9186401,1.0,-0.2232361,-0.3318634,0.9165192,-30.39241,7.889954,-37.23732,3.285416,0.4904085,0.453402,1.0,-0.2296295,-0.3124084,0.9217682,29.27489,8.938889,-37.23701,3.674225,0.6720853,0.4071974,-0.01178992,1.097059,-0.1256254,0.2956579,-0.3991718,0.1387822,0.3266805,-61.27081,31.29
4,-0.2048645,-0.3292542,0.9217377,1.0,-0.1989594,-0.335907,0.9206238,-30.26164,7.940216,-37.173,3.334076,0.4812857,0.4514403,1.0,-0.2168579,-0.315567,0.9237823,29.42326,8.97998,-37.19377,3.788651,0.6639655,0.4057995,-0.01028955,1.096785,-0.1240261,0.2956376,-0.3899018,0.1378882,0.3266805,-61.27081,31.29
4,-0.2048645,-0.3292542,0.9217377,1.0,-0.1989594,-0.335907,0.9206238,-30.26164,7.940216,-37.173,3.334076,0.4812857,0.4514403,1.0,-0.2168579,-0.315567,0.9237823,29.42326,8.97998,-37.19377,3.788651,0.6639655,0.4057995,-0.01028955,1.096785,-0.1240261,0.2956376,-0.3899018,0.1378882,0.3266805,-61.27081,31.29
4,-0.1849213,-0.3211212,0.9288025,1.0,-0.1747437,-0.329361,0.927887,-30.23608,7.96199,-37.16957,3.397705,0.4759905,0.449031,1.0,-0.2010651,-0.3078766,0.9299316,29.51057,9.012512,-37.1673,3.790344,0.6576674,0.4026985,-0.007184863,1.096518,-0.1208153,0.300146,-0.3707399,0.1363702,0.3266805,-61.27081,31.29
4,-0.1691589,-0.3165283,0.9333649,1.0,-0.1624451,-0.3238678,0.9320374,-30.22202,7.987961,-37.15169,3.328964,0.4733256,0.446748,1.0,-0.177536,-0.3073273,0.9348907,29.57574,8.960175,-37.16751,3.710968,0.6507301,0.4044847,-0.005528688,1.096508,-0.1193835,0.3019477,-0.3610966,0.1359421,0.3266805,-61.27081,31.29
4,-0.1540985,-0.3097687,0.9382324,1.0,-0.1485596,-0.3164063,0.9369049,-30.1846,8.004547,-37.13429,3.372238,0.4694855,0.4443635,1.0,-0.1607513,-0.3017273,0.9397278,29.61163,8.953735,-37.1588,3.640594,0.646213,0.403477,-0.003939033,1.096263,-0.1178972,0.3033205,-0.3513506,0.1361685,0.3266805,-61.27081,31.29
4,-0.1433258,-0.3037415,0.9418945,1.0,-0.1361694,-0.3112335,0.9405212,-30.12054,8.083603,-37.10043,3.436432,0.464952,0.4400534,1.0,-0.1520538,-0.2945251,0.9434509,29.69156,8.980515,-37.13893,3.812042,0.6415927,0.400707,-0.001851797,1.095928,-0.1165084,0.3041813,-0.3420799,0.1360322,0.3266805,-61.27081,31.29
4,-0.1376648,-0.2990417,0.9442444,1.0,-0.1230927,-0.3056641,0.9441376,-30.07956,8.12674,-37.07925,3.318314,0.4612073,0.4371428,1.0,-0.149704,-0.2935181,0.9441528,29.74001,9.005463,-37.12523,3.708359,0.6393244,0.3995278,0.001722455,1.095318,-0.1137034,0.3050252,-0.3231623,0.1346472,0.3266805,-61.27081,31.29
4,-0.1376648,-0.2990417,0.9442444,1.0,-0.1230927,-0.3056641,0.9441376,-30.07956,8.12674,-37.07925,3.318314,0.4612073,0.4371428,1.0,-0.149704,-0.2935181,0.9441528,29.74001,9.005463,-37.12523,3.708359,0.6393244,0.3995278,0.001722455,1.095318,-0.1137034,0.3050252,-0.3231623,0.1346472,0.3266805,-61.27081,31.29
4,-0.1152039,-0.29039,0.9499359,1.0,-0.1081085,-0.2967072,0.948822,-30.01578,8.253662,-37.03432,3.413635,0.4562311,0.4302482,1.0,-0.1207275,-0.2854309,0.9507446,29.80025,9.127121,-37.08173,3.80011,0.6317085,0.3927754,0.003479481,1.095222,-0.1122652,0.3069114,-0.3140068,0.1346707,0.3266805,-61.27081,31.29
4,-0.101532,-0.2834167,0.953598,1.0,-0.09872437,-0.2897491,0.9519806,-29.90079,8.314804,-37.00644,3.441193,0.4504288,0.4263221,1.0,-0.1037445,-0.2783966,0.954834,29.93393,9.163269,-37.06239,3.89238,0.6235744,0.3897777,0.007193685,1.095122,-0.1098214,0.3101731,-0.2957678,0.1336591,0.3266805,-61.27081,31.29
4,-0.101532,-0.2834167,0.953598,1.0,-0.09872437,-0.2897491,0.9519806,-29.90079,8.314804,-37.00644,3.441193,0.4504288,0.4263221,1.0,-0.1037445,-0.2783966,0.954834,29.93393,9.163269,-37.06239,3.89238,0.6235744,0.3897777,0.007193685,1.095122,-0.1098214,0.3101731,-0.2957678,0.1336591,0.3266805,-61.27081,31.29
4,-0.1321564,-0.3084106,0.9420166,1.0,-0.1281586,-0.315033,0.9403687,-29.99655,8.222,-37.05486,3.380753,0.4590992,0.4353214,1.0,-0.1356049,-0.3026886,0.9433899,29.63609,9.130966,-37.10881,3.719574,0.6406357,0.3963985,0.009069562,1.094968,-0.1085674,0.3108665,-0.2872168,0.1332271,0.3266805,-61.27081,31.29
4,-0.1754456,-0.315033,0.9327087,1.0,-0.16745,-0.3186798,0.9329529,-30.2404,8.156342,-37.12051,3.440521,0.4748623,0.4394041,1.0,-0.1879883,-0.3092804,0.9321899,29.27512,9.153793,-37.17349,3.827499,0.6642441,0.3974434,0.01074588,1.094974,-0.1074002,0.3111716,-0.2789702,0.1326953,0.3266805,-61.27081,31.29
4,-0.1754456,-0.315033,0.9327087,1.0,-0.16745,-0.3186798,0.9329529,-30.2404,8.156342,-37.12051,3.440521,0.4748623,0.4394041,1.0,-0.1879883,-0.3092804,0.9321899,29.27512,9.153793,-37.17349,3.827499,0.6642441,0.3974434,0.01074588,1.094974,-0.1074002,0.3111716,-0.2789702,0.1326953,0.3266805,-61.27081,31.29
4,-0.1753845,-0.3312225,0.9270935,1.0,-0.1748199,-0.3368835,0.9251709,-30.25864,8.097366,-37.15283,3.464127,0.4767856,0.4454678,1.0,-0.1766968,-0.3177643,0.9315491,29.1371,9.141739,-37.19255,3.67337,0.6673242,0.3997597,0.01413655,1.095086,-0.1050391,0.3114065,-0.2631731,0.1305706,0.3266805,-61.27081,31.29
4,-0.1847229,-0.3393097,0.922348,1.0,-0.1803589,-0.3477783,0.9200592,-30.30746,8.065887,-37.17989,3.45575,0.4795177,0.4490736,1.0,-0.1959686,-0.317215,0.9278717,29.0806,9.106247,-37.22118,3.705399,0.6731633,0.4013086,0.01413655,1.095086,-0.1050391,0.3114065,-0.2631731,0.1305706,0.3266805,-86.36389,31.29
4,-0.1761322,-0.3514252,0.9194794,1.0,-0.1732941,-0.361084,0.916275,-30.27766,8.002274,-37.2038,3.344711,0.4772018,0.4541934,1.0,-0.181015,-0.3346405,0.9247894,29.14685,9.065857,-37.22493,3.727737,0.6677304,0.4063546,0.01761711,1.095034,-0.1029335,0.3117009,-0.248412,0.1278776,0.3266805,-86.36389,31.29
4,-0.1733398,-0.3438873,0.9228668,1.0,-0.1663666,-0.3535767,0.9204865,-30.26253,8.012573,-37.19092,3.373779,0.4754135,0.4521211,1.0,-0.1820831,-0.3316193,0.9256592,29.2267,9.062195,-37.22011,3.694321,0.6648943,0.4059187,0.02072847,1.094733,-0.1012267,0.3124111,-0.2352897,0.1262097,0.3266805,-86.36389,31.29
4,-0.1733398,-0.3438873,0.9228668,1.0,-0.1663666,-0.3535767,0.9204865,-30.26253,8.012573,-37.19092,3.373779,0.4754135,0.4521211,1.0,-0.1820831,-0.3316193,0.9256592,29.2267,9.062195,-37.22011,3.694321,0.6648943,0.4059187,0.02072847,1.094733,-0.1012267,0.3124111,-0.2352897,0.1262097,0.3266805,-86.36389,31.29
4,-0.1658478,-0.3450317,0.9238129,1.0,-0.1558075,-0.3530273,0.9225311,-30.22005,8.027252,-37.1778,3.382126,0.4719875,0.4512424,1.0,-0.1744843,-0.338089,0.9247894,29.33461,9.071869,-37.20284,3.85878,0.6593484,0.4065884,0.02378809,1.09439,-0.09961283,0.3141924,-0.222773,0.1250712,0.3266805,-86.36389,31.29
4,-0.1658478,-0.3450317,0.9238129,1.0,-0.1558075,-0.3530273,0.9225311,-30.22005,8.027252,-37.1778,3.382126,0.4719875,0.4512424,1.0,-0.1744843,-0.338089,0.9247894,29.33461,9.071869,-37.20284,3.85878,0.6593484,0.4065884,0.02378809,1.09439,-0.09961283,0.3141924,-0.222773,0.1250712,0.3266805,-86.36389,31.29
4,-0.1527405,-0.3406982,0.9276733,1.0,-0.1516418,-0.3486786,0.924881,-30.17091,8.125687,-37.14082,3.427338,0.4694731,0.4464215,1.0,-0.154129,-0.3304138,0.9311523,29.45087,9.12645,-37.16388,3.817001,0.6511148,0.4025975,0.02650678,1.093957,-0.0982492,0.3157493,-0.2114351,0.1239913,0.3266805,-86.36389,31.29
4,-0.1527405,-0.3406982,0.9276733,1.0,-0.1516418,-0.3486786,0.924881,-30.17091,8.125687,-37.14082,3.427338,0.4694731,0.4464215,1.0,-0.154129,-0.3304138,0.9311523,29.45087,9.12645,-37.16388,3.817001,0.6511148,0.4025975,0.02650678,1.093957,-0.0982492,0.3157493,-0.2114351,0.1239913,0.3266805,-86.36389,31.29
4,-0.1317902,-0.3421173,0.9303589,1.0,-0.1255798,-0.3472748,0.929306,-30.13982,8.219971,-37.10071,3.388397,0.4637256,0.4421669,1.0,-0.1399536,-0.3352966,0.9316559,29.54848,9.203598,-37.12958,3.740524,0.6447648,0.4004327,0.029302,1.093281,-0.09701955,0.3182127,-0.2004526,0.1226903,0.3266805,-86.36389,31.29
4,-0.1317902,-0.3421173,0.9303589,1.0,-0.1255798,-0.3472748,0.929306,-30.13982,8.219971,-37.10071,3.388397,0.4637256,0.4421669,1.0,-0.1399536,-0.3352966,0.9316559,29.54848,9.203598,-37.12958,3.740524,0.6447648,0.4004327,0.029302,1.093281,-0.09701955,0.3182127,-0.2004526,0.1226903,0.3266805,-86.36389,31.29
4,-0.1299286,-0.3344421,0.9334106,1.0,-0.1265411,-0.3386841,0.9323425,-30.08446,8.261597,-37.07329,3.440155,0.4619067,0.4386917,1.0,-0.1340332,-0.3292999,0.9346466,29.59462,9.229187,-37.11581,3.769272,0.6419343,0.3980964,0.03235424,1.092942,-0.09580731,0.3206241,-0.1902268,0.1213464,0.3266805,-86.36389,31.29
4,-0.1299286,-0.3344421,0.9334106,1.0,-0.1265411,-0.3386841,0.9323425,-30.08446,8.261597,-37.07329,3.440155,0.4619067,0.4386917,1.0,-0.1340332,-0.3292999,0.9346466,29.59462,9.229187,-37.11581,3.769272,0.6419343,0.3980964,0.03235424,1.092942,-0.09580731,0.3206241,-0.1902268,0.1213464,0.3266805,-86.36389,31.29
4,-0.1191254,-0.3252258,0.9380951,1.0,-0.1109772,-0.33255,0.9365234,-30.03772,8.365036,-37.03346,3.236328,0.4575554,0.4333672,1.0,-0.1260223,-0.318985,0.9393311,29.6963,9.287827,-37.08894,3.841873,0.6366497,0.3935154,0.03508651,1.092476,-0.09472656,0.3231418,-0.1818143,0.1209031,0.3266805,-86.36389,31.29
4,-0.1191254,-0.3252258,0.9380951,1.0,-0.1109772,-0.33255,0.9365234,-30.03772,8.365036,-37.03346,3.236328,0.4575554,0.4333672,1.0,-0.1260223,-0.318985,0.9393311,29.6963,9.287827,-37.08894,3.841873,0.6366497,0.3935154,0.03508651,1.092476,-0.09472656,0.3231418,-0.1818143,0.1209031,0.3266805,-86.36389,31.29
4,-0.09390259,-0.3206177,0.9425354,1.0,-0.08824158,-0.331192,0.9394226,-29.99289,8.496109,-36.99513,3.382446,0.4518471,0.4277758,1.0,-0.09875488,-0.3114777,0.9450989,29.80852,9.37114,-37.05397,3.694489,0.6273665,0.3886253,0.03747225,1.091959,-0.09386557,0.3257267,-0.1741187,0.1200977,0.3266805,-86.36389,31.29
4,-0.09390259,-0.3206177,0.9425354,1.0,-0.08824158,-0.331192,0.9394226,-29.99289,8.496109,-36.99513,3.382446,0.4518471,0.4277758,1.0,-0.09875488,-0.3114777,0.9450989,29.80852,9.37114,-37.05397,3.694489,0.6273665,0.3886253,0.03747225,1.091959,-0.09386557,0.3257267,-0.1741187,0.1200977,0.3266805,-86.36389,31.29
4,-0.09056091,-0.3128052,0.9454803,1.0,-0.08757019,-0.3268738,0.9409943,-29.9756,8.508026,-36.99185,3.487778,0.4510768,0.4264027,1.0,-0.09321594,-0.3001251,0.9493256,29.83058,9.385422,-37.04758,3.735229,0.6255438,0.3857068,0.03969491,1.091338,-0.0931617,0.3284808,-0.1666705,0.118742,0.3266805,28.97882,31.29
4,-0.09056091,-0.3128052,0.9454803,1.0,-0.08757019,-0.3268738,0.9409943,-29.9756,8.508026,-36.99185,3.487778,0.4510768,0.4264027,1.0,-0.09321594,-0.3001251,0.9493256,29.83058,9.385422,-37.04758,3.735229,0.6255438,0.3857068,0.03969491,1.091338,-0.0931617,0.3284808,-0.1666705,0.118742,0.3266805,28.97882,31.29
4,-0.01794434,-0.380188,0.9247284,0.8967915,-0.0149231,-0.3866577,0.9220886,-29.44995,8.158066,-37.10368,3.485825,0.4189861,0.4512827,0.9884338,-0.02064514,-0.3743744,0.9270325,30.06926,9.102081,-37.14256,3.678818,0.6031509,0.4122038,0.04171908,1.090649,-0.09253824,0.3316802,-0.1605678,0.1174838,0.3266805,28.97882,31.29
4,-0.01794434,-0.380188,0.9247284,0.8967915,-0.0149231,-0.3866577,0.9220886,-29.44995,8.158066,-37.10368,3.485825,0.4189861,0.4512827,0.9884338,-0.02064514,-0.3743744,0.9270325,30.06926,9.102081,-37.14256,3.678818,0.6031509,0.4122038,0.04171908,1.090649,-0.09253824,0.3316802,-0.1605678,0.1174838,0.3266805,28.97882,31.29
4,0.04222107,-0.4403687,0.8968048,0.8081305,0.04145813,-0.4528046,0.8906403,-29.07248,7.849884,-37.26277,3.388901,0.3949265,0.4770974,0.9255725,0.04251099,-0.4353638,0.8992462,30.27309,8.793564,-37.30186,3.710846,0.5841197,0.4377061,0.04370379,1.089905,-0.09209728,0.3355809,-0.1547152,0.1164381,0.3266805,28.97882,31.29
4,0.04222107,-0.4403687,0.8968048,0.8081305,0.04145813,-0.4528046,0.8906403,-29.07248,7.849884,-37.26277,3.388901,0.3949265,0.4770974,0.9255725,0.04251099,-0.4353638,0.8992462,30.27309,8.793564,-37.30186,3.710846,0.5841197,0.4377061,0.04370379,1.089905,-0.09209728,0.3355809,-0.1547152,0.1164381,0.3266805,28.97882,31.29
4,0.0562439,-0.4606934,0.8857574,0.7349998,0.05923462,-0.4719543,0.8796082,-28.98206,7.767151,-37.31769,3.530853,0.3883217,0.4844158,0.8833344,0.05488586,-0.4555817,0.8884888,30.36072,8.689651,-37.36182,3.671005,0.5786391,0.4463919,0.0455457,1.089069,-0.09205765,0.3408716,-0.1485423,0.114646,0.3266805,28.97882,31.29
4,0.0562439,-0.4606934,0.8857574,0.7349998,0.05923462,-0.4719543,0.8796082,-28.98206,7.767151,-37.31769,3.530853,0.3883217,0.4844158,0.8833344,0.05488586,-0.4555817,0.8884888,30.36072,8.689651,-37.36182,3.671005,0.5786391,0.4463919,0.0455457,1.089069,-0.09205765,0.3408716,-0.1485423,0.114646,0.3266805,28.97882,31.29
4,0.05799866,-0.4579468,0.8870697,0.6817592,0.06335449,-0.4632721,0.8839264,-29.01381,7.778763,-37.30597,3.353043,0.3887821,0.4822485,0.8262941,0.05192566,-0.4518585,0.890564,30.45406,8.686966,-37.35727,3.588852,0.5756766,0.4457282,0.04731011,1.088248,-0.09208977,0.3457932,-0.1427172,0.1129603,0.3266805,28.97882,31.29
4,0.05799866,-0.4579468,0.8870697,0.6817592,0.06335449,-0.4632721,0.8839264,-29.01381,7.778763,-37.30597,3.353043,0.3887821,0.4822485,0.8262941,0.05192566,-0.4518585,0.890564,30.45406,8.686966,-37.35727,3.588852,0.5756766,0.4457282,0.04731011,1.088248,-0.09208977,0.3457932,-0.1427172,0.1129603,0.3266805,28.97882,31.29
4,0.06097412,-0.4579926,0.8868561,0.6769524,0.06495667,-0.4624939,0.8842316,-29.02696,7.828537,-37.28677,3.383301,0.3889981,0.480095,0.8267569,0.05635071,-0.4527283,0.8898468,30.5343,8.726791,-37.36052,3.723251,0.5719554,0.4443719,0.04899502,1.087445,-0.09200364,0.3497432,-0.1381598,0.1123688,0.3266805,28.97882,31.29
4,0.06434631,-0.448822,0.8912964,0.675559,0.06370544,-0.4550934,0.8881531,-29.01784,7.867142,-37.26535,3.350159,0.3889345,0.4770021,0.825942,0.06503296,-0.4418793,0.8946991,30.58238,8.734802,-37.35417,3.67189,0.5685582,0.4418265,0.05049777,1.086862,-0.09184372,0.3529291,-0.1344625,0.1124794,0.3266805,28.97882,31.29
4,0.06434631,-0.448822,0.8912964,0.675559,0.06370544,-0.4550934,0.8881531,-29.01784,7.867142,-37.26535,3.350159,0.3889345,0.4770021,0.825942,0.06503296,-0.4418793,0.8946991,30.58238,8.734802,-37.35417,3.67189,0.5685582,0.4418265,0.05049777,1.086862,-0.09184372,0.3529291,-0.1344625,0.1124794,0.3266805,28.97882,31.29
4,0.06434631,-0.448822,0.8912964,0.675559,0.06370544,-0.4550934,0.8881531,-29.01784,7.867142,-37.26535,3.350159,0.3889345,0.4770021,0.825942,0.06503296,-0.4418793,0.8946991,30.58238,8.734802,-37.35417,3.67189,0.5685582,0.4418265,0.05049777,1.086862,-0.09184372,0.3529291,-0.1344625,0.1124794,0.3266805,28.97882,31.29
4,0.07081604,-0.438858,0.895752,0.6488182,0.06364441,-0.4485931,0.8914642,-28.99217,7.914886,-37.23711,3.373062,0.3880582,0.4736388,0.80185,0.07919312,-0.4274139,0.9005737,30.62793,8.75502,-37.34442,3.529709,0.56422,0.43816,0.05148005,1.086398,-0.0915727,0.3545482,-0.1312947,0.1128051,0.3266805,39.56213,31.29
4,0.07081604,-0.438858,0.895752,0.6488182,0.06364441,-0.4485931,0.8914642,-28.99217,7.914886,-37.23711,3.373062,0.3880582,0.4736388,0.80185,0.07919312,-0.4274139,0.9005737,30.62793,8.75502,-37.34442,3.529709,0.56422,0.43816,0.05148005,1.086398,-0.0915727,0.3545482,-0.1312947,0.1128051,0.3266805,39.56213,31.29
4,0.07348633,-0.439621,0.8951569,0.6491236,0.06355286,-0.4508972,0.8902893,-29.00299,7.9496,-37.23192,3.413849,0.3884718,0.4727853,0.8040451,0.08511353,-0.4262543,0.9005737,30.69092,8.80751,-37.3389,3.665604,0.5608723,0.4358509,0.05254638,1.0865,-0.09111094,0.3546589,-0.1291405,0.1129754,0.3266805,39.56213,31.29
4,0.07348633,-0.439621,0.8951569,0.6491236,0.06355286,-0.4508972,0.8902893,-29.00299,7.9496,-37.23192,3.413849,0.3884718,0.4727853,0.8040451,0.08511353,-0.4262543,0.9005737,30.69092,8.80751,-37.3389,3.665604,0.5608723,0.4358509,0.05254638,1.0865,-0.09111094,0.3546589,-0.1291405,0.1129754,0.3266805,39.56213,31.29
4,0.07609558,-0.4403687,0.894577,0.6461541,0.06556702,-0.4534149,0.8888702,-28.99416,7.96492,-37.22452,3.414322,0.3877918,0.472672,0.7945931,0.08837891,-0.4249573,0.9008789,30.74422,8.845901,-37.32233,3.752426,0.5583381,0.4339459,0.05326343,1.086615,-0.09070647,0.3543253,-0.1277237,0.1133884,0.3266805,39.56213,31.29
4,0.07609558,-0.4403687,0.894577,0.6461541,0.06556702,-0.4534149,0.8888702,-28.99416,7.96492,-37.22452,3.414322,0.3877918,0.472672,0.7945931,0.08837891,-0.4249573,0.9008789,30.74422,8.845901,-37.32233,3.752426,0.5583381,0.4339459,0.05326343,1.086615,-0.09070647,0.3543253,-0.1277237,0.1133884,0.3266805,39.56213,31.29
4,0.07237244,-0.4333801,0.8982849,0.6522158,0.06481934,-0.4511261,0.8900909,-28.98878,7.987564,-37.21838,3.426147,0.3877437,0.4713202,0.7875744,0.08070374,-0.4135284,0.9069061,30.78299,8.843063,-37.31674,3.737976,0.5582826,0.4316176,0.0538094,1.086627,-0.09049737,0.3545922,-0.1267339,0.1135161,0.3266805,39.56213,31.29
4,0.07237244,-0.4333801,0.8982849,0.6522158,0.06481934,-0.4511261,0.8900909,-28.98878,7.987564,-37.21838,3.426147,0.3877437,0.4713202,0.7875744,0.08070374,-0.4135284,0.9069061,30.78299,8.843063,-37.31674,3.737976,0.5582826,0.4316176,0.0538094,1.086627,-0.09049737,0.3545922,-0.1267339,0.1135161,0.3266805,39.56213,31.29
4,0.07530212,-0.4321442,0.8986359,0.652354,0.06478882,-0.4463501,0.8925018,-28.98047,7.980453,-37.21663,3.43721,0.3874591,0.4705632,0.7785789,0.08607483,-0.4174042,0.9046326,30.79877,8.812012,-37.33989,3.807129,0.5567591,0.4337434,0.05415797,1.086581,-0.09060204,0.3555933,-0.1257153,0.1131526,0.3266805,39.56213,31.29
4,0.07704163,-0.4330902,0.8980408,0.6580869,0.06529236,-0.4454651,0.8928986,-28.98132,7.976257,-37.21938,3.438416,0.3873965,0.4705632,0.7913672,0.08935547,-0.4199677,0.9031219,30.80112,8.809677,-37.3439,3.808212,0.5560787,0.4344176,0.05472398,1.08643,-0.09076214,0.3562616,-0.1250878,0.1126958,0.3266805,39.56213,31.29
4,0.07704163,-0.4330902,0.8980408,0.6580869,0.06529236,-0.4454651,0.8928986,-28.98132,7.976257,-37.21938,3.438416,0.3873965,0.4705632,0.7913672,0.08935547,-0.4199677,0.9031219,30.80112,8.809677,-37.3439,3.808212,0.5560787,0.4344176,0.05472398,1.08643,-0.09076214,0.3562616,-0.1250878,0.1126958,0.3266805,39.56213,31.29
4,0.07704163,-0.4330902,0.8980408,0.6580869,0.06529236,-0.4454651,0.8928986,-28.98132,7.976257,-37.21938,3.438416,0.3873965,0.4705632,0.7913672,0.08935547,-0.4199677,0.9031219,30.80112,8.809677,-37.3439,3.808212,0.5560787,0.4344176,0.05472398,1.08643,-0.09076214,0.3562616,-0.1250878,0.1126958,0.3266805,39.56213,31.29
4,0.08018494,-0.4306183,0.8989563,0.6644727,0.07180786,-0.4434204,0.8934174,-28.983,7.96492,-37.22014,3.438202,0.3862888,0.4705632,0.7829598,0.08908081,-0.4168854,0.9045715,30.8062,8.809067,-37.34747,3.832504,0.5559512,0.4338078,0.05481243,1.086109,-0.09104526,0.3573501,-0.124422,0.1122568,0.3266805,39.56213,31.29
4,0.08018494,-0.4306183,0.8989563,0.6644727,0.07180786,-0.4434204,0.8934174,-28.983,7.96492,-37.22014,3.438202,0.3862888,0.4705632,0.7829598,0.08908081,-0.4168854,0.9045715,30.8062,8.809067,-37.34747,3.832504,0.5559512,0.4338078,0.05481243,1.086109,-0.09104526,0.3573501,-0.124422,0.1122568,0.3266805,39.56213,31.29
4,0.08241272,-0.4291077,0.8994751,0.6580381,0.07501221,-0.4409943,0.8943634,-28.983,7.950714,-37.22188,3.489716,0.3857142,0.4705632,0.7930586,0.08992004,-0.4169159,0.90448,30.81131,8.807587,-37.3484,3.851944,0.5556179,0.4338722,0.055035,1.085973,-0.09129727,0.3585601,-0.124047,0.1116545,0.3266805,39.56213,31.29
4,0.08483887,-0.4279938,0.8997803,0.66861,0.07600403,-0.4396973,0.8949127,-28.983,7.946655,-37.22438,3.518356,0.3855347,0.4704508,0.7857868,0.09359741,-0.4162598,0.9044037,30.81508,8.807358,-37.34872,3.878357,0.5548189,0.4337434,0.05520117,1.085838,-0.0913862,0.358986,-0.124186,0.1116158,0.3266805,25.90735,31.29
4,0.08483887,-0.4279938,0.8997803,0.66861,0.07600403,-0.4396973,0.8949127,-28.983,7.946655,-37.22438,3.518356,0.3855347,0.4704508,0.7857868,0.09359741,-0.4162598,0.9044037,30.81508,8.807358,-37.34872,3.878357,0.5548189,0.4337434,0.05520117,1.085838,-0.0913862,0.358986,-0.124186,0.1116158,0.3266805,25.90735,31.29
4,0.08460999,-0.4285736,0.8995209,0.658681,0.07662964,-0.4396973,0.8948669,-28.98434,7.946548,-37.22534,3.534714,0.3854707,0.4704508,0.7864023,0.09342957,-0.416153,0.9044647,30.81598,8.807587,-37.35229,3.878204,0.5548189,0.4337434,0.05522978,1.085873,-0.09142625,0.3593226,-0.1242363,0.1116404,0.3266805,25.90735,31.29
4,0.08534241,-0.4285583,0.8994598,0.6548072,0.0774231,-0.4395599,0.8948517,-28.98825,7.946548,-37.22708,3.532684,0.3854707,0.4704508,0.784192,0.09405518,-0.4163361,0.9043274,30.81598,8.808716,-37.35486,3.919815,0.5547264,0.4337434,0.05530596,1.085684,-0.09160352,0.3599708,-0.1246611,0.1114488,0.3266805,25.90735,31.29
4,0.08534241,-0.4285583,0.8994598,0.6548072,0.0774231,-0.4395599,0.8948517,-28.98825,7.946548,-37.22708,3.532684,0.3854707,0.4704508,0.784192,0.09405518,-0.4163361,0.9043274,30.81598,8.808716,-37.35486,3.919815,0.5547264,0.4337434,0.05530596,1.085684,-0.09160352,0.3599708,-0.1246611,0.1114488,0.3266805,25.90735,31.29
4,0.08601379,-0.4282532,0.8995361,0.6555988,0.07823181,-0.439743,0.8946991,-28.99182,7.946548,-37.22734,3.534836,0.385453,0.4704849,0.7910177,0.09458923,-0.4154816,0.9046631,30.81598,8.808716,-37.35692,3.932434,0.5546373,0.4335684,0.05529368,1.085542,-0.09170496,0.3603069,-0.1249213,0.1114594,0.3266805,25.90735,31.29
4,0.06256104,-0.4533539,0.8891144,0.6602933,0.05252075,-0.4699097,0.8811493,-29.14993,7.835358,-37.28784,3.630829,0.3956844,0.4812244,0.7760863,0.07220459,-0.4372559,0.8964233,30.54243,8.720337,-37.40329,3.941101,0.5688726,0.4416651,0.05517924,1.085404,-0.09172142,0.3605648,-0.1252528,0.1113462,0.3266805,25.90735,31.29
4,0.04698181,-0.4654846,0.8837891,0.6304404,0.04067993,-0.4881744,0.8717804,-29.20839,7.765381,-37.3481,3.517059,0.399835,0.4882329,0.7759346,0.05238342,-0.4457092,0.893631,30.44553,8.684509,-37.42294,3.996948,0.5761061,0.4448111,0.05501282,1.085389,-0.0917573,0.3611062,-0.1255004,0.1108138,0.3266805,25.90735,31.29
4,0.04698181,-0.4654846,0.8837891,0.6304404,0.04067993,-0.4881744,0.8717804,-29.20839,7.765381,-37.3481,3.517059,0.399835,0.4882329,0.7759346,0.05238342,-0.4457092,0.893631,30.44553,8.684509,-37.42294,3.996948,0.5761061,0.4448111,0.05501282,1.085389,-0.0917573,0.3611062,-0.1255004,0.1108138,0.3266805,25.90735,31.29
4,0.04638672,-0.4590912,0.8871613,0.6346943,0.040802,-0.4778748,0.8774719,-29.19398,7.729675,-37.34796,3.487381,0.3993108,0.4874007,0.7582565,0.05029297,-0.4458008,0.8937073,30.44388,8.684326,-37.42743,3.85733,0.5764989,0.4449902,0.05488002,1.085339,-0.09178597,0.3612391,-0.1255971,0.1104293,0.3266805,25.90735,31.29
4,0.04371643,-0.4624481,0.8855591,0.6332909,0.03997803,-0.4817505,0.8753815,-29.22246,7.75,-37.3445,3.569138,0.4004849,0.4873809,0.7559455,0.04623413,-0.4492798,0.8921814,30.44388,8.684326,-37.4321,3.869888,0.5772504,0.4457349,0.05484283,1.085306,-0.09174144,0.3611004,-0.1256479,0.1100925,0.3266805,25.90735,31.29
4,0.04382324,-0.4625549,0.885498,0.6330025,0.03912354,-0.4789581,0.8769531,-29.2325,7.750473,-37.34299,3.570541,0.4010135,0.4867641,0.7498885,0.04743958,-0.4497528,0.8918762,30.43796,8.687225,-37.43219,3.870346,0.5772504,0.4457349,0.05476713,1.085395,-0.09162891,0.3610637,-0.1256069,0.1097469,0.3266805,25.90735,31.29
4,0.04394531,-0.4640808,0.8846893,0.6330025,0.03894043,-0.4800568,0.876358,-29.23598,7.750229,-37.34364,3.573792,0.4011698,0.4870041,0.7498885,0.04829407,-0.4500275,0.8916931,30.43529,8.685776,-37.43253,3.887756,0.5772005,0.4458299,0.05471551,1.085312,-0.09155321,0.3612873,-0.1256955,0.109395,0.3266805,25.90735,31.29
4,0.04394531,-0.4640808,0.8846893,0.6330025,0.03894043,-0.4800568,0.876358,-29.23598,7.750229,-37.34364,3.573792,0.4011698,0.4870041,0.7498885,0.04829407,-0.4500275,0.8916931,30.43529,8.685776,-37.43253,3.887756,0.5772005,0.4458299,0.05471551,1.085312,-0.09155321,0.3612873,-0.1256955,0.109395,0.3266805,25.90735,31.29
4,0.04524231,-0.4672546,0.8829498,0.6188915,0.04206848,-0.4812317,0.8755798,-29.24246,7.749054,-37.34439,3.570297,0.4008408,0.4873125,0.7487795,0.04879761,-0.4513855,0.890976,30.4305,8.683395,-37.43253,3.911636,0.5772972,0.446188,0.05458152,1.085219,-0.091618,0.3615407,-0.1256866,0.1093672,0.3266805,25.90735,31.29
4,0.04524231,-0.4672546,0.8829498,0.6188915,0.04206848,-0.4812317,0.8755798,-29.24246,7.749054,-37.34439,3.570297,0.4008408,0.4873125,0.7487795,0.04879761,-0.4513855,0.890976,30.4305,8.683395,-37.43253,3.911636,0.5772972,0.446188,0.05458152,1.085219,-0.091618,0.3615407,-0.1256866,0.1093672,0.3266805,25.90735,31.29
4,0.04444885,-0.4664307,0.8834229,0.6323543,0.04141235,-0.479187,0.8767242,-29.24812,7.745407,-37.34546,3.559784,0.4011698,0.4870402,0.7489967,0.04786682,-0.451889,0.8907776,30.42447,8.681824,-37.43335,3.911575,0.5776911,0.4463569,0.05459654,1.084912,-0.09170127,0.3621382,-0.1259536,0.10972,0.3266805,-31.5524,31.29
4,0.04412842,-0.4675446,0.8828583,0.6198785,0.04156494,-0.4794464,0.8765717,-29.25377,7.746429,-37.34439,3.559845,0.4013476,0.4870462,0.7399056,0.04743958,-0.4520416,0.8907166,30.41882,8.681824,-37.43317,3.943527,0.5779892,0.4463569,0.0545994,1.084716,-0.09166455,0.3626619,-0.1260386,0.1097533,0.3266805,-31.5524,31.29
4,0.04389954,-0.4674835,0.8829041,0.6269412,0.04164124,-0.4790802,0.87677,-29.26045,7.748779,-37.34425,3.550049,0.4015799,0.4868948,0.7441047,0.04679871,-0.4523315,0.8906097,30.41576,8.683395,-37.43253,3.93483,0.5782165,0.4463569,0.05479968,1.08434,-0.09176934,0.3640876,-0.1260387,0.1097322,0.3266805,-31.5524,31.29
4,0.04389954,-0.4674835,0.8829041,0.6269412,0.04164124,-0.4790802,0.87677,-29.26045,7.748779,-37.34425,3.550049,0.4015799,0.4868948,0.7441047,0.04679871,-0.4523315,0.8906097,30.41576,8.683395,-37.43253,3.93483,0.5782165,0.4463569,0.05479968,1.08434,-0.09176934,0.3640876,-0.1260387,0.1097322,0.3266805,-31.5524,31.29
5,0.04309082,-0.4669495,0.8832245,0.6341876,0.04040527,-0.4786377,0.8770599,-29.26736,7.748993,-37.34384,3.550629,0.402055,0.4868002,0.7389859,0.04650879,-0.4519043,0.8908386,30.41162,8.683151,-37.43219,3.94812,0.5784292,0.4462626,0.05496562,1.084124,-0.09189159,0.3650867,-0.1261165,0.1098869,0.3266805,-31.5524,31.29
5,0.04371643,-0.4654541,0.8839722,0.6350196,0.0403595,-0.4780884,0.8773804,-29.27583,7.749451,-37.34346,3.550247,0.4023734,0.4866631,0.7316981,0.04750061,-0.4510803,0.8912048,30.40392,8.683151,-37.43147,3.969177,0.5785397,0.4460653,0.05510199,1.083769,-0.09204412,0.3661528,-0.1261909,0.1100149,0.3266805,-31.5524,31.29
5,0.04751587,-0.4649353,0.8840485,0.6166992,0.04110718,-0.4776459,0.8775787,-29.28001,7.749451,-37.34346,3.550018,0.4023914,0.4865726,0.714074,0.05459595,-0.4507599,0.8909607,30.36642,8.681183,-37.42693,3.952972,0.5786329,0.4460653,0.05521202,1.083344,-0.09220815,0.3671749,-0.126198,0.1099305,0.3266805,-31.5524,31.29
5,0.04652405,-0.4619293,0.8856812,0.6095707,0.03979492,-0.4744568,0.879364,-29.28976,7.74971,-37.34268,3.549484,0.4029902,0.485901,0.7284857,0.05302429,-0.449707,0.8915863,30.36642,8.683151,-37.42693,3.98526,0.5789295,0.4457383,0.05538762,1.082446,-0.09249735,0.3692437,-0.1259683,0.1094226,0.3266805,-31.5524,31.29
5,0.04652405,-0.4619293,0.8856812,0.6095707,0.03979492,-0.4744568,0.879364,-29.28976,7.74971,-37.34268,3.549484,0.4029902,0.485901,0.7284857,0.05302429,-0.449707,0.8915863,30.36642,8.683151,-37.42693,3.98526,0.5789295,0.4457383,0.05538762,1.082446,-0.09249735,0.3692437,-0.1259683,0.1094226,0.3266805,-31.5524,31.29
5,0.05072021,-0.4550629,0.8890076,0.6122402,0.04823303,-0.4633484,0.8848572,-29.36852,7.839676,-37.3112,3.570633,0.4044118,0.4800835,0.7203423,0.05307007,-0.4472504,0.8928223,30.36642,8.68544,-37.4231,4.012527,0.5789295,0.445091,0.05566895,1.08215,-0.09256983,0.3707022,-0.1258186,0.1090004,0.3266805,-31.5524,31.29
5,0.05072021,-0.4550629,0.8890076,0.6122402,0.04823303,-0.4633484,0.8848572,-29.36852,7.839676,-37.3112,3.570633,0.4044118,0.4800835,0.7203423,0.05307007,-0.4472504,0.8928223,30.36642,8.68544,-37.4231,4.012527,0.5789295,0.445091,0.05566895,1.08215,-0.09256983,0.3707022,-0.1258186,0.1090004,0.3266805,-31.5524,31.29
5,0.05052185,-0.4536896,0.8897095,0.6127583,0.04830933,-0.4608765,0.8861389,-29.37541,7.850143,-37.3112,3.570007,0.404655,0.4792007,0.7162935,0.05247498,-0.4473419,0.892807,30.36642,8.687088,-37.42268,4.041092,0.5790462,0.4450096,0.05625713,1.081051,-0.09265548,0.3741751,-0.1255809,0.1084248,0.3266805,-31.5524,31.29
5,0.0479126,-0.452301,0.890564,0.6037497,0.04574585,-0.4601593,0.8866425,-29.39337,7.901276,-37.28389,3.692322,0.4057903,0.4768531,0.7099088,0.04974365,-0.4455872,0.8938446,30.37769,8.697464,-37.42249,4.040146,0.5791255,0.4442489,0.0568701,1.07969,-0.09276783,0.3787004,-0.1249225,0.1073447,0.3266805,-31.5524,31.29
5,0.0479126,-0.452301,0.890564,0.6037497,0.04574585,-0.4601593,0.8866425,-29.39337,7.901276,-37.28389,3.692322,0.4057903,0.4768531,0.7099088,0.04974365,-0.4455872,0.8938446,30.37769,8.697464,-37.42249,4.040146,0.5791255,0.4442489,0.0568701,1.07969,-0.09276783,0.3787004,-0.1249225,0.1073447,0.3266805,-31.5524,31.29
5,0.04867554,-0.4459381,0.8937225,0.5983924,0.04910278,-0.4501801,0.891571,-29.40034,7.902512,-37.2776,3.589218,0.4054753,0.4747915,0.7120092,0.04827881,-0.441925,0.8957367,30.38503,8.733688,-37.42249,4.088684,0.5791436,0.442111,0.05722272,1.07868,-0.09294224,0.3816426,-0.1245365,0.1068239,0.3420537,-31.5524,31.29
5,0.04624939,-0.4456024,0.8940277,0.6020234,0.04400635,-0.4513092,0.8912659,-29.40102,7.907135,-37.27774,3.668549,0.4064058,0.4747915,0.7012648,0.04837036,-0.4401855,0.8965912,30.38503,8.749374,-37.42238,4.12059,0.5791436,0.4411461,0.05759478,1.077838,-0.09302092,0.384738,-0.1239802,0.1061439,0.3420537,-44.3186,31.29
5,0.04624939,-0.4456024,0.8940277,0.6020234,0.04400635,-0.4513092,0.8912659,-29.40102,7.907135,-37.27774,3.668549,0.4064058,0.4747915,0.7012648,0.04837036,-0.4401855,0.8965912,30.38503,8.749374,-37.42238,4.12059,0.5791436,0.4411461,0.05759478,1.077838,-0.09302092,0.384738,-0.1239802,0.1061439,0.3420537,-63.80853,31.29
5,0.04162598,-0.4430389,0.8955231,0.5997044,0.03540039,-0.4447174,0.8949585,-29.40471,7.918686,-37.27887,3.863129,0.4080781,0.472893,0.7144608,0.04769897,-0.441391,0.8960419,30.38503,8.759552,-37.4222,4.148163,0.5792764,0.4409803,0.05842888,1.07554,-0.09343666,0.3916846,-0.1222964,0.1041255,0.3420537,-91.74503,31.29
5,0.03773499,-0.4365234,0.8988953,0.5910823,0.02894592,-0.4312592,0.9017487,-29.40895,7.919266,-37.27144,3.731461,0.4094264,0.4701701,0.7020656,0.04718018,-0.4421082,0.8957062,30.38503,8.809555,-37.40498,4.156189,0.5793765,0.439117,0.05879629,1.074459,-0.09394062,0.3960185,-0.1209456,0.1030501,0.3420537,-91.74503,31.29
5,0.03773499,-0.4365234,0.8988953,0.5910823,0.02894592,-0.4312592,0.9017487,-29.40895,7.919266,-37.27144,3.731461,0.4094264,0.4701701,0.7020656,0.04718018,-0.4421082,0.8957062,30.38503,8.809555,-37.40498,4.156189,0.5793765,0.439117,0.05879629,1.074459,-0.09394062,0.3960185,-0.1209456,0.1030501,0.3420537,-91.74503,31.29
5,0.03646851,-0.4350128,0.8996735,0.6024411,0.02842712,-0.4309387,0.9019318,-29.42059,7.931366,-37.2673,3.80867,0.4099372,0.4695764,0.7056569,0.0459137,-0.439743,0.8969421,30.38326,8.815414,-37.39877,4.159576,0.5796672,0.4383428,0.0596602,1.072801,-0.09476143,0.4044005,-0.1186613,0.1011094,0.3420537,-91.74503,31.29
5,0.03707886,-0.4155579,0.9087982,0.6089247,0.0280304,-0.4312286,0.9017944,-29.42302,8.029434,-37.22884,3.720627,0.410144,0.4658087,0.7162738,0.0461731,-0.3996124,0.9155121,30.32895,8.879532,-37.345,4.116608,0.5815741,0.4272544,0.0596602,1.072801,-0.09476143,0.4044005,-0.1186613,0.1011094,0.3420537,-91.74503,31.29
5,0.03707886,-0.4155579,0.9087982,0.6089247,0.0280304,-0.4312286,0.9017944,-29.42302,8.029434,-37.22884,3.720627,0.410144,0.4658087,0.7162738,0.0461731,-0.3996124,0.9155121,30.32895,8.879532,-37.345,4.116608,0.5815741,0.4272544,0.0596602,1.072801,-0.09476143,0.4044005,-0.1186613,0.1011094,0.3420537,-91.74503,31.29
5,0.026474,-0.4094849,0.911911,0.6119282,0.02320862,-0.4266663,0.9040985,-29.41576,8.125305,-37.19284,3.770096,0.4107777,0.4610498,0.6994934,0.03042603,-0.3883667,0.92099,30.34586,8.975281,-37.30666,4.342377,0.5838854,0.4208155,0.06036079,1.071374,-0.09509981,0.4093214,-0.1169147,0.09970134,0.3420537,-91.74503,31.29
5,0.02709961,-0.4055481,0.9136658,0.6149851,0.02563477,-0.4243469,0.9051208,-29.4169,8.183502,-37.17183,3.811752,0.410407,0.4582514,0.7232971,0.02879333,-0.383316,0.9231567,30.33809,9.034225,-37.28502,4.259171,0.5844421,0.417468,0.06092227,1.070331,-0.09490746,0.4115171,-0.1153103,0.09814917,0.3420537,-91.74503,31.29
5,0.0249939,-0.4020538,0.9152679,0.6149851,0.0165863,-0.4171906,0.9086609,-29.41566,8.186798,-37.16763,3.767868,0.4119943,0.4566937,0.7232971,0.03439331,-0.3849335,0.922287,30.34207,9.043167,-37.28587,4.288147,0.5832942,0.4174623,0.06172979,1.069536,-0.09451002,0.4131586,-0.1139636,0.09670173,0.3420537,-91.74503,31.29
5,0.0249939,-0.4020538,0.9152679,0.6149851,0.0165863,-0.4171906,0.9086609,-29.41566,8.186798,-37.16763,3.767868,0.4119943,0.4566937,0.7232971,0.03439331,-0.3849335,0.922287,30.34207,9.043167,-37.28587,4.288147,0.5832942,0.4174623,0.06172979,1.069536,-0.09451002,0.4131586,-0.1139636,0.09670173,0.3420537,-91.74503,31.29
5,0.02502441,-0.3992462,0.9164886,0.6182943,0.01953125,-0.4130249,0.9104919,-29.42122,8.16217,-37.17651,3.80365,0.4116666,0.4568017,0.7252336,0.03071594,-0.3847961,0.9224701,30.34412,9.043167,-37.28587,4.241272,0.5838654,0.4174623,0.0625962,1.068693,-0.09451878,0.4160956,-0.1122188,0.09556897,0.3420537,-91.74503,31.29
5,0.02502441,-0.3992462,0.9164886,0.6182943,0.01953125,-0.4130249,0.9104919,-29.42122,8.16217,-37.17651,3.80365,0.4116666,0.4568017,0.7252336,0.03071594,-0.3847961,0.9224701,30.34412,9.043167,-37.28587,4.241272,0.5838654,0.4174623,0.0625962,1.068693,-0.09451878,0.4160956,-0.1122188,0.09556897,0.3420537,-91.74503,31.29
5,0.02526855,-0.3983154,0.9168854,0.6274449,0.01861572,-0.40979,0.911972,-29.43263,8.099609,-37.20329,3.890594,0.412215,0.4585943,0.7284107,0.03184509,-0.3868866,0.9215698,30.3618,8.971588,-37.32288,4.227631,0.5830038,0.4209125,0.06357622,1.067086,-0.09460032,0.4171551,-0.1134207,0.09345413,0.3420537,-91.74503,31.29
5,0.02526855,-0.3983154,0.9168854,0.6274449,0.01861572,-0.40979,0.911972,-29.43263,8.099609,-37.20329,3.890594,0.412215,0.4585943,0.7284107,0.03184509,-0.3868866,0.9215698,30.3618,8.971588,-37.32288,4.227631,0.5830038,0.4209125,0.06357622,1.067086,-0.09460032,0.4171551,-0.1134207,0.09345413,0.3420537,-91.74503,31.29
5,0.02848816,-0.3920898,0.9194794,0.6278436,0.02398682,-0.4099579,0.9117737,-29.36282,8.098267,-37.21265,3.82785,0.4087282,0.4587754,0.739812,0.03315735,-0.3733521,0.9270935,30.43407,8.956787,-37.32953,4.340134,0.5801207,0.4186888,0.06397736,1.066716,-0.09518313,0.421785,-0.1096111,0.09406245,0.3420537,28.73135,31.29
