Second,eye_comb_direction_x,eye_comb_direction_y,eye_comb_direction_z,eye_r_openness,eye_r_direction_x,eye_r_direction_y,eye_r_direction_z,eye_r_origin_x,eye_r_origin_y,eye_r_origin_z,eye_r_pupil_diameter,eye_r_pupil_position_x,eye_r_pupil_position_y,eye_l_openness,eye_l_direction_x,eye_l_direction_y,eye_l_direction_z,eye_l_origin_x,eye_l_origin_y,eye_l_origin_z,eye_l_pupil_diameter,eye_l_pupil_position_x,eye_l_pupil_position_y,head_position_x,head_position_y,head_position_z,head_rotation_roll,head_rotation_pitch,head_rotation_yaw,EDA,BVP,TMP
0,0.0,0.0,0.0,0.0,0.0,0.0,0.0,0.0,0.0,0.0,0.0,0.0,0.0,0.0,0.0,0.0,0.0,0.0,0.0,0.0,0.0,0.0,0.0,0.0,0.0,0.0,0.0,0.0,0.0,0.7688063276436504,-0.06414742717117339,29.71688797682279
0,-0.03825378,-0.1348877,0.9901123,1.0,-0.01271057,-0.1177826,0.9929504,-30.89139,9.937378,-36.47137,5.327423,0.4707956,0.3276051,1.0,-0.06277466,-0.1511993,0.986496,29.40182,6.600357,-33.15024,5.560379,0.6304882,0.423148,0.1223289,1.1621,-0.0765664,-0.05415659,-0.00303462,0.02129349,0.7688063276436504,-0.06414742717117339,29.71688797682279
1,-0.04098511,-0.1353455,0.9899445,1.0,-0.01646423,-0.1186523,0.9927979,-30.89607,9.936996,-36.45441,5.315506,0.4716281,0.3276585,1.0,-0.06283569,-0.1501617,0.9866486,29.40182,6.599564,-33.14824,5.539093,0.6304882,0.4229757,0.1226019,1.161525,-0.07584608,-0.052289,-0.003133666,0.02010902,0.7688063276436504,-0.06414742717117339,29.71688797682279
1,-0.04098511,-0.1353455,0.9899445,1.0,-0.01646423,-0.1186523,0.9927979,-30.89607,9.936996,-36.45441,5.315506,0.4716281,0.3276585,1.0,-0.06283569,-0.1501617,0.9866486,29.40182,6.599564,-33.14824,5.539093,0.6304882,0.4229757,0.1226019,1.161525,-0.07584608,-0.052289,-0.003133666,0.02010902,0.7688063276436504,-0.06414742717117339,29.71688797682279
1,-0.04098511,-0.1353455,0.9899445,1.0,-0.01646423,-0.1186523,0.9927979,-30.89607,9.936996,-36.45441,5.315506,0.4716281,0.3276585,1.0,-0.06283569,-0.1501617,0.9866486,29.40182,6.599564,-33.14824,5.539093,0.6304882,0.4229757,0.1226019,1.161525,-0.07584608,-0.052289,-0.003133666,0.02010902,0.7688063276436504,-0.06414742717117339,29.71688797682279
1,-0.04098511,-0.1353455,0.9899445,1.0,-0.01646423,-0.1186523,0.9927979,-30.89607,9.936996,-36.45441,5.315506,0.4716281,0.3276585,1.0,-0.06283569,-0.1501617,0.9866486,29.40182,6.599564,-33.14824,5.539093,0.6304882,0.4229757,0.1226019,1.161525,-0.07584608,-0.052289,-0.003133666,0.02010902,0.7688063276436504,-0.06414742717117339,29.71688797682279
1,-0.04098511,-0.1353455,0.9899445,1.0,-0.01646423,-0.1186523,0.9927979,-30.89607,9.936996,-36.45441,5.315506,0.4716281,0.3276585,1.0,-0.06283569,-0.1501617,0.9866486,29.40182,6.599564,-33.14824,5.539093,0.6304882,0.4229757,0.1226019,1.161525,-0.07584608,-0.052289,-0.003133666,0.02010902,0.7688063276436504,-0.06414742717117339,29.71688797682279
1,-0.04098511,-0.1353455,0.9899445,1.0,-0.01646423,-0.1186523,0.9927979,-30.89607,9.936996,-36.45441,5.315506,0.4716281,0.3276585,1.0,-0.06283569,-0.1501617,0.9866486,29.40182,6.599564,-33.14824,5.539093,0.6304882,0.4229757,0.1226019,1.161525,-0.07584608,-0.052289,-0.003133666,0.02010902,0.7688063276436504,-0.06414742717117339,29.71688797682279
1,-0.04098511,-0.1353455,0.9899445,1.0,-0.01646423,-0.1186523,0.9927979,-30.89607,9.936996,-36.45441,5.315506,0.4716281,0.3276585,1.0,-0.06283569,-0.1501617,0.9866486,29.40182,6.599564,-33.14824,5.539093,0.6304882,0.4229757,0.1226019,1.161525,-0.07584608,-0.052289,-0.003133666,0.02010902,0.7688063276436504,-0.06414742717117339,29.71688797682279
1,-0.04098511,-0.1353455,0.9899445,1.0,-0.01646423,-0.1186523,0.9927979,-30.89607,9.936996,-36.45441,5.315506,0.4716281,0.3276585,1.0,-0.06283569,-0.1501617,0.9866486,29.40182,6.599564,-33.14824,5.539093,0.6304882,0.4229757,0.1226019,1.161525,-0.07584608,-0.052289,-0.003133666,0.02010902,0.7688063276436504,-0.06414742717117339,29.71688797682279
1,-0.04098511,-0.1353455,0.9899445,1.0,-0.01646423,-0.1186523,0.9927979,-30.89607,9.936996,-36.45441,5.315506,0.4716281,0.3276585,1.0,-0.06283569,-0.1501617,0.9866486,29.40182,6.599564,-33.14824,5.539093,0.6304882,0.4229757,0.1226019,1.161525,-0.07584608,-0.052289,-0.003133666,0.02010902,0.7688063276436504,-0.06414742717117339,29.71688797682279
1,-0.04733276,-0.1370544,0.9894257,0.9254563,-0.03219604,-0.0909729,0.9953308,-30.9483,9.864105,-35.43932,5.671768,0.4762237,0.3158816,0.9498073,-0.04733276,-0.1370544,0.9894257,29.45087,6.657776,-33.19577,5.721283,0.6261798,0.4188792,0.12378,1.161848,-0.07398576,-0.0522324,-0.003871765,0.01745136,0.7688063276436504,-0.06414742717117339,29.71688797682279
1,-0.04733276,-0.1370544,0.9894257,0.9254563,-0.03219604,-0.0909729,0.9953308,-30.9483,9.864105,-35.43932,5.671768,0.4762237,0.3158816,0.9498073,-0.04733276,-0.1370544,0.9894257,29.45087,6.657776,-33.19577,5.721283,0.6261798,0.4188792,0.12378,1.161848,-0.07398576,-0.0522324,-0.003871765,0.01745136,0.7688063276436504,-0.06414742717117339,29.71688797682279
1,-0.04733276,-0.1370544,0.9894257,0.9254563,-0.03219604,-0.0909729,0.9953308,-30.9483,9.864105,-35.43932,5.671768,0.4762237,0.3158816,0.9498073,-0.04733276,-0.1370544,0.9894257,29.45087,6.657776,-33.19577,5.721283,0.6261798,0.4188792,0.12378,1.161848,-0.07398576,-0.0522324,-0.003871765,0.01745136,0.7688063276436504,-0.06414742717117339,29.71688797682279
1,-0.04733276,-0.1370544,0.9894257,0.9254563,-0.03219604,-0.0909729,0.9953308,-30.9483,9.864105,-35.43932,5.671768,0.4762237,0.3158816,0.9498073,-0.04733276,-0.1370544,0.9894257,29.45087,6.657776,-33.19577,5.721283,0.6261798,0.4188792,0.12378,1.161848,-0.07398576,-0.0522324,-0.003871765,0.01745136,0.7688063276436504,-0.06414742717117339,29.71688797682279
1,-0.04733276,-0.1370544,0.9894257,0.9254563,-0.03219604,-0.0909729,0.9953308,-30.9483,9.864105,-35.43932,5.671768,0.4762237,0.3158816,0.9498073,-0.04733276,-0.1370544,0.9894257,29.45087,6.657776,-33.19577,5.721283,0.6261798,0.4188792,0.12378,1.161848,-0.07398576,-0.0522324,-0.003871765,0.01745136,0.7688063276436504,-0.06414742717117339,29.71688797682279
1,-0.04733276,-0.1370544,0.9894257,0.9254563,-0.03219604,-0.0909729,0.9953308,-30.9483,9.864105,-35.43932,5.671768,0.4762237,0.3158816,0.9498073,-0.04733276,-0.1370544,0.9894257,29.45087,6.657776,-33.19577,5.721283,0.6261798,0.4188792,0.12378,1.161848,-0.07398576,-0.0522324,-0.003871765,0.01745136,0.7688063276436504,-0.06414742717117339,29.71688797682279
1,-0.04862976,-0.1122589,0.9924774,0.9241725,-0.05293274,-0.08790588,0.9947205,-30.94879,9.910736,-35.43297,5.554703,0.4798872,0.3136386,0.914163,-0.04464722,-0.1345825,0.9898834,29.46887,6.658401,-33.21379,5.720352,0.6250809,0.4185776,0.1241134,1.161343,-0.07350075,-0.049973,-0.003286844,0.01572529,0.7688063276436504,-0.06414742717117339,29.71688797682279
1,-0.04862976,-0.1122589,0.9924774,0.9241725,-0.05293274,-0.08790588,0.9947205,-30.94879,9.910736,-35.43297,5.554703,0.4798872,0.3136386,0.914163,-0.04464722,-0.1345825,0.9898834,29.46887,6.658401,-33.21379,5.720352,0.6250809,0.4185776,0.1241134,1.161343,-0.07350075,-0.049973,-0.003286844,0.01572529,0.7688063276436504,-0.06414742717117339,29.71688797682279
1,-0.04830933,-0.1103363,0.9927063,0.9436993,-0.05471802,-0.08973694,0.9944458,-30.94881,9.927841,-35.46246,5.505539,0.4802096,0.3136386,0.9390255,-0.04251099,-0.128891,0.9907379,29.47787,6.662903,-33.21379,5.72081,0.624393,0.4173902,0.1242939,1.161329,-0.07327259,-0.04989586,-0.003063941,0.01537408,0.7688063276436504,-0.06414742717117339,29.71688797682279
1,-0.04830933,-0.1103363,0.9927063,0.9436993,-0.05471802,-0.08973694,0.9944458,-30.94881,9.927841,-35.46246,5.505539,0.4802096,0.3136386,0.9390255,-0.04251099,-0.128891,0.9907379,29.47787,6.662903,-33.21379,5.72081,0.624393,0.4173902,0.1242939,1.161329,-0.07327259,-0.04989586,-0.003063941,0.01537408,0.7688063276436504,-0.06414742717117339,29.71688797682279
1,-0.04864502,-0.1135864,0.9923248,0.9270677,-0.05569458,-0.09886169,0.9935303,-30.94858,9.937286,-35.47614,5.496994,0.4803704,0.3151582,0.9406943,-0.04241943,-0.1265717,0.9910431,29.49223,6.690247,-33.2515,5.706436,0.6239131,0.4163298,0.1244407,1.161347,-0.07315052,-0.04999416,-0.002972606,0.01534449,0.7688063276436504,-0.06414742717117339,29.71688797682279
1,-0.04829407,-0.1067963,0.993103,0.9395255,-0.05531311,-0.08879089,0.9945068,-30.94571,9.935608,-35.4671,5.478073,0.4802096,0.3132288,0.9508014,-0.04199219,-0.1229706,0.9915161,29.49867,6.7061,-33.28902,5.701218,0.6236581,0.4154417,0.1245356,1.161232,-0.07309091,-0.04992944,-0.002551824,0.01508297,0.7688063276436504,-0.06414742717117339,29.71688797682279
1,-0.04829407,-0.1067963,0.993103,0.9395255,-0.05531311,-0.08879089,0.9945068,-30.94571,9.935608,-35.4671,5.478073,0.4802096,0.3132288,0.9508014,-0.04199219,-0.1229706,0.9915161,29.49867,6.7061,-33.28902,5.701218,0.6236581,0.4154417,0.1245356,1.161232,-0.07309091,-0.04992944,-0.002551824,0.01508297,0.7688063276436504,-0.06414742717117339,29.71688797682279
1,-0.04850769,-0.09877014,0.9939117,0.9395255,-0.05490112,-0.08653259,0.9947205,-30.94308,9.933914,-35.45807,5.462494,0.480049,0.3128077,0.9508014,-0.03938293,-0.1161804,0.9924316,29.51636,6.74472,-33.41302,5.695862,0.622731,0.4139417,0.1246543,1.161208,-0.07303476,-0.04993273,-0.0024261,0.01515492,0.7688063276436504,-0.06414742717117339,29.71688797682279
1,-0.04850769,-0.09877014,0.9939117,0.9395255,-0.05490112,-0.08653259,0.9947205,-30.94308,9.933914,-35.45807,5.462494,0.480049,0.3128077,0.9508014,-0.03938293,-0.1161804,0.9924316,29.51636,6.74472,-33.41302,5.695862,0.622731,0.4139417,0.1247491,1.161202,-0.07300532,-0.04991392,-0.002254173,0.0151185,0.7688063276436504,-0.06414742717117339,29.71688797682279
1,-0.04850769,-0.09877014,0.9939117,0.9395255,-0.05490112,-0.08653259,0.9947205,-30.94308,9.933914,-35.45807,5.462494,0.480049,0.3128077,0.9508014,-0.03938293,-0.1161804,0.9924316,29.51636,6.74472,-33.41302,5.695862,0.622731,0.4139417,0.1248486,1.161225,-0.07299197,-0.04986434,-0.002103722,0.01501167,0.7688063276436504,-0.06414742717117339,29.71688797682279
1,-0.04850769,-0.09877014,0.9939117,0.9395255,-0.05490112,-0.08653259,0.9947205,-30.94308,9.933914,-35.45807,5.462494,0.480049,0.3128077,0.9508014,-0.03938293,-0.1161804,0.9924316,29.51636,6.74472,-33.41302,5.695862,0.622731,0.4139417,0.1249949,1.161213,-0.07294792,-0.05000326,-0.001975881,0.01463928,0.7688063276436504,-0.06414742717117339,29.71688797682279
1,-0.04850769,-0.09877014,0.9939117,0.9395255,-0.05490112,-0.08653259,0.9947205,-30.94308,9.933914,-35.45807,5.462494,0.480049,0.3128077,0.9508014,-0.03938293,-0.1161804,0.9924316,29.51636,6.74472,-33.41302,5.695862,0.622731,0.4139417,0.1249949,1.161213,-0.07294792,-0.05000326,-0.001975881,0.01463928,0.7688063276436504,-0.06414742717117339,29.71688797682279
1,-0.05010986,-0.09065247,0.9946136,0.9395255,-0.05397034,-0.08312988,0.9950714,-30.94296,9.930222,-35.45071,5.440552,0.4798872,0.3122488,0.9508014,-0.03953552,-0.1111603,0.9930115,29.51836,6.757339,-33.43954,5.694687,0.622731,0.4128015,0.1250545,1.161208,-0.07294774,-0.04995883,-0.001998377,0.01445799,0.7688063276436504,-0.06414742717117339,29.71688797682279
1,-0.05079651,-0.0849762,0.9950714,0.9397291,-0.05297852,-0.08047485,0.9953461,-30.94308,9.933914,-35.45807,5.417648,0.4797253,0.31169,0.9243671,-0.03910828,-0.1090851,0.9932556,29.51863,6.762344,-33.4991,5.684021,0.6227178,0.4127846,0.1251869,1.161136,-0.07292175,-0.04974332,-0.002064396,0.01394276,0.7688063276436504,-0.06414742717117339,29.71688797682279
1,-0.05079651,-0.0849762,0.9950714,0.9397291,-0.05297852,-0.08047485,0.9953461,-30.94308,9.933914,-35.45807,5.417648,0.4797253,0.31169,0.9243671,-0.03910828,-0.1090851,0.9932556,29.51863,6.762344,-33.4991,5.684021,0.6227178,0.4127846,0.1251869,1.161136,-0.07292175,-0.04974332,-0.002064396,0.01394276,0.7688063276436504,-0.06414742717117339,29.71688797682279
1,-0.05122375,-0.08500671,0.9950562,0.9436574,-0.05232239,-0.08332825,0.9951324,-30.94583,9.935608,-35.4671,5.417389,0.4797086,0.3122488,0.9325555,-0.0332489,-0.1121826,0.9931183,29.54988,6.803741,-33.65675,5.41954,0.6206172,0.4133262,0.1252383,1.161082,-0.07289326,-0.04959526,-0.002180245,0.01369202,0.7688063276436504,-0.06414742717117339,29.71688797682279
1,-0.05122375,-0.08500671,0.9950562,0.9436574,-0.05232239,-0.08332825,0.9951324,-30.94583,9.935608,-35.4671,5.417389,0.4797086,0.3122488,0.9325555,-0.0332489,-0.1121826,0.9931183,29.54988,6.803741,-33.65675,5.41954,0.6206172,0.4133262,0.1252383,1.161082,-0.07289326,-0.04959526,-0.002180245,0.01369202,0.7688063276436504,-0.06414742717117339,29.71688797682279
1,-0.05122375,-0.08500671,0.9950562,0.9436574,-0.05232239,-0.08332825,0.9951324,-30.94583,9.935608,-35.4671,5.417389,0.4797086,0.3122488,0.9325555,-0.0332489,-0.1121826,0.9931183,29.54988,6.803741,-33.65675,5.41954,0.6206172,0.4133262,0.1253783,1.160988,-0.07282984,-0.04907318,-0.002373318,0.01336656,0.7688063276436504,-0.06414742717117339,29.71688797682279
1,-0.05122375,-0.08500671,0.9950562,0.9436574,-0.05232239,-0.08332825,0.9951324,-30.94583,9.935608,-35.4671,5.417389,0.4797086,0.3122488,0.9325555,-0.0332489,-0.1121826,0.9931183,29.54988,6.803741,-33.65675,5.41954,0.6206172,0.4133262,0.125424,1.160933,-0.07280344,-0.04881225,-0.002519503,0.01323774,0.7688063276436504,-0.06414742717117339,29.71688797682279
2,-0.01725769,-0.0969696,0.9951324,0.9439512,-0.02593994,-0.08630371,0.9959259,-30.96149,10.1609,-36.30975,5.029388,0.4757413,0.3118422,0.9251329,-0.01272583,-0.1025238,0.9946442,29.56,6.763397,-33.50624,5.246002,0.6163872,0.4117044,0.1254967,1.160817,-0.07269144,-0.04850264,-0.002756736,0.01281564,0.6805999,-0.06414742717117339,29.71688797682279
2,-0.01725769,-0.0969696,0.9951324,0.9439512,-0.02593994,-0.08630371,0.9959259,-30.96149,10.1609,-36.30975,5.029388,0.4757413,0.3118422,0.9251329,-0.01272583,-0.1025238,0.9946442,29.56,6.763397,-33.50624,5.246002,0.6163872,0.4117044,0.1254967,1.160817,-0.07269144,-0.04850264,-0.002756736,0.01281564,0.6805999,-0.06414742717117339,29.71688797682279
2,-0.01737976,-0.1161957,0.9930725,0.9358042,-0.009872437,-0.0975647,0.9951782,-30.96651,10.11996,-36.06332,4.942825,0.473091,0.3134966,0.8768057,-0.01737976,-0.1161957,0.9930725,29.54686,6.784805,-33.53264,5.199371,0.6176773,0.4136612,0.1255622,1.160721,-0.07260811,-0.04809602,-0.003014914,0.01180869,0.6805999,-0.06414742717117339,29.71688797682279
2,-0.01737976,-0.1161957,0.9930725,0.9358042,-0.009872437,-0.0975647,0.9951782,-30.96651,10.11996,-36.06332,4.942825,0.473091,0.3134966,0.8768057,-0.01737976,-0.1161957,0.9930725,29.54686,6.784805,-33.53264,5.199371,0.6176773,0.4136612,0.1255622,1.160721,-0.07260811,-0.04809602,-0.003014914,0.01180869,0.6805999,-0.06414742717117339,29.71688797682279
2,-0.01737976,-0.1161957,0.9930725,0.9358042,-0.009872437,-0.0975647,0.9951782,-30.96651,10.11996,-36.06332,4.942825,0.473091,0.3134966,0.8768057,-0.01737976,-0.1161957,0.9930725,29.54686,6.784805,-33.53264,5.199371,0.6176773,0.4136612,0.1256093,1.160594,-0.07253003,-0.04757502,-0.003231983,0.01123246,0.6805999,-0.06414742717117339,29.71688797682279
2,-0.01737976,-0.1161957,0.9930725,0.9358042,-0.009872437,-0.0975647,0.9951782,-30.96651,10.11996,-36.06332,4.942825,0.473091,0.3134966,0.8768057,-0.01737976,-0.1161957,0.9930725,29.54686,6.784805,-33.53264,5.199371,0.6176773,0.4136612,0.1256449,1.160446,-0.07239926,-0.04713211,-0.003525276,0.01107414,0.6805999,-56.52234,29.71688797682279
2,-0.01737976,-0.1161957,0.9930725,0.9358042,-0.009872437,-0.0975647,0.9951782,-30.96651,10.11996,-36.06332,4.942825,0.473091,0.3134966,0.8768057,-0.01737976,-0.1161957,0.9930725,29.54686,6.784805,-33.53264,5.199371,0.6176773,0.4136612,0.1256449,1.160446,-0.07239926,-0.04713211,-0.003525276,0.01107414,0.6805999,-56.52234,29.71688797682279
2,-0.01737976,-0.1161957,0.9930725,0.9358042,-0.009872437,-0.0975647,0.9951782,-30.96651,10.11996,-36.06332,4.942825,0.473091,0.3134966,0.8768057,-0.01737976,-0.1161957,0.9930725,29.54686,6.784805,-33.53264,5.199371,0.6176773,0.4136612,0.1256789,1.160306,-0.07226872,-0.04670238,-0.003666176,0.01109565,0.6805999,-56.52234,29.71688797682279
2,-0.02748108,-0.105011,0.9940796,0.9471378,-0.009902954,-0.09199524,0.995697,-30.96634,10.1214,-36.09009,4.940857,0.473091,0.3126026,0.8625855,-0.02749634,-0.105011,0.9940796,29.53641,6.751633,-33.37335,5.026978,0.6195948,0.4113893,0.1257526,1.160205,-0.0721336,-0.0466307,-0.003807733,0.01111242,0.6805999,-56.52234,29.71688797682279
2,-0.02748108,-0.105011,0.9940796,0.9471378,-0.009902954,-0.09199524,0.995697,-30.96634,10.1214,-36.09009,4.940857,0.473091,0.3126026,0.8625855,-0.02749634,-0.105011,0.9940796,29.53641,6.751633,-33.37335,5.026978,0.6195948,0.4113893,0.1257526,1.160205,-0.0721336,-0.0466307,-0.003807733,0.01111242,0.6805999,-56.52234,29.71688797682279
2,-0.1262665,-0.05766296,0.9903107,0.9065885,-0.121994,0.02009583,0.9923248,-31.60011,11.14204,-39.42554,4.905487,0.5177329,0.2797181,0.7861782,-0.1262665,-0.05766296,0.9903107,28.79024,6.920212,-33.07085,4.948059,0.6643616,0.3934788,0.1257639,1.160197,-0.07197648,-0.04649069,-0.003504077,0.01123843,0.6805999,-56.52234,29.71688797682279
2,-0.1262665,-0.05766296,0.9903107,0.9065885,-0.121994,0.02009583,0.9923248,-31.60011,11.14204,-39.42554,4.905487,0.5177329,0.2797181,0.7861782,-0.1262665,-0.05766296,0.9903107,28.79024,6.920212,-33.07085,4.948059,0.6643616,0.3934788,0.1257639,1.160197,-0.07197648,-0.04649069,-0.003504077,0.01123843,0.6805999,-56.52234,29.71688797682279
2,-0.1584473,-0.04650879,0.9862671,0.9065885,-0.1751404,-0.02650452,0.9841766,-31.77998,10.67676,-36.9944,4.841934,0.5329664,0.2865105,0.7861782,-0.1584473,-0.04650879,0.9862671,28.45024,7.119431,-33.34053,5.183746,0.6836577,0.3861252,0.1257944,1.160186,-0.07190144,-0.04634381,-0.00288613,0.01132099,0.6805999,-56.52234,29.71688797682279
2,-0.1584473,-0.04650879,0.9862671,0.9065885,-0.1751404,-0.02650452,0.9841766,-31.77998,10.67676,-36.9944,4.841934,0.5329664,0.2865105,0.7861782,-0.1584473,-0.04650879,0.9862671,28.45024,7.119431,-33.34053,5.183746,0.6836577,0.3861252,0.1257944,1.160186,-0.07190144,-0.04634381,-0.00288613,0.01132099,0.6805999,-56.52234,29.71688797682279
2,-0.1584473,-0.04650879,0.9862671,0.9065885,-0.1751404,-0.02650452,0.9841766,-31.77998,10.67676,-36.9944,4.841934,0.5329664,0.2865105,0.7861782,-0.1584473,-0.04650879,0.9862671,28.45024,7.119431,-33.34053,5.183746,0.6836577,0.3861252,0.1259328,1.160228,-0.07191271,-0.0462954,-0.002367031,0.01130716,0.6805999,-56.52234,29.71688797682279
2,-0.1584473,-0.04650879,0.9862671,0.9065885,-0.1751404,-0.02650452,0.9841766,-31.77998,10.67676,-36.9944,4.841934,0.5329664,0.2865105,0.7861782,-0.1584473,-0.04650879,0.9862671,28.45024,7.119431,-33.34053,5.183746,0.6836577,0.3861252,0.1259328,1.160228,-0.07191271,-0.0462954,-0.002367031,0.01130716,0.6805999,-56.52234,29.71688797682279
2,-0.1584473,-0.04650879,0.9862671,0.9065885,-0.1751404,-0.02650452,0.9841766,-31.77998,10.67676,-36.9944,4.841934,0.5329664,0.2865105,0.7861782,-0.1584473,-0.04650879,0.9862671,28.45024,7.119431,-33.34053,5.183746,0.6836577,0.3861252,0.1259328,1.160228,-0.07191271,-0.0462954,-0.002367031,0.01130716,0.6805999,-56.52234,29.71688797682279
2,-0.2472992,-0.04119873,0.9680481,0.9035343,-0.2266083,-0.007644653,0.9739532,-32.12589,10.60991,-36.31329,4.651215,0.5549589,0.2796549,0.6815333,-0.2472992,-0.04119873,0.9680481,27.97882,7.302948,-33.3744,5.115387,0.7185178,0.37804,0.1260498,1.160231,-0.07199109,-0.04631246,-0.001370236,0.01136107,0.6805999,-56.52234,29.71688797682279
2,-0.2472992,-0.04119873,0.9680481,0.9035343,-0.2266083,-0.007644653,0.9739532,-32.12589,10.60991,-36.31329,4.651215,0.5549589,0.2796549,0.6815333,-0.2472992,-0.04119873,0.9680481,27.97882,7.302948,-33.3744,5.115387,0.7185178,0.37804,0.1260498,1.160231,-0.07199109,-0.04631246,-0.001370236,0.01136107,0.6805999,-56.52234,29.71688797682279
2,-0.2200928,-0.01263428,0.9753876,1.0,-0.2283173,-0.002441406,0.9735718,-32.1801,10.6214,-36.31798,4.348587,0.557377,0.2784835,1.0,-0.2200928,-0.01263428,0.9753876,28.02551,7.274002,-33.38983,4.724655,0.7115411,0.3740881,0.1261234,1.160248,-0.07208061,-0.04645397,0.0,0.01131046,0.6805999,-33.78577,29.71688797682279
2,-0.2298584,-0.005218506,0.9732056,1.0,-0.2250366,0.00769043,0.9743042,-32.15002,10.62596,-36.32858,4.209244,0.5557686,0.2765015,1.0,-0.2298584,-0.005218506,0.9732056,28.12859,7.276123,-33.38158,4.695206,0.709501,0.3727289,0.1262492,1.160368,-0.07213151,-0.04674703,0.000791106,0.01142907,0.6805999,-33.78577,29.71688797682279
2,-0.2298584,-0.005218506,0.9732056,1.0,-0.2250366,0.00769043,0.9743042,-32.15002,10.62596,-36.32858,4.209244,0.5557686,0.2765015,1.0,-0.2298584,-0.005218506,0.9732056,28.12859,7.276123,-33.38158,4.695206,0.709501,0.3727289,0.1262492,1.160368,-0.07213151,-0.04674703,0.000791106,0.01142907,0.6805999,-33.78577,29.71688797682279
2,-0.223175,-0.004623413,0.974762,1.0,-0.2158813,0.004058838,0.9764099,-32.12218,10.6243,-36.33571,4.210068,0.5530242,0.2773389,1.0,-0.2308197,-0.01374817,0.9728851,28.18895,7.2715,-33.37625,4.745712,0.7073118,0.374547,0.1263809,1.160465,-0.07216465,-0.04691155,0.002283726,0.01153031,0.6805999,-33.78577,29.71688797682279
2,-0.223175,-0.004623413,0.974762,1.0,-0.2158813,0.004058838,0.9764099,-32.12218,10.6243,-36.33571,4.210068,0.5530242,0.2773389,1.0,-0.2308197,-0.01374817,0.9728851,28.18895,7.2715,-33.37625,4.745712,0.7073118,0.374547,0.1263809,1.160465,-0.07216465,-0.04691155,0.002283726,0.01153031,0.6805999,-33.78577,29.71688797682279
2,-0.2101593,-0.005874634,0.9776459,1.0,-0.2104797,0.004364014,0.9775848,-32.07663,10.61797,-36.3532,4.152023,0.5503666,0.2777457,1.0,-0.2098083,-0.01687622,0.9775848,28.18143,7.267441,-33.35991,4.536835,0.7034591,0.3751417,0.1264784,1.160463,-0.07231975,-0.04705284,0.003651923,0.01188353,0.6805999,-33.78577,29.71688797682279
2,-0.2101593,-0.005874634,0.9776459,1.0,-0.2104797,0.004364014,0.9775848,-32.07663,10.61797,-36.3532,4.152023,0.5503666,0.2777457,1.0,-0.2098083,-0.01687622,0.9775848,28.18143,7.267441,-33.35991,4.536835,0.7034591,0.3751417,0.1264784,1.160463,-0.07231975,-0.04705284,0.003651923,0.01188353,0.6805999,-33.78577,29.71688797682279
2,-0.2047272,-0.007720947,0.978775,1.0,-0.2141571,0.01615906,0.9766541,-32.04752,10.62285,-36.37344,3.954895,0.5501136,0.2755667,1.0,-0.1939545,-0.03463745,0.9803925,28.2119,7.249603,-33.3248,4.500076,0.6990784,0.3788561,0.1267146,1.160509,-0.07247198,-0.047242,0.0051124,0.01211267,0.6805999,-33.78577,29.71688797682279
2,-0.2047272,-0.007720947,0.978775,1.0,-0.2141571,0.01615906,0.9766541,-32.04752,10.62285,-36.37344,3.954895,0.5501136,0.2755667,1.0,-0.1939545,-0.03463745,0.9803925,28.2119,7.249603,-33.3248,4.500076,0.6990784,0.3788561,0.1267146,1.160509,-0.07247198,-0.047242,0.0051124,0.01211267,0.6805999,-33.78577,29.71688797682279
2,-0.1931915,-0.001815796,0.9811554,1.0,-0.1998444,0.007095337,0.9797974,-32.01027,10.63222,-36.43875,4.105179,0.5460416,0.2774169,1.0,-0.1855469,-0.01200867,0.9825592,28.2717,7.240875,-33.31116,4.497925,0.6953812,0.3748954,0.1269273,1.160644,-0.07267118,-0.04762213,0.006911811,0.01226427,0.6805999,-33.78577,29.71688797682279
2,-0.1931915,-0.001815796,0.9811554,1.0,-0.1998444,0.007095337,0.9797974,-32.01027,10.63222,-36.43875,4.105179,0.5460416,0.2774169,1.0,-0.1855469,-0.01200867,0.9825592,28.2717,7.240875,-33.31116,4.497925,0.6953812,0.3748954,0.1269273,1.160644,-0.07267118,-0.04762213,0.006911811,0.01226427,0.6805999,-33.78577,29.71688797682279
2,-0.1931915,-0.001815796,0.9811554,1.0,-0.1998444,0.007095337,0.9797974,-32.01027,10.63222,-36.43875,4.105179,0.5460416,0.2774169,1.0,-0.1855469,-0.01200867,0.9825592,28.2717,7.240875,-33.31116,4.497925,0.6953812,0.3748954,0.1269273,1.160644,-0.07267118,-0.04762213,0.006911811,0.01226427,0.6805999,-33.78577,29.71688797682279
2,-0.189621,-0.004455566,0.981842,1.0,-0.1936188,-0.006500244,0.9810486,-31.97188,10.64842,-36.49576,3.995941,0.5434695,0.2801114,1.0,-0.1869659,-0.003097534,0.9823456,28.30934,7.251266,-33.29675,4.488449,0.6942865,0.3727727,0.1270934,1.160757,-0.07280058,-0.04829188,0.008865869,0.01229885,0.6805999,-33.78577,29.71688797682279
2,-0.183609,0.0007019043,0.9829865,1.0,-0.1977234,0.01678467,0.9801025,-31.94278,10.66745,-36.57024,3.908569,0.5433579,0.2754006,1.0,-0.1761169,-0.007766724,0.9843292,28.33217,7.236206,-33.23665,4.349747,0.6911853,0.3737039,0.1273435,1.160938,-0.07290721,-0.04891441,0.01101477,0.01235506,0.6805999,-33.78577,29.71688797682279
2,-0.183609,0.0007019043,0.9829865,1.0,-0.1977234,0.01678467,0.9801025,-31.94278,10.66745,-36.57024,3.908569,0.5433579,0.2754006,1.0,-0.1761169,-0.007766724,0.9843292,28.33217,7.236206,-33.23665,4.349747,0.6911853,0.3737039,0.1273435,1.160938,-0.07290721,-0.04891441,0.01101477,0.01235506,0.6805999,-33.78577,29.71688797682279
2,-0.1752014,-0.009689331,0.9844818,1.0,-0.1747742,-0.01402283,0.9844971,-31.9039,10.80199,-37.09618,3.905197,0.5378385,0.2807783,1.0,-0.1759796,-0.00151062,0.9843903,28.38446,7.116547,-32.94943,4.271194,0.6886213,0.3745081,0.1276774,1.161243,-0.07303321,-0.04994421,0.01389458,0.0125916,0.6805999,2.726318,29.71688797682279
2,-0.1752014,-0.009689331,0.9844818,1.0,-0.1747742,-0.01402283,0.9844971,-31.9039,10.80199,-37.09618,3.905197,0.5378385,0.2807783,1.0,-0.1759796,-0.00151062,0.9843903,28.38446,7.116547,-32.94943,4.271194,0.6886213,0.3745081,0.1276774,1.161243,-0.07303321,-0.04994421,0.01389458,0.0125916,0.6805999,2.726318,29.71688797682279
2,-0.1752014,-0.009689331,0.9844818,1.0,-0.1747742,-0.01402283,0.9844971,-31.9039,10.80199,-37.09618,3.905197,0.5378385,0.2807783,1.0,-0.1759796,-0.00151062,0.9843903,28.38446,7.116547,-32.94943,4.271194,0.6886213,0.3745081,0.1276774,1.161243,-0.07303321,-0.04994421,0.01389458,0.0125916,0.6805999,2.726318,29.71688797682279
2,-0.1634064,-0.005096436,0.9865417,1.0,-0.1661987,-0.02401733,0.9857941,-31.881,10.91939,-37.5517,3.770432,0.5356518,0.2822012,1.0,-0.1622925,0.002288818,0.9867249,28.42957,7.082306,-32.77307,4.163574,0.6840633,0.3735627,0.1281028,1.161445,-0.07327819,-0.05121254,0.01721495,0.01299003,0.6805999,2.726318,29.71688797682279
2,-0.1515808,-0.001922607,0.9884338,1.0,-0.1549072,-0.01963806,0.9877319,-31.82076,10.52605,-35.92032,3.632263,0.5305461,0.2827563,1.0,-0.1515656,-0.001876831,0.9884338,28.4541,7.146088,-33.00702,4.237808,0.6815923,0.3740572,0.1286427,1.161787,-0.07351404,-0.05283727,0.0212118,0.01363969,0.6805999,2.726318,29.71688797682279
2,-0.1515808,-0.001922607,0.9884338,1.0,-0.1549072,-0.01963806,0.9877319,-31.82076,10.52605,-35.92032,3.632263,0.5305461,0.2827563,1.0,-0.1515656,-0.001876831,0.9884338,28.4541,7.146088,-33.00702,4.237808,0.6815923,0.3740572,0.1286427,1.161787,-0.07351404,-0.05283727,0.0212118,0.01363969,0.6805999,2.726318,29.71688797682279
2,-0.1515808,-0.001922607,0.9884338,1.0,-0.1549072,-0.01963806,0.9877319,-31.82076,10.52605,-35.92032,3.632263,0.5305461,0.2827563,1.0,-0.1515656,-0.001876831,0.9884338,28.4541,7.146088,-33.00702,4.237808,0.6815923,0.3740572,0.1286427,1.161787,-0.07351404,-0.05283727,0.0212118,0.01363969,0.6805999,2.726318,29.71688797682279
2,-0.1556549,0.01173401,0.9877319,1.0,-0.172699,-0.0009613037,0.9849701,-31.82648,10.57733,-35.92715,3.901596,0.5340753,0.2768981,1.0,-0.1556549,0.01173401,0.9877319,28.41498,7.190063,-32.97571,4.159119,0.6838727,0.3695647,0.1292788,1.162148,-0.07371461,-0.0546552,0.02584174,0.01454687,0.6805999,2.726318,29.71688797682279
2,-0.1556549,0.01173401,0.9877319,1.0,-0.172699,-0.0009613037,0.9849701,-31.82648,10.57733,-35.92715,3.901596,0.5340753,0.2768981,1.0,-0.1556549,0.01173401,0.9877319,28.41498,7.190063,-32.97571,4.159119,0.6838727,0.3695647,0.1292788,1.162148,-0.07371461,-0.0546552,0.02584174,0.01454687,0.6805999,2.726318,29.71688797682279
2,-0.2138062,0.04464722,0.9758453,1.0,-0.2086792,0.05662537,0.9763336,-32.091,11.03317,-36.51839,3.572037,0.5515525,0.2519659,1.0,-0.2138062,0.04464722,0.9758453,27.94302,7.526489,-33.18193,4.129257,0.7138184,0.351817,0.1299803,1.162489,-0.07402778,-0.0565121,0.03109512,0.01531679,0.6805999,2.726318,29.71688797682279
2,-0.2138062,0.04464722,0.9758453,1.0,-0.2086792,0.05662537,0.9763336,-32.091,11.03317,-36.51839,3.572037,0.5515525,0.2519659,1.0,-0.2138062,0.04464722,0.9758453,27.94302,7.526489,-33.18193,4.129257,0.7138184,0.351817,0.1299803,1.162489,-0.07402778,-0.0565121,0.03109512,0.01531679,0.6805999,2.726318,29.71688797682279
2,-0.2119598,0.06874084,0.9748535,1.0,-0.2132111,0.05801392,0.9752655,-32.09428,11.10762,-36.49934,3.714462,0.5525806,0.2482585,1.0,-0.2119598,0.0687561,0.9748535,27.9299,7.606155,-33.18948,4.116882,0.7143982,0.3442111,0.1307472,1.162879,-0.07435483,-0.05849181,0.03688564,0.01616821,0.6805999,2.726318,29.71688797682279
2,-0.2119598,0.06874084,0.9748535,1.0,-0.2132111,0.05801392,0.9752655,-32.09428,11.10762,-36.49934,3.714462,0.5525806,0.2482585,1.0,-0.2119598,0.0687561,0.9748535,27.9299,7.606155,-33.18948,4.116882,0.7143982,0.3442111,0.1307472,1.162879,-0.07435483,-0.05849181,0.03688564,0.01616821,0.6805999,2.726318,29.71688797682279
2,-0.2019806,0.06445313,0.9772491,1.0,-0.1960754,0.05111694,0.979248,-32.03394,11.08858,-36.53658,3.715042,0.5470644,0.2508259,1.0,-0.2020416,0.06460571,0.9772339,28.0726,7.57782,-33.14969,4.02388,0.7068098,0.3460413,0.1315619,1.163274,-0.07465625,-0.06040063,0.04282198,0.01733785,0.6805999,2.726318,29.71688797682279
2,-0.2019806,0.06445313,0.9772491,1.0,-0.1960754,0.05111694,0.979248,-32.03394,11.08858,-36.53658,3.715042,0.5470644,0.2508259,1.0,-0.2020416,0.06460571,0.9772339,28.0726,7.57782,-33.14969,4.02388,0.7068098,0.3460413,0.1315619,1.163274,-0.07465625,-0.06040063,0.04282198,0.01733785,0.6805999,2.726318,29.71688797682279
2,-0.1878815,0.06124878,0.9802704,1.0,-0.1869507,0.05793762,0.9806519,-31.97421,10.95744,-36.1265,3.704254,0.5429043,0.2512544,1.0,-0.1879272,0.06141663,0.9802551,28.14255,7.526535,-33.05069,3.986237,0.7011454,0.3478738,0.1320579,1.163544,-0.07473034,-0.06133981,0.04563765,0.01810842,0.6805999,2.726318,29.71688797682279
2,-0.1878815,0.06124878,0.9802704,1.0,-0.1869507,0.05793762,0.9806519,-31.97421,10.95744,-36.1265,3.704254,0.5429043,0.2512544,1.0,-0.1879272,0.06141663,0.9802551,28.14255,7.526535,-33.05069,3.986237,0.7011454,0.3478738,0.1320579,1.163544,-0.07473034,-0.06133981,0.04563765,0.01810842,0.6805999,2.726318,29.71688797682279
2,-0.169281,0.04707336,0.984436,1.0,-0.1710358,0.05848694,0.9835205,-31.87166,10.79366,-35.56342,3.728195,0.5358183,0.2529244,1.0,-0.169281,0.04705811,0.984436,28.23245,7.563934,-33.0471,4.051117,0.6941422,0.3492959,0.1333351,1.164214,-0.07512724,-0.06464819,0.0545153,0.02000538,0.6805999,-28.69604,29.71688797682279
2,-0.169281,0.04707336,0.984436,1.0,-0.1710358,0.05848694,0.9835205,-31.87166,10.79366,-35.56342,3.728195,0.5358183,0.2529244,1.0,-0.169281,0.04705811,0.984436,28.23245,7.563934,-33.0471,4.051117,0.6941422,0.3492959,0.1333351,1.164214,-0.07512724,-0.06464819,0.0545153,0.02000538,0.6805999,-28.69604,29.71688797682279
2,-0.169281,0.04707336,0.984436,1.0,-0.1710358,0.05848694,0.9835205,-31.87166,10.79366,-35.56342,3.728195,0.5358183,0.2529244,1.0,-0.169281,0.04705811,0.984436,28.23245,7.563934,-33.0471,4.051117,0.6941422,0.3492959,0.1337644,1.164432,-0.0753063,-0.06588054,0.0576486,0.02043976,0.6805999,-28.69604,29.71688797682279
2,-0.169281,0.04707336,0.984436,1.0,-0.1710358,0.05848694,0.9835205,-31.87166,10.79366,-35.56342,3.728195,0.5358183,0.2529244,1.0,-0.169281,0.04705811,0.984436,28.23245,7.563934,-33.0471,4.051117,0.6941422,0.3492959,0.1346649,1.164882,-0.07570493,-0.06816489,0.06394225,0.02126337,0.6805999,-28.69604,29.71688797682279
2,-0.169281,0.04707336,0.984436,1.0,-0.1710358,0.05848694,0.9835205,-31.87166,10.79366,-35.56342,3.728195,0.5358183,0.2529244,1.0,-0.169281,0.04705811,0.984436,28.23245,7.563934,-33.0471,4.051117,0.6941422,0.3492959,0.1346649,1.164882,-0.07570493,-0.06816489,0.06394225,0.02126337,0.6805999,-28.69604,29.71688797682279
2,-0.169281,0.04707336,0.984436,1.0,-0.1710358,0.05848694,0.9835205,-31.87166,10.79366,-35.56342,3.728195,0.5358183,0.2529244,1.0,-0.169281,0.04705811,0.984436,28.23245,7.563934,-33.0471,4.051117,0.6941422,0.3492959,0.1351558,1.165101,-0.07592344,-0.06934012,0.0670415,0.02185945,0.6805999,-28.69604,29.71688797682279
2,-0.169281,0.04707336,0.984436,1.0,-0.1710358,0.05848694,0.9835205,-31.87166,10.79366,-35.56342,3.728195,0.5358183,0.2529244,1.0,-0.169281,0.04705811,0.984436,28.23245,7.563934,-33.0471,4.051117,0.6941422,0.3492959,0.1351558,1.165101,-0.07592344,-0.06934012,0.0670415,0.02185945,0.6805999,-28.69604,29.71688797682279
2,-0.169281,0.04707336,0.984436,1.0,-0.1710358,0.05848694,0.9835205,-31.87166,10.79366,-35.56342,3.728195,0.5358183,0.2529244,1.0,-0.169281,0.04705811,0.984436,28.23245,7.563934,-33.0471,4.051117,0.6941422,0.3492959,0.1360594,1.165547,-0.07635415,-0.07195204,0.07309831,0.02299236,0.6805999,-28.69604,29.71688797682279
2,-0.169281,0.04707336,0.984436,1.0,-0.1710358,0.05848694,0.9835205,-31.87166,10.79366,-35.56342,3.728195,0.5358183,0.2529244,1.0,-0.169281,0.04705811,0.984436,28.23245,7.563934,-33.0471,4.051117,0.6941422,0.3492959,0.1360594,1.165547,-0.07635415,-0.07195204,0.07309831,0.02299236,0.6805999,-28.69604,29.71688797682279
2,-0.169281,0.04707336,0.984436,1.0,-0.1710358,0.05848694,0.9835205,-31.87166,10.79366,-35.56342,3.728195,0.5358183,0.2529244,1.0,-0.169281,0.04705811,0.984436,28.23245,7.563934,-33.0471,4.051117,0.6941422,0.3492959,0.1370236,1.166068,-0.07681298,-0.07425317,0.07936533,0.02397027,0.6805999,-28.69604,29.71688797682279
2,-0.169281,0.04707336,0.984436,1.0,-0.1710358,0.05848694,0.9835205,-31.87166,10.79366,-35.56342,3.728195,0.5358183,0.2529244,1.0,-0.169281,0.04705811,0.984436,28.23245,7.563934,-33.0471,4.051117,0.6941422,0.3492959,0.1379498,1.166484,-0.07727498,-0.07630958,0.0854167,0.02527445,0.6805999,-28.69604,29.71688797682279
2,-0.169281,0.04707336,0.984436,1.0,-0.1710358,0.05848694,0.9835205,-31.87166,10.79366,-35.56342,3.728195,0.5358183,0.2529244,1.0,-0.169281,0.04705811,0.984436,28.23245,7.563934,-33.0471,4.051117,0.6941422,0.3492959,0.1379498,1.166484,-0.07727498,-0.07630958,0.0854167,0.02527445,0.6805999,-28.69604,29.71688797682279
2,-0.09617615,0.04588318,0.9942932,1.0,-0.1002045,0.04141235,0.9940948,-31.35152,10.5479,-35.06064,3.729431,0.5035532,0.2619191,1.0,-0.09613037,0.04594421,0.9942932,28.84756,7.190842,-32.18924,3.848526,0.6559208,0.3568345,0.1384358,1.166701,-0.07759273,-0.07716456,0.08822948,0.02580019,0.6805999,-28.69604,29.71688797682279
2,-0.08547974,0.02952576,0.9958954,1.0,-0.08166504,0.01939392,0.99646,-31.38063,10.79918,-36.13745,3.622223,0.5014728,0.2656682,1.0,-0.09031677,0.04240417,0.9949951,28.87384,7.165115,-32.10542,4.047119,0.6537743,0.3578361,0.1393303,1.16709,-0.07807922,-0.07924432,0.0941963,0.0265606,0.6805999,-28.69604,29.71688797682279
2,-0.06594849,0.03552246,0.9971771,1.0,-0.06596375,0.0355072,0.9971771,-31.24155,10.5959,-35.47597,3.695282,0.4934191,0.2647132,1.0,-0.0597229,0.03651428,0.9975433,28.94514,7.222824,-32.33568,3.894806,0.6458789,0.3588599,0.1397561,1.167281,-0.07831836,-0.08024571,0.0970545,0.0268041,0.6805999,-8.414429,29.71688797682279
2,-0.06594849,0.03552246,0.9971771,1.0,-0.06596375,0.0355072,0.9971771,-31.24155,10.5959,-35.47597,3.695282,0.4934191,0.2647132,1.0,-0.0597229,0.03651428,0.9975433,28.94514,7.222824,-32.33568,3.894806,0.6458789,0.3588599,0.1397561,1.167281,-0.07831836,-0.08024571,0.0970545,0.0268041,0.6805999,-8.414429,29.71688797682279
2,-0.06080627,0.04243469,0.9972382,1.0,-0.06047058,0.04771423,0.9970245,-31.17542,10.41815,-34.84114,3.688324,0.4899406,0.2638389,1.0,-0.06135559,0.03347778,0.9975433,29.07364,7.372131,-32.98924,3.890976,0.6424451,0.3596536,0.1406745,1.167733,-0.07872701,-0.08216384,0.1027144,0.02768844,0.6805999,-8.414429,29.71688797682279
2,-0.04457092,0.02079773,0.9987793,1.0,-0.05291748,0.03770447,0.997879,-31.09398,10.35506,-34.55728,3.6772,0.4855915,0.2658749,1.0,-0.04450989,0.02069092,0.9987793,29.09987,7.365067,-32.85364,3.983932,0.6382639,0.3611057,0.1410769,1.167925,-0.07888746,-0.08297136,0.1053927,0.02818847,0.6805999,-8.414429,29.71688797682279
2,-0.04457092,0.02079773,0.9987793,1.0,-0.05291748,0.03770447,0.997879,-31.09398,10.35506,-34.55728,3.6772,0.4855915,0.2658749,1.0,-0.04450989,0.02069092,0.9987793,29.09987,7.365067,-32.85364,3.983932,0.6382639,0.3611057,0.1410769,1.167925,-0.07888746,-0.08297136,0.1053927,0.02818847,0.6805999,-8.414429,29.71688797682279
2,-0.02453613,0.02870178,0.9992828,1.0,-0.0335083,0.02320862,0.9991608,-31.06944,10.65712,-35.75484,3.667038,0.4813011,0.2670538,1.0,-0.02452087,0.02871704,0.9992828,29.16725,7.323624,-32.76596,3.947571,0.6320691,0.360462,0.1415064,1.168118,-0.07904112,-0.0839013,0.1078223,0.02870911,0.6805999,-8.414429,29.71688797682279
2,-0.02745056,0.02151489,0.9993896,1.0,-0.03512573,0.04026794,0.9985657,-30.96411,10.44324,-35.02299,3.603653,0.4777494,0.2658283,1.0,-0.02722168,0.02093506,0.9994049,29.24463,7.395569,-33.05363,3.822327,0.6300459,0.3618065,0.1419069,1.168301,-0.07924116,-0.08470457,0.1103596,0.02929153,0.6805999,-8.414429,29.71688797682279
2,-0.005004883,0.03175354,0.9994812,1.0,-0.0244751,0.0255127,0.9993744,-30.92722,10.22102,-34.24561,3.682205,0.4744524,0.2707936,1.0,-0.001876831,0.03274536,0.9994507,29.27165,7.064316,-32.06773,3.920654,0.623249,0.3632579,0.1427141,1.168579,-0.07962286,-0.08644087,0.1155418,0.02962438,0.6805999,-8.414429,29.71688797682279
2,-0.005004883,0.03175354,0.9994812,1.0,-0.0244751,0.0255127,0.9993744,-30.92722,10.22102,-34.24561,3.682205,0.4744524,0.2707936,1.0,-0.001876831,0.03274536,0.9994507,29.27165,7.064316,-32.06773,3.920654,0.623249,0.3632579,0.1427141,1.168579,-0.07962286,-0.08644087,0.1155418,0.02962438,0.6805999,-8.414429,29.71688797682279
2,-0.01383972,0.03359985,0.9993286,1.0,-0.01516724,0.03385925,0.9992981,-30.86861,10.31155,-34.7258,3.769623,0.4706711,0.2695777,1.0,-0.005279541,0.03189087,0.9994659,29.32068,7.059769,-32.07715,3.903275,0.6220281,0.363816,0.1430774,1.168669,-0.07980722,-0.08708782,0.1182205,0.02981841,0.6805999,-8.414429,29.71688797682279
2,3.051758e-05,0.02882385,0.9995728,1.0,-0.002456665,0.02359009,0.9997101,-30.81383,10.46979,-35.29092,3.724197,0.4663933,0.2701909,1.0,0.003738403,0.03652954,0.9993134,29.39311,7.227844,-32.66541,3.976135,0.6186306,0.3619196,0.1438015,1.168887,-0.08011663,-0.08809815,0.1230492,0.03032188,0.6805999,-8.414429,29.71688797682279
2,3.051758e-05,0.02882385,0.9995728,1.0,-0.002456665,0.02359009,0.9997101,-30.81383,10.46979,-35.29092,3.724197,0.4663933,0.2701909,1.0,0.003738403,0.03652954,0.9993134,29.39311,7.227844,-32.66541,3.976135,0.6186306,0.3619196,0.1438015,1.168887,-0.08011663,-0.08809815,0.1230492,0.03032188,0.6805999,-8.414429,29.71688797682279
2,0.0163269,0.03305054,0.9993134,1.0,0.01821899,0.03083801,0.9993439,-30.7937,10.55923,-35.56406,3.573654,0.4619062,0.267568,1.0,0.01313782,0.03675842,0.9992371,29.43785,7.090149,-32.18846,4.046829,0.614772,0.36284,0.1441778,1.169011,-0.08028281,-0.08864062,0.1252485,0.03076245,0.6805999,-8.414429,29.71688797682279
2,0.02401733,0.04060364,0.9988861,1.0,0.02786255,0.02828979,0.9992065,-30.77625,10.56277,-35.5638,3.826202,0.4595093,0.2677222,1.0,0.0231781,0.04324341,0.9987946,29.47691,7.07103,-32.11215,4.005066,0.6114644,0.3617848,0.1447843,1.1694,-0.08060455,-0.08989349,0.1296311,0.03161268,0.6805999,-8.414429,29.71688797682279
2,0.02401733,0.04060364,0.9988861,1.0,0.02786255,0.02828979,0.9992065,-30.77625,10.56277,-35.5638,3.826202,0.4595093,0.2677222,1.0,0.0231781,0.04324341,0.9987946,29.47691,7.07103,-32.11215,4.005066,0.6114644,0.3617848,0.1447843,1.1694,-0.08060455,-0.08989349,0.1296311,0.03161268,0.6805999,-8.414429,29.71688797682279
2,0.02998352,0.0393219,0.998764,1.0,0.01997375,0.04669189,0.998703,-30.66708,10.25549,-34.55251,3.796707,0.4570922,0.2675034,1.0,0.02998352,0.0393219,0.998764,29.52563,7.087601,-32.14932,3.997787,0.6085327,0.3622694,0.1450973,1.169423,-0.08061862,-0.09053849,0.1315475,0.03216316,0.6805999,-8.414429,29.71688797682279
2,0.04325867,0.06118774,0.9971771,1.0,0.03675842,0.03765869,0.9986115,-30.60985,10.67267,-36.14246,3.762482,0.4517456,0.2663661,1.0,0.04325867,0.061203,0.9971771,29.55917,6.879028,-31.53548,4.019135,0.6042771,0.3607403,0.1453817,1.169505,-0.08074671,-0.09107926,0.1334955,0.03260832,0.6805999,-8.414429,29.71688797682279
2,0.04882813,0.0663147,0.9965973,1.0,0.03605652,0.03396606,0.998764,-30.5667,10.76591,-36.57042,3.711746,0.4502305,0.2671105,1.0,0.04882813,0.06632996,0.9965973,29.61534,6.905548,-31.64621,4.05423,0.6014393,0.3598513,0.145655,1.169626,-0.08087504,-0.09162725,0.1352347,0.03304477,0.6805999,-25.66333,29.71688797682279
2,0.05548096,0.06587219,0.9962769,1.0,0.03881836,0.04420471,0.9982605,-30.53958,10.78813,-36.69583,3.596375,0.4486983,0.265278,1.0,0.05548096,0.06587219,0.9962769,29.64326,6.918625,-31.69637,4.167465,0.5993749,0.3599418,0.1462544,1.169884,-0.08109945,-0.09303488,0.1385616,0.03380003,0.6805999,-25.66333,29.71688797682279
2,0.05548096,0.06587219,0.9962769,1.0,0.03881836,0.04420471,0.9982605,-30.53958,10.78813,-36.69583,3.596375,0.4486983,0.265278,1.0,0.05548096,0.06587219,0.9962769,29.64326,6.918625,-31.69637,4.167465,0.5993749,0.3599418,0.1462544,1.169884,-0.08109945,-0.09303488,0.1385616,0.03380003,0.6805999,-25.66333,29.71688797682279
2,0.05461121,0.04931641,0.9972839,1.0,0.04418945,0.03962708,0.99823,-30.49269,10.74556,-36.56552,3.721161,0.4460207,0.2666418,1.0,0.05461121,0.04931641,0.9972839,29.68007,6.90094,-31.63861,4.126404,0.5981038,0.3630663,0.1465019,1.169966,-0.08119881,-0.0937713,0.1402046,0.0341317,0.6805999,-25.66333,29.71688797682279
2,0.04501343,0.03068542,0.9985046,1.0,0.04495239,0.03041077,0.9985199,-30.45201,10.68092,-36.34464,3.641068,0.444468,0.2692079,1.0,0.04876709,0.04699707,0.9976959,29.83316,7.331314,-33.18254,4.100174,0.5953256,0.3610438,0.1466981,1.170158,-0.08132088,-0.09441569,0.1417737,0.03449907,0.6805999,-25.66333,29.71688797682279
2,0.05914307,0.03871155,0.9974976,1.0,0.05914307,0.03871155,0.9974976,-30.437,10.65817,-36.23868,3.807358,0.4413167,0.2673307,1.0,0.05471802,0.03492737,0.997879,29.84657,7.314209,-33.11929,4.146011,0.5937077,0.3633721,0.1471618,1.170529,-0.08159542,-0.09613059,0.1445654,0.03529901,0.6805999,-25.66333,29.71688797682279
2,0.0615387,0.03363037,0.9975281,1.0,0.0615387,0.03363037,0.9975281,-30.44072,10.68797,-36.2874,3.912277,0.4410003,0.2675001,1.0,0.05355835,0.03889465,0.9978027,29.84514,7.329453,-33.10321,4.157089,0.5939767,0.3619291,0.1473795,1.170718,-0.08171946,-0.09719426,0.1459324,0.03567525,0.6805999,-25.66333,29.71688797682279
2,0.0615387,0.03363037,0.9975281,1.0,0.0615387,0.03363037,0.9975281,-30.44072,10.68797,-36.2874,3.912277,0.4410003,0.2675001,1.0,0.05355835,0.03889465,0.9978027,29.84514,7.329453,-33.10321,4.157089,0.5939767,0.3619291,0.1473795,1.170718,-0.08171946,-0.09719426,0.1459324,0.03567525,0.6805999,-25.66333,29.71688797682279
2,-0.0003662109,0.05244446,0.9986115,1.0,-0.0003662109,0.05244446,0.9986115,-30.87823,10.58469,-34.95708,3.897217,0.4683246,0.2567132,1.0,0.008453369,0.06163025,0.9980621,29.28787,7.315125,-32.28596,4.177246,0.6213673,0.3509867,0.1473795,1.170718,-0.08171946,-0.09719426,0.1459324,0.03567525,0.6805999,-25.66333,29.71688797682279
3,-0.06271362,0.07110596,0.9954834,1.0,-0.06271362,0.07110596,0.9954834,-31.0903,10.97423,-35.87793,3.997864,0.4874555,0.245099,1.0,-0.05355835,0.0528717,0.9971619,28.98767,7.720261,-32.98541,3.97879,0.6446102,0.343116,0.1479179,1.171127,-0.08198166,-0.09980897,0.1488882,0.03613962,0.6805999,-25.66333,29.71688797682279
3,-0.1446228,0.1181946,0.9823914,1.0,-0.1351166,0.1311493,0.9821014,-31.49258,11.17516,-35.65834,4.079254,0.5158824,0.2219603,1.0,-0.1479187,0.113678,0.9824371,28.41634,7.921082,-32.65237,4.322998,0.6840491,0.3197751,0.1484354,1.171699,-0.0823319,-0.103204,0.1522948,0.03689776,0.6805999,-25.66333,29.71688797682279
3,-0.1446228,0.1181946,0.9823914,1.0,-0.1351166,0.1311493,0.9821014,-31.49258,11.17516,-35.65834,4.079254,0.5158824,0.2219603,1.0,-0.1479187,0.113678,0.9824371,28.41634,7.921082,-32.65237,4.322998,0.6840491,0.3197751,0.1484354,1.171699,-0.0823319,-0.103204,0.1522948,0.03689776,0.6805999,-25.66333,29.71688797682279
3,-0.1827393,0.1701355,0.9683228,1.0,-0.1895599,0.156723,0.9692688,-31.88484,11.37839,-35.89421,4.071701,0.5411757,0.2093704,1.0,-0.1658325,0.2028961,0.9650421,27.97028,8.099197,-32.73138,4.615768,0.7065933,0.2948308,0.1489893,1.172477,-0.08267534,-0.1069602,0.1560415,0.03850269,0.6805999,-25.66333,29.71688797682279
3,-0.2313538,0.1620331,0.9592743,1.0,-0.2303925,0.1598969,0.9598541,-32.15785,11.49498,-35.94855,4.017029,0.559495,0.2036496,1.0,-0.2347107,0.1695404,0.9571533,27.69107,8.184738,-32.77303,4.246033,0.7307063,0.2971134,0.1495436,1.173296,-0.08308184,-0.110902,0.1598188,0.04094454,0.6805999,-55.49475,29.71688797682279
3,-0.2313538,0.1620331,0.9592743,1.0,-0.2303925,0.1598969,0.9598541,-32.15785,11.49498,-35.94855,4.017029,0.559495,0.2036496,1.0,-0.2347107,0.1695404,0.9571533,27.69107,8.184738,-32.77303,4.246033,0.7307063,0.2971134,0.1495436,1.173296,-0.08308184,-0.110902,0.1598188,0.04094454,0.6805999,-55.49475,29.71688797682279
3,-0.2433167,0.1851959,0.9520874,1.0,-0.2414246,0.187088,0.9522095,-32.28325,11.52005,-36.0061,3.964355,0.5668136,0.1967133,1.0,-0.2482452,0.1802368,0.951767,27.62512,8.205521,-32.79837,4.190643,0.736373,0.2940322,0.1502417,1.17411,-0.08357072,-0.1153846,0.1642018,0.04360269,0.6805999,-55.49475,29.71688797682279
3,-0.2433167,0.1851959,0.9520874,1.0,-0.2414246,0.187088,0.9522095,-32.28325,11.52005,-36.0061,3.964355,0.5668136,0.1967133,1.0,-0.2482452,0.1802368,0.951767,27.62512,8.205521,-32.79837,4.190643,0.736373,0.2940322,0.1502417,1.17411,-0.08357072,-0.1153846,0.1642018,0.04360269,0.6805999,-55.49475,29.71688797682279
3,-0.2387085,0.1749725,0.9551849,1.0,-0.2344513,0.1736755,0.9564819,-32.27939,11.47014,-35.98537,3.9897,0.5650243,0.2018691,1.0,-0.2443085,0.1766663,0.9534607,27.71637,8.159958,-32.78259,4.346054,0.7317999,0.2967483,0.1508074,1.174943,-0.08408666,-0.1196496,0.1689691,0.04597062,0.6805999,-55.49475,29.71688797682279
3,-0.2387085,0.1749725,0.9551849,1.0,-0.2344513,0.1736755,0.9564819,-32.27939,11.47014,-35.98537,3.9897,0.5650243,0.2018691,1.0,-0.2443085,0.1766663,0.9534607,27.71637,8.159958,-32.78259,4.346054,0.7317999,0.2967483,0.1508074,1.174943,-0.08408666,-0.1196496,0.1689691,0.04597062,0.6805999,-55.49475,29.71688797682279
3,-0.2295837,0.1599579,0.9600372,1.0,-0.2376556,0.1525879,0.9592743,-32.21805,11.43364,-35.96603,4.112534,0.5629656,0.2080454,1.0,-0.220108,0.1685944,0.9607849,27.72668,8.120682,-32.76151,4.331512,0.7261887,0.2999837,0.1512846,1.175805,-0.08477598,-0.1234535,0.1737666,0.04825469,0.6805999,-55.49475,30.75
3,-0.2295837,0.1599579,0.9600372,1.0,-0.2376556,0.1525879,0.9592743,-32.21805,11.43364,-35.96603,4.112534,0.5629656,0.2080454,1.0,-0.220108,0.1685944,0.9607849,27.72668,8.120682,-32.76151,4.331512,0.7261887,0.2999837,0.1512846,1.175805,-0.08477598,-0.1234535,0.1737666,0.04825469,0.6805999,-55.49475,30.75
3,-0.218689,0.1461945,0.9647675,1.0,-0.2210846,0.1582336,0.962326,-32.23177,11.35556,-35.96013,4.071915,0.5602369,0.2103055,1.0,-0.2156067,0.1310272,0.9676361,27.75281,8.07402,-32.7133,4.273651,0.7233239,0.3090311,0.1518559,1.176677,-0.08546591,-0.127716,0.1784148,0.05063491,0.6805999,-55.49475,30.75
3,-0.218689,0.1461945,0.9647675,1.0,-0.2210846,0.1582336,0.962326,-32.23177,11.35556,-35.96013,4.071915,0.5602369,0.2103055,1.0,-0.2156067,0.1310272,0.9676361,27.75281,8.07402,-32.7133,4.273651,0.7233239,0.3090311,0.1518559,1.176677,-0.08546591,-0.127716,0.1784148,0.05063491,0.6805999,-55.49475,30.75
3,-0.218689,0.1461945,0.9647675,1.0,-0.2210846,0.1582336,0.962326,-32.23177,11.35556,-35.96013,4.071915,0.5602369,0.2103055,1.0,-0.2156067,0.1310272,0.9676361,27.75281,8.07402,-32.7133,4.273651,0.7233239,0.3090311,0.1518559,1.176677,-0.08546591,-0.127716,0.1784148,0.05063491,0.6805999,-55.49475,30.75
3,-0.218689,0.1461945,0.9647675,1.0,-0.2210846,0.1582336,0.962326,-32.23177,11.35556,-35.96013,4.071915,0.5602369,0.2103055,1.0,-0.2156067,0.1310272,0.9676361,27.75281,8.07402,-32.7133,4.273651,0.7233239,0.3090311,0.1523005,1.177536,-0.08617616,-0.1324916,0.1825317,0.05261316,0.6805999,-55.49475,30.75
3,-0.218689,0.1461945,0.9647675,1.0,-0.2210846,0.1582336,0.962326,-32.23177,11.35556,-35.96013,4.071915,0.5602369,0.2103055,1.0,-0.2156067,0.1310272,0.9676361,27.75281,8.07402,-32.7133,4.273651,0.7233239,0.3090311,0.1526537,1.178453,-0.08680081,-0.1370447,0.1866523,0.05416567,0.6805999,-55.49475,30.75
3,-0.218689,0.1461945,0.9647675,1.0,-0.2210846,0.1582336,0.962326,-32.23177,11.35556,-35.96013,4.071915,0.5602369,0.2103055,1.0,-0.2156067,0.1310272,0.9676361,27.75281,8.07402,-32.7133,4.273651,0.7233239,0.3090311,0.1526537,1.178453,-0.08680081,-0.1370447,0.1866523,0.05416567,0.6805999,-55.49475,30.75
3,-0.1843719,0.1399231,0.9728394,1.0,-0.1871948,0.1480713,0.9710846,-32.0269,11.14024,-35.92213,4.083801,0.5456668,0.2220143,1.0,-0.1798706,0.1270599,0.9754333,28.09846,7.886475,-32.62984,4.462143,0.702381,0.3175549,0.1529179,1.179262,-0.08753014,-0.1413465,0.1902329,0.0555786,0.6805999,-55.49475,30.75
3,-0.1843719,0.1399231,0.9728394,1.0,-0.1871948,0.1480713,0.9710846,-32.0269,11.14024,-35.92213,4.083801,0.5456668,0.2220143,1.0,-0.1798706,0.1270599,0.9754333,28.09846,7.886475,-32.62984,4.462143,0.702381,0.3175549,0.1529179,1.179262,-0.08753014,-0.1413465,0.1902329,0.0555786,0.6805999,-55.49475,30.75
3,-0.1843719,0.1399231,0.9728394,1.0,-0.1871948,0.1480713,0.9710846,-32.0269,11.14024,-35.92213,4.083801,0.5456668,0.2220143,1.0,-0.1798706,0.1270599,0.9754333,28.09846,7.886475,-32.62984,4.462143,0.702381,0.3175549,0.1529179,1.179262,-0.08753014,-0.1413465,0.1902329,0.0555786,0.6805999,-55.49475,30.75
3,-0.1657562,0.1130676,0.97966,1.0,-0.1643982,0.1140137,0.9797668,-31.9411,11.01582,-35.67978,4.18544,0.5376824,0.2324467,1.0,-0.1667328,0.112381,0.9795685,28.24037,7.786316,-32.62129,4.478455,0.6940297,0.3245828,0.1532001,1.180102,-0.08815849,-0.1453939,0.1931816,0.05696774,0.6805999,-23.22021,30.75
3,-0.1657562,0.1130676,0.97966,1.0,-0.1643982,0.1140137,0.9797668,-31.9411,11.01582,-35.67978,4.18544,0.5376824,0.2324467,1.0,-0.1667328,0.112381,0.9795685,28.24037,7.786316,-32.62129,4.478455,0.6940297,0.3245828,0.1532001,1.180102,-0.08815849,-0.1453939,0.1931816,0.05696774,0.6805999,-23.22021,30.75
3,-0.1535339,0.09811401,0.9832458,1.0,-0.1643219,0.09669495,0.9816437,-31.86565,10.94583,-35.6794,4.172516,0.5346885,0.2391659,1.0,-0.1488037,0.09873962,0.9839172,28.32408,7.735031,-32.72687,4.533661,0.687429,0.3302295,0.1533717,1.180856,-0.08886862,-0.1489311,0.1957286,0.05825249,0.6805999,-23.22021,30.75
3,-0.1462555,0.109024,0.9832153,1.0,-0.1549225,0.09712219,0.983139,-31.81274,10.81866,-35.3548,4.269119,0.5307694,0.2414666,1.0,-0.1451263,0.1105957,0.9832001,28.36131,7.658615,-32.61147,4.638229,0.6851635,0.3300585,0.1535543,1.181526,-0.0894801,-0.1528173,0.198519,0.05893886,0.6805999,-23.22021,30.75
3,-0.1462555,0.109024,0.9832153,1.0,-0.1549225,0.09712219,0.983139,-31.81274,10.81866,-35.3548,4.269119,0.5307694,0.2414666,1.0,-0.1451263,0.1105957,0.9832001,28.36131,7.658615,-32.61147,4.638229,0.6851635,0.3300585,0.1535543,1.181526,-0.0894801,-0.1528173,0.198519,0.05893886,0.6805999,-23.22021,30.75
3,-0.1319427,0.09721375,0.9864655,1.0,-0.1448975,0.09448242,0.9849091,-31.75594,10.75336,-35.31984,4.317581,0.5267486,0.2443937,1.0,-0.1316986,0.09725952,0.986496,28.46042,7.661758,-32.81679,4.615143,0.679112,0.3343917,0.1536169,1.182099,-0.0901562,-0.155972,0.201012,0.05972845,0.6805999,-23.22021,30.75
3,-0.1319427,0.09721375,0.9864655,1.0,-0.1448975,0.09448242,0.9849091,-31.75594,10.75336,-35.31984,4.317581,0.5267486,0.2443937,1.0,-0.1316986,0.09725952,0.986496,28.46042,7.661758,-32.81679,4.615143,0.679112,0.3343917,0.1536169,1.182099,-0.0901562,-0.155972,0.201012,0.05972845,0.6805999,-23.22021,30.75
3,-0.124527,0.06951904,0.9897614,1.0,-0.1429291,0.08303833,0.9862366,-31.71588,10.86031,-35.95453,4.192108,0.5251392,0.2480928,1.0,-0.1243286,0.0693512,0.9898071,28.49043,7.631668,-32.83528,4.506622,0.6762611,0.3410479,0.1536131,1.182754,-0.09065306,-0.1586225,0.2026002,0.06098741,0.6805999,-23.22021,30.75
3,-0.124527,0.06951904,0.9897614,1.0,-0.1429291,0.08303833,0.9862366,-31.71588,10.86031,-35.95453,4.192108,0.5251392,0.2480928,1.0,-0.1243286,0.0693512,0.9898071,28.49043,7.631668,-32.83528,4.506622,0.6762611,0.3410479,0.1536131,1.182754,-0.09065306,-0.1586225,0.2026002,0.06098741,0.6805999,-23.22021,30.75
3,-0.1109467,0.08013916,0.9905853,1.0,-0.1297913,0.06538391,0.9893799,-31.65582,10.77914,-35.74184,4.267181,0.5203006,0.2531298,1.0,-0.1105957,0.08042908,0.9906006,28.60875,7.566986,-32.7404,4.421524,0.6690808,0.3408695,0.1535506,1.183179,-0.0911271,-0.1612485,0.2037307,0.0621212,0.6805999,-23.22021,30.75
3,-0.1109467,0.08013916,0.9905853,1.0,-0.1297913,0.06538391,0.9893799,-31.65582,10.77914,-35.74184,4.267181,0.5203006,0.2531298,1.0,-0.1105957,0.08042908,0.9906006,28.60875,7.566986,-32.7404,4.421524,0.6690808,0.3408695,0.1535506,1.183179,-0.0911271,-0.1612485,0.2037307,0.0621212,0.6805999,-23.22021,30.75
3,-0.1109467,0.08013916,0.9905853,1.0,-0.1297913,0.06538391,0.9893799,-31.65582,10.77914,-35.74184,4.267181,0.5203006,0.2531298,1.0,-0.1105957,0.08042908,0.9906006,28.60875,7.566986,-32.7404,4.421524,0.6690808,0.3408695,0.1535506,1.183179,-0.0911271,-0.1612485,0.2037307,0.0621212,0.6805999,-23.22021,30.75
3,-0.1091766,0.06910706,0.9916077,1.0,-0.1292114,0.07090759,0.9890747,-31.59233,10.80968,-36.04965,4.215546,0.5179967,0.253545,1.0,-0.1076202,0.06896973,0.9917908,28.66202,7.555405,-32.87317,4.472351,0.6666818,0.3446294,0.1533362,1.183558,-0.09152377,-0.1634111,0.2042962,0.06296592,0.6805999,-23.22021,30.75
3,-0.1345825,0.07189941,0.9882813,1.0,-0.1549072,0.07582092,0.9850006,-31.69847,10.68779,-35.37592,4.305527,0.5263416,0.2515517,1.0,-0.1242981,0.06990051,0.9897766,28.4915,7.532623,-32.5887,4.51265,0.6757329,0.3425348,0.153015,1.183819,-0.09191597,-0.1652956,0.2045749,0.0636477,0.6805999,-23.22021,30.75
3,-0.1345825,0.07189941,0.9882813,1.0,-0.1549072,0.07582092,0.9850006,-31.69847,10.68779,-35.37592,4.305527,0.5263416,0.2515517,1.0,-0.1242981,0.06990051,0.9897766,28.4915,7.532623,-32.5887,4.51265,0.6757329,0.3425348,0.153015,1.183819,-0.09191597,-0.1652956,0.2045749,0.0636477,0.6805999,-23.22021,30.75
3,-0.2618103,0.1089935,0.9589386,1.0,-0.2739716,0.1120605,0.9551697,-32.46001,10.99428,-35.90872,4.295822,0.5777191,0.2353907,1.0,-0.2589569,0.1082764,0.9597931,27.50069,7.801666,-32.88513,4.667145,0.7414014,0.3247228,0.1526155,1.183952,-0.09223127,-0.166722,0.2044822,0.06435479,0.6805999,-23.22021,30.75
3,-0.2618103,0.1089935,0.9589386,1.0,-0.2739716,0.1120605,0.9551697,-32.46001,10.99428,-35.90872,4.295822,0.5777191,0.2353907,1.0,-0.2589569,0.1082764,0.9597931,27.50069,7.801666,-32.88513,4.667145,0.7414014,0.3247228,0.1526155,1.183952,-0.09223127,-0.166722,0.2044822,0.06435479,0.6805999,-23.22021,30.75
3,-0.3054962,0.1176147,0.9448853,1.0,-0.3156433,0.1099396,0.9424744,-32.77335,11.06604,-35.98857,4.378113,0.5977428,0.2328292,1.0,-0.3030548,0.1194611,0.9454498,27.22421,7.921432,-32.96455,4.615143,0.7623228,0.3172368,0.152146,1.184108,-0.09240156,-0.1673982,0.2040372,0.06514747,0.6805999,80.78625,30.75
3,-0.3054962,0.1176147,0.9448853,1.0,-0.3156433,0.1099396,0.9424744,-32.77335,11.06604,-35.98857,4.378113,0.5977428,0.2328292,1.0,-0.3030548,0.1194611,0.9454498,27.22421,7.921432,-32.96455,4.615143,0.7623228,0.3172368,0.152146,1.184108,-0.09240156,-0.1673982,0.2040372,0.06514747,0.6805999,80.78625,30.75
3,-0.3013,0.1023407,0.9480133,1.0,-0.3112335,0.1116486,0.9437408,-32.78464,11.05283,-35.98915,4.374481,0.5973117,0.2330244,1.0,-0.2981415,0.09939575,0.9493256,27.23766,7.858673,-32.9482,4.562088,0.760021,0.3237648,0.1516998,1.184182,-0.0926404,-0.167671,0.2034506,0.06594656,0.6805999,80.78625,30.75
3,-0.3013,0.1023407,0.9480133,1.0,-0.3112335,0.1116486,0.9437408,-32.78464,11.05283,-35.98915,4.374481,0.5973117,0.2330244,1.0,-0.2981415,0.09939575,0.9493256,27.23766,7.858673,-32.9482,4.562088,0.760021,0.3237648,0.1516998,1.184182,-0.0926404,-0.167671,0.2034506,0.06594656,0.6805999,80.78625,30.75
3,-0.3042145,0.1180115,0.9452515,1.0,-0.3051453,0.1057434,0.9464111,-32.79497,11.03455,-35.98869,4.368027,0.5963983,0.2350685,1.0,-0.3029785,0.133194,0.943634,27.23393,7.839249,-32.98389,4.653183,0.7619977,0.3180209,0.1513398,1.184279,-0.09272051,-0.1676079,0.2026746,0.06653795,0.6805999,80.78625,30.75
3,-0.3042145,0.1180115,0.9452515,1.0,-0.3051453,0.1057434,0.9464111,-32.79497,11.03455,-35.98869,4.368027,0.5963983,0.2350685,1.0,-0.3029785,0.133194,0.943634,27.23393,7.839249,-32.98389,4.653183,0.7619977,0.3180209,0.1513398,1.184279,-0.09272051,-0.1676079,0.2026746,0.06653795,0.6805999,80.78625,30.75
3,-0.3035278,0.1161804,0.9457092,1.0,-0.3047485,0.108017,0.9462738,-32.80156,11.02382,-35.98915,4.36731,0.5965788,0.2350486,1.0,-0.3021698,0.1251068,0.9449921,27.23203,7.829498,-32.98439,4.710419,0.7617595,0.3199898,0.1511054,1.184231,-0.09273916,-0.1674648,0.2023094,0.06663641,0.7177517,80.78625,30.75
3,-0.3035278,0.1161804,0.9457092,1.0,-0.3047485,0.108017,0.9462738,-32.80156,11.02382,-35.98915,4.36731,0.5965788,0.2350486,1.0,-0.3021698,0.1251068,0.9449921,27.23203,7.829498,-32.98439,4.710419,0.7617595,0.3199898,0.1511054,1.184231,-0.09273916,-0.1674648,0.2023094,0.06663641,0.7177517,80.78625,30.75
3,-0.3033905,0.1172485,0.9456177,1.0,-0.3047943,0.1087494,0.9461823,-32.80779,11.01605,-35.98979,4.365295,0.5968187,0.2352311,1.0,-0.3018494,0.126358,0.944931,27.23094,7.824631,-32.98364,4.631058,0.761658,0.3199898,0.1509001,1.184221,-0.0927372,-0.1672633,0.2018459,0.0668474,0.7177517,80.78625,30.75
3,-0.3017273,0.11763,0.9460907,1.0,-0.3039551,0.1085358,0.9464722,-32.81247,11.01007,-35.99026,4.36618,0.5968187,0.2355148,1.0,-0.2994232,0.1269531,0.9456329,27.22658,7.821045,-32.98099,4.631912,0.7613297,0.3199898,0.1504401,1.184067,-0.09275061,-0.166851,0.200771,0.0669552,0.7177517,80.78625,30.75
3,-0.3017273,0.11763,0.9460907,1.0,-0.3039551,0.1085358,0.9464722,-32.81247,11.01007,-35.99026,4.36618,0.5968187,0.2355148,1.0,-0.2994232,0.1269531,0.9456329,27.22658,7.821045,-32.98099,4.631912,0.7613297,0.3199898,0.1504401,1.184067,-0.09275061,-0.166851,0.200771,0.0669552,0.7177517,80.78625,30.75
3,-0.3025208,0.1179199,0.945816,1.0,-0.3055878,0.1091003,0.9458771,-32.81517,11.00485,-35.99173,4.359146,0.5972363,0.2356468,1.0,-0.2992096,0.1273193,0.9456482,27.22488,7.819244,-32.9807,4.606888,0.7613297,0.3199975,0.150254,1.184017,-0.09269655,-0.1666408,0.2001675,0.06692193,0.7177517,80.78625,30.75
3,-0.3037567,0.1183624,0.9453583,1.0,-0.3066101,0.1098175,0.9454651,-32.81927,11.00165,-35.99428,4.353027,0.5975944,0.2356575,1.0,-0.3006744,0.1275024,0.9451599,27.22412,7.816895,-32.97876,4.606079,0.761658,0.320031,0.1499156,1.18397,-0.09257138,-0.1659736,0.1992442,0.06692983,0.7177517,80.78625,30.75
3,-0.3037567,0.1183624,0.9453583,1.0,-0.3066101,0.1098175,0.9454651,-32.81927,11.00165,-35.99428,4.353027,0.5975944,0.2356575,1.0,-0.3006744,0.1275024,0.9451599,27.22412,7.816895,-32.97876,4.606079,0.761658,0.320031,0.1499156,1.18397,-0.09257138,-0.1659736,0.1992442,0.06692983,0.7177517,80.78625,30.75
3,-0.3038635,0.1169891,0.9454956,1.0,-0.3063049,0.1099701,0.9455566,-32.82378,10.99867,-35.99545,4.345261,0.5977031,0.235774,1.0,-0.301239,0.1244507,0.9453888,27.224,7.816803,-32.97868,4.6035,0.7617087,0.3206381,0.1495188,1.18382,-0.09248507,-0.1653816,0.1983448,0.06670604,0.7177517,54.60168,30.75
3,-0.3038635,0.1169891,0.9454956,1.0,-0.3063049,0.1099701,0.9455566,-32.82378,10.99867,-35.99545,4.345261,0.5977031,0.235774,1.0,-0.301239,0.1244507,0.9453888,27.224,7.816803,-32.97868,4.6035,0.7617087,0.3206381,0.1495188,1.18382,-0.09248507,-0.1653816,0.1983448,0.06670604,0.7177517,54.60168,30.75
3,-0.3038635,0.1169891,0.9454956,1.0,-0.3063049,0.1099701,0.9455566,-32.82378,10.99867,-35.99545,4.345261,0.5977031,0.235774,1.0,-0.301239,0.1244507,0.9453888,27.224,7.816803,-32.97868,4.6035,0.7617087,0.3206381,0.1494437,1.183833,-0.09235013,-0.1651369,0.1978281,0.0668503,0.7177517,54.60168,30.75
3,-0.3038635,0.1169891,0.9454956,1.0,-0.3063049,0.1099701,0.9455566,-32.82378,10.99867,-35.99545,4.345261,0.5977031,0.235774,1.0,-0.301239,0.1244507,0.9453888,27.224,7.816803,-32.97868,4.6035,0.7617087,0.3206381,0.1492982,1.183788,-0.09232849,-0.1649107,0.1975075,0.06689598,0.7177517,54.60168,30.75
3,-0.3038635,0.1169891,0.9454956,1.0,-0.3063049,0.1099701,0.9455566,-32.82378,10.99867,-35.99545,4.345261,0.5977031,0.235774,1.0,-0.301239,0.1244507,0.9453888,27.224,7.816803,-32.97868,4.6035,0.7617087,0.3206381,0.1492982,1.183788,-0.09232849,-0.1649107,0.1975075,0.06689598,0.7177517,54.60168,30.75
3,-0.3038635,0.1169891,0.9454956,1.0,-0.3063049,0.1099701,0.9455566,-32.82378,10.99867,-35.99545,4.345261,0.5977031,0.235774,1.0,-0.301239,0.1244507,0.9453888,27.224,7.816803,-32.97868,4.6035,0.7617087,0.3206381,0.1491309,1.183726,-0.09213984,-0.1645284,0.1968869,0.06713901,0.7177517,54.60168,30.75
3,-0.317749,0.1074066,0.9420624,1.0,-0.3221741,0.1061096,0.9407043,-32.90765,11.03387,-36.02956,4.078354,0.6040466,0.2355929,1.0,-0.3125763,0.1089325,0.9436188,27.12108,7.866089,-32.99922,4.384567,0.7679583,0.3216443,0.1491094,1.183745,-0.09206653,-0.1642926,0.1965985,0.0672809,0.7177517,54.60168,30.75
3,-0.317749,0.1074066,0.9420624,1.0,-0.3221741,0.1061096,0.9407043,-32.90765,11.03387,-36.02956,4.078354,0.6040466,0.2355929,1.0,-0.3125763,0.1089325,0.9436188,27.12108,7.866089,-32.99922,4.384567,0.7679583,0.3216443,0.1491094,1.183745,-0.09206653,-0.1642926,0.1965985,0.0672809,0.7177517,54.60168,30.75
3,-0.3142242,0.1125488,0.9426422,1.0,-0.3234863,0.115387,0.9391632,-32.91972,11.04814,-36.04207,4.033752,0.60495,0.2331038,1.0,-0.3056641,0.1099243,0.945755,27.11041,7.867874,-32.99477,4.235703,0.7668251,0.3214216,0.1488501,1.183559,-0.09197801,-0.1636186,0.1961482,0.06774826,0.7177517,54.60168,30.75
3,-0.3138885,0.1130981,0.942688,1.0,-0.3238068,0.114563,0.9391479,-32.92194,11.05215,-36.04254,4.033524,0.6050934,0.2331038,1.0,-0.3044434,0.1116791,0.9459534,27.10558,7.866882,-32.99667,4.255585,0.7668251,0.3211013,0.1488167,1.183537,-0.09186745,-0.1630989,0.1958536,0.06822355,0.7177517,54.60168,30.75
3,-0.3139954,0.1129913,0.9426575,1.0,-0.3242188,0.1140289,0.9390717,-32.92474,11.05499,-36.04303,4.018051,0.605283,0.2331038,1.0,-0.3033447,0.1119232,0.9462738,27.10004,7.865723,-32.99831,4.255188,0.7668251,0.3211013,0.1487168,1.183411,-0.0917604,-0.1622409,0.1954646,0.06900644,0.7177517,54.60168,30.75
3,-0.3139954,0.1129913,0.9426575,1.0,-0.3242188,0.1140289,0.9390717,-32.92474,11.05499,-36.04303,4.018051,0.605283,0.2331038,1.0,-0.3033447,0.1119232,0.9462738,27.10004,7.865723,-32.99831,4.255188,0.7668251,0.3211013,0.1487168,1.183411,-0.0917604,-0.1622409,0.1954646,0.06900644,0.7177517,54.60168,30.75
3,-0.3136444,0.1120605,0.9428864,1.0,-0.3236389,0.1137848,0.9393005,-32.92906,11.05661,-36.04318,3.996094,0.6053348,0.2331038,1.0,-0.3022766,0.1101074,0.9468231,27.09361,7.865723,-33.00061,4.248383,0.7668251,0.3214669,0.1486955,1.183317,-0.09171808,-0.1619263,0.1954298,0.06928595,0.7177517,54.60168,30.75
3,-0.3132477,0.1124573,0.9429779,1.0,-0.3235626,0.1139679,0.9393005,-32.93135,11.05672,-36.04321,4.005737,0.6054112,0.2330422,1.0,-0.3014984,0.1107178,0.9470062,27.09021,7.866287,-33.00212,4.253998,0.7668265,0.3213251,0.1486121,1.183206,-0.09160137,-0.1613777,0.1955367,0.06970321,0.7177517,54.60168,30.75
3,-0.3132477,0.1124573,0.9429779,1.0,-0.3235626,0.1139679,0.9393005,-32.93135,11.05672,-36.04321,4.005737,0.6054112,0.2330422,1.0,-0.3014984,0.1107178,0.9470062,27.09021,7.866287,-33.00212,4.253998,0.7668265,0.3213251,0.1486121,1.183206,-0.09160137,-0.1613777,0.1955367,0.06970321,0.7177517,54.60168,30.75
3,-0.3126984,0.1134491,0.9430389,1.0,-0.3227997,0.1150208,0.9394379,-32.93665,11.05891,-36.04477,3.982803,0.6054878,0.2327531,1.0,-0.3010406,0.1116486,0.9470367,27.0743,7.867538,-33.00459,4.244934,0.7674063,0.3210609,0.148548,1.183105,-0.0915677,-0.1611449,0.1956617,0.06977971,0.7177517,54.60168,30.75
3,-0.3128052,0.1151886,0.9427948,1.0,-0.321991,0.1158295,0.939621,-32.94437,11.06285,-36.0464,3.978012,0.6056473,0.2324042,1.0,-0.3021698,0.1144409,0.9463501,27.06079,7.868271,-33.00546,4.235062,0.7682555,0.3204224,0.1484734,1.183045,-0.09148973,-0.1606267,0.1958595,0.07053446,0.7177517,27.92786,30.75
3,-0.3128052,0.1151886,0.9427948,1.0,-0.321991,0.1158295,0.939621,-32.94437,11.06285,-36.0464,3.978012,0.6056473,0.2324042,1.0,-0.3021698,0.1144409,0.9463501,27.06079,7.868271,-33.00546,4.235062,0.7682555,0.3204224,0.1484734,1.183045,-0.09148973,-0.1606267,0.1958595,0.07053446,0.7177517,27.92786,30.75
3,-0.3132935,0.1151733,0.9426422,1.0,-0.3233185,0.1166382,0.9390564,-32.95471,11.06728,-36.04796,3.957581,0.6063278,0.232051,1.0,-0.3016052,0.1134338,0.94664,27.05534,7.873657,-33.00612,4.200638,0.7683282,0.3204224,0.1484985,1.183081,-0.0913856,-0.1603009,0.1959598,0.07107396,0.7177517,27.92786,30.75
3,-0.3130341,0.1145935,0.9427948,1.0,-0.3228149,0.116394,0.93927,-32.95728,11.0687,-36.04893,3.954102,0.6063278,0.2320461,1.0,-0.3016052,0.1124878,0.9467621,27.05415,7.879333,-33.00708,4.175049,0.7683527,0.3203951,0.1484684,1.182997,-0.09129608,-0.1599749,0.1964182,0.07202893,0.7177517,27.92786,30.75
3,-0.3130341,0.1145935,0.9427948,1.0,-0.3228149,0.116394,0.93927,-32.95728,11.0687,-36.04893,3.954102,0.6063278,0.2320461,1.0,-0.3016052,0.1124878,0.9467621,27.05415,7.879333,-33.00708,4.175049,0.7683527,0.3203951,0.1484684,1.182997,-0.09129608,-0.1599749,0.1964182,0.07202893,0.7177517,27.92786,30.75
3,-0.3126984,0.1144409,0.9429169,1.0,-0.3231354,0.1164703,0.9391479,-32.95834,11.07173,-36.05136,3.932358,0.606445,0.231932,1.0,-0.300705,0.1121063,0.9470978,27.04359,7.880768,-33.00783,4.173782,0.7685937,0.3203951,0.1484526,1.18302,-0.0912677,-0.1598052,0.1966969,0.07255291,0.7177517,27.92786,30.75
3,-0.3152466,0.120224,0.9413452,1.0,-0.3213806,0.1146851,0.9399719,-32.96429,11.08727,-36.06577,3.87854,0.606352,0.2318294,1.0,-0.3079987,0.1267242,0.9429016,27.01617,7.884338,-33.04761,4.210464,0.7717267,0.3174798,0.1484083,1.182999,-0.09122366,-0.159533,0.1971304,0.07311308,0.7177517,27.92786,30.75
3,-0.3240509,0.1201477,0.9383698,1.0,-0.3274078,0.1231384,0.9368134,-32.95621,11.11249,-36.07585,3.933548,0.6074265,0.2289221,1.0,-0.3195343,0.1161346,0.9404144,27.05475,7.923401,-33.0284,4.059219,0.772288,0.3180302,0.1484392,1.182953,-0.09115613,-0.1590574,0.1977929,0.07457657,0.7177517,27.92786,30.75
3,-0.3240051,0.12117,0.9382477,1.0,-0.3299561,0.1231995,0.9359131,-32.95999,11.1181,-36.07837,3.876434,0.608096,0.2287447,1.0,-0.3159485,0.1184387,0.9413452,27.03963,7.922363,-33.03044,4.119781,0.772265,0.3175426,0.1484081,1.182808,-0.09123886,-0.1590029,0.1984635,0.0752978,0.7177517,27.92786,30.75
3,-0.3240051,0.12117,0.9382477,1.0,-0.3299561,0.1231995,0.9359131,-32.95999,11.1181,-36.07837,3.876434,0.608096,0.2287447,1.0,-0.3159485,0.1184387,0.9413452,27.03963,7.922363,-33.03044,4.119781,0.772265,0.3175426,0.1484081,1.182808,-0.09123886,-0.1590029,0.1984635,0.0752978,0.7177517,27.92786,30.75
3,-0.3295593,0.1357727,0.9343109,1.0,-0.3310699,0.1320648,0.9343109,-32.99239,11.23341,-36.09058,3.901413,0.6100071,0.2216259,1.0,-0.3272705,0.1413574,0.9342804,26.95549,8.03569,-33.07315,4.17984,0.779364,0.3081,0.1485986,1.182928,-0.09124017,-0.1590143,0.200637,0.07663528,0.7177517,27.92786,30.75
3,-0.3295593,0.1357727,0.9343109,1.0,-0.3310699,0.1320648,0.9343109,-32.99239,11.23341,-36.09058,3.901413,0.6100071,0.2216259,1.0,-0.3272705,0.1413574,0.9342804,26.95549,8.03569,-33.07315,4.17984,0.779364,0.3081,0.1485986,1.182928,-0.09124017,-0.1590143,0.200637,0.07663528,0.7177517,27.92786,30.75
3,-0.3287964,0.1481476,0.9326935,1.0,-0.3309631,0.1450806,0.9324188,-33.0174,11.267,-36.10327,3.955307,0.6112756,0.2171733,1.0,-0.3254089,0.1529388,0.9331055,26.93588,8.078323,-33.08257,4.187714,0.7803103,0.3039311,0.1487178,1.183045,-0.09126043,-0.1591544,0.2022025,0.07750629,0.7177517,27.92786,30.75
3,-0.3240051,0.1481171,0.9343719,1.0,-0.3280029,0.1491394,0.9328156,-33.00406,11.29315,-36.10178,3.847946,0.6103262,0.2152388,1.0,-0.3182526,0.1466217,0.9365845,26.92531,8.079025,-33.07433,4.235794,0.7790794,0.3051164,0.1489104,1.183191,-0.09118879,-0.1592379,0.2038464,0.07857831,0.7177517,27.92786,30.75
3,-0.3192139,0.1542664,0.9350281,1.0,-0.3246613,0.1437073,0.9348297,-33.00204,11.26512,-36.09813,3.910614,0.6094025,0.2176283,1.0,-0.3114929,0.1690521,0.9350739,26.93132,8.055496,-33.09142,4.281265,0.7779526,0.3016861,0.1493753,1.183344,-0.09127891,-0.1590153,0.207829,0.0809294,0.7177517,27.92786,30.75
3,-0.3192139,0.1542664,0.9350281,1.0,-0.3246613,0.1437073,0.9348297,-33.00204,11.26512,-36.09813,3.910614,0.6094025,0.2176283,1.0,-0.3114929,0.1690521,0.9350739,26.93132,8.055496,-33.09142,4.281265,0.7779526,0.3016861,0.1493753,1.183344,-0.09127891,-0.1590153,0.207829,0.0809294,0.7177517,27.92786,30.75
3,-0.3230896,0.1565094,0.9333191,1.0,-0.3247528,0.1619873,0.9318085,-33.00446,11.25269,-36.11873,3.888748,0.6098245,0.2142912,1.0,-0.3210754,0.1499481,0.9350891,26.94247,8.025482,-33.07912,4.182907,0.7787762,0.3068018,0.1493753,1.183344,-0.09127891,-0.1590153,0.207829,0.0809294,0.7177517,27.92786,30.75
3,-0.3189545,0.1454163,0.9365387,1.0,-0.3200531,0.1505737,0.9353485,-33.00221,11.2198,-36.10629,3.869431,0.6085004,0.218269,1.0,-0.3176727,0.1394501,0.9378815,26.93314,8.022461,-33.07172,4.166046,0.778117,0.3090124,0.1498966,1.183445,-0.09144986,-0.1590262,0.2133803,0.08319224,0.7177517,27.47449,30.75
3,-0.3202209,0.1332855,0.937912,1.0,-0.320755,0.1363678,0.9372864,-33.00688,11.20073,-36.0975,3.857834,0.6085169,0.2222201,1.0,-0.3195801,0.1295929,0.9386444,26.9436,7.977905,-33.06361,4.1147,0.7775834,0.3128748,0.1506065,1.183739,-0.09176695,-0.1593686,0.220266,0.08580988,0.7177517,27.47449,30.75
3,-0.3202209,0.1332855,0.937912,1.0,-0.320755,0.1363678,0.9372864,-33.00688,11.20073,-36.0975,3.857834,0.6085169,0.2222201,1.0,-0.3195801,0.1295929,0.9386444,26.9436,7.977905,-33.06361,4.1147,0.7775834,0.3128748,0.1506065,1.183739,-0.09176695,-0.1593686,0.220266,0.08580988,0.7177517,27.47449,30.75
3,-0.3202209,0.1332855,0.937912,1.0,-0.320755,0.1363678,0.9372864,-33.00688,11.20073,-36.0975,3.857834,0.6085169,0.2222201,1.0,-0.3195801,0.1295929,0.9386444,26.9436,7.977905,-33.06361,4.1147,0.7775834,0.3128748,0.1506065,1.183739,-0.09176695,-0.1593686,0.220266,0.08580988,0.7177517,27.47449,30.75
3,-0.3169098,0.1305084,0.9394226,1.0,-0.318634,0.1300507,0.9389038,-32.98561,11.16951,-36.08865,3.810745,0.6070987,0.2250442,1.0,-0.3149109,0.1310425,0.9400177,26.97646,7.980316,-33.05785,4.143738,0.7752716,0.3125845,0.1514808,1.184107,-0.09221685,-0.160761,0.2288904,0.08925711,0.7177517,27.47449,30.75
4,-0.3092346,0.1423187,0.9402618,1.0,-0.3088684,0.1421814,0.9403992,-32.97568,11.13916,-36.09319,3.805038,0.6049199,0.2237846,1.0,-0.3096161,0.1424561,0.9401093,27.00549,7.950623,-33.05922,4.098434,0.773056,0.3116919,0.1526092,1.184563,-0.09284616,-0.162422,0.2391022,0.09347087,0.7177517,27.47449,30.75
4,-0.2987366,0.1269379,0.9458466,1.0,-0.3047791,0.1219788,0.9445648,-32.96478,11.10732,-36.07318,3.834091,0.603284,0.2294487,1.0,-0.2915344,0.1328125,0.9472809,27.04852,7.921951,-33.0314,4.219406,0.7671708,0.3148005,0.1538804,1.185118,-0.09366131,-0.1645466,0.2507624,0.09834678,0.7177517,27.47449,30.75
4,-0.2987366,0.1269379,0.9458466,1.0,-0.3047791,0.1219788,0.9445648,-32.96478,11.10732,-36.07318,3.834091,0.603284,0.2294487,1.0,-0.2915344,0.1328125,0.9472809,27.04852,7.921951,-33.0314,4.219406,0.7671708,0.3148005,0.1538804,1.185118,-0.09366131,-0.1645466,0.2507624,0.09834678,0.7177517,27.47449,30.75
4,-0.2951202,0.1193695,0.9479675,1.0,-0.2917938,0.1225891,0.9485779,-32.90802,11.06256,-36.05772,3.861877,0.5984821,0.2312239,1.0,-0.2987671,0.1158295,0.9472656,27.15431,7.858887,-32.98495,4.136551,0.7635708,0.3207698,0.1552196,1.185986,-0.09452188,-0.167019,0.2639151,0.1037399,0.7177517,27.47449,30.75
4,-0.2951202,0.1193695,0.9479675,1.0,-0.2917938,0.1225891,0.9485779,-32.90802,11.06256,-36.05772,3.861877,0.5984821,0.2312239,1.0,-0.2987671,0.1158295,0.9472656,27.15431,7.858887,-32.98495,4.136551,0.7635708,0.3207698,0.1552196,1.185986,-0.09452188,-0.167019,0.2639151,0.1037399,0.7177517,27.47449,30.75
4,-0.2760468,0.1061401,0.9552612,1.0,-0.274292,0.1020813,0.9562073,-32.83748,10.99278,-36.01982,3.887894,0.5919672,0.2384352,1.0,-0.2781067,0.1108704,0.9541168,27.23595,7.805099,-32.95427,4.156006,0.7556549,0.3240383,0.1568002,1.18674,-0.09587675,-0.1703727,0.2789375,0.1093026,0.7177517,27.47449,30.75
4,-0.2760468,0.1061401,0.9552612,1.0,-0.274292,0.1020813,0.9562073,-32.83748,10.99278,-36.01982,3.887894,0.5919672,0.2384352,1.0,-0.2781067,0.1108704,0.9541168,27.23595,7.805099,-32.95427,4.156006,0.7556549,0.3240383,0.1568002,1.18674,-0.09587675,-0.1703727,0.2789375,0.1093026,0.7177517,27.47449,30.75
4,-0.2720337,0.1016998,0.9568939,1.0,-0.264267,0.1008301,0.9591522,-32.81453,10.93504,-36.01372,3.856171,0.5890486,0.2411946,1.0,-0.2807312,0.1026764,0.9542694,27.31329,7.794327,-32.92688,4.256714,0.7529128,0.3260387,0.1585661,1.187628,-0.09756434,-0.1748946,0.2961952,0.1149744,0.7177517,27.47449,30.75
4,-0.2720337,0.1016998,0.9568939,1.0,-0.264267,0.1008301,0.9591522,-32.81453,10.93504,-36.01372,3.856171,0.5890486,0.2411946,1.0,-0.2807312,0.1026764,0.9542694,27.31329,7.794327,-32.92688,4.256714,0.7529128,0.3260387,0.1585661,1.187628,-0.09756434,-0.1748946,0.2961952,0.1149744,0.7177517,27.47449,30.75
4,-0.2517395,0.1025848,0.962326,1.0,-0.2506409,0.1088104,0.9619293,-32.70222,10.83434,-36.00769,3.649994,0.5821703,0.2441096,1.0,-0.2529907,0.09535217,0.9627533,27.37805,7.720413,-32.90567,4.161316,0.7442362,0.3305905,0.160331,1.188827,-0.09964943,-0.1801464,0.3154099,0.1208134,0.7177517,27.47449,30.75
4,-0.2517395,0.1025848,0.962326,1.0,-0.2506409,0.1088104,0.9619293,-32.70222,10.83434,-36.00769,3.649994,0.5821703,0.2441096,1.0,-0.2529907,0.09535217,0.9627533,27.37805,7.720413,-32.90567,4.161316,0.7442362,0.3305905,0.160331,1.188827,-0.09964943,-0.1801464,0.3154099,0.1208134,0.7177517,27.47449,30.75
4,-0.2608643,0.1053467,0.9595947,1.0,-0.2598877,0.1036377,0.9600525,-32.79871,10.81566,-36.02356,3.667831,0.5874627,0.2459847,1.0,-0.2620239,0.1073608,0.9590607,27.2784,7.719543,-32.92493,4.235626,0.7503458,0.3280545,0.1622729,1.190175,-0.1019178,-0.1860532,0.3352786,0.1276708,0.7177517,4.328491,30.75
4,-0.2608643,0.1053467,0.9595947,1.0,-0.2598877,0.1036377,0.9600525,-32.79871,10.81566,-36.02356,3.667831,0.5874627,0.2459847,1.0,-0.2620239,0.1073608,0.9590607,27.2784,7.719543,-32.92493,4.235626,0.7503458,0.3280545,0.1622729,1.190175,-0.1019178,-0.1860532,0.3352786,0.1276708,0.7177517,4.328491,30.75
4,-0.316864,0.1029053,0.9428558,1.0,-0.3180084,0.1016083,0.9426117,-33.0887,10.8506,-36.11633,3.774384,0.6097226,0.2452247,1.0,-0.3150787,0.1049194,0.9432373,26.75562,7.773743,-33.08112,4.054657,0.7830908,0.3256896,0.1640605,1.191655,-0.1046884,-0.1921334,0.3561449,0.1359725,0.7177517,4.328491,30.75
4,-0.316864,0.1029053,0.9428558,1.0,-0.3180084,0.1016083,0.9426117,-33.0887,10.8506,-36.11633,3.774384,0.6097226,0.2452247,1.0,-0.3150787,0.1049194,0.9432373,26.75562,7.773743,-33.08112,4.054657,0.7830908,0.3256896,0.1640605,1.191655,-0.1046884,-0.1921334,0.3561449,0.1359725,0.7177517,4.328491,30.75
4,-0.3470154,0.1018829,0.9322968,1.0,-0.3525696,0.1024475,0.9301453,-33.2435,10.83992,-36.18059,3.893051,0.6224399,0.2456889,1.0,-0.3282166,0.09991455,0.9393005,26.52058,7.719208,-33.15054,4.038528,0.795668,0.3284665,0.1656455,1.193064,-0.1075505,-0.1979217,0.3768662,0.1441869,0.7177517,4.328491,30.75
4,-0.3470154,0.1018829,0.9322968,1.0,-0.3525696,0.1024475,0.9301453,-33.2435,10.83992,-36.18059,3.893051,0.6224399,0.2456889,1.0,-0.3282166,0.09991455,0.9393005,26.52058,7.719208,-33.15054,4.038528,0.795668,0.3284665,0.1656455,1.193064,-0.1075505,-0.1979217,0.3768662,0.1441869,0.7177517,4.328491,30.75
4,-0.3470154,0.1018829,0.9322968,1.0,-0.3525696,0.1024475,0.9301453,-33.2435,10.83992,-36.18059,3.893051,0.6224399,0.2456889,1.0,-0.3282166,0.09991455,0.9393005,26.52058,7.719208,-33.15054,4.038528,0.795668,0.3284665,0.1656455,1.193064,-0.1075505,-0.1979217,0.3768662,0.1441869,0.7177517,4.328491,30.75
4,-0.3193359,0.09844971,0.9425049,1.0,-0.3203888,0.09832764,0.9421539,-33.10309,10.66978,-36.13551,3.731659,0.6103145,0.2538234,1.0,-0.316925,0.09872437,0.9432831,26.76111,7.58316,-33.09808,4.102859,0.7825081,0.3347887,0.1667974,1.194133,-0.1107455,-0.2026997,0.3966088,0.1514406,0.7177517,4.328491,30.75
4,-0.3061523,0.08049011,0.9485626,1.0,-0.2988892,0.06929016,0.9517517,-32.96576,10.55121,-36.09232,3.908005,0.6003214,0.2644973,1.0,-0.3171539,0.09754944,0.9433289,27.08429,7.503174,-33.02196,4.131989,0.7688133,0.3386767,0.1677904,1.195318,-0.1141255,-0.2078726,0.4149682,0.1588261,0.7177517,4.328491,30.75
4,-0.3061523,0.08049011,0.9485626,1.0,-0.2988892,0.06929016,0.9517517,-32.96576,10.55121,-36.09232,3.908005,0.6003214,0.2644973,1.0,-0.3171539,0.09754944,0.9433289,27.08429,7.503174,-33.02196,4.131989,0.7688133,0.3386767,0.1677904,1.195318,-0.1141255,-0.2078726,0.4149682,0.1588261,0.7177517,4.328491,30.75
4,-0.2794952,0.07566833,0.9571533,1.0,-0.2821808,0.08213806,0.9558258,-32.73868,10.43436,-36.06224,3.656219,0.5886446,0.2668784,1.0,-0.2741852,0.06295776,0.95961,27.20615,7.384964,-32.95255,4.048141,0.7539471,0.3499601,0.1681703,1.196475,-0.1172532,-0.2129914,0.4307133,0.164934,0.7177517,4.328491,30.75
4,-0.2794952,0.07566833,0.9571533,1.0,-0.2821808,0.08213806,0.9558258,-32.73868,10.43436,-36.06224,3.656219,0.5886446,0.2668784,1.0,-0.2741852,0.06295776,0.95961,27.20615,7.384964,-32.95255,4.048141,0.7539471,0.3499601,0.1681703,1.196475,-0.1172532,-0.2129914,0.4307133,0.164934,0.7177517,4.328491,30.75
4,-0.2485657,0.07188416,0.9659271,1.0,-0.2386322,0.07894897,0.9678802,-32.52441,10.31261,-36.03497,3.589676,0.5722778,0.2723689,1.0,-0.2662659,0.0592041,0.9620667,27.57738,7.260071,-32.85678,4.135849,0.7372812,0.3555434,0.1679313,1.197513,-0.1198453,-0.2179295,0.4423131,0.1696595,0.7177517,4.328491,30.75
4,-0.2485657,0.07188416,0.9659271,1.0,-0.2386322,0.07894897,0.9678802,-32.52441,10.31261,-36.03497,3.589676,0.5722778,0.2723689,1.0,-0.2662659,0.0592041,0.9620667,27.57738,7.260071,-32.85678,4.135849,0.7372812,0.3555434,0.1679313,1.197513,-0.1198453,-0.2179295,0.4423131,0.1696595,0.7177517,4.328491,30.75
4,-0.2331543,0.03227234,0.9718933,1.0,-0.2314301,0.03639221,0.972168,-32.34746,10.228,-36.05138,3.724365,0.5639729,0.2845195,1.0,-0.2382202,0.02008057,0.970993,27.73001,7.228302,-32.73026,4.144608,0.7251244,0.3633919,0.1672485,1.198373,-0.1218449,-0.222305,0.4490009,0.1726901,0.7177517,-17.72571,30.75
4,-0.2331543,0.03227234,0.9718933,1.0,-0.2314301,0.03639221,0.972168,-32.34746,10.228,-36.05138,3.724365,0.5639729,0.2845195,1.0,-0.2382202,0.02008057,0.970993,27.73001,7.228302,-32.73026,4.144608,0.7251244,0.3633919,0.1672485,1.198373,-0.1218449,-0.222305,0.4490009,0.1726901,0.7177517,-17.72571,30.75
4,-0.2050476,0.02185059,0.9785004,1.0,-0.2010345,0.02581787,0.9792328,-32.10767,10.31949,-36.87569,3.607513,0.5500035,0.2903084,1.0,-0.2100372,0.016922,0.9775391,27.96254,6.918427,-32.05548,4.064163,0.7091513,0.370017,0.1658462,1.198964,-0.1230921,-0.226673,0.4493257,0.1739263,0.7177517,-17.72571,30.75
4,-0.2050476,0.02185059,0.9785004,1.0,-0.2010345,0.02581787,0.9792328,-32.10767,10.31949,-36.87569,3.607513,0.5500035,0.2903084,1.0,-0.2100372,0.016922,0.9775391,27.96254,6.918427,-32.05548,4.064163,0.7091513,0.370017,0.1658462,1.198964,-0.1230921,-0.226673,0.4493257,0.1739263,0.7177517,-17.72571,30.75
4,-0.2024689,0.03114319,0.9787903,1.0,-0.2017212,0.02217102,0.979187,-31.91228,9.980057,-36.05766,3.819473,0.5422914,0.2972058,1.0,-0.2024689,0.03114319,0.9787903,28.17332,6.751373,-31.85489,3.974716,0.6992357,0.3722586,0.1643994,1.19928,-0.1237546,-0.230548,0.445537,0.1736138,0.7177517,-17.72571,30.75
4,-0.2024689,0.03114319,0.9787903,1.0,-0.2017212,0.02217102,0.979187,-31.91228,9.980057,-36.05766,3.819473,0.5422914,0.2972058,1.0,-0.2024689,0.03114319,0.9787903,28.17332,6.751373,-31.85489,3.974716,0.6992357,0.3722586,0.1643994,1.19928,-0.1237546,-0.230548,0.445537,0.1736138,0.7177517,-17.72571,30.75
4,-0.2129211,0.03105164,0.9765625,1.0,-0.1874695,0.002929688,0.982254,-31.87317,9.894669,-36.08147,3.81395,0.5381212,0.3044199,1.0,-0.2129211,0.03105164,0.9765625,28.21811,6.607803,-31.6396,4.028198,0.6988754,0.3759271,0.1624758,1.199509,-0.1237173,-0.2342582,0.4381011,0.1718075,0.7177517,-17.72571,30.75
4,-0.2129211,0.03105164,0.9765625,1.0,-0.1874695,0.002929688,0.982254,-31.87317,9.894669,-36.08147,3.81395,0.5381212,0.3044199,1.0,-0.2129211,0.03105164,0.9765625,28.21811,6.607803,-31.6396,4.028198,0.6988754,0.3759271,0.1624758,1.199509,-0.1237173,-0.2342582,0.4381011,0.1718075,0.7177517,-17.72571,30.75
4,-0.205658,-0.004257202,0.9786072,1.0,-0.1633911,-0.01622009,0.9864197,-31.97285,10.56403,-39.15245,3.602585,0.5390192,0.3090546,1.0,-0.205658,-0.004257202,0.9786072,28.21756,6.566208,-31.90472,4.125183,0.6977673,0.3861648,0.1605736,1.199537,-0.1235963,-0.2375962,0.4296735,0.1701275,0.7177517,-17.72571,30.75
4,-0.205658,-0.004257202,0.9786072,1.0,-0.1633911,-0.01622009,0.9864197,-31.97285,10.56403,-39.15245,3.602585,0.5390192,0.3090546,1.0,-0.205658,-0.004257202,0.9786072,28.21756,6.566208,-31.90472,4.125183,0.6977673,0.3861648,0.1605736,1.199537,-0.1235963,-0.2375962,0.4296735,0.1701275,0.7177517,-17.72571,30.75
4,-0.2060394,-0.01515198,0.9784241,1.0,-0.199585,-0.00453186,0.9798584,-32.03555,9.954926,-36.80319,3.739716,0.5465961,0.3098831,1.0,-0.2060394,-0.01515198,0.9784241,28.11096,6.624664,-32.32268,4.064957,0.7025427,0.3895384,0.1591138,1.199671,-0.1234062,-0.2390173,0.4222036,0.1680895,0.7177517,-17.72571,30.75
4,-0.2060394,-0.01515198,0.9784241,1.0,-0.199585,-0.00453186,0.9798584,-32.03555,9.954926,-36.80319,3.739716,0.5465961,0.3098831,1.0,-0.2060394,-0.01515198,0.9784241,28.11096,6.624664,-32.32268,4.064957,0.7025427,0.3895384,0.1591138,1.199671,-0.1234062,-0.2390173,0.4222036,0.1680895,0.7177517,-17.72571,30.75
4,-0.1981506,-0.01228333,0.9800873,1.0,-0.2006683,-0.01705933,0.9795074,-32.15045,9.906952,-36.7504,3.875259,0.5508262,0.3136183,1.0,-0.1981506,-0.01228333,0.9800873,27.94844,6.541809,-32.41708,4.051147,0.7072688,0.3926026,0.1576711,1.199894,-0.1232641,-0.2413564,0.415627,0.1682355,0.7177517,-17.72571,30.75
4,-0.1981506,-0.01228333,0.9800873,1.0,-0.2006683,-0.01705933,0.9795074,-32.15045,9.906952,-36.7504,3.875259,0.5508262,0.3136183,1.0,-0.1981506,-0.01228333,0.9800873,27.94844,6.541809,-32.41708,4.051147,0.7072688,0.3926026,0.1576711,1.199894,-0.1232641,-0.2413564,0.415627,0.1682355,0.7177517,-17.72571,30.75
4,-0.2351227,-0.002746582,0.9719543,1.0,-0.2220764,-0.005325317,0.9750061,-32.31668,9.932083,-36.73712,3.839844,0.5609271,0.3102899,1.0,-0.2351227,-0.002746582,0.9719543,27.78288,6.551453,-32.47879,4.037537,0.7206933,0.3908989,0.1568679,1.199901,-0.1232684,-0.2420419,0.4128564,0.1681865,0.7177517,-15.68408,30.75
4,-0.2351227,-0.002746582,0.9719543,1.0,-0.2220764,-0.005325317,0.9750061,-32.31668,9.932083,-36.73712,3.839844,0.5609271,0.3102899,1.0,-0.2351227,-0.002746582,0.9719543,27.78288,6.551453,-32.47879,4.037537,0.7206933,0.3908989,0.1568679,1.199901,-0.1232684,-0.2420419,0.4128564,0.1681865,0.7177517,-15.68408,30.75
4,-0.238327,-0.001586914,0.9711761,1.0,-0.2352905,-0.01086426,0.9718475,-32.41092,9.940384,-36.74176,3.858047,0.5667975,0.3111032,1.0,-0.2385101,-0.001052856,0.9711304,27.66231,6.546585,-32.50087,4.006805,0.7259454,0.3907936,0.1561581,1.20005,-0.1232728,-0.2428935,0.4104565,0.1685325,0.7177517,-15.68408,30.75
4,-0.2361298,-0.00843811,0.9716797,1.0,-0.2360687,-0.02078247,0.9714966,-32.4666,9.951019,-36.74193,3.859009,0.5689322,0.3126,1.0,-0.236145,0.0153656,0.9715881,27.60867,6.547043,-32.51141,3.897949,0.7276608,0.387716,0.1547987,1.200121,-0.1235793,-0.2435461,0.4079574,0.1698556,0.7177517,-15.68408,30.75
4,-0.2361298,-0.00843811,0.9716797,1.0,-0.2360687,-0.02078247,0.9714966,-32.4666,9.951019,-36.74193,3.859009,0.5689322,0.3126,1.0,-0.236145,0.0153656,0.9715881,27.60867,6.547043,-32.51141,3.897949,0.7276608,0.387716,0.1547987,1.200121,-0.1235793,-0.2435461,0.4079574,0.1698556,0.7177517,-15.68408,30.75
4,-0.260498,-0.01568604,0.965332,1.0,-0.2541046,-0.02928162,0.9667206,-32.60027,9.93782,-36.76268,3.804916,0.5771496,0.3150067,1.0,-0.2693176,0.003295898,0.9630432,27.4268,6.53804,-32.55847,3.98468,0.7410529,0.3905289,0.1543843,1.200089,-0.1238251,-0.2435057,0.4079404,0.1704393,0.7177517,-15.68408,30.75
4,-0.2569733,-0.01402283,0.9663086,1.0,-0.254837,-0.02859497,0.9665527,-32.66661,9.93364,-36.77315,3.843735,0.5797182,0.3150626,1.0,-0.2597046,0.005126953,0.9656677,27.35815,6.529343,-32.56026,4.07077,0.7418663,0.3903636,0.1535037,1.200032,-0.1240864,-0.2435311,0.4084883,0.1721696,0.7177517,-15.68408,30.75
4,-0.2569733,-0.01402283,0.9663086,1.0,-0.254837,-0.02859497,0.9665527,-32.66661,9.93364,-36.77315,3.843735,0.5797182,0.3150626,1.0,-0.2597046,0.005126953,0.9656677,27.35815,6.529343,-32.56026,4.07077,0.7418663,0.3903636,0.1535037,1.200032,-0.1240864,-0.2435311,0.4084883,0.1721696,0.7177517,-15.68408,30.75
4,-0.2705841,-0.0173645,0.9625244,1.0,-0.2652893,-0.02325439,0.9638824,-32.68193,9.946899,-36.7856,3.827255,0.5822942,0.313673,1.0,-0.2767181,-0.01048279,0.9608765,27.35674,6.539154,-32.55888,4.0784,0.7451169,0.3929732,0.1527457,1.200026,-0.1240871,-0.2432351,0.4086464,0.17444,0.7177517,-15.68408,30.75
4,-0.2705841,-0.0173645,0.9625244,1.0,-0.2652893,-0.02325439,0.9638824,-32.68193,9.946899,-36.7856,3.827255,0.5822942,0.313673,1.0,-0.2767181,-0.01048279,0.9608765,27.35674,6.539154,-32.55888,4.0784,0.7451169,0.3929732,0.1527457,1.200026,-0.1240871,-0.2432351,0.4086464,0.17444,0.7177517,-15.68408,30.75
4,-0.2704468,-0.01515198,0.9626007,1.0,-0.2688293,-0.02355957,0.9628906,-32.68729,9.949463,-36.7888,3.841431,0.5831499,0.313673,1.0,-0.2720032,-0.006942749,0.962265,27.35652,6.539154,-32.55295,4.079788,0.7442182,0.3922397,0.1524467,1.199966,-0.1240216,-0.2428018,0.4089026,0.1751121,0.7177517,-15.68408,30.75
4,-0.2716522,-0.01335144,0.9622955,1.0,-0.2689056,-0.02168274,0.9629211,-32.70811,9.938766,-36.79611,3.892502,0.5839241,0.3137324,1.0,-0.2741852,-0.005599976,0.9616547,27.35623,6.538254,-32.55367,4.078537,0.7446675,0.3920411,0.1521322,1.199849,-0.1240196,-0.242271,0.4090947,0.175775,0.7177517,-15.68408,30.75
4,-0.2716522,-0.01335144,0.9622955,1.0,-0.2689056,-0.02168274,0.9629211,-32.70811,9.938766,-36.79611,3.892502,0.5839241,0.3137324,1.0,-0.2741852,-0.005599976,0.9616547,27.35623,6.538254,-32.55367,4.078537,0.7446675,0.3920411,0.1517371,1.199569,-0.1237252,-0.2413798,0.4092445,0.1759706,0.7177517,-15.68408,30.75
4,-0.2716522,-0.01335144,0.9622955,1.0,-0.2689056,-0.02168274,0.9629211,-32.70811,9.938766,-36.79611,3.892502,0.5839241,0.3137324,1.0,-0.2741852,-0.005599976,0.9616547,27.35623,6.538254,-32.55367,4.078537,0.7446675,0.3920411,0.1517371,1.199569,-0.1237252,-0.2413798,0.4092445,0.1759706,0.7177517,-15.68408,30.75
4,-0.2716522,-0.01335144,0.9622955,1.0,-0.2689056,-0.02168274,0.9629211,-32.70811,9.938766,-36.79611,3.892502,0.5839241,0.3137324,1.0,-0.2741852,-0.005599976,0.9616547,27.35623,6.538254,-32.55367,4.078537,0.7446675,0.3920411,0.1516232,1.199406,-0.1236225,-0.2408912,0.409279,0.1758815,0.7177517,-15.68408,30.75
4,-0.2716522,-0.01335144,0.9622955,1.0,-0.2689056,-0.02168274,0.9629211,-32.70811,9.938766,-36.79611,3.892502,0.5839241,0.3137324,1.0,-0.2741852,-0.005599976,0.9616547,27.35623,6.538254,-32.55367,4.078537,0.7446675,0.3920411,0.1515912,1.199311,-0.1232212,-0.2401796,0.4090146,0.1757283,0.7177517,-15.68408,30.75
4,-0.2646484,-0.0003509521,0.9643402,1.0,-0.2606659,-0.01055908,0.9653625,-32.58452,10.01901,-36.76828,3.962891,0.5779564,0.308185,1.0,-0.2688141,0.01039124,0.9631195,27.53288,6.694107,-32.50766,4.16069,0.7371696,0.3830678,0.1515125,1.198865,-0.1225153,-0.2377481,0.4080448,0.1756109,0.7177517,-15.68408,30.75
4,-0.2646484,-0.0003509521,0.9643402,1.0,-0.2606659,-0.01055908,0.9653625,-32.58452,10.01901,-36.76828,3.962891,0.5779564,0.308185,1.0,-0.2688141,0.01039124,0.9631195,27.53288,6.694107,-32.50766,4.16069,0.7371696,0.3830678,0.1515125,1.198865,-0.1225153,-0.2377481,0.4080448,0.1756109,0.7177517,-15.68408,30.75
4,-0.1947937,0.03599548,0.9801788,1.0,-0.1744537,0.01875305,0.9844818,-32.07516,10.77992,-38.63876,3.820938,0.5449379,0.2887276,1.0,-0.194809,0.03599548,0.9801788,28.03946,6.892914,-32.20575,4.180862,0.7037615,0.3688999,0.1514105,1.198595,-0.1220357,-0.2362928,0.4072379,0.1754113,0.7177517,-0.002380371,30.75
4,-0.1097717,0.03527832,0.9933167,0.9771229,-0.1257935,0.09887695,0.9871063,-31.57986,10.56784,-36.23694,4.004669,0.5169781,0.259668,0.8627673,-0.1097565,0.03523254,0.9933319,28.42348,7.319885,-32.21768,4.015762,0.6740877,0.3539396,0.1514049,1.198332,-0.1216553,-0.2352246,0.406627,0.1751019,0.7177517,-0.002380371,30.75
4,-0.07707214,0.09739685,0.9922485,0.9125301,-0.05953979,0.1353607,0.9889984,-31.29482,10.90233,-36.08736,4.031784,0.4945323,0.2365932,0.5895734,-0.07707214,0.09739685,0.9922485,28.70181,7.837128,-32.71223,3.817322,0.6594909,0.3275939,0.15122,1.197902,-0.1209142,-0.2342186,0.4055969,0.1740901,0.7177517,-0.002380371,30.75
4,-0.07707214,0.09739685,0.9922485,0.9125301,-0.05953979,0.1353607,0.9889984,-31.29482,10.90233,-36.08736,4.031784,0.4945323,0.2365932,0.5895734,-0.07707214,0.09739685,0.9922485,28.70181,7.837128,-32.71223,3.817322,0.6594909,0.3275939,0.1512259,1.197842,-0.1204935,-0.2339705,0.4050019,0.1734162,0.7177517,-0.002380371,30.75
4,-0.07707214,0.09739685,0.9922485,0.9125301,-0.05953979,0.1353607,0.9889984,-31.29482,10.90233,-36.08736,4.031784,0.4945323,0.2365932,0.5895734,-0.07707214,0.09739685,0.9922485,28.70181,7.837128,-32.71223,3.817322,0.6594909,0.3275939,0.1512259,1.197842,-0.1204935,-0.2339705,0.4050019,0.1734162,0.7177517,-0.002380371,30.75
4,-0.07707214,0.09739685,0.9922485,0.9125301,-0.05953979,0.1353607,0.9889984,-31.29482,10.90233,-36.08736,4.031784,0.4945323,0.2365932,0.5895734,-0.07707214,0.09739685,0.9922485,28.70181,7.837128,-32.71223,3.817322,0.6594909,0.3275939,0.1510043,1.197619,-0.1202438,-0.2335917,0.4043184,0.1732141,0.7177517,-0.002380371,30.75
4,-0.07707214,0.09739685,0.9922485,0.9125301,-0.05953979,0.1353607,0.9889984,-31.29482,10.90233,-36.08736,4.031784,0.4945323,0.2365932,0.5895734,-0.07707214,0.09739685,0.9922485,28.70181,7.837128,-32.71223,3.817322,0.6594909,0.3275939,0.1510731,1.19745,-0.1194553,-0.2321903,0.4021502,0.173739,0.7177517,-0.002380371,30.75
4,-0.07707214,0.09739685,0.9922485,0.9125301,-0.05953979,0.1353607,0.9889984,-31.29482,10.90233,-36.08736,4.031784,0.4945323,0.2365932,0.5895734,-0.07707214,0.09739685,0.9922485,28.70181,7.837128,-32.71223,3.817322,0.6594909,0.3275939,0.1510731,1.19745,-0.1194553,-0.2321903,0.4021502,0.173739,0.7177517,-0.002380371,30.75
4,-0.07707214,0.09739685,0.9922485,0.9125301,-0.05953979,0.1353607,0.9889984,-31.29482,10.90233,-36.08736,4.031784,0.4945323,0.2365932,0.5895734,-0.07707214,0.09739685,0.9922485,28.70181,7.837128,-32.71223,3.817322,0.6594909,0.3275939,0.1510676,1.197303,-0.1190792,-0.2312229,0.4012746,0.1738115,0.7177517,-0.002380371,30.75
4,0.06486511,0.2466736,0.9669189,0.9264545,0.06486511,0.2466736,0.9669189,-30.41597,11.52805,-36.63626,4.085556,0.438025,0.1878217,0.470504,0.0,0.0,0.0,29.62239,8.14975,-32.41164,-1.0,0.5998731,0.2862315,0.1511849,1.197237,-0.1187121,-0.2302204,0.4007194,0.17386,0.7177517,-0.002380371,30.75
4,0.07537842,0.248764,0.9656067,1.0,0.07537842,0.248764,0.9656067,-30.41333,11.60236,-36.64508,4.209595,0.4357988,0.1836047,1.0,0.0,0.0,0.0,29.69481,8.255753,-32.51227,-1.0,0.5971527,0.2727169,0.1513735,1.196908,-0.1182131,-0.2285028,0.4000028,0.1736835,0.7177517,-0.002380371,30.75
4,0.07537842,0.248764,0.9656067,1.0,0.07537842,0.248764,0.9656067,-30.41333,11.60236,-36.64508,4.209595,0.4357988,0.1836047,1.0,0.0,0.0,0.0,29.69481,8.255753,-32.51227,-1.0,0.5971527,0.2727169,0.1513735,1.196908,-0.1182131,-0.2285028,0.4000028,0.1736835,0.7177517,-0.002380371,30.75
4,0.06355286,0.2946777,0.953476,1.0,0.08599854,0.2699432,0.9590149,-30.38046,11.66946,-36.67665,3.984436,0.4322995,0.1758311,1.0,0.06311035,0.2951508,0.9533539,29.85637,8.376282,-32.52869,4.089554,0.5932013,0.2692563,0.1514528,1.196742,-0.117923,-0.2275955,0.3997087,0.1733679,0.7177517,-0.002380371,30.75
4,0.07740784,0.3395996,0.9373627,1.0,0.08956909,0.2758636,0.9570007,-30.41792,11.67455,-36.68123,4.077393,0.4329815,0.1741227,1.0,0.0743103,0.3552246,0.9318085,29.82375,8.3367,-32.59782,3.783401,0.5924326,0.2595624,0.1518465,1.196402,-0.1172149,-0.2250377,0.3985163,0.1732019,0.7177517,7.908875,30.75
4,0.08325195,0.3108826,0.9467773,1.0,0.08930969,0.2795105,0.9559631,-30.45235,11.65894,-36.67758,4.050812,0.4343508,0.1740884,1.0,0.07516479,0.3515167,0.9331512,29.83327,8.303284,-32.58546,3.97023,0.5919753,0.2615753,0.1520228,1.196137,-0.1168559,-0.2232972,0.3976794,0.1731487,0.7177517,7.908875,30.75
4,0.08325195,0.3108826,0.9467773,1.0,0.08930969,0.2795105,0.9559631,-30.45235,11.65894,-36.67758,4.050812,0.4343508,0.1740884,1.0,0.07516479,0.3515167,0.9331512,29.83327,8.303284,-32.58546,3.97023,0.5919753,0.2615753,0.1520228,1.196137,-0.1168559,-0.2232972,0.3976794,0.1731487,0.7177517,7.908875,30.75
4,0.07749939,0.3218536,0.9436035,1.0,0.08729553,0.2981262,0.9505157,-30.47038,11.65363,-36.6996,4.266251,0.4352819,0.1698132,1.0,0.06573486,0.3498688,0.9344788,29.81808,8.268646,-32.57553,4.018585,0.5942752,0.2631404,0.1522026,1.195853,-0.1164833,-0.2214366,0.3967642,0.1728284,0.7177517,7.908875,30.75
4,0.07569885,0.3278503,0.9416809,1.0,0.0774231,0.3063965,0.9487457,-30.49625,11.64632,-36.70438,4.234726,0.4381573,0.1683929,1.0,0.07365417,0.3526306,0.9328461,29.81285,8.260406,-32.58011,3.940948,0.5929368,0.2629866,0.1524484,1.195486,-0.1160933,-0.2195338,0.3958304,0.1719573,0.7177517,7.908875,30.75
4,0.07020569,0.3318481,0.9407043,1.0,0.08889771,0.3019867,0.9491425,-30.59796,11.64375,-36.70386,4.180817,0.4398784,0.1697683,1.0,0.05197144,0.3604431,0.9313202,29.78947,8.2509,-32.56944,4.036163,0.5979713,0.2615817,0.1528267,1.194606,-0.1152983,-0.2152105,0.3941218,0.1695217,0.7177517,7.908875,30.75
4,0.07307434,0.3402405,0.9374847,1.0,0.09356689,0.3023224,0.9485931,-30.61658,11.64357,-36.70181,4.155853,0.4396875,0.1697243,1.0,0.05400085,0.3747101,0.9255524,29.78705,8.254883,-32.58054,3.972,0.5977476,0.2586728,0.1528267,1.194606,-0.1152983,-0.2152105,0.3941218,0.1695217,0.7177517,7.908875,30.75
4,0.07307434,0.3402405,0.9374847,1.0,0.09356689,0.3023224,0.9485931,-30.61658,11.64357,-36.70181,4.155853,0.4396875,0.1697243,1.0,0.05400085,0.3747101,0.9255524,29.78705,8.254883,-32.58054,3.972,0.5977476,0.2586728,0.1528267,1.194606,-0.1152983,-0.2152105,0.3941218,0.1695217,0.7177517,7.908875,30.75
4,0.06698608,0.3383789,0.9386139,1.0,0.07839966,0.3050232,0.9490967,-30.5782,11.66342,-36.69487,4.20166,0.4411244,0.1679644,1.0,0.05470276,0.3735352,0.9259949,29.78401,8.264053,-32.5984,3.969849,0.5977476,0.2586728,0.1533747,1.193674,-0.1143243,-0.2096727,0.3916897,0.1666485,0.7177517,7.908875,30.75
4,0.06681824,0.3423767,0.9371796,1.0,0.07839966,0.3131256,0.9464569,-30.58105,11.70773,-36.70834,4.296814,0.4411269,0.1637345,1.0,0.05413818,0.3737488,0.9259338,29.78192,8.266159,-32.5984,4.049377,0.5979863,0.2585455,0.1537596,1.192384,-0.1131365,-0.2024766,0.3880265,0.1632319,0.7177517,7.908875,30.75
4,0.06311035,0.3455658,0.936264,1.0,0.07244873,0.3145447,0.9464722,-30.58928,11.722,-36.70918,4.308685,0.4425819,0.1627163,1.0,0.05316162,0.3779449,0.9242859,29.78174,8.272659,-32.5984,4.014832,0.598195,0.257431,0.1543314,1.190756,-0.1120803,-0.1942356,0.3842028,0.1580382,0.7177517,7.908875,30.75
4,0.06311035,0.3455658,0.936264,1.0,0.07244873,0.3145447,0.9464722,-30.58928,11.722,-36.70918,4.308685,0.4425819,0.1627163,1.0,0.05316162,0.3779449,0.9242859,29.78174,8.272659,-32.5984,4.014832,0.598195,0.257431,0.1543314,1.190756,-0.1120803,-0.1942356,0.3842028,0.1580382,0.7177517,7.908875,30.75
4,0.0554657,0.351181,0.9346466,1.0,0.07492065,0.3222809,0.9436646,-30.62399,11.74017,-36.7132,4.267899,0.443379,0.1600357,1.0,0.03456116,0.3815918,0.9236755,29.70612,8.378098,-32.6127,4.151749,0.6048229,0.252238,0.1547908,1.189033,-0.1108055,-0.1858214,0.3800603,0.1513827,0.7177517,7.908875,30.75
4,0.0554657,0.351181,0.9346466,1.0,0.07492065,0.3222809,0.9436646,-30.62399,11.74017,-36.7132,4.267899,0.443379,0.1600357,1.0,0.03456116,0.3815918,0.9236755,29.70612,8.378098,-32.6127,4.151749,0.6048229,0.252238,0.1547908,1.189033,-0.1108055,-0.1858214,0.3800603,0.1513827,0.7177517,7.908875,30.75
4,0.04493713,0.2960663,0.9541016,1.0,0.04129028,0.2880859,0.9567108,-30.62488,11.86729,-36.66728,4.038361,0.4500884,0.1621084,1.0,0.04875183,0.3044128,0.9512787,29.7101,8.501251,-32.51122,3.826996,0.601306,0.2619595,0.1553206,1.187245,-0.1090992,-0.1758931,0.3740736,0.1448039,0.7177517,7.908875,30.75
4,0.04493713,0.2960663,0.9541016,1.0,0.04129028,0.2880859,0.9567108,-30.62488,11.86729,-36.66728,4.038361,0.4500884,0.1621084,1.0,0.04875183,0.3044128,0.9512787,29.7101,8.501251,-32.51122,3.826996,0.601306,0.2619595,0.1553206,1.187245,-0.1090992,-0.1758931,0.3740736,0.1448039,0.7177517,7.908875,30.75
4,-1.0,-1.0,-1.0,1.0,0.0,0.0,0.0,-30.13606,11.77397,-36.41693,-1.0,0.4311306,0.2057975,0.06910255,0.0,0.0,0.0,29.82297,7.764633,-32.17932,-1.0,0.5659286,0.3119092,0.1556401,1.185262,-0.1070365,-0.1639854,0.3661757,0.1390348,0.7177517,11.82086,30.75
4,-1.0,-1.0,-1.0,1.0,0.0,0.0,0.0,-30.13606,11.77397,-36.41693,-1.0,0.4311306,0.2057975,0.06910255,0.0,0.0,0.0,29.82297,7.764633,-32.17932,-1.0,0.5659286,0.3119092,0.1556401,1.185262,-0.1070365,-0.1639854,0.3661757,0.1390348,0.7177517,11.82086,30.75
5,-1.0,-1.0,-1.0,0.7144007,0.0,0.0,0.0,-30.35011,10.3205,-35.51939,-1.0,-1.0,-1.0,0.0,0.0,0.0,0.0,29.82297,7.764633,-32.17932,-1.0,-1.0,-1.0,0.1557826,1.182834,-0.10482,-0.1493144,0.35616,0.1336627,0.7741202,11.82086,30.75
5,-1.0,-1.0,-1.0,0.7144007,0.0,0.0,0.0,-30.35011,10.3205,-35.51939,-1.0,-1.0,-1.0,0.0,0.0,0.0,0.0,29.82297,7.764633,-32.17932,-1.0,-1.0,-1.0,0.1557826,1.182834,-0.10482,-0.1493144,0.35616,0.1336627,0.7741202,11.82086,30.75
5,-1.0,-1.0,-1.0,0.528487,0.0,0.0,0.0,-30.35011,10.3205,-35.51939,-1.0,-1.0,-1.0,0.0,0.0,0.0,0.0,29.82297,7.764633,-32.17932,-1.0,-1.0,-1.0,0.1556317,1.180117,-0.1025996,-0.1338333,0.3455365,0.1265946,0.7741202,11.82086,30.75
5,-1.0,-1.0,-1.0,0.528487,0.0,0.0,0.0,-30.35011,10.3205,-35.51939,-1.0,-1.0,-1.0,0.0,0.0,0.0,0.0,29.82297,7.764633,-32.17932,-1.0,-1.0,-1.0,0.1556317,1.180117,-0.1025996,-0.1338333,0.3455365,0.1265946,0.7741202,11.82086,30.75
5,-1.0,-1.0,-1.0,0.4139004,0.0,0.0,0.0,-30.35011,10.3205,-35.51939,-1.0,-1.0,-1.0,0.0,0.0,0.0,0.0,29.82297,7.764633,-32.17932,-1.0,-1.0,-1.0,0.1554259,1.177168,-0.1004272,-0.1187277,0.3347215,0.1174128,0.7741202,11.82086,30.75
5,-1.0,-1.0,-1.0,0.4139004,0.0,0.0,0.0,-30.35011,10.3205,-35.51939,-1.0,-1.0,-1.0,0.0,0.0,0.0,0.0,29.82297,7.764633,-32.17932,-1.0,-1.0,-1.0,0.1554259,1.177168,-0.1004272,-0.1187277,0.3347215,0.1174128,0.7741202,11.82086,30.75
5,-1.0,-1.0,-1.0,0.5374237,0.0,0.0,0.0,-28.8938,10.53545,-36.91647,-1.0,0.3243625,0.2761923,0.0,0.0,0.0,0.0,29.82297,7.764633,-32.17932,-1.0,-1.0,-1.0,0.1549375,1.174039,-0.09801543,-0.1031926,0.3227603,0.1078126,0.7741202,11.82086,30.75
5,-1.0,-1.0,-1.0,0.5374237,0.0,0.0,0.0,-28.8938,10.53545,-36.91647,-1.0,0.3243625,0.2761923,0.0,0.0,0.0,0.0,29.82297,7.764633,-32.17932,-1.0,-1.0,-1.0,0.1549375,1.174039,-0.09801543,-0.1031926,0.3227603,0.1078126,0.7741202,11.82086,30.75
5,-1.0,-1.0,-1.0,0.6741092,0.0,0.0,0.0,-28.66895,10.80705,-36.85678,-1.0,0.3194846,0.266263,0.0,0.0,0.0,0.0,31.371,7.321594,-32.57175,-1.0,0.4889968,0.3637613,0.1541795,1.170906,-0.09553754,-0.08649343,0.3097847,0.09895898,0.7741202,11.82086,30.75
5,-1.0,-1.0,-1.0,0.6741092,0.0,0.0,0.0,-28.66895,10.80705,-36.85678,-1.0,0.3194846,0.266263,0.0,0.0,0.0,0.0,31.371,7.321594,-32.57175,-1.0,0.4889968,0.3637613,0.1541795,1.170906,-0.09553754,-0.08649343,0.3097847,0.09895898,0.7741202,11.82086,30.75
5,-1.0,-1.0,-1.0,0.7999117,0.0,0.0,0.0,-28.55891,10.59099,-36.93588,-1.0,0.3103797,0.2737259,0.0,0.0,0.0,0.0,31.39417,7.072113,-32.62704,-1.0,0.4852209,0.3719487,0.1533386,1.167438,-0.09331226,-0.06855909,0.2974986,0.09107599,0.7741202,11.82086,30.75
5,-1.0,-1.0,-1.0,0.7999117,0.0,0.0,0.0,-28.55891,10.59099,-36.93588,-1.0,0.3103797,0.2737259,0.0,0.0,0.0,0.0,31.39417,7.072113,-32.62704,-1.0,0.4852209,0.3719487,0.1533386,1.167438,-0.09331226,-0.06855909,0.2974986,0.09107599,0.7741202,11.82086,30.75
5,-1.0,-1.0,-1.0,0.9677811,0.0,0.0,0.0,-28.57539,10.17314,-36.97295,-1.0,0.3096795,0.2985301,0.3239043,0.0,0.0,0.0,31.33624,6.581314,-32.6553,-1.0,0.4899415,0.3986572,0.1524884,1.163821,-0.09122664,-0.04813116,0.2859783,0.0832311,0.7741202,7.125549,30.75
5,-1.0,-1.0,-1.0,0.9677811,0.0,0.0,0.0,-28.57539,10.17314,-36.97295,-1.0,0.3096795,0.2985301,0.3239043,0.0,0.0,0.0,31.33624,6.581314,-32.6553,-1.0,0.4899415,0.3986572,0.1524884,1.163821,-0.09122664,-0.04813116,0.2859783,0.0832311,0.7741202,7.125549,30.75
5,-1.0,-1.0,-1.0,0.9677811,0.0,0.0,0.0,-28.57539,10.17314,-36.97295,-1.0,0.3096795,0.2985301,0.3239043,0.0,0.0,0.0,31.33624,6.581314,-32.6553,-1.0,0.4899415,0.3986572,0.1524884,1.163821,-0.09122664,-0.04813116,0.2859783,0.0832311,0.7741202,7.125549,30.75
5,0.374115,-0.05323792,0.9258423,1.0,0.3879395,-0.04502869,0.9205627,-28.57201,9.776688,-37.01868,4.346588,0.3107553,0.3226615,0.4060127,0.3630066,-0.05978394,0.9298553,31.31635,6.131653,-32.74872,4.552567,0.4860452,0.4224702,0.1515383,1.159847,-0.08934319,-0.02595451,0.2735569,0.07626933,0.7741202,7.125549,30.75
5,0.3512268,-0.08580017,0.9323425,1.0,0.3684235,-0.08415222,0.925827,-28.74084,9.692902,-36.95108,4.419235,0.3215915,0.3334304,0.5067605,0.3313293,-0.08766174,0.9394226,31.13503,6.011917,-32.70125,4.483368,0.4981469,0.4309399,0.1507716,1.155923,-0.08784831,-0.007515012,0.2636622,0.06910646,0.7741202,7.125549,30.75
5,0.3512268,-0.08580017,0.9323425,1.0,0.3684235,-0.08415222,0.925827,-28.74084,9.692902,-36.95108,4.419235,0.3215915,0.3334304,0.5067605,0.3313293,-0.08766174,0.9394226,31.13503,6.011917,-32.70125,4.483368,0.4981469,0.4309399,0.1507716,1.155923,-0.08784831,-0.007515012,0.2636622,0.06910646,0.7741202,7.125549,30.75
5,0.3220825,-0.103241,0.9410553,1.0,0.3330231,-0.09733582,0.9378662,-28.87029,9.589233,-36.91093,4.35498,0.3335645,0.3398441,0.6207744,0.313324,-0.1079254,0.9434814,30.92531,6.001053,-32.65337,4.477509,0.5088285,0.4343953,0.1500987,1.152133,-0.08650529,0.009624994,0.2566939,0.06061882,0.7741202,7.125549,30.75
5,0.3220825,-0.103241,0.9410553,1.0,0.3330231,-0.09733582,0.9378662,-28.87029,9.589233,-36.91093,4.35498,0.3335645,0.3398441,0.6207744,0.313324,-0.1079254,0.9434814,30.92531,6.001053,-32.65337,4.477509,0.5088285,0.4343953,0.1500987,1.152133,-0.08650529,0.009624994,0.2566939,0.06061882,0.7741202,7.125549,30.75
5,0.3010712,-0.1207581,0.9459076,1.0,0.3274689,-0.1208954,0.937088,-29.17368,9.38356,-36.86229,4.354721,0.3463657,0.3524411,1.0,0.2827148,-0.1206055,0.9515839,30.67703,5.848083,-32.63414,4.601547,0.5231596,0.441627,0.1493679,1.148287,-0.08506948,0.02899035,0.2493729,0.05320347,0.7741202,7.125549,30.75
5,0.3010712,-0.1207581,0.9459076,1.0,0.3274689,-0.1208954,0.937088,-29.17368,9.38356,-36.86229,4.354721,0.3463657,0.3524411,1.0,0.2827148,-0.1206055,0.9515839,30.67703,5.848083,-32.63414,4.601547,0.5231596,0.441627,0.1493679,1.148287,-0.08506948,0.02899035,0.2493729,0.05320347,0.7741202,7.125549,30.75
5,0.2664032,-0.1696472,0.9488068,1.0,0.2718964,-0.1649323,0.9480743,-29.28471,9.254196,-36.84264,4.275452,0.3611343,0.3655931,1.0,0.2622833,-0.173172,0.9493103,30.40047,5.714111,-32.60896,4.580566,0.5366026,0.4555438,0.1486756,1.144334,-0.08379394,0.04957047,0.2413844,0.04780265,0.7741202,7.125549,30.75
5,0.2664032,-0.1696472,0.9488068,1.0,0.2718964,-0.1649323,0.9480743,-29.28471,9.254196,-36.84264,4.275452,0.3611343,0.3655931,1.0,0.2622833,-0.173172,0.9493103,30.40047,5.714111,-32.60896,4.580566,0.5366026,0.4555438,0.1486756,1.144334,-0.08379394,0.04957047,0.2413844,0.04780265,0.7741202,7.125549,30.75
5,0.2411041,-0.1880798,0.9520874,1.0,0.2440186,-0.1821747,0.9524994,-29.42412,9.128189,-36.83521,4.306625,0.371524,0.3735796,1.0,0.2389069,-0.1925354,0.9517517,30.20892,5.481674,-32.64957,4.534271,0.5474755,0.4674469,0.1480457,1.140238,-0.08299232,0.06947443,0.2349483,0.04303009,0.7741202,7.125549,30.75
5,0.2411041,-0.1880798,0.9520874,1.0,0.2440186,-0.1821747,0.9524994,-29.42412,9.128189,-36.83521,4.306625,0.371524,0.3735796,1.0,0.2389069,-0.1925354,0.9517517,30.20892,5.481674,-32.64957,4.534271,0.5474755,0.4674469,0.1480457,1.140238,-0.08299232,0.06947443,0.2349483,0.04303009,0.7741202,7.125549,30.75
5,0.1877747,-0.2154236,0.9582825,1.0,0.1924744,-0.21492,0.9574738,-29.74263,8.966156,-36.81392,4.38269,0.3926884,0.3857274,1.0,0.1815643,-0.216095,0.9593353,29.81667,5.392807,-32.61514,4.59819,0.5715061,0.4741164,0.1475152,1.136446,-0.0821771,0.08770605,0.2297411,0.03821503,0.7741202,7.125549,30.75
5,0.1877747,-0.2154236,0.9582825,1.0,0.1924744,-0.21492,0.9574738,-29.74263,8.966156,-36.81392,4.38269,0.3926884,0.3857274,1.0,0.1815643,-0.216095,0.9593353,29.81667,5.392807,-32.61514,4.59819,0.5715061,0.4741164,0.1475152,1.136446,-0.0821771,0.08770605,0.2297411,0.03821503,0.7741202,7.125549,30.75
5,0.1590271,-0.2354736,0.9587708,1.0,0.163269,-0.2325287,0.9587708,-29.87799,8.932678,-36.80087,4.38356,0.4029034,0.3902182,1.0,0.1540222,-0.2389221,0.9587402,29.65616,5.34726,-32.60596,4.52298,0.5819953,0.4796766,0.1467854,1.132889,-0.08094382,0.1043196,0.223107,0.03397855,0.7741202,-10.67322,30.75
5,0.1590271,-0.2354736,0.9587708,1.0,0.163269,-0.2325287,0.9587708,-29.87799,8.932678,-36.80087,4.38356,0.4029034,0.3902182,1.0,0.1540222,-0.2389221,0.9587402,29.65616,5.34726,-32.60596,4.52298,0.5819953,0.4796766,0.1467854,1.132889,-0.08094382,0.1043196,0.223107,0.03397855,0.7741202,-10.67322,30.75
5,0.141037,-0.2388916,0.9607391,1.0,0.1487427,-0.2351379,0.960495,-29.86465,8.979553,-36.78233,4.431488,0.4050298,0.3887402,1.0,0.1328278,-0.2428436,0.9609222,29.67143,5.353882,-32.61153,4.644547,0.5852305,0.4800721,0.1460949,1.129795,-0.07989132,0.11695,0.2156766,0.02907324,0.7741202,-10.67322,30.75
5,0.141037,-0.2388916,0.9607391,1.0,0.1487427,-0.2351379,0.960495,-29.86465,8.979553,-36.78233,4.431488,0.4050298,0.3887402,1.0,0.1328278,-0.2428436,0.9609222,29.67143,5.353882,-32.61153,4.644547,0.5852305,0.4800721,0.1460949,1.129795,-0.07989132,0.11695,0.2156766,0.02907324,0.7741202,-10.67322,30.75
5,0.1338196,-0.2190247,0.9664917,1.0,0.1430664,-0.2097778,0.9672089,-30.01346,9.268127,-36.70163,4.342621,0.4114119,0.3726476,1.0,0.1263733,-0.2264252,0.9657898,29.69899,5.654861,-32.5507,4.638809,0.5853653,0.4657812,0.1455196,1.127929,-0.07865798,0.1226444,0.2101479,0.02339869,0.7741202,-10.67322,30.75
5,0.1338196,-0.2190247,0.9664917,1.0,0.1430664,-0.2097778,0.9672089,-30.01346,9.268127,-36.70163,4.342621,0.4114119,0.3726476,1.0,0.1263733,-0.2264252,0.9657898,29.69899,5.654861,-32.5507,4.638809,0.5853653,0.4657812,0.1455196,1.127929,-0.07865798,0.1226444,0.2101479,0.02339869,0.7741202,-10.67322,30.75
5,0.1170959,-0.193161,0.9741516,1.0,0.1218719,-0.1769714,0.9766235,-30.06355,9.496292,-36.69571,4.486694,0.4169548,0.3576872,1.0,0.1137238,-0.2044983,0.972229,29.68675,5.979187,-32.56682,4.665741,0.5881004,0.4503343,0.1452774,1.127614,-0.07787836,0.1229028,0.2076919,0.02113404,0.7741202,-10.67322,30.75
5,0.1170959,-0.193161,0.9741516,1.0,0.1218719,-0.1769714,0.9766235,-30.06355,9.496292,-36.69571,4.486694,0.4169548,0.3576872,1.0,0.1137238,-0.2044983,0.972229,29.68675,5.979187,-32.56682,4.665741,0.5881004,0.4503343,0.1452774,1.127614,-0.07787836,0.1229028,0.2076919,0.02113404,0.7741202,-10.67322,30.75
5,0.1114502,-0.1807709,0.9771729,1.0,0.1215515,-0.1771088,0.9766541,-30.12878,9.712021,-36.67046,4.4823,0.4193434,0.3494598,1.0,0.1026459,-0.18396,0.9775543,29.70021,6.269409,-32.8329,4.596771,0.5898225,0.4386256,0.14496,1.127304,-0.07694286,0.1236454,0.2050435,0.01938767,0.7741202,-10.67322,30.75
5,0.1119232,-0.1512299,0.982132,1.0,0.1133118,-0.1493683,0.982254,-30.22589,9.751175,-36.49446,4.573029,0.4243789,0.3410622,1.0,0.08860779,-0.1823578,0.9792175,29.71056,6.296417,-32.89917,4.628036,0.5919956,0.4379014,0.1446975,1.127223,-0.07602417,0.1238347,0.2018598,0.01865321,0.7741202,-10.67322,30.75
5,0.1168976,-0.141922,0.9829407,1.0,0.1182556,-0.1403656,0.9830017,-30.26033,9.756378,-36.47586,4.526291,0.4247398,0.3390388,1.0,0.09291077,-0.1690216,0.9812164,29.68835,6.249832,-32.89114,4.665161,0.5920354,0.4370495,0.1444038,1.127006,-0.07534838,0.1246457,0.1983129,0.01860521,0.7741202,-10.67322,30.75
5,0.09437561,-0.1526947,0.9837494,1.0,0.0990448,-0.15065,0.9835968,-30.34117,9.726578,-36.45609,4.493546,0.4311313,0.3420508,1.0,0.07249451,-0.1622009,0.9840851,29.68915,6.168533,-32.96887,4.720978,0.5956584,0.4393207,0.1439192,1.126617,-0.0742892,0.1261602,0.1915885,0.01948657,0.7741202,-10.67322,30.75
5,0.09437561,-0.1526947,0.9837494,1.0,0.0990448,-0.15065,0.9835968,-30.34117,9.726578,-36.45609,4.493546,0.4311313,0.3420508,1.0,0.07249451,-0.1622009,0.9840851,29.68915,6.168533,-32.96887,4.720978,0.5956584,0.4393207,0.1439192,1.126617,-0.0742892,0.1261602,0.1915885,0.01948657,0.7741202,-10.67322,30.75
5,0.07293701,-0.1513062,0.9857788,1.0,0.08042908,-0.1486511,0.985611,-30.40073,9.788345,-36.86707,4.532257,0.4364972,0.3429662,1.0,0.06980896,-0.15242,0.9858398,29.60909,6.188721,-33.13203,4.679321,0.5991439,0.4382873,0.1436956,1.126513,-0.07395852,0.1258971,0.1895221,0.01944446,0.7741202,-10.67322,30.75
5,0.06390381,-0.1465607,0.9871216,1.0,0.07167053,-0.1499786,0.986084,-30.50452,9.824524,-37.1138,4.499619,0.4417757,0.3441351,1.0,0.06370544,-0.1464844,0.9871521,29.57106,6.179108,-33.2356,4.65329,0.6016685,0.4384666,0.143407,1.126371,-0.07330513,0.1255389,0.1868892,0.01817659,0.7741202,-10.67322,30.75
5,0.06390381,-0.1465607,0.9871216,1.0,0.07167053,-0.1499786,0.986084,-30.50452,9.824524,-37.1138,4.499619,0.4417757,0.3441351,1.0,0.06370544,-0.1464844,0.9871521,29.57106,6.179108,-33.2356,4.65329,0.6016685,0.4384666,0.143407,1.126371,-0.07330513,0.1255389,0.1868892,0.01817659,0.7741202,-10.67322,30.75
5,0.0667572,-0.1638794,0.9842072,1.0,0.06951904,-0.1426697,0.9873199,-30.69739,9.639236,-36.76543,4.496429,0.4492476,0.3467638,1.0,0.06674194,-0.1639404,0.9842072,29.33202,6.055023,-32.90279,4.748642,0.6093953,0.4430326,0.1433039,1.1263,-0.07310438,0.1255547,0.1861998,0.01754716,0.7741202,-10.67322,30.75
5,-0.03862,-0.1962128,0.9797974,1.0,-0.03282166,-0.1789246,0.9833069,-31.15271,9.448624,-36.81964,4.410446,0.4838409,0.3616693,1.0,-0.03883362,-0.1968689,0.9796448,28.65141,5.833267,-32.80948,4.853989,0.652402,0.455814,0.1431829,1.126201,-0.07300031,0.1259498,0.1852,0.01747738,0.7741202,2.495728,30.75
5,-0.08735657,-0.2057037,0.9747009,1.0,-0.08905029,-0.1829529,0.9790649,-31.33299,9.370926,-36.80576,4.434769,0.5003008,0.3654251,1.0,-0.0868988,-0.2115479,0.9734802,28.39841,5.728989,-32.83972,4.831177,0.6701447,0.4625284,0.1431534,1.125901,-0.07320964,0.1272843,0.1837068,0.01841199,0.7741202,2.495728,30.75
5,-0.08735657,-0.2057037,0.9747009,1.0,-0.08905029,-0.1829529,0.9790649,-31.33299,9.370926,-36.80576,4.434769,0.5003008,0.3654251,1.0,-0.0868988,-0.2115479,0.9734802,28.39841,5.728989,-32.83972,4.831177,0.6701447,0.4625284,0.1431534,1.125901,-0.07320964,0.1272843,0.1837068,0.01841199,0.7741202,2.495728,30.75
5,-0.09484863,-0.2018738,0.9747925,1.0,-0.1015015,-0.1995392,0.9746094,-31.54047,9.306168,-36.82249,4.463562,0.5099563,0.3712176,1.0,-0.08319092,-0.2059631,0.9750061,28.23914,5.667236,-32.86415,4.833481,0.6753331,0.463861,0.1432369,1.1258,-0.07328957,0.1279602,0.1832719,0.01847178,0.7741202,2.495728,30.75
5,-0.09631348,-0.1992645,0.9751892,1.0,-0.1113586,-0.1915741,0.9751282,-31.59085,9.303528,-36.83319,4.407745,0.5135498,0.3699723,1.0,-0.09321594,-0.2008514,0.975174,28.29025,5.655029,-32.86522,4.897324,0.6752789,0.463396,0.1441629,1.126377,-0.07324231,0.12822,0.1838449,0.01825186,0.7741202,2.495728,30.75
5,-0.09631348,-0.1992645,0.9751892,1.0,-0.1113586,-0.1915741,0.9751282,-31.59085,9.303528,-36.83319,4.407745,0.5135498,0.3699723,1.0,-0.09321594,-0.2008514,0.975174,28.29025,5.655029,-32.86522,4.897324,0.6752789,0.463396,0.1441629,1.126377,-0.07324231,0.12822,0.1838449,0.01825186,0.7741202,2.495728,30.75
5,-0.09716797,-0.2025452,0.9744263,1.0,-0.09739685,-0.1992188,0.9750977,-31.64981,9.323807,-36.83276,4.479477,0.5131805,0.370582,1.0,-0.09695435,-0.2056427,0.9738007,28.29483,5.722382,-32.85374,4.797897,0.6757452,0.461783,0.1444118,1.126601,-0.07329327,0.1277007,0.1844682,0.01790901,0.7741202,2.495728,30.75
5,-0.1103058,-0.2040863,0.9727173,1.0,-0.1061249,-0.2010193,0.9738159,-31.66002,9.346405,-36.83076,4.371384,0.5151191,0.3701716,1.0,-0.1136017,-0.2064972,0.971817,28.31181,5.748734,-32.85153,4.777679,0.6781064,0.4610349,0.1447505,1.126977,-0.07359099,0.1263099,0.1859814,0.01773048,0.7741202,2.495728,30.75
5,-0.1103058,-0.2040863,0.9727173,1.0,-0.1061249,-0.2010193,0.9738159,-31.66002,9.346405,-36.83076,4.371384,0.5151191,0.3701716,1.0,-0.1136017,-0.2064972,0.971817,28.31181,5.748734,-32.85153,4.777679,0.6781064,0.4610349,0.1447505,1.126977,-0.07359099,0.1263099,0.1859814,0.01773048,0.7741202,2.495728,30.75
5,-0.1058197,-0.2014923,0.9737549,1.0,-0.1056519,-0.2012482,0.9738159,-31.66266,9.346405,-36.83076,4.439926,0.5151191,0.3701716,1.0,-0.1059723,-0.2017212,0.9736786,28.33821,5.745911,-32.85243,4.72406,0.6757521,0.4602538,0.1449611,1.127135,-0.07381141,0.1253717,0.1867684,0.01780428,0.7741202,2.495728,30.75
5,-0.0975647,-0.2059479,0.9736786,1.0,-0.100174,-0.2015076,0.97435,-31.66266,9.346146,-36.83211,4.416611,0.5141501,0.3702377,1.0,-0.09481812,-0.2106018,0.9729462,28.32765,5.736755,-32.85468,4.830002,0.674178,0.462201,0.1454254,1.127569,-0.07419997,0.123997,0.188868,0.01763145,0.7741202,2.495728,30.75
5,-0.0975647,-0.2059479,0.9736786,1.0,-0.100174,-0.2015076,0.97435,-31.66266,9.346146,-36.83211,4.416611,0.5141501,0.3702377,1.0,-0.09481812,-0.2106018,0.9729462,28.32765,5.736755,-32.85468,4.830002,0.674178,0.462201,0.1454254,1.127569,-0.07419997,0.123997,0.188868,0.01763145,0.7741202,2.495728,30.75
5,-0.1026917,-0.2067719,0.9729767,1.0,-0.1003113,-0.2039642,0.9738159,-31.66219,9.340118,-36.83405,4.425476,0.5141501,0.3709486,1.0,-0.1051331,-0.2096252,0.9721069,28.3793,5.722473,-32.85698,4.814285,0.6741197,0.4626039,0.1456167,1.127808,-0.07443976,0.1233265,0.1899537,0.01751868,0.7741202,2.495728,30.75
5,-0.1010895,-0.2075958,0.9729614,1.0,-0.1025085,-0.2033234,0.9737244,-31.64185,9.317474,-36.84407,4.431473,0.5138028,0.3717447,1.0,-0.09962463,-0.2120209,0.972168,28.40244,5.709976,-32.86157,4.834869,0.6722963,0.4635274,0.1461059,1.128186,-0.07485437,0.1216419,0.1923651,0.01735589,0.7741202,2.495728,30.75
5,-0.1010895,-0.2075958,0.9729614,1.0,-0.1025085,-0.2033234,0.9737244,-31.64185,9.317474,-36.84407,4.431473,0.5138028,0.3717447,1.0,-0.09962463,-0.2120209,0.972168,28.40244,5.709976,-32.86157,4.834869,0.6722963,0.4635274,0.1461059,1.128186,-0.07485437,0.1216419,0.1923651,0.01735589,0.7741202,2.495728,30.75
5,-0.1031952,-0.210083,0.9722137,1.0,-0.110321,-0.208313,0.971817,-31.58635,9.321213,-36.83949,4.408508,0.5131783,0.3725769,1.0,-0.09570313,-0.2119293,0.97258,28.42931,5.697662,-32.86526,4.862747,0.6706247,0.4639844,0.1463096,1.128371,-0.07505131,0.1209241,0.1935817,0.01732625,0.7741202,29.00543,30.75
5,-0.09660339,-0.2159424,0.9716034,1.0,-0.09590149,-0.2071075,0.9736023,-31.58157,9.321243,-36.83347,4.438309,0.510444,0.3722005,1.0,-0.09733582,-0.2251892,0.9694366,28.44968,5.713577,-32.8533,4.865158,0.67015,0.4657812,0.1468806,1.128752,-0.07537276,0.1196438,0.1955743,0.01710248,0.7741202,29.00543,30.75
5,-0.09240723,-0.2198181,0.9711456,1.0,-0.09156799,-0.2172241,0.9718018,-31.55684,9.314438,-36.8389,4.483307,0.5087574,0.374388,1.0,-0.09326172,-0.2224731,0.970459,28.48793,5.700989,-32.85329,4.788757,0.6679938,0.4657414,0.1470753,1.128899,-0.07555753,0.1190859,0.1964434,0.01702039,0.7741202,29.00543,30.75
5,-0.09240723,-0.2198181,0.9711456,1.0,-0.09156799,-0.2172241,0.9718018,-31.55684,9.314438,-36.8389,4.483307,0.5087574,0.374388,1.0,-0.09326172,-0.2224731,0.970459,28.48793,5.700989,-32.85329,4.788757,0.6679938,0.4657414,0.1470753,1.128899,-0.07555753,0.1190859,0.1964434,0.01702039,0.7741202,29.00543,30.75
5,-0.09333801,-0.2216339,0.9706421,1.0,-0.0880127,-0.2176971,0.9720306,-31.53061,9.322128,-36.83986,4.39267,0.5071945,0.3742455,1.0,-0.0987854,-0.2256622,0.9691772,28.51489,5.699966,-32.85661,4.834625,0.6680138,0.4664199,0.1474504,1.12923,-0.07570887,0.1178851,0.1980203,0.01693261,0.7741202,29.00543,30.75
5,-0.09333801,-0.2216339,0.9706421,1.0,-0.0880127,-0.2176971,0.9720306,-31.53061,9.322128,-36.83986,4.39267,0.5071945,0.3742455,1.0,-0.0987854,-0.2256622,0.9691772,28.51489,5.699966,-32.85661,4.834625,0.6680138,0.4664199,0.1474504,1.12923,-0.07570887,0.1178851,0.1980203,0.01693261,0.7741202,29.00543,30.75
5,-0.09655762,-0.2177887,0.9711914,1.0,-0.09757996,-0.2099304,0.9728241,-31.48625,9.336655,-36.83925,4.405304,0.5073048,0.3722491,1.0,-0.09552002,-0.2258301,0.9694672,28.53862,5.695938,-32.85818,4.82489,0.6665604,0.46661,0.147625,1.129383,-0.07578766,0.1172647,0.1986298,0.01696382,0.7741202,29.00543,30.75
5,-0.09147644,-0.219635,0.9712677,1.0,-0.09217834,-0.2138824,0.9724884,-31.45326,9.324326,-36.8369,4.378799,0.505152,0.3734297,1.0,-0.09077454,-0.225296,0.970047,28.563,5.688354,-32.85999,4.824997,0.6648254,0.4667954,0.1477528,1.12955,-0.07583636,0.1166867,0.1991511,0.01705842,0.7741202,29.00543,30.75
5,-0.09147644,-0.219635,0.9712677,1.0,-0.09217834,-0.2138824,0.9724884,-31.45326,9.324326,-36.8369,4.378799,0.505152,0.3734297,1.0,-0.09077454,-0.225296,0.970047,28.563,5.688354,-32.85999,4.824997,0.6648254,0.4667954,0.1480805,1.129852,-0.07595897,0.1154021,0.1998829,0.01710553,0.7741202,29.00543,30.75
5,-0.09147644,-0.219635,0.9712677,1.0,-0.09217834,-0.2138824,0.9724884,-31.45326,9.324326,-36.8369,4.378799,0.505152,0.3734297,1.0,-0.09077454,-0.225296,0.970047,28.563,5.688354,-32.85999,4.824997,0.6648254,0.4667954,0.1480805,1.129852,-0.07595897,0.1154021,0.1998829,0.01710553,0.7741202,29.00543,30.75
5,-0.09147644,-0.219635,0.9712677,1.0,-0.09217834,-0.2138824,0.9724884,-31.45326,9.324326,-36.8369,4.378799,0.505152,0.3734297,1.0,-0.09077454,-0.225296,0.970047,28.563,5.688354,-32.85999,4.824997,0.6648254,0.4667954,0.148173,1.130009,-0.07596773,0.1145543,0.2001433,0.0170785,0.7741202,29.00543,30.75
5,-0.09147644,-0.219635,0.9712677,1.0,-0.09217834,-0.2138824,0.9724884,-31.45326,9.324326,-36.8369,4.378799,0.505152,0.3734297,1.0,-0.09077454,-0.225296,0.970047,28.563,5.688354,-32.85999,4.824997,0.6648254,0.4667954,0.1486611,1.130598,-0.07569563,0.1126483,0.2003779,0.01677612,0.7741202,29.00543,30.75
5,-0.09147644,-0.219635,0.9712677,1.0,-0.09217834,-0.2138824,0.9724884,-31.45326,9.324326,-36.8369,4.378799,0.505152,0.3734297,1.0,-0.09077454,-0.225296,0.970047,28.563,5.688354,-32.85999,4.824997,0.6648254,0.4667954,0.1487421,1.130787,-0.07564408,0.1117349,0.2004146,0.01665488,0.7741202,29.00543,30.75
5,-0.09147644,-0.219635,0.9712677,1.0,-0.09217834,-0.2138824,0.9724884,-31.45326,9.324326,-36.8369,4.378799,0.505152,0.3734297,1.0,-0.09077454,-0.225296,0.970047,28.563,5.688354,-32.85999,4.824997,0.6648254,0.4667954,0.1487421,1.130787,-0.07564408,0.1117349,0.2004146,0.01665488,0.7741202,29.00543,30.75
5,-0.08407593,-0.2224121,0.9713135,1.0,-0.08638,-0.2172241,0.97229,-31.40611,9.3349,-36.82834,4.429199,0.5024075,0.3735347,1.0,-0.08175659,-0.2276459,0.9702911,28.63782,5.693863,-32.85345,4.87233,0.6605018,0.4669626,0.1487421,1.130787,-0.07564408,0.1117349,0.2004146,0.01665488,0.7741202,29.00543,30.75
5,-0.08030701,-0.2270355,0.9705658,1.0,-0.08111572,-0.2208405,0.9719238,-31.40166,9.334351,-36.8291,4.434998,0.5013076,0.3742301,1.0,-0.07945251,-0.2334442,0.9691162,28.64482,5.687881,-32.85573,4.793167,0.6598096,0.4682914,0.148841,1.131118,-0.07542461,0.1102729,0.2000893,0.01688899,0.7741202,29.00543,30.75
5,-0.08030701,-0.2270355,0.9705658,1.0,-0.08111572,-0.2208405,0.9719238,-31.40166,9.334351,-36.8291,4.434998,0.5013076,0.3742301,1.0,-0.07945251,-0.2334442,0.9691162,28.64482,5.687881,-32.85573,4.793167,0.6598096,0.4682914,0.148841,1.131118,-0.07542461,0.1102729,0.2000893,0.01688899,0.7741202,29.00543,30.75
5,-0.08215332,-0.2297974,0.9697571,1.0,-0.08409119,-0.2271729,0.9701996,-31.397,9.330109,-36.83037,4.462051,0.50165,0.375608,1.0,-0.0801239,-0.2325592,0.9692688,28.6481,5.684036,-32.85811,4.793121,0.6598096,0.4682914,0.1489269,1.131336,-0.07530391,0.1092263,0.1990649,0.01751145,0.7741202,-7.531006,30.75
