Second,eye_comb_direction_x,eye_comb_direction_y,eye_comb_direction_z,eye_r_openness,eye_r_direction_x,eye_r_direction_y,eye_r_direction_z,eye_r_origin_x,eye_r_origin_y,eye_r_origin_z,eye_r_pupil_diameter,eye_r_pupil_position_x,eye_r_pupil_position_y,eye_l_openness,eye_l_direction_x,eye_l_direction_y,eye_l_direction_z,eye_l_origin_x,eye_l_origin_y,eye_l_origin_z,eye_l_pupil_diameter,eye_l_pupil_position_x,eye_l_pupil_position_y,head_position_x,head_position_y,head_position_z,head_rotation_roll,head_rotation_pitch,head_rotation_yaw,EDA,BVP,TMP
0,-0.1214905,-0.4029236,0.9071198,0.6248034,-0.154129,-0.3843994,0.910202,-34.82257,-8.181503,-21.26282,4.600739,0.6200428000000001,0.8495577,0.9224863,-0.09938049,-0.4151001,0.9043121,33.53438,-5.932114,-22.94778,4.800033999999999,0.4843657,0.7993274,-0.4599125,1.109912,-0.08668284,-0.01349112,0.5185218,0.05147946,11.15532,-0.3162595359592446,33.039015904572565
0,-0.1214905,-0.4029236,0.9071198,0.6248034,-0.154129,-0.3843994,0.910202,-34.82257,-8.181503,-21.26282,4.600739,0.6200428000000001,0.8495577,0.9224863,-0.09938049,-0.4151001,0.9043121,33.53438,-5.932114,-22.94778,4.800033999999999,0.4843657,0.7993274,-0.4599125,1.109912,-0.08668284,-0.01349112,0.5185218,0.05147946,11.15532,-0.3162595359592446,33.039015904572565
0,-0.1214905,-0.4029236,0.9071198,0.6248034,-0.154129,-0.3843994,0.910202,-34.82257,-8.181503,-21.26282,4.600739,0.6200428000000001,0.8495577,0.9224863,-0.09938049,-0.4151001,0.9043121,33.53438,-5.932114,-22.94778,4.800033999999999,0.4843657,0.7993274,-0.4599125,1.109912,-0.08668284,-0.01349112,0.5185218,0.05147946,11.15532,-0.3162595359592446,33.039015904572565
0,-0.1214905,-0.4029236,0.9071198,0.6248034,-0.154129,-0.3843994,0.910202,-34.82257,-8.181503,-21.26282,4.600739,0.6200428000000001,0.8495577,0.9224863,-0.09938049,-0.4151001,0.9043121,33.53438,-5.932114,-22.94778,4.800033999999999,0.4843657,0.7993274,-0.4599125,1.109912,-0.08668284,-0.01349112,0.5185218,0.05147946,11.15532,-0.3162595359592446,33.039015904572565
0,-0.1155089999999999,-0.3614349,0.9252014,0.6314031,-0.1456299,-0.3896179,0.9093781,-34.67357,-8.045639,-21.20518,4.464218,0.6135470999999999,0.8447239,0.9342156,-0.09083557,-0.3379669,0.9367523,33.75525,-5.707611,-22.78749,4.407028,0.4759872,0.774965,-0.4589719,1.108559,-0.08671369,-0.006866388,0.5217879,0.04705807,11.15532,-0.3162595359592446,33.039015904572565
0,-0.1155089999999999,-0.3614349,0.9252014,0.6314031,-0.1456299,-0.3896179,0.9093781,-34.67357,-8.045639,-21.20518,4.464218,0.6135470999999999,0.8447239,0.9342156,-0.09083557,-0.3379669,0.9367523,33.75525,-5.707611,-22.78749,4.407028,0.4759872,0.774965,-0.4589719,1.108559,-0.08671369,-0.006866388,0.5217879,0.04705807,11.15532,-0.3162595359592446,33.039015904572565
0,-0.1155089999999999,-0.3614349,0.9252014,0.6314031,-0.1456299,-0.3896179,0.9093781,-34.67357,-8.045639,-21.20518,4.464218,0.6135470999999999,0.8447239,0.9342156,-0.09083557,-0.3379669,0.9367523,33.75525,-5.707611,-22.78749,4.407028,0.4759872,0.774965,-0.4589719,1.108559,-0.08671369,-0.006866388,0.5217879,0.04705807,11.15532,-0.3162595359592446,33.039015904572565
0,-0.1096648999999999,-0.3364258,0.9352875,0.6308209,-0.115097,-0.3368224999999999,0.934494,-34.714420000000004,-8.054031,-21.16713,4.347443,0.6096725000000001,0.8339429,0.9231243,-0.09568787,-0.3353882,0.9371948,33.79311,-5.607635,-22.75172,4.368729,0.4755692,0.7707133,-0.4580873,1.107273,-0.08665483,-0.0017198489999999,0.5242827999999999,0.0427984,11.15532,-0.3162595359592446,33.039015904572565
0,-0.1096648999999999,-0.3364258,0.9352875,0.6308209,-0.115097,-0.3368224999999999,0.934494,-34.714420000000004,-8.054031,-21.16713,4.347443,0.6096725000000001,0.8339429,0.9231243,-0.09568787,-0.3353882,0.9371948,33.79311,-5.607635,-22.75172,4.368729,0.4755692,0.7707133,-0.4580873,1.107273,-0.08665483,-0.0017198489999999,0.5242827999999999,0.0427984,11.15532,-0.3162595359592446,33.039015904572565
0,-0.1096648999999999,-0.3364258,0.9352875,0.6308209,-0.115097,-0.3368224999999999,0.934494,-34.714420000000004,-8.054031,-21.16713,4.347443,0.6096725000000001,0.8339429,0.9231243,-0.09568787,-0.3353882,0.9371948,33.79311,-5.607635,-22.75172,4.368729,0.4755692,0.7707133,-0.4580873,1.107273,-0.08665483,-0.0017198489999999,0.5242827999999999,0.0427984,11.15532,-0.3162595359592446,33.039015904572565
0,-0.0556488,-0.3941956,0.9173279,0.5108197,-0.0741271999999999,-0.3868408,0.9191437,-34.38687,-8.245316,-21.22588,4.38324,0.5927076,0.8502042,0.7953525,-0.03237915,-0.4032288,0.9145203000000002,34.03098,-5.754349,-22.78734,4.163666,0.4571282,0.7885392,-0.4575401,1.106425,-0.08654197,0.0009841623,0.5258357,0.03993341,11.15532,-0.3162595359592446,33.039015904572565
0,-0.0556488,-0.3941956,0.9173279,0.5108197,-0.0741271999999999,-0.3868408,0.9191437,-34.38687,-8.245316,-21.22588,4.38324,0.5927076,0.8502042,0.7953525,-0.03237915,-0.4032288,0.9145203000000002,34.03098,-5.754349,-22.78734,4.163666,0.4571282,0.7885392,-0.4575401,1.106425,-0.08654197,0.0009841623,0.5258357,0.03993341,11.15532,-0.3162595359592446,33.039015904572565
0,-0.0556488,-0.3941956,0.9173279,0.5108197,-0.0741271999999999,-0.3868408,0.9191437,-34.38687,-8.245316,-21.22588,4.38324,0.5927076,0.8502042,0.7953525,-0.03237915,-0.4032288,0.9145203000000002,34.03098,-5.754349,-22.78734,4.163666,0.4571282,0.7885392,-0.4575401,1.106425,-0.08654197,0.0009841623,0.5258357,0.03993341,11.15532,-0.3162595359592446,33.039015904572565
0,-0.04759216,-0.4004822,0.9150543,0.4228997999999999,-0.06123352,-0.382782,0.9217987,-34.31715,-8.237411,-21.2169,4.384613,0.5883286,0.8488857,0.7013271,-0.03831482,-0.4123535,0.910202,34.11026,-5.719069999999999,-22.77238,4.133331,0.4554400999999999,0.7889467,-0.4571542,1.105528,-0.08646561,0.003243489,0.5273399999999999,0.0371928,11.15532,-0.3162595359592446,33.039015904572565
0,-0.04759216,-0.4004822,0.9150543,0.4228997999999999,-0.06123352,-0.382782,0.9217987,-34.31715,-8.237411,-21.2169,4.384613,0.5883286,0.8488857,0.7013271,-0.03831482,-0.4123535,0.910202,34.11026,-5.719069999999999,-22.77238,4.133331,0.4554400999999999,0.7889467,-0.4571542,1.105528,-0.08646561,0.003243489,0.5273399999999999,0.0371928,11.15532,-0.3162595359592446,33.039015904572565
0,-0.04759216,-0.4004822,0.9150543,0.4228997999999999,-0.06123352,-0.382782,0.9217987,-34.31715,-8.237411,-21.2169,4.384613,0.5883286,0.8488857,0.7013271,-0.03831482,-0.4123535,0.910202,34.11026,-5.719069999999999,-22.77238,4.133331,0.4554400999999999,0.7889467,-0.4571542,1.105528,-0.08646561,0.003243489,0.5273399999999999,0.0371928,11.15532,-0.3162595359592446,33.039015904572565
0,-0.0461731,-0.3794098,0.924057,0.4228997999999999,-0.05343628,-0.3661041,0.9290314,-34.27768,-8.133087,-21.16628,4.285675,0.5855857,0.8412677,0.7013271,-0.04223633,-0.3865509,0.9212799,34.13153,-5.699692,-22.76871,4.183731,0.4554400999999999,0.7832978,-0.4565912,1.10443,-0.0863881,0.005891711,0.5295141,0.03354613,11.15532,-0.3162595359592446,33.039015904572565
0,-0.0461731,-0.3794098,0.924057,0.4228997999999999,-0.05343628,-0.3661041,0.9290314,-34.27768,-8.133087,-21.16628,4.285675,0.5855857,0.8412677,0.7013271,-0.04223633,-0.3865509,0.9212799,34.13153,-5.699692,-22.76871,4.183731,0.4554400999999999,0.7832978,-0.4565912,1.10443,-0.0863881,0.005891711,0.5295141,0.03354613,11.15532,-0.3162595359592446,33.039015904572565
0,-0.0461731,-0.3794098,0.924057,0.4228997999999999,-0.05343628,-0.3661041,0.9290314,-34.27768,-8.133087,-21.16628,4.285675,0.5855857,0.8412677,0.7013271,-0.04223633,-0.3865509,0.9212799,34.13153,-5.699692,-22.76871,4.183731,0.4554400999999999,0.7832978,-0.4565912,1.10443,-0.0863881,0.005891711,0.5295141,0.03354613,11.15532,-0.3162595359592446,33.039015904572565
0,-0.0461731,-0.3794098,0.924057,0.4228997999999999,-0.05343628,-0.3661041,0.9290314,-34.27768,-8.133087,-21.16628,4.285675,0.5855857,0.8412677,0.7013271,-0.04223633,-0.3865509,0.9212799,34.13153,-5.699692,-22.76871,4.183731,0.4554400999999999,0.7832978,-0.456053,1.103848,-0.08636566,0.007986048,0.531888,0.0311047,11.15532,-0.3162595359592446,33.039015904572565
0,-0.0461731,-0.3794098,0.924057,0.4228997999999999,-0.05343628,-0.3661041,0.9290314,-34.27768,-8.133087,-21.16628,4.285675,0.5855857,0.8412677,0.7013271,-0.04223633,-0.3865509,0.9212799,34.13153,-5.699692,-22.76871,4.183731,0.4554400999999999,0.7832978,-0.456053,1.103848,-0.08636566,0.007986048,0.531888,0.0311047,11.15532,-0.3162595359592446,33.039015904572565
0,-0.0461731,-0.3794098,0.924057,0.4228997999999999,-0.05343628,-0.3661041,0.9290314,-34.27768,-8.133087,-21.16628,4.285675,0.5855857,0.8412677,0.7013271,-0.04223633,-0.3865509,0.9212799,34.13153,-5.699692,-22.76871,4.183731,0.4554400999999999,0.7832978,-0.456053,1.103848,-0.08636566,0.007986048,0.531888,0.0311047,11.15532,-0.3162595359592446,33.039015904572565
0,-0.04379272,-0.3468781,0.9368744,0.434065,-0.05050659,-0.3438567999999999,0.9376526,-34.16962,-7.835419,-21.05067,4.1465760000000005,0.5812151,0.8252411000000001,0.7246898,-0.03742981,-0.3497162,0.9360962,34.25322,-5.46788,-22.64503,3.957214,0.4508764,0.7670113000000001,-0.4552476,1.103576,-0.08635004,0.009630798,0.5350186,0.02926927,11.15532,-0.3162595359592446,33.039015904572565
0,-0.04379272,-0.3468781,0.9368744,0.434065,-0.05050659,-0.3438567999999999,0.9376526,-34.16962,-7.835419,-21.05067,4.1465760000000005,0.5812151,0.8252411000000001,0.7246898,-0.03742981,-0.3497162,0.9360962,34.25322,-5.46788,-22.64503,3.957214,0.4508764,0.7670113000000001,-0.4552476,1.103576,-0.08635004,0.009630798,0.5350186,0.02926927,11.15532,-0.3162595359592446,33.039015904572565
0,-0.04379272,-0.3468781,0.9368744,0.434065,-0.05050659,-0.3438567999999999,0.9376526,-34.16962,-7.835419,-21.05067,4.1465760000000005,0.5812151,0.8252411000000001,0.7246898,-0.03742981,-0.3497162,0.9360962,34.25322,-5.46788,-22.64503,3.957214,0.4508764,0.7670113000000001,-0.4552476,1.103576,-0.08635004,0.009630798,0.5350186,0.02926927,11.15532,-0.3162595359592446,33.039015904572565
0,-0.04359436,-0.3436737,0.9380646,0.5753496,-0.04914856,-0.3487549,0.9359131,-34.166990000000006,-7.809143,-21.04155,4.113144,0.5809041,0.8251314000000001,0.8026669,-0.03904724,-0.3394775,0.9397888,34.26213,-5.458603,-22.63849,3.962067,0.4508764,0.7647148,-0.4542202,1.103337,-0.08629625,0.01144145,0.5386613,0.02780605,11.15532,-37.33057,33.039015904572565
0,-0.04359436,-0.3436737,0.9380646,0.5753496,-0.04914856,-0.3487549,0.9359131,-34.166990000000006,-7.809143,-21.04155,4.113144,0.5809041,0.8251314000000001,0.8026669,-0.03904724,-0.3394775,0.9397888,34.26213,-5.458603,-22.63849,3.962067,0.4508764,0.7647148,-0.4542202,1.103337,-0.08629625,0.01144145,0.5386613,0.02780605,11.15532,-37.33057,33.039015904572565
0,-0.04359436,-0.3436737,0.9380646,0.5753496,-0.04914856,-0.3487549,0.9359131,-34.166990000000006,-7.809143,-21.04155,4.113144,0.5809041,0.8251314000000001,0.8026669,-0.03904724,-0.3394775,0.9397888,34.26213,-5.458603,-22.63849,3.962067,0.4508764,0.7647148,-0.4542202,1.103337,-0.08629625,0.01144145,0.5386613,0.02780605,11.15532,-37.33057,33.039015904572565
0,-0.04359436,-0.3436737,0.9380646,0.5753496,-0.04914856,-0.3487549,0.9359131,-34.166990000000006,-7.809143,-21.04155,4.113144,0.5809041,0.8251314000000001,0.8026669,-0.03904724,-0.3394775,0.9397888,34.26213,-5.458603,-22.63849,3.962067,0.4508764,0.7647148,-0.4531929,1.102749,-0.08621059,0.01378638,0.5412762,0.02627122,11.15532,-37.33057,33.039015904572565
0,-0.04359436,-0.3436737,0.9380646,0.5753496,-0.04914856,-0.3487549,0.9359131,-34.166990000000006,-7.809143,-21.04155,4.113144,0.5809041,0.8251314000000001,0.8026669,-0.03904724,-0.3394775,0.9397888,34.26213,-5.458603,-22.63849,3.962067,0.4508764,0.7647148,-0.4531929,1.102749,-0.08621059,0.01378638,0.5412762,0.02627122,11.15532,-37.33057,33.039015904572565
0,-0.04359436,-0.3436737,0.9380646,0.5753496,-0.04914856,-0.3487549,0.9359131,-34.166990000000006,-7.809143,-21.04155,4.113144,0.5809041,0.8251314000000001,0.8026669,-0.03904724,-0.3394775,0.9397888,34.26213,-5.458603,-22.63849,3.962067,0.4508764,0.7647148,-0.4531929,1.102749,-0.08621059,0.01378638,0.5412762,0.02627122,11.15532,-37.33057,33.039015904572565
0,-0.04441833,-0.3420867999999999,0.9386139,0.5753496,-0.04989624,-0.3511047,0.9349976,-34.1655,-7.796264999999999,-21.03702,4.030167,0.5809618000000001,0.8250533000000001,0.8026669,-0.0398407,-0.3345337,0.9415283,34.26343,-5.4440610000000005,-22.63164,3.962677,0.4509861,0.7632266,-0.4519649999999999,1.101244,-0.08616136,0.01739555,0.5447510999999999,0.02201009,11.15532,-37.33057,33.039015904572565
0,-0.04441833,-0.3420867999999999,0.9386139,0.5753496,-0.04989624,-0.3511047,0.9349976,-34.1655,-7.796264999999999,-21.03702,4.030167,0.5809618000000001,0.8250533000000001,0.8026669,-0.0398407,-0.3345337,0.9415283,34.26343,-5.4440610000000005,-22.63164,3.962677,0.4509861,0.7632266,-0.4519649999999999,1.101244,-0.08616136,0.01739555,0.5447510999999999,0.02201009,11.15532,-37.33057,33.039015904572565
0,-0.04441833,-0.3420867999999999,0.9386139,0.5753496,-0.04989624,-0.3511047,0.9349976,-34.1655,-7.796264999999999,-21.03702,4.030167,0.5809618000000001,0.8250533000000001,0.8026669,-0.0398407,-0.3345337,0.9415283,34.26343,-5.4440610000000005,-22.63164,3.962677,0.4509861,0.7632266,-0.4519649999999999,1.101244,-0.08616136,0.01739555,0.5447510999999999,0.02201009,11.15532,-37.33057,33.039015904572565
0,-0.04441833,-0.3420867999999999,0.9386139,0.5753496,-0.04989624,-0.3511047,0.9349976,-34.1655,-7.796264999999999,-21.03702,4.030167,0.5809618000000001,0.8250533000000001,0.8026669,-0.0398407,-0.3345337,0.9415283,34.26343,-5.4440610000000005,-22.63164,3.962677,0.4509861,0.7632266,-0.4512734,1.100694,-0.08624397,0.01790942,0.5467384,0.01977125,11.15532,-37.33057,33.039015904572565
0,-0.04441833,-0.3420867999999999,0.9386139,0.5753496,-0.04989624,-0.3511047,0.9349976,-34.1655,-7.796264999999999,-21.03702,4.030167,0.5809618000000001,0.8250533000000001,0.8026669,-0.0398407,-0.3345337,0.9415283,34.26343,-5.4440610000000005,-22.63164,3.962677,0.4509861,0.7632266,-0.4512734,1.100694,-0.08624397,0.01790942,0.5467384,0.01977125,11.15532,-37.33057,33.039015904572565
0,-0.04441833,-0.3420867999999999,0.9386139,0.5753496,-0.04989624,-0.3511047,0.9349976,-34.1655,-7.796264999999999,-21.03702,4.030167,0.5809618000000001,0.8250533000000001,0.8026669,-0.0398407,-0.3345337,0.9415283,34.26343,-5.4440610000000005,-22.63164,3.962677,0.4509861,0.7632266,-0.4512734,1.100694,-0.08624397,0.01790942,0.5467384,0.01977125,11.15532,-37.33057,33.039015904572565
0,-0.04405212,-0.339325,0.939621,0.5791354000000001,-0.0499115,-0.3535461,0.934082,-34.164,-7.783386,-21.0325,3.94696,0.5809041,0.8249752,0.7851139,-0.03929138,-0.3276978,0.9439545,34.264720000000004,-5.43956,-22.62477,3.962921,0.4508764,0.7617383000000001,-0.450184,1.099822,-0.08648236,0.01861942,0.5495618,0.01763673,11.15532,-37.33057,33.039015904572565
0,-0.04405212,-0.339325,0.939621,0.5791354000000001,-0.0499115,-0.3535461,0.934082,-34.164,-7.783386,-21.0325,3.94696,0.5809041,0.8249752,0.7851139,-0.03929138,-0.3276978,0.9439545,34.264720000000004,-5.43956,-22.62477,3.962921,0.4508764,0.7617383000000001,-0.450184,1.099822,-0.08648236,0.01861942,0.5495618,0.01763673,11.15532,-37.33057,33.039015904572565
0,-0.04405212,-0.339325,0.939621,0.5791354000000001,-0.0499115,-0.3535461,0.934082,-34.164,-7.783386,-21.0325,3.94696,0.5809041,0.8249752,0.7851139,-0.03929138,-0.3276978,0.9439545,34.264720000000004,-5.43956,-22.62477,3.962921,0.4508764,0.7617383000000001,-0.450184,1.099822,-0.08648236,0.01861942,0.5495618,0.01763673,11.15532,-37.33057,33.039015904572565
0,-0.04405212,-0.339325,0.939621,0.5791354000000001,-0.0499115,-0.3535461,0.934082,-34.164,-7.783386,-21.0325,3.94696,0.5809041,0.8249752,0.7851139,-0.03929138,-0.3276978,0.9439545,34.264720000000004,-5.43956,-22.62477,3.962921,0.4508764,0.7617383000000001,-0.4495140999999999,1.098907,-0.08688097,0.02054719,0.5519518,0.01596813,11.15532,-23.59209,33.039015904572565
0,-0.04405212,-0.339325,0.939621,0.5791354000000001,-0.0499115,-0.3535461,0.934082,-34.164,-7.783386,-21.0325,3.94696,0.5809041,0.8249752,0.7851139,-0.03929138,-0.3276978,0.9439545,34.264720000000004,-5.43956,-22.62477,3.962921,0.4508764,0.7617383000000001,-0.4495140999999999,1.098907,-0.08688097,0.02054719,0.5519518,0.01596813,11.15532,-23.59209,33.039015904572565
0,-0.04405212,-0.339325,0.939621,0.5791354000000001,-0.0499115,-0.3535461,0.934082,-34.164,-7.783386,-21.0325,3.94696,0.5809041,0.8249752,0.7851139,-0.03929138,-0.3276978,0.9439545,34.264720000000004,-5.43956,-22.62477,3.962921,0.4508764,0.7617383000000001,-0.4495140999999999,1.098907,-0.08688097,0.02054719,0.5519518,0.01596813,11.15532,-23.59209,33.039015904572565
0,-0.1422577,-0.05570984,0.9882507,0.5791354000000001,-0.1577911,-0.0375061,0.9867554,-34.76393,-6.651413000000001,-20.74222,3.844345,0.6164929,0.7297499,0.7851139,-0.1260376,-0.0745697,0.989212,33.41873,-3.973541,-22.97368,3.659805,0.4941682,0.6723061,-0.4492380999999999,1.098689,-0.08728175,0.02217635,0.5535079,0.01496071,11.15532,-23.59209,33.039015904572565
0,-0.1422577,-0.05570984,0.9882507,0.5791354000000001,-0.1577911,-0.0375061,0.9867554,-34.76393,-6.651413000000001,-20.74222,3.844345,0.6164929,0.7297499,0.7851139,-0.1260376,-0.0745697,0.989212,33.41873,-3.973541,-22.97368,3.659805,0.4941682,0.6723061,-0.4492380999999999,1.098689,-0.08728175,0.02217635,0.5535079,0.01496071,11.15532,-23.59209,33.039015904572565
0,-0.1422577,-0.05570984,0.9882507,0.5791354000000001,-0.1577911,-0.0375061,0.9867554,-34.76393,-6.651413000000001,-20.74222,3.844345,0.6164929,0.7297499,0.7851139,-0.1260376,-0.0745697,0.989212,33.41873,-3.973541,-22.97368,3.659805,0.4941682,0.6723061,-0.4492380999999999,1.098689,-0.08728175,0.02217635,0.5535079,0.01496071,11.15532,-23.59209,33.039015904572565
0,-0.1375885,-0.0277709999999999,0.990097,1.0,-0.1376494999999999,-0.02775574,0.9900818,-34.71135,-6.192307,-21.02068,3.783539,0.6117908000000001,0.7159393000000001,1.0,-0.1135864,-0.03388977,0.9929352,33.586290000000005,-3.608032,-23.47676,3.496872,0.4868079,0.6582143,-0.4486635,1.098909,-0.08818303,0.02383468,0.5573703000000001,0.01389994,11.15532,-23.59209,33.039015904572565
0,-0.1375885,-0.0277709999999999,0.990097,1.0,-0.1376494999999999,-0.02775574,0.9900818,-34.71135,-6.192307,-21.02068,3.783539,0.6117908000000001,0.7159393000000001,1.0,-0.1135864,-0.03388977,0.9929352,33.586290000000005,-3.608032,-23.47676,3.496872,0.4868079,0.6582143,-0.4486635,1.098909,-0.08818303,0.02383468,0.5573703000000001,0.01389994,11.15532,-23.59209,33.039015904572565
0,-0.1375885,-0.0277709999999999,0.990097,1.0,-0.1376494999999999,-0.02775574,0.9900818,-34.71135,-6.192307,-21.02068,3.783539,0.6117908000000001,0.7159393000000001,1.0,-0.1135864,-0.03388977,0.9929352,33.586290000000005,-3.608032,-23.47676,3.496872,0.4868079,0.6582143,-0.4486635,1.098909,-0.08818303,0.02383468,0.5573703000000001,0.01389994,11.15532,-23.59209,33.039015904572565
0,-0.1375885,-0.0277709999999999,0.990097,1.0,-0.1376494999999999,-0.02775574,0.9900818,-34.71135,-6.192307,-21.02068,3.783539,0.6117908000000001,0.7159393000000001,1.0,-0.1135864,-0.03388977,0.9929352,33.586290000000005,-3.608032,-23.47676,3.496872,0.4868079,0.6582143,-0.4483787,1.099108,-0.08879526,0.0242055,0.5595260999999999,0.01344132,11.15532,-23.59209,33.039015904572565
0,-0.1375885,-0.0277709999999999,0.990097,1.0,-0.1376494999999999,-0.02775574,0.9900818,-34.71135,-6.192307,-21.02068,3.783539,0.6117908000000001,0.7159393000000001,1.0,-0.1135864,-0.03388977,0.9929352,33.586290000000005,-3.608032,-23.47676,3.496872,0.4868079,0.6582143,-0.4483787,1.099108,-0.08879526,0.0242055,0.5595260999999999,0.01344132,11.15532,-23.59209,33.039015904572565
0,-0.1375885,-0.0277709999999999,0.990097,1.0,-0.1376494999999999,-0.02775574,0.9900818,-34.71135,-6.192307,-21.02068,3.783539,0.6117908000000001,0.7159393000000001,1.0,-0.1135864,-0.03388977,0.9929352,33.586290000000005,-3.608032,-23.47676,3.496872,0.4868079,0.6582143,-0.4483787,1.099108,-0.08879526,0.0242055,0.5595260999999999,0.01344132,11.15532,-23.59209,33.039015904572565
0,-0.1375885,-0.0277709999999999,0.990097,1.0,-0.1376494999999999,-0.02775574,0.9900818,-34.71135,-6.192307,-21.02068,3.783539,0.6117908000000001,0.7159393000000001,1.0,-0.1135864,-0.03388977,0.9929352,33.586290000000005,-3.608032,-23.47676,3.496872,0.4868079,0.6582143,-0.448057,1.099129,-0.08974309,0.02428739,0.562585,0.01254298,11.15532,-23.59209,33.039015904572565
0,-0.1375885,-0.0277709999999999,0.990097,1.0,-0.1376494999999999,-0.02775574,0.9900818,-34.71135,-6.192307,-21.02068,3.783539,0.6117908000000001,0.7159393000000001,1.0,-0.1135864,-0.03388977,0.9929352,33.586290000000005,-3.608032,-23.47676,3.496872,0.4868079,0.6582143,-0.448057,1.099129,-0.08974309,0.02428739,0.562585,0.01254298,11.15532,-23.59209,33.039015904572565
0,-0.1375885,-0.0277709999999999,0.990097,1.0,-0.1376494999999999,-0.02775574,0.9900818,-34.71135,-6.192307,-21.02068,3.783539,0.6117908000000001,0.7159393000000001,1.0,-0.1135864,-0.03388977,0.9929352,33.586290000000005,-3.608032,-23.47676,3.496872,0.4868079,0.6582143,-0.448057,1.099129,-0.08974309,0.02428739,0.562585,0.01254298,11.15532,-23.59209,33.039015904572565
0,-0.1061858999999999,-0.02531433,0.9940186,1.0,-0.1368407999999999,-0.01428223,0.9904785,-34.59953,-6.051758,-21.30623,3.691833,0.608409,0.712032,1.0,-0.09533691,-0.02920532,0.9950104,33.693940000000005,-3.594086,-23.36987,3.45137,0.4802190999999999,0.6557073,-0.4475923,1.099282,-0.09120856,0.02354818,0.5671023000000001,0.01014066,11.15532,50.64792,33.039015904572565
0,-0.1061858999999999,-0.02531433,0.9940186,1.0,-0.1368407999999999,-0.01428223,0.9904785,-34.59953,-6.051758,-21.30623,3.691833,0.608409,0.712032,1.0,-0.09533691,-0.02920532,0.9950104,33.693940000000005,-3.594086,-23.36987,3.45137,0.4802190999999999,0.6557073,-0.4475923,1.099282,-0.09120856,0.02354818,0.5671023000000001,0.01014066,11.15532,50.64792,33.039015904572565
0,-0.1061858999999999,-0.02531433,0.9940186,1.0,-0.1368407999999999,-0.01428223,0.9904785,-34.59953,-6.051758,-21.30623,3.691833,0.608409,0.712032,1.0,-0.09533691,-0.02920532,0.9950104,33.693940000000005,-3.594086,-23.36987,3.45137,0.4802190999999999,0.6557073,-0.4475923,1.099282,-0.09120856,0.02354818,0.5671023000000001,0.01014066,11.15532,50.64792,33.039015904572565
0,-0.1061858999999999,-0.02531433,0.9940186,1.0,-0.1368407999999999,-0.01428223,0.9904785,-34.59953,-6.051758,-21.30623,3.691833,0.608409,0.712032,1.0,-0.09533691,-0.02920532,0.9950104,33.693940000000005,-3.594086,-23.36987,3.45137,0.4802190999999999,0.6557073,-0.4469555999999999,1.099748,-0.09247778,0.02015713,0.5712983,0.00938037,11.15532,50.64792,33.039015904572565
0,-0.1061858999999999,-0.02531433,0.9940186,1.0,-0.1368407999999999,-0.01428223,0.9904785,-34.59953,-6.051758,-21.30623,3.691833,0.608409,0.712032,1.0,-0.09533691,-0.02920532,0.9950104,33.693940000000005,-3.594086,-23.36987,3.45137,0.4802190999999999,0.6557073,-0.4469555999999999,1.099748,-0.09247778,0.02015713,0.5712983,0.00938037,11.15532,50.64792,33.039015904572565
0,-0.1061858999999999,-0.02531433,0.9940186,1.0,-0.1368407999999999,-0.01428223,0.9904785,-34.59953,-6.051758,-21.30623,3.691833,0.608409,0.712032,1.0,-0.09533691,-0.02920532,0.9950104,33.693940000000005,-3.594086,-23.36987,3.45137,0.4802190999999999,0.6557073,-0.4469555999999999,1.099748,-0.09247778,0.02015713,0.5712983,0.00938037,11.15532,50.64792,33.039015904572565
0,-0.1061858999999999,-0.02531433,0.9940186,1.0,-0.1368407999999999,-0.01428223,0.9904785,-34.59953,-6.051758,-21.30623,3.691833,0.608409,0.712032,1.0,-0.09533691,-0.02920532,0.9950104,33.693940000000005,-3.594086,-23.36987,3.45137,0.4802190999999999,0.6557073,-0.4464377,1.100089,-0.09332581,0.01782248,0.5743281,0.008847783,11.15532,50.64792,33.039015904572565
0,-0.1061858999999999,-0.02531433,0.9940186,1.0,-0.1368407999999999,-0.01428223,0.9904785,-34.59953,-6.051758,-21.30623,3.691833,0.608409,0.712032,1.0,-0.09533691,-0.02920532,0.9950104,33.693940000000005,-3.594086,-23.36987,3.45137,0.4802190999999999,0.6557073,-0.4464377,1.100089,-0.09332581,0.01782248,0.5743281,0.008847783,11.15532,50.64792,33.039015904572565
0,-0.1061858999999999,-0.02531433,0.9940186,1.0,-0.1368407999999999,-0.01428223,0.9904785,-34.59953,-6.051758,-21.30623,3.691833,0.608409,0.712032,1.0,-0.09533691,-0.02920532,0.9950104,33.693940000000005,-3.594086,-23.36987,3.45137,0.4802190999999999,0.6557073,-0.4464377,1.100089,-0.09332581,0.01782248,0.5743281,0.008847783,11.15532,50.64792,33.039015904572565
0,-0.3534241,-0.0763855,0.9323273,1.0,-0.3574219,-0.05044556,0.9325714,-35.75002,-6.858795,-21.31729,3.986923,0.6826104000000001,0.7486649999999999,1.0,-0.3477936,-0.1103516,0.9310455,32.53545,-4.168823000000001,-23.25975,3.4904940000000004,0.5608034000000001,0.6909602,-0.4455518,1.100279,-0.09475027,0.01506468,0.5796154,0.0077068819999999,11.15532,50.64792,33.039015904572565
0,-0.3534241,-0.0763855,0.9323273,1.0,-0.3574219,-0.05044556,0.9325714,-35.75002,-6.858795,-21.31729,3.986923,0.6826104000000001,0.7486649999999999,1.0,-0.3477936,-0.1103516,0.9310455,32.53545,-4.168823000000001,-23.25975,3.4904940000000004,0.5608034000000001,0.6909602,-0.4455518,1.100279,-0.09475027,0.01506468,0.5796154,0.0077068819999999,11.15532,50.64792,33.039015904572565
0,-0.3534241,-0.0763855,0.9323273,1.0,-0.3574219,-0.05044556,0.9325714,-35.75002,-6.858795,-21.31729,3.986923,0.6826104000000001,0.7486649999999999,1.0,-0.3477936,-0.1103516,0.9310455,32.53545,-4.168823000000001,-23.25975,3.4904940000000004,0.5608034000000001,0.6909602,-0.4455518,1.100279,-0.09475027,0.01506468,0.5796154,0.0077068819999999,11.15532,50.64792,33.039015904572565
0,-0.3490753,-0.06811523,0.9346008,1.0,-0.3565216,-0.0491333,0.9329834,-35.75497,-6.868057,-21.3175,3.951141,0.6826534000000001,0.7487059,1.0,-0.3312225,-0.1120453,0.9368591,32.61554,-4.182419,-23.23299,3.56897,0.5552214,0.6911361999999999,-0.4441552,1.100411,-0.09733056,0.01166107,0.5895746000000001,0.004218938,11.15532,50.64792,33.039015904572565
0,-0.3490753,-0.06811523,0.9346008,1.0,-0.3565216,-0.0491333,0.9329834,-35.75497,-6.868057,-21.3175,3.951141,0.6826534000000001,0.7487059,1.0,-0.3312225,-0.1120453,0.9368591,32.61554,-4.182419,-23.23299,3.56897,0.5552214,0.6911361999999999,-0.4441552,1.100411,-0.09733056,0.01166107,0.5895746000000001,0.004218938,11.15532,50.64792,33.039015904572565
0,-0.3490753,-0.06811523,0.9346008,1.0,-0.3565216,-0.0491333,0.9329834,-35.75497,-6.868057,-21.3175,3.951141,0.6826534000000001,0.7487059,1.0,-0.3312225,-0.1120453,0.9368591,32.61554,-4.182419,-23.23299,3.56897,0.5552214,0.6911361999999999,-0.4441552,1.100411,-0.09733056,0.01166107,0.5895746000000001,0.004218938,11.15532,50.64792,33.039015904572565
0,-0.3490753,-0.06811523,0.9346008,1.0,-0.3565216,-0.0491333,0.9329834,-35.75497,-6.868057,-21.3175,3.951141,0.6826534000000001,0.7487059,1.0,-0.3312225,-0.1120453,0.9368591,32.61554,-4.182419,-23.23299,3.56897,0.5552214,0.6911361999999999,-0.4434111,1.100348,-0.09885289,0.01048171,0.5959802,0.0022934929999999,11.15532,30.95705,33.039015904572565
0,-0.3490753,-0.06811523,0.9346008,1.0,-0.3565216,-0.0491333,0.9329834,-35.75497,-6.868057,-21.3175,3.951141,0.6826534000000001,0.7487059,1.0,-0.3312225,-0.1120453,0.9368591,32.61554,-4.182419,-23.23299,3.56897,0.5552214,0.6911361999999999,-0.4434111,1.100348,-0.09885289,0.01048171,0.5959802,0.0022934929999999,11.15532,30.95705,33.039015904572565
0,-0.3490753,-0.06811523,0.9346008,1.0,-0.3565216,-0.0491333,0.9329834,-35.75497,-6.868057,-21.3175,3.951141,0.6826534000000001,0.7487059,1.0,-0.3312225,-0.1120453,0.9368591,32.61554,-4.182419,-23.23299,3.56897,0.5552214,0.6911361999999999,-0.4434111,1.100348,-0.09885289,0.01048171,0.5959802,0.0022934929999999,11.15532,30.95705,33.039015904572565
0,-0.2926178,-0.05731201,0.9544983,1.0,-0.3113555999999999,-0.04685974,0.9491272,-35.67374,-6.698364,-21.17812,3.894638,0.6719913000000001,0.7401751,1.0,-0.2712097,-0.06912231,0.960022,32.76268,-4.1320190000000006,-23.16853,3.412674,0.540369,0.6801873,-0.4419429,1.100172,-0.1024256,0.009474418,0.6104593,-0.001572766,11.15532,30.95705,33.039015904572565
0,-0.2926178,-0.05731201,0.9544983,1.0,-0.3113555999999999,-0.04685974,0.9491272,-35.67374,-6.698364,-21.17812,3.894638,0.6719913000000001,0.7401751,1.0,-0.2712097,-0.06912231,0.960022,32.76268,-4.1320190000000006,-23.16853,3.412674,0.540369,0.6801873,-0.4419429,1.100172,-0.1024256,0.009474418,0.6104593,-0.001572766,11.15532,30.95705,33.039015904572565
0,-0.2926178,-0.05731201,0.9544983,1.0,-0.3113555999999999,-0.04685974,0.9491272,-35.67374,-6.698364,-21.17812,3.894638,0.6719913000000001,0.7401751,1.0,-0.2712097,-0.06912231,0.960022,32.76268,-4.1320190000000006,-23.16853,3.412674,0.540369,0.6801873,-0.4419429,1.100172,-0.1024256,0.009474418,0.6104593,-0.001572766,11.15532,30.95705,33.039015904572565
1,-0.2926178,-0.05731201,0.9544983,1.0,-0.3113555999999999,-0.04685974,0.9491272,-35.67374,-6.698364,-21.17812,3.894638,0.6719913000000001,0.7401751,1.0,-0.2712097,-0.06912231,0.960022,32.76268,-4.1320190000000006,-23.16853,3.412674,0.540369,0.6801873,-0.4409564,1.100353,-0.1054053,0.007455789,0.6228672,-0.003332989,11.15532,30.95705,33.039015904572565
1,-0.2926178,-0.05731201,0.9544983,1.0,-0.3113555999999999,-0.04685974,0.9491272,-35.67374,-6.698364,-21.17812,3.894638,0.6719913000000001,0.7401751,1.0,-0.2712097,-0.06912231,0.960022,32.76268,-4.1320190000000006,-23.16853,3.412674,0.540369,0.6801873,-0.4409564,1.100353,-0.1054053,0.007455789,0.6228672,-0.003332989,11.15532,30.95705,33.039015904572565
1,-0.2926178,-0.05731201,0.9544983,1.0,-0.3113555999999999,-0.04685974,0.9491272,-35.67374,-6.698364,-21.17812,3.894638,0.6719913000000001,0.7401751,1.0,-0.2712097,-0.06912231,0.960022,32.76268,-4.1320190000000006,-23.16853,3.412674,0.540369,0.6801873,-0.4409564,1.100353,-0.1054053,0.007455789,0.6228672,-0.003332989,11.15532,30.95705,33.039015904572565
1,-0.2765960999999999,-0.06265259,0.9589233,1.0,-0.2924347,-0.04525757,0.9552002,-35.6395,-6.683319,-21.15419,3.762848,0.6676433,0.7386071999999999,1.0,-0.2635345,-0.07684326,0.9615784,32.78531,-4.128616,-23.15689,3.443954,0.5382687,0.6811933000000001,-0.4401252,1.100493,-0.1085058,0.005342581,0.6354641,-0.00448598,11.15532,30.95705,33.039015904572565
1,-0.2765960999999999,-0.06265259,0.9589233,1.0,-0.2924347,-0.04525757,0.9552002,-35.6395,-6.683319,-21.15419,3.762848,0.6676433,0.7386071999999999,1.0,-0.2635345,-0.07684326,0.9615784,32.78531,-4.128616,-23.15689,3.443954,0.5382687,0.6811933000000001,-0.4401252,1.100493,-0.1085058,0.005342581,0.6354641,-0.00448598,11.15532,30.95705,33.039015904572565
1,-0.2765960999999999,-0.06265259,0.9589233,1.0,-0.2924347,-0.04525757,0.9552002,-35.6395,-6.683319,-21.15419,3.762848,0.6676433,0.7386071999999999,1.0,-0.2635345,-0.07684326,0.9615784,32.78531,-4.128616,-23.15689,3.443954,0.5382687,0.6811933000000001,-0.4401252,1.100493,-0.1085058,0.005342581,0.6354641,-0.00448598,11.15532,30.95705,33.039015904572565
1,-0.1742553999999999,-0.06121826,0.9827881,1.0,-0.188446,-0.04293823,0.9811401,-35.04243,-6.525299,-20.89536,3.710449,0.6306109000000001,0.7284357,1.0,-0.1635132,-0.07495117,0.9836731,33.35991,-4.025482,-22.99579,3.37645,0.5024465,0.6744565,-0.4394543999999999,1.100572,-0.1120154,0.003518929,0.6500136,-0.005375254,11.15532,30.95705,33.039015904572565
1,-0.1742553999999999,-0.06121826,0.9827881,1.0,-0.188446,-0.04293823,0.9811401,-35.04243,-6.525299,-20.89536,3.710449,0.6306109000000001,0.7284357,1.0,-0.1635132,-0.07495117,0.9836731,33.35991,-4.025482,-22.99579,3.37645,0.5024465,0.6744565,-0.4394543999999999,1.100572,-0.1120154,0.003518929,0.6500136,-0.005375254,11.15532,30.95705,33.039015904572565
1,-0.1742553999999999,-0.06121826,0.9827881,1.0,-0.188446,-0.04293823,0.9811401,-35.04243,-6.525299,-20.89536,3.710449,0.6306109000000001,0.7284357,1.0,-0.1635132,-0.07495117,0.9836731,33.35991,-4.025482,-22.99579,3.37645,0.5024465,0.6744565,-0.4394543999999999,1.100572,-0.1120154,0.003518929,0.6500136,-0.005375254,11.15532,30.95705,33.039015904572565
1,-0.1356812,-0.07113647,0.9881897,1.0,-0.1475525,-0.04475403,0.9880371,-34.804120000000005,-6.488983,-20.67239,3.674255000000001,0.6160161999999999,0.7246859999999999,1.0,-0.1344147,-0.07392883,0.9881592,33.57045,-4.01593,-23.03845,3.29541,0.4906640999999999,0.6740722,-0.4393502999999999,1.100538,-0.1135916999999999,0.002161368,0.6566810000000001,-0.006899403,11.15532,30.95705,33.039015904572565
1,-0.1356812,-0.07113647,0.9881897,1.0,-0.1475525,-0.04475403,0.9880371,-34.804120000000005,-6.488983,-20.67239,3.674255000000001,0.6160161999999999,0.7246859999999999,1.0,-0.1344147,-0.07392883,0.9881592,33.57045,-4.01593,-23.03845,3.29541,0.4906640999999999,0.6740722,-0.4393502999999999,1.100538,-0.1135916999999999,0.002161368,0.6566810000000001,-0.006899403,11.15532,30.95705,33.039015904572565
1,-0.1356812,-0.07113647,0.9881897,1.0,-0.1475525,-0.04475403,0.9880371,-34.804120000000005,-6.488983,-20.67239,3.674255000000001,0.6160161999999999,0.7246859999999999,1.0,-0.1344147,-0.07392883,0.9881592,33.57045,-4.01593,-23.03845,3.29541,0.4906640999999999,0.6740722,-0.4393502999999999,1.100538,-0.1135916999999999,0.002161368,0.6566810000000001,-0.006899403,11.15532,30.95705,33.039015904572565
1,-0.1052094,-0.07395935,0.991684,1.0,-0.1188354,-0.04878235,0.9916992,-34.59062,-6.223312,-21.05252,3.5617370000000004,0.6049053000000001,0.72033,1.0,-0.09887695,-0.08558655,0.9914093,33.72058,-3.935318,-23.07599,3.348618,0.4797492,0.6735711999999999,-0.4393465,1.100488,-0.1151297,0.0006686067,0.6631520000000001,-0.008600544,11.15532,-27.81729,33.039015904572565
1,-0.1052094,-0.07395935,0.991684,1.0,-0.1188354,-0.04878235,0.9916992,-34.59062,-6.223312,-21.05252,3.5617370000000004,0.6049053000000001,0.72033,1.0,-0.09887695,-0.08558655,0.9914093,33.72058,-3.935318,-23.07599,3.348618,0.4797492,0.6735711999999999,-0.4393465,1.100488,-0.1151297,0.0006686067,0.6631520000000001,-0.008600544,11.15532,-27.81729,33.039015904572565
1,-0.1052094,-0.07395935,0.991684,1.0,-0.1188354,-0.04878235,0.9916992,-34.59062,-6.223312,-21.05252,3.5617370000000004,0.6049053000000001,0.72033,1.0,-0.09887695,-0.08558655,0.9914093,33.72058,-3.935318,-23.07599,3.348618,0.4797492,0.6735711999999999,-0.4393465,1.100488,-0.1151297,0.0006686067,0.6631520000000001,-0.008600544,11.15532,-27.81729,33.039015904572565
1,-0.09945679,-0.06285095,0.993042,1.0,-0.1156769,-0.02758789,0.9928894,-34.60657,-6.16217,-21.10455,3.628922,0.6050084,0.7155117,1.0,-0.09443665,-0.07365417,0.9927979,33.70898,-3.709595,-23.51482,3.365326,0.4794694,0.6685324,-0.4393653,1.10025,-0.1180813,-0.001796135,0.6750995,-0.01245207,11.15532,-27.81729,33.039015904572565
1,-0.09945679,-0.06285095,0.993042,1.0,-0.1156769,-0.02758789,0.9928894,-34.60657,-6.16217,-21.10455,3.628922,0.6050084,0.7155117,1.0,-0.09443665,-0.07365417,0.9927979,33.70898,-3.709595,-23.51482,3.365326,0.4794694,0.6685324,-0.4393653,1.10025,-0.1180813,-0.001796135,0.6750995,-0.01245207,11.15532,-27.81729,33.039015904572565
1,-0.09945679,-0.06285095,0.993042,1.0,-0.1156769,-0.02758789,0.9928894,-34.60657,-6.16217,-21.10455,3.628922,0.6050084,0.7155117,1.0,-0.09443665,-0.07365417,0.9927979,33.70898,-3.709595,-23.51482,3.365326,0.4794694,0.6685324,-0.4393653,1.10025,-0.1180813,-0.001796135,0.6750995,-0.01245207,11.15532,-27.81729,33.039015904572565
1,-0.2642365,-0.007247925,0.9644165,1.0,-0.2790375,0.003799438,0.9602661,-35.38896,-6.185028,-21.06804,3.683151,0.6569489000000001,0.7127625,1.0,-0.2509155,-0.01713562,0.9678497,33.02554,-3.60675,-23.13091,3.5402370000000003,0.5283901999999999,0.6532624,-0.4394394,1.100164,-0.1195726,-0.003451591,0.6815557,-0.01558131,11.15532,-27.81729,33.039015904572565
1,-0.2642365,-0.007247925,0.9644165,1.0,-0.2790375,0.003799438,0.9602661,-35.38896,-6.185028,-21.06804,3.683151,0.6569489000000001,0.7127625,1.0,-0.2509155,-0.01713562,0.9678497,33.02554,-3.60675,-23.13091,3.5402370000000003,0.5283901999999999,0.6532624,-0.4394394,1.100164,-0.1195726,-0.003451591,0.6815557,-0.01558131,11.15532,-27.81729,33.039015904572565
1,-0.2642365,-0.007247925,0.9644165,1.0,-0.2790375,0.003799438,0.9602661,-35.38896,-6.185028,-21.06804,3.683151,0.6569489000000001,0.7127625,1.0,-0.2509155,-0.01713562,0.9678497,33.02554,-3.60675,-23.13091,3.5402370000000003,0.5283901999999999,0.6532624,-0.4394394,1.100164,-0.1195726,-0.003451591,0.6815557,-0.01558131,11.15532,-27.81729,33.039015904572565
1,-0.250061,0.01168823,0.9681549,1.0,-0.2513732999999999,0.02389526,0.9675903,-35.319340000000004,-6.126907,-21.04837,3.633163,0.6501038,0.7068745,1.0,-0.2471619,-0.01420593,0.9688568,33.13361,-3.614059,-23.1109,3.606934,0.5241364000000001,0.6527845,-0.4394693,1.099343,-0.124503,-0.004317563,0.6994179,-0.02475019,11.15532,-27.81729,33.039015904572565
1,-0.250061,0.01168823,0.9681549,1.0,-0.2513732999999999,0.02389526,0.9675903,-35.319340000000004,-6.126907,-21.04837,3.633163,0.6501038,0.7068745,1.0,-0.2471619,-0.01420593,0.9688568,33.13361,-3.614059,-23.1109,3.606934,0.5241364000000001,0.6527845,-0.4394693,1.099343,-0.124503,-0.004317563,0.6994179,-0.02475019,11.15532,-27.81729,33.039015904572565
1,-0.250061,0.01168823,0.9681549,1.0,-0.2513732999999999,0.02389526,0.9675903,-35.319340000000004,-6.126907,-21.04837,3.633163,0.6501038,0.7068745,1.0,-0.2471619,-0.01420593,0.9688568,33.13361,-3.614059,-23.1109,3.606934,0.5241364000000001,0.6527845,-0.4394693,1.099343,-0.124503,-0.004317563,0.6994179,-0.02475019,11.15532,-27.81729,33.039015904572565
1,-0.2135467999999999,0.007232666,0.9768982,1.0,-0.2116852,0.02079773,0.9771118,-35.15398,-6.014511,-20.99524,3.798721,0.6380537,0.7028023,1.0,-0.2149199999999999,-0.002914429,0.9766235,33.287490000000005,-3.666641,-22.9782,3.4113010000000004,0.5137219,0.6506966,-0.4395439,1.099209,-0.1270178,-0.004068807,0.7071301,-0.02900011,11.15532,-27.81729,33.039015904572565
1,-0.2135467999999999,0.007232666,0.9768982,1.0,-0.2116852,0.02079773,0.9771118,-35.15398,-6.014511,-20.99524,3.798721,0.6380537,0.7028023,1.0,-0.2149199999999999,-0.002914429,0.9766235,33.287490000000005,-3.666641,-22.9782,3.4113010000000004,0.5137219,0.6506966,-0.4395439,1.099209,-0.1270178,-0.004068807,0.7071301,-0.02900011,11.15532,-27.81729,33.039015904572565
1,-0.2135467999999999,0.007232666,0.9768982,1.0,-0.2116852,0.02079773,0.9771118,-35.15398,-6.014511,-20.99524,3.798721,0.6380537,0.7028023,1.0,-0.2149199999999999,-0.002914429,0.9766235,33.287490000000005,-3.666641,-22.9782,3.4113010000000004,0.5137219,0.6506966,-0.4395439,1.099209,-0.1270178,-0.004068807,0.7071301,-0.02900011,11.15532,-27.81729,33.039015904572565
1,-0.2015838999999999,0.05387878,0.9779816,1.0,-0.2080382999999999,0.07911682,0.9748993,-34.99272,-6.319641000000001,-20.70798,3.618805000000001,0.632078,0.699836,1.0,-0.1895905,0.008209229,0.9818268,33.39503,-3.65918,-22.78322,3.34787,0.5059388,0.6462604999999999,-0.4395439,1.099209,-0.1270178,-0.004068807,0.7071301,-0.02900011,11.15532,-44.6736,33.039015904572565
1,-0.2015838999999999,0.05387878,0.9779816,1.0,-0.2080382999999999,0.07911682,0.9748993,-34.99272,-6.319641000000001,-20.70798,3.618805000000001,0.632078,0.699836,1.0,-0.1895905,0.008209229,0.9818268,33.39503,-3.65918,-22.78322,3.34787,0.5059388,0.6462604999999999,-0.4395439,1.099209,-0.1270178,-0.004068807,0.7071301,-0.02900011,11.15532,-44.6736,33.039015904572565
1,-0.2015838999999999,0.05387878,0.9779816,1.0,-0.2080382999999999,0.07911682,0.9748993,-34.99272,-6.319641000000001,-20.70798,3.618805000000001,0.632078,0.699836,1.0,-0.1895905,0.008209229,0.9818268,33.39503,-3.65918,-22.78322,3.34787,0.5059388,0.6462604999999999,-0.4395439,1.099209,-0.1270178,-0.004068807,0.7071301,-0.02900011,11.15532,-44.6736,33.039015904572565
1,-0.2015838999999999,0.05387878,0.9779816,1.0,-0.2080382999999999,0.07911682,0.9748993,-34.99272,-6.319641000000001,-20.70798,3.618805000000001,0.632078,0.699836,1.0,-0.1895905,0.008209229,0.9818268,33.39503,-3.65918,-22.78322,3.34787,0.5059388,0.6462604999999999,-0.4396632,1.099036,-0.1289164,-0.004522372,0.7137288,-0.03350769,11.15532,-44.6736,33.039015904572565
1,-0.2015838999999999,0.05387878,0.9779816,1.0,-0.2080382999999999,0.07911682,0.9748993,-34.99272,-6.319641000000001,-20.70798,3.618805000000001,0.632078,0.699836,1.0,-0.1895905,0.008209229,0.9818268,33.39503,-3.65918,-22.78322,3.34787,0.5059388,0.6462604999999999,-0.4396632,1.099036,-0.1289164,-0.004522372,0.7137288,-0.03350769,11.15532,-44.6736,33.039015904572565
1,-0.2015838999999999,0.05387878,0.9779816,1.0,-0.2080382999999999,0.07911682,0.9748993,-34.99272,-6.319641000000001,-20.70798,3.618805000000001,0.632078,0.699836,1.0,-0.1895905,0.008209229,0.9818268,33.39503,-3.65918,-22.78322,3.34787,0.5059388,0.6462604999999999,-0.4396632,1.099036,-0.1289164,-0.004522372,0.7137288,-0.03350769,11.15532,-44.6736,33.039015904572565
1,-1.0,-1.0,-1.0,0.0,0.0,0.0,0.0,-34.76146,-6.533919999999999,-20.91463,-1.0,-1.0,-1.0,0.1228216,0.0,0.0,0.0,33.42609,-3.4086,-23.24054,-1.0,-1.0,-1.0,-0.4395707,1.09871,-0.130388,-0.0043570729999999,0.7189814999999999,-0.03644366,11.15532,-44.6736,33.039015904572565
1,-1.0,-1.0,-1.0,0.0,0.0,0.0,0.0,-34.76146,-6.533919999999999,-20.91463,-1.0,-1.0,-1.0,0.1228216,0.0,0.0,0.0,33.42609,-3.4086,-23.24054,-1.0,-1.0,-1.0,-0.4395707,1.09871,-0.130388,-0.0043570729999999,0.7189814999999999,-0.03644366,11.15532,-44.6736,33.039015904572565
1,-1.0,-1.0,-1.0,0.0,0.0,0.0,0.0,-34.76146,-6.533919999999999,-20.91463,-1.0,-1.0,-1.0,0.1228216,0.0,0.0,0.0,33.42609,-3.4086,-23.24054,-1.0,-1.0,-1.0,-0.4395707,1.09871,-0.130388,-0.0043570729999999,0.7189814999999999,-0.03644366,11.15532,-44.6736,33.039015904572565
1,-1.0,-1.0,-1.0,0.0,0.0,0.0,0.0,-34.76146,-6.533919999999999,-20.91463,-1.0,-1.0,-1.0,0.0,0.0,0.0,0.0,33.42609,-3.4086,-23.24054,-1.0,-1.0,-1.0,-0.4394340999999999,1.097984,-0.1317293,-0.003765429,0.7232221,-0.03882383,11.15532,-44.6736,33.039015904572565
1,-1.0,-1.0,-1.0,0.0,0.0,0.0,0.0,-34.76146,-6.533919999999999,-20.91463,-1.0,-1.0,-1.0,0.0,0.0,0.0,0.0,33.42609,-3.4086,-23.24054,-1.0,-1.0,-1.0,-0.4394340999999999,1.097984,-0.1317293,-0.003765429,0.7232221,-0.03882383,11.15532,-44.6736,33.039015904572565
1,-1.0,-1.0,-1.0,0.0,0.0,0.0,0.0,-34.76146,-6.533919999999999,-20.91463,-1.0,-1.0,-1.0,0.0,0.0,0.0,0.0,33.42609,-3.4086,-23.24054,-1.0,-1.0,-1.0,-0.4394340999999999,1.097984,-0.1317293,-0.003765429,0.7232221,-0.03882383,11.15532,-44.6736,33.039015904572565
1,0.08482361,-0.2103728999999999,0.9739227,0.0,0.08482361,-0.2103728999999999,0.9739227,-33.46564,-7.386261,-21.02298,3.839478,0.5362285,0.7838821,0.09548955,0.0,0.0,0.0,33.42609,-3.4086,-23.24054,-1.0,0.4906026,0.7416557,-0.4389389,1.097063,-0.132697,-0.002724111,0.7263575,-0.04032683,11.15532,-44.6736,33.039015904572565
1,0.08482361,-0.2103728999999999,0.9739227,0.0,0.08482361,-0.2103728999999999,0.9739227,-33.46564,-7.386261,-21.02298,3.839478,0.5362285,0.7838821,0.09548955,0.0,0.0,0.0,33.42609,-3.4086,-23.24054,-1.0,0.4906026,0.7416557,-0.4389389,1.097063,-0.132697,-0.002724111,0.7263575,-0.04032683,11.15532,-44.6736,33.039015904572565
1,0.08482361,-0.2103728999999999,0.9739227,0.0,0.08482361,-0.2103728999999999,0.9739227,-33.46564,-7.386261,-21.02298,3.839478,0.5362285,0.7838821,0.09548955,0.0,0.0,0.0,33.42609,-3.4086,-23.24054,-1.0,0.4906026,0.7416557,-0.4389389,1.097063,-0.132697,-0.002724111,0.7263575,-0.04032683,11.15532,-44.6736,33.039015904572565
1,0.1674042,-0.420517,0.8916931,0.0,0.0,0.0,0.0,-33.46564,-7.386261,-21.02298,-1.0,0.5787394,0.7462816999999999,0.1953987,0.1674042,-0.420517,0.8916931,32.46089,-4.492615,-22.93613,5.012268,0.4779219,0.7506325,-0.4383954,1.09578,-0.1333981,-0.0007273179,0.7285461,-0.04283477,11.15532,58.29408,33.039015904572565
1,0.1674042,-0.420517,0.8916931,0.0,0.0,0.0,0.0,-33.46564,-7.386261,-21.02298,-1.0,0.5787394,0.7462816999999999,0.1953987,0.1674042,-0.420517,0.8916931,32.46089,-4.492615,-22.93613,5.012268,0.4779219,0.7506325,-0.4383954,1.09578,-0.1333981,-0.0007273179,0.7285461,-0.04283477,11.15532,58.29408,33.039015904572565
1,0.1674042,-0.420517,0.8916931,0.0,0.0,0.0,0.0,-33.46564,-7.386261,-21.02298,-1.0,0.5787394,0.7462816999999999,0.1953987,0.1674042,-0.420517,0.8916931,32.46089,-4.492615,-22.93613,5.012268,0.4779219,0.7506325,-0.4383954,1.09578,-0.1333981,-0.0007273179,0.7285461,-0.04283477,11.15532,58.29408,33.039015904572565
1,-0.01976013,-0.1100006,0.9937286,0.4220090999999999,-0.01905823,-0.09844971,0.9949493,-33.74129,-6.2738190000000005,-21.26552,3.561417,0.5618677,0.7319974,0.5772889,-0.02452087,-0.1888733,0.9816895,34.55489,-4.343552,-22.75018,3.027893,0.4396648,0.7009847,-0.4378899999999999,1.093928,-0.1340694,0.007216101,0.7286024,-0.04612182,11.15532,58.29408,33.039015904572565
1,-0.01976013,-0.1100006,0.9937286,0.4220090999999999,-0.01905823,-0.09844971,0.9949493,-33.74129,-6.2738190000000005,-21.26552,3.561417,0.5618677,0.7319974,0.5772889,-0.02452087,-0.1888733,0.9816895,34.55489,-4.343552,-22.75018,3.027893,0.4396648,0.7009847,-0.4378899999999999,1.093928,-0.1340694,0.007216101,0.7286024,-0.04612182,11.15532,58.29408,33.039015904572565
1,-0.01976013,-0.1100006,0.9937286,0.4220090999999999,-0.01905823,-0.09844971,0.9949493,-33.74129,-6.2738190000000005,-21.26552,3.561417,0.5618677,0.7319974,0.5772889,-0.02452087,-0.1888733,0.9816895,34.55489,-4.343552,-22.75018,3.027893,0.4396648,0.7009847,-0.4378899999999999,1.093928,-0.1340694,0.007216101,0.7286024,-0.04612182,11.15532,58.29408,33.039015904572565
1,-0.0229949999999999,-0.1251068,0.9918671,0.5557936,-0.02301025,-0.1232452,0.9920959,-33.71062,-6.2146300000000005,-21.36705,3.5529940000000004,0.5615938,0.7353569000000001,0.6703528,-0.02268982,-0.1493225,0.9885254,34.54292,-4.468323000000001,-22.3614,3.2285310000000003,0.4398748999999999,0.694246,-0.4378925,1.0932959999999998,-0.1340264,0.01168787,0.7267929,-0.04656922,11.15532,58.29408,33.039015904572565
1,-0.0229949999999999,-0.1251068,0.9918671,0.5557936,-0.02301025,-0.1232452,0.9920959,-33.71062,-6.2146300000000005,-21.36705,3.5529940000000004,0.5615938,0.7353569000000001,0.6703528,-0.02268982,-0.1493225,0.9885254,34.54292,-4.468323000000001,-22.3614,3.2285310000000003,0.4398748999999999,0.694246,-0.4378925,1.0932959999999998,-0.1340264,0.01168787,0.7267929,-0.04656922,11.15532,58.29408,33.039015904572565
1,-0.0229949999999999,-0.1251068,0.9918671,0.5557936,-0.02301025,-0.1232452,0.9920959,-33.71062,-6.2146300000000005,-21.36705,3.5529940000000004,0.5615938,0.7353569000000001,0.6703528,-0.02268982,-0.1493225,0.9885254,34.54292,-4.468323000000001,-22.3614,3.2285310000000003,0.4398748999999999,0.694246,-0.4378925,1.0932959999999998,-0.1340264,0.01168787,0.7267929,-0.04656922,11.15532,58.29408,33.039015904572565
1,-0.01116943,-0.1024323,0.9946747,0.8509471,-0.01116943,-0.1024323,0.9946747,-33.72768,-6.143173,-21.48581,3.523453,0.5603117,0.7307128,0.893789,-0.01177979,-0.1128998,0.9935303,34.486470000000004,-4.365417,-21.64981,3.331238,0.4402521,0.6773245,-0.4386215,1.091539,-0.1333216,0.01907854,0.721144,-0.04701894,11.15532,58.29408,33.039015904572565
1,-0.01116943,-0.1024323,0.9946747,0.8509471,-0.01116943,-0.1024323,0.9946747,-33.72768,-6.143173,-21.48581,3.523453,0.5603117,0.7307128,0.893789,-0.01177979,-0.1128998,0.9935303,34.486470000000004,-4.365417,-21.64981,3.331238,0.4402521,0.6773245,-0.4386215,1.091539,-0.1333216,0.01907854,0.721144,-0.04701894,11.15532,58.29408,33.039015904572565
1,-0.01116943,-0.1024323,0.9946747,0.8509471,-0.01116943,-0.1024323,0.9946747,-33.72768,-6.143173,-21.48581,3.523453,0.5603117,0.7307128,0.893789,-0.01177979,-0.1128998,0.9935303,34.486470000000004,-4.365417,-21.64981,3.331238,0.4402521,0.6773245,-0.4386215,1.091539,-0.1333216,0.01907854,0.721144,-0.04701894,11.15532,58.29408,33.039015904572565
1,-0.01144409,-0.1018218999999999,0.9947205,0.9291349,-0.01144409,-0.1018982,0.9947205,-33.73973,-6.149948,-21.47397,3.51561,0.5607340000000001,0.7307128,0.9574718,-0.01321411,-0.08267212,0.9964752,34.460770000000004,-4.227203,-22.57373,3.4107510000000003,0.4411317,0.6770851,-0.4399344,1.090477,-0.1330637,0.02460073,0.717622,-0.04825068,11.15532,28.79207,33.039015904572565
1,-0.01144409,-0.1018218999999999,0.9947205,0.9291349,-0.01144409,-0.1018982,0.9947205,-33.73973,-6.149948,-21.47397,3.51561,0.5607340000000001,0.7307128,0.9574718,-0.01321411,-0.08267212,0.9964752,34.460770000000004,-4.227203,-22.57373,3.4107510000000003,0.4411317,0.6770851,-0.4399344,1.090477,-0.1330637,0.02460073,0.717622,-0.04825068,11.15532,28.79207,33.039015904572565
1,-0.01144409,-0.1018218999999999,0.9947205,0.9291349,-0.01144409,-0.1018982,0.9947205,-33.73973,-6.149948,-21.47397,3.51561,0.5607340000000001,0.7307128,0.9574718,-0.01321411,-0.08267212,0.9964752,34.460770000000004,-4.227203,-22.57373,3.4107510000000003,0.4411317,0.6770851,-0.4399344,1.090477,-0.1330637,0.02460073,0.717622,-0.04825068,11.15532,28.79207,33.039015904572565
1,-0.01725769,-0.09138489,0.9956511999999998,1.0,-0.0171050999999999,-0.09147644,0.9956511999999998,-33.79137,-6.140793,-21.43965,3.5137629999999995,0.5632709,0.728299,1.0,-0.02851868,-0.0843811,0.9960175,34.389540000000004,-4.026749,-22.70711,3.349106,0.4460279,0.6721483,-0.4417608,1.090219,-0.1334659,0.02779895,0.7148644000000001,-0.04824566,11.18351,28.79207,33.039015904572565
1,-0.01725769,-0.09138489,0.9956511999999998,1.0,-0.0171050999999999,-0.09147644,0.9956511999999998,-33.79137,-6.140793,-21.43965,3.5137629999999995,0.5632709,0.728299,1.0,-0.02851868,-0.0843811,0.9960175,34.389540000000004,-4.026749,-22.70711,3.349106,0.4460279,0.6721483,-0.4417608,1.090219,-0.1334659,0.02779895,0.7148644000000001,-0.04824566,11.18351,28.79207,33.039015904572565
1,-0.01725769,-0.09138489,0.9956511999999998,1.0,-0.0171050999999999,-0.09147644,0.9956511999999998,-33.79137,-6.140793,-21.43965,3.5137629999999995,0.5632709,0.728299,1.0,-0.02851868,-0.0843811,0.9960175,34.389540000000004,-4.026749,-22.70711,3.349106,0.4460279,0.6721483,-0.4417608,1.090219,-0.1334659,0.02779895,0.7148644000000001,-0.04824566,11.18351,28.79207,33.039015904572565
1,-0.03636169,-0.09265137,0.9950256,1.0,-0.03822327,-0.09701538,0.9945374,-33.83936,-6.095688,-21.3907,3.516861,0.5681687,0.7273261999999999,1.0,-0.03289795,-0.08459473,0.9958649,34.29295,-3.964508,-22.54652,3.3690800000000003,0.4499957999999999,0.6685392,-0.4441411,1.0903969999999998,-0.1344267999999999,0.02713904,0.7137232,-0.04822882,11.18351,28.79207,33.039015904572565
1,-0.03636169,-0.09265137,0.9950256,1.0,-0.03822327,-0.09701538,0.9945374,-33.83936,-6.095688,-21.3907,3.516861,0.5681687,0.7273261999999999,1.0,-0.03289795,-0.08459473,0.9958649,34.29295,-3.964508,-22.54652,3.3690800000000003,0.4499957999999999,0.6685392,-0.4441411,1.0903969999999998,-0.1344267999999999,0.02713904,0.7137232,-0.04822882,11.18351,28.79207,33.039015904572565
1,-0.03636169,-0.09265137,0.9950256,1.0,-0.03822327,-0.09701538,0.9945374,-33.83936,-6.095688,-21.3907,3.516861,0.5681687,0.7273261999999999,1.0,-0.03289795,-0.08459473,0.9958649,34.29295,-3.964508,-22.54652,3.3690800000000003,0.4499957999999999,0.6685392,-0.4441411,1.0903969999999998,-0.1344267999999999,0.02713904,0.7137232,-0.04822882,11.18351,28.79207,33.039015904572565
1,-0.02934265,-0.08337402,0.9960785,1.0,-0.03134155,-0.08877563,0.9955444,-34.03099,-5.9263,-21.48415,3.5727839999999995,0.5732933000000001,0.7215178000000001,1.0,-0.02813721,-0.0801239,0.9963837,34.23615,-3.936172,-22.5506,3.451859,0.4510893,0.6669414,-0.4496210999999999,1.091418,-0.1377309,0.02194348,0.7161443000000001,-0.04729874,11.18351,28.79207,33.039015904572565
1,-0.02934265,-0.08337402,0.9960785,1.0,-0.03134155,-0.08877563,0.9955444,-34.03099,-5.9263,-21.48415,3.5727839999999995,0.5732933000000001,0.7215178000000001,1.0,-0.02813721,-0.0801239,0.9963837,34.23615,-3.936172,-22.5506,3.451859,0.4510893,0.6669414,-0.4496210999999999,1.091418,-0.1377309,0.02194348,0.7161443000000001,-0.04729874,11.18351,28.79207,33.039015904572565
1,-0.02934265,-0.08337402,0.9960785,1.0,-0.03134155,-0.08877563,0.9955444,-34.03099,-5.9263,-21.48415,3.5727839999999995,0.5732933000000001,0.7215178000000001,1.0,-0.02813721,-0.0801239,0.9963837,34.23615,-3.936172,-22.5506,3.451859,0.4510893,0.6669414,-0.4496210999999999,1.091418,-0.1377309,0.02194348,0.7161443000000001,-0.04729874,11.18351,28.79207,33.039015904572565
1,-0.02961731,-0.07601929,0.9966583,1.0,-0.03323364,-0.0803833,0.9962006,-34.07669,-5.9263,-21.45427,3.617142,0.5750443000000001,0.7198423,1.0,-0.02737427,-0.07333374,0.9969177,34.21971,-3.918793,-22.59489,3.49086,0.4515071,0.6656865,-0.4523087999999999,1.09123,-0.1401033,0.02143977,0.7197312,-0.04817287,11.18351,-24.88901,33.039015904572565
1,-0.02961731,-0.07601929,0.9966583,1.0,-0.03323364,-0.0803833,0.9962006,-34.07669,-5.9263,-21.45427,3.617142,0.5750443000000001,0.7198423,1.0,-0.02737427,-0.07333374,0.9969177,34.21971,-3.918793,-22.59489,3.49086,0.4515071,0.6656865,-0.4523087999999999,1.09123,-0.1401033,0.02143977,0.7197312,-0.04817287,11.18351,-24.88901,33.039015904572565
1,-0.02961731,-0.07601929,0.9966583,1.0,-0.03323364,-0.0803833,0.9962006,-34.07669,-5.9263,-21.45427,3.617142,0.5750443000000001,0.7198423,1.0,-0.02737427,-0.07333374,0.9969177,34.21971,-3.918793,-22.59489,3.49086,0.4515071,0.6656865,-0.4523087999999999,1.09123,-0.1401033,0.02143977,0.7197312,-0.04817287,11.18351,-24.88901,33.039015904572565
1,-0.02978516,-0.07128906,0.9970093,1.0,-0.03210449,-0.07305908,0.9967957,-34.09781,-5.952438,-21.45427,3.674164,0.5755398,0.7195026999999999,1.0,-0.02729797,-0.06938171,0.9972076,34.214490000000005,-3.929535,-22.62534,3.498703,0.451661,0.6656865,-0.4549759,1.090301,-0.1427205,0.02215938,0.7253668000000001,-0.05121908,11.18351,-24.88901,33.039015904572565
1,-0.02978516,-0.07128906,0.9970093,1.0,-0.03210449,-0.07305908,0.9967957,-34.09781,-5.952438,-21.45427,3.674164,0.5755398,0.7195026999999999,1.0,-0.02729797,-0.06938171,0.9972076,34.214490000000005,-3.929535,-22.62534,3.498703,0.451661,0.6656865,-0.4549759,1.090301,-0.1427205,0.02215938,0.7253668000000001,-0.05121908,11.18351,-24.88901,33.039015904572565
1,-0.02978516,-0.07128906,0.9970093,1.0,-0.03210449,-0.07305908,0.9967957,-34.09781,-5.952438,-21.45427,3.674164,0.5755398,0.7195026999999999,1.0,-0.02729797,-0.06938171,0.9972076,34.214490000000005,-3.929535,-22.62534,3.498703,0.451661,0.6656865,-0.4549759,1.090301,-0.1427205,0.02215938,0.7253668000000001,-0.05121908,11.18351,-24.88901,33.039015904572565
1,-0.4470367,0.0511321999999999,0.8930359,1.0,-0.4555664000000001,0.05822754,0.8882751,-36.05052,-6.092499,-22.01456,4.141754,0.7107764,0.7153708000000001,1.0,-0.4046478,0.01661682,0.9143066,32.25162,-3.762329,-23.16791,3.754913,0.5803069000000001,0.6560026,-0.4549759,1.090301,-0.1427205,0.02215938,0.7253668000000001,-0.05121908,11.18351,-24.88901,33.039015904572565
1,-0.4470367,0.0511321999999999,0.8930359,1.0,-0.4555664000000001,0.05822754,0.8882751,-36.05052,-6.092499,-22.01456,4.141754,0.7107764,0.7153708000000001,1.0,-0.4046478,0.01661682,0.9143066,32.25162,-3.762329,-23.16791,3.754913,0.5803069000000001,0.6560026,-0.4549759,1.090301,-0.1427205,0.02215938,0.7253668000000001,-0.05121908,11.18351,-24.88901,33.039015904572565
1,-0.4470367,0.0511321999999999,0.8930359,1.0,-0.4555664000000001,0.05822754,0.8882751,-36.05052,-6.092499,-22.01456,4.141754,0.7107764,0.7153708000000001,1.0,-0.4046478,0.01661682,0.9143066,32.25162,-3.762329,-23.16791,3.754913,0.5803069000000001,0.6560026,-0.4549759,1.090301,-0.1427205,0.02215938,0.7253668000000001,-0.05121908,11.18351,-24.88901,33.039015904572565
1,-0.5359191999999999,0.03123474,0.8436737,1.0,-0.6047363,0.02098083,0.7961425999999999,-36.68283,-5.945663,-22.42001,3.783798,0.7613006999999999,0.7269124,1.0,-0.5326843000000001,0.03170776,0.8457030999999999,31.62367,-3.590347,-23.51106,3.813385,0.6243395,0.654722,-0.4584031,1.089089,-0.1457158999999999,0.02450119,0.7340267,-0.05583433,11.18351,-24.88901,33.039015904572565
1,-0.5359191999999999,0.03123474,0.8436737,1.0,-0.6047363,0.02098083,0.7961425999999999,-36.68283,-5.945663,-22.42001,3.783798,0.7613006999999999,0.7269124,1.0,-0.5326843000000001,0.03170776,0.8457030999999999,31.62367,-3.590347,-23.51106,3.813385,0.6243395,0.654722,-0.4584031,1.089089,-0.1457158999999999,0.02450119,0.7340267,-0.05583433,11.18351,-24.88901,33.039015904572565
1,-0.5359191999999999,0.03123474,0.8436737,1.0,-0.6047363,0.02098083,0.7961425999999999,-36.68283,-5.945663,-22.42001,3.783798,0.7613006999999999,0.7269124,1.0,-0.5326843000000001,0.03170776,0.8457030999999999,31.62367,-3.590347,-23.51106,3.813385,0.6243395,0.654722,-0.4584031,1.089089,-0.1457158999999999,0.02450119,0.7340267,-0.05583433,11.18351,-24.88901,33.039015904572565
1,-0.5633239999999999,0.03219604,0.825592,1.0,-0.6218719,0.0009765625,0.7830963000000001,-36.71011,-5.769653,-22.39255,3.715164,0.7653784,0.7249734999999999,1.0,-0.5344849,0.046875,0.8438720999999999,31.63951,-3.610321,-23.52943,3.801147,0.6242948,0.6530163,-0.4619372,1.088451,-0.1488107,0.02541614,0.7438084,-0.05653701,11.18351,-24.88901,33.039015904572565
1,-0.5633239999999999,0.03219604,0.825592,1.0,-0.6218719,0.0009765625,0.7830963000000001,-36.71011,-5.769653,-22.39255,3.715164,0.7653784,0.7249734999999999,1.0,-0.5344849,0.046875,0.8438720999999999,31.63951,-3.610321,-23.52943,3.801147,0.6242948,0.6530163,-0.4619372,1.088451,-0.1488107,0.02541614,0.7438084,-0.05653701,11.18351,-24.88901,33.039015904572565
1,-0.5633239999999999,0.03219604,0.825592,1.0,-0.6218719,0.0009765625,0.7830963000000001,-36.71011,-5.769653,-22.39255,3.715164,0.7653784,0.7249734999999999,1.0,-0.5344849,0.046875,0.8438720999999999,31.63951,-3.610321,-23.52943,3.801147,0.6242948,0.6530163,-0.4619372,1.088451,-0.1488107,0.02541614,0.7438084,-0.05653701,11.18351,-24.88901,33.039015904572565
1,-0.542984,0.01895142,0.8395081,1.0,-0.5787201,-0.0001525879,0.8155212,-36.61359,-5.833496,-22.27589,3.561829,0.7534363000000001,0.7238756,1.0,-0.4969024999999999,0.04266357,0.8667450000000001,31.84157,-3.653107,-23.40456,3.79689,0.6105851,0.6527427,-0.4710544,1.088227,-0.154381,0.0246652999999999,0.7636668000000001,-0.05438482,11.18351,-24.88901,33.039015904572565
1,-0.542984,0.01895142,0.8395081,1.0,-0.5787201,-0.0001525879,0.8155212,-36.61359,-5.833496,-22.27589,3.561829,0.7534363000000001,0.7238756,1.0,-0.4969024999999999,0.04266357,0.8667450000000001,31.84157,-3.653107,-23.40456,3.79689,0.6105851,0.6527427,-0.4710544,1.088227,-0.154381,0.0246652999999999,0.7636668000000001,-0.05438482,11.18351,-24.88901,33.039015904572565
1,-0.542984,0.01895142,0.8395081,1.0,-0.5787201,-0.0001525879,0.8155212,-36.61359,-5.833496,-22.27589,3.561829,0.7534363000000001,0.7238756,1.0,-0.4969024999999999,0.04266357,0.8667450000000001,31.84157,-3.653107,-23.40456,3.79689,0.6105851,0.6527427,-0.4710544,1.088227,-0.154381,0.0246652999999999,0.7636668000000001,-0.05438482,11.18351,-24.88901,33.039015904572565
2,-0.4989166,0.03904724,0.8657531999999999,1.0,-0.5251465,0.008544922,0.8509521000000001,-36.46024,-5.850174,-22.14999,3.642258,0.737703,0.7193940999999999,1.0,-0.4732513,0.06785583,0.8782959000000001,31.98518,-3.734009,-23.36652,3.72937,0.6017752,0.6500388,-0.4710544,1.088227,-0.154381,0.0246652999999999,0.7636668000000001,-0.05438482,11.18351,-39.04262,33.039015904572565
2,-0.4989166,0.03904724,0.8657531999999999,1.0,-0.5251465,0.008544922,0.8509521000000001,-36.46024,-5.850174,-22.14999,3.642258,0.737703,0.7193940999999999,1.0,-0.4732513,0.06785583,0.8782959000000001,31.98518,-3.734009,-23.36652,3.72937,0.6017752,0.6500388,-0.4710544,1.088227,-0.154381,0.0246652999999999,0.7636668000000001,-0.05438482,11.18351,-39.04262,33.039015904572565
2,-0.4989166,0.03904724,0.8657531999999999,1.0,-0.5251465,0.008544922,0.8509521000000001,-36.46024,-5.850174,-22.14999,3.642258,0.737703,0.7193940999999999,1.0,-0.4732513,0.06785583,0.8782959000000001,31.98518,-3.734009,-23.36652,3.72937,0.6017752,0.6500388,-0.4710544,1.088227,-0.154381,0.0246652999999999,0.7636668000000001,-0.05438482,11.18351,-39.04262,33.039015904572565
2,-0.4382172,0.05708313,0.8970336999999999,1.0,-0.4569244,0.0408783,0.8885498,-36.24304,-5.902588,-21.97159,4.060669,0.7173145000000001,0.7117230999999999,1.0,-0.4231415,0.06994629,0.9033508,32.30182,-3.759048,-23.22658,3.555649,0.5824394,0.6476748999999999,-0.4763064999999999,1.088307,-0.1566743,0.02231801,0.7728391,-0.05375579,11.18351,-39.04262,33.039015904572565
2,-0.4382172,0.05708313,0.8970336999999999,1.0,-0.4569244,0.0408783,0.8885498,-36.24304,-5.902588,-21.97159,4.060669,0.7173145000000001,0.7117230999999999,1.0,-0.4231415,0.06994629,0.9033508,32.30182,-3.759048,-23.22658,3.555649,0.5824394,0.6476748999999999,-0.4763064999999999,1.088307,-0.1566743,0.02231801,0.7728391,-0.05375579,11.18351,-39.04262,33.039015904572565
2,-0.4382172,0.05708313,0.8970336999999999,1.0,-0.4569244,0.0408783,0.8885498,-36.24304,-5.902588,-21.97159,4.060669,0.7173145000000001,0.7117230999999999,1.0,-0.4231415,0.06994629,0.9033508,32.30182,-3.759048,-23.22658,3.555649,0.5824394,0.6476748999999999,-0.4763064999999999,1.088307,-0.1566743,0.02231801,0.7728391,-0.05375579,11.18351,-39.04262,33.039015904572565
2,-0.3731079,0.03482056,0.927124,1.0,-0.3836823,0.01100159,0.9233856,-36.07448,-5.958023000000001,-21.81216,3.5658870000000005,0.6986613,0.7144037,1.0,-0.3647460999999999,0.05325317,0.9295807,32.48273,-3.85054,-23.12204,3.571899,0.5660509,0.6512422,-0.4817784,1.087959,-0.1586428999999999,0.01970784,0.7805535,-0.05321356,11.18351,-39.04262,33.039015904572565
2,-0.3731079,0.03482056,0.927124,1.0,-0.3836823,0.01100159,0.9233856,-36.07448,-5.958023000000001,-21.81216,3.5658870000000005,0.6986613,0.7144037,1.0,-0.3647460999999999,0.05325317,0.9295807,32.48273,-3.85054,-23.12204,3.571899,0.5660509,0.6512422,-0.4817784,1.087959,-0.1586428999999999,0.01970784,0.7805535,-0.05321356,11.18351,-39.04262,33.039015904572565
2,-0.3731079,0.03482056,0.927124,1.0,-0.3836823,0.01100159,0.9233856,-36.07448,-5.958023000000001,-21.81216,3.5658870000000005,0.6986613,0.7144037,1.0,-0.3647460999999999,0.05325317,0.9295807,32.48273,-3.85054,-23.12204,3.571899,0.5660509,0.6512422,-0.4817784,1.087959,-0.1586428999999999,0.01970784,0.7805535,-0.05321356,11.18351,-39.04262,33.039015904572565
2,-0.3830719,0.02131653,0.9234619,1.0,-0.4154968,-0.01864624,0.9093933,-35.92035,-6.001983999999999,-21.84033,3.377457,0.6992586,0.7216753,1.0,-0.358139,0.05114746,0.932251,32.63271,-3.869034,-23.08911,3.53447,0.5599349,0.6516827,-0.4927708999999999,1.08753,-0.1609128,0.01677057,0.7902104999999999,-0.05177127,11.18351,-39.04262,33.039015904572565
2,-0.3830719,0.02131653,0.9234619,1.0,-0.4154968,-0.01864624,0.9093933,-35.92035,-6.001983999999999,-21.84033,3.377457,0.6992586,0.7216753,1.0,-0.358139,0.05114746,0.932251,32.63271,-3.869034,-23.08911,3.53447,0.5599349,0.6516827,-0.4927708999999999,1.08753,-0.1609128,0.01677057,0.7902104999999999,-0.05177127,11.18351,-39.04262,33.039015904572565
2,-0.3830719,0.02131653,0.9234619,1.0,-0.4154968,-0.01864624,0.9093933,-35.92035,-6.001983999999999,-21.84033,3.377457,0.6992586,0.7216753,1.0,-0.358139,0.05114746,0.932251,32.63271,-3.869034,-23.08911,3.53447,0.5599349,0.6516827,-0.4927708999999999,1.08753,-0.1609128,0.01677057,0.7902104999999999,-0.05177127,11.18351,-39.04262,33.039015904572565
2,-0.3295288,0.03044128,0.9436493,1.0,-0.3284149,0.03500366,0.9438782,-35.76138,-5.87944,-21.68767,3.776596,0.6784511999999999,0.7053285,1.0,-0.3303528,0.02705383,0.9434662,32.9044,-3.873108,-22.98328,3.5276339999999995,0.5459793000000001,0.6542673999999999,-0.4979295999999999,1.087764,-0.1613712,0.01336461,0.7922744,-0.04877431,11.18351,-39.04262,33.039015904572565
2,-0.3295288,0.03044128,0.9436493,1.0,-0.3284149,0.03500366,0.9438782,-35.76138,-5.87944,-21.68767,3.776596,0.6784511999999999,0.7053285,1.0,-0.3303528,0.02705383,0.9434662,32.9044,-3.873108,-22.98328,3.5276339999999995,0.5459793000000001,0.6542673999999999,-0.4979295999999999,1.087764,-0.1613712,0.01336461,0.7922744,-0.04877431,11.18351,17.96986,33.039015904572565
2,-0.3295288,0.03044128,0.9436493,1.0,-0.3284149,0.03500366,0.9438782,-35.76138,-5.87944,-21.68767,3.776596,0.6784511999999999,0.7053285,1.0,-0.3303528,0.02705383,0.9434662,32.9044,-3.873108,-22.98328,3.5276339999999995,0.5459793000000001,0.6542673999999999,-0.4979295999999999,1.087764,-0.1613712,0.01336461,0.7922744,-0.04877431,11.18351,39.20159,33.039015904572565
2,-0.03668213,0.07899475,0.9961853,1.0,-0.04139709,0.06941223,0.9967194,-33.92015,-4.167098999999999,-23.84105,3.407867,0.5732703,0.6620680999999999,1.0,-0.03668213,0.07899475,0.9961853,34.5918,-2.938812,-23.73387,3.388809,0.4409835999999999,0.6189254,-0.4979295999999999,1.087764,-0.1613712,0.01336461,0.7922744,-0.04877431,11.18351,39.20159,33.039015904572565
2,-0.03668213,0.07899475,0.9961853,1.0,-0.04139709,0.06941223,0.9967194,-33.92015,-4.167098999999999,-23.84105,3.407867,0.5732703,0.6620680999999999,1.0,-0.03668213,0.07899475,0.9961853,34.5918,-2.938812,-23.73387,3.388809,0.4409835999999999,0.6189254,-0.4979295999999999,1.087764,-0.1613712,0.01336461,0.7922744,-0.04877431,11.18351,39.20159,33.039015904572565
2,-0.03668213,0.07899475,0.9961853,1.0,-0.04139709,0.06941223,0.9967194,-33.92015,-4.167098999999999,-23.84105,3.407867,0.5732703,0.6620680999999999,1.0,-0.03668213,0.07899475,0.9961853,34.5918,-2.938812,-23.73387,3.388809,0.4409835999999999,0.6189254,-0.4979295999999999,1.087764,-0.1613712,0.01336461,0.7922744,-0.04877431,11.18351,39.20159,33.039015904572565
2,-0.03668213,0.07899475,0.9961853,1.0,-0.04139709,0.06941223,0.9967194,-33.92015,-4.167098999999999,-23.84105,3.407867,0.5732703,0.6620680999999999,1.0,-0.03668213,0.07899475,0.9961853,34.5918,-2.938812,-23.73387,3.388809,0.4409835999999999,0.6189254,-0.5082157,1.088617,-0.1608716,0.004908684,0.790529,-0.04228939,11.18351,39.20159,33.039015904572565
2,-0.03668213,0.07899475,0.9961853,1.0,-0.04139709,0.06941223,0.9967194,-33.92015,-4.167098999999999,-23.84105,3.407867,0.5732703,0.6620680999999999,1.0,-0.03668213,0.07899475,0.9961853,34.5918,-2.938812,-23.73387,3.388809,0.4409835999999999,0.6189254,-0.5082157,1.088617,-0.1608716,0.004908684,0.790529,-0.04228939,11.18351,39.20159,33.039015904572565
2,-0.03668213,0.07899475,0.9961853,1.0,-0.04139709,0.06941223,0.9967194,-33.92015,-4.167098999999999,-23.84105,3.407867,0.5732703,0.6620680999999999,1.0,-0.03668213,0.07899475,0.9961853,34.5918,-2.938812,-23.73387,3.388809,0.4409835999999999,0.6189254,-0.5082157,1.088617,-0.1608716,0.004908684,0.790529,-0.04228939,11.18351,39.20159,33.039015904572565
2,-0.03668213,0.07899475,0.9961853,1.0,-0.04139709,0.06941223,0.9967194,-33.92015,-4.167098999999999,-23.84105,3.407867,0.5732703,0.6620680999999999,1.0,-0.03668213,0.07899475,0.9961853,34.5918,-2.938812,-23.73387,3.388809,0.4409835999999999,0.6189254,-0.5134384,1.088578,-0.159729,0.0004805913,0.7872846,-0.03914567,11.18351,39.20159,33.039015904572565
2,-0.03668213,0.07899475,0.9961853,1.0,-0.04139709,0.06941223,0.9967194,-33.92015,-4.167098999999999,-23.84105,3.407867,0.5732703,0.6620680999999999,1.0,-0.03668213,0.07899475,0.9961853,34.5918,-2.938812,-23.73387,3.388809,0.4409835999999999,0.6189254,-0.5134384,1.088578,-0.159729,0.0004805913,0.7872846,-0.03914567,11.18351,39.20159,33.039015904572565
2,-0.03668213,0.07899475,0.9961853,1.0,-0.04139709,0.06941223,0.9967194,-33.92015,-4.167098999999999,-23.84105,3.407867,0.5732703,0.6620680999999999,1.0,-0.03668213,0.07899475,0.9961853,34.5918,-2.938812,-23.73387,3.388809,0.4409835999999999,0.6189254,-0.5134384,1.088578,-0.159729,0.0004805913,0.7872846,-0.03914567,11.18351,39.20159,33.039015904572565
2,0.1387787,0.09851074,0.9853973,1.0,0.1387177,0.09849548,0.9854126,-32.37927,-5.1007690000000006,-21.85037,3.491196,0.4928563,0.6675413,1.0,0.1716918999999999,0.1078339,0.9792175,35.88684,-3.315582,-23.48996,3.376053,0.3629248,0.6242059,-0.5184761,1.089038,-0.1584946,-0.004131499,0.7819116,-0.03332822,11.18351,39.20159,33.039015904572565
2,0.1387787,0.09851074,0.9853973,1.0,0.1387177,0.09849548,0.9854126,-32.37927,-5.1007690000000006,-21.85037,3.491196,0.4928563,0.6675413,1.0,0.1716918999999999,0.1078339,0.9792175,35.88684,-3.315582,-23.48996,3.376053,0.3629248,0.6242059,-0.5184761,1.089038,-0.1584946,-0.004131499,0.7819116,-0.03332822,11.18351,39.20159,33.039015904572565
2,0.1387787,0.09851074,0.9853973,1.0,0.1387177,0.09849548,0.9854126,-32.37927,-5.1007690000000006,-21.85037,3.491196,0.4928563,0.6675413,1.0,0.1716918999999999,0.1078339,0.9792175,35.88684,-3.315582,-23.48996,3.376053,0.3629248,0.6242059,-0.5184761,1.089038,-0.1584946,-0.004131499,0.7819116,-0.03332822,11.18351,39.20159,33.039015904572565
2,0.1386719,0.09164429,0.986084,1.0,0.1373444,0.09130859,0.9862976,-32.39247,-5.0952,-21.85768,3.51355,0.4935239,0.6686211,1.0,0.1588287,0.09692383,0.9825287,35.86562,-3.303543,-23.65291,3.443741,0.365694,0.6272496999999999,-0.5231757,1.089286,-0.1569568,-0.008479275,0.7757391,-0.02837472,11.18351,39.20159,33.039015904572565
2,0.1386719,0.09164429,0.986084,1.0,0.1373444,0.09130859,0.9862976,-32.39247,-5.0952,-21.85768,3.51355,0.4935239,0.6686211,1.0,0.1588287,0.09692383,0.9825287,35.86562,-3.303543,-23.65291,3.443741,0.365694,0.6272496999999999,-0.5231757,1.089286,-0.1569568,-0.008479275,0.7757391,-0.02837472,11.18351,39.20159,33.039015904572565
2,0.1386719,0.09164429,0.986084,1.0,0.1373444,0.09130859,0.9862976,-32.39247,-5.0952,-21.85768,3.51355,0.4935239,0.6686211,1.0,0.1588287,0.09692383,0.9825287,35.86562,-3.303543,-23.65291,3.443741,0.365694,0.6272496999999999,-0.5231757,1.089286,-0.1569568,-0.008479275,0.7757391,-0.02837472,11.18351,39.20159,33.039015904572565
2,0.1156921,0.07347107,0.9905548,1.0,0.1156921,0.07348633,0.9905548,-32.50439,-5.08905,-22.09755,3.4916690000000004,0.5007128,0.6736671,1.0,0.1165313999999999,0.05526733,0.9916382,35.87189,-3.100082,-24.54138,3.22525,0.3718227,0.6359825,-0.5231757,1.089286,-0.1569568,-0.008479275,0.7757391,-0.02837472,11.18351,15.7963,34.61
2,0.1156921,0.07347107,0.9905548,1.0,0.1156921,0.07348633,0.9905548,-32.50439,-5.08905,-22.09755,3.4916690000000004,0.5007128,0.6736671,1.0,0.1165313999999999,0.05526733,0.9916382,35.87189,-3.100082,-24.54138,3.22525,0.3718227,0.6359825,-0.5231757,1.089286,-0.1569568,-0.008479275,0.7757391,-0.02837472,11.18351,15.7963,34.61
2,0.1156921,0.07347107,0.9905548,1.0,0.1156921,0.07348633,0.9905548,-32.50439,-5.08905,-22.09755,3.4916690000000004,0.5007128,0.6736671,1.0,0.1165313999999999,0.05526733,0.9916382,35.87189,-3.100082,-24.54138,3.22525,0.3718227,0.6359825,-0.5231757,1.089286,-0.1569568,-0.008479275,0.7757391,-0.02837472,11.18351,15.7963,34.61
2,0.1062622,0.07102966,0.9917908,1.0,0.1062622,0.07104492,0.9917908,-32.538470000000004,-5.072784,-22.13759,3.480835,0.5033561,0.6738914,1.0,0.1055298,0.03646851,0.9937439,35.78191,-3.143753,-24.42674,3.077408,0.3767514,0.6393154000000001,-0.5320374,1.090358,-0.1536542,-0.01931355,0.7619918000000001,-0.01669621,11.18351,15.7963,34.61
2,0.1062622,0.07102966,0.9917908,1.0,0.1062622,0.07104492,0.9917908,-32.538470000000004,-5.072784,-22.13759,3.480835,0.5033561,0.6738914,1.0,0.1055298,0.03646851,0.9937439,35.78191,-3.143753,-24.42674,3.077408,0.3767514,0.6393154000000001,-0.5320374,1.090358,-0.1536542,-0.01931355,0.7619918000000001,-0.01669621,11.18351,15.7963,34.61
2,0.1062622,0.07102966,0.9917908,1.0,0.1062622,0.07104492,0.9917908,-32.538470000000004,-5.072784,-22.13759,3.480835,0.5033561,0.6738914,1.0,0.1055298,0.03646851,0.9937439,35.78191,-3.143753,-24.42674,3.077408,0.3767514,0.6393154000000001,-0.5320374,1.090358,-0.1536542,-0.01931355,0.7619918000000001,-0.01669621,11.18351,15.7963,34.61
2,0.1003723,0.05328369,0.993515,1.0,0.1001891999999999,0.05485535,0.9934387,-32.64714,-5.002029,-22.32451,3.408707,0.5078964,0.6760961,1.0,0.1044158999999999,0.01812744,0.9943542,35.73396,-3.170013,-24.29836,3.101471,0.3786711,0.6420219,-0.5362923,1.091245,-0.1518355,-0.02422473,0.7541435000000001,-0.007207319,11.18351,15.7963,34.61
2,0.1003723,0.05328369,0.993515,1.0,0.1001891999999999,0.05485535,0.9934387,-32.64714,-5.002029,-22.32451,3.408707,0.5078964,0.6760961,1.0,0.1044158999999999,0.01812744,0.9943542,35.73396,-3.170013,-24.29836,3.101471,0.3786711,0.6420219,-0.5362923,1.091245,-0.1518355,-0.02422473,0.7541435000000001,-0.007207319,11.18351,15.7963,34.61
2,0.1003723,0.05328369,0.993515,1.0,0.1001891999999999,0.05485535,0.9934387,-32.64714,-5.002029,-22.32451,3.408707,0.5078964,0.6760961,1.0,0.1044158999999999,0.01812744,0.9943542,35.73396,-3.170013,-24.29836,3.101471,0.3786711,0.6420219,-0.5362923,1.091245,-0.1518355,-0.02422473,0.7541435000000001,-0.007207319,11.18351,15.7963,34.61
2,0.1203766,0.09306335,0.9883423,1.0,0.1203766,0.09307861,0.9883423,-32.538940000000004,-4.864502,-22.12048,3.525925,0.5010799,0.6635033,1.0,0.1171875,0.07453918,0.9902954,35.77942,-2.615845,-25.18794,3.3196260000000004,0.3744545,0.6231496999999999,-0.5362923,1.091245,-0.1518355,-0.02422473,0.7541435000000001,-0.007207319,11.18351,15.7963,34.61
2,0.1203766,0.09306335,0.9883423,1.0,0.1203766,0.09307861,0.9883423,-32.538940000000004,-4.864502,-22.12048,3.525925,0.5010799,0.6635033,1.0,0.1171875,0.07453918,0.9902954,35.77942,-2.615845,-25.18794,3.3196260000000004,0.3744545,0.6231496999999999,-0.5362923,1.091245,-0.1518355,-0.02422473,0.7541435000000001,-0.007207319,11.18351,15.7963,34.61
2,0.1203766,0.09306335,0.9883423,1.0,0.1203766,0.09307861,0.9883423,-32.538940000000004,-4.864502,-22.12048,3.525925,0.5010799,0.6635033,1.0,0.1171875,0.07453918,0.9902954,35.77942,-2.615845,-25.18794,3.3196260000000004,0.3744545,0.6231496999999999,-0.5362923,1.091245,-0.1518355,-0.02422473,0.7541435000000001,-0.007207319,11.18351,15.7963,34.61
2,0.09765625,0.07034302,0.9927216,1.0,0.09765625,0.07034302,0.9927216,-32.73662,-4.938263,-22.30377,3.523102,0.5112177999999999,0.6714055999999999,1.0,0.09536743,0.05918884,0.9936676,35.596509999999995,-2.934143,-24.64516,3.213242,0.3846355999999999,0.6307968,-0.5409871999999999,1.091987,-0.1499826,-0.03065059,0.7461024,0.003187882,11.18351,15.7963,34.61
2,0.09765625,0.07034302,0.9927216,1.0,0.09765625,0.07034302,0.9927216,-32.73662,-4.938263,-22.30377,3.523102,0.5112177999999999,0.6714055999999999,1.0,0.09536743,0.05918884,0.9936676,35.596509999999995,-2.934143,-24.64516,3.213242,0.3846355999999999,0.6307968,-0.5409871999999999,1.091987,-0.1499826,-0.03065059,0.7461024,0.003187882,11.18351,15.7963,34.61
2,0.09765625,0.07034302,0.9927216,1.0,0.09765625,0.07034302,0.9927216,-32.73662,-4.938263,-22.30377,3.523102,0.5112177999999999,0.6714055999999999,1.0,0.09536743,0.05918884,0.9936676,35.596509999999995,-2.934143,-24.64516,3.213242,0.3846355999999999,0.6307968,-0.5409871999999999,1.091987,-0.1499826,-0.03065059,0.7461024,0.003187882,11.18351,15.7963,34.61
2,0.06947327,0.04164124,0.9967041,1.0,0.06925964,0.0411376999999999,0.9967346,-32.94385,-5.005523999999999,-22.48871,3.37149,0.5225797000000001,0.6800825,1.0,0.07392883,0.05224609,0.9958801,35.38315,-3.227966,-24.177,3.313934,0.395671,0.637126,-0.5511083999999999,1.091712,-0.1471718,-0.03840222,0.7320846,0.01642402,11.18351,-39.6534,34.61
2,0.06947327,0.04164124,0.9967041,1.0,0.06925964,0.0411376999999999,0.9967346,-32.94385,-5.005523999999999,-22.48871,3.37149,0.5225797000000001,0.6800825,1.0,0.07392883,0.05224609,0.9958801,35.38315,-3.227966,-24.177,3.313934,0.395671,0.637126,-0.5511083999999999,1.091712,-0.1471718,-0.03840222,0.7320846,0.01642402,11.18351,-39.6534,34.61
2,0.06947327,0.04164124,0.9967041,1.0,0.06925964,0.0411376999999999,0.9967346,-32.94385,-5.005523999999999,-22.48871,3.37149,0.5225797000000001,0.6800825,1.0,0.07392883,0.05224609,0.9958801,35.38315,-3.227966,-24.177,3.313934,0.395671,0.637126,-0.5511083999999999,1.091712,-0.1471718,-0.03840222,0.7320846,0.01642402,11.18351,-39.6534,34.61
2,0.05514526,0.01681519,0.9983215,1.0,0.05514526,0.01679993,0.9983215,-33.15117,-5.192627,-22.35815,3.414749,0.5315284,0.6888794,1.0,0.05574036,0.02203369,0.9981995,35.1848,-3.5424800000000003,-23.5578,3.17038,0.405592,0.6463137,-0.5560527,1.090825,-0.1462808,-0.03996829,0.7264603000000001,0.01994421,11.18351,-39.6534,34.61
2,0.05514526,0.01681519,0.9983215,1.0,0.05514526,0.01679993,0.9983215,-33.15117,-5.192627,-22.35815,3.414749,0.5315284,0.6888794,1.0,0.05574036,0.02203369,0.9981995,35.1848,-3.5424800000000003,-23.5578,3.17038,0.405592,0.6463137,-0.5560527,1.090825,-0.1462808,-0.03996829,0.7264603000000001,0.01994421,11.18351,-39.6534,34.61
2,0.05514526,0.01681519,0.9983215,1.0,0.05514526,0.01679993,0.9983215,-33.15117,-5.192627,-22.35815,3.414749,0.5315284,0.6888794,1.0,0.05574036,0.02203369,0.9981995,35.1848,-3.5424800000000003,-23.5578,3.17038,0.405592,0.6463137,-0.5560527,1.090825,-0.1462808,-0.03996829,0.7264603000000001,0.01994421,11.18351,-39.6534,34.61
2,0.03509521,0.009384155,0.9993286,1.0,0.03437805,0.01161194,0.9993286,-33.34587,-5.343704,-22.16638,3.480148,0.5410861,0.6927285,1.0,0.03715515,0.0030059809999999,0.9992981,34.99266,-3.632599,-23.37257,3.205231,0.4151474,0.6506984,-0.5608634,1.090058,-0.1457867,-0.04125128,0.7218545,0.0237404,11.18351,-39.6534,34.61
2,0.03509521,0.009384155,0.9993286,1.0,0.03437805,0.01161194,0.9993286,-33.34587,-5.343704,-22.16638,3.480148,0.5410861,0.6927285,1.0,0.03715515,0.0030059809999999,0.9992981,34.99266,-3.632599,-23.37257,3.205231,0.4151474,0.6506984,-0.5608634,1.090058,-0.1457867,-0.04125128,0.7218545,0.0237404,11.18351,-39.6534,34.61
2,0.03509521,0.009384155,0.9993286,1.0,0.03437805,0.01161194,0.9993286,-33.34587,-5.343704,-22.16638,3.480148,0.5410861,0.6927285,1.0,0.03715515,0.0030059809999999,0.9992981,34.99266,-3.632599,-23.37257,3.205231,0.4151474,0.6506984,-0.5608634,1.090058,-0.1457867,-0.04125128,0.7218545,0.0237404,11.18351,-39.6534,34.61
2,0.02134705,0.005905151,0.9997406,1.0,0.02148438,0.006347656,0.9997406,-33.40413,-5.333237,-22.21072,3.440323,0.5450832,0.6937036,1.0,0.01898193,-0.002410889,0.9998016,34.841809999999995,-3.659851,-23.20793,3.1890110000000003,0.4232524,0.6508645000000001,-0.565353,1.089493,-0.1456672,-0.04231176,0.7180645999999999,0.02846831,11.18351,-39.6534,34.61
2,0.02134705,0.005905151,0.9997406,1.0,0.02148438,0.006347656,0.9997406,-33.40413,-5.333237,-22.21072,3.440323,0.5450832,0.6937036,1.0,0.01898193,-0.002410889,0.9998016,34.841809999999995,-3.659851,-23.20793,3.1890110000000003,0.4232524,0.6508645000000001,-0.565353,1.089493,-0.1456672,-0.04231176,0.7180645999999999,0.02846831,11.18351,-39.6534,34.61
2,0.02134705,0.005905151,0.9997406,1.0,0.02148438,0.006347656,0.9997406,-33.40413,-5.333237,-22.21072,3.440323,0.5450832,0.6937036,1.0,0.01898193,-0.002410889,0.9998016,34.841809999999995,-3.659851,-23.20793,3.1890110000000003,0.4232524,0.6508645000000001,-0.565353,1.089493,-0.1456672,-0.04231176,0.7180645999999999,0.02846831,11.18351,-39.6534,34.61
2,0.01841736,-0.005203247,0.9998016,1.0,0.01599121,0.0034484859999999,0.9998627,-33.47899,-5.344238,-22.19293,3.434158,0.5483754,0.6943619000000001,1.0,0.02331543,-0.02267456,0.9994659,34.73474,-3.622467,-23.31029,3.117905,0.4259969,0.6540965,-0.5697246,1.088632,-0.1458404999999999,-0.04424001,0.7151641,0.03296487,11.18351,-39.6534,34.61
2,0.01841736,-0.005203247,0.9998016,1.0,0.01599121,0.0034484859999999,0.9998627,-33.47899,-5.344238,-22.19293,3.434158,0.5483754,0.6943619000000001,1.0,0.02331543,-0.02267456,0.9994659,34.73474,-3.622467,-23.31029,3.117905,0.4259969,0.6540965,-0.5697246,1.088632,-0.1458404999999999,-0.04424001,0.7151641,0.03296487,11.18351,-39.6534,34.61
2,0.01841736,-0.005203247,0.9998016,1.0,0.01599121,0.0034484859999999,0.9998627,-33.47899,-5.344238,-22.19293,3.434158,0.5483754,0.6943619000000001,1.0,0.02331543,-0.02267456,0.9994659,34.73474,-3.622467,-23.31029,3.117905,0.4259969,0.6540965,-0.5697246,1.088632,-0.1458404999999999,-0.04424001,0.7151641,0.03296487,11.18351,-39.6534,34.61
2,0.01144409,-0.008865356,0.9998932,1.0,0.01057434,-0.002853394,0.999939,-33.526720000000005,-5.348694,-22.19492,3.410263,0.5507951999999999,0.6955736,1.0,0.01319885,-0.02090454,0.9996796,34.70667,-3.676926,-23.1701,3.123383,0.4286672,0.6541811,-0.5740126,1.087237,-0.1461164999999999,-0.04530618,0.7126389,0.03626228,11.18351,-91.94331,34.61
2,0.01144409,-0.008865356,0.9998932,1.0,0.01057434,-0.002853394,0.999939,-33.526720000000005,-5.348694,-22.19492,3.410263,0.5507951999999999,0.6955736,1.0,0.01319885,-0.02090454,0.9996796,34.70667,-3.676926,-23.1701,3.123383,0.4286672,0.6541811,-0.5740126,1.087237,-0.1461164999999999,-0.04530618,0.7126389,0.03626228,11.18351,-91.94331,34.61
2,0.01144409,-0.008865356,0.9998932,1.0,0.01057434,-0.002853394,0.999939,-33.526720000000005,-5.348694,-22.19492,3.410263,0.5507951999999999,0.6955736,1.0,0.01319885,-0.02090454,0.9996796,34.70667,-3.676926,-23.1701,3.123383,0.4286672,0.6541811,-0.5740126,1.087237,-0.1461164999999999,-0.04530618,0.7126389,0.03626228,11.18351,-91.94331,34.61
2,1.525879e-05,-0.0236969,0.9997101,1.0,-0.01489258,-0.0292510999999999,0.9994507,-33.71248,-5.529968,-22.01006,3.543427,0.5607968000000001,0.7041163,1.0,0.01123047,-0.01953125,0.9997406,34.65916,-3.70343,-23.22273,3.141403,0.4305415,0.6553751999999999,-0.5781086,1.085658,-0.1465624,-0.04731095,0.7104816999999999,0.03935637,11.18351,-91.94331,34.61
2,1.525879e-05,-0.0236969,0.9997101,1.0,-0.01489258,-0.0292510999999999,0.9994507,-33.71248,-5.529968,-22.01006,3.543427,0.5607968000000001,0.7041163,1.0,0.01123047,-0.01953125,0.9997406,34.65916,-3.70343,-23.22273,3.141403,0.4305415,0.6553751999999999,-0.5781086,1.085658,-0.1465624,-0.04731095,0.7104816999999999,0.03935637,11.18351,-91.94331,34.61
2,1.525879e-05,-0.0236969,0.9997101,1.0,-0.01489258,-0.0292510999999999,0.9994507,-33.71248,-5.529968,-22.01006,3.543427,0.5607968000000001,0.7041163,1.0,0.01123047,-0.01953125,0.9997406,34.65916,-3.70343,-23.22273,3.141403,0.4305415,0.6553751999999999,-0.5781086,1.085658,-0.1465624,-0.04731095,0.7104816999999999,0.03935637,11.18351,-91.94331,34.61
2,0.001495361,-0.02842712,0.999588,1.0,-0.01651001,-0.02868652,0.9994507,-33.74446,-5.529831,-22.03334,3.509323,0.5621024,0.7042359,1.0,0.008758545,-0.02832031,0.9995575,34.61488,-3.708679,-23.1701,3.121017,0.4324235999999999,0.6565134,-0.5818506999999999,1.08376,-0.1469965,-0.04864882,0.7088909999999999,0.04207532,11.18351,-91.94331,34.61
2,0.001495361,-0.02842712,0.999588,1.0,-0.01651001,-0.02868652,0.9994507,-33.74446,-5.529831,-22.03334,3.509323,0.5621024,0.7042359,1.0,0.008758545,-0.02832031,0.9995575,34.61488,-3.708679,-23.1701,3.121017,0.4324235999999999,0.6565134,-0.5818506999999999,1.08376,-0.1469965,-0.04864882,0.7088909999999999,0.04207532,11.18351,-91.94331,34.61
2,0.001495361,-0.02842712,0.999588,1.0,-0.01651001,-0.02868652,0.9994507,-33.74446,-5.529831,-22.03334,3.509323,0.5621024,0.7042359,1.0,0.008758545,-0.02832031,0.9995575,34.61488,-3.708679,-23.1701,3.121017,0.4324235999999999,0.6565134,-0.5818506999999999,1.08376,-0.1469965,-0.04864882,0.7088909999999999,0.04207532,11.18351,-91.94331,34.61
2,-0.0006713867,-0.02955627,0.9995575,1.0,-0.01794434,-0.02833557,0.9994354,-33.75227,-5.532166,-22.04427,3.496399,0.5625932,0.7043560999999999,1.0,0.009887695,-0.03030396,0.9994812,34.60623,-3.715897,-23.16568,3.1260830000000004,0.4325185,0.6570581999999999,-0.5818506999999999,1.08376,-0.1469965,-0.04864882,0.7088909999999999,0.04207532,11.18351,-91.94331,34.61
2,-0.0006713867,-0.02955627,0.9995575,1.0,-0.01794434,-0.02833557,0.9994354,-33.75227,-5.532166,-22.04427,3.496399,0.5625932,0.7043560999999999,1.0,0.009887695,-0.03030396,0.9994812,34.60623,-3.715897,-23.16568,3.1260830000000004,0.4325185,0.6570581999999999,-0.5818506999999999,1.08376,-0.1469965,-0.04864882,0.7088909999999999,0.04207532,11.18351,-91.94331,34.61
2,-0.0006713867,-0.02955627,0.9995575,1.0,-0.01794434,-0.02833557,0.9994354,-33.75227,-5.532166,-22.04427,3.496399,0.5625932,0.7043560999999999,1.0,0.009887695,-0.03030396,0.9994812,34.60623,-3.715897,-23.16568,3.1260830000000004,0.4325185,0.6570581999999999,-0.5818506999999999,1.08376,-0.1469965,-0.04864882,0.7088909999999999,0.04207532,11.18351,-91.94331,34.61
2,-0.0006713867,-0.02955627,0.9995575,1.0,-0.01794434,-0.02833557,0.9994354,-33.75227,-5.532166,-22.04427,3.496399,0.5625932,0.7043560999999999,1.0,0.009887695,-0.03030396,0.9994812,34.60623,-3.715897,-23.16568,3.1260830000000004,0.4325185,0.6570581999999999,-0.5880424,1.081511,-0.1476891,-0.05521216,0.7074129,0.0474231,11.18351,-91.94331,34.61
2,-0.0006713867,-0.02955627,0.9995575,1.0,-0.01794434,-0.02833557,0.9994354,-33.75227,-5.532166,-22.04427,3.496399,0.5625932,0.7043560999999999,1.0,0.009887695,-0.03030396,0.9994812,34.60623,-3.715897,-23.16568,3.1260830000000004,0.4325185,0.6570581999999999,-0.5880424,1.081511,-0.1476891,-0.05521216,0.7074129,0.0474231,11.18351,68.23803,34.61
2,-0.0006713867,-0.02955627,0.9995575,1.0,-0.01794434,-0.02833557,0.9994354,-33.75227,-5.532166,-22.04427,3.496399,0.5625932,0.7043560999999999,1.0,0.009887695,-0.03030396,0.9994812,34.60623,-3.715897,-23.16568,3.1260830000000004,0.4325185,0.6570581999999999,-0.5880424,1.081511,-0.1476891,-0.05521216,0.7074129,0.0474231,11.18351,75.54275,34.61
2,-0.01208496,-0.04101563,0.9990845,1.0,-0.01225281,-0.04100037,0.9990692,-33.82451,-5.5960540000000005,-22.00615,3.3742980000000005,0.5639695,0.7080482,1.0,0.0020294189999999,-0.04231262,0.9990997,34.46591,-3.938065,-22.61871,3.099014,0.4385902,0.6608684,-0.5907668,1.080242,-0.1476676,-0.05621905,0.7069239,0.04935975,11.18351,75.54275,34.61
2,-0.01208496,-0.04101563,0.9990845,1.0,-0.01225281,-0.04100037,0.9990692,-33.82451,-5.5960540000000005,-22.00615,3.3742980000000005,0.5639695,0.7080482,1.0,0.0020294189999999,-0.04231262,0.9990997,34.46591,-3.938065,-22.61871,3.099014,0.4385902,0.6608684,-0.5907668,1.080242,-0.1476676,-0.05621905,0.7069239,0.04935975,11.18351,75.54275,34.61
2,-0.01208496,-0.04101563,0.9990845,1.0,-0.01225281,-0.04100037,0.9990692,-33.82451,-5.5960540000000005,-22.00615,3.3742980000000005,0.5639695,0.7080482,1.0,0.0020294189999999,-0.04231262,0.9990997,34.46591,-3.938065,-22.61871,3.099014,0.4385902,0.6608684,-0.5907668,1.080242,-0.1476676,-0.05621905,0.7069239,0.04935975,11.18351,75.54275,34.61
2,-0.01243591,-0.05377197,0.9984741,1.0,-0.01367188,-0.06047058,0.9980621,-33.87032,-5.702972,-21.86839,3.228729,0.5655648,0.7132351,1.0,-0.0110321,-0.04623413,0.9988556,34.4449,-4.009888,-22.54398,3.106339,0.4414545999999999,0.6631661999999999,-0.5932104,1.078752,-0.1472882999999999,-0.05685463,0.7061066,0.05030482,11.18351,75.54275,34.61
2,-0.01243591,-0.05377197,0.9984741,1.0,-0.01367188,-0.06047058,0.9980621,-33.87032,-5.702972,-21.86839,3.228729,0.5655648,0.7132351,1.0,-0.0110321,-0.04623413,0.9988556,34.4449,-4.009888,-22.54398,3.106339,0.4414545999999999,0.6631661999999999,-0.5932104,1.078752,-0.1472882999999999,-0.05685463,0.7061066,0.05030482,11.18351,75.54275,34.61
2,-0.01243591,-0.05377197,0.9984741,1.0,-0.01367188,-0.06047058,0.9980621,-33.87032,-5.702972,-21.86839,3.228729,0.5655648,0.7132351,1.0,-0.0110321,-0.04623413,0.9988556,34.4449,-4.009888,-22.54398,3.106339,0.4414545999999999,0.6631661999999999,-0.5932104,1.078752,-0.1472882999999999,-0.05685463,0.7061066,0.05030482,11.18351,75.54275,34.61
2,-0.01411438,-0.05632019,0.9983063,1.0,-0.01478577,-0.04559326,0.9988403,-33.87032,-5.90683,-21.65176,3.158905,0.5655648,0.7149788,1.0,-0.01396179,-0.0587616,0.9981689,34.4449,-4.106476,-22.51732,3.134506,0.4418977,0.6682431,-0.5955674,1.077603,-0.1465489,-0.05706529,0.7046306999999999,0.05123108,11.18351,75.54275,34.61
2,-0.01411438,-0.05632019,0.9983063,1.0,-0.01478577,-0.04559326,0.9988403,-33.87032,-5.90683,-21.65176,3.158905,0.5655648,0.7149788,1.0,-0.01396179,-0.0587616,0.9981689,34.4449,-4.106476,-22.51732,3.134506,0.4418977,0.6682431,-0.5955674,1.077603,-0.1465489,-0.05706529,0.7046306999999999,0.05123108,11.18351,75.54275,34.61
2,-0.01411438,-0.05632019,0.9983063,1.0,-0.01478577,-0.04559326,0.9988403,-33.87032,-5.90683,-21.65176,3.158905,0.5655648,0.7149788,1.0,-0.01396179,-0.0587616,0.9981689,34.4449,-4.106476,-22.51732,3.134506,0.4418977,0.6682431,-0.5955674,1.077603,-0.1465489,-0.05706529,0.7046306999999999,0.05123108,11.18351,75.54275,34.61
2,-0.0006866455,-0.06758118,0.9977112,1.0,0.002624512,-0.06507874,0.9978638,-33.87558,-5.914825,-21.60396,3.092163,0.5628595999999999,0.7178934,1.0,-0.001251221,-0.06800842,0.9976807,34.4687,-4.086533,-22.47342,3.011475,0.439026,0.6686045999999999,-0.5979739000000001,1.076569,-0.1456331,-0.0565841,0.7028781999999999,0.05200246,11.18351,75.54275,34.61
2,-0.0006866455,-0.06758118,0.9977112,1.0,0.002624512,-0.06507874,0.9978638,-33.87558,-5.914825,-21.60396,3.092163,0.5628595999999999,0.7178934,1.0,-0.001251221,-0.06800842,0.9976807,34.4687,-4.086533,-22.47342,3.011475,0.439026,0.6686045999999999,-0.5979739000000001,1.076569,-0.1456331,-0.0565841,0.7028781999999999,0.05200246,11.18351,75.54275,34.61
2,-0.0006866455,-0.06758118,0.9977112,1.0,0.002624512,-0.06507874,0.9978638,-33.87558,-5.914825,-21.60396,3.092163,0.5628595999999999,0.7178934,1.0,-0.001251221,-0.06800842,0.9976807,34.4687,-4.086533,-22.47342,3.011475,0.439026,0.6686045999999999,-0.5979739000000001,1.076569,-0.1456331,-0.0565841,0.7028781999999999,0.05200246,11.18351,75.54275,34.61
3,-1.0,-1.0,-1.0,0.0,0.0,0.0,0.0,-33.89209,-5.4879,-22.25534,-1.0,0.5636953,0.710943,0.1188341,0.0,0.0,0.0,34.15117,-4.928162,-22.95085,-1.0,0.4608912,0.7283812,-0.6002873000000001,1.075997,-0.1444582,-0.05606324,0.7010757,0.05323483,11.18351,75.54275,34.61
3,-1.0,-1.0,-1.0,0.0,0.0,0.0,0.0,-33.89209,-5.4879,-22.25534,-1.0,0.5636953,0.710943,0.1188341,0.0,0.0,0.0,34.15117,-4.928162,-22.95085,-1.0,0.4608912,0.7283812,-0.6002873000000001,1.075997,-0.1444582,-0.05606324,0.7010757,0.05323483,11.18351,75.54275,34.61
3,-1.0,-1.0,-1.0,0.0,0.0,0.0,0.0,-33.89209,-5.4879,-22.25534,-1.0,0.5636953,0.710943,0.1188341,0.0,0.0,0.0,34.15117,-4.928162,-22.95085,-1.0,0.4608912,0.7283812,-0.6002873000000001,1.075997,-0.1444582,-0.05606324,0.7010757,0.05323483,11.18351,75.54275,34.61
3,-1.0,-1.0,-1.0,0.0,0.0,0.0,0.0,-32.8933,-7.657715,-22.38451,-1.0,0.5061377,0.8421245,0.0,0.0,0.0,0.0,34.15117,-4.928162,-22.95085,-1.0,-1.0,-1.0,-0.602466,1.076386,-0.1435051,-0.05640903,0.6993816999999999,0.05471243,11.18351,52.68181,34.61
3,-1.0,-1.0,-1.0,0.0,0.0,0.0,0.0,-32.8933,-7.657715,-22.38451,-1.0,0.5061377,0.8421245,0.0,0.0,0.0,0.0,34.15117,-4.928162,-22.95085,-1.0,-1.0,-1.0,-0.602466,1.076386,-0.1435051,-0.05640903,0.6993816999999999,0.05471243,11.18351,52.68181,34.61
3,-1.0,-1.0,-1.0,0.0,0.0,0.0,0.0,-32.8933,-7.657715,-22.38451,-1.0,0.5061377,0.8421245,0.0,0.0,0.0,0.0,34.15117,-4.928162,-22.95085,-1.0,-1.0,-1.0,-0.602466,1.076386,-0.1435051,-0.05640903,0.6993816999999999,0.05471243,11.18351,52.68181,34.61
3,-1.0,-1.0,-1.0,0.0,0.0,0.0,0.0,-32.66246,-6.757935000000001,-22.08711,-1.0,0.4916816,0.7773699000000001,0.0,0.0,0.0,0.0,34.15117,-4.928162,-22.95085,-1.0,-1.0,-1.0,-0.6045704000000001,1.077412,-0.1423727,-0.05829276,0.6976895000000001,0.05713321,11.18351,52.68181,34.61
3,-1.0,-1.0,-1.0,0.0,0.0,0.0,0.0,-32.66246,-6.757935000000001,-22.08711,-1.0,0.4916816,0.7773699000000001,0.0,0.0,0.0,0.0,34.15117,-4.928162,-22.95085,-1.0,-1.0,-1.0,-0.6045704000000001,1.077412,-0.1423727,-0.05829276,0.6976895000000001,0.05713321,11.18351,52.68181,34.61
3,-1.0,-1.0,-1.0,0.0,0.0,0.0,0.0,-32.66246,-6.757935000000001,-22.08711,-1.0,0.4916816,0.7773699000000001,0.0,0.0,0.0,0.0,34.15117,-4.928162,-22.95085,-1.0,-1.0,-1.0,-0.6045704000000001,1.077412,-0.1423727,-0.05829276,0.6976895000000001,0.05713321,11.18351,52.68181,34.61
3,-1.0,-1.0,-1.0,0.0,0.0,0.0,0.0,-33.7706,-5.938751,-21.81767,-1.0,0.5607633000000001,0.7208832,0.2435752,0.0,0.0,0.0,33.6282,-4.551346,-22.92657,-1.0,0.4947697,0.7032162,-0.6065108,1.0790030000000002,-0.1410988,-0.06197404,0.6948793000000001,0.06208443,11.18351,52.68181,34.61
3,-1.0,-1.0,-1.0,0.0,0.0,0.0,0.0,-33.7706,-5.938751,-21.81767,-1.0,0.5607633000000001,0.7208832,0.2435752,0.0,0.0,0.0,33.6282,-4.551346,-22.92657,-1.0,0.4947697,0.7032162,-0.6065108,1.0790030000000002,-0.1410988,-0.06197404,0.6948793000000001,0.06208443,11.18351,52.68181,34.61
3,-1.0,-1.0,-1.0,0.0,0.0,0.0,0.0,-33.7706,-5.938751,-21.81767,-1.0,0.5607633000000001,0.7208832,0.2435752,0.0,0.0,0.0,33.6282,-4.551346,-22.92657,-1.0,0.4947697,0.7032162,-0.6065108,1.0790030000000002,-0.1410988,-0.06197404,0.6948793000000001,0.06208443,11.18351,52.68181,34.61
3,-1.0,-1.0,-1.0,0.6370769000000001,0.0,0.0,0.0,-33.71552,-5.392532,-22.15791,-1.0,0.5593289,0.7073605,0.5738071,0.0,0.0,0.0,34.648270000000004,-4.079391,-22.77797,-1.0,0.4295463,0.6702300999999999,-0.6081966999999999,1.080734,-0.1396894,-0.06629435,0.6917591,0.06797141,11.18351,52.68181,34.61
3,-1.0,-1.0,-1.0,0.6370769000000001,0.0,0.0,0.0,-33.71552,-5.392532,-22.15791,-1.0,0.5593289,0.7073605,0.5738071,0.0,0.0,0.0,34.648270000000004,-4.079391,-22.77797,-1.0,0.4295463,0.6702300999999999,-0.6081966999999999,1.080734,-0.1396894,-0.06629435,0.6917591,0.06797141,11.18351,52.68181,34.61
3,-1.0,-1.0,-1.0,0.6370769000000001,0.0,0.0,0.0,-33.71552,-5.392532,-22.15791,-1.0,0.5593289,0.7073605,0.5738071,0.0,0.0,0.0,34.648270000000004,-4.079391,-22.77797,-1.0,0.4295463,0.6702300999999999,-0.6081966999999999,1.080734,-0.1396894,-0.06629435,0.6917591,0.06797141,11.18351,52.68181,34.61
3,-0.02851868,-0.1100616,0.993515,0.7775223000000001,-0.002380371,-0.08381653,0.9964752,-33.80559,-6.001831,-21.47144,3.097198,0.5613741999999999,0.7225848000000001,0.7985804,-0.02851868,-0.1100616,0.9934998,34.53658,-4.048431,-22.50967,2.9675290000000003,0.4412279999999999,0.6750063000000001,-0.6095731,1.082374,-0.1381493999999999,-0.07048528,0.6882364000000001,0.07337691,11.18351,52.68181,34.61
3,-0.02851868,-0.1100616,0.993515,0.7775223000000001,-0.002380371,-0.08381653,0.9964752,-33.80559,-6.001831,-21.47144,3.097198,0.5613741999999999,0.7225848000000001,0.7985804,-0.02851868,-0.1100616,0.9934998,34.53658,-4.048431,-22.50967,2.9675290000000003,0.4412279999999999,0.6750063000000001,-0.6095731,1.082374,-0.1381493999999999,-0.07048528,0.6882364000000001,0.07337691,11.18351,52.68181,34.61
3,-0.02851868,-0.1100616,0.993515,0.7775223000000001,-0.002380371,-0.08381653,0.9964752,-33.80559,-6.001831,-21.47144,3.097198,0.5613741999999999,0.7225848000000001,0.7985804,-0.02851868,-0.1100616,0.9934998,34.53658,-4.048431,-22.50967,2.9675290000000003,0.4412279999999999,0.6750063000000001,-0.6095731,1.082374,-0.1381493999999999,-0.07048528,0.6882364000000001,0.07337691,11.18351,52.68181,34.61
3,-0.008728027,-0.1087952,0.9940186,0.8818098,-0.01809692,-0.12883,0.9914856,-33.89308,-6.147629,-21.36853,3.226273,0.5666445999999999,0.7339418000000001,0.8952846999999999,-0.006454468,-0.1039581,0.9945526,34.45898,-4.234818,-22.37285,2.918045,0.4401433,0.6785845,-0.6105573000000001,1.08387,-0.1364848,-0.07377163,0.6845068,0.0780151,11.2117,-8.470268,34.61
3,-0.008728027,-0.1087952,0.9940186,0.8818098,-0.01809692,-0.12883,0.9914856,-33.89308,-6.147629,-21.36853,3.226273,0.5666445999999999,0.7339418000000001,0.8952846999999999,-0.006454468,-0.1039581,0.9945526,34.45898,-4.234818,-22.37285,2.918045,0.4401433,0.6785845,-0.6105573000000001,1.08387,-0.1364848,-0.07377163,0.6845068,0.0780151,11.2117,-8.470268,34.61
3,-0.008728027,-0.1087952,0.9940186,0.8818098,-0.01809692,-0.12883,0.9914856,-33.89308,-6.147629,-21.36853,3.226273,0.5666445999999999,0.7339418000000001,0.8952846999999999,-0.006454468,-0.1039581,0.9945526,34.45898,-4.234818,-22.37285,2.918045,0.4401433,0.6785845,-0.6105573000000001,1.08387,-0.1364848,-0.07377163,0.6845068,0.0780151,11.2117,-8.470268,34.61
3,-0.003494263,-0.1154633,0.9933014,0.9010846,-0.01727295,-0.1229706,0.9922485,-33.89975,-6.200821,-21.33463,3.228302,0.566697,0.7342998000000001,0.910312,-0.0034484859999999,-0.1154327,0.9933014,34.42177,-4.314712999999999,-22.4668,3.022339,0.4407847,0.6842421999999999,-0.6110473000000001,1.08492,-0.13497,-0.07555108,0.6807544,0.08106563,11.2117,-8.470268,34.61
3,-0.003494263,-0.1154633,0.9933014,0.9010846,-0.01727295,-0.1229706,0.9922485,-33.89975,-6.200821,-21.33463,3.228302,0.566697,0.7342998000000001,0.910312,-0.0034484859999999,-0.1154327,0.9933014,34.42177,-4.314712999999999,-22.4668,3.022339,0.4407847,0.6842421999999999,-0.6110473000000001,1.08492,-0.13497,-0.07555108,0.6807544,0.08106563,11.2117,-8.470268,34.61
3,-0.003494263,-0.1154633,0.9933014,0.9010846,-0.01727295,-0.1229706,0.9922485,-33.89975,-6.200821,-21.33463,3.228302,0.566697,0.7342998000000001,0.910312,-0.0034484859999999,-0.1154327,0.9933014,34.42177,-4.314712999999999,-22.4668,3.022339,0.4407847,0.6842421999999999,-0.6110473000000001,1.08492,-0.13497,-0.07555108,0.6807544,0.08106563,11.2117,-8.470268,34.61
3,-0.02061462,-0.1213530999999999,0.9923859,0.9323437,-0.02742004,-0.1219635,0.9921417,-33.94695,-6.350479,-21.08824,3.21431,0.5696391,0.7363371,0.9256244,-0.01382446,-0.1207275,0.9925842,34.348890000000004,-4.507308999999999,-22.16615,3.060135,0.4449305,0.6884366,-0.6103206,1.086333,-0.1324441,-0.07849729,0.674623,0.0839258999999999,11.2117,-8.470268,34.61
3,-0.02061462,-0.1213530999999999,0.9923859,0.9323437,-0.02742004,-0.1219635,0.9921417,-33.94695,-6.350479,-21.08824,3.21431,0.5696391,0.7363371,0.9256244,-0.01382446,-0.1207275,0.9925842,34.348890000000004,-4.507308999999999,-22.16615,3.060135,0.4449305,0.6884366,-0.6103206,1.086333,-0.1324441,-0.07849729,0.674623,0.0839258999999999,11.2117,-8.470268,34.61
3,-0.02061462,-0.1213530999999999,0.9923859,0.9323437,-0.02742004,-0.1219635,0.9921417,-33.94695,-6.350479,-21.08824,3.21431,0.5696391,0.7363371,0.9256244,-0.01382446,-0.1207275,0.9925842,34.348890000000004,-4.507308999999999,-22.16615,3.060135,0.4449305,0.6884366,-0.6103206,1.086333,-0.1324441,-0.07849729,0.674623,0.0839258999999999,11.2117,-8.470268,34.61
3,-0.02340698,-0.1209412,0.9923706,0.9401504,-0.02755737,-0.1170958999999999,0.9927368,-33.95844,-6.428726,-21.0694,3.192078,0.5700083,0.7378132,0.9450123,-0.008010864,-0.1351776,0.9907837,34.3251,-4.522797,-22.13504,3.095825,0.4447327999999999,0.6911390000000001,-0.6103206,1.086333,-0.1324441,-0.07849729,0.674623,0.0839258999999999,11.2117,-8.470268,34.61
3,-0.02340698,-0.1209412,0.9923706,0.9401504,-0.02755737,-0.1170958999999999,0.9927368,-33.95844,-6.428726,-21.0694,3.192078,0.5700083,0.7378132,0.9450123,-0.008010864,-0.1351776,0.9907837,34.3251,-4.522797,-22.13504,3.095825,0.4447327999999999,0.6911390000000001,-0.6103206,1.086333,-0.1324441,-0.07849729,0.674623,0.0839258999999999,11.2117,-8.470268,34.61
3,-0.02340698,-0.1209412,0.9923706,0.9401504,-0.02755737,-0.1170958999999999,0.9927368,-33.95844,-6.428726,-21.0694,3.192078,0.5700083,0.7378132,0.9450123,-0.008010864,-0.1351776,0.9907837,34.3251,-4.522797,-22.13504,3.095825,0.4447327999999999,0.6911390000000001,-0.6103206,1.086333,-0.1324441,-0.07849729,0.674623,0.0839258999999999,11.2117,-8.470268,34.61
3,-0.03329468,-0.1768036,0.9836731,0.8006226,-0.036026,-0.1887207,0.981369,-34.11885,-6.445724,-21.37335,3.087799,0.5768675,0.7541,0.8602216999999999,-0.03120422,-0.1676025,0.9853516,34.34427,-4.422821,-22.54715,3.161209,0.4477677,0.6978901999999999,-0.6093369000000001,1.086523,-0.1312504,-0.07768181,0.6718244999999999,0.08448589,11.2117,-8.470268,34.61
3,-0.03329468,-0.1768036,0.9836731,0.8006226,-0.036026,-0.1887207,0.981369,-34.11885,-6.445724,-21.37335,3.087799,0.5768675,0.7541,0.8602216999999999,-0.03120422,-0.1676025,0.9853516,34.34427,-4.422821,-22.54715,3.161209,0.4477677,0.6978901999999999,-0.6093369000000001,1.086523,-0.1312504,-0.07768181,0.6718244999999999,0.08448589,11.2117,-8.470268,34.61
3,-0.03329468,-0.1768036,0.9836731,0.8006226,-0.036026,-0.1887207,0.981369,-34.11885,-6.445724,-21.37335,3.087799,0.5768675,0.7541,0.8602216999999999,-0.03120422,-0.1676025,0.9853516,34.34427,-4.422821,-22.54715,3.161209,0.4477677,0.6978901999999999,-0.6093369000000001,1.086523,-0.1312504,-0.07768181,0.6718244999999999,0.08448589,11.2117,-8.470268,34.61
3,-1.0,-1.0,-1.0,0.0,0.0,0.0,0.0,-34.15585,-6.594345,-21.48599,-1.0,0.6424054,0.8223860000000001,0.2875925,0.0,0.0,0.0,34.19089,-5.052032,-22.6403,-1.0,0.524251,0.7373328,-0.6069085999999999,1.085597,-0.1295204999999999,-0.07201067,0.6684091999999999,0.08224972,11.2117,-77.68334,34.61
3,-1.0,-1.0,-1.0,0.0,0.0,0.0,0.0,-34.15585,-6.594345,-21.48599,-1.0,0.6424054,0.8223860000000001,0.2875925,0.0,0.0,0.0,34.19089,-5.052032,-22.6403,-1.0,0.524251,0.7373328,-0.6069085999999999,1.085597,-0.1295204999999999,-0.07201067,0.6684091999999999,0.08224972,11.2117,-77.68334,34.61
3,-1.0,-1.0,-1.0,0.0,0.0,0.0,0.0,-34.15585,-6.594345,-21.48599,-1.0,0.6424054,0.8223860000000001,0.2875925,0.0,0.0,0.0,34.19089,-5.052032,-22.6403,-1.0,0.524251,0.7373328,-0.6069085999999999,1.085597,-0.1295204999999999,-0.07201067,0.6684091999999999,0.08224972,11.2117,-77.68334,34.61
3,-1.0,-1.0,-1.0,0.0,0.0,0.0,0.0,-34.15585,-6.594345,-21.48599,-1.0,-1.0,-1.0,0.0,0.0,0.0,0.0,34.19089,-5.052032,-22.6403,-1.0,-1.0,-1.0,-0.6056606,1.085106,-0.1289956,-0.06962734,0.6678753000000001,0.08131903,11.2117,-77.68334,34.61
3,-1.0,-1.0,-1.0,0.0,0.0,0.0,0.0,-34.15585,-6.594345,-21.48599,-1.0,-1.0,-1.0,0.0,0.0,0.0,0.0,34.19089,-5.052032,-22.6403,-1.0,-1.0,-1.0,-0.6056606,1.085106,-0.1289956,-0.06962734,0.6678753000000001,0.08131903,11.2117,-77.68334,34.61
3,-1.0,-1.0,-1.0,0.0,0.0,0.0,0.0,-34.15585,-6.594345,-21.48599,-1.0,-1.0,-1.0,0.0,0.0,0.0,0.0,34.19089,-5.052032,-22.6403,-1.0,-1.0,-1.0,-0.6056606,1.085106,-0.1289956,-0.06962734,0.6678753000000001,0.08131903,11.2117,-77.68334,34.61
3,-1.0,-1.0,-1.0,0.0,0.0,0.0,0.0,-34.15585,-6.594345,-21.48599,-1.0,-1.0,-1.0,0.1301591,0.0,0.0,0.0,34.19089,-5.052032,-22.6403,-1.0,-1.0,-1.0,-0.6046484999999999,1.084929,-0.128532,-0.06834619,0.6678857,0.0811583999999999,11.2117,-77.68334,34.61
3,-1.0,-1.0,-1.0,0.0,0.0,0.0,0.0,-34.15585,-6.594345,-21.48599,-1.0,-1.0,-1.0,0.1301591,0.0,0.0,0.0,34.19089,-5.052032,-22.6403,-1.0,-1.0,-1.0,-0.6046484999999999,1.084929,-0.128532,-0.06834619,0.6678857,0.0811583999999999,11.2117,-77.68334,34.61
3,-1.0,-1.0,-1.0,0.0,0.0,0.0,0.0,-34.15585,-6.594345,-21.48599,-1.0,-1.0,-1.0,0.1301591,0.0,0.0,0.0,34.19089,-5.052032,-22.6403,-1.0,-1.0,-1.0,-0.6046484999999999,1.084929,-0.128532,-0.06834619,0.6678857,0.0811583999999999,11.2117,-77.68334,34.61
3,-1.0,-1.0,-1.0,0.0,0.0,0.0,0.0,-34.99091,-6.641891,-21.61589,-1.0,0.6345953000000001,0.7630887,0.2932094999999999,0.0,0.0,0.0,33.594359999999995,-4.986267,-22.68759,-1.0,0.4941890999999999,0.7294606,-0.603991,1.085543,-0.1284612,-0.06950556,0.6683180000000001,0.08299484,11.2117,-77.68334,34.61
3,-1.0,-1.0,-1.0,0.0,0.0,0.0,0.0,-34.99091,-6.641891,-21.61589,-1.0,0.6345953000000001,0.7630887,0.2932094999999999,0.0,0.0,0.0,33.594359999999995,-4.986267,-22.68759,-1.0,0.4941890999999999,0.7294606,-0.603991,1.085543,-0.1284612,-0.06950556,0.6683180000000001,0.08299484,11.2117,-77.68334,34.61
3,-1.0,-1.0,-1.0,0.0,0.0,0.0,0.0,-34.99091,-6.641891,-21.61589,-1.0,0.6345953000000001,0.7630887,0.2932094999999999,0.0,0.0,0.0,33.594359999999995,-4.986267,-22.68759,-1.0,0.4941890999999999,0.7294606,-0.603991,1.085543,-0.1284612,-0.06950556,0.6683180000000001,0.08299484,11.2117,-77.68334,34.61
3,-1.0,-1.0,-1.0,0.6437696999999999,0.0,0.0,0.0,-35.10681,-6.33168,-21.52832,-1.0,0.6269085,0.7387736999999999,0.8356382,0.0,0.0,0.0,33.37508,-4.161789,-22.59982,-1.0,0.5025334,0.6858052,-0.6036903,1.085779,-0.1285925,-0.06948499,0.669254,0.0838771,11.2117,55.35966,34.61
3,-1.0,-1.0,-1.0,0.6437696999999999,0.0,0.0,0.0,-35.10681,-6.33168,-21.52832,-1.0,0.6269085,0.7387736999999999,0.8356382,0.0,0.0,0.0,33.37508,-4.161789,-22.59982,-1.0,0.5025334,0.6858052,-0.6036903,1.085779,-0.1285925,-0.06948499,0.669254,0.0838771,11.2117,55.35966,34.61
3,-1.0,-1.0,-1.0,0.6437696999999999,0.0,0.0,0.0,-35.10681,-6.33168,-21.52832,-1.0,0.6269085,0.7387736999999999,0.8356382,0.0,0.0,0.0,33.37508,-4.161789,-22.59982,-1.0,0.5025334,0.6858052,-0.6036903,1.085779,-0.1285925,-0.06948499,0.669254,0.0838771,11.2117,55.35966,34.61
3,-0.150589,-0.138916,0.978775,0.8865533999999999,-0.1581267999999999,-0.1307526,0.978714,-35.08209,-6.404785,-21.53549,3.324387,0.6279724,0.7457878000000001,0.9876978,-0.140152,-0.1501617,0.9786682,33.43692,-4.205719,-22.59413,2.996445,0.4958894,0.6888839,-0.6035234,1.0860299999999998,-0.1285522,-0.06985926,0.6704839,0.08443697,11.2117,55.35966,34.61
3,-0.150589,-0.138916,0.978775,0.8865533999999999,-0.1581267999999999,-0.1307526,0.978714,-35.08209,-6.404785,-21.53549,3.324387,0.6279724,0.7457878000000001,0.9876978,-0.140152,-0.1501617,0.9786682,33.43692,-4.205719,-22.59413,2.996445,0.4958894,0.6888839,-0.6035234,1.0860299999999998,-0.1285522,-0.06985926,0.6704839,0.08443697,11.2117,55.35966,34.61
3,-0.150589,-0.138916,0.978775,0.8865533999999999,-0.1581267999999999,-0.1307526,0.978714,-35.08209,-6.404785,-21.53549,3.324387,0.6279724,0.7457878000000001,0.9876978,-0.140152,-0.1501617,0.9786682,33.43692,-4.205719,-22.59413,2.996445,0.4958894,0.6888839,-0.6035234,1.0860299999999998,-0.1285522,-0.06985926,0.6704839,0.08443697,11.2117,55.35966,34.61
3,-0.1463928,-0.1313782,0.9804535,1.0,-0.1437987999999999,-0.1200866999999999,0.9822845,-35.05867,-6.369919,-21.49802,3.365387,0.6247765000000001,0.742263,1.0,-0.1491852,-0.1435852,0.9783173,33.48137,-4.228027,-22.60243,3.121429,0.4958894,0.6886826,-0.6035458,1.086538,-0.1284822,-0.07034519,0.6711621999999999,0.08567628,11.2117,55.35966,34.61
3,-0.1463928,-0.1313782,0.9804535,1.0,-0.1437987999999999,-0.1200866999999999,0.9822845,-35.05867,-6.369919,-21.49802,3.365387,0.6247765000000001,0.742263,1.0,-0.1491852,-0.1435852,0.9783173,33.48137,-4.228027,-22.60243,3.121429,0.4958894,0.6886826,-0.6035458,1.086538,-0.1284822,-0.07034519,0.6711621999999999,0.08567628,11.2117,55.35966,34.61
3,-0.1463928,-0.1313782,0.9804535,1.0,-0.1437987999999999,-0.1200866999999999,0.9822845,-35.05867,-6.369919,-21.49802,3.365387,0.6247765000000001,0.742263,1.0,-0.1491852,-0.1435852,0.9783173,33.48137,-4.228027,-22.60243,3.121429,0.4958894,0.6886826,-0.6035458,1.086538,-0.1284822,-0.07034519,0.6711621999999999,0.08567628,11.2117,55.35966,34.61
3,-0.1332855,-0.1334991,0.9820404,1.0,-0.1228638,-0.1320496,0.9835968,-35.03107,-6.379364,-21.46484,3.20784,0.6204495,0.7439793,1.0,-0.1435242,-0.134903,0.9803925,33.49518,-4.243149,-22.61131,3.219223,0.4944694,0.6877515000000001,-0.6036043000000001,1.087027,-0.1284738,-0.07053256,0.6713561,0.08764512,11.2117,55.35966,34.61
3,-0.1332855,-0.1334991,0.9820404,1.0,-0.1228638,-0.1320496,0.9835968,-35.03107,-6.379364,-21.46484,3.20784,0.6204495,0.7439793,1.0,-0.1435242,-0.134903,0.9803925,33.49518,-4.243149,-22.61131,3.219223,0.4944694,0.6877515000000001,-0.6036043000000001,1.087027,-0.1284738,-0.07053256,0.6713561,0.08764512,11.2117,55.35966,34.61
3,-0.1332855,-0.1334991,0.9820404,1.0,-0.1228638,-0.1320496,0.9835968,-35.03107,-6.379364,-21.46484,3.20784,0.6204495,0.7439793,1.0,-0.1435242,-0.134903,0.9803925,33.49518,-4.243149,-22.61131,3.219223,0.4944694,0.6877515000000001,-0.6036043000000001,1.087027,-0.1284738,-0.07053256,0.6713561,0.08764512,11.2117,55.35966,34.61
3,-0.1320496,-0.1352386,0.9819641,1.0,-0.1199951,-0.1330261,0.9838104,-35.02658,-6.382797,-21.45976,3.172684,0.6198314,0.7441491,1.0,-0.1443939,-0.1374969,0.9799194,33.49995,-4.2461400000000005,-22.61284,3.183624,0.4944636999999999,0.6883020000000001,-0.6036164,1.087258,-0.1282138,-0.07042585,0.67135,0.08911764,11.2117,55.35966,34.61
3,-0.1320496,-0.1352386,0.9819641,1.0,-0.1199951,-0.1330261,0.9838104,-35.02658,-6.382797,-21.45976,3.172684,0.6198314,0.7441491,1.0,-0.1443939,-0.1374969,0.9799194,33.49995,-4.2461400000000005,-22.61284,3.183624,0.4944636999999999,0.6883020000000001,-0.6036164,1.087258,-0.1282138,-0.07042585,0.67135,0.08911764,11.2117,55.35966,34.61
3,-0.1320496,-0.1352386,0.9819641,1.0,-0.1199951,-0.1330261,0.9838104,-35.02658,-6.382797,-21.45976,3.172684,0.6198314,0.7441491,1.0,-0.1443939,-0.1374969,0.9799194,33.49995,-4.2461400000000005,-22.61284,3.183624,0.4944636999999999,0.6883020000000001,-0.6036164,1.087258,-0.1282138,-0.07042585,0.67135,0.08911764,11.2117,55.35966,34.61
3,-0.1328582999999999,-0.132843,0.9821777,1.0,-0.1218719,-0.1330109,0.9835815,-35.004529999999995,-6.398132,-21.45662,3.15239,0.6194265,0.7446077,1.0,-0.1425629,-0.1326752,0.9808502,33.54628,-4.27597,-22.62935,3.273926,0.4926015,0.6886376999999999,-0.6037293,1.087388,-0.1278957,-0.06974051,0.6708847,0.09085739,11.2117,55.35966,34.61
3,-0.1328582999999999,-0.132843,0.9821777,1.0,-0.1218719,-0.1330109,0.9835815,-35.004529999999995,-6.398132,-21.45662,3.15239,0.6194265,0.7446077,1.0,-0.1425629,-0.1326752,0.9808502,33.54628,-4.27597,-22.62935,3.273926,0.4926015,0.6886376999999999,-0.6037293,1.087388,-0.1278957,-0.06974051,0.6708847,0.09085739,11.2117,55.35966,34.61
3,-0.1328582999999999,-0.132843,0.9821777,1.0,-0.1218719,-0.1330109,0.9835815,-35.004529999999995,-6.398132,-21.45662,3.15239,0.6194265,0.7446077,1.0,-0.1425629,-0.1326752,0.9808502,33.54628,-4.27597,-22.62935,3.273926,0.4926015,0.6886376999999999,-0.6037293,1.087388,-0.1278957,-0.06974051,0.6708847,0.09085739,11.2117,55.35966,34.61
3,-0.1299744,-0.1322327,0.9826508,1.0,-0.1217651,-0.1298676,0.984024,-34.96779,-6.43512,-21.45108,3.139618,0.6182181999999999,0.7451831999999999,1.0,-0.1376343,-0.1344452,0.981308,33.5787,-4.289185,-22.63022,3.227448,0.4907235,0.689319,-0.6038125,1.087444,-0.1274556,-0.06920418,0.6706409000000001,0.09196594,11.2117,42.46906,34.61
3,-0.1299744,-0.1322327,0.9826508,1.0,-0.1217651,-0.1298676,0.984024,-34.96779,-6.43512,-21.45108,3.139618,0.6182181999999999,0.7451831999999999,1.0,-0.1376343,-0.1344452,0.981308,33.5787,-4.289185,-22.63022,3.227448,0.4907235,0.689319,-0.6038125,1.087444,-0.1274556,-0.06920418,0.6706409000000001,0.09196594,11.2117,42.46906,34.61
3,-0.1299744,-0.1322327,0.9826508,1.0,-0.1217651,-0.1298676,0.984024,-34.96779,-6.43512,-21.45108,3.139618,0.6182181999999999,0.7451831999999999,1.0,-0.1376343,-0.1344452,0.981308,33.5787,-4.289185,-22.63022,3.227448,0.4907235,0.689319,-0.6038125,1.087444,-0.1274556,-0.06920418,0.6706409000000001,0.09196594,11.2117,42.46906,34.61
3,-0.1255493,-0.1397552,0.9821777,1.0,-0.1203766,-0.1305541999999999,0.9841003,-34.95512,-6.445724,-21.44458,3.139526,0.6175745,0.7455548000000001,1.0,-0.1299744,-0.1476287999999999,0.9804535,33.59338,-4.299377,-22.62935,3.272049,0.4889189,0.6919071,-0.6037969,1.08744,-0.1270603,-0.06840704,0.6704204,0.09229714,11.2117,42.46906,34.61
3,-0.1255493,-0.1397552,0.9821777,1.0,-0.1203766,-0.1305541999999999,0.9841003,-34.95512,-6.445724,-21.44458,3.139526,0.6175745,0.7455548000000001,1.0,-0.1299744,-0.1476287999999999,0.9804535,33.59338,-4.299377,-22.62935,3.272049,0.4889189,0.6919071,-0.6037969,1.08744,-0.1270603,-0.06840704,0.6704204,0.09229714,11.2117,42.46906,34.61
3,-0.1255493,-0.1397552,0.9821777,1.0,-0.1203766,-0.1305541999999999,0.9841003,-34.95512,-6.445724,-21.44458,3.139526,0.6175745,0.7455548000000001,1.0,-0.1299744,-0.1476287999999999,0.9804535,33.59338,-4.299377,-22.62935,3.272049,0.4889189,0.6919071,-0.6037969,1.08744,-0.1270603,-0.06840704,0.6704204,0.09229714,11.2117,42.46906,34.61
3,-0.1250609999999999,-0.147644,0.9810944,1.0,-0.1242981,-0.1484069999999999,0.9810791,-34.94467,-6.473221,-21.42932,3.372253,0.6178643,0.7495668000000001,1.0,-0.1256104,-0.1470947,0.9811096,33.60579,-4.315155,-22.62477,3.2926330000000004,0.4877764,0.6922682,-0.603747,1.0871309999999998,-0.1267662,-0.06735307,0.6701377,0.09205373,11.2117,42.46906,34.61
3,-0.1250609999999999,-0.147644,0.9810944,1.0,-0.1242981,-0.1484069999999999,0.9810791,-34.94467,-6.473221,-21.42932,3.372253,0.6178643,0.7495668000000001,1.0,-0.1256104,-0.1470947,0.9811096,33.60579,-4.315155,-22.62477,3.2926330000000004,0.4877764,0.6922682,-0.603747,1.0871309999999998,-0.1267662,-0.06735307,0.6701377,0.09205373,11.2117,42.46906,34.61
3,-0.1250609999999999,-0.147644,0.9810944,1.0,-0.1242981,-0.1484069999999999,0.9810791,-34.94467,-6.473221,-21.42932,3.372253,0.6178643,0.7495668000000001,1.0,-0.1256104,-0.1470947,0.9811096,33.60579,-4.315155,-22.62477,3.2926330000000004,0.4877764,0.6922682,-0.603747,1.0871309999999998,-0.1267662,-0.06735307,0.6701377,0.09205373,11.2117,42.46906,34.61
3,-0.1231688999999999,-0.1508484,0.9808502,1.0,-0.1251526,-0.1515045,0.9804993,-34.94008,-6.488112999999999,-21.42932,3.380722,0.6178643,0.7506135,1.0,-0.1216887999999999,-0.1503601,0.9811096,33.60985,-4.323669000000001,-22.61975,3.300888,0.4869806,0.6930430000000001,-0.6037712,1.086768,-0.1268371,-0.06620697,0.6701666999999999,0.09157678,11.2117,42.46906,34.61
3,-0.1231688999999999,-0.1508484,0.9808502,1.0,-0.1251526,-0.1515045,0.9804993,-34.94008,-6.488112999999999,-21.42932,3.380722,0.6178643,0.7506135,1.0,-0.1216887999999999,-0.1503601,0.9811096,33.60985,-4.323669000000001,-22.61975,3.300888,0.4869806,0.6930430000000001,-0.6037712,1.086768,-0.1268371,-0.06620697,0.6701666999999999,0.09157678,11.2117,42.46906,34.61
3,-0.1231688999999999,-0.1508484,0.9808502,1.0,-0.1251526,-0.1515045,0.9804993,-34.94008,-6.488112999999999,-21.42932,3.380722,0.6178643,0.7506135,1.0,-0.1216887999999999,-0.1503601,0.9811096,33.60985,-4.323669000000001,-22.61975,3.300888,0.4869806,0.6930430000000001,-0.6037712,1.086768,-0.1268371,-0.06620697,0.6701666999999999,0.09157678,11.2117,42.46906,34.61
3,-0.1266022,-0.1477661,0.9808807,1.0,-0.1380157,-0.1455382999999999,0.9796753,-34.91068,-6.523529,-21.4402,3.394699,0.6190244,0.7509640000000001,1.0,-0.1170196999999999,-0.1496124,0.981781,33.60985,-4.329788,-22.61479,3.3311610000000003,0.4861957,0.6930430000000001,-0.6037716,1.08625,-0.1271612,-0.06509055,0.6707595999999999,0.09006427,11.2117,2.329865,34.61
3,-0.1266022,-0.1477661,0.9808807,1.0,-0.1380157,-0.1455382999999999,0.9796753,-34.91068,-6.523529,-21.4402,3.394699,0.6190244,0.7509640000000001,1.0,-0.1170196999999999,-0.1496124,0.981781,33.60985,-4.329788,-22.61479,3.3311610000000003,0.4861957,0.6930430000000001,-0.6037716,1.08625,-0.1271612,-0.06509055,0.6707595999999999,0.09006427,11.2117,2.329865,34.61
3,-0.1266022,-0.1477661,0.9808807,1.0,-0.1380157,-0.1455382999999999,0.9796753,-34.91068,-6.523529,-21.4402,3.394699,0.6190244,0.7509640000000001,1.0,-0.1170196999999999,-0.1496124,0.981781,33.60985,-4.329788,-22.61479,3.3311610000000003,0.4861957,0.6930430000000001,-0.6037716,1.08625,-0.1271612,-0.06509055,0.6707595999999999,0.09006427,11.2117,2.329865,34.61
3,-0.1230469,-0.1525269,0.9806061,1.0,-0.1319427,-0.1555328,0.9789734,-34.94107,-6.492355,-21.41014,3.3762510000000003,0.6189901,0.7513051,1.0,-0.1153259,-0.1499023,0.9819489,33.604490000000006,-4.325531,-22.59976,3.299988,0.486102,0.6927667,-0.6039824,1.085622,-0.1275469,-0.06393934,0.6718356,0.08795376,11.2117,2.329865,34.61
3,-0.1230469,-0.1525269,0.9806061,1.0,-0.1319427,-0.1555328,0.9789734,-34.94107,-6.492355,-21.41014,3.3762510000000003,0.6189901,0.7513051,1.0,-0.1153259,-0.1499023,0.9819489,33.604490000000006,-4.325531,-22.59976,3.299988,0.486102,0.6927667,-0.6039824,1.085622,-0.1275469,-0.06393934,0.6718356,0.08795376,11.2117,2.329865,34.61
3,-0.1230469,-0.1525269,0.9806061,1.0,-0.1319427,-0.1555328,0.9789734,-34.94107,-6.492355,-21.41014,3.3762510000000003,0.6189901,0.7513051,1.0,-0.1153259,-0.1499023,0.9819489,33.604490000000006,-4.325531,-22.59976,3.299988,0.486102,0.6927667,-0.6039824,1.085622,-0.1275469,-0.06393934,0.6718356,0.08795376,11.2117,2.329865,34.61
3,-0.1168365,-0.1433411,0.9827423,1.0,-0.1196898999999999,-0.1467285,0.9819031,-34.94681,-6.4880830000000005,-21.40028,3.357117,0.6171441999999999,0.7494036999999999,1.0,-0.1146393,-0.1407166,0.9833832,33.60031,-4.306686,-22.5997,3.30188,0.4861501,0.6905398,-0.6041304,1.085042,-0.1282961,-0.06333762,0.6733415,0.08621988,11.2117,2.329865,34.61
3,-0.1168365,-0.1433411,0.9827423,1.0,-0.1196898999999999,-0.1467285,0.9819031,-34.94681,-6.4880830000000005,-21.40028,3.357117,0.6171441999999999,0.7494036999999999,1.0,-0.1146393,-0.1407166,0.9833832,33.60031,-4.306686,-22.5997,3.30188,0.4861501,0.6905398,-0.6041304,1.085042,-0.1282961,-0.06333762,0.6733415,0.08621988,11.2117,2.329865,34.61
3,-0.1168365,-0.1433411,0.9827423,1.0,-0.1196898999999999,-0.1467285,0.9819031,-34.94681,-6.4880830000000005,-21.40028,3.357117,0.6171441999999999,0.7494036999999999,1.0,-0.1146393,-0.1407166,0.9833832,33.60031,-4.306686,-22.5997,3.30188,0.4861501,0.6905398,-0.6041304,1.085042,-0.1282961,-0.06333762,0.6733415,0.08621988,11.2117,2.329865,34.61
3,-0.1168976,-0.1376494999999999,0.983551,1.0,-0.1185913,-0.1455841,0.9822083,-34.94681,-6.48407,-21.397920000000003,3.280731,0.6169668,0.7489784,1.0,-0.1154785,-0.1310577,0.9846191,33.5963,-4.299728,-22.59932,3.264114,0.4864524,0.6886131999999999,-0.6043057,1.084969,-0.1291198999999999,-0.06390873,0.6754060000000001,0.08559588,11.2117,2.329865,34.61
3,-0.1168976,-0.1376494999999999,0.983551,1.0,-0.1185913,-0.1455841,0.9822083,-34.94681,-6.48407,-21.397920000000003,3.280731,0.6169668,0.7489784,1.0,-0.1154785,-0.1310577,0.9846191,33.5963,-4.299728,-22.59932,3.264114,0.4864524,0.6886131999999999,-0.6043057,1.084969,-0.1291198999999999,-0.06390873,0.6754060000000001,0.08559588,11.2117,2.329865,34.61
3,-0.1168976,-0.1376494999999999,0.983551,1.0,-0.1185913,-0.1455841,0.9822083,-34.94681,-6.48407,-21.397920000000003,3.280731,0.6169668,0.7489784,1.0,-0.1154785,-0.1310577,0.9846191,33.5963,-4.299728,-22.59932,3.264114,0.4864524,0.6886131999999999,-0.6043057,1.084969,-0.1291198999999999,-0.06390873,0.6754060000000001,0.08559588,11.2117,2.329865,34.61
4,-0.1093903,-0.1294403,0.9855194,1.0,-0.101181,-0.1304932,0.9862671,-34.91214,-6.461075,-21.34496,3.210495,0.6129193000000001,0.7448488,1.0,-0.1156616,-0.1286316,0.9849091,33.59718,-4.233582,-22.59915,3.269623,0.4864742999999999,0.6860133,-0.6045654,1.084863,-0.1301922,-0.06469059,0.6778889,0.08485916,11.2117,2.329865,34.61
4,-0.1093903,-0.1294403,0.9855194,1.0,-0.101181,-0.1304932,0.9862671,-34.91214,-6.461075,-21.34496,3.210495,0.6129193000000001,0.7448488,1.0,-0.1156616,-0.1286316,0.9849091,33.59718,-4.233582,-22.59915,3.269623,0.4864742999999999,0.6860133,-0.6045654,1.084863,-0.1301922,-0.06469059,0.6778889,0.08485916,11.2117,2.329865,34.61
4,-0.1093903,-0.1294403,0.9855194,1.0,-0.101181,-0.1304932,0.9862671,-34.91214,-6.461075,-21.34496,3.210495,0.6129193000000001,0.7448488,1.0,-0.1156616,-0.1286316,0.9849091,33.59718,-4.233582,-22.59915,3.269623,0.4864742999999999,0.6860133,-0.6045654,1.084863,-0.1301922,-0.06469059,0.6778889,0.08485916,11.2117,2.329865,34.61
4,-0.1079559,-0.1296081999999999,0.9856567,1.0,-0.09825134,-0.1322021,0.9863281,-34.90326,-6.461075,-21.32156,3.182983,0.6121284,0.7448488,1.0,-0.1148987,-0.1277313,0.9851227,33.60452,-4.214188,-22.61325,3.286789,0.4861057,0.6853635,-0.6049123000000001,1.084599,-0.1314961,-0.06505736,0.6804636,0.08399347,11.2117,2.329865,34.61
4,-0.1079559,-0.1296081999999999,0.9856567,1.0,-0.09825134,-0.1322021,0.9863281,-34.90326,-6.461075,-21.32156,3.182983,0.6121284,0.7448488,1.0,-0.1148987,-0.1277313,0.9851227,33.60452,-4.214188,-22.61325,3.286789,0.4861057,0.6853635,-0.6049123000000001,1.084599,-0.1314961,-0.06505736,0.6804636,0.08399347,11.2117,2.329865,34.61
4,-0.1079559,-0.1296081999999999,0.9856567,1.0,-0.09825134,-0.1322021,0.9863281,-34.90326,-6.461075,-21.32156,3.182983,0.6121284,0.7448488,1.0,-0.1148987,-0.1277313,0.9851227,33.60452,-4.214188,-22.61325,3.286789,0.4861057,0.6853635,-0.6049123000000001,1.084599,-0.1314961,-0.06505736,0.6804636,0.08399347,11.2117,2.329865,34.61
4,-0.09657288,-0.1282959,0.9870148,1.0,-0.08662415,-0.138443,0.986557,-34.88377,-6.466858,-21.29039,3.097183,0.6095785,0.7456283,1.0,-0.1049346999999999,-0.1197205,0.9872437,33.61221,-4.210999,-22.63097,3.339722,0.4842037,0.6840111,-0.6054761,1.084309,-0.1341027,-0.0660268999999999,0.6852305000000001,0.08275445,11.2117,-50.87924,34.61
4,-0.09657288,-0.1282959,0.9870148,1.0,-0.08662415,-0.138443,0.986557,-34.88377,-6.466858,-21.29039,3.097183,0.6095785,0.7456283,1.0,-0.1049346999999999,-0.1197205,0.9872437,33.61221,-4.210999,-22.63097,3.339722,0.4842037,0.6840111,-0.6054761,1.084309,-0.1341027,-0.0660268999999999,0.6852305000000001,0.08275445,11.2117,-50.87924,34.61
4,-0.09657288,-0.1282959,0.9870148,1.0,-0.08662415,-0.138443,0.986557,-34.88377,-6.466858,-21.29039,3.097183,0.6095785,0.7456283,1.0,-0.1049346999999999,-0.1197205,0.9872437,33.61221,-4.210999,-22.63097,3.339722,0.4842037,0.6840111,-0.6054761,1.084309,-0.1341027,-0.0660268999999999,0.6852305000000001,0.08275445,11.2117,-50.87924,34.61
