Second,eye_comb_direction_x,eye_comb_direction_y,eye_comb_direction_z,eye_r_openness,eye_r_direction_x,eye_r_direction_y,eye_r_direction_z,eye_r_origin_x,eye_r_origin_y,eye_r_origin_z,eye_r_pupil_diameter,eye_r_pupil_position_x,eye_r_pupil_position_y,eye_l_openness,eye_l_direction_x,eye_l_direction_y,eye_l_direction_z,eye_l_origin_x,eye_l_origin_y,eye_l_origin_z,eye_l_pupil_diameter,eye_l_pupil_position_x,eye_l_pupil_position_y,head_position_x,head_position_y,head_position_z,head_rotation_roll,head_rotation_pitch,head_rotation_yaw,EDA,BVP,TMP
0,0.0,0.0,0.0,0.0,0.0,0.0,0.0,0.0,0.0,0.0,0.0,0.0,0.0,0.0,0.0,0.0,0.0,0.0,0.0,0.0,0.0,0.0,0.0,0.0,0.0,0.0,0.0,0.0,0.0,1.0080737212901643,-0.28998544944812366,32.16796418935492
0,-1.0,-1.0,-1.0,0.1,0.0,0.0,0.0,-32.35828,-3.449509,-26.29555,-1.0,0.5204579,0.6849709,0.1,0.0,0.0,0.0,31.26978,0.008590698,-26.46231,-1.0,0.547301,0.5743502,0.05914724,1.218411,-0.1839309,-0.02235254,-0.0360366,0.0313457,1.0080737212901643,-0.28998544944812366,32.16796418935492
0,-0.01316833,-0.002746582,0.9999084,0.1,-0.01817322,-0.02632141,0.9994812,-32.3674,-3.607346,-25.98065,4.902634,0.5195794,0.6829461,0.1,-0.006515503,0.02853394,0.9995575,31.2585,-0.03565979,-26.47476,4.87944,0.548534,0.5593895,0.05905592,1.217399,-0.1832334,-0.01823471,-0.03655675,0.03139605,1.0080737212901643,-0.28998544944812366,32.16796418935492
0,-0.01316833,-0.002746582,0.9999084,0.1,-0.01817322,-0.02632141,0.9994812,-32.3674,-3.607346,-25.98065,4.902634,0.5195794,0.6829461,0.1,-0.006515503,0.02853394,0.9995575,31.2585,-0.03565979,-26.47476,4.87944,0.548534,0.5593895,0.05905592,1.217399,-0.1832334,-0.01823471,-0.03655675,0.03139605,1.0080737212901643,-0.28998544944812366,32.16796418935492
0,-0.01316833,-0.002746582,0.9999084,0.1,-0.01817322,-0.02632141,0.9994812,-32.3674,-3.607346,-25.98065,4.902634,0.5195794,0.6829461,0.1,-0.006515503,0.02853394,0.9995575,31.2585,-0.03565979,-26.47476,4.87944,0.548534,0.5593895,0.05905592,1.217399,-0.1832334,-0.01823471,-0.03655675,0.03139605,1.0080737212901643,-0.28998544944812366,32.16796418935492
0,-0.01316833,-0.002746582,0.9999084,0.1,-0.01817322,-0.02632141,0.9994812,-32.3674,-3.607346,-25.98065,4.902634,0.5195794,0.6829461,0.1,-0.006515503,0.02853394,0.9995575,31.2585,-0.03565979,-26.47476,4.87944,0.548534,0.5593895,0.05905592,1.217399,-0.1832334,-0.01823471,-0.03655675,0.03139605,1.0080737212901643,-0.28998544944812366,32.16796418935492
0,-0.01316833,-0.002746582,0.9999084,0.1,-0.01817322,-0.02632141,0.9994812,-32.3674,-3.607346,-25.98065,4.902634,0.5195794,0.6829461,0.1,-0.006515503,0.02853394,0.9995575,31.2585,-0.03565979,-26.47476,4.87944,0.548534,0.5593895,0.05905592,1.217399,-0.1832334,-0.01823471,-0.03655675,0.03139605,1.0080737212901643,-0.28998544944812366,32.16796418935492
0,-0.01316833,-0.002746582,0.9999084,0.1,-0.01817322,-0.02632141,0.9994812,-32.3674,-3.607346,-25.98065,4.902634,0.5195794,0.6829461,0.1,-0.006515503,0.02853394,0.9995575,31.2585,-0.03565979,-26.47476,4.87944,0.548534,0.5593895,0.05905592,1.217399,-0.1832334,-0.01823471,-0.03655675,0.03139605,1.0080737212901643,-0.28998544944812366,32.16796418935492
0,-0.01316833,-0.002746582,0.9999084,0.1,-0.01817322,-0.02632141,0.9994812,-32.3674,-3.607346,-25.98065,4.902634,0.5195794,0.6829461,0.1,-0.006515503,0.02853394,0.9995575,31.2585,-0.03565979,-26.47476,4.87944,0.548534,0.5593895,0.05905592,1.217399,-0.1832334,-0.01823471,-0.03655675,0.03139605,1.0080737212901643,-0.28998544944812366,32.16796418935492
0,-0.01316833,-0.002746582,0.9999084,0.1,-0.01817322,-0.02632141,0.9994812,-32.3674,-3.607346,-25.98065,4.902634,0.5195794,0.6829461,0.1,-0.006515503,0.02853394,0.9995575,31.2585,-0.03565979,-26.47476,4.87944,0.548534,0.5593895,0.05905592,1.217399,-0.1832334,-0.01823471,-0.03655675,0.03139605,1.0080737212901643,-0.28998544944812366,32.16796418935492
0,-0.01316833,-0.002746582,0.9999084,0.1,-0.01817322,-0.02632141,0.9994812,-32.3674,-3.607346,-25.98065,4.902634,0.5195794,0.6829461,0.1,-0.006515503,0.02853394,0.9995575,31.2585,-0.03565979,-26.47476,4.87944,0.548534,0.5593895,0.05905592,1.217399,-0.1832334,-0.01823471,-0.03655675,0.03139605,1.0080737212901643,-0.28998544944812366,32.16796418935492
0,0.1289215,0.0003662109,0.9916382,0.1,0.0619812,-0.04400635,0.9971008,-31.57253,-3.501755,-26.79745,4.685303,0.4800043,0.6907085,0.1,0.1289368,0.0003814697,0.9916382,32.01984,-0.3415527,-26.52094,4.577545,0.4999886,0.574605,0.05875587,1.215545,-0.1817814,-0.01171175,-0.03736369,0.02934287,1.0080737212901643,-0.28998544944812366,32.16796418935492
0,0.1289215,0.0003662109,0.9916382,0.1,0.0619812,-0.04400635,0.9971008,-31.57253,-3.501755,-26.79745,4.685303,0.4800043,0.6907085,0.1,0.1289368,0.0003814697,0.9916382,32.01984,-0.3415527,-26.52094,4.577545,0.4999886,0.574605,0.05875587,1.215545,-0.1817814,-0.01171175,-0.03736369,0.02934287,1.0080737212901643,-0.28998544944812366,32.16796418935492
0,0.1289215,0.0003662109,0.9916382,0.1,0.0619812,-0.04400635,0.9971008,-31.57253,-3.501755,-26.79745,4.685303,0.4800043,0.6907085,0.1,0.1289368,0.0003814697,0.9916382,32.01984,-0.3415527,-26.52094,4.577545,0.4999886,0.574605,0.05875587,1.215545,-0.1817814,-0.01171175,-0.03736369,0.02934287,1.0080737212901643,-0.28998544944812366,32.16796418935492
0,0.1289215,0.0003662109,0.9916382,0.1,0.0619812,-0.04400635,0.9971008,-31.57253,-3.501755,-26.79745,4.685303,0.4800043,0.6907085,0.1,0.1289368,0.0003814697,0.9916382,32.01984,-0.3415527,-26.52094,4.577545,0.4999886,0.574605,0.05875587,1.215545,-0.1817814,-0.01171175,-0.03736369,0.02934287,1.0080737212901643,-0.28998544944812366,32.16796418935492
0,0.1289215,0.0003662109,0.9916382,0.1,0.0619812,-0.04400635,0.9971008,-31.57253,-3.501755,-26.79745,4.685303,0.4800043,0.6907085,0.1,0.1289368,0.0003814697,0.9916382,32.01984,-0.3415527,-26.52094,4.577545,0.4999886,0.574605,0.05875587,1.215545,-0.1817814,-0.01171175,-0.03736369,0.02934287,1.0080737212901643,-0.28998544944812366,32.16796418935492
0,0.1216583,0.001998901,0.9925537,0.1,0.05819702,-0.03953552,0.9975128,-31.58928,-3.641083,-26.50584,4.602768,0.4811456,0.6914485,0.1,0.1267853,0.005371094,0.9919128,32.03015,-0.3419342,-26.50876,4.563141,0.4999886,0.5736222,0.05873477,1.215331,-0.1816039,-0.01091966,-0.03729043,0.02951528,1.0080737212901643,-0.28998544944812366,32.16796418935492
0,0.1226807,0.001068115,0.9924316,0.1,0.05964661,-0.04150391,0.997345,-31.59404,-3.6577,-26.45399,4.589645,0.481061,0.6917804,0.1,0.1289978,0.005371094,0.9916229,32.0338,-0.3398895,-26.51541,4.55246,0.4994929,0.5736222,0.05869496,1.215239,-0.1815238,-0.0106754,-0.03728004,0.02952336,1.0080737212901643,-0.28998544944812366,32.16796418935492
0,0.1226807,0.001068115,0.9924316,0.1,0.05964661,-0.04150391,0.997345,-31.59404,-3.6577,-26.45399,4.589645,0.481061,0.6917804,0.1,0.1289978,0.005371094,0.9916229,32.0338,-0.3398895,-26.51541,4.55246,0.4994929,0.5736222,0.05869496,1.215239,-0.1815238,-0.0106754,-0.03728004,0.02952336,1.0080737212901643,-0.28998544944812366,32.16796418935492
0,0.1230469,-0.001663208,0.9923859,0.1,0.06062317,-0.04322815,0.9972229,-31.59895,-3.664246,-26.41241,4.588577,0.481061,0.691858,0.1,0.1299591,0.002944946,0.9915009,32.03737,-0.3324738,-26.52348,4.551468,0.4992125,0.5738637,0.05867517,1.215201,-0.1814714,-0.01051152,-0.03721143,0.02950846,1.0080737212901643,-0.28998544944812366,32.16796418935492
0,0.1148834,-0.00793457,0.9933319,0.1,0.06245422,-0.04437256,0.9970551,-31.60178,-3.665924,-26.3896,4.580444,0.4808514,0.691858,0.1,0.129303,0.00213623,0.9915924,32.03989,-0.3163757,-26.54196,4.537399,0.4992386,0.5736222,0.05869281,1.2151,-0.1813945,-0.01017293,-0.03723345,0.0293581,1.0080737212901643,-0.28998544944812366,32.16796418935492
0,0.1032104,-0.01576233,0.9945221,0.1,0.06185913,-0.04481506,0.9970703,-31.60295,-3.668793,-26.37785,4.527527,0.4809779,0.6918441,0.1,0.1288757,0.002365112,0.9916534,32.04355,-0.3053436,-26.56726,4.500565,0.4991793,0.5734189,0.05868542,1.215063,-0.1813825,-0.009978455,-0.0371916,0.0293482,1.0080737212901643,-0.28998544944812366,32.16796418935492
0,0.1032104,-0.01576233,0.9945221,0.1,0.06185913,-0.04481506,0.9970703,-31.60295,-3.668793,-26.37785,4.527527,0.4809779,0.6918441,0.1,0.1288757,0.002365112,0.9916534,32.04355,-0.3053436,-26.56726,4.500565,0.4991793,0.5734189,0.05868542,1.215063,-0.1813825,-0.009978455,-0.0371916,0.0293482,1.0080737212901643,-0.28998544944812366,32.16796418935492
0,0.1013031,-0.01722717,0.9947052,0.1,0.06211853,-0.0451355,0.9970398,-31.60437,-3.668839,-26.37552,4.490097,0.4809779,0.6918441,0.1,0.1306915,0.003845215,0.9914093,32.04703,-0.2992706,-26.56796,4.49736,0.4987553,0.5729777,0.05869019,1.215027,-0.1813326,-0.009775538,-0.03723745,0.02928034,1.0080737212901643,-0.28998544944812366,32.16796418935492
0,0.0940094,-0.02157593,0.9953308,0.1,0.06204224,-0.0447998,0.9970551,-31.60437,-3.671432,-26.36362,4.426971,0.4809779,0.6916888,0.1,0.1307526,0.005264282,0.991394,32.04808,-0.2933502,-26.57892,4.482071,0.4987077,0.5726256,0.05872595,1.214937,-0.1812243,-0.00946655,-0.03715713,0.02934922,1.0080737212901643,-0.28998544944812366,32.16796418935492
0,0.09599304,-0.02180481,0.9951324,0.1,0.06352234,-0.04626465,0.9969025,-31.60437,-3.672043,-26.34081,4.383453,0.4807249,0.6916888,0.1,0.1305847,0.00440979,0.9914246,32.04932,-0.2887878,-26.58588,4.414063,0.4986686,0.5726256,0.0587225,1.214881,-0.1811889,-0.009327802,-0.03716254,0.02927016,1.0080737212901643,-0.28998544944812366,32.16796418935492
0,0.09599304,-0.02180481,0.9951324,0.1,0.06352234,-0.04626465,0.9969025,-31.60437,-3.672043,-26.34081,4.383453,0.4807249,0.6916888,0.1,0.1305847,0.00440979,0.9914246,32.04932,-0.2887878,-26.58588,4.414063,0.4986686,0.5726256,0.0587225,1.214881,-0.1811889,-0.009327802,-0.03716254,0.02927016,1.0080737212901643,-0.28998544944812366,32.16796418935492
0,0.09613037,-0.02236938,0.9951172,0.1,0.06402588,-0.04653931,0.9968567,-31.60437,-3.674881,-26.32135,4.373322,0.4806392,0.6916087,0.1,0.1311798,0.004211426,0.9913483,32.04932,-0.2859802,-26.59213,4.409805,0.4985686,0.5726256,0.05872846,1.214825,-0.1811459,-0.009107132,-0.03713466,0.02921079,1.0080737212901643,-0.28998544944812366,32.16796418935492
1,0.1007843,-0.02149963,0.9946747,0.1,0.06401062,-0.04493713,0.996933,-31.60437,-3.679901,-26.30363,4.3694,0.4806392,0.6913127,0.1,0.1328125,-0.0009460449,0.9911346,32.04932,-0.2814026,-26.60092,4.382782,0.498288,0.5734189,0.05874121,1.214719,-0.1810649,-0.008673867,-0.03715011,0.02924419,1.0080737212901643,-0.28998544944812366,32.16796418935492
1,0.1022186,-0.02163696,0.9945221,0.1,0.06430054,-0.04605103,0.9968567,-31.60307,-3.681961,-26.27448,4.320618,0.4805382,0.6912176,0.1,0.1327209,-0.001846313,0.9911499,32.04932,-0.2730713,-26.61917,4.329056,0.498288,0.5734189,0.05874455,1.214663,-0.1810384,-0.008436111,-0.03713908,0.02927653,1.0080737212901643,-0.28998544944812366,32.16796418935492
1,0.1022186,-0.02163696,0.9945221,0.1,0.06430054,-0.04605103,0.9968567,-31.60307,-3.681961,-26.27448,4.320618,0.4805382,0.6912176,0.1,0.1327209,-0.001846313,0.9911499,32.04932,-0.2730713,-26.61917,4.329056,0.498288,0.5734189,0.05874455,1.214663,-0.1810384,-0.008436111,-0.03713908,0.02927653,1.0080737212901643,-0.28998544944812366,32.16796418935492
1,0.1035156,-0.02171326,0.9943848,0.1,0.06402588,-0.04574585,0.9968872,-31.60078,-3.685287,-26.27185,4.295471,0.4805038,0.6912211,0.1,0.1356506,-0.002029419,0.9907532,32.04924,-0.2676849,-26.63496,4.318069,0.4977943,0.5734189,0.05869997,1.214608,-0.1810075,-0.008180534,-0.03714731,0.02924062,1.0080737212901643,-0.28998544944812366,32.16796418935492
1,0.1029816,-0.02041626,0.9944611,0.1,0.06396484,-0.04547119,0.9969025,-31.60057,-3.68927,-26.25206,4.294052,0.4805038,0.6910975,0.1,0.1359711,0.0009002686,0.9907074,32.04765,-0.2619781,-26.64609,4.312515,0.4977943,0.5728447,0.05871665,1.214557,-0.1809391,-0.007915769,-0.03712283,0.02924113,1.0080737212901643,-0.28998544944812366,32.16796418935492
1,0.1032867,-0.02120972,0.9944153,0.1,0.06507874,-0.04618835,0.9967957,-31.59999,-3.695145,-26.22078,4.285217,0.4802976,0.6910824,0.1,0.1361389,0.0003814697,0.9906769,32.04631,-0.2596741,-26.64664,4.298325,0.4978068,0.5728447,0.05871725,1.214365,-0.180891,-0.007337431,-0.03712925,0.0293317,1.0080737212901643,-0.28998544944812366,32.16796418935492
1,0.1032867,-0.02120972,0.9944153,0.1,0.06507874,-0.04618835,0.9967957,-31.59999,-3.695145,-26.22078,4.285217,0.4802976,0.6910824,0.1,0.1361389,0.0003814697,0.9906769,32.04631,-0.2596741,-26.64664,4.298325,0.4978068,0.5728447,0.05871725,1.214365,-0.180891,-0.007337431,-0.03712925,0.0293317,1.0080737212901643,-0.28998544944812366,32.16796418935492
1,0.1020508,-0.02333069,0.9944916,0.1,0.05953979,-0.05455017,0.9967194,-31.59633,-3.68602,-26.16367,4.236008,0.4810806,0.6915443,0.1,0.13414,0.0003967285,0.9909515,32.04337,-0.2563629,-26.65179,4.243286,0.4982224,0.5727189,0.05873466,1.214299,-0.1808156,-0.007060056,-0.03707784,0.02933068,1.0080737212901643,-0.28998544944812366,32.16796418935492
1,0.1042328,-0.02076721,0.9943237,0.1,0.0657196,-0.04710388,0.9967194,-31.59435,-3.640564,-26.2661,4.143539,0.4799871,0.6897479,0.1,0.1345062,4.577637e-05,0.9909058,32.04134,-0.2486877,-26.67506,4.207886,0.4982224,0.5727189,0.05868995,1.214193,-0.1806846,-0.006497306,-0.03709713,0.02942604,1.0080737212901643,-0.28998544944812366,32.16796418935492
1,0.1042328,-0.02076721,0.9943237,0.1,0.0657196,-0.04710388,0.9967194,-31.59435,-3.640564,-26.2661,4.143539,0.4799871,0.6897479,0.1,0.1345062,4.577637e-05,0.9909058,32.04134,-0.2486877,-26.67506,4.207886,0.4982224,0.5727189,0.05869889,1.214095,-0.1806372,-0.006213607,-0.03708507,0.02940273,1.0080737212901643,-0.28998544944812366,32.16796418935492
1,0.1042328,-0.02076721,0.9943237,0.1,0.0657196,-0.04710388,0.9967194,-31.59435,-3.640564,-26.2661,4.143539,0.4799871,0.6897479,0.1,0.1345062,4.577637e-05,0.9909058,32.04134,-0.2486877,-26.67506,4.207886,0.4982224,0.5727189,0.05869889,1.214095,-0.1806372,-0.006213607,-0.03708507,0.02940273,1.0080737212901643,-0.28998544944812366,32.16796418935492
1,0.1042328,-0.02076721,0.9943237,0.1,0.0657196,-0.04710388,0.9967194,-31.59435,-3.640564,-26.2661,4.143539,0.4799871,0.6897479,0.1,0.1345062,4.577637e-05,0.9909058,32.04134,-0.2486877,-26.67506,4.207886,0.4982224,0.5727189,0.05867589,1.214015,-0.1805366,-0.005915059,-0.03709251,0.02946728,1.0080737212901643,-0.28998544944812366,32.16796418935492
1,0.1042328,-0.02076721,0.9943237,0.1,0.0657196,-0.04710388,0.9967194,-31.59435,-3.640564,-26.2661,4.143539,0.4799871,0.6897479,0.1,0.1345062,4.577637e-05,0.9909058,32.04134,-0.2486877,-26.67506,4.207886,0.4982224,0.5727189,0.05864286,1.213833,-0.180419,-0.005460515,-0.03705975,0.0295337,1.0080737212901643,-0.28998544944812366,32.16796418935492
1,0.1042328,-0.02076721,0.9943237,0.1,0.0657196,-0.04710388,0.9967194,-31.59435,-3.640564,-26.2661,4.143539,0.4799871,0.6897479,0.1,0.1345062,4.577637e-05,0.9909058,32.04134,-0.2486877,-26.67506,4.207886,0.4982224,0.5727189,0.05864286,1.213833,-0.180419,-0.005460515,-0.03705975,0.0295337,1.0080737212901643,-0.28998544944812366,32.16796418935492
1,0.1031647,-0.02183533,0.9944153,0.1,0.06591797,-0.04519653,0.9967957,-31.59573,-3.640564,-26.26639,4.068558,0.4799871,0.6893593,0.1,0.1371613,-0.0003814697,0.9905396,32.04044,-0.236557,-26.70934,4.198639,0.4978068,0.5727189,0.05864322,1.213818,-0.1803356,-0.005174687,-0.03706498,0.02950594,1.0080737212901643,-0.28998544944812366,32.16796418935492
1,-0.02792358,0.01208496,0.999527,0.1,-0.05647278,-0.002151489,0.9983978,-32.31374,-3.404144,-26.48741,4.113449,0.5243605,0.6766607,0.1,0.02296448,0.03741455,0.9990234,31.16142,-0.02401733,-26.31577,4.028168,0.5467253,0.5551804,0.05866766,1.213665,-0.1802235,-0.00480126,-0.03708146,0.02951048,1.0080737212901643,13.08918,32.16796418935492
1,-0.02792358,0.01208496,0.999527,0.1,-0.05647278,-0.002151489,0.9983978,-32.31374,-3.404144,-26.48741,4.113449,0.5243605,0.6766607,0.1,0.02296448,0.03741455,0.9990234,31.16142,-0.02401733,-26.31577,4.028168,0.5467253,0.5551804,0.05866766,1.213665,-0.1802235,-0.00480126,-0.03708146,0.02951048,1.0080737212901643,13.08918,32.16796418935492
1,-0.02792358,0.01208496,0.999527,0.1,-0.05647278,-0.002151489,0.9983978,-32.31374,-3.404144,-26.48741,4.113449,0.5243605,0.6766607,0.1,0.02296448,0.03741455,0.9990234,31.16142,-0.02401733,-26.31577,4.028168,0.5467253,0.5551804,0.05862725,1.213612,-0.1801514,-0.004590234,-0.03699557,0.02952134,1.0080737212901643,13.08918,32.16796418935492
1,-0.02792358,0.01208496,0.999527,0.1,-0.05647278,-0.002151489,0.9983978,-32.31374,-3.404144,-26.48741,4.113449,0.5243605,0.6766607,0.1,0.02296448,0.03741455,0.9990234,31.16142,-0.02401733,-26.31577,4.028168,0.5467253,0.5551804,0.05866945,1.213469,-0.179997,-0.003852474,-0.03715191,0.02959142,1.0080737212901643,13.08918,32.16796418935492
1,-0.02792358,0.01208496,0.999527,0.1,-0.05647278,-0.002151489,0.9983978,-32.31374,-3.404144,-26.48741,4.113449,0.5243605,0.6766607,0.1,0.02296448,0.03741455,0.9990234,31.16142,-0.02401733,-26.31577,4.028168,0.5467253,0.5551804,0.05866945,1.213469,-0.179997,-0.003852474,-0.03715191,0.02959142,1.0080737212901643,13.08918,32.16796418935492
1,-0.02792358,0.01208496,0.999527,0.1,-0.05647278,-0.002151489,0.9983978,-32.31374,-3.404144,-26.48741,4.113449,0.5243605,0.6766607,0.1,0.02296448,0.03741455,0.9990234,31.16142,-0.02401733,-26.31577,4.028168,0.5467253,0.5551804,0.05866945,1.213469,-0.179997,-0.003852474,-0.03715191,0.02959142,1.0080737212901643,13.08918,32.16796418935492
1,-0.008804321,0.02366638,0.9996796,0.1,-0.0712738,-0.0111084,0.9973907,-32.49237,-3.703979,-25.17314,4.155228,0.5321674,0.6746987,0.1,0.0006408691,0.02893066,0.9995728,31.01379,-0.02049255,-26.18495,4.154373,0.5554064,0.5554115,0.05867565,1.213323,-0.1798996,-0.003402676,-0.03723745,0.02958764,1.0080737212901643,13.08918,32.16796418935492
1,-0.008804321,0.02366638,0.9996796,0.1,-0.0712738,-0.0111084,0.9973907,-32.49237,-3.703979,-25.17314,4.155228,0.5321674,0.6746987,0.1,0.0006408691,0.02893066,0.9995728,31.01379,-0.02049255,-26.18495,4.154373,0.5554064,0.5554115,0.05866921,1.213224,-0.1797618,-0.002865404,-0.03725865,0.02952866,1.0080737212901643,13.08918,32.16796418935492
1,-0.008804321,0.02366638,0.9996796,0.1,-0.0712738,-0.0111084,0.9973907,-32.49237,-3.703979,-25.17314,4.155228,0.5321674,0.6746987,0.1,0.0006408691,0.02893066,0.9995728,31.01379,-0.02049255,-26.18495,4.154373,0.5554064,0.5554115,0.05866921,1.213224,-0.1797618,-0.002865404,-0.03725865,0.02952866,1.0080737212901643,13.08918,32.16796418935492
1,-0.008804321,0.02366638,0.9996796,0.1,-0.0712738,-0.0111084,0.9973907,-32.49237,-3.703979,-25.17314,4.155228,0.5321674,0.6746987,0.1,0.0006408691,0.02893066,0.9995728,31.01379,-0.02049255,-26.18495,4.154373,0.5554064,0.5554115,0.05867028,1.21312,-0.1796424,-0.002247553,-0.03712082,0.02932509,1.0080737212901643,13.08918,32.16796418935492
1,-0.008804321,0.02366638,0.9996796,0.1,-0.0712738,-0.0111084,0.9973907,-32.49237,-3.703979,-25.17314,4.155228,0.5321674,0.6746987,0.1,0.0006408691,0.02893066,0.9995728,31.01379,-0.02049255,-26.18495,4.154373,0.5554064,0.5554115,0.05869079,1.213025,-0.1795408,-0.001655842,-0.03708447,0.02943642,1.0080737212901643,13.08918,32.16796418935492
1,-0.008804321,0.02366638,0.9996796,0.1,-0.0712738,-0.0111084,0.9973907,-32.49237,-3.703979,-25.17314,4.155228,0.5321674,0.6746987,0.1,0.0006408691,0.02893066,0.9995728,31.01379,-0.02049255,-26.18495,4.154373,0.5554064,0.5554115,0.05869079,1.213025,-0.1795408,-0.001655842,-0.03708447,0.02943642,1.0080737212901643,13.08918,32.16796418935492
1,-0.05632019,0.003479004,0.9983978,0.1,-0.08129883,0.003173828,0.9966736,-32.51683,-3.490341,-26.23816,3.759628,0.5352187,0.6758243,0.1,-0.01374817,0.004013062,0.9998932,30.99925,-0.001739502,-26.2332,3.694489,0.5583231,0.5590836,0.0586468,1.212868,-0.1794447,-0.001158061,-0.03706397,0.02959796,1.0080737212901643,13.08918,32.16796418935492
1,-0.05632019,0.003479004,0.9983978,0.1,-0.08129883,0.003173828,0.9966736,-32.51683,-3.490341,-26.23816,3.759628,0.5352187,0.6758243,0.1,-0.01374817,0.004013062,0.9998932,30.99925,-0.001739502,-26.2332,3.694489,0.5583231,0.5590836,0.0586468,1.212868,-0.1794447,-0.001158061,-0.03706397,0.02959796,1.0080737212901643,13.08918,32.16796418935492
1,-0.01600647,0.007949829,0.9998322,0.1,-0.07923889,0.001052856,0.9968414,-32.5177,-3.498032,-26.21953,3.754929,0.5348914,0.6762388,0.1,-0.01545715,0.007995605,0.9998474,31.00014,-0.006408691,-26.25256,3.658356,0.5585968,0.5587122,0.05865502,1.212691,-0.1793509,-0.0006459354,-0.03723124,0.02966032,1.0080737212901643,13.08918,32.16796418935492
1,-0.01600647,0.007949829,0.9998322,0.1,-0.07923889,0.001052856,0.9968414,-32.5177,-3.498032,-26.21953,3.754929,0.5348914,0.6762388,0.1,-0.01545715,0.007995605,0.9998474,31.00014,-0.006408691,-26.25256,3.658356,0.5585968,0.5587122,0.05865502,1.212691,-0.1793509,-0.0006459354,-0.03723124,0.02966032,1.0080737212901643,13.08918,32.16796418935492
1,-0.04638672,0.004821777,0.9989014,0.1,-0.07855225,0.0,0.9969025,-32.51758,-3.513901,-26.18666,3.752075,0.5347543,0.6765941,0.1,-0.01463318,0.00958252,0.9998322,31.00137,-0.006698608,-26.27351,3.647369,0.5584278,0.5586411,0.0585562,1.212538,-0.1792875,0.0,-0.03733277,0.02966836,1.0080737212901643,-12.79595,32.16796418935492
1,-0.04638672,0.004821777,0.9989014,0.1,-0.07855225,0.0,0.9969025,-32.51758,-3.513901,-26.18666,3.752075,0.5347543,0.6765941,0.1,-0.01463318,0.00958252,0.9998322,31.00137,-0.006698608,-26.27351,3.647369,0.5584278,0.5586411,0.0585562,1.212538,-0.1792875,0.0,-0.03733277,0.02966836,1.0080737212901643,-12.79595,32.16796418935492
1,-0.0471344,0.004348755,0.9988708,0.1,-0.079422,-0.0001983643,0.9968262,-32.51746,-3.520447,-26.17531,3.748627,0.5348914,0.6767354,0.1,-0.0161438,0.008712769,0.9998169,31.00237,-0.006408691,-26.27383,3.624298,0.5586491,0.5587685,0.05853939,1.212395,-0.1792065,0.0004048614,-0.03744257,0.02952815,1.0080737212901643,-12.79595,32.16796418935492
1,-0.0471344,0.004348755,0.9988708,0.1,-0.079422,-0.0001983643,0.9968262,-32.51746,-3.520447,-26.17531,3.748627,0.5348914,0.6767354,0.1,-0.0161438,0.008712769,0.9998169,31.00237,-0.006408691,-26.27383,3.624298,0.5586491,0.5587685,0.05853939,1.212395,-0.1792065,0.0004048614,-0.03744257,0.02952815,1.0080737212901643,-12.79595,32.16796418935492
1,-0.0471344,0.004348755,0.9988708,0.1,-0.079422,-0.0001983643,0.9968262,-32.51746,-3.520447,-26.17531,3.748627,0.5348914,0.6767354,0.1,-0.0161438,0.008712769,0.9998169,31.00237,-0.006408691,-26.27383,3.624298,0.5586491,0.5587685,0.05851984,1.212256,-0.1791068,0.0007720405,-0.0373894,0.02948244,1.0080737212901643,-12.79595,32.16796418935492
1,-0.0471344,0.004348755,0.9988708,0.1,-0.079422,-0.0001983643,0.9968262,-32.51746,-3.520447,-26.17531,3.748627,0.5348914,0.6767354,0.1,-0.0161438,0.008712769,0.9998169,31.00237,-0.006408691,-26.27383,3.624298,0.5586491,0.5587685,0.05851984,1.212256,-0.1791068,0.0007720405,-0.0373894,0.02948244,1.0080737212901643,-12.79595,32.16796418935492
1,-0.0471344,0.004348755,0.9988708,0.1,-0.079422,-0.0001983643,0.9968262,-32.51746,-3.520447,-26.17531,3.748627,0.5348914,0.6767354,0.1,-0.0161438,0.008712769,0.9998169,31.00237,-0.006408691,-26.27383,3.624298,0.5586491,0.5587685,0.05857491,1.212124,-0.1790467,0.001320392,-0.03747201,0.02953017,0.9382138,-12.79595,32.16796418935492
1,-0.0471344,0.004348755,0.9988708,0.1,-0.079422,-0.0001983643,0.9968262,-32.51746,-3.520447,-26.17531,3.748627,0.5348914,0.6767354,0.1,-0.0161438,0.008712769,0.9998169,31.00237,-0.006408691,-26.27383,3.624298,0.5586491,0.5587685,0.05857491,1.212124,-0.1790467,0.001320392,-0.03747201,0.02953017,0.9382138,-12.79595,32.16796418935492
1,-0.04753113,0.004547119,0.9988556,0.1,-0.0799408,0.001022339,0.9967957,-32.51758,-3.526703,-26.16913,3.737,0.534981,0.6766591,0.1,-0.01763916,0.007797241,0.9998016,31.00336,-0.006118774,-26.27417,3.601288,0.5588706,0.5588959,0.0586468,1.21199,-0.1789266,0.001814706,-0.03752526,0.02946955,0.9382138,-12.79595,32.16796418935492
1,-0.04753113,0.004547119,0.9988556,0.1,-0.0799408,0.001022339,0.9967957,-32.51758,-3.526703,-26.16913,3.737,0.534981,0.6766591,0.1,-0.01763916,0.007797241,0.9998016,31.00336,-0.006118774,-26.27417,3.601288,0.5588706,0.5588959,0.0586468,1.21199,-0.1789266,0.001814706,-0.03752526,0.02946955,0.9382138,-12.79595,32.16796418935492
1,-0.04753113,0.004547119,0.9988556,0.1,-0.0799408,0.001022339,0.9967957,-32.51758,-3.526703,-26.16913,3.737,0.534981,0.6766591,0.1,-0.01763916,0.007797241,0.9998016,31.00336,-0.006118774,-26.27417,3.601288,0.5588706,0.5588959,0.05868208,1.211882,-0.1789,0.002283726,-0.0374364,0.02936343,0.9382138,-12.79595,32.16796418935492
1,-0.04753113,0.004547119,0.9988556,0.1,-0.0799408,0.001022339,0.9967957,-32.51758,-3.526703,-26.16913,3.737,0.534981,0.6766591,0.1,-0.01763916,0.007797241,0.9998016,31.00336,-0.006118774,-26.27417,3.601288,0.5588706,0.5588959,0.05868208,1.211882,-0.1789,0.002283726,-0.0374364,0.02936343,0.9382138,-12.79595,32.16796418935492
1,-0.04750061,0.005126953,0.9988556,0.1,-0.07991028,0.002212524,0.9967957,-32.5177,-3.532959,-26.16293,3.725708,0.5349793,0.6765829,0.1,-0.01835632,0.007751465,0.9997864,31.00493,-0.006057739,-26.28375,3.59729,0.5589437,0.5589898,0.05873263,1.211673,-0.178846,0.002799645,-0.03741171,0.02932738,0.9382138,-12.79595,32.16796418935492
1,-0.04750061,0.005126953,0.9988556,0.1,-0.07991028,0.002212524,0.9967957,-32.5177,-3.532959,-26.16293,3.725708,0.5349793,0.6765829,0.1,-0.01835632,0.007751465,0.9997864,31.00493,-0.006057739,-26.28375,3.59729,0.5589437,0.5589898,0.05873263,1.211673,-0.178846,0.002799645,-0.03741171,0.02932738,0.9382138,-12.79595,32.16796418935492
1,-0.05368042,-0.002960205,0.9985504,0.1,-0.08285522,-0.006317139,0.9965363,-32.51973,-3.635513,-26.1068,3.494034,0.5355404,0.6806862,0.1,-0.02679443,0.0001068115,0.9996338,31.00298,-0.0763092,-26.30011,3.376022,0.5604388,0.5626444,0.05878723,1.211534,-0.1787549,0.00346989,-0.03734633,0.02940704,0.9382138,-52.19086,32.16796418935492
1,-0.05368042,-0.002960205,0.9985504,0.1,-0.08285522,-0.006317139,0.9965363,-32.51973,-3.635513,-26.1068,3.494034,0.5355404,0.6806862,0.1,-0.02679443,0.0001068115,0.9996338,31.00298,-0.0763092,-26.30011,3.376022,0.5604388,0.5626444,0.05878723,1.211534,-0.1787549,0.00346989,-0.03734633,0.02940704,0.9382138,-52.19086,32.16796418935492
1,-0.05368042,-0.002960205,0.9985504,0.1,-0.08285522,-0.006317139,0.9965363,-32.51973,-3.635513,-26.1068,3.494034,0.5355404,0.6806862,0.1,-0.02679443,0.0001068115,0.9996338,31.00298,-0.0763092,-26.30011,3.376022,0.5604388,0.5626444,0.0588268,1.211398,-0.1786769,0.004148596,-0.03720342,0.02924979,0.9382138,-52.19086,32.16796418935492
1,-0.05368042,-0.002960205,0.9985504,0.1,-0.08285522,-0.006317139,0.9965363,-32.51973,-3.635513,-26.1068,3.494034,0.5355404,0.6806862,0.1,-0.02679443,0.0001068115,0.9996338,31.00298,-0.0763092,-26.30011,3.376022,0.5604388,0.5626444,0.0588268,1.211398,-0.1786769,0.004148596,-0.03720342,0.02924979,0.9382138,-52.19086,32.16796418935492
1,-0.04940796,-0.01460266,0.9986572,0.1,-0.08453369,-0.03129578,0.9959259,-32.50778,-3.669281,-26.11118,3.264389,0.5354432,0.6859607,0.1,-0.02258301,-0.001861572,0.9997406,31.00545,-0.07522583,-26.33078,3.360916,0.5596564,0.5632269,0.05883658,1.211349,-0.1785588,0.004777926,-0.03693913,0.02917506,0.9382138,-52.19086,32.16796418935492
1,-0.04940796,-0.01460266,0.9986572,0.1,-0.08453369,-0.03129578,0.9959259,-32.50778,-3.669281,-26.11118,3.264389,0.5354432,0.6859607,0.1,-0.02258301,-0.001861572,0.9997406,31.00545,-0.07522583,-26.33078,3.360916,0.5596564,0.5632269,0.05883658,1.211349,-0.1785588,0.004777926,-0.03693913,0.02917506,0.9382138,-52.19086,32.16796418935492
1,-0.04940796,-0.01460266,0.9986572,0.1,-0.08453369,-0.03129578,0.9959259,-32.50778,-3.669281,-26.11118,3.264389,0.5354432,0.6859607,0.1,-0.02258301,-0.001861572,0.9997406,31.00545,-0.07522583,-26.33078,3.360916,0.5596564,0.5632269,0.05883658,1.211349,-0.1785588,0.004777926,-0.03693913,0.02917506,0.9382138,-52.19086,32.16796418935492
1,-0.06758118,-0.02455139,0.997406,0.1,-0.08306885,-0.03117371,0.996048,-32.50549,-3.656815,-26.17545,3.340561,0.5351408,0.6862537,0.1,-0.02229309,-0.005187988,0.9997253,31.00702,-0.07247925,-26.49648,3.224899,0.5596564,0.5651815,0.05891526,1.211131,-0.1784174,0.005495876,-0.03663838,0.02913443,0.9382138,-52.19086,32.85
1,-0.06687927,-0.02726746,0.9973755,0.1,-0.08251953,-0.03334045,0.9960175,-32.50552,-3.664597,-26.16267,3.338928,0.5350428,0.686752,0.1,-0.02372742,-0.01052856,0.999649,31.00919,-0.07522583,-26.48834,3.20871,0.5598191,0.5661126,0.05898595,1.21099,-0.1782556,0.006415373,-0.03634253,0.02929637,0.9382138,-52.19086,32.85
1,-0.06687927,-0.02726746,0.9973755,0.1,-0.08251953,-0.03334045,0.9960175,-32.50552,-3.664597,-26.16267,3.338928,0.5350428,0.686752,0.1,-0.02372742,-0.01052856,0.999649,31.00919,-0.07522583,-26.48834,3.20871,0.5598191,0.5661126,0.05898595,1.21099,-0.1782556,0.006415373,-0.03634253,0.02929637,0.9382138,-52.19086,32.85
1,-0.05621338,-0.02545166,0.9980927,0.1,-0.08241272,-0.03579712,0.9959412,-32.50604,-3.678894,-26.10005,3.336304,0.5350074,0.6869998,0.1,-0.02442932,-0.01289368,0.9996033,31.01181,-0.08378601,-26.47104,3.178146,0.5598354,0.5666128,0.05914283,1.210817,-0.1780944,0.007057945,-0.03606987,0.02929967,0.9382138,-52.19086,32.85
1,-0.05621338,-0.02545166,0.9980927,0.1,-0.08241272,-0.03579712,0.9959412,-32.50604,-3.678894,-26.10005,3.336304,0.5350074,0.6869998,0.1,-0.02442932,-0.01289368,0.9996033,31.01181,-0.08378601,-26.47104,3.178146,0.5598354,0.5666128,0.05914283,1.210817,-0.1780944,0.007057945,-0.03606987,0.02929967,0.9382138,-52.19086,32.85
1,-0.05621338,-0.02545166,0.9980927,0.1,-0.08241272,-0.03579712,0.9959412,-32.50604,-3.678894,-26.10005,3.336304,0.5350074,0.6869998,0.1,-0.02442932,-0.01289368,0.9996033,31.01181,-0.08378601,-26.47104,3.178146,0.5598354,0.5666128,0.0592308,1.210658,-0.1779422,0.007855298,-0.03571448,0.02938093,0.9382138,-52.19086,32.85
1,-0.05621338,-0.02545166,0.9980927,0.1,-0.08241272,-0.03579712,0.9959412,-32.50604,-3.678894,-26.10005,3.336304,0.5350074,0.6869998,0.1,-0.02442932,-0.01289368,0.9996033,31.01181,-0.08378601,-26.47104,3.178146,0.5598354,0.5666128,0.0592308,1.210658,-0.1779422,0.007855298,-0.03571448,0.02938093,0.9382138,-52.19086,32.85
1,-0.05621338,-0.02545166,0.9980927,0.1,-0.08241272,-0.03579712,0.9959412,-32.50604,-3.678894,-26.10005,3.336304,0.5350074,0.6869998,0.1,-0.02442932,-0.01289368,0.9996033,31.01181,-0.08378601,-26.47104,3.178146,0.5598354,0.5666128,0.05931878,1.210493,-0.1777388,0.008578861,-0.03545318,0.02934795,0.9382138,-52.19086,32.85
1,-0.05621338,-0.02545166,0.9980927,0.1,-0.08241272,-0.03579712,0.9959412,-32.50604,-3.678894,-26.10005,3.336304,0.5350074,0.6869998,0.1,-0.02442932,-0.01289368,0.9996033,31.01181,-0.08378601,-26.47104,3.178146,0.5598354,0.5666128,0.05931878,1.210493,-0.1777388,0.008578861,-0.03545318,0.02934795,0.9382138,-52.19086,32.85
1,-0.05064392,-0.02203369,0.9984589,0.1,-0.08250427,-0.03236389,0.9960632,-32.50554,-3.70195,-26.0976,3.33461,0.5350054,0.6871416,0.1,-0.02482605,-0.01367188,0.999588,31.01357,-0.09466553,-26.45868,3.170959,0.5598354,0.5669893,0.05938625,1.210331,-0.1775922,0.009341371,-0.03518845,0.02934262,0.9382138,-52.19086,32.85
1,-0.05064392,-0.02203369,0.9984589,0.1,-0.08250427,-0.03236389,0.9960632,-32.50554,-3.70195,-26.0976,3.33461,0.5350054,0.6871416,0.1,-0.02482605,-0.01367188,0.999588,31.01357,-0.09466553,-26.45868,3.170959,0.5598354,0.5669893,0.05938625,1.210331,-0.1775922,0.009341371,-0.03518845,0.02934262,0.9382138,-52.19086,32.85
1,-0.04432678,-0.01481628,0.9989014,0.1,-0.07897949,-0.0236969,0.996582,-32.48564,-3.806473,-25.98357,3.273102,0.5337059,0.6878605,0.1,-0.02761841,-0.01054382,0.9995575,31.01707,-0.1130371,-26.46661,3.163208,0.5601971,0.5671378,0.05947387,1.210087,-0.1774086,0.01011712,-0.0349008,0.02941895,0.9382138,17.34003,32.85
1,-0.04432678,-0.01481628,0.9989014,0.1,-0.07897949,-0.0236969,0.996582,-32.48564,-3.806473,-25.98357,3.273102,0.5337059,0.6878605,0.1,-0.02761841,-0.01054382,0.9995575,31.01707,-0.1130371,-26.46661,3.163208,0.5601971,0.5671378,0.05947387,1.210087,-0.1774086,0.01011712,-0.0349008,0.02941895,0.9382138,17.34003,32.85
1,-0.04432678,-0.01481628,0.9989014,0.1,-0.07897949,-0.0236969,0.996582,-32.48564,-3.806473,-25.98357,3.273102,0.5337059,0.6878605,0.1,-0.02761841,-0.01054382,0.9995575,31.01707,-0.1130371,-26.46661,3.163208,0.5601971,0.5671378,0.05950665,1.209979,-0.1773019,0.01053489,-0.03482493,0.02949558,0.9382138,17.34003,32.85
1,-0.04432678,-0.01481628,0.9989014,0.1,-0.07897949,-0.0236969,0.996582,-32.48564,-3.806473,-25.98357,3.273102,0.5337059,0.6878605,0.1,-0.02761841,-0.01054382,0.9995575,31.01707,-0.1130371,-26.46661,3.163208,0.5601971,0.5671378,0.05950665,1.209979,-0.1773019,0.01053489,-0.03482493,0.02949558,0.9382138,17.34003,32.85
1,-0.04432678,-0.01481628,0.9989014,0.1,-0.07897949,-0.0236969,0.996582,-32.48564,-3.806473,-25.98357,3.273102,0.5337059,0.6878605,0.1,-0.02761841,-0.01054382,0.9995575,31.01707,-0.1130371,-26.46661,3.163208,0.5601971,0.5671378,0.05961144,1.209852,-0.1771151,0.01119991,-0.03454568,0.02950366,0.9382138,17.34003,32.85
1,-0.04432678,-0.01481628,0.9989014,0.1,-0.07897949,-0.0236969,0.996582,-32.48564,-3.806473,-25.98357,3.273102,0.5337059,0.6878605,0.1,-0.02761841,-0.01054382,0.9995575,31.01707,-0.1130371,-26.46661,3.163208,0.5601971,0.5671378,0.05961144,1.209852,-0.1771151,0.01119991,-0.03454568,0.02950366,0.9382138,17.34003,32.85
1,-0.04205322,-0.02052307,0.9989014,0.1,-0.07958984,-0.02780151,0.9964294,-32.48239,-3.802368,-26.00209,3.281128,0.5337059,0.6886452,0.1,-0.02886963,-0.01795959,0.9994202,31.02304,-0.1378021,-26.45816,3.113693,0.5601971,0.5691432,0.05963123,1.209775,-0.1770213,0.01141341,-0.03438745,0.02959846,0.9382138,17.34003,32.85
1,-0.04411316,-0.02294922,0.9987488,0.1,-0.07443237,-0.03495789,0.9965973,-32.45972,-3.776764,-26.12506,3.187454,0.532157,0.690215,0.1,-0.03135681,-0.01789856,0.9993439,31.02707,-0.1567078,-26.44257,3.0336,0.560474,0.5695556,0.05971706,1.209705,-0.176931,0.01190358,-0.03406593,0.0297804,0.9382138,17.34003,32.85
1,-0.04411316,-0.02294922,0.9987488,0.1,-0.07443237,-0.03495789,0.9965973,-32.45972,-3.776764,-26.12506,3.187454,0.532157,0.690215,0.1,-0.03135681,-0.01789856,0.9993439,31.02707,-0.1567078,-26.44257,3.0336,0.560474,0.5695556,0.05971706,1.209705,-0.176931,0.01190358,-0.03406593,0.0297804,0.9382138,17.34003,32.85
1,-0.04705811,-0.02062988,0.9986725,0.1,-0.076828,-0.03152466,0.9965363,-32.45795,-3.778152,-26.13383,3.166306,0.5325112,0.6897531,0.1,-0.03511047,-0.01625061,0.9992371,31.04581,-0.1948547,-26.43166,3.008636,0.560474,0.5704341,0.05972505,1.209638,-0.1768732,0.01218259,-0.03381326,0.02995925,0.9382138,17.34003,32.85
1,-0.04998779,-0.02113342,0.9985199,0.1,-0.07736206,-0.03042603,0.9965363,-32.457,-3.777115,-26.13512,3.206329,0.5325639,0.6895712,0.1,-0.03575134,-0.01629639,0.9992218,31.04895,-0.2144012,-26.43166,2.994232,0.560474,0.571083,0.05972219,1.209598,-0.1767873,0.01242242,-0.03370998,0.02997765,0.9382138,17.34003,32.85
1,-0.0554657,-0.02655029,0.9980927,0.1,-0.07530212,-0.03065491,0.9966888,-32.45557,-3.77504,-26.13797,3.207352,0.5321704,0.6895712,0.1,-0.03765869,-0.02285767,0.9990234,31.06744,-0.2160797,-26.41769,2.957565,0.5601615,0.5721245,0.05973148,1.209547,-0.1767268,0.01258864,-0.033572,0.03001019,0.9382138,17.34003,32.85
1,-0.05690002,-0.02978516,0.9979248,0.1,-0.07292175,-0.03138733,0.9968414,-32.45424,-3.77684,-26.13797,3.169724,0.5317316,0.6897073,0.1,-0.03811646,-0.02790833,0.9988708,31.06967,-0.2180939,-26.41769,2.954193,0.5601615,0.5730723,0.05972171,1.209475,-0.1766657,0.0128962,-0.03322803,0.03024906,0.9382138,17.34003,32.85
1,-0.05690002,-0.02978516,0.9979248,0.1,-0.07292175,-0.03138733,0.9968414,-32.45424,-3.77684,-26.13797,3.169724,0.5317316,0.6897073,0.1,-0.03811646,-0.02790833,0.9988708,31.06967,-0.2180939,-26.41769,2.954193,0.5601615,0.5730723,0.05972171,1.209475,-0.1766657,0.0128962,-0.03322803,0.03024906,0.9382138,17.34003,32.85
1,-0.0567627,-0.03045654,0.9979095,0.1,-0.07331848,-0.03153992,0.9967957,-32.45227,-3.777863,-26.13512,3.170029,0.5317316,0.6897429,0.1,-0.03715515,-0.02915955,0.9988708,31.07083,-0.2180939,-26.41769,2.94809,0.5599564,0.5732857,0.05968964,1.209456,-0.1766813,0.01307407,-0.03317462,0.03034939,0.9382138,17.34003,32.85
1,-0.05580139,-0.03088379,0.9979553,0.1,-0.07415771,-0.03143311,0.9967346,-32.45024,-3.779175,-26.1324,3.169464,0.5318042,0.6897429,0.1,-0.03666687,-0.03030396,0.9988556,31.07347,-0.2180939,-26.41769,2.937134,0.559783,0.5734668,0.05968535,1.209398,-0.1766726,0.01334704,-0.03333414,0.0305749,0.9382138,32.75769,32.85
1,-0.05580139,-0.03088379,0.9979553,0.1,-0.07415771,-0.03143311,0.9967346,-32.45024,-3.779175,-26.1324,3.169464,0.5318042,0.6897429,0.1,-0.03666687,-0.03030396,0.9988556,31.07347,-0.2180939,-26.41769,2.937134,0.559783,0.5734668,0.05968535,1.209398,-0.1766726,0.01334704,-0.03333414,0.0305749,0.9382138,32.75769,32.85
1,-0.05580139,-0.03088379,0.9979553,0.1,-0.07415771,-0.03143311,0.9967346,-32.45024,-3.779175,-26.1324,3.169464,0.5318042,0.6897429,0.1,-0.03666687,-0.03030396,0.9988556,31.07347,-0.2180939,-26.41769,2.937134,0.559783,0.5734668,0.05957246,1.209395,-0.1766846,0.01350905,-0.03332251,0.03074985,0.9382138,32.75769,32.85
1,-0.05580139,-0.03088379,0.9979553,0.1,-0.07415771,-0.03143311,0.9967346,-32.45024,-3.779175,-26.1324,3.169464,0.5318042,0.6897429,0.1,-0.03666687,-0.03030396,0.9988556,31.07347,-0.2180939,-26.41769,2.937134,0.559783,0.5734668,0.05957246,1.209395,-0.1766846,0.01350905,-0.03332251,0.03074985,0.9382138,32.75769,32.85
1,-0.05580139,-0.03088379,0.9979553,0.1,-0.07415771,-0.03143311,0.9967346,-32.45024,-3.779175,-26.1324,3.169464,0.5318042,0.6897429,0.1,-0.03666687,-0.03030396,0.9988556,31.07347,-0.2180939,-26.41769,2.937134,0.559783,0.5734668,0.05951703,1.209378,-0.1766814,0.01348255,-0.0333252,0.03077891,0.9382138,32.75769,32.85
1,-0.05580139,-0.03088379,0.9979553,0.1,-0.07415771,-0.03143311,0.9967346,-32.45024,-3.779175,-26.1324,3.169464,0.5318042,0.6897429,0.1,-0.03666687,-0.03030396,0.9988556,31.07347,-0.2180939,-26.41769,2.937134,0.559783,0.5734668,0.05940878,1.209426,-0.1766999,0.01325349,-0.03354824,0.03092164,0.9382138,32.75769,32.85
1,-0.05578613,-0.03173828,0.9979248,0.1,-0.07493591,-0.03244019,0.9966583,-32.44626,-3.78093,-26.12631,3.169113,0.5317987,0.6899133,0.1,-0.03688049,-0.03105164,0.9988251,31.07495,-0.2193298,-26.41769,2.928604,0.5597682,0.5736394,0.05935109,1.209393,-0.1767166,0.01327651,-0.03370357,0.03098495,0.9382138,32.75769,32.85
1,-0.05578613,-0.03173828,0.9979248,0.1,-0.07493591,-0.03244019,0.9966583,-32.44626,-3.78093,-26.12631,3.169113,0.5317987,0.6899133,0.1,-0.03688049,-0.03105164,0.9988251,31.07495,-0.2193298,-26.41769,2.928604,0.5597682,0.5736394,0.05935109,1.209393,-0.1767166,0.01327651,-0.03370357,0.03098495,0.9382138,32.75769,32.85
1,-0.05699158,-0.03189087,0.9978638,0.1,-0.07550049,-0.03279114,0.9965973,-32.43848,-3.787704,-26.12631,3.170685,0.5316336,0.6901959,0.1,-0.03674316,-0.03089905,0.9988403,31.08035,-0.2180939,-26.42726,2.906967,0.5595688,0.5736394,0.05931211,1.209472,-0.1767761,0.01332413,-0.03405521,0.03121899,0.9382138,32.75769,32.85
1,-0.05810547,-0.03309631,0.997757,0.1,-0.07695007,-0.034729,0.9964294,-32.42908,-3.787704,-26.12631,3.170471,0.5315607,0.6905496,0.1,-0.03652954,-0.03121948,0.9988403,31.0807,-0.2193298,-26.43384,2.906631,0.5595251,0.5737995,0.05923843,1.209391,-0.1768496,0.01326697,-0.03421716,0.03109656,0.9382138,32.75769,32.85
1,-0.05848694,-0.03337097,0.9977264,0.1,-0.07702637,-0.03753662,0.9963074,-32.42749,-3.787704,-26.12631,3.177216,0.5315198,0.6910347,0.1,-0.03678894,-0.02848816,0.9989014,31.0807,-0.2289886,-26.43179,2.920731,0.5595688,0.5736394,0.0591532,1.209419,-0.1769087,0.01320392,-0.03439698,0.0312986,0.9382138,32.75769,32.85
1,-0.05848694,-0.03337097,0.9977264,0.1,-0.07702637,-0.03753662,0.9963074,-32.42749,-3.787704,-26.12631,3.177216,0.5315198,0.6910347,0.1,-0.03678894,-0.02848816,0.9989014,31.0807,-0.2289886,-26.43179,2.920731,0.5595688,0.5736394,0.0591532,1.209419,-0.1769087,0.01320392,-0.03439698,0.0312986,0.9382138,32.75769,32.85
2,-0.05792236,-0.03305054,0.9977722,0.1,-0.0765686,-0.03703308,0.9963684,-32.42749,-3.787476,-26.14699,3.178482,0.5314519,0.6911571,0.1,-0.03656006,-0.02848816,0.9989166,31.0807,-0.2313995,-26.424,2.907059,0.5595251,0.5736394,0.05910945,1.209429,-0.1769253,0.01319602,-0.0346512,0.03132097,0.9382138,32.75769,32.85
2,-0.05531311,-0.03242493,0.9979401,0.1,-0.07556152,-0.03489685,0.996521,-32.42749,-3.784195,-26.19217,3.181824,0.5313047,0.6911571,0.1,-0.03569031,-0.03001404,0.9989014,31.0807,-0.2326202,-26.40895,2.907135,0.5593646,0.5737995,0.05901968,1.20943,-0.1769639,0.01312923,-0.03499226,0.03122615,0.9382138,32.75769,32.85
2,-0.05433655,-0.03105164,0.9980316,0.1,-0.07546997,-0.0342865,0.9965515,-32.42749,-3.780731,-26.21878,3.181046,0.5313047,0.6912135,0.1,-0.03675842,-0.02835083,0.9989166,31.07631,-0.2339172,-26.40802,2.903427,0.5596971,0.5735453,0.05899143,1.209379,-0.1769582,0.01312015,-0.03507562,0.03117457,0.9382138,29.67468,32.85
2,-0.05433655,-0.03105164,0.9980316,0.1,-0.07546997,-0.0342865,0.9965515,-32.42749,-3.780731,-26.21878,3.181046,0.5313047,0.6912135,0.1,-0.03675842,-0.02835083,0.9989166,31.07631,-0.2339172,-26.40802,2.903427,0.5596971,0.5735453,0.05899143,1.209379,-0.1769582,0.01312015,-0.03507562,0.03117457,0.9382138,29.67468,32.85
2,-0.0544281,-0.03155518,0.9980164,0.1,-0.07632446,-0.03361511,0.9965057,-32.42749,-3.780731,-26.22324,3.182465,0.5314503,0.6911571,0.1,-0.03729248,-0.02993774,0.9988556,31.0752,-0.2339172,-26.40802,2.902985,0.5598242,0.5738205,0.05896509,1.209367,-0.176968,0.01318359,-0.03518167,0.03116023,0.9382138,29.67468,32.85
2,-0.0539856,-0.03094482,0.9980469,0.1,-0.07572937,-0.03359985,0.9965515,-32.43044,-3.780731,-26.22928,3.182388,0.5314519,0.6912135,0.1,-0.03671265,-0.02882385,0.9989014,31.0723,-0.2339172,-26.40895,2.903046,0.5598242,0.5736329,0.05891514,1.20939,-0.1769029,0.01327988,-0.03539597,0.03126645,0.9382138,29.67468,32.85
2,-0.05744934,-0.03114319,0.9978485,0.1,-0.0743103,-0.03370667,0.9966583,-32.43752,-3.781723,-26.23497,3.181503,0.5314519,0.6913139,0.1,-0.04269409,-0.02886963,0.9986572,31.06226,-0.2341003,-26.40895,2.85376,0.5611941,0.5736329,0.05892313,1.209358,-0.1768915,0.01343827,-0.03551072,0.03119775,0.9382138,29.67468,32.85
2,-0.05744934,-0.03114319,0.9978485,0.1,-0.0743103,-0.03370667,0.9966583,-32.43752,-3.781723,-26.23497,3.181503,0.5314519,0.6913139,0.1,-0.04269409,-0.02886963,0.9986572,31.06226,-0.2341003,-26.40895,2.85376,0.5611941,0.5736329,0.05892313,1.209358,-0.1768915,0.01343827,-0.03551072,0.03119775,0.9382138,29.67468,32.85
2,-0.05937195,-0.03096008,0.9977417,0.1,-0.07556152,-0.03369141,0.9965668,-32.44505,-3.781723,-26.23497,3.180817,0.5319135,0.6913188,0.1,-0.04328918,-0.02824402,0.9986572,31.05127,-0.2393951,-26.40802,2.853226,0.5616679,0.5736985,0.05892313,1.209358,-0.1768915,0.01343827,-0.03551072,0.03119775,0.9382138,29.67468,32.85
2,-0.05937195,-0.0302124,0.9977722,0.1,-0.07458496,-0.03210449,0.9966888,-32.44995,-3.790024,-26.23557,3.181198,0.5319135,0.6913188,0.1,-0.04362488,-0.02824402,0.998642,31.04543,-0.239975,-26.40616,2.853455,0.5619223,0.5736985,0.05895793,1.209308,-0.1768939,0.01355915,-0.0353945,0.03121183,0.9382138,29.67468,32.85
2,-0.06048584,-0.03067017,0.9976959,0.1,-0.07443237,-0.0330658,0.9966736,-32.45255,-3.79277,-26.23566,3.18103,0.5319759,0.6915909,0.1,-0.0440979,-0.02787781,0.9986267,31.03918,-0.244873,-26.39671,2.839722,0.5622085,0.5736985,0.05896842,1.209342,-0.1768492,0.01366533,-0.03542816,0.03135663,0.9382138,29.67468,32.85
2,-0.06048584,-0.03067017,0.9976959,0.1,-0.07443237,-0.0330658,0.9966736,-32.45255,-3.79277,-26.23566,3.18103,0.5319759,0.6915909,0.1,-0.0440979,-0.02787781,0.9986267,31.03918,-0.244873,-26.39671,2.839722,0.5622085,0.5736985,0.05896842,1.209342,-0.1768492,0.01366533,-0.03542816,0.03135663,0.9382138,29.67468,32.85
2,-0.06213379,-0.03076172,0.9975891,0.1,-0.07551575,-0.03297424,0.9965973,-32.45605,-3.794357,-26.23692,3.180771,0.5322754,0.6916373,0.1,-0.04653931,-0.02818298,0.9985046,31.03398,-0.246582,-26.39578,2.846756,0.5628007,0.5738205,0.05905449,1.209351,-0.176827,0.01369964,-0.03536564,0.03142428,0.9382138,29.67468,32.85
2,-0.06185913,-0.0309906,0.9975891,0.1,-0.07350159,-0.03312683,0.9967346,-32.45927,-3.796082,-26.23557,3.180695,0.5320416,0.6917065,0.1,-0.04820251,-0.02848816,0.9984283,31.02879,-0.2528076,-26.39554,2.839798,0.563261,0.5740754,0.05908942,1.209288,-0.1768105,0.01379827,-0.03513272,0.0314939,0.9382138,29.67468,32.85
2,-0.06185913,-0.0309906,0.9975891,0.1,-0.07350159,-0.03312683,0.9967346,-32.45927,-3.796082,-26.23557,3.180695,0.5320416,0.6917065,0.1,-0.04820251,-0.02848816,0.9984283,31.02879,-0.2528076,-26.39554,2.839798,0.563261,0.5740754,0.05908942,1.209288,-0.1768105,0.01379827,-0.03513272,0.0314939,0.9382138,29.67468,32.85
2,-0.06288147,-0.03166199,0.9975128,0.1,-0.0736084,-0.03334045,0.9967194,-32.46107,-3.796082,-26.23692,3.170334,0.532123,0.6917461,0.1,-0.0506134,-0.02973938,0.9982605,31.02199,-0.2536316,-26.39473,2.846588,0.5639033,0.5743359,0.05924988,1.209179,-0.1767932,0.0138414,-0.03481016,0.03137777,0.9382138,29.67468,32.85
2,-0.06288147,-0.03166199,0.9975128,0.1,-0.0736084,-0.03334045,0.9967194,-32.46107,-3.796082,-26.23692,3.170334,0.532123,0.6917461,0.1,-0.0506134,-0.02973938,0.9982605,31.02199,-0.2536316,-26.39473,2.846588,0.5639033,0.5743359,0.05924988,1.209179,-0.1767932,0.0138414,-0.03481016,0.03137777,0.9382138,29.67468,32.85
2,-0.06187439,-0.03155518,0.9975739,0.1,-0.07305908,-0.03370667,0.9967499,-32.46359,-3.795181,-26.25131,3.158188,0.532123,0.6919201,0.1,-0.04985046,-0.02923584,0.9983215,31.01886,-0.256485,-26.39473,2.851273,0.5638776,0.5743431,0.05933237,1.209166,-0.1767616,0.01388546,-0.03450447,0.03129932,0.9382138,17.73161,32.85
2,-0.06187439,-0.03155518,0.9975739,0.1,-0.07305908,-0.03370667,0.9967499,-32.46359,-3.795181,-26.25131,3.158188,0.532123,0.6919201,0.1,-0.04985046,-0.02923584,0.9983215,31.01886,-0.256485,-26.39473,2.851273,0.5638776,0.5743431,0.05933237,1.209166,-0.1767616,0.01388546,-0.03450447,0.03129932,0.9382138,15.10682,32.85
2,-0.06141663,-0.03147888,0.9976044,0.1,-0.07284546,-0.03320313,0.9967804,-32.46458,-3.795181,-26.25893,3.157959,0.532123,0.6919201,0.1,-0.04957581,-0.02967834,0.9983215,31.01671,-0.2565308,-26.39578,2.851151,0.5639033,0.5744259,0.05943513,1.20915,-0.1766893,0.01411906,-0.03417228,0.03147379,0.9382138,9.734245,32.85
2,-0.06141663,-0.03147888,0.9976044,0.1,-0.07284546,-0.03320313,0.9967804,-32.46458,-3.795181,-26.25893,3.157959,0.532123,0.6919201,0.1,-0.04957581,-0.02967834,0.9983215,31.01671,-0.2565308,-26.39578,2.851151,0.5639033,0.5744259,0.05943513,1.20915,-0.1766893,0.01411906,-0.03417228,0.03147379,0.9382138,9.734245,32.85
2,-0.06167603,-0.0308075,0.9976196,0.1,-0.07284546,-0.03251648,0.9968109,-32.46646,-3.798615,-26.27228,3.146317,0.5321945,0.6920423,0.1,-0.0499115,-0.02900696,0.9983215,31.01671,-0.256485,-26.40764,2.851044,0.5639713,0.5744259,0.05964303,1.209078,-0.1766155,0.01451457,-0.03399872,0.03161032,0.9382138,9.734245,32.85
2,-0.06167603,-0.0308075,0.9976196,0.1,-0.07284546,-0.03251648,0.9968109,-32.46646,-3.798615,-26.27228,3.146317,0.5321945,0.6920423,0.1,-0.0499115,-0.02900696,0.9983215,31.01671,-0.256485,-26.40764,2.851044,0.5639713,0.5744259,0.05964303,1.209078,-0.1766155,0.01451457,-0.03399872,0.03161032,0.9382138,9.734245,32.85
2,-0.0622406,-0.03193665,0.9975433,0.1,-0.07284546,-0.03390503,0.9967651,-32.46646,-3.798843,-26.27228,3.147919,0.5321945,0.6922946,0.1,-0.0499115,-0.02964783,0.9983063,31.01671,-0.253479,-26.42455,2.833664,0.5639837,0.5745825,0.05972636,1.20897,-0.1766192,0.01489908,-0.03363542,0.03168448,0.9382138,9.734245,32.85
2,-0.0622406,-0.03193665,0.9975433,0.1,-0.07284546,-0.03390503,0.9967651,-32.46646,-3.798843,-26.27228,3.147919,0.5321945,0.6922946,0.1,-0.0499115,-0.02964783,0.9983063,31.01671,-0.253479,-26.42455,2.833664,0.5639837,0.5745825,0.05972636,1.20897,-0.1766192,0.01489908,-0.03363542,0.03168448,0.9382138,9.734245,32.85
2,-0.06332397,-0.03132629,0.9974976,0.1,-0.07220459,-0.03399658,0.9967957,-32.46646,-3.80246,-26.27228,3.129105,0.5320878,0.6924042,0.1,-0.05104065,-0.02761841,0.9983063,31.02336,-0.2501373,-26.4688,2.833282,0.5639837,0.574545,0.05987358,1.208945,-0.1766006,0.01520939,-0.0332856,0.03166213,0.9382138,9.734245,32.85
2,-0.06332397,-0.03132629,0.9974976,0.1,-0.07220459,-0.03399658,0.9967957,-32.46646,-3.80246,-26.27228,3.129105,0.5320878,0.6924042,0.1,-0.05104065,-0.02761841,0.9983063,31.02336,-0.2501373,-26.4688,2.833282,0.5639837,0.574545,0.05987358,1.208945,-0.1766006,0.01520939,-0.0332856,0.03166213,0.9382138,9.734245,32.85
2,-0.06517029,-0.03181458,0.9973602,0.1,-0.07272339,-0.03410339,0.9967651,-32.46341,-3.812729,-26.2655,3.091599,0.5320765,0.6926659,0.1,-0.0524292,-0.0279541,0.99823,31.02571,-0.2443085,-26.51379,2.798004,0.5641763,0.574828,0.06004882,1.209023,-0.1765627,0.01525977,-0.0329687,0.03154355,0.9382138,9.734245,32.85
2,-0.06517029,-0.03181458,0.9973602,0.1,-0.07272339,-0.03410339,0.9967651,-32.46341,-3.812729,-26.2655,3.091599,0.5320765,0.6926659,0.1,-0.0524292,-0.0279541,0.99823,31.02571,-0.2443085,-26.51379,2.798004,0.5641763,0.574828,0.06004882,1.209023,-0.1765627,0.01525977,-0.0329687,0.03154355,0.9382138,9.734245,32.85
2,-0.06642151,-0.03089905,0.9972992,0.1,-0.07336426,-0.03233337,0.9967651,-32.46057,-3.833603,-26.22894,3.092987,0.5320731,0.6926735,0.1,-0.0556488,-0.02868652,0.9980316,31.02574,-0.2403717,-26.52109,2.757965,0.564739,0.5748789,0.06022894,1.209021,-0.1765833,0.015392,-0.03278968,0.03167601,0.9382138,9.734245,32.85
2,-0.06642151,-0.03089905,0.9972992,0.1,-0.07336426,-0.03233337,0.9967651,-32.46057,-3.833603,-26.22894,3.092987,0.5320731,0.6926735,0.1,-0.0556488,-0.02868652,0.9980316,31.02574,-0.2403717,-26.52109,2.757965,0.564739,0.5748789,0.06022894,1.209021,-0.1765833,0.015392,-0.03278968,0.03167601,0.9382138,9.734245,32.85
2,-0.06570435,-0.03001404,0.9973755,0.1,-0.07293701,-0.03207397,0.9968109,-32.45674,-3.838531,-26.21686,3.110229,0.5318619,0.6926735,0.1,-0.05722046,-0.02760315,0.9979706,31.02763,-0.2371674,-26.53474,2.720932,0.5649604,0.5746825,0.0604012,1.209078,-0.1765758,0.01520057,-0.03261038,0.03164754,0.9382138,9.734245,32.85
2,-0.06570435,-0.03001404,0.9973755,0.1,-0.07293701,-0.03207397,0.9968109,-32.45674,-3.838531,-26.21686,3.110229,0.5318619,0.6926735,0.1,-0.05722046,-0.02760315,0.9979706,31.02763,-0.2371674,-26.53474,2.720932,0.5649604,0.5746825,0.0604012,1.209078,-0.1765758,0.01520057,-0.03261038,0.03164754,0.9382138,9.734245,32.85
2,-0.06546021,-0.03050232,0.9973755,0.1,-0.07341003,-0.03230286,0.9967651,-32.45477,-3.84642,-26.18761,3.110779,0.5318619,0.6926735,0.1,-0.05783081,-0.02877808,0.9979095,31.028,-0.2339325,-26.54294,2.72023,0.5650561,0.5748603,0.06055951,1.209128,-0.1765581,0.01496494,-0.03248883,0.03138442,0.9382138,-15.08792,32.85
2,-0.06546021,-0.03050232,0.9973755,0.1,-0.07341003,-0.03230286,0.9967651,-32.45477,-3.84642,-26.18761,3.110779,0.5318619,0.6926735,0.1,-0.05783081,-0.02877808,0.9979095,31.028,-0.2339325,-26.54294,2.72023,0.5650561,0.5748603,0.06055951,1.209128,-0.1765581,0.01496494,-0.03248883,0.03138442,0.9382138,-15.08792,32.85
2,-0.06555176,-0.03074646,0.9973602,0.1,-0.07426453,-0.03236389,0.9967041,-32.4505,-3.854233,-26.17477,3.079941,0.5318619,0.6927863,0.1,-0.05714417,-0.02919006,0.9979248,31.02824,-0.2299194,-26.55502,2.753922,0.5649348,0.5749385,0.0606575,1.209089,-0.1766251,0.01492157,-0.03226307,0.03086666,0.9382138,-15.08792,32.85
2,-0.06555176,-0.03074646,0.9973602,0.1,-0.07426453,-0.03236389,0.9967041,-32.4505,-3.854233,-26.17477,3.079941,0.5318619,0.6927863,0.1,-0.05714417,-0.02919006,0.9979248,31.02824,-0.2299194,-26.55502,2.753922,0.5649348,0.5749385,0.0606575,1.209089,-0.1766251,0.01492157,-0.03226307,0.03086666,0.9382138,-15.08792,32.85
2,-0.06588745,-0.03190613,0.9973145,0.1,-0.0740509,-0.03372192,0.9966736,-32.44826,-3.858414,-26.17273,3.040771,0.5317551,0.6931029,0.1,-0.05725098,-0.02998352,0.9978943,31.02956,-0.2276001,-26.5657,2.75351,0.5649183,0.5751074,0.060817,1.209034,-0.176636,0.01483594,-0.03216292,0.03045819,0.9382138,-15.08792,32.85
2,-0.06588745,-0.03190613,0.9973145,0.1,-0.0740509,-0.03372192,0.9966736,-32.44826,-3.858414,-26.17273,3.040771,0.5317551,0.6931029,0.1,-0.05725098,-0.02998352,0.9978943,31.02956,-0.2276001,-26.5657,2.75351,0.5649183,0.5751074,0.060817,1.209034,-0.176636,0.01483594,-0.03216292,0.03045819,0.9382138,-15.08792,32.85
2,-0.06666565,-0.0355835,0.9971313,0.1,-0.0743866,-0.03993225,0.9964142,-32.44667,-3.861282,-26.17088,3.02475,0.5317551,0.6942514,0.1,-0.05744934,-0.03038025,0.997879,31.03076,-0.2243042,-26.5766,2.753067,0.5649183,0.5751653,0.06102979,1.208991,-0.1766245,0.01501961,-0.03206455,0.03011626,0.9382138,-15.08792,32.85
2,-0.06666565,-0.0355835,0.9971313,0.1,-0.0743866,-0.03993225,0.9964142,-32.44667,-3.861282,-26.17088,3.02475,0.5317551,0.6942514,0.1,-0.05744934,-0.03038025,0.997879,31.03076,-0.2243042,-26.5766,2.753067,0.5649183,0.5751653,0.06102979,1.208991,-0.1766245,0.01501961,-0.03206455,0.03011626,0.9382138,-15.08792,32.85
2,-0.06625366,-0.03625488,0.9971313,0.1,-0.07446289,-0.0405426,0.9963837,-32.44505,-3.866837,-26.17088,3.014877,0.5317161,0.694539,0.1,-0.05607605,-0.03092957,0.9979401,31.03206,-0.2225189,-26.60706,2.751984,0.5646574,0.5754921,0.06120741,1.208973,-0.1765062,0.01513967,-0.03180816,0.02954908,0.9382138,-15.08792,32.85
2,-0.06625366,-0.03625488,0.9971313,0.1,-0.07446289,-0.0405426,0.9963837,-32.44505,-3.866837,-26.17088,3.014877,0.5317161,0.694539,0.1,-0.05607605,-0.03092957,0.9979401,31.03206,-0.2225189,-26.60706,2.751984,0.5646574,0.5754921,0.06120741,1.208973,-0.1765062,0.01513967,-0.03180816,0.02954908,0.9382138,-15.08792,32.85
2,-0.06658936,-0.0358429,0.9971313,0.1,-0.07467651,-0.04037476,0.9963837,-32.44505,-3.876053,-26.16531,2.978302,0.5317551,0.6947272,0.1,-0.0536499,-0.02857971,0.9981384,31.03374,-0.2225189,-26.65614,2.794983,0.5642145,0.5755806,0.06135821,1.208898,-0.1763989,0.01517212,-0.03145911,0.02918783,0.9382138,-15.08792,32.85
2,-0.06658936,-0.0358429,0.9971313,0.1,-0.07467651,-0.04037476,0.9963837,-32.44505,-3.876053,-26.16531,2.978302,0.5317551,0.6947272,0.1,-0.0536499,-0.02857971,0.9981384,31.03374,-0.2225189,-26.65614,2.794983,0.5642145,0.5755806,0.06135821,1.208898,-0.1763989,0.01517212,-0.03145911,0.02918783,0.9382138,-15.08792,32.85
2,-0.06742859,-0.03607178,0.9970703,0.1,-0.07580566,-0.03729248,0.9964142,-32.44505,-3.91391,-26.12923,2.950943,0.5319334,0.6950583,0.1,-0.05357361,-0.0340271,0.9979706,31.03374,-0.2225189,-26.67451,2.742813,0.5642145,0.5766754,0.06158674,1.208822,-0.1762216,0.01535128,-0.03119918,0.02885227,0.9382138,-15.08792,32.85
2,-0.06742859,-0.03607178,0.9970703,0.1,-0.07580566,-0.03729248,0.9964142,-32.44505,-3.91391,-26.12923,2.950943,0.5319334,0.6950583,0.1,-0.05357361,-0.0340271,0.9979706,31.03374,-0.2225189,-26.67451,2.742813,0.5642145,0.5766754,0.06158674,1.208822,-0.1762216,0.01535128,-0.03119918,0.02885227,0.9382138,-15.08792,32.85
2,-0.0652771,-0.03579712,0.9972229,0.1,-0.07571411,-0.03834534,0.9963837,-32.44672,-3.92749,-26.1273,2.928619,0.5319753,0.6956522,0.1,-0.0514679,-0.03242493,0.9981384,31.03374,-0.2251434,-26.6819,2.742935,0.5638556,0.576543,0.06170988,1.208751,-0.1760502,0.01554325,-0.03096907,0.02885743,0.9382138,-15.08792,32.85
2,-0.0652771,-0.03579712,0.9972229,0.1,-0.07571411,-0.03834534,0.9963837,-32.44672,-3.92749,-26.1273,2.928619,0.5319753,0.6956522,0.1,-0.0514679,-0.03242493,0.9981384,31.03374,-0.2251434,-26.6819,2.742935,0.5638556,0.576543,0.06170988,1.208751,-0.1760502,0.01554325,-0.03096907,0.02885743,0.9382138,-15.08792,32.85
2,-0.06524658,-0.03593445,0.9972076,0.1,-0.0753479,-0.03851318,0.9963989,-32.44725,-3.92749,-26.1273,2.909485,0.5319334,0.6956639,0.1,-0.05476379,-0.0332489,0.9979401,31.03285,-0.230072,-26.69359,2.734467,0.5644616,0.5769756,0.0618186,1.208572,-0.1759015,0.01612253,-0.03070305,0.02879307,0.9382138,-46.8802,32.85
2,-0.06524658,-0.03593445,0.9972076,0.1,-0.0753479,-0.03851318,0.9963989,-32.44725,-3.92749,-26.1273,2.909485,0.5319334,0.6956639,0.1,-0.05476379,-0.0332489,0.9979401,31.03285,-0.230072,-26.69359,2.734467,0.5644616,0.5769756,0.0618186,1.208572,-0.1759015,0.01612253,-0.03070305,0.02879307,0.9382138,-46.8802,32.85
2,-0.06634521,-0.03890991,0.9970245,0.1,-0.07481384,-0.04476929,0.9961853,-32.44724,-3.929031,-26.12923,2.906174,0.5318376,0.6968234,0.1,-0.05670166,-0.03222656,0.9978638,31.03203,-0.2436523,-26.6819,2.727356,0.5648152,0.5771402,0.0618459,1.20848,-0.1758162,0.01648356,-0.03051612,0.02862751,0.9382138,-46.8802,32.85
2,-0.06636047,-0.03886414,0.9970245,0.1,-0.07473755,-0.04464722,0.9962006,-32.44724,-3.929031,-26.14757,2.896637,0.5318376,0.6969969,0.1,-0.05670166,-0.0322113,0.9978638,31.03203,-0.2447357,-26.67899,2.72084,0.5648152,0.5771402,0.06191587,1.208373,-0.1757467,0.0167539,-0.03038129,0.02862829,0.9382138,-46.8802,32.85
2,-0.06636047,-0.03886414,0.9970245,0.1,-0.07473755,-0.04464722,0.9962006,-32.44724,-3.929031,-26.14757,2.896637,0.5318376,0.6969969,0.1,-0.05670166,-0.0322113,0.9978638,31.03203,-0.2447357,-26.67899,2.72084,0.5648152,0.5771402,0.06191587,1.208373,-0.1757467,0.0167539,-0.03038129,0.02862829,0.9382138,-46.8802,32.85
2,-0.06547546,-0.03860474,0.9971008,0.1,-0.07255554,-0.04504395,0.9963379,-32.44624,-3.927505,-26.15961,2.896225,0.5314413,0.6971267,0.1,-0.0579071,-0.03173828,0.9978027,31.03185,-0.2477722,-26.67786,2.69722,0.5650315,0.5771402,0.06195557,1.208302,-0.1756333,0.01715511,-0.03035602,0.02858479,0.9382138,-46.8802,32.85
2,-0.0643158,-0.03694153,0.9972382,0.1,-0.07196045,-0.04521179,0.9963684,-32.44516,-3.927094,-26.17538,2.895599,0.5313124,0.6973026,0.1,-0.05667114,-0.02865601,0.9979706,31.03185,-0.2597961,-26.67451,2.706848,0.5648152,0.5769756,0.06199026,1.208119,-0.1754118,0.01770146,-0.03009027,0.02861397,0.9382138,-46.8802,32.85
2,-0.0643158,-0.03694153,0.9972382,0.1,-0.07196045,-0.04521179,0.9963684,-32.44516,-3.927094,-26.17538,2.895599,0.5313124,0.6973026,0.1,-0.05667114,-0.02865601,0.9979706,31.03185,-0.2597961,-26.67451,2.706848,0.5648152,0.5769756,0.06199026,1.208119,-0.1754118,0.01770146,-0.03009027,0.02861397,0.9382138,-46.8802,32.85
2,-0.06518555,-0.03607178,0.9972076,0.1,-0.07214355,-0.04455566,0.9963837,-32.44414,-3.926605,-26.18111,2.894409,0.5313124,0.6972372,0.1,-0.05854797,-0.02798462,0.997879,31.03203,-0.2618866,-26.67786,2.721817,0.5651329,0.5769756,0.06197274,1.208031,-0.1753637,0.01796757,-0.0300082,0.0286517,0.9382138,-46.8802,32.85
2,-0.06530762,-0.03656006,0.9971924,0.1,-0.07151794,-0.04449463,0.9964447,-32.44182,-3.927094,-26.18111,2.89563,0.5311299,0.6972372,0.1,-0.05932617,-0.02891541,0.997818,31.03189,-0.2618866,-26.67863,2.70668,0.5652735,0.5771402,0.0619837,1.207952,-0.175238,0.01827185,-0.02996795,0.02868133,0.9382138,-46.8802,32.85
2,-0.06549072,-0.03671265,0.9971619,0.1,-0.07157898,-0.04444885,0.9964294,-32.43965,-3.927505,-26.18111,2.895691,0.5310667,0.6972372,0.1,-0.05934143,-0.02890015,0.997818,31.03189,-0.2618866,-26.67786,2.722961,0.5652735,0.5771402,0.06196153,1.207789,-0.1750416,0.01874843,-0.02994109,0.02867145,0.9382138,-46.8802,32.85
2,-0.06544495,-0.03804016,0.9971161,0.1,-0.07141113,-0.04562378,0.9963989,-32.43704,-3.932785,-26.17538,2.878372,0.5309513,0.6975488,0.1,-0.05854797,-0.02926636,0.9978485,31.03185,-0.2618866,-26.67102,2.728256,0.5651329,0.5771402,0.06193912,1.207693,-0.1748961,0.01899047,-0.02986859,0.02873713,0.9382138,-46.8802,32.85
2,-0.06544495,-0.03804016,0.9971161,0.1,-0.07141113,-0.04562378,0.9963989,-32.43704,-3.932785,-26.17538,2.878372,0.5309513,0.6975488,0.1,-0.05854797,-0.02926636,0.9978485,31.03185,-0.2618866,-26.67102,2.728256,0.5651329,0.5771402,0.06193912,1.207693,-0.1748961,0.01899047,-0.02986859,0.02873713,0.9382138,-46.8802,32.85
2,-0.06581116,-0.03865051,0.9970703,0.1,-0.07202148,-0.04370117,0.9964447,-32.43408,-3.932785,-26.173,2.894852,0.5309513,0.6972057,0.1,-0.0585022,-0.03268433,0.9977417,31.03152,-0.2597961,-26.66782,2.722305,0.5651329,0.5776366,0.06186867,1.2076,-0.1747104,0.01929097,-0.02980166,0.028653,0.9382138,-46.8802,32.85
2,-0.06565857,-0.0393219,0.9970551,0.1,-0.07176208,-0.04476929,0.9964142,-32.43265,-3.934174,-26.15523,2.883987,0.5308528,0.6972372,0.1,-0.05848694,-0.03291321,0.9977417,31.03117,-0.2585754,-26.66782,2.729156,0.5651419,0.5776366,0.0618571,1.207402,-0.174449,0.01969233,-0.02975713,0.02881635,0.9382138,-46.8802,32.85
2,-0.06506348,-0.03662109,0.9972076,0.1,-0.07194519,-0.04400635,0.9964294,-32.43141,-3.943405,-26.13699,2.884613,0.5308331,0.6972179,0.1,-0.0581665,-0.02922058,0.9978638,31.02988,-0.2562408,-26.66782,2.729935,0.5651329,0.5769106,0.06187809,1.207356,-0.1743116,0.02003516,-0.02976914,0.02881273,0.9382138,-46.8802,32.85
2,-0.06506348,-0.03662109,0.9972076,0.1,-0.07194519,-0.04400635,0.9964294,-32.43141,-3.943405,-26.13699,2.884613,0.5308331,0.6972179,0.1,-0.0581665,-0.02922058,0.9978638,31.02988,-0.2562408,-26.66782,2.729935,0.5651329,0.5769106,0.06187809,1.207356,-0.1743116,0.02003516,-0.02976914,0.02881273,0.9382138,-46.8802,32.85
2,-0.06535339,-0.03575134,0.9972076,0.1,-0.07214355,-0.04444885,0.9963989,-32.43115,-3.943466,-26.12717,2.896042,0.5308528,0.6972057,0.1,-0.05900574,-0.02764893,0.9978638,31.02945,-0.2562408,-26.66782,2.723602,0.5652945,0.5766367,0.06183922,1.207294,-0.1741972,0.02023534,-0.02983839,0.02889201,0.9382138,12.87018,32.85
2,-0.06578064,-0.03567505,0.9971924,0.1,-0.07344055,-0.04385376,0.9963226,-32.43115,-3.943466,-26.11684,2.896393,0.5310667,0.6970012,0.1,-0.05877686,-0.0282135,0.9978638,31.02809,-0.2562408,-26.65781,2.723969,0.5652945,0.5766367,0.06178439,1.207203,-0.1740916,0.020576,-0.0297441,0.0289,0.9382138,12.87018,32.85
2,-0.06495667,-0.03536987,0.9972534,0.1,-0.07218933,-0.04191589,0.9965057,-32.43115,-3.944733,-26.1086,2.911591,0.5308497,0.6966194,0.1,-0.05801392,-0.02909851,0.997879,31.02652,-0.2562408,-26.65152,2.702957,0.5652106,0.5767082,0.06168747,1.207016,-0.1739008,0.02121812,-0.02971177,0.02913596,0.9382138,12.87018,32.85
2,-0.06654358,-0.03515625,0.9971619,0.1,-0.07620239,-0.0402832,0.9962769,-32.43141,-3.943466,-26.10368,2.913345,0.531535,0.6962586,0.1,-0.05630493,-0.02972412,0.9979553,31.0218,-0.2585754,-26.62962,2.737808,0.5650581,0.5767082,0.06170309,1.206908,-0.1737688,0.02140621,-0.02978741,0.02919217,0.9382138,12.87018,32.85
2,-0.06654358,-0.03515625,0.9971619,0.1,-0.07620239,-0.0402832,0.9962769,-32.43141,-3.943466,-26.10368,2.913345,0.531535,0.6962586,0.1,-0.05630493,-0.02972412,0.9979553,31.0218,-0.2585754,-26.62962,2.737808,0.5650581,0.5767082,0.06170309,1.206908,-0.1737688,0.02140621,-0.02978741,0.02919217,0.9382138,12.87018,32.85
2,-0.06680298,-0.03627014,0.9971008,0.1,-0.07646179,-0.03945923,0.9962769,-32.43167,-3.943466,-26.09778,2.948624,0.5315815,0.6960886,0.1,-0.05438232,-0.03216553,0.9980011,31.01971,-0.260376,-26.58025,2.738693,0.5647596,0.5767082,0.06163657,1.206909,-0.1736766,0.02155846,-0.02986909,0.02928263,0.9382138,12.87018,32.85
2,-0.06878662,-0.03544617,0.996994,0.1,-0.0763092,-0.03871155,0.9963226,-32.4325,-3.944733,-26.09755,2.951447,0.5315815,0.6959923,0.1,-0.05627441,-0.03001404,0.9979553,31.01776,-0.2619171,-26.57182,2.744278,0.5651489,0.5763105,0.06157637,1.206898,-0.1735675,0.02172166,-0.02990698,0.02926634,0.9382138,12.87018,32.85
2,-0.07029724,-0.03282166,0.9969788,0.1,-0.07820129,-0.03511047,0.9963074,-32.4326,-3.943436,-26.08801,2.949997,0.5319023,0.695225,0.1,-0.05595398,-0.02865601,0.9980164,31.01604,-0.2653809,-26.56712,2.744766,0.5651489,0.5761446,0.06151736,1.206871,-0.1735156,0.0217597,-0.02995104,0.02933119,0.9382138,12.87018,32.85
2,-0.07020569,-0.03237915,0.996994,0.1,-0.07804871,-0.03437805,0.9963531,-32.43454,-3.943268,-26.08754,2.953415,0.5319414,0.6950904,0.1,-0.05503845,-0.02850342,0.9980621,31.00877,-0.2720795,-26.53062,2.758301,0.5652106,0.5759968,0.06139898,1.20685,-0.1733898,0.02163884,-0.03012962,0.02940425,0.9382138,12.87018,32.85
2,-0.06947327,-0.0302887,0.9971161,0.1,-0.07765198,-0.03250122,0.9964447,-32.43741,-3.940155,-26.08754,2.953979,0.5319709,0.6946595,0.1,-0.05488586,-0.02636719,0.9981384,31.0078,-0.2808685,-26.52307,2.78067,0.5652106,0.5758701,0.06136096,1.206877,-0.1733377,0.0216192,-0.03024044,0.02938778,0.9382138,12.87018,32.85
2,-0.06947327,-0.0302887,0.9971161,0.1,-0.07765198,-0.03250122,0.9964447,-32.43741,-3.940155,-26.08754,2.953979,0.5319709,0.6946595,0.1,-0.05488586,-0.02636719,0.9981384,31.0078,-0.2808685,-26.52307,2.78067,0.5652106,0.5758701,0.06136096,1.206877,-0.1733377,0.0216192,-0.03024044,0.02938778,0.9382138,12.87018,32.85
2,-0.06968689,-0.03050232,0.9971008,0.1,-0.07705688,-0.03105164,0.9965363,-32.44052,-3.937988,-26.08754,2.987823,0.5319709,0.6943727,0.1,-0.05445862,-0.02937317,0.9980774,31.00371,-0.2897034,-26.4342,2.781967,0.5652106,0.5758338,0.06125069,1.206929,-0.1733609,0.02157125,-0.03030714,0.02938296,0.9382138,12.87018,32.85
2,-0.07232666,-0.0289917,0.9969482,0.1,-0.07688904,-0.02914429,0.9965973,-32.44225,-3.935516,-26.08754,3.015579,0.5319974,0.69397,0.1,-0.05429077,-0.02835083,0.9981079,31.00134,-0.3003998,-26.35947,2.795212,0.5652106,0.5752999,0.06120884,1.206948,-0.1733617,0.02158367,-0.03045771,0.02945843,0.9382138,12.87018,32.85
2,-0.07359314,-0.02932739,0.9968414,0.1,-0.07669067,-0.02935791,0.9966125,-32.44333,-3.932755,-26.08754,3.019485,0.5319974,0.6939225,0.1,-0.05343628,-0.02906799,0.9981384,30.99747,-0.3124084,-26.29741,2.799515,0.5651489,0.5752234,0.06115758,1.206941,-0.1733436,0.02158333,-0.03049657,0.02933297,0.9382138,12.87018,32.85
2,-0.07542419,-0.03372192,0.9965668,0.1,-0.07849121,-0.03410339,0.9963226,-32.4438,-3.88443,-26.12393,3.045532,0.5323284,0.6935474,0.1,-0.05525208,-0.03112793,0.9979858,30.9913,-0.3132477,-26.2397,2.800262,0.5656286,0.5750717,0.06111872,1.20692,-0.1733518,0.02150968,-0.03043715,0.02950392,0.9382138,20.1406,32.85
2,-0.07542419,-0.03372192,0.9965668,0.1,-0.07849121,-0.03410339,0.9963226,-32.4438,-3.88443,-26.12393,3.045532,0.5323284,0.6935474,0.1,-0.05525208,-0.03112793,0.9979858,30.9913,-0.3132477,-26.2397,2.800262,0.5656286,0.5750717,0.06111872,1.20692,-0.1733518,0.02150968,-0.03043715,0.02950392,0.9382138,20.1406,32.85
2,-0.07330322,-0.03155518,0.9967957,0.1,-0.07817078,-0.03161621,0.9964294,-32.44473,-3.86795,-26.16376,3.05365,0.5323284,0.6929868,0.1,-0.05679321,-0.03138733,0.997879,30.98067,-0.3132477,-26.23425,2.800323,0.5662462,0.5750717,0.06106031,1.206956,-0.1733756,0.02144724,-0.03048216,0.029423,0.8856824,20.1406,32.85
2,-0.07093811,-0.03137207,0.9969788,0.1,-0.07861328,-0.03135681,0.9963989,-32.44531,-3.865829,-26.16768,3.056396,0.5324244,0.6929186,0.1,-0.05686951,-0.03138733,0.997879,30.97746,-0.3132477,-26.23425,2.800385,0.5663696,0.5750717,0.06099403,1.206983,-0.1734498,0.02118474,-0.03035798,0.02959595,0.8856824,20.1406,32.85
2,-0.06694031,-0.02947998,0.9973145,0.1,-0.0788269,-0.03010559,0.9964294,-32.44641,-3.858871,-26.18547,3.061432,0.5325063,0.6926678,0.1,-0.05278015,-0.0287323,0.9981842,30.9603,-0.3132477,-26.23425,2.819687,0.5662462,0.5746083,0.06099403,1.206983,-0.1734498,0.02118474,-0.03035798,0.02959595,0.8856824,20.1406,32.85
2,-0.06694031,-0.02947998,0.9973145,0.1,-0.0788269,-0.03010559,0.9964294,-32.44641,-3.858871,-26.18547,3.061432,0.5325063,0.6926678,0.1,-0.05278015,-0.0287323,0.9981842,30.9603,-0.3132477,-26.23425,2.819687,0.5662462,0.5746083,0.06099403,1.206983,-0.1734498,0.02118474,-0.03035798,0.02959595,0.8856824,20.1406,32.85
2,-0.0644989,-0.02653503,0.9975586,0.1,-0.07849121,-0.02961731,0.99646,-32.45329,-3.853256,-26.19008,3.090652,0.5326774,0.6924659,0.1,-0.05206299,-0.02380371,0.9983521,30.9532,-0.3066101,-26.23425,2.815567,0.5663696,0.5735236,0.06097198,1.206999,-0.1735364,0.02128264,-0.03034202,0.02958008,0.8856824,20.1406,32.85
2,-0.06460571,-0.02801514,0.9975128,0.1,-0.07749939,-0.03030396,0.996521,-32.45796,-3.841766,-26.21512,3.089951,0.5326774,0.692466,0.1,-0.05114746,-0.02561951,0.9983521,30.94896,-0.2898102,-26.25089,2.81488,0.5663696,0.5734341,0.06092405,1.207005,-0.173702,0.02116926,-0.03014964,0.02962061,0.8856824,20.1406,32.85
2,-0.06602478,-0.02986145,0.9973602,0.1,-0.0774231,-0.03083801,0.9965057,-32.45822,-3.836151,-26.22414,3.089828,0.5326774,0.6924659,0.1,-0.05006409,-0.0284729,0.9983368,30.94598,-0.2409973,-26.3703,2.811539,0.5663696,0.5734341,0.06086981,1.207036,-0.1738752,0.02095987,-0.03016347,0.02965228,0.8856824,20.1406,32.85
2,-0.06602478,-0.02986145,0.9973602,0.1,-0.0774231,-0.03083801,0.9965057,-32.45822,-3.836151,-26.22414,3.089828,0.5326774,0.6924659,0.1,-0.05006409,-0.0284729,0.9983368,30.94598,-0.2409973,-26.3703,2.811539,0.5663696,0.5734341,0.06086981,1.207036,-0.1738752,0.02095987,-0.03016347,0.02965228,0.8856824,20.1406,32.85
3,-0.07392883,-0.03007507,0.9967957,0.1,-0.07843018,-0.0307312,0.9964447,-32.46152,-3.827332,-26.22414,3.113113,0.5329544,0.6921735,0.1,-0.0532074,-0.02705383,0.9982147,30.94128,-0.2166901,-26.42744,2.811035,0.5671136,0.5729386,0.06078506,1.207196,-0.1741806,0.02045179,-0.03008235,0.02979666,0.8856824,20.1406,32.85
3,-0.07392883,-0.03007507,0.9967957,0.1,-0.07843018,-0.0307312,0.9964447,-32.46152,-3.827332,-26.22414,3.113113,0.5329544,0.6921735,0.1,-0.0532074,-0.02705383,0.9982147,30.94128,-0.2166901,-26.42744,2.811035,0.5671136,0.5729386,0.06078506,1.207196,-0.1741806,0.02045179,-0.03008235,0.02979666,0.8856824,20.1406,32.85
3,-0.07426453,-0.03057861,0.9967651,0.1,-0.07667542,-0.03091431,0.9965668,-32.46219,-3.823013,-26.22414,3.135208,0.5326774,0.6920775,0.1,-0.04307556,-0.02619934,0.9987183,30.91939,-0.1070251,-26.77408,2.809113,0.5663696,0.5724097,0.06072211,1.20728,-0.1742979,0.02014826,-0.03012665,0.0298289,0.8856824,20.1406,32.85
3,-0.07426453,-0.03057861,0.9967651,0.1,-0.07667542,-0.03091431,0.9965668,-32.46219,-3.823013,-26.22414,3.135208,0.5326774,0.6920775,0.1,-0.04307556,-0.02619934,0.9987183,30.91939,-0.1070251,-26.77408,2.809113,0.5663696,0.5724097,0.06072211,1.20728,-0.1742979,0.02014826,-0.03012665,0.0298289,0.8856824,20.1406,32.85
3,-0.07550049,-0.02947998,0.9967041,0.1,-0.07566833,-0.02952576,0.9966888,-32.46829,-3.794678,-26.29227,3.067047,0.5327547,0.6915349,0.1,-0.04669189,-0.02142334,0.9986725,30.90707,-0.05010986,-26.87766,2.924911,0.5674866,0.5707705,0.06078064,1.207414,-0.1743464,0.01986036,-0.03024783,0.02998311,0.8856824,20.1406,32.85
3,-0.07550049,-0.02947998,0.9967041,0.1,-0.07566833,-0.02952576,0.9966888,-32.46829,-3.794678,-26.29227,3.067047,0.5327547,0.6915349,0.1,-0.04669189,-0.02142334,0.9986725,30.90707,-0.05010986,-26.87766,2.924911,0.5674866,0.5707705,0.06078064,1.207414,-0.1743464,0.01986036,-0.03024783,0.02998311,0.8856824,20.1406,32.85
3,-0.09240723,-0.06838989,0.9933624,0.1,-0.0927124,-0.06838989,0.9933319,-32.46791,-4.020966,-26.17784,3.365311,0.5354754,0.7050452,0.1,-0.03709412,-0.06884766,0.996933,30.76331,-0.2606659,-26.9176,3.078293,0.5706846,0.5867089,0.06070101,1.207501,-0.1744553,0.01947701,-0.03034178,0.02999702,0.8856824,19.22126,32.85
3,-0.09240723,-0.06838989,0.9933624,0.1,-0.0927124,-0.06838989,0.9933319,-32.46791,-4.020966,-26.17784,3.365311,0.5354754,0.7050452,0.1,-0.03709412,-0.06884766,0.996933,30.76331,-0.2606659,-26.9176,3.078293,0.5706846,0.5867089,0.06070101,1.207501,-0.1744553,0.01947701,-0.03034178,0.02999702,0.8856824,19.22126,32.85
3,-0.08724976,-0.07888794,0.9930573,0.1,-0.09805298,-0.07987976,0.9919586,-32.48628,-4.132278,-26.05389,3.277679,0.5369321,0.7094377,0.1,-0.03517151,-0.07392883,0.9966278,30.75748,-0.4070282,-26.67278,3.093979,0.5703524,0.590143,0.0605669,1.207613,-0.17456,0.01915065,-0.03044425,0.0300536,0.8856824,19.22126,32.85
3,-0.08724976,-0.07888794,0.9930573,0.1,-0.09805298,-0.07987976,0.9919586,-32.48628,-4.132278,-26.05389,3.277679,0.5369321,0.7094377,0.1,-0.03517151,-0.07392883,0.9966278,30.75748,-0.4070282,-26.67278,3.093979,0.5703524,0.590143,0.0605669,1.207613,-0.17456,0.01915065,-0.03044425,0.0300536,0.8856824,19.22126,32.85
3,-0.07952881,-0.08239746,0.9934082,0.1,-0.0974884,-0.08514404,0.9915771,-32.49127,-4.134735,-26.04065,3.258545,0.5369918,0.7102746,0.1,-0.03793335,-0.07594299,0.9963837,30.76559,-0.4151306,-26.65207,3.064194,0.5705322,0.5905502,0.06056058,1.207737,-0.1745958,0.01892247,-0.03045183,0.02985536,0.8856824,19.22126,32.85
3,-0.07952881,-0.08239746,0.9934082,0.1,-0.0974884,-0.08514404,0.9915771,-32.49127,-4.134735,-26.04065,3.258545,0.5369918,0.7102746,0.1,-0.03793335,-0.07594299,0.9963837,30.76559,-0.4151306,-26.65207,3.064194,0.5705322,0.5905502,0.06056058,1.207737,-0.1745958,0.01892247,-0.03045183,0.02985536,0.8856824,19.22126,32.85
3,-0.07246399,-0.08026123,0.9941254,0.1,-0.1022797,-0.08479309,0.9911194,-32.49403,-4.124893,-26.06839,3.254944,0.5379068,0.7102143,0.1,-0.03871155,-0.07505798,0.9964142,30.76689,-0.4257355,-26.61801,3.048889,0.5705984,0.590422,0.06054962,1.207773,-0.1746355,0.01870785,-0.03045624,0.02985287,0.8856824,19.22126,32.85
3,-0.07246399,-0.08026123,0.9941254,0.1,-0.1022797,-0.08479309,0.9911194,-32.49403,-4.124893,-26.06839,3.254944,0.5379068,0.7102143,0.1,-0.03871155,-0.07505798,0.9964142,30.76689,-0.4257355,-26.61801,3.048889,0.5705984,0.590422,0.06054962,1.207773,-0.1746355,0.01870785,-0.03045624,0.02985287,0.8856824,19.22126,32.85
3,-0.07106018,-0.07939148,0.9942932,0.1,-0.1020355,-0.08491516,0.9911346,-32.49817,-4.117264,-26.08855,3.254425,0.5380151,0.7101941,0.1,-0.03927612,-0.07363892,0.9965057,30.7692,-0.4312744,-26.59676,3.035919,0.5705984,0.5901358,0.06056178,1.207771,-0.1746669,0.01866159,-0.03046211,0.03011032,0.8856824,19.22126,32.85
3,-0.07106018,-0.07939148,0.9942932,0.1,-0.1020355,-0.08491516,0.9911346,-32.49817,-4.117264,-26.08855,3.254425,0.5380151,0.7101941,0.1,-0.03927612,-0.07363892,0.9965057,30.7692,-0.4312744,-26.59676,3.035919,0.5705984,0.5901358,0.06056178,1.207771,-0.1746669,0.01866159,-0.03046211,0.03011032,0.8856824,19.22126,32.85
3,-0.06980896,-0.07843018,0.9944611,0.1,-0.1024628,-0.08569336,0.9910278,-32.50238,-4.08783,-26.15613,3.255646,0.5382662,0.710072,0.1,-0.04013062,-0.07176208,0.9966125,30.77197,-0.4323273,-26.5844,3.046463,0.5706444,0.5897357,0.0605768,1.207741,-0.1746756,0.01867237,-0.03044963,0.03013778,0.8856824,19.22126,32.85
3,-0.06980896,-0.07843018,0.9944611,0.1,-0.1024628,-0.08569336,0.9910278,-32.50238,-4.08783,-26.15613,3.255646,0.5382662,0.710072,0.1,-0.04013062,-0.07176208,0.9966125,30.77197,-0.4323273,-26.5844,3.046463,0.5706444,0.5897357,0.0605768,1.207741,-0.1746756,0.01867237,-0.03044963,0.03013778,0.8856824,19.22126,32.85
3,-0.06756592,-0.07582092,0.9948273,0.1,-0.1030426,-0.08546448,0.9909821,-32.50659,-4.071075,-26.18747,3.266388,0.5385206,0.7098277,0.1,-0.04244995,-0.06893921,0.9967041,30.77469,-0.4464111,-26.54002,3.048981,0.570915,0.5892835,0.06055987,1.207724,-0.1746857,0.01881547,-0.03030492,0.02993337,0.8856824,19.22126,32.85
3,-0.06756592,-0.07582092,0.9948273,0.1,-0.1030426,-0.08546448,0.9909821,-32.50659,-4.071075,-26.18747,3.266388,0.5385206,0.7098277,0.1,-0.04244995,-0.06893921,0.9967041,30.77469,-0.4464111,-26.54002,3.048981,0.570915,0.5892835,0.06055987,1.207724,-0.1746857,0.01881547,-0.03030492,0.02993337,0.8856824,19.22126,32.85
3,-0.07099915,-0.0771637,0.9944763,0.1,-0.1053314,-0.08660889,0.9906464,-32.50891,-4.056824,-26.20474,3.287216,0.5389881,0.7097626,0.1,-0.04360962,-0.06956482,0.9966125,30.77606,-0.4464111,-26.51761,3.053345,0.5710493,0.5891798,0.06065297,1.207696,-0.1746619,0.01899361,-0.0302823,0.02989601,0.8856824,-3.195221,32.85
3,-0.07099915,-0.0771637,0.9944763,0.1,-0.1053314,-0.08660889,0.9906464,-32.50891,-4.056824,-26.20474,3.287216,0.5389881,0.7097626,0.1,-0.04360962,-0.06956482,0.9966125,30.77606,-0.4464111,-26.51761,3.053345,0.5710493,0.5891798,0.06065297,1.207696,-0.1746619,0.01899361,-0.0302823,0.02989601,0.8856824,-3.195221,32.85
3,-0.07749939,-0.07495117,0.9941559,0.1,-0.1084747,-0.07980347,0.9908752,-32.51363,-4.04892,-26.22685,3.311844,0.5396861,0.7085771,0.1,-0.04374695,-0.06958008,0.9966125,30.77991,-0.4464111,-26.495,3.053864,0.5709274,0.5889598,0.06070173,1.207663,-0.1745617,0.01904688,-0.03013778,0.02981766,0.8856824,-3.195221,32.85
3,-0.07749939,-0.07495117,0.9941559,0.1,-0.1084747,-0.07980347,0.9908752,-32.51363,-4.04892,-26.22685,3.311844,0.5396861,0.7085771,0.1,-0.04374695,-0.06958008,0.9966125,30.77991,-0.4464111,-26.495,3.053864,0.5709274,0.5889598,0.06070173,1.207663,-0.1745617,0.01904688,-0.03013778,0.02981766,0.8856824,-3.195221,32.85
3,-0.07852173,-0.07554626,0.9940338,0.1,-0.1092377,-0.08311462,0.9905243,-32.51784,-4.024933,-26.23099,3.32576,0.5399519,0.7084238,0.1,-0.04605103,-0.06748962,0.9966431,30.78244,-0.4443359,-26.4751,3.112167,0.5712163,0.5883625,0.06082404,1.207703,-0.1744256,0.0190883,-0.03000994,0.02979166,0.8856824,-3.195221,32.85
3,-0.07852173,-0.07554626,0.9940338,0.1,-0.1092377,-0.08311462,0.9905243,-32.51784,-4.024933,-26.23099,3.32576,0.5399519,0.7084238,0.1,-0.04605103,-0.06748962,0.9966431,30.78244,-0.4443359,-26.4751,3.112167,0.5712163,0.5883625,0.06082404,1.207703,-0.1744256,0.0190883,-0.03000994,0.02979166,0.8856824,-3.195221,32.85
3,-0.07839966,-0.07673645,0.9939575,0.1,-0.1082306,-0.08346558,0.9906006,-32.52287,-4.018082,-26.23759,3.338333,0.5399519,0.7083241,0.1,-0.04728699,-0.06967163,0.9964447,30.78461,-0.421875,-26.4751,3.122559,0.5713578,0.5880061,0.06092978,1.207662,-0.1743059,0.01912496,-0.03000597,0.02954959,0.8856824,-3.195221,32.85
3,-0.07839966,-0.07673645,0.9939575,0.1,-0.1082306,-0.08346558,0.9906006,-32.52287,-4.018082,-26.23759,3.338333,0.5399519,0.7083241,0.1,-0.04728699,-0.06967163,0.9964447,30.78461,-0.421875,-26.4751,3.122559,0.5713578,0.5880061,0.06092978,1.207662,-0.1743059,0.01912496,-0.03000597,0.02954959,0.8856824,-3.195221,32.85
3,-0.0796051,-0.07183838,0.9942322,0.1,-0.1089783,-0.0809021,0.9907379,-32.52876,-4.011887,-26.23759,3.345734,0.5402734,0.7076789,0.1,-0.04899597,-0.06236267,0.9968414,30.78763,-0.4116058,-26.48552,3.133636,0.5715585,0.5864875,0.06102169,1.207624,-0.1741809,0.01931028,-0.03006996,0.02941059,0.8856824,-3.195221,32.85
3,-0.0796051,-0.07183838,0.9942322,0.1,-0.1089783,-0.0809021,0.9907379,-32.52876,-4.011887,-26.23759,3.345734,0.5402734,0.7076789,0.1,-0.04899597,-0.06236267,0.9968414,30.78763,-0.4116058,-26.48552,3.133636,0.5715585,0.5864875,0.06102169,1.207624,-0.1741809,0.01931028,-0.03006996,0.02941059,0.8856824,-3.195221,32.85
3,-0.08032227,-0.0717926,0.9941711,0.1,-0.1090546,-0.08013916,0.9907837,-32.52946,-4.00798,-26.23306,3.347885,0.5403086,0.7073619,0.1,-0.05053711,-0.06309509,0.9967194,30.78786,-0.4044647,-26.4882,3.143921,0.5718163,0.5864112,0.06117809,1.207564,-0.1739721,0.01962107,-0.02997069,0.02916331,0.8856824,-3.195221,32.85
3,-0.08032227,-0.0717926,0.9941711,0.1,-0.1090546,-0.08013916,0.9907837,-32.52946,-4.00798,-26.23306,3.347885,0.5403086,0.7073619,0.1,-0.05053711,-0.06309509,0.9967194,30.78786,-0.4044647,-26.4882,3.143921,0.5718163,0.5864112,0.06117809,1.207564,-0.1739721,0.01962107,-0.02997069,0.02916331,0.8856824,-3.195221,32.85
3,-0.08067322,-0.07095337,0.9942017,0.1,-0.1087799,-0.0789032,0.990921,-32.53323,-4.003998,-26.22614,3.351578,0.5403831,0.7069468,0.1,-0.05084229,-0.06245422,0.9967499,30.78786,-0.3907623,-26.48552,3.157715,0.5718677,0.5858302,0.06120515,1.207459,-0.1737968,0.01976107,-0.02991246,0.02898341,0.8856824,-3.195221,32.85
3,-0.08067322,-0.07095337,0.9942017,0.1,-0.1087799,-0.0789032,0.990921,-32.53323,-4.003998,-26.22614,3.351578,0.5403831,0.7069468,0.1,-0.05084229,-0.06245422,0.9967499,30.78786,-0.3907623,-26.48552,3.157715,0.5718677,0.5858302,0.06120515,1.207459,-0.1737968,0.01976107,-0.02991246,0.02898341,0.8856824,-3.195221,32.85
3,-0.08172607,-0.07049561,0.9941559,0.1,-0.1083984,-0.07653809,0.9911499,-32.53519,-4.003098,-26.22205,3.352234,0.5403831,0.7064487,0.1,-0.05351257,-0.0640564,0.9965057,30.78763,-0.3847351,-26.46623,3.15802,0.5723163,0.5857308,0.06127942,1.207316,-0.1735721,0.02000278,-0.02984738,0.02898881,0.8856824,-3.195221,32.85
3,-0.08172607,-0.07049561,0.9941559,0.1,-0.1083984,-0.07653809,0.9911499,-32.53519,-4.003098,-26.22205,3.352234,0.5403831,0.7064487,0.1,-0.05351257,-0.0640564,0.9965057,30.78763,-0.3847351,-26.46623,3.15802,0.5723163,0.5857308,0.06127942,1.207316,-0.1735721,0.02000278,-0.02984738,0.02898881,0.8856824,-3.195221,32.85
3,-0.08125305,-0.07235718,0.9940491,0.1,-0.1080475,-0.0765686,0.9911804,-32.53569,-3.99617,-26.22159,3.349411,0.5403409,0.706208,0.1,-0.05290222,-0.06784058,0.9962921,30.78447,-0.3823242,-26.46623,3.147827,0.5723163,0.5862965,0.06134856,1.207152,-0.1733375,0.02033268,-0.02971002,0.0287143,0.8856824,-32.65066,32.85
3,-0.08125305,-0.07235718,0.9940491,0.1,-0.1080475,-0.0765686,0.9911804,-32.53569,-3.99617,-26.22159,3.349411,0.5403409,0.706208,0.1,-0.05290222,-0.06784058,0.9962921,30.78447,-0.3823242,-26.46623,3.147827,0.5723163,0.5862965,0.06134856,1.207152,-0.1733375,0.02033268,-0.02971002,0.0287143,0.8856824,-32.65066,32.85
3,-0.08096313,-0.07104492,0.9941711,0.1,-0.1079254,-0.07580566,0.9912567,-32.53638,-3.995636,-26.21472,3.348877,0.5403409,0.7059885,0.1,-0.05239868,-0.06594849,0.9964447,30.78195,-0.3781281,-26.46532,3.157593,0.5723163,0.5858302,0.06141341,1.207075,-0.1732153,0.02052887,-0.02963419,0.02867847,0.8856824,-32.65066,32.85
3,-0.08280945,-0.07058716,0.9940491,0.1,-0.1091003,-0.07528687,0.9911652,-32.5367,-3.992233,-26.21472,3.34671,0.5405487,0.7057924,0.1,-0.05221558,-0.06507874,0.9965057,30.78105,-0.3742981,-26.46263,3.154678,0.5723163,0.585514,0.06156385,1.206917,-0.1729529,0.02092749,-0.02952108,0.0284806,0.8856824,-32.65066,32.85
3,-0.08280945,-0.07058716,0.9940491,0.1,-0.1091003,-0.07528687,0.9911652,-32.5367,-3.992233,-26.21472,3.34671,0.5405487,0.7057924,0.1,-0.05221558,-0.06507874,0.9965057,30.78105,-0.3742981,-26.46263,3.154678,0.5723163,0.585514,0.06156385,1.206917,-0.1729529,0.02092749,-0.02952108,0.0284806,0.8856824,-32.65066,32.85
3,-0.0811615,-0.07266235,0.9940338,0.1,-0.1090698,-0.07458496,0.9912262,-32.5368,-3.99054,-26.21472,3.347214,0.5405487,0.7056003,0.1,-0.05198669,-0.07060242,0.9961395,30.78105,-0.3706512,-26.45682,3.147476,0.5722684,0.5862965,0.06162632,1.206848,-0.1727847,0.02125181,-0.02948573,0.02840621,0.8856824,-32.65066,32.85
3,-0.0811615,-0.07266235,0.9940338,0.1,-0.1090698,-0.07458496,0.9912262,-32.5368,-3.99054,-26.21472,3.347214,0.5405487,0.7056003,0.1,-0.05198669,-0.07060242,0.9961395,30.78105,-0.3706512,-26.45682,3.147476,0.5722684,0.5862965,0.06162632,1.206848,-0.1727847,0.02125181,-0.02948573,0.02840621,0.8856824,-32.65066,32.85
3,-0.0811615,-0.07266235,0.9940338,0.1,-0.1090698,-0.07458496,0.9912262,-32.5368,-3.99054,-26.21472,3.347214,0.5405487,0.7056003,0.1,-0.05198669,-0.07060242,0.9961395,30.78105,-0.3706512,-26.45682,3.147476,0.5722684,0.5862965,0.06168127,1.206793,-0.1726162,0.02138392,-0.02936774,0.02825051,0.8856824,-32.65066,32.85
3,-0.0811615,-0.07266235,0.9940338,0.1,-0.1090698,-0.07458496,0.9912262,-32.5368,-3.99054,-26.21472,3.347214,0.5405487,0.7056003,0.1,-0.05198669,-0.07060242,0.9961395,30.78105,-0.3706512,-26.45682,3.147476,0.5722684,0.5862965,0.06174469,1.206649,-0.1723354,0.02174565,-0.02912445,0.02811648,0.8856824,-32.65066,32.85
3,-0.0811615,-0.07266235,0.9940338,0.1,-0.1090698,-0.07458496,0.9912262,-32.5368,-3.99054,-26.21472,3.347214,0.5405487,0.7056003,0.1,-0.05198669,-0.07060242,0.9961395,30.78105,-0.3706512,-26.45682,3.147476,0.5722684,0.5862965,0.06178749,1.206568,-0.1721702,0.02193261,-0.02914849,0.02821066,0.8856824,-32.65066,32.85
3,-0.08164978,-0.0710144,0.9941254,0.1,-0.109848,-0.0749054,0.9911194,-32.53789,-3.986816,-26.21291,3.346298,0.5407145,0.7055185,0.1,-0.05194092,-0.06687927,0.9963989,30.78105,-0.3649445,-26.46263,3.154343,0.5722684,0.585514,0.06180739,1.20647,-0.1719945,0.0221439,-0.0291421,0.02814482,0.8856824,-32.65066,32.85
3,-0.08164978,-0.0710144,0.9941254,0.1,-0.109848,-0.0749054,0.9911194,-32.53789,-3.986816,-26.21291,3.346298,0.5407145,0.7055185,0.1,-0.05194092,-0.06687927,0.9963989,30.78105,-0.3649445,-26.46263,3.154343,0.5722684,0.585514,0.06180739,1.20647,-0.1719945,0.0221439,-0.0291421,0.02814482,0.8856824,-32.65066,32.85
3,-0.08119202,-0.07098389,0.9941559,0.1,-0.1099243,-0.07426453,0.9911499,-32.53894,-3.984955,-26.20747,3.344055,0.5407606,0.7052869,0.1,-0.05099487,-0.06747437,0.9964142,30.78105,-0.3612518,-26.46532,3.154114,0.5721099,0.585514,0.06183076,1.206282,-0.1717049,0.02272541,-0.02903734,0.02796876,0.8856824,-32.65066,32.85
3,-0.08128357,-0.06822205,0.994339,0.1,-0.1106415,-0.07362366,0.9911194,-32.53897,-3.984711,-26.20238,3.324249,0.540885,0.7051024,0.1,-0.05096436,-0.06259155,0.9967346,30.78105,-0.359726,-26.46669,3.149307,0.5721099,0.5846207,0.06185567,1.206179,-0.1715077,0.02292161,-0.02902734,0.02782213,0.8856824,-32.65066,32.85
3,-0.08128357,-0.06822205,0.994339,0.1,-0.1106415,-0.07362366,0.9911194,-32.53897,-3.984711,-26.20238,3.324249,0.540885,0.7051024,0.1,-0.05096436,-0.06259155,0.9967346,30.78105,-0.359726,-26.46669,3.149307,0.5721099,0.5846207,0.06185567,1.206179,-0.1715077,0.02292161,-0.02902734,0.02782213,0.8856824,-32.65066,32.85
3,-0.08128357,-0.06822205,0.994339,0.1,-0.1106415,-0.07362366,0.9911194,-32.53897,-3.984711,-26.20238,3.324249,0.540885,0.7051024,0.1,-0.05096436,-0.06259155,0.9967346,30.78105,-0.359726,-26.46669,3.149307,0.5721099,0.5846207,0.06190789,1.206062,-0.171332,0.02320396,-0.02912624,0.02766745,0.8856824,-32.65066,32.83
3,-0.08128357,-0.06822205,0.994339,0.1,-0.1106415,-0.07362366,0.9911194,-32.53897,-3.984711,-26.20238,3.324249,0.540885,0.7051024,0.1,-0.05096436,-0.06259155,0.9967346,30.78105,-0.359726,-26.46669,3.149307,0.5721099,0.5846207,0.06196249,1.205848,-0.1709157,0.02383468,-0.02885666,0.02747911,0.8856824,-32.65066,32.83
3,-0.08128357,-0.06822205,0.994339,0.1,-0.1106415,-0.07362366,0.9911194,-32.53897,-3.984711,-26.20238,3.324249,0.540885,0.7051024,0.1,-0.05096436,-0.06259155,0.9967346,30.78105,-0.359726,-26.46669,3.149307,0.5721099,0.5846207,0.06200302,1.205764,-0.1707122,0.02413846,-0.02879773,0.02736391,0.8856824,-13.85316,32.83
3,-0.08128357,-0.06822205,0.994339,0.1,-0.1106415,-0.07362366,0.9911194,-32.53897,-3.984711,-26.20238,3.324249,0.540885,0.7051024,0.1,-0.05096436,-0.06259155,0.9967346,30.78105,-0.359726,-26.46669,3.149307,0.5721099,0.5846207,0.06200302,1.205764,-0.1707122,0.02413846,-0.02879773,0.02736391,0.8856824,-13.85316,32.83
3,-0.08294678,-0.06781006,0.9942322,0.1,-0.1110077,-0.07228088,0.9911804,-32.53944,-3.983124,-26.20747,3.306503,0.5409683,0.7048554,0.1,-0.05183411,-0.06280518,0.9966736,30.78143,-0.3554535,-26.47809,3.147522,0.5722542,0.5846207,0.0619967,1.205706,-0.1705239,0.02434928,-0.02880187,0.02735301,0.8856824,-13.85316,32.83
3,-0.1000671,-0.01808167,0.994812,0.1,-0.109726,-0.01493835,0.9938354,-32.5188,-3.809875,-26.12265,3.318085,0.5400692,0.6881643,0.1,-0.08071899,-0.02433777,0.9964294,30.76608,-0.1078644,-26.63297,2.655182,0.5779774,0.5708151,0.06195271,1.205516,-0.170215,0.02483733,-0.02873738,0.02734021,0.8856824,-13.85316,32.83
3,-0.1029663,0.01054382,0.9946136,0.1,-0.1117401,0.01248169,0.9936523,-32.4758,-3.429993,-26.32213,3.126785,0.5391544,0.6726035,0.1,-0.07339478,0.004013062,0.9972839,30.68208,0.1681061,-26.77957,2.863846,0.5797103,0.5581293,0.06194961,1.205438,-0.1700315,0.02502531,-0.02872468,0.02729575,0.8856824,-13.85316,32.83
3,-0.1029663,0.01054382,0.9946136,0.1,-0.1117401,0.01248169,0.9936523,-32.4758,-3.429993,-26.32213,3.126785,0.5391544,0.6726035,0.1,-0.07339478,0.004013062,0.9972839,30.68208,0.1681061,-26.77957,2.863846,0.5797103,0.5581293,0.06194961,1.205438,-0.1700315,0.02502531,-0.02872468,0.02729575,0.8856824,-13.85316,32.83
3,-0.1029663,0.01054382,0.9946136,0.1,-0.1117401,0.01248169,0.9936523,-32.4758,-3.429993,-26.32213,3.126785,0.5391544,0.6726035,0.1,-0.07339478,0.004013062,0.9972839,30.68208,0.1681061,-26.77957,2.863846,0.5797103,0.5581293,0.06197655,1.205285,-0.1696672,0.02542728,-0.0287213,0.02724357,0.8856824,-13.85316,32.83
3,-0.1029663,0.01054382,0.9946136,0.1,-0.1117401,0.01248169,0.9936523,-32.4758,-3.429993,-26.32213,3.126785,0.5391544,0.6726035,0.1,-0.07339478,0.004013062,0.9972839,30.68208,0.1681061,-26.77957,2.863846,0.5797103,0.5581293,0.06198823,1.205235,-0.169454,0.02564145,-0.02868237,0.02720963,0.8856824,-13.85316,32.83
3,-0.1029663,0.01054382,0.9946136,0.1,-0.1117401,0.01248169,0.9936523,-32.4758,-3.429993,-26.32213,3.126785,0.5391544,0.6726035,0.1,-0.07339478,0.004013062,0.9972839,30.68208,0.1681061,-26.77957,2.863846,0.5797103,0.5581293,0.06196177,1.205133,-0.169269,0.02590366,-0.0286608,0.02728975,0.8856824,-13.85316,32.83
3,-0.1029663,0.01054382,0.9946136,0.1,-0.1117401,0.01248169,0.9936523,-32.4758,-3.429993,-26.32213,3.126785,0.5391544,0.6726035,0.1,-0.07339478,0.004013062,0.9972839,30.68208,0.1681061,-26.77957,2.863846,0.5797103,0.5581293,0.06196177,1.205133,-0.169269,0.02590366,-0.0286608,0.02728975,0.8856824,-13.85316,32.83
3,-0.1007538,0.05334473,0.9934692,0.1,-0.1007538,0.05334473,0.9934692,-32.5063,-2.645004,-26.77583,3.256348,0.5386022,0.6441177,0.1,0.0,0.0,0.0,30.57364,0.7745819,-27.1756,-1.0,0.5798321,0.5294296,0.06191838,1.20489,-0.1688765,0.02652411,-0.02881557,0.02719868,0.8856824,-13.85316,32.83
3,-0.1007538,0.05334473,0.9934692,0.1,-0.1007538,0.05334473,0.9934692,-32.5063,-2.645004,-26.77583,3.256348,0.5386022,0.6441177,0.1,0.0,0.0,0.0,30.57364,0.7745819,-27.1756,-1.0,0.5798321,0.5294296,0.06191838,1.20489,-0.1688765,0.02652411,-0.02881557,0.02719868,0.8856824,-13.85316,32.83
3,-0.06549072,0.1183777,0.990799,0.1,0.0,0.0,0.0,-32.55289,-2.573608,-26.80052,-1.0,0.5425682,0.623876,0.1,-0.06549072,0.1183777,0.990799,30.66658,0.8837433,-26.99702,3.040909,0.579267,0.516573,0.06188691,1.204807,-0.168697,0.0266256,-0.02884865,0.02729548,0.8856824,-13.85316,32.83
3,-0.07420349,0.111557,0.9909821,0.1,-0.151001,0.1659698,0.9744873,-32.3629,-2.858368,-26.27124,3.21283,0.5423559,0.6273819,0.1,-0.07196045,0.1099701,0.9913177,30.67735,0.875351,-26.99879,3.003601,0.5800151,0.5182876,0.0618602,1.20476,-0.1684489,0.02677294,-0.0288853,0.02738269,0.8856824,-13.85316,32.83
3,-0.07649231,0.1122131,0.9907227,0.1,-0.1160889,0.145462,0.9825134,-32.55566,-2.588135,-26.8773,3.19136,0.5430884,0.627639,0.1,-0.07220459,0.1085968,0.9914551,30.67842,0.875351,-26.98317,2.919312,0.5800151,0.5182876,0.06176448,1.204638,-0.1681085,0.02687294,-0.02901553,0.02747992,0.8856824,-13.85316,32.83
3,-0.07649231,0.1122131,0.9907227,0.1,-0.1160889,0.145462,0.9825134,-32.55566,-2.588135,-26.8773,3.19136,0.5430884,0.627639,0.1,-0.07220459,0.1085968,0.9914551,30.67842,0.875351,-26.98317,2.919312,0.5800151,0.5182876,0.06176448,1.204638,-0.1681085,0.02687294,-0.02901553,0.02747992,0.8856824,-13.85316,32.83
3,-0.07376099,0.1085205,0.9913483,0.1,-0.1209717,0.1527863,0.9808197,-32.56401,-2.606522,-26.94818,3.193176,0.5442666,0.6277775,0.1,-0.07244873,0.1072845,0.9915771,30.67851,0.860611,-26.93681,2.89711,0.5800151,0.5185506,0.06163383,1.204468,-0.1677455,0.0272329,-0.02913059,0.02752246,0.8856824,23.83313,32.83
3,-0.07376099,0.1085205,0.9913483,0.1,-0.1209717,0.1527863,0.9808197,-32.56401,-2.606522,-26.94818,3.193176,0.5442666,0.6277775,0.1,-0.07244873,0.1072845,0.9915771,30.67851,0.860611,-26.93681,2.89711,0.5800151,0.5185506,0.06163383,1.204468,-0.1677455,0.0272329,-0.02913059,0.02752246,0.8856824,23.83313,32.83
3,-0.07356262,0.1067963,0.9915466,0.1,-0.1159668,0.1296997,0.9847412,-32.61462,-2.743225,-26.70583,2.994644,0.5449624,0.6335353,0.1,-0.07206726,0.1059723,0.991745,30.6779,0.8318176,-26.88824,2.947006,0.5799192,0.5193495,0.06163383,1.204468,-0.1677455,0.0272329,-0.02913059,0.02752246,0.8856824,23.83313,32.83
3,-0.07363892,0.1076965,0.9914398,0.1,-0.1121521,0.1396027,0.9838257,-32.61676,-2.708588,-26.83661,3.140732,0.5444344,0.6321633,0.1,-0.07214355,0.1064453,0.991684,30.67737,0.8087921,-26.84544,2.921417,0.5799171,0.519617,0.0615766,1.204289,-0.1674187,0.02771184,-0.02926125,0.02750567,0.8856824,23.83313,32.83
3,-0.08575439,0.1143188,0.9897308,0.1,-0.1181946,0.1300507,0.9844208,-32.62791,-2.713196,-26.85966,3.187729,0.5458277,0.6342713,0.1,-0.07023621,0.1067657,0.9917908,30.67735,0.7949524,-26.83417,2.905518,0.5795795,0.5198978,0.06152844,1.204069,-0.1671168,0.02805918,-0.02923731,0.02758141,0.8856824,23.83313,32.83
3,-0.09341431,0.1222076,0.9880829,0.1,-0.1147614,0.1316376,0.9846191,-32.6283,-2.72226,-26.84077,3.134445,0.5452579,0.6340303,0.1,-0.0695343,0.1116028,0.9913025,30.67735,0.7581635,-26.78825,2.924393,0.5794228,0.5198978,0.06157601,1.203999,-0.1668733,0.0284007,-0.02913468,0.02764293,0.8856824,23.83313,32.83
3,-0.09341431,0.1222076,0.9880829,0.1,-0.1147614,0.1316376,0.9846191,-32.6283,-2.72226,-26.84077,3.134445,0.5452579,0.6340303,0.1,-0.0695343,0.1116028,0.9913025,30.67735,0.7581635,-26.78825,2.924393,0.5794228,0.5198978,0.06157601,1.203999,-0.1668733,0.0284007,-0.02913468,0.02764293,0.8856824,23.83313,32.83
3,-0.09965515,0.1244049,0.9871979,0.1,-0.1156464,0.1303253,0.9846954,-32.62981,-2.730164,-26.82164,3.154205,0.5454395,0.634349,0.1,-0.06251526,0.1105347,0.9918976,30.66315,0.6633301,-26.58029,2.948334,0.5785059,0.5213462,0.06153464,1.203857,-0.1665671,0.02880885,-0.0289353,0.02778246,0.8856824,23.83313,32.83
3,-0.09965515,0.1244049,0.9871979,0.1,-0.1156464,0.1303253,0.9846954,-32.62981,-2.730164,-26.82164,3.154205,0.5454395,0.634349,0.1,-0.06251526,0.1105347,0.9918976,30.66315,0.6633301,-26.58029,2.948334,0.5785059,0.5213462,0.06153464,1.203857,-0.1665671,0.02880885,-0.0289353,0.02778246,0.8856824,23.83313,32.83
3,-0.1127319,0.1295929,0.9851227,0.1,-0.1152039,0.1301117,0.9847717,-32.6329,-2.737259,-26.8194,3.170761,0.5454625,0.634618,0.1,-0.0567627,0.1175079,0.9914398,30.65335,0.5922852,-26.46637,2.98645,0.5777535,0.5215084,0.06150091,1.20371,-0.1663901,0.0292215,-0.02891495,0.02777683,0.8856824,23.83313,32.83
3,-0.1127319,0.1295929,0.9851227,0.1,-0.1152039,0.1301117,0.9847717,-32.6329,-2.737259,-26.8194,3.170761,0.5454625,0.634618,0.1,-0.0567627,0.1175079,0.9914398,30.65335,0.5922852,-26.46637,2.98645,0.5777535,0.5215084,0.06150091,1.20371,-0.1663901,0.0292215,-0.02891495,0.02777683,0.8856824,23.83313,32.83
3,-0.1124573,0.1270599,0.9854889,0.1,-0.114975,0.1273804,0.9851532,-32.63431,-2.744385,-26.81145,3.168854,0.5454607,0.6352422,0.1,-0.05400085,0.1197357,0.991333,30.65305,0.5784302,-26.45261,3.025726,0.5772746,0.5215084,0.06147563,1.203629,-0.1662085,0.02944831,-0.02897338,0.0278938,0.8856824,23.83313,32.83
3,-0.1124573,0.1270599,0.9854889,0.1,-0.114975,0.1273804,0.9851532,-32.63431,-2.744385,-26.81145,3.168854,0.5454607,0.6352422,0.1,-0.05400085,0.1197357,0.991333,30.65305,0.5784302,-26.45261,3.025726,0.5772746,0.5215084,0.06147563,1.203629,-0.1662085,0.02944831,-0.02897338,0.0278938,0.8856824,23.83313,32.83
3,-0.09695435,0.1222229,0.9877472,0.1,-0.1187744,0.1215973,0.9854431,-32.63338,-2.808548,-26.69513,3.185089,0.5459952,0.6372225,0.1,-0.0549469,0.1232605,0.9908447,30.65305,0.555069,-26.45261,2.996933,0.577442,0.5216547,0.06141794,1.203595,-0.1661253,0.02961985,-0.0287519,0.02777549,0.8856824,28.60477,32.83
3,-0.09695435,0.1222229,0.9877472,0.1,-0.1187744,0.1215973,0.9854431,-32.63338,-2.808548,-26.69513,3.185089,0.5459952,0.6372225,0.1,-0.0549469,0.1232605,0.9908447,30.65305,0.555069,-26.45261,2.996933,0.577442,0.5216547,0.06141794,1.203595,-0.1661253,0.02961985,-0.0287519,0.02777549,0.8856824,28.60477,32.83
3,-0.07594299,0.1246643,0.9892731,0.1,-0.1208191,0.1255341,0.9846954,-32.63509,-2.80838,-26.71352,3.204971,0.5464132,0.6367807,0.1,-0.05351257,0.1241302,0.9908142,30.65306,0.5516968,-26.45261,3.03009,0.5771933,0.5216547,0.06137371,1.203564,-0.1660898,0.02960174,-0.0289183,0.02777817,0.8856824,28.60477,32.83
3,-0.07594299,0.1246643,0.9892731,0.1,-0.1208191,0.1255341,0.9846954,-32.63509,-2.80838,-26.71352,3.204971,0.5464132,0.6367807,0.1,-0.05351257,0.1241302,0.9908142,30.65306,0.5516968,-26.45261,3.03009,0.5771933,0.5216547,0.06137371,1.203564,-0.1660898,0.02960174,-0.0289183,0.02777817,0.8856824,28.60477,32.83
3,-0.07121277,0.1251831,0.989563,0.1,-0.1186218,0.1275024,0.9847107,-32.64149,-2.879501,-26.5571,3.200333,0.5461652,0.6372211,0.1,-0.05456543,0.1242981,0.9907379,30.65324,0.5511169,-26.45923,3.029465,0.5773742,0.5217103,0.0612992,1.203553,-0.1660557,0.02927474,-0.02901193,0.02788632,0.8856824,28.60477,32.83
3,-0.07121277,0.1251831,0.989563,0.1,-0.1186218,0.1275024,0.9847107,-32.64149,-2.879501,-26.5571,3.200333,0.5461652,0.6372211,0.1,-0.05456543,0.1242981,0.9907379,30.65324,0.5511169,-26.45923,3.029465,0.5773742,0.5217103,0.0612992,1.203553,-0.1660557,0.02927474,-0.02901193,0.02788632,0.8856824,28.60477,32.83
3,-0.06600952,0.1247559,0.989975,0.1,-0.1169281,0.127655,0.9848938,-32.64191,-2.883789,-26.55341,3.198654,0.545887,0.6372831,0.1,-0.05490112,0.1240845,0.9907379,30.6553,0.5459137,-26.47488,3.034073,0.5773742,0.5220737,0.06119812,1.203595,-0.1660836,0.02904555,-0.02914695,0.02785665,0.8856824,28.60477,32.83
3,-0.06600952,0.1247559,0.989975,0.1,-0.1169281,0.127655,0.9848938,-32.64191,-2.883789,-26.55341,3.198654,0.545887,0.6372831,0.1,-0.05490112,0.1240845,0.9907379,30.6553,0.5459137,-26.47488,3.034073,0.5773742,0.5220737,0.06119812,1.203595,-0.1660836,0.02904555,-0.02914695,0.02785665,0.8856824,28.60477,32.83
4,-0.07209778,0.1248627,0.9895477,0.1,-0.1169586,0.1284485,0.984787,-32.64149,-2.869659,-26.62292,3.198593,0.54592,0.6373873,0.1,-0.05490112,0.1234283,0.9908295,30.6553,0.5458984,-26.47632,3.029083,0.5773742,0.5221969,0.06115425,1.203722,-0.1661102,0.02884865,-0.0291748,0.02779051,0.8856824,28.60477,32.83
4,-0.07209778,0.1248627,0.9895477,0.1,-0.1169586,0.1284485,0.984787,-32.64149,-2.869659,-26.62292,3.198593,0.54592,0.6373873,0.1,-0.05490112,0.1234283,0.9908295,30.6553,0.5458984,-26.47632,3.029083,0.5773742,0.5221969,0.06115425,1.203722,-0.1661102,0.02884865,-0.0291748,0.02779051,0.8856824,28.60477,32.83
4,-0.07583618,0.1245575,0.9893036,0.1,-0.116394,0.1292419,0.9847412,-32.64232,-2.874817,-26.62666,3.204391,0.545854,0.6374647,0.1,-0.05387878,0.1219482,0.9910583,30.6553,0.5390167,-26.47632,3.040482,0.5771933,0.5226829,0.06108356,1.203797,-0.1662456,0.02862308,-0.02921972,0.02788632,0.8856824,28.60477,32.83
4,-0.07583618,0.1245575,0.9893036,0.1,-0.116394,0.1292419,0.9847412,-32.64232,-2.874817,-26.62666,3.204391,0.545854,0.6374647,0.1,-0.05387878,0.1219482,0.9910583,30.6553,0.5390167,-26.47632,3.040482,0.5771933,0.5226829,0.06108356,1.203797,-0.1662456,0.02862308,-0.02921972,0.02788632,0.8856824,28.60477,32.83
4,-0.07572937,0.1237793,0.9894104,0.1,-0.1162415,0.1272278,0.9850311,-32.64323,-2.875473,-26.63184,3.218475,0.545854,0.6378952,0.1,-0.05384827,0.1218414,0.9910736,30.65509,0.5252075,-26.47632,3.040176,0.5771933,0.5231623,0.06101501,1.20391,-0.1663989,0.02837393,-0.02919191,0.02784274,0.8856824,28.60477,32.83
4,-0.07572937,0.1237793,0.9894104,0.1,-0.1162415,0.1272278,0.9850311,-32.64323,-2.875473,-26.63184,3.218475,0.545854,0.6378952,0.1,-0.05384827,0.1218414,0.9910736,30.65509,0.5252075,-26.47632,3.040176,0.5771933,0.5231623,0.06101501,1.20391,-0.1663989,0.02837393,-0.02919191,0.02784274,0.8856824,28.60477,32.83
4,-0.08035278,0.1204071,0.9894562,0.1,-0.1148529,0.1179047,0.9863434,-32.6434,-2.869659,-26.64064,3.221741,0.5456102,0.6393597,0.1,-0.05142212,0.1223755,0.9911346,30.64972,0.5106964,-26.47511,3.060516,0.5769514,0.5235599,0.06095672,1.204071,-0.1665422,0.02798074,-0.02946399,0.0282426,0.8856824,28.60477,32.83
4,-0.08035278,0.1204071,0.9894562,0.1,-0.1148529,0.1179047,0.9863434,-32.6434,-2.869659,-26.64064,3.221741,0.5456102,0.6393597,0.1,-0.05142212,0.1223755,0.9911346,30.64972,0.5106964,-26.47511,3.060516,0.5769514,0.5235599,0.06095672,1.204071,-0.1665422,0.02798074,-0.02946399,0.0282426,0.8856824,28.60477,32.83
4,-0.08216858,0.1173553,0.9896698,0.1,-0.1146393,0.1133423,0.986908,-32.64368,-2.847824,-26.65332,3.223648,0.5455808,0.6395221,0.1,-0.05117798,0.1210632,0.9913177,30.64842,0.5070343,-26.47343,3.060226,0.5769514,0.5238918,0.06081617,1.204205,-0.1667626,0.02753572,-0.02957051,0.02840621,0.8856824,4.090668,32.83
4,-0.08216858,0.1173553,0.9896698,0.1,-0.1146393,0.1133423,0.986908,-32.64368,-2.847824,-26.65332,3.223648,0.5455808,0.6395221,0.1,-0.05117798,0.1210632,0.9913177,30.64842,0.5070343,-26.47343,3.060226,0.5769514,0.5238918,0.06081617,1.204205,-0.1667626,0.02753572,-0.02957051,0.02840621,0.8856824,4.090668,32.83
4,-0.0741272,0.1176605,0.9902802,0.1,-0.1129456,0.118042,0.986557,-32.6434,-2.857895,-26.76041,3.27919,0.5453422,0.6402111,0.1,-0.05227661,0.1173553,0.9916992,30.64771,0.4862061,-26.46606,3.076645,0.5771489,0.5251697,0.06070483,1.20433,-0.1669742,0.02699907,-0.02976639,0.02838679,0.8856824,4.090668,32.83
4,-0.0741272,0.1176605,0.9902802,0.1,-0.1129456,0.118042,0.986557,-32.6434,-2.857895,-26.76041,3.27919,0.5453422,0.6402111,0.1,-0.05227661,0.1173553,0.9916992,30.64771,0.4862061,-26.46606,3.076645,0.5771489,0.5251697,0.06070483,1.20433,-0.1669742,0.02699907,-0.02976639,0.02838679,0.8856824,4.090668,32.83
4,-0.07115173,0.1139984,0.990921,0.1,-0.1134033,0.1165009,0.9866791,-32.64108,-2.857895,-26.76865,3.280685,0.5453422,0.6405662,0.1,-0.0537262,0.1128998,0.9921417,30.64771,0.4692688,-26.43507,3.11174,0.577364,0.5262557,0.06063819,1.204456,-0.1672345,0.02638414,-0.03001887,0.028304,0.8856824,4.090668,32.83
4,-0.07115173,0.1139984,0.990921,0.1,-0.1134033,0.1165009,0.9866791,-32.64108,-2.857895,-26.76865,3.280685,0.5453422,0.6405662,0.1,-0.0537262,0.1128998,0.9921417,30.64771,0.4692688,-26.43507,3.11174,0.577364,0.5262557,0.06063819,1.204456,-0.1672345,0.02638414,-0.03001887,0.028304,0.8856824,4.090668,32.83
4,-0.07720947,0.112793,0.9906006,0.1,-0.1141052,0.1143646,0.9868622,-32.64029,-2.857895,-26.77383,3.291626,0.5454313,0.6409847,0.1,-0.05651855,0.1118469,0.9921112,30.64771,0.4526825,-26.41144,3.167633,0.5778207,0.5268409,0.06061101,1.20464,-0.1674229,0.02568935,-0.03022713,0.0283424,0.8856824,4.090668,32.83
4,-0.07720947,0.112793,0.9906006,0.1,-0.1141052,0.1143646,0.9868622,-32.64029,-2.857895,-26.77383,3.291626,0.5454313,0.6409847,0.1,-0.05651855,0.1118469,0.9921112,30.64771,0.4526825,-26.41144,3.167633,0.5778207,0.5268409,0.06061101,1.20464,-0.1674229,0.02568935,-0.03022713,0.0283424,0.8856824,4.090668,32.83
4,-0.08937073,0.1098633,0.9899139,0.1,-0.1136169,0.1132355,0.9870453,-32.64029,-2.859802,-26.77411,3.313141,0.5453422,0.6412687,0.1,-0.05883789,0.1055145,0.9926605,30.64771,0.4295349,-26.39075,3.179489,0.5781898,0.5285139,0.0605396,1.204853,-0.1676109,0.0248769,-0.03045036,0.02837892,0.8856824,4.090668,32.83
4,-0.08937073,0.1098633,0.9899139,0.1,-0.1136169,0.1132355,0.9870453,-32.64029,-2.859802,-26.77411,3.313141,0.5453422,0.6412687,0.1,-0.05883789,0.1055145,0.9926605,30.64771,0.4295349,-26.39075,3.179489,0.5781898,0.5285139,0.0605396,1.204853,-0.1676109,0.0248769,-0.03045036,0.02837892,0.8856824,4.090668,32.83
4,-0.09042358,0.1091003,0.9898987,0.1,-0.1141357,0.1112976,0.9871979,-32.64029,-2.863632,-26.78813,3.313065,0.5454347,0.6418743,0.1,-0.0629425,0.1064911,0.9923096,30.64771,0.4231262,-26.39075,3.244843,0.5788898,0.5286489,0.06041586,1.205043,-0.1678346,0.02402119,-0.03050708,0.02832005,0.8856824,4.090668,32.83
4,-0.09042358,0.1091003,0.9898987,0.1,-0.1141357,0.1112976,0.9871979,-32.64029,-2.863632,-26.78813,3.313065,0.5454347,0.6418743,0.1,-0.0629425,0.1064911,0.9923096,30.64771,0.4231262,-26.39075,3.244843,0.5788898,0.5286489,0.06041586,1.205043,-0.1678346,0.02402119,-0.03050708,0.02832005,0.8856824,4.090668,32.83
4,-0.0892334,0.1083527,0.990097,0.1,-0.1137695,0.111496,0.9872284,-32.64172,-2.868576,-26.81435,3.321426,0.5454347,0.6422746,0.1,-0.06364441,0.105011,0.9924316,30.64771,0.4202118,-26.39075,3.26149,0.5790073,0.5290201,0.06038833,1.20531,-0.1679714,0.02325848,-0.03040237,0.02828056,0.8856824,4.090668,32.83
4,-0.0892334,0.1083527,0.990097,0.1,-0.1137695,0.111496,0.9872284,-32.64172,-2.868576,-26.81435,3.321426,0.5454347,0.6422746,0.1,-0.06364441,0.105011,0.9924316,30.64771,0.4202118,-26.39075,3.26149,0.5790073,0.5290201,0.06038833,1.20531,-0.1679714,0.02325848,-0.03040237,0.02828056,0.8856824,4.090668,32.83
4,-0.08708191,0.1099091,0.9901123,0.1,-0.1137238,0.1172028,0.9865723,-32.64702,-2.897629,-26.84085,3.370148,0.545617,0.6426184,0.1,-0.06616211,0.1041412,0.9923553,30.64757,0.4139099,-26.39738,3.312119,0.5794429,0.5295021,0.06037736,1.205519,-0.168148,0.02235654,-0.03038595,0.02828082,0.8856824,4.090668,32.83
4,-0.08708191,0.1099091,0.9901123,0.1,-0.1137238,0.1172028,0.9865723,-32.64702,-2.897629,-26.84085,3.370148,0.545617,0.6426184,0.1,-0.06616211,0.1041412,0.9923553,30.64757,0.4139099,-26.39738,3.312119,0.5794429,0.5295021,0.06037736,1.205519,-0.168148,0.02235654,-0.03038595,0.02828082,0.8856824,4.090668,32.83
4,-0.08912659,0.1069031,0.9902496,0.1,-0.1141968,0.1180267,0.9864197,-32.65474,-2.905151,-26.86353,3.371613,0.5459709,0.6429619,0.1,-0.06933594,0.09809875,0.9927521,30.64757,0.4066925,-26.39738,3.314987,0.5799782,0.5307925,0.06033075,1.205694,-0.16828,0.02143542,-0.03045868,0.0282932,0.8856824,-24.75416,32.83
4,-0.08912659,0.1069031,0.9902496,0.1,-0.1141968,0.1180267,0.9864197,-32.65474,-2.905151,-26.86353,3.371613,0.5459709,0.6429619,0.1,-0.06933594,0.09809875,0.9927521,30.64757,0.4066925,-26.39738,3.314987,0.5799782,0.5307925,0.06033075,1.205694,-0.16828,0.02143542,-0.03045868,0.0282932,0.8856824,-24.75416,32.83
4,-0.08979797,0.1053009,0.9903717,0.1,-0.114563,0.116806,0.9865112,-32.6562,-2.909973,-26.87288,3.372803,0.5460855,0.6434373,0.1,-0.06936646,0.09579468,0.9929657,30.64757,0.3990631,-26.39738,3.332153,0.5799782,0.5314516,0.06033337,1.205802,-0.1683278,0.02113086,-0.03055881,0.02806688,0.8856824,-24.75416,32.83
4,-0.08932495,0.1025696,0.9906921,0.1,-0.1144714,0.1136017,0.986908,-32.6586,-2.911621,-26.87288,3.382599,0.5461419,0.644044,0.1,-0.06790161,0.09312439,0.9933319,30.64915,0.3868561,-26.39738,3.343002,0.5796639,0.5323206,0.06035268,1.205873,-0.1683636,0.02059808,-0.03053686,0.02797968,0.8856824,-24.75416,32.83
4,-0.08932495,0.1025696,0.9906921,0.1,-0.1144714,0.1136017,0.986908,-32.6586,-2.911621,-26.87288,3.382599,0.5461419,0.644044,0.1,-0.06790161,0.09312439,0.9933319,30.64915,0.3868561,-26.39738,3.343002,0.5796639,0.5323206,0.06035268,1.205873,-0.1683636,0.02059808,-0.03053686,0.02797968,0.8856824,-24.75416,32.83
4,-0.09014893,0.1019592,0.9906921,0.1,-0.1156616,0.1090088,0.9872742,-32.66185,-2.915253,-26.90126,3.403885,0.546459,0.6452628,0.1,-0.06819153,0.09584045,0.993042,30.65044,0.3646698,-26.38997,3.377396,0.5796639,0.5325705,0.06036913,1.206064,-0.1684122,0.01975843,-0.03052563,0.02770405,0.8856824,-24.75416,32.83
4,-0.09210205,0.09976196,0.9907379,0.1,-0.1186523,0.1075439,0.9870911,-32.66258,-2.915588,-26.90126,3.448929,0.5469799,0.6456029,0.1,-0.06834412,0.09274292,0.9933319,30.65044,0.3396606,-26.36847,3.376465,0.5796639,0.5337374,0.06036544,1.206132,-0.1684425,0.01935998,-0.03045477,0.02770458,0.8856824,-24.75416,32.83
4,-0.09210205,0.09976196,0.9907379,0.1,-0.1186523,0.1075439,0.9870911,-32.66258,-2.915588,-26.90126,3.448929,0.5469799,0.6456029,0.1,-0.06834412,0.09274292,0.9933319,30.65044,0.3396606,-26.36847,3.376465,0.5796639,0.5337374,0.06036544,1.206132,-0.1684425,0.01935998,-0.03045477,0.02770458,0.8856824,-24.75416,32.83
4,-0.09690857,0.09907532,0.9903412,0.1,-0.1229095,0.1046906,0.9868774,-32.66403,-2.929779,-26.90126,3.499893,0.5477349,0.6466386,0.1,-0.06858826,0.09289551,0.9933014,30.65044,0.3082886,-26.32384,3.390991,0.5796639,0.5343549,0.06039774,1.206194,-0.1685119,0.01912106,-0.03046137,0.02768441,0.8856824,-24.75416,32.83
4,-0.09986877,0.09945679,0.9900055,0.1,-0.1247101,0.1037598,0.9867401,-32.66469,-2.934753,-26.90126,3.510345,0.5480592,0.6469849,0.1,-0.06962585,0.09416199,0.9931183,30.65044,0.2983093,-26.31564,3.345123,0.5798418,0.5343592,0.06035912,1.206352,-0.1686288,0.01875439,-0.03036682,0.02783203,0.8856824,-24.75416,32.83
4,-0.09986877,0.09945679,0.9900055,0.1,-0.1247101,0.1037598,0.9867401,-32.66469,-2.934753,-26.90126,3.510345,0.5480592,0.6469849,0.1,-0.06962585,0.09416199,0.9931183,30.65044,0.2983093,-26.31564,3.345123,0.5798418,0.5343592,0.06035912,1.206352,-0.1686288,0.01875439,-0.03036682,0.02783203,0.8856824,-24.75416,32.83
4,-0.1009064,0.09835815,0.9900055,0.1,-0.1265564,0.1023102,0.9866638,-32.67064,-2.984253,-26.85416,3.551392,0.5485285,0.6484689,0.1,-0.06719971,0.09307861,0.9933777,30.64752,0.2774811,-26.31564,3.398727,0.5795147,0.5352792,0.06038368,1.206401,-0.1686569,0.01851369,-0.03036289,0.027862,0.8856824,-24.75416,32.83
4,-0.09513855,0.09442139,0.9909668,0.1,-0.1257172,0.09725952,0.9872742,-32.6757,-3.005951,-26.82523,3.554871,0.5485285,0.6497569,0.1,-0.06547546,0.09159851,0.9936371,30.64459,0.2600403,-26.31564,3.407471,0.5793127,0.5361285,0.06032586,1.206526,-0.1686913,0.01804165,-0.03031476,0.02807086,0.8856824,-24.75416,32.83
4,-0.09106445,0.09049988,0.9917145,0.1,-0.1249847,0.08958435,0.9880981,-32.68044,-3.023178,-26.795,3.554413,0.5485285,0.651324,0.1,-0.06520081,0.09112549,0.9936981,30.64415,0.2519531,-26.31564,3.403503,0.5792808,0.5364667,0.06035495,1.206651,-0.1687348,0.0173443,-0.03037516,0.02819481,0.9049013,-24.75416,32.83
4,-0.09106445,0.09049988,0.9917145,0.1,-0.1249847,0.08958435,0.9880981,-32.68044,-3.023178,-26.795,3.554413,0.5485285,0.651324,0.1,-0.06520081,0.09112549,0.9936981,30.64415,0.2519531,-26.31564,3.403503,0.5792808,0.5364667,0.06035495,1.206651,-0.1687348,0.0173443,-0.03037516,0.02819481,0.9049013,-24.75416,32.83
4,-0.0864563,0.09260559,0.9919281,0.1,-0.1243286,0.09317017,0.987854,-32.68398,-3.053619,-26.7784,3.570206,0.5485285,0.65158,0.1,-0.06436157,0.09220886,0.9936523,30.64381,0.2488403,-26.32082,3.433212,0.5791485,0.5364667,0.06034696,1.206729,-0.1687754,0.01712947,-0.0303376,0.02824945,0.9049013,-24.75416,32.83
4,-0.0864563,0.09260559,0.9919281,0.1,-0.1243286,0.09317017,0.987854,-32.68398,-3.053619,-26.7784,3.570206,0.5485285,0.65158,0.1,-0.06436157,0.09220886,0.9936523,30.64381,0.2488403,-26.32082,3.433212,0.5791485,0.5364667,0.06034696,1.206729,-0.1687754,0.01712947,-0.0303376,0.02824945,0.9049013,-24.75416,32.83
4,-0.0841217,0.08805847,0.9925537,0.1,-0.1230469,0.07987976,0.9891663,-32.68706,-3.066971,-26.71063,3.573166,0.5483464,0.6535738,0.1,-0.0643158,0.09216309,0.9936523,30.64381,0.2456818,-26.32779,3.429733,0.5791485,0.5366472,0.06031895,1.206768,-0.1688523,0.0168373,-0.03036215,0.02817921,0.9049013,-54.06698,32.83
4,-0.0841217,0.08805847,0.9925537,0.1,-0.1230469,0.07987976,0.9891663,-32.68706,-3.066971,-26.71063,3.573166,0.5483464,0.6535738,0.1,-0.0643158,0.09216309,0.9936523,30.64381,0.2456818,-26.32779,3.429733,0.5791485,0.5366472,0.06032586,1.206831,-0.168901,0.01664146,-0.03045819,0.0281607,0.9049013,-54.06698,32.83
4,-0.0841217,0.08805847,0.9925537,0.1,-0.1230469,0.07987976,0.9891663,-32.68706,-3.066971,-26.71063,3.573166,0.5483464,0.6535738,0.1,-0.0643158,0.09216309,0.9936523,30.64381,0.2456818,-26.32779,3.429733,0.5791485,0.5366472,0.06032503,1.206903,-0.1689255,0.01639882,-0.03055393,0.02814376,0.9049013,-54.06698,32.83
4,-0.0841217,0.08805847,0.9925537,0.1,-0.1230469,0.07987976,0.9891663,-32.68706,-3.066971,-26.71063,3.573166,0.5483464,0.6535738,0.1,-0.0643158,0.09216309,0.9936523,30.64381,0.2456818,-26.32779,3.429733,0.5791485,0.5366472,0.0603354,1.207029,-0.1691307,0.01594595,-0.03065691,0.02794744,0.9049013,-54.06698,32.83
4,-0.0841217,0.08805847,0.9925537,0.1,-0.1230469,0.07987976,0.9891663,-32.68706,-3.066971,-26.71063,3.573166,0.5483464,0.6535738,0.1,-0.0643158,0.09216309,0.9936523,30.64381,0.2456818,-26.32779,3.429733,0.5791485,0.5366472,0.06033552,1.207102,-0.1692095,0.01570775,-0.03069674,0.02790155,0.9049013,-54.06698,32.83
4,-0.0841217,0.08805847,0.9925537,0.1,-0.1230469,0.07987976,0.9891663,-32.68706,-3.066971,-26.71063,3.573166,0.5483464,0.6535738,0.1,-0.0643158,0.09216309,0.9936523,30.64381,0.2456818,-26.32779,3.429733,0.5791485,0.5366472,0.06033552,1.207102,-0.1692095,0.01570775,-0.03069674,0.02790155,0.9049013,-54.06698,32.83
4,-0.08410645,0.08753967,0.9925995,0.1,-0.1228485,0.07814026,0.9893341,-32.68748,-3.071365,-26.68503,3.57309,0.5483099,0.6537505,0.1,-0.06430054,0.0922699,0.9936523,30.64381,0.2456818,-26.33026,3.429688,0.5791485,0.5366472,0.06035304,1.207202,-0.1692659,0.015407,-0.03079996,0.02786949,0.9049013,-54.06698,32.83
4,-0.08410645,0.08753967,0.9925995,0.1,-0.1228485,0.07814026,0.9893341,-32.68748,-3.071365,-26.68503,3.57309,0.5483099,0.6537505,0.1,-0.06430054,0.0922699,0.9936523,30.64381,0.2456818,-26.33026,3.429688,0.5791485,0.5366472,0.06035292,1.207257,-0.1693117,0.01506122,-0.0307794,0.02782694,0.9049013,-54.06698,32.83
4,-0.08410645,0.08753967,0.9925995,0.1,-0.1228485,0.07814026,0.9893341,-32.68748,-3.071365,-26.68503,3.57309,0.5483099,0.6537505,0.1,-0.06430054,0.0922699,0.9936523,30.64381,0.2456818,-26.33026,3.429688,0.5791485,0.5366472,0.0603385,1.207444,-0.1694571,0.01430568,-0.03078448,0.02768118,0.9049013,-54.06698,32.83
4,-0.08410645,0.08753967,0.9925995,0.1,-0.1228485,0.07814026,0.9893341,-32.68748,-3.071365,-26.68503,3.57309,0.5483099,0.6537505,0.1,-0.06430054,0.0922699,0.9936523,30.64381,0.2456818,-26.33026,3.429688,0.5791485,0.5366472,0.06031489,1.207519,-0.169602,0.0138069,-0.0306727,0.02767498,0.9049013,-54.06698,32.83
4,-0.0827179,0.08761597,0.9927063,0.1,-0.1222382,0.07775879,0.9894409,-32.68855,-3.086075,-26.6835,3.565491,0.5482406,0.6542794,0.1,-0.06309509,0.09243774,0.9937134,30.64381,0.2456818,-26.33617,3.426407,0.5789461,0.5366682,0.06031692,1.207621,-0.1696743,0.01364296,-0.0306625,0.02763349,0.9049013,-54.06698,32.83
4,-0.0827179,0.08761597,0.9927063,0.1,-0.1222382,0.07775879,0.9894409,-32.68855,-3.086075,-26.6835,3.565491,0.5482406,0.6542794,0.1,-0.06309509,0.09243774,0.9937134,30.64381,0.2456818,-26.33617,3.426407,0.5789461,0.5366682,0.06031692,1.207621,-0.1696743,0.01364296,-0.0306625,0.02763349,0.9049013,-54.06698,32.83
4,-0.07632446,0.07502747,0.9942474,0.1,-0.1193542,0.07737732,0.9898224,-32.71324,-3.301712,-26.45305,3.528458,0.5484417,0.6591307,0.1,-0.06855774,0.07460022,0.9948425,30.64627,0.2193298,-26.47435,3.134048,0.5799114,0.5415941,0.0602895,1.207756,-0.1697417,0.01286322,-0.03058586,0.02752137,0.9049013,-54.06698,32.83
4,-0.07588196,0.06991577,0.9946594,0.1,-0.1192169,0.07730103,0.9898529,-32.71373,-3.301712,-26.4675,3.526917,0.5484417,0.6592871,0.1,-0.06866455,0.06867981,0.9952698,30.64647,0.2116089,-26.47285,3.133438,0.5799114,0.5428516,0.06034195,1.207836,-0.1698263,0.01255723,-0.03052929,0.0274232,0.9049013,-54.06698,32.83
4,-0.08183289,0.0730896,0.9939575,0.1,-0.1192474,0.07324219,0.9901428,-32.71336,-3.307281,-26.47833,3.508911,0.5484417,0.6602594,0.1,-0.06794739,0.07299805,0.9950104,30.64647,0.2043762,-26.47667,3.144058,0.5797967,0.5424011,0.0603497,1.207913,-0.169889,0.01215627,-0.03052612,0.02739302,0.9049013,20.22665,32.83
4,-0.09310913,0.07029724,0.9931641,0.1,-0.1197205,0.06877136,0.9904175,-32.71324,-3.313461,-26.47462,3.476669,0.5485171,0.661147,0.1,-0.07084656,0.0715332,0.9949036,30.64662,0.1978455,-26.47667,3.118607,0.5802903,0.5428516,0.06036603,1.207985,-0.1699517,0.01187098,-0.03051978,0.02739683,0.9049013,20.22665,32.83
4,-0.09310913,0.07029724,0.9931641,0.1,-0.1197205,0.06877136,0.9904175,-32.71324,-3.313461,-26.47462,3.476669,0.5485171,0.661147,0.1,-0.07084656,0.0715332,0.9949036,30.64662,0.1978455,-26.47667,3.118607,0.5802903,0.5428516,0.06036603,1.207985,-0.1699517,0.01187098,-0.03051978,0.02739683,0.9049013,20.22665,32.83
4,-0.09609985,0.06860352,0.9929962,0.1,-0.1199493,0.06578064,0.9905853,-32.71313,-3.316223,-26.47203,3.447632,0.5485533,0.6616857,0.1,-0.07002258,0.07165527,0.9949646,30.64673,0.1949615,-26.47815,3.125473,0.5801457,0.5429515,0.06036603,1.207985,-0.1699517,0.01187098,-0.03051978,0.02739683,0.9049013,20.22665,32.83
4,-0.09661865,0.06770325,0.9930115,0.1,-0.1200256,0.06332397,0.9907379,-32.71297,-3.316559,-26.45781,3.428894,0.5485533,0.6619533,0.1,-0.0716095,0.07232666,0.9947968,30.64651,0.1829529,-26.48888,3.111237,0.580435,0.5433312,0.0603739,1.20814,-0.1700546,0.01123113,-0.03051733,0.02734784,0.9049013,20.22665,32.83
4,-0.09745789,0.06852722,0.9928741,0.1,-0.1201935,0.0643158,0.9906616,-32.71233,-3.3237,-26.45305,3.422699,0.5485594,0.6619682,0.1,-0.070755,0.07344055,0.9947815,30.64647,0.1755829,-26.48909,3.118774,0.5802903,0.5433877,0.060449,1.208359,-0.1701452,0.01073317,-0.03052905,0.02722825,0.9049013,20.22665,32.83
4,-0.09825134,0.07009888,0.9926758,0.1,-0.120575,0.06687927,0.9904327,-32.71097,-3.340927,-26.44412,3.414276,0.5485785,0.6620138,0.1,-0.07078552,0.07402039,0.9947357,30.64662,0.1673279,-26.49077,3.118835,0.5802903,0.5435791,0.06048846,1.208495,-0.1702726,0.009862797,-0.0305956,0.02732631,0.9049013,20.22665,32.83
4,-0.09825134,0.07009888,0.9926758,0.1,-0.120575,0.06687927,0.9904327,-32.71097,-3.340927,-26.44412,3.414276,0.5485785,0.6620138,0.1,-0.07078552,0.07402039,0.9947357,30.64662,0.1673279,-26.49077,3.118835,0.5802903,0.5435791,0.06048846,1.208495,-0.1702726,0.009862797,-0.0305956,0.02732631,0.9049013,20.22665,32.83
4,-0.09634399,0.06401062,0.9932709,0.1,-0.1208649,0.06871033,0.9902802,-32.71025,-3.379639,-26.4061,3.38472,0.5485917,0.6625649,0.1,-0.07208252,0.05932617,0.9956207,30.64738,0.1567078,-26.49223,3.120941,0.5804658,0.5464709,0.06047463,1.208618,-0.1704051,0.00925483,-0.03052637,0.02722141,0.9049013,20.22665,32.83
4,-0.09634399,0.06401062,0.9932709,0.1,-0.1208649,0.06871033,0.9902802,-32.71025,-3.379639,-26.4061,3.38472,0.5485917,0.6625649,0.1,-0.07208252,0.05932617,0.9956207,30.64738,0.1567078,-26.49223,3.120941,0.5804658,0.5464709,0.06047463,1.208618,-0.1704051,0.00925483,-0.03052637,0.02722141,0.9049013,20.22665,32.83
4,-0.09576416,0.06288147,0.9934082,0.1,-0.1207581,0.06497192,0.9905396,-32.71025,-3.399796,-26.40083,3.372803,0.5485654,0.6638148,0.1,-0.07301331,0.06095886,0.9954529,30.64777,0.1344757,-26.49438,3.106659,0.5806175,0.5469625,0.0604614,1.208712,-0.1705229,0.008504719,-0.03044767,0.02706605,0.9049013,20.22665,32.83
4,-0.09576416,0.06288147,0.9934082,0.1,-0.1207581,0.06497192,0.9905396,-32.71025,-3.399796,-26.40083,3.372803,0.5485654,0.6638148,0.1,-0.07301331,0.06095886,0.9954529,30.64777,0.1344757,-26.49438,3.106659,0.5806175,0.5469625,0.0604614,1.208712,-0.1705229,0.008504719,-0.03044767,0.02706605,0.9049013,20.22665,32.83
4,-0.09587097,0.05892944,0.9936371,0.1,-0.1211395,0.0695343,0.9901886,-32.71025,-3.427338,-26.3941,3.361023,0.5486383,0.6638734,0.1,-0.07278442,0.04924011,0.9961243,30.64876,0.1205139,-26.49438,3.123932,0.5805237,0.5494463,0.06034279,1.208917,-0.1705833,0.007940202,-0.03062214,0.02701893,0.9049013,20.22665,32.83
4,-0.09587097,0.05892944,0.9936371,0.1,-0.1211395,0.0695343,0.9901886,-32.71025,-3.427338,-26.3941,3.361023,0.5486383,0.6638734,0.1,-0.07278442,0.04924011,0.9961243,30.64876,0.1205139,-26.49438,3.123932,0.5805237,0.5494463,0.06034279,1.208917,-0.1705833,0.007940202,-0.03062214,0.02701893,0.9049013,20.22665,32.83
4,-0.09820557,0.05230713,0.9937744,0.1,-0.1252899,0.05889893,0.9903564,-32.70996,-3.543884,-26.31219,3.279633,0.5492862,0.6686671,0.1,-0.07371521,0.04634094,0.9962006,30.65012,0.09194946,-26.48219,3.152206,0.5806175,0.5508182,0.06027496,1.209033,-0.1706787,0.007125185,-0.03080408,0.02697975,0.9049013,20.22665,32.83
4,-0.09820557,0.05230713,0.9937744,0.1,-0.1252899,0.05889893,0.9903564,-32.70996,-3.543884,-26.31219,3.279633,0.5492862,0.6686671,0.1,-0.07371521,0.04634094,0.9962006,30.65012,0.09194946,-26.48219,3.152206,0.5806175,0.5508182,0.06027496,1.209033,-0.1706787,0.007125185,-0.03080408,0.02697975,0.9049013,20.22665,32.83
4,-0.09536743,0.04969788,0.9941864,0.1,-0.1266022,0.06027222,0.9901123,-32.713,-3.573029,-26.29112,3.283432,0.5495973,0.6691962,0.1,-0.0735321,0.0422821,0.9963837,30.65163,0.08782959,-26.47603,3.155655,0.5805237,0.5515862,0.06020677,1.209194,-0.1707693,0.006386273,-0.03112362,0.02703382,0.9049013,30.00022,32.83
4,-0.09536743,0.04969788,0.9941864,0.1,-0.1266022,0.06027222,0.9901123,-32.713,-3.573029,-26.29112,3.283432,0.5495973,0.6691962,0.1,-0.0735321,0.0422821,0.9963837,30.65163,0.08782959,-26.47603,3.155655,0.5805237,0.5515862,0.06020677,1.209194,-0.1707693,0.006386273,-0.03112362,0.02703382,0.9049013,30.00022,32.83
4,-0.0920105,0.04576111,0.9947052,0.1,-0.125412,0.05337524,0.9906616,-32.71443,-3.573593,-26.30043,3.273987,0.5494418,0.6704808,0.1,-0.07270813,0.04135132,0.9964905,30.65163,0.02232361,-26.46031,3.160385,0.5803587,0.5538118,0.06022727,1.209335,-0.1708549,0.005679878,-0.03127836,0.02709329,0.9049013,30.00022,32.83
