Second,eye_comb_direction_x,eye_comb_direction_y,eye_comb_direction_z,eye_r_openness,eye_r_direction_x,eye_r_direction_y,eye_r_direction_z,eye_r_origin_x,eye_r_origin_y,eye_r_origin_z,eye_r_pupil_diameter,eye_r_pupil_position_x,eye_r_pupil_position_y,eye_l_openness,eye_l_direction_x,eye_l_direction_y,eye_l_direction_z,eye_l_origin_x,eye_l_origin_y,eye_l_origin_z,eye_l_pupil_diameter,eye_l_pupil_position_x,eye_l_pupil_position_y,head_position_x,head_position_y,head_position_z,head_rotation_roll,head_rotation_pitch,head_rotation_yaw,EDA,BVP,TMP
0,0.0,0.0,0.0,0.0,0.0,0.0,0.0,0.0,0.0,0.0,0.0,0.0,0.0,0.0,0.0,0.0,0.0,0.0,0.0,0.0,0.0,0.0,0.0,0.0,0.0,0.0,0.0,0.0,0.0,2.2141505813216287,0.2280573493294318,31.305015849792735
0,-1.0,-1.0,-1.0,0.1,0.0,0.0,0.0,-31.06834,-3.941986,-27.01088,-1.0,0.4502159,0.7201378,0.675285,0.0,0.0,0.0,33.93448,-6.0914,-26.80598,-1.0,0.4483168,0.8271013,0.02307951,1.209781,-0.1033167,-0.02328889,0.005823663,0.0225166,2.2141505813216287,0.2280573493294318,31.305015849792735
1,0.006271362,-0.4002533,0.9163666,0.1,0.0,0.0,0.0,-31.10176,-3.900131,-26.99968,-1.0,0.4523708,0.7172289,0.755168,0.006271362,-0.4002533,0.9163666,33.9474,-4.869247,-27.66229,3.44928,0.4520037,0.8172719,0.0235275,1.209715,-0.1027755,-0.02268177,0.005246184,0.02143195,2.032703,0.2280573493294318,31.305015849792735
1,0.006271362,-0.4002533,0.9163666,0.1,0.0,0.0,0.0,-31.10176,-3.900131,-26.99968,-1.0,0.4523708,0.7172289,0.755168,0.006271362,-0.4002533,0.9163666,33.9474,-4.869247,-27.66229,3.44928,0.4520037,0.8172719,0.0235275,1.209715,-0.1027755,-0.02268177,0.005246184,0.02143195,2.032703,0.2280573493294318,31.305015849792735
1,0.006271362,-0.4002533,0.9163666,0.1,0.0,0.0,0.0,-31.10176,-3.900131,-26.99968,-1.0,0.4523708,0.7172289,0.755168,0.006271362,-0.4002533,0.9163666,33.9474,-4.869247,-27.66229,3.44928,0.4520037,0.8172719,0.0235275,1.209715,-0.1027755,-0.02268177,0.005246184,0.02143195,2.032703,0.2280573493294318,31.305015849792735
1,0.006271362,-0.4002533,0.9163666,0.1,0.0,0.0,0.0,-31.10176,-3.900131,-26.99968,-1.0,0.4523708,0.7172289,0.755168,0.006271362,-0.4002533,0.9163666,33.9474,-4.869247,-27.66229,3.44928,0.4520037,0.8172719,0.0235275,1.209715,-0.1027755,-0.02268177,0.005246184,0.02143195,2.032703,0.2280573493294318,31.305015849792735
1,0.006271362,-0.4002533,0.9163666,0.1,0.0,0.0,0.0,-31.10176,-3.900131,-26.99968,-1.0,0.4523708,0.7172289,0.755168,0.006271362,-0.4002533,0.9163666,33.9474,-4.869247,-27.66229,3.44928,0.4520037,0.8172719,0.0235275,1.209715,-0.1027755,-0.02268177,0.005246184,0.02143195,2.032703,0.2280573493294318,31.305015849792735
1,0.006271362,-0.4002533,0.9163666,0.1,0.0,0.0,0.0,-31.10176,-3.900131,-26.99968,-1.0,0.4523708,0.7172289,0.755168,0.006271362,-0.4002533,0.9163666,33.9474,-4.869247,-27.66229,3.44928,0.4520037,0.8172719,0.0235275,1.209715,-0.1027755,-0.02268177,0.005246184,0.02143195,2.032703,0.2280573493294318,31.305015849792735
1,0.006271362,-0.4002533,0.9163666,0.1,0.0,0.0,0.0,-31.10176,-3.900131,-26.99968,-1.0,0.4523708,0.7172289,0.755168,0.006271362,-0.4002533,0.9163666,33.9474,-4.869247,-27.66229,3.44928,0.4520037,0.8172719,0.0235275,1.209715,-0.1027755,-0.02268177,0.005246184,0.02143195,2.032703,0.2280573493294318,31.305015849792735
1,0.006271362,-0.4002533,0.9163666,0.1,0.0,0.0,0.0,-31.10176,-3.900131,-26.99968,-1.0,0.4523708,0.7172289,0.755168,0.006271362,-0.4002533,0.9163666,33.9474,-4.869247,-27.66229,3.44928,0.4520037,0.8172719,0.0235275,1.209715,-0.1027755,-0.02268177,0.005246184,0.02143195,2.032703,0.2280573493294318,31.305015849792735
1,0.006271362,-0.4002533,0.9163666,0.1,0.0,0.0,0.0,-31.10176,-3.900131,-26.99968,-1.0,0.4523708,0.7172289,0.755168,0.006271362,-0.4002533,0.9163666,33.9474,-4.869247,-27.66229,3.44928,0.4520037,0.8172719,0.0235275,1.209715,-0.1027755,-0.02268177,0.005246184,0.02143195,2.032703,0.2280573493294318,31.305015849792735
1,-0.007675171,-0.1191406,0.9928436,0.1,-0.04943848,-0.111618,0.9925079,-30.10713,-4.148117,-24.09302,5.29306,0.4494851,0.6953706,1.0,0.02632141,-0.1251068,0.9917908,33.96736,-5.346512,-26.64714,5.303452,0.4490623,0.7690612,0.02593529,1.208952,-0.1011962,-0.01969649,0.007377936,0.01819012,2.032703,0.2280573493294318,31.305015849792735
1,-0.007675171,-0.1191406,0.9928436,0.1,-0.04943848,-0.111618,0.9925079,-30.10713,-4.148117,-24.09302,5.29306,0.4494851,0.6953706,1.0,0.02632141,-0.1251068,0.9917908,33.96736,-5.346512,-26.64714,5.303452,0.4490623,0.7690612,0.02593529,1.208952,-0.1011962,-0.01969649,0.007377936,0.01819012,2.032703,0.2280573493294318,31.305015849792735
1,-0.007675171,-0.1191406,0.9928436,0.1,-0.04943848,-0.111618,0.9925079,-30.10713,-4.148117,-24.09302,5.29306,0.4494851,0.6953706,1.0,0.02632141,-0.1251068,0.9917908,33.96736,-5.346512,-26.64714,5.303452,0.4490623,0.7690612,0.02593529,1.208952,-0.1011962,-0.01969649,0.007377936,0.01819012,2.032703,0.2280573493294318,31.305015849792735
1,-0.007675171,-0.1191406,0.9928436,0.1,-0.04943848,-0.111618,0.9925079,-30.10713,-4.148117,-24.09302,5.29306,0.4494851,0.6953706,1.0,0.02632141,-0.1251068,0.9917908,33.96736,-5.346512,-26.64714,5.303452,0.4490623,0.7690612,0.02593529,1.208952,-0.1011962,-0.01969649,0.007377936,0.01819012,2.032703,0.2280573493294318,31.305015849792735
1,-0.007675171,-0.1191406,0.9928436,0.1,-0.04943848,-0.111618,0.9925079,-30.10713,-4.148117,-24.09302,5.29306,0.4494851,0.6953706,1.0,0.02632141,-0.1251068,0.9917908,33.96736,-5.346512,-26.64714,5.303452,0.4490623,0.7690612,0.02593529,1.208952,-0.1011962,-0.01969649,0.007377936,0.01819012,2.032703,0.2280573493294318,31.305015849792735
1,-0.007675171,-0.1191406,0.9928436,0.1,-0.04943848,-0.111618,0.9925079,-30.10713,-4.148117,-24.09302,5.29306,0.4494851,0.6953706,1.0,0.02632141,-0.1251068,0.9917908,33.96736,-5.346512,-26.64714,5.303452,0.4490623,0.7690612,0.02593529,1.208952,-0.1011962,-0.01969649,0.007377936,0.01819012,2.032703,0.2280573493294318,31.305015849792735
1,-0.01438904,-0.1088409,0.9939423,0.1,-0.06192017,-0.1007843,0.9929657,-30.11549,-4.132477,-24.13252,5.326385,0.4517532,0.6935204,1.0,0.04090881,-0.1178894,0.9921722,33.97208,-5.381042,-26.6015,5.305389,0.4464796,0.7684528,0.02600157,1.208848,-0.101215,-0.01963322,0.007324219,0.01823879,2.032703,0.2280573493294318,31.305015849792735
1,-0.01438904,-0.1088409,0.9939423,0.1,-0.06192017,-0.1007843,0.9929657,-30.11549,-4.132477,-24.13252,5.326385,0.4517532,0.6935204,1.0,0.04090881,-0.1178894,0.9921722,33.97208,-5.381042,-26.6015,5.305389,0.4464796,0.7684528,0.02600157,1.208848,-0.101215,-0.01963322,0.007324219,0.01823879,2.032703,0.2280573493294318,31.305015849792735
1,-0.02420044,-0.1042023,0.9942474,0.1,-0.06976318,-0.0912323,0.9933777,-30.11549,-4.135849,-24.11217,5.353195,0.4530192,0.6918629,1.0,0.03561401,-0.1208496,0.9920197,33.97137,-5.387527,-26.58821,5.304428,0.4473835,0.769044,0.0260154,1.208786,-0.1012472,-0.01943258,0.007314039,0.01829182,2.032703,0.2280573493294318,31.305015849792735
1,-0.02420044,-0.1042023,0.9942474,0.1,-0.06976318,-0.0912323,0.9933777,-30.11549,-4.135849,-24.11217,5.353195,0.4530192,0.6918629,1.0,0.03561401,-0.1208496,0.9920197,33.97137,-5.387527,-26.58821,5.304428,0.4473835,0.769044,0.0260154,1.208786,-0.1012472,-0.01943258,0.007314039,0.01829182,2.032703,0.2280573493294318,31.305015849792735
1,-0.02420044,-0.1042023,0.9942474,0.1,-0.06976318,-0.0912323,0.9933777,-30.11549,-4.135849,-24.11217,5.353195,0.4530192,0.6918629,1.0,0.03561401,-0.1208496,0.9920197,33.97137,-5.387527,-26.58821,5.304428,0.4473835,0.769044,0.02603686,1.208764,-0.1012218,-0.01938152,0.007321167,0.01833129,2.032703,0.2280573493294318,31.305015849792735
1,-0.02420044,-0.1042023,0.9942474,0.1,-0.06976318,-0.0912323,0.9933777,-30.11549,-4.135849,-24.11217,5.353195,0.4530192,0.6918629,1.0,0.03561401,-0.1208496,0.9920197,33.97137,-5.387527,-26.58821,5.304428,0.4473835,0.769044,0.02608764,1.208726,-0.1011745,-0.01920621,0.007335401,0.01829141,2.032703,0.2280573493294318,31.305015849792735
1,-0.02420044,-0.1042023,0.9942474,0.1,-0.06976318,-0.0912323,0.9933777,-30.11549,-4.135849,-24.11217,5.353195,0.4530192,0.6918629,1.0,0.03561401,-0.1208496,0.9920197,33.97137,-5.387527,-26.58821,5.304428,0.4473835,0.769044,0.02608764,1.208726,-0.1011745,-0.01920621,0.007335401,0.01829141,2.032703,0.2280573493294318,31.305015849792735
1,-0.02420044,-0.1042023,0.9942474,0.1,-0.06976318,-0.0912323,0.9933777,-30.11549,-4.135849,-24.11217,5.353195,0.4530192,0.6918629,1.0,0.03561401,-0.1208496,0.9920197,33.97137,-5.387527,-26.58821,5.304428,0.4473835,0.769044,0.02606213,1.208682,-0.101189,-0.01915104,0.007339462,0.01825717,2.032703,0.2280573493294318,31.305015849792735
1,-0.02947998,-0.08718872,0.9957428,0.1,-0.07521057,-0.07701111,0.9941864,-30.11435,-4.133636,-24.11217,5.362396,0.4538741,0.689445,1.0,0.034729,-0.1011353,0.9942627,33.96812,-5.399063,-26.54938,5.317535,0.4476996,0.7654731,0.02607548,1.208693,-0.1011703,-0.0191697,0.00740817,0.01819831,2.032703,0.2280573493294318,31.305015849792735
1,-0.02947998,-0.08718872,0.9957428,0.1,-0.07521057,-0.07701111,0.9941864,-30.11435,-4.133636,-24.11217,5.362396,0.4538741,0.689445,1.0,0.034729,-0.1011353,0.9942627,33.96812,-5.399063,-26.54938,5.317535,0.4476996,0.7654731,0.02607548,1.208693,-0.1011703,-0.0191697,0.00740817,0.01819831,2.032703,0.2280573493294318,31.305015849792735
1,-0.03419495,-0.08425903,0.9958496,0.1,-0.08036804,-0.07492065,0.9939423,-30.11292,-4.132477,-24.11217,5.364105,0.4546542,0.6890831,1.0,0.03515625,-0.09790039,0.9945679,33.96565,-5.399063,-26.53931,5.315674,0.4477271,0.7647721,0.02611268,1.208688,-0.101149,-0.01917864,0.007417216,0.01818643,2.032703,0.2280573493294318,31.305015849792735
1,-0.03475952,-0.07884216,0.9962769,0.1,-0.08073425,-0.067276,0.9944611,-30.11078,-4.132401,-24.12434,5.367325,0.4546542,0.6879351,1.0,0.03385925,-0.09573364,0.9948273,33.96167,-5.399063,-26.53931,5.307648,0.4480862,0.7643819,0.02615178,1.20866,-0.1011119,-0.0191732,0.00756639,0.01802099,2.032703,0.2280573493294318,31.305015849792735
1,-0.03475952,-0.07884216,0.9962769,0.1,-0.08073425,-0.067276,0.9944611,-30.11078,-4.132401,-24.12434,5.367325,0.4546542,0.6879351,1.0,0.03385925,-0.09573364,0.9948273,33.96167,-5.399063,-26.53931,5.307648,0.4480862,0.7643819,0.02615917,1.208669,-0.1010965,-0.01911015,0.007615466,0.01801851,2.032703,0.2280573493294318,31.305015849792735
1,-0.03475952,-0.07884216,0.9962769,0.1,-0.08073425,-0.067276,0.9944611,-30.11078,-4.132401,-24.12434,5.367325,0.4546542,0.6879351,1.0,0.03385925,-0.09573364,0.9948273,33.96167,-5.399063,-26.53931,5.307648,0.4480862,0.7643819,0.02615917,1.208669,-0.1010965,-0.01911015,0.007615466,0.01801851,2.032703,0.2280573493294318,31.305015849792735
1,-0.03475952,-0.07884216,0.9962769,0.1,-0.08073425,-0.067276,0.9944611,-30.11078,-4.132401,-24.12434,5.367325,0.4546542,0.6879351,1.0,0.03385925,-0.09573364,0.9948273,33.96167,-5.399063,-26.53931,5.307648,0.4480862,0.7643819,0.02619505,1.208663,-0.1010739,-0.01902379,0.007788622,0.0178277,2.032703,0.2280573493294318,31.305015849792735
1,-0.03475952,-0.07884216,0.9962769,0.1,-0.08073425,-0.067276,0.9944611,-30.11078,-4.132401,-24.12434,5.367325,0.4546542,0.6879351,1.0,0.03385925,-0.09573364,0.9948273,33.96167,-5.399063,-26.53931,5.307648,0.4480862,0.7643819,0.02619505,1.208663,-0.1010739,-0.01902379,0.007788622,0.0178277,2.032703,0.2280573493294318,31.305015849792735
1,-0.03494263,-0.07640076,0.99646,0.1,-0.08128357,-0.06512451,0.9945526,-30.10826,-4.131149,-24.12488,5.344543,0.4546699,0.6875231,1.0,0.03283691,-0.09254456,0.995163,33.96083,-5.399063,-26.53931,5.30397,0.4482942,0.7638075,0.02626479,1.208599,-0.1010545,-0.01905588,0.00790635,0.01780847,2.032703,0.2280573493294318,31.305015849792735
1,-0.03494263,-0.07640076,0.99646,0.1,-0.08128357,-0.06512451,0.9945526,-30.10826,-4.131149,-24.12488,5.344543,0.4546699,0.6875231,1.0,0.03283691,-0.09254456,0.995163,33.96083,-5.399063,-26.53931,5.30397,0.4482942,0.7638075,0.02630794,1.208574,-0.1010336,-0.01903045,0.007965498,0.0177779,2.032703,0.2280573493294318,31.305015849792735
1,-0.03494263,-0.07640076,0.99646,0.1,-0.08128357,-0.06512451,0.9945526,-30.10826,-4.131149,-24.12488,5.344543,0.4546699,0.6875231,1.0,0.03283691,-0.09254456,0.995163,33.96083,-5.399063,-26.53931,5.30397,0.4482942,0.7638075,0.02630794,1.208574,-0.1010336,-0.01903045,0.007965498,0.0177779,2.032703,0.2280573493294318,31.305015849792735
1,-0.03494263,-0.07640076,0.99646,0.1,-0.08128357,-0.06512451,0.9945526,-30.10826,-4.131149,-24.12488,5.344543,0.4546699,0.6875231,1.0,0.03283691,-0.09254456,0.995163,33.96083,-5.399063,-26.53931,5.30397,0.4482942,0.7638075,0.02631438,1.208523,-0.1010178,-0.01891381,0.008116528,0.01778837,2.032703,0.2280573493294318,31.305015849792735
1,-0.03494263,-0.07640076,0.99646,0.1,-0.08128357,-0.06512451,0.9945526,-30.10826,-4.131149,-24.12488,5.344543,0.4546699,0.6875231,1.0,0.03283691,-0.09254456,0.995163,33.96083,-5.399063,-26.53931,5.30397,0.4482942,0.7638075,0.02630246,1.208521,-0.1009908,-0.01881032,0.008165948,0.01778753,2.032703,0.2280573493294318,31.305015849792735
1,-0.03494263,-0.07640076,0.99646,0.1,-0.08128357,-0.06512451,0.9945526,-30.10826,-4.131149,-24.12488,5.344543,0.4546699,0.6875231,1.0,0.03283691,-0.09254456,0.995163,33.96083,-5.399063,-26.53931,5.30397,0.4482942,0.7638075,0.02630246,1.208521,-0.1009908,-0.01881032,0.008165948,0.01778753,2.032703,0.2280573493294318,31.305015849792735
1,-0.03366089,-0.07687378,0.99646,0.1,-0.08152771,-0.06492615,0.9945526,-30.10703,-4.131149,-24.12488,5.344711,0.4546699,0.6874949,1.0,0.03125,-0.09274292,0.9951935,33.95847,-5.399063,-26.53931,5.27681,0.4486421,0.7638075,0.02622783,1.208408,-0.1009872,-0.01854866,0.008072347,0.01788695,2.032703,0.2280573493294318,31.305015849792735
1,-0.03366089,-0.07687378,0.99646,0.1,-0.08152771,-0.06492615,0.9945526,-30.10703,-4.131149,-24.12488,5.344711,0.4546699,0.6874949,1.0,0.03125,-0.09274292,0.9951935,33.95847,-5.399063,-26.53931,5.27681,0.4486421,0.7638075,0.02616894,1.208346,-0.1009951,-0.01845968,0.00802885,0.01788486,2.032703,0.2280573493294318,31.305015849792735
1,-0.03366089,-0.07687378,0.99646,0.1,-0.08152771,-0.06492615,0.9945526,-30.10703,-4.131149,-24.12488,5.344711,0.4546699,0.6874949,1.0,0.03125,-0.09274292,0.9951935,33.95847,-5.399063,-26.53931,5.27681,0.4486421,0.7638075,0.02616894,1.208346,-0.1009951,-0.01845968,0.00802885,0.01788486,2.032703,0.2280573493294318,31.305015849792735
1,-0.03366089,-0.07687378,0.99646,0.1,-0.08152771,-0.06492615,0.9945526,-30.10703,-4.131149,-24.12488,5.344711,0.4546699,0.6874949,1.0,0.03125,-0.09274292,0.9951935,33.95847,-5.399063,-26.53931,5.27681,0.4486421,0.7638075,0.02610528,1.208307,-0.1009686,-0.01823185,0.007805821,0.01796591,2.032703,0.2280573493294318,31.305015849792735
1,-0.03366089,-0.07687378,0.99646,0.1,-0.08152771,-0.06492615,0.9945526,-30.10703,-4.131149,-24.12488,5.344711,0.4546699,0.6874949,1.0,0.03125,-0.09274292,0.9951935,33.95847,-5.399063,-26.53931,5.27681,0.4486421,0.7638075,0.02610528,1.208307,-0.1009686,-0.01823185,0.007805821,0.01796591,2.032703,0.2280573493294318,31.305015849792735
1,-0.03533936,-0.0565033,0.9977722,0.1,-0.07371521,-0.0745697,0.9944763,-30.06667,-4.060974,-24.25504,4.83905,0.4521857,0.6876828,1.0,0.02328491,-0.02876282,0.9993134,33.93272,-5.350906,-26.68494,5.065857,0.4509849,0.7522444,0.02601933,1.208236,-0.1009228,-0.01794517,0.007624266,0.01808001,2.032703,44.55789,31.305015849792735
1,-0.03533936,-0.0565033,0.9977722,0.1,-0.07371521,-0.0745697,0.9944763,-30.06667,-4.060974,-24.25504,4.83905,0.4521857,0.6876828,1.0,0.02328491,-0.02876282,0.9993134,33.93272,-5.350906,-26.68494,5.065857,0.4509849,0.7522444,0.02596271,1.208222,-0.1008989,-0.01777413,0.00744829,0.01816553,2.032703,44.55789,31.305015849792735
1,-0.03533936,-0.0565033,0.9977722,0.1,-0.07371521,-0.0745697,0.9944763,-30.06667,-4.060974,-24.25504,4.83905,0.4521857,0.6876828,1.0,0.02328491,-0.02876282,0.9993134,33.93272,-5.350906,-26.68494,5.065857,0.4509849,0.7522444,0.02596271,1.208222,-0.1008989,-0.01777413,0.00744829,0.01816553,2.032703,44.55789,31.305015849792735
1,-0.03533936,-0.0565033,0.9977722,0.1,-0.07371521,-0.0745697,0.9944763,-30.06667,-4.060974,-24.25504,4.83905,0.4521857,0.6876828,1.0,0.02328491,-0.02876282,0.9993134,33.93272,-5.350906,-26.68494,5.065857,0.4509849,0.7522444,0.02586401,1.208125,-0.1008365,-0.01753781,0.007137722,0.01830933,2.032703,44.55789,31.305015849792735
1,-0.0352478,-0.06056213,0.9975281,0.1,-0.07772827,-0.0680542,0.9946442,-30.0571,-4.100327,-24.15834,4.794876,0.452551,0.6868701,1.0,0.0259552,-0.04957581,0.9984283,33.9346,-5.338425,-26.73206,4.840179,0.4504268,0.7557423,0.02577055,1.20803,-0.10083,-0.0171064,0.006988992,0.0184403,2.032703,44.55789,31.305015849792735
1,-0.0352478,-0.06056213,0.9975281,0.1,-0.07772827,-0.0680542,0.9946442,-30.0571,-4.100327,-24.15834,4.794876,0.452551,0.6868701,1.0,0.0259552,-0.04957581,0.9984283,33.9346,-5.338425,-26.73206,4.840179,0.4504268,0.7557423,0.02577055,1.20803,-0.10083,-0.0171064,0.006988992,0.0184403,2.032703,44.55789,31.305015849792735
1,-0.07347107,-0.06648254,0.9950714,0.1,-0.08200073,-0.06781006,0.9943085,-30.05116,-4.109085,-24.16721,4.636536,0.4530871,0.6870725,1.0,0.01663208,-0.05236816,0.9984741,33.94406,-5.2491,-26.9496,4.670029,0.4516413,0.7554384,0.0257262,1.20792,-0.1007504,-0.0167165,0.006749285,0.01868553,2.032703,44.55789,31.305015849792735
1,-0.07629395,-0.06721497,0.994812,0.1,-0.0811615,-0.06800842,0.9943695,-30.0463,-4.096115,-24.20607,4.623749,0.4527881,0.6870725,1.0,0.01643372,-0.05200195,0.9985046,33.94501,-5.240311,-26.95901,4.652664,0.4516413,0.7551624,0.0257262,1.20792,-0.1007504,-0.0167165,0.006749285,0.01868553,2.032703,44.55789,31.305015849792735
2,-0.07144165,-0.06555176,0.995285,0.1,-0.08128357,-0.06704712,0.9944305,-30.0403,-4.09407,-24.21336,4.608902,0.4526156,0.6869134,1.0,0.01663208,-0.05203247,0.9985046,33.94406,-5.240311,-26.95901,4.643646,0.4516413,0.7551624,0.02567208,1.207816,-0.1006944,-0.01630907,0.006585012,0.01896377,2.032703,44.55789,31.305015849792735
2,-0.07144165,-0.06555176,0.995285,0.1,-0.08128357,-0.06704712,0.9944305,-30.0403,-4.09407,-24.21336,4.608902,0.4526156,0.6869134,1.0,0.01663208,-0.05203247,0.9985046,33.94406,-5.240311,-26.95901,4.643646,0.4516413,0.7551624,0.02567208,1.207816,-0.1006944,-0.01630907,0.006585012,0.01896377,2.032703,44.55789,31.305015849792735
2,-0.0536499,-0.06202698,0.9966278,0.1,-0.0811615,-0.06748962,0.9944,-30.03687,-4.09407,-24.20607,4.608917,0.4524819,0.6869134,1.0,0.01335144,-0.04850769,0.9987183,33.94159,-5.240311,-26.95901,4.642975,0.4522904,0.7545223,0.02554572,1.207728,-0.1005744,-0.0161313,0.006407238,0.01912612,2.032703,44.55789,31.305015849792735
2,-0.03594971,-0.06030273,0.9975281,0.1,-0.08146667,-0.06922913,0.9942627,-30.0352,-4.096115,-24.16721,4.609024,0.4524819,0.6868715,1.0,0.01011658,-0.0511322,0.9986267,33.94138,-5.231155,-26.95901,4.620712,0.4528458,0.7546509,0.02543056,1.207674,-0.10051,-0.01583342,0.006212408,0.01931027,2.032703,44.55789,31.305015849792735
2,-0.03594971,-0.06030273,0.9975281,0.1,-0.08146667,-0.06922913,0.9942627,-30.0352,-4.096115,-24.16721,4.609024,0.4524819,0.6868715,1.0,0.01011658,-0.0511322,0.9986267,33.94138,-5.231155,-26.95901,4.620712,0.4528458,0.7546509,0.02543056,1.207674,-0.10051,-0.01583342,0.006212408,0.01931027,2.032703,44.55789,31.305015849792735
2,-0.04135132,-0.06062317,0.9972992,0.1,-0.08119202,-0.06996155,0.9942322,-30.0352,-4.096161,-24.16223,4.571732,0.4524472,0.6869134,1.0,0.006607056,-0.04925537,0.998764,33.94138,-5.228836,-26.99524,4.619492,0.4534336,0.7546509,0.02538407,1.207567,-0.1004598,-0.01548706,0.006054491,0.01945557,2.032703,44.55789,31.305015849792735
2,-0.04135132,-0.06062317,0.9972992,0.1,-0.08119202,-0.06996155,0.9942322,-30.0352,-4.096161,-24.16223,4.571732,0.4524472,0.6869134,1.0,0.006607056,-0.04925537,0.998764,33.94138,-5.228836,-26.99524,4.619492,0.4534336,0.7546509,0.02538407,1.207567,-0.1004598,-0.01548706,0.006054491,0.01945557,2.032703,44.55789,31.305015849792735
2,-0.03872681,-0.0606842,0.9973907,0.1,-0.08076477,-0.07061768,0.9942169,-30.03604,-4.096146,-24.15247,4.559708,0.4524108,0.6869,1.0,0.0050354,-0.05023193,0.9987183,33.94138,-5.218903,-27.01314,4.610352,0.4536968,0.7546721,0.02529573,1.207361,-0.1004128,-0.01512835,0.006148516,0.01940995,2.032703,21.97005,31.305015849792735
2,-0.03872681,-0.0606842,0.9973907,0.1,-0.08076477,-0.07061768,0.9942169,-30.03604,-4.096146,-24.15247,4.559708,0.4524108,0.6869,1.0,0.0050354,-0.05023193,0.9987183,33.94138,-5.218903,-27.01314,4.610352,0.4536968,0.7546721,0.02529573,1.207361,-0.1004128,-0.01512835,0.006148516,0.01940995,2.032703,21.97005,31.305015849792735
2,-0.03872681,-0.0606842,0.9973907,0.1,-0.08076477,-0.07061768,0.9942169,-30.03604,-4.096146,-24.15247,4.559708,0.4524108,0.6869,1.0,0.0050354,-0.05023193,0.9987183,33.94138,-5.218903,-27.01314,4.610352,0.4536968,0.7546721,0.02525151,1.207217,-0.1003138,-0.0145745,0.006065556,0.01944983,2.032703,21.97005,31.305015849792735
2,-0.03872681,-0.0606842,0.9973907,0.1,-0.08076477,-0.07061768,0.9942169,-30.03604,-4.096146,-24.15247,4.559708,0.4524108,0.6869,1.0,0.0050354,-0.05023193,0.9987183,33.94138,-5.218903,-27.01314,4.610352,0.4536968,0.7546721,0.02525151,1.207217,-0.1003138,-0.0145745,0.006065556,0.01944983,2.032703,21.97005,31.305015849792735
2,-0.03872681,-0.0606842,0.9973907,0.1,-0.08076477,-0.07061768,0.9942169,-30.03604,-4.096146,-24.15247,4.559708,0.4524108,0.6869,1.0,0.0050354,-0.05023193,0.9987183,33.94138,-5.218903,-27.01314,4.610352,0.4536968,0.7546721,0.02525747,1.207055,-0.1002214,-0.01407201,0.005963981,0.01967454,2.032703,21.97005,31.305015849792735
2,-0.03872681,-0.0606842,0.9973907,0.1,-0.08076477,-0.07061768,0.9942169,-30.03604,-4.096146,-24.15247,4.559708,0.4524108,0.6869,1.0,0.0050354,-0.05023193,0.9987183,33.94138,-5.218903,-27.01314,4.610352,0.4536968,0.7546721,0.02525747,1.207055,-0.1002214,-0.01407201,0.005963981,0.01967454,2.032703,21.97005,31.305015849792735
2,-0.03965759,-0.0610199,0.997345,0.1,-0.08035278,-0.07113647,0.9942169,-30.03687,-4.096115,-24.14352,4.547424,0.4523745,0.6868864,1.0,0.004943848,-0.04980469,0.9987335,33.94138,-5.215881,-27.02892,4.58873,0.4537116,0.7546509,0.02519906,1.206906,-0.1002539,-0.01355255,0.005967728,0.01978518,2.032703,21.97005,31.305015849792735
2,-0.03965759,-0.0610199,0.997345,0.1,-0.08035278,-0.07113647,0.9942169,-30.03687,-4.096115,-24.14352,4.547424,0.4523745,0.6868864,1.0,0.004943848,-0.04980469,0.9987335,33.94138,-5.215881,-27.02892,4.58873,0.4537116,0.7546509,0.02519906,1.206906,-0.1002539,-0.01355255,0.005967728,0.01978518,2.032703,21.97005,31.305015849792735
2,-0.03965759,-0.0610199,0.997345,0.1,-0.08035278,-0.07113647,0.9942169,-30.03687,-4.096115,-24.14352,4.547424,0.4523745,0.6868864,1.0,0.004943848,-0.04980469,0.9987335,33.94138,-5.215881,-27.02892,4.58873,0.4537116,0.7546509,0.02520978,1.206773,-0.1001915,-0.01277138,0.005940198,0.01976936,2.032703,21.97005,31.305015849792735
2,-0.03965759,-0.0610199,0.997345,0.1,-0.08035278,-0.07113647,0.9942169,-30.03687,-4.096115,-24.14352,4.547424,0.4523745,0.6868864,1.0,0.004943848,-0.04980469,0.9987335,33.94138,-5.215881,-27.02892,4.58873,0.4537116,0.7546509,0.02520978,1.206773,-0.1001915,-0.01277138,0.005940198,0.01976936,2.032703,21.97005,31.305015849792735
2,-0.00604248,-0.1112976,0.9937592,0.1,-0.006393433,-0.1114502,0.9937439,-29.50439,-4.114517,-24.42799,4.065414,0.4227917,0.6966853,1.0,0.09376526,-0.06660461,0.9933624,34.11971,-5.844864,-25.69455,4.275864,0.4326749,0.7640082,0.02524805,1.206634,-0.100192,-0.01194856,0.005883486,0.01983446,2.032703,21.97005,31.305015849792735
2,-0.00604248,-0.1112976,0.9937592,0.1,-0.006393433,-0.1114502,0.9937439,-29.50439,-4.114517,-24.42799,4.065414,0.4227917,0.6966853,1.0,0.09376526,-0.06660461,0.9933624,34.11971,-5.844864,-25.69455,4.275864,0.4326749,0.7640082,0.02524805,1.206634,-0.100192,-0.01194856,0.005883486,0.01983446,2.032703,21.97005,31.305015849792735
2,0.03620911,-0.09901428,0.9944153,0.1,0.03620911,-0.09901428,0.9944153,-29.28595,-4.165222,-24.48779,3.979904,0.4086014,0.6968092,1.0,0.134079,-0.04385376,0.9899902,34.23593,-6.31752,-24.71199,4.22287,0.4223683,0.7647734,0.02531993,1.206474,-0.1000487,-0.0108807,0.005724304,0.02012014,2.032703,21.97005,31.305015849792735
2,0.03620911,-0.09901428,0.9944153,0.1,0.03620911,-0.09901428,0.9944153,-29.28595,-4.165222,-24.48779,3.979904,0.4086014,0.6968092,1.0,0.134079,-0.04385376,0.9899902,34.23593,-6.31752,-24.71199,4.22287,0.4223683,0.7647734,0.02531993,1.206474,-0.1000487,-0.0108807,0.005724304,0.02012014,2.032703,21.97005,31.305015849792735
2,0.0383606,-0.108963,0.9933014,0.1,0.0383606,-0.108963,0.9933014,-29.28911,-4.167007,-24.48198,3.86969,0.4083396,0.6984413,1.0,0.1114044,-0.05627441,0.9921722,34.34213,-5.790573,-26.25926,4.141739,0.4218577,0.7665414,0.02523768,1.206262,-0.0998832,-0.01003059,0.005609925,0.02021803,2.032703,21.97005,31.305015849792735
2,0.0383606,-0.108963,0.9933014,0.1,0.0383606,-0.108963,0.9933014,-29.28911,-4.167007,-24.48198,3.86969,0.4083396,0.6984413,1.0,0.1114044,-0.05627441,0.9921722,34.34213,-5.790573,-26.25926,4.141739,0.4218577,0.7665414,0.02523768,1.206262,-0.0998832,-0.01003059,0.005609925,0.02021803,2.032703,21.97005,31.305015849792735
2,0.04098511,-0.1091003,0.9931793,0.1,0.04098511,-0.1091003,0.9931793,-29.28923,-4.165222,-24.48778,3.830704,0.4079101,0.6984413,1.0,0.1191864,-0.05941772,0.9910889,34.34886,-5.774185,-26.25926,4.107117,0.42028,0.7665414,0.02516258,1.206045,-0.09971678,-0.009471272,0.005275924,0.02041605,2.032703,-8.547485,31.305015849792735
2,0.04098511,-0.1091003,0.9931793,0.1,0.04098511,-0.1091003,0.9931793,-29.28923,-4.165222,-24.48778,3.830704,0.4079101,0.6984413,1.0,0.1191864,-0.05941772,0.9910889,34.34886,-5.774185,-26.25926,4.107117,0.42028,0.7665414,0.02516258,1.206045,-0.09971678,-0.009471272,0.005275924,0.02041605,2.032703,-8.547485,31.305015849792735
2,0.04353333,-0.1113434,0.9928131,0.1,0.04353333,-0.1113434,0.9928131,-29.28925,-4.162796,-24.48778,3.804291,0.4074888,0.6987323,1.0,0.1207275,-0.04956055,0.9914398,34.34892,-5.786987,-26.24583,4.07959,0.4200337,0.7650409,0.02513754,1.20581,-0.09952813,-0.008629949,0.004964527,0.02033488,2.032703,-8.547485,31.305015849792735
2,0.04353333,-0.1113434,0.9928131,0.1,0.04353333,-0.1113434,0.9928131,-29.28925,-4.162796,-24.48778,3.804291,0.4074888,0.6987323,1.0,0.1207275,-0.04956055,0.9914398,34.34892,-5.786987,-26.24583,4.07959,0.4200337,0.7650409,0.02513754,1.20581,-0.09952813,-0.008629949,0.004964527,0.02033488,2.032703,-8.547485,31.305015849792735
2,0.07455444,-0.08811951,0.9933014,0.1,0.04376221,-0.1125031,0.9926758,-29.29007,-4.147995,-24.4796,3.789032,0.4074888,0.6983386,1.0,0.1245728,-0.04801941,0.9910431,34.35197,-5.7612,-26.31819,3.975281,0.4192228,0.7646067,0.02507162,1.205563,-0.09937358,-0.007359737,0.004745066,0.02039743,2.032703,-8.547485,31.305015849792735
2,0.07455444,-0.08811951,0.9933014,0.1,0.04376221,-0.1125031,0.9926758,-29.29007,-4.147995,-24.4796,3.789032,0.4074888,0.6983386,1.0,0.1245728,-0.04801941,0.9910431,34.35197,-5.7612,-26.31819,3.975281,0.4192228,0.7646067,0.02507162,1.205563,-0.09937358,-0.007359737,0.004745066,0.02039743,2.032703,-8.547485,31.305015849792735
2,0.07066345,-0.09085083,0.9933472,0.1,0.04376221,-0.1145172,0.9924469,-29.29062,-4.145782,-24.47838,3.772415,0.4075035,0.6985943,1.0,0.1197357,-0.04716492,0.9916687,34.35197,-5.750931,-26.35193,3.95459,0.4200337,0.764436,0.0251025,1.205247,-0.09922189,-0.00577097,0.004611286,0.02031545,2.032703,-8.547485,31.305015849792735
2,0.07066345,-0.09085083,0.9933472,0.1,0.04376221,-0.1145172,0.9924469,-29.29062,-4.145782,-24.47838,3.772415,0.4075035,0.6985943,1.0,0.1197357,-0.04716492,0.9916687,34.35197,-5.750931,-26.35193,3.95459,0.4200337,0.764436,0.0251025,1.205247,-0.09922189,-0.00577097,0.004611286,0.02031545,2.032703,-8.547485,31.305015849792735
2,0.06938171,-0.09342957,0.9931946,0.1,0.04412842,-0.1117859,0.9927368,-29.2986,-4.145782,-24.47458,3.765961,0.4077143,0.6980828,1.0,0.1244202,-0.052948,0.9908142,34.35197,-5.716858,-26.36444,3.926041,0.4192228,0.764436,0.02519453,1.204933,-0.09904158,-0.004382647,0.004681838,0.02015639,2.032703,-8.547485,31.305015849792735
2,0.06938171,-0.09342957,0.9931946,0.1,0.04412842,-0.1117859,0.9927368,-29.2986,-4.145782,-24.47458,3.765961,0.4077143,0.6980828,1.0,0.1244202,-0.052948,0.9908142,34.35197,-5.716858,-26.36444,3.926041,0.4192228,0.764436,0.02519453,1.204933,-0.09904158,-0.004382647,0.004681838,0.02015639,2.032703,-8.547485,31.305015849792735
2,0.0735321,-0.09025574,0.9931946,0.1,0.0433197,-0.1123352,0.9927216,-29.30846,-4.145782,-24.44954,3.774384,0.4081852,0.6979191,1.0,0.124588,-0.05252075,0.9908142,34.35101,-5.706635,-26.36607,3.883194,0.4192228,0.7639762,0.0251472,1.204653,-0.09889412,-0.003162069,0.004822936,0.02014012,2.032703,-8.547485,31.305015849792735
2,0.0735321,-0.09025574,0.9931946,0.1,0.0433197,-0.1123352,0.9927216,-29.30846,-4.145782,-24.44954,3.774384,0.4081852,0.6979191,1.0,0.124588,-0.05252075,0.9908142,34.35101,-5.706635,-26.36607,3.883194,0.4192228,0.7639762,0.0251472,1.204653,-0.09889412,-0.003162069,0.004822936,0.02014012,2.032703,-8.547485,31.305015849792735
2,0.06437683,-0.08660889,0.9941559,0.1,0.03475952,-0.1078033,0.9935608,-29.33604,-4.161423,-24.4218,3.776382,0.4105165,0.697354,1.0,0.1148376,-0.05007935,0.9921112,34.353,-5.646164,-26.5359,3.890503,0.42077,0.7633559,0.02513266,1.204382,-0.09871757,-0.00211432,0.004946484,0.0204051,2.032703,-8.547485,31.305015849792735
2,0.06437683,-0.08660889,0.9941559,0.1,0.03475952,-0.1078033,0.9935608,-29.33604,-4.161423,-24.4218,3.776382,0.4105165,0.697354,1.0,0.1148376,-0.05007935,0.9921112,34.353,-5.646164,-26.5359,3.890503,0.42077,0.7633559,0.02513266,1.204382,-0.09871757,-0.00211432,0.004946484,0.0204051,2.032703,-8.547485,31.305015849792735
2,0.05296326,-0.09301758,0.9942474,0.1,0.03581238,-0.108963,0.9933929,-29.34705,-4.169373,-24.34154,3.783981,0.4107497,0.6969755,0.9888104,0.1009674,-0.04795837,0.9937286,34.353,-5.642929,-26.55396,3.907562,0.4231476,0.7630357,0.02519572,1.204173,-0.09862316,-0.0009917039,0.005021231,0.02061001,2.032703,-40.89581,31.305015849792735
2,0.05296326,-0.09301758,0.9942474,0.1,0.03581238,-0.108963,0.9933929,-29.34705,-4.169373,-24.34154,3.783981,0.4107497,0.6969755,0.9888104,0.1009674,-0.04795837,0.9937286,34.353,-5.642929,-26.55396,3.907562,0.4231476,0.7630357,0.02519572,1.204173,-0.09862316,-0.0009917039,0.005021231,0.02061001,2.032703,-40.89581,31.305015849792735
2,0.05075073,-0.09352112,0.9943085,0.1,0.0332489,-0.1073303,0.9936523,-29.35513,-4.170273,-24.33649,3.7798,0.411444,0.6966665,0.9859194,0.09909058,-0.05503845,0.9935455,34.35854,-5.602478,-26.55893,3.904938,0.4232846,0.7629417,0.02531564,1.203953,-0.09858888,0.000422864,0.005193371,0.02046126,2.032703,-40.89581,31.305015849792735
2,0.05075073,-0.09352112,0.9943085,0.1,0.0332489,-0.1073303,0.9936523,-29.35513,-4.170273,-24.33649,3.7798,0.411444,0.6966665,0.9859194,0.09909058,-0.05503845,0.9935455,34.35854,-5.602478,-26.55893,3.904938,0.4232846,0.7629417,0.02531564,1.203953,-0.09858888,0.000422864,0.005193371,0.02046126,2.032703,-40.89581,31.305015849792735
2,0.05075073,-0.09352112,0.9943085,0.1,0.0332489,-0.1073303,0.9936523,-29.35513,-4.170273,-24.33649,3.7798,0.411444,0.6966665,0.9859194,0.09909058,-0.05503845,0.9935455,34.35854,-5.602478,-26.55893,3.904938,0.4232846,0.7629417,0.0253619,1.203586,-0.09839451,0.001781558,0.005263199,0.02044997,2.032703,-40.89581,31.305015849792735
2,0.05075073,-0.09352112,0.9943085,0.1,0.0332489,-0.1073303,0.9936523,-29.35513,-4.170273,-24.33649,3.7798,0.411444,0.6966665,0.9859194,0.09909058,-0.05503845,0.9935455,34.35854,-5.602478,-26.55893,3.904938,0.4232846,0.7629417,0.0253619,1.203586,-0.09839451,0.001781558,0.005263199,0.02044997,2.032703,-40.89581,31.305015849792735
2,0.05075073,-0.09352112,0.9943085,0.1,0.0332489,-0.1073303,0.9936523,-29.35513,-4.170273,-24.33649,3.7798,0.411444,0.6966665,0.9859194,0.09909058,-0.05503845,0.9935455,34.35854,-5.602478,-26.55893,3.904938,0.4232846,0.7629417,0.0253793,1.203403,-0.09832549,0.002447502,0.005334906,0.02056079,2.032703,-40.89581,31.305015849792735
2,0.05075073,-0.09352112,0.9943085,0.1,0.0332489,-0.1073303,0.9936523,-29.35513,-4.170273,-24.33649,3.7798,0.411444,0.6966665,0.9859194,0.09909058,-0.05503845,0.9935455,34.35854,-5.602478,-26.55893,3.904938,0.4232846,0.7629417,0.0253793,1.203403,-0.09832549,0.002447502,0.005334906,0.02056079,2.032703,-40.89581,31.305015849792735
2,0.03125,-0.1076965,0.9936829,0.1,0.03114319,-0.1077576,0.9936829,-29.35963,-4.171158,-24.31787,3.780579,0.4119452,0.6965777,0.9859194,0.08905029,-0.07466125,0.9932098,34.37241,-5.062714,-27.89293,3.858292,0.4240641,0.7629417,0.02537036,1.20323,-0.09818792,0.002960048,0.005230539,0.02065407,2.032703,-40.89581,31.305015849792735
2,0.03125,-0.1076965,0.9936829,0.1,0.03114319,-0.1077576,0.9936829,-29.35963,-4.171158,-24.31787,3.780579,0.4119452,0.6965777,0.9859194,0.08905029,-0.07466125,0.9932098,34.37241,-5.062714,-27.89293,3.858292,0.4240641,0.7629417,0.02534401,1.202938,-0.09790635,0.00386406,0.005161712,0.02056731,2.032703,-40.89581,31.305015849792735
2,0.03125,-0.1076965,0.9936829,0.1,0.03114319,-0.1077576,0.9936829,-29.35963,-4.171158,-24.31787,3.780579,0.4119452,0.6965777,0.9859194,0.08905029,-0.07466125,0.9932098,34.37241,-5.062714,-27.89293,3.858292,0.4240641,0.7629417,0.02532423,1.202843,-0.09781039,0.004446779,0.005119682,0.02061688,2.032703,-40.89581,31.305015849792735
2,0.03125,-0.1076965,0.9936829,0.1,0.03114319,-0.1077576,0.9936829,-29.35963,-4.171158,-24.31787,3.780579,0.4119452,0.6965777,0.9859194,0.08905029,-0.07466125,0.9932098,34.37241,-5.062714,-27.89293,3.858292,0.4240641,0.7629417,0.02532423,1.202843,-0.09781039,0.004446779,0.005119682,0.02061688,2.032703,-40.89581,31.305015849792735
2,0.03125,-0.1076965,0.9936829,0.1,0.03114319,-0.1077576,0.9936829,-29.35963,-4.171158,-24.31787,3.780579,0.4119452,0.6965777,0.9859194,0.08905029,-0.07466125,0.9932098,34.37241,-5.062714,-27.89293,3.858292,0.4240641,0.7629417,0.02529597,1.202674,-0.09769213,0.00494799,0.005122592,0.02053649,2.032703,-40.89581,31.305015849792735
2,0.02908325,-0.1077881,0.9937439,0.1,0.02908325,-0.1077881,0.9937439,-29.36868,-4.172394,-24.28624,3.781494,0.4126024,0.6962785,1.0,0.08268738,-0.0730896,0.9938812,34.37241,-5.057892,-27.91547,3.83223,0.4250495,0.7629098,0.02525175,1.202403,-0.09747899,0.00606924,0.005207697,0.02034879,2.032703,-40.89581,31.305015849792735
2,0.02845764,-0.1053009,0.9940186,0.1,0.02845764,-0.1053009,0.9940186,-29.37123,-4.177597,-24.26399,3.781555,0.4128027,0.6957909,1.0,0.08920288,-0.04019165,0.9951935,34.25122,-5.47612,-26.57182,3.956757,0.4287723,0.7560572,0.02528822,1.202329,-0.09733999,0.006607602,0.005167483,0.02033927,2.032703,-40.89581,31.305015849792735
2,0.02845764,-0.1053009,0.9940186,0.1,0.02845764,-0.1053009,0.9940186,-29.37123,-4.177597,-24.26399,3.781555,0.4128027,0.6957909,1.0,0.08920288,-0.04019165,0.9951935,34.25122,-5.47612,-26.57182,3.956757,0.4287723,0.7560572,0.02528822,1.202329,-0.09733999,0.006607602,0.005167483,0.02033927,2.032703,-40.89581,31.305015849792735
2,0.02845764,-0.1053009,0.9940186,0.1,0.02845764,-0.1053009,0.9940186,-29.37123,-4.177597,-24.26399,3.781555,0.4128027,0.6957909,1.0,0.08920288,-0.04019165,0.9951935,34.25122,-5.47612,-26.57182,3.956757,0.4287723,0.7560572,0.02528775,1.202215,-0.0972445,0.006992189,0.0052405,0.02019037,2.032703,-40.89581,31.305015849792735
2,0.02845764,-0.1053009,0.9940186,0.1,0.02845764,-0.1053009,0.9940186,-29.37123,-4.177597,-24.26399,3.781555,0.4128027,0.6957909,1.0,0.08920288,-0.04019165,0.9951935,34.25122,-5.47612,-26.57182,3.956757,0.4287723,0.7560572,0.02534342,1.202017,-0.09698904,0.007624266,0.005468696,0.02027286,2.032703,-45.94444,31.305015849792735
2,0.02845764,-0.1053009,0.9940186,0.1,0.02845764,-0.1053009,0.9940186,-29.37123,-4.177597,-24.26399,3.781555,0.4128027,0.6957909,1.0,0.08920288,-0.04019165,0.9951935,34.25122,-5.47612,-26.57182,3.956757,0.4287723,0.7560572,0.02534282,1.201897,-0.09692866,0.007991645,0.005429043,0.02031435,2.032703,-45.94444,31.305015849792735
2,0.02845764,-0.1053009,0.9940186,0.1,0.02845764,-0.1053009,0.9940186,-29.37123,-4.177597,-24.26399,3.781555,0.4128027,0.6957909,1.0,0.08920288,-0.04019165,0.9951935,34.25122,-5.47612,-26.57182,3.956757,0.4287723,0.7560572,0.02534282,1.201897,-0.09692866,0.007991645,0.005429043,0.02031435,2.032703,-45.94444,31.305015849792735
2,0.02626038,-0.1018066,0.9944458,0.1,0.02626038,-0.1018066,0.9944458,-29.37784,-4.177597,-24.24887,3.775009,0.4133936,0.6950202,0.9953772,0.07781982,-0.0422821,0.9960632,34.25122,-5.450912,-26.63434,3.821915,0.4306858,0.7560899,0.0253855,1.201652,-0.09681118,0.008652367,0.005569939,0.02028719,2.032703,-45.94444,31.305015849792735
2,-0.005310059,-0.06764221,0.9976807,0.1,-0.005310059,-0.06764221,0.9976807,-29.47456,-4.074326,-24.33461,3.576675,0.4217957,0.6865163,1.0,0.07981873,-0.04299927,0.9958801,34.20924,-5.449432,-26.54561,3.845123,0.4317629,0.7553154,0.02541435,1.201568,-0.09671736,0.008979431,0.005611253,0.0202125,2.032703,-45.94444,31.305015849792735
2,-0.005310059,-0.06764221,0.9976807,0.1,-0.005310059,-0.06764221,0.9976807,-29.47456,-4.074326,-24.33461,3.576675,0.4217957,0.6865163,1.0,0.07981873,-0.04299927,0.9958801,34.20924,-5.449432,-26.54561,3.845123,0.4317629,0.7553154,0.02541435,1.201568,-0.09671736,0.008979431,0.005611253,0.0202125,2.032703,-45.94444,31.305015849792735
2,-0.003128052,-0.07038879,0.9975128,0.1,-0.003128052,-0.07038879,0.9975128,-29.47726,-4.06601,-24.32246,3.577499,0.4215302,0.6865906,0.9905732,0.07646179,-0.03886414,0.9963074,34.20613,-5.466553,-26.50313,3.858414,0.4325361,0.7545545,0.02540588,1.201481,-0.09664959,0.009348547,0.005677254,0.02020808,2.032703,-45.94444,31.305015849792735
2,-0.002334595,-0.07113647,0.9974518,0.1,-0.002639771,-0.0712738,0.9974518,-29.47968,-4.058868,-24.32094,3.581985,0.4215302,0.6864933,0.9935399,0.07476807,-0.03659058,0.996521,34.20613,-5.454086,-26.52393,3.859192,0.4328308,0.7539397,0.02531564,1.201372,-0.09646344,0.00989824,0.005783867,0.02035502,2.032703,-45.94444,31.305015849792735
2,-0.002334595,-0.07113647,0.9974518,0.1,-0.002639771,-0.0712738,0.9974518,-29.47968,-4.058868,-24.32094,3.581985,0.4215302,0.6864933,0.9935399,0.07476807,-0.03659058,0.996521,34.20613,-5.454086,-26.52393,3.859192,0.4328308,0.7539397,0.02531564,1.201372,-0.09646344,0.00989824,0.005783867,0.02035502,2.032703,-45.94444,31.305015849792735
2,-0.001861572,-0.06794739,0.9976807,0.1,-0.002029419,-0.06802368,0.9976807,-29.48422,-4.053268,-24.3226,3.586258,0.4215852,0.685779,0.9621565,0.07154846,-0.0378418,0.9967041,34.20924,-5.424286,-26.56836,3.851456,0.4332634,0.7536322,0.02530038,1.201357,-0.09638238,0.01022699,0.005716489,0.02042518,2.032703,-45.94444,31.305015849792735
2,0.01051331,-0.0634613,0.9979248,0.1,-0.001846313,-0.06855774,0.9976349,-29.48532,-4.046906,-24.33461,3.585709,0.4215852,0.685779,1.0,0.07144165,-0.03826904,0.9967041,34.20924,-5.401642,-26.63081,3.849365,0.4332608,0.7536322,0.02519631,1.201276,-0.09626091,0.01071997,0.005486378,0.02059916,2.032703,-45.94444,31.305015849792735
2,0.01051331,-0.0634613,0.9979248,0.1,-0.001846313,-0.06855774,0.9976349,-29.48532,-4.046906,-24.33461,3.585709,0.4215852,0.685779,1.0,0.07144165,-0.03826904,0.9967041,34.20924,-5.401642,-26.63081,3.849365,0.4332608,0.7536322,0.02519631,1.201276,-0.09626091,0.01071997,0.005486378,0.02059916,2.032703,-45.94444,31.305015849792735
2,0.02677917,-0.05778503,0.9979553,0.1,-0.001876831,-0.07022095,0.9975281,-29.4854,-4.022354,-24.35619,3.585129,0.4215852,0.6854818,0.983608,0.07142639,-0.03825378,0.9967041,34.20924,-5.401642,-26.63081,3.849319,0.4332634,0.7536322,0.02511585,1.201229,-0.09619153,0.01093535,0.005413925,0.02068903,2.032703,-45.94444,31.305015849792735
2,0.0319519,-0.05604553,0.9979095,0.1,-0.002822876,-0.07133484,0.9974365,-29.48741,-4.00827,-24.38304,3.583832,0.4217957,0.6854818,0.9937927,0.07206726,-0.0382843,0.9966583,34.203,-5.39711,-26.63081,3.847198,0.4333657,0.7534789,0.02498853,1.201127,-0.0960815,0.01115725,0.00505377,0.02078424,2.032703,-45.94444,31.305015849792735
2,0.03340149,-0.0552063,0.9979095,0.1,-0.002700806,-0.072052,0.9973907,-29.48965,-3.989899,-24.42937,3.582336,0.4218334,0.6854818,0.9937927,0.072052,-0.03704834,0.9967041,34.203,-5.394226,-26.6476,3.833725,0.4333657,0.7533431,0.02492487,1.201095,-0.09603739,0.01150832,0.00483682,0.02089151,2.032703,18.60913,31.305015849792735
2,-0.0004730225,-0.06951904,0.9975739,0.1,-0.004104614,-0.07112122,0.9974518,-29.49266,-3.986893,-24.43993,3.582169,0.4221567,0.6853349,0.9819348,0.06700134,-0.03970337,0.9969482,34.22125,-5.105637,-27.43411,3.814606,0.4333885,0.752719,0.02485216,1.201027,-0.09601718,0.01173781,0.004632243,0.02092358,2.032703,18.60913,31.305015849792735
2,-0.0004730225,-0.06951904,0.9975739,0.1,-0.004104614,-0.07112122,0.9974518,-29.49266,-3.986893,-24.43993,3.582169,0.4221567,0.6853349,0.9819348,0.06700134,-0.03970337,0.9969482,34.22125,-5.105637,-27.43411,3.814606,0.4333885,0.752719,0.02485216,1.201027,-0.09601718,0.01173781,0.004632243,0.02092358,2.032703,18.60913,31.305015849792735
2,-0.0004730225,-0.06951904,0.9975739,0.1,-0.004104614,-0.07112122,0.9974518,-29.49266,-3.986893,-24.43993,3.582169,0.4221567,0.6853349,0.9819348,0.06700134,-0.03970337,0.9969482,34.22125,-5.105637,-27.43411,3.814606,0.4333885,0.752719,0.02467406,1.200903,-0.09597939,0.01232003,0.004260236,0.02094422,2.032703,18.60913,31.305015849792735
2,-0.0004730225,-0.06951904,0.9975739,0.1,-0.004104614,-0.07112122,0.9974518,-29.49266,-3.986893,-24.43993,3.582169,0.4221567,0.6853349,0.9819348,0.06700134,-0.03970337,0.9969482,34.22125,-5.105637,-27.43411,3.814606,0.4333885,0.752719,0.02461278,1.200783,-0.09593391,0.01254477,0.004039403,0.02099503,2.032703,18.60913,31.305015849792735
2,-0.0004730225,-0.06951904,0.9975739,0.1,-0.004104614,-0.07112122,0.9974518,-29.49266,-3.986893,-24.43993,3.582169,0.4221567,0.6853349,0.9819348,0.06700134,-0.03970337,0.9969482,34.22125,-5.105637,-27.43411,3.814606,0.4333885,0.752719,0.02461278,1.200783,-0.09593391,0.01254477,0.004039403,0.02099503,2.032703,18.60913,31.305015849792735
2,-0.0004730225,-0.06951904,0.9975739,0.1,-0.004104614,-0.07112122,0.9974518,-29.49266,-3.986893,-24.43993,3.582169,0.4221567,0.6853349,0.9819348,0.06700134,-0.03970337,0.9969482,34.22125,-5.105637,-27.43411,3.814606,0.4333885,0.752719,0.02443254,1.200566,-0.0958696,0.01327651,0.00353161,0.02111746,2.032703,18.60913,31.305015849792735
2,-0.0004730225,-0.06951904,0.9975739,0.1,-0.004104614,-0.07112122,0.9974518,-29.49266,-3.986893,-24.43993,3.582169,0.4221567,0.6853349,0.9819348,0.06700134,-0.03970337,0.9969482,34.22125,-5.105637,-27.43411,3.814606,0.4333885,0.752719,0.02443254,1.200566,-0.0958696,0.01327651,0.00353161,0.02111746,2.032703,18.60913,31.305015849792735
2,-0.004989624,-0.07147217,0.9974213,0.1,-0.005065918,-0.07150269,0.9974213,-29.49469,-3.983154,-24.43993,3.606033,0.4223811,0.6852989,0.9910354,0.06494141,-0.04173279,0.9970093,34.22658,-5.077728,-27.4783,3.80867,0.4334971,0.752719,0.02434206,1.200482,-0.09582162,0.01357233,0.003316181,0.0211981,2.032703,18.60913,31.305015849792735
2,-0.004989624,-0.07147217,0.9974213,0.1,-0.005065918,-0.07150269,0.9974213,-29.49469,-3.983154,-24.43993,3.606033,0.4223811,0.6852989,0.9910354,0.06494141,-0.04173279,0.9970093,34.22658,-5.077728,-27.4783,3.80867,0.4334971,0.752719,0.02412736,1.200306,-0.09576881,0.01404445,0.00279165,0.0211675,2.014766,18.60913,31.305015849792735
2,-0.004989624,-0.07147217,0.9974213,0.1,-0.005065918,-0.07150269,0.9974213,-29.49469,-3.983154,-24.43993,3.606033,0.4223811,0.6852989,0.9910354,0.06494141,-0.04173279,0.9970093,34.22658,-5.077728,-27.4783,3.80867,0.4334971,0.752719,0.02404594,1.200222,-0.09572589,0.01437841,0.002554742,0.02110581,2.014766,18.60913,31.305015849792735
2,-0.004989624,-0.07147217,0.9974213,0.1,-0.005065918,-0.07150269,0.9974213,-29.49469,-3.983154,-24.43993,3.606033,0.4223811,0.6852989,0.9910354,0.06494141,-0.04173279,0.9970093,34.22658,-5.077728,-27.4783,3.80867,0.4334971,0.752719,0.02404594,1.200222,-0.09572589,0.01437841,0.002554742,0.02110581,2.014766,18.60913,31.305015849792735
2,-0.006011963,-0.07196045,0.9973755,0.1,-0.006011963,-0.07196045,0.9973755,-29.49568,-3.97818,-24.44975,3.581604,0.4225672,0.6852989,0.9910354,0.0647583,-0.04234314,0.996994,34.22658,-5.072113,-27.4865,3.803482,0.4335239,0.752719,0.02379966,1.20003,-0.09562814,0.01494801,0.002016932,0.02112522,2.014766,18.60913,31.305015849792735
2,-0.008331299,-0.1479187,0.9889526,0.1,-0.008331299,-0.1479187,0.9889526,-29.67859,-3.640961,-24.91876,3.220993,0.4287764,0.6919855,0.9852281,0.06744385,-0.1135254,0.9912262,34.22002,-4.873901,-27.6338,3.19487,0.4331203,0.7598729,0.02370203,1.199954,-0.09558809,0.01519518,0.001687045,0.02123708,2.014766,18.60913,31.305015849792735
2,-0.008331299,-0.1479187,0.9889526,0.1,-0.008331299,-0.1479187,0.9889526,-29.67859,-3.640961,-24.91876,3.220993,0.4287764,0.6919855,0.9852281,0.06744385,-0.1135254,0.9912262,34.22002,-4.873901,-27.6338,3.19487,0.4331203,0.7598729,0.02370203,1.199954,-0.09558809,0.01519518,0.001687045,0.02123708,2.014766,18.60913,31.305015849792735
2,-0.008331299,-0.1479187,0.9889526,0.1,-0.008331299,-0.1479187,0.9889526,-29.67859,-3.640961,-24.91876,3.220993,0.4287764,0.6919855,0.9852281,0.06744385,-0.1135254,0.9912262,34.22002,-4.873901,-27.6338,3.19487,0.4331203,0.7598729,0.0235182,1.199798,-0.09547031,0.01571202,0.001013992,0.02141804,2.014766,21.09474,31.305015849792735
2,-0.008331299,-0.1479187,0.9889526,0.1,-0.008331299,-0.1479187,0.9889526,-29.67859,-3.640961,-24.91876,3.220993,0.4287764,0.6919855,0.9852281,0.06744385,-0.1135254,0.9912262,34.22002,-4.873901,-27.6338,3.19487,0.4331203,0.7598729,0.0235182,1.199798,-0.09547031,0.01571202,0.001013992,0.02141804,2.014766,23.50195,31.305015849792735
2,-0.008331299,-0.1479187,0.9889526,0.1,-0.008331299,-0.1479187,0.9889526,-29.67859,-3.640961,-24.91876,3.220993,0.4287764,0.6919855,0.9852281,0.06744385,-0.1135254,0.9912262,34.22002,-4.873901,-27.6338,3.19487,0.4331203,0.7598729,0.0235182,1.199798,-0.09547031,0.01571202,0.001013992,0.02141804,2.014766,32.7296,31.305015849792735
2,-0.008331299,-0.1479187,0.9889526,0.1,-0.008331299,-0.1479187,0.9889526,-29.67859,-3.640961,-24.91876,3.220993,0.4287764,0.6919855,0.9852281,0.06744385,-0.1135254,0.9912262,34.22002,-4.873901,-27.6338,3.19487,0.4331203,0.7598729,0.02324378,1.199669,-0.09540617,0.01622388,0.0003860203,0.02166465,2.014766,32.7296,31.305015849792735
2,0.07028198,-0.1691742,0.9830627,0.1,0.07028198,-0.1691742,0.9830627,-29.12694,-4.511093,-24.50836,4.626328,0.3974815,0.7212694,0.8059398,0.1849213,-0.1616058,0.9693604,34.87273,-5.921982,-27.32074,4.54686,0.3892729,0.8046976,0.02304924,1.199485,-0.09527755,0.0167,0.0,0.0217963,2.014766,32.7296,31.305015849792735
2,0.07028198,-0.1691742,0.9830627,0.1,0.07028198,-0.1691742,0.9830627,-29.12694,-4.511093,-24.50836,4.626328,0.3974815,0.7212694,0.8059398,0.1849213,-0.1616058,0.9693604,34.87273,-5.921982,-27.32074,4.54686,0.3892729,0.8046976,0.02304924,1.199485,-0.09527755,0.0167,0.0,0.0217963,2.014766,32.7296,31.305015849792735
2,0.07028198,-0.1691742,0.9830627,0.1,0.07028198,-0.1691742,0.9830627,-29.12694,-4.511093,-24.50836,4.626328,0.3974815,0.7212694,0.8059398,0.1849213,-0.1616058,0.9693604,34.87273,-5.921982,-27.32074,4.54686,0.3892729,0.8046976,0.0229336,1.199378,-0.09517968,0.01708723,0.0,0.02194551,2.014766,32.7296,31.305015849792735
3,0.07028198,-0.1691742,0.9830627,0.1,0.07028198,-0.1691742,0.9830627,-29.12694,-4.511093,-24.50836,4.626328,0.3974815,0.7212694,0.8059398,0.1849213,-0.1616058,0.9693604,34.87273,-5.921982,-27.32074,4.54686,0.3892729,0.8046976,0.02275717,1.199256,-0.09515083,0.01746758,-0.0005725605,0.02222954,2.014766,32.7296,31.305015849792735
3,0.07028198,-0.1691742,0.9830627,0.1,0.07028198,-0.1691742,0.9830627,-29.12694,-4.511093,-24.50836,4.626328,0.3974815,0.7212694,0.8059398,0.1849213,-0.1616058,0.9693604,34.87273,-5.921982,-27.32074,4.54686,0.3892729,0.8046976,0.02275717,1.199256,-0.09515083,0.01746758,-0.0005725605,0.02222954,2.014766,32.7296,31.305015849792735
3,0.07028198,-0.1691742,0.9830627,0.1,0.07028198,-0.1691742,0.9830627,-29.12694,-4.511093,-24.50836,4.626328,0.3974815,0.7212694,0.8059398,0.1849213,-0.1616058,0.9693604,34.87273,-5.921982,-27.32074,4.54686,0.3892729,0.8046976,0.02259421,1.199213,-0.09509003,0.01788945,-0.0008886853,0.02227006,2.014766,32.7296,31.305015849792735
3,0.07028198,-0.1691742,0.9830627,0.1,0.07028198,-0.1691742,0.9830627,-29.12694,-4.511093,-24.50836,4.626328,0.3974815,0.7212694,0.8059398,0.1849213,-0.1616058,0.9693604,34.87273,-5.921982,-27.32074,4.54686,0.3892729,0.8046976,0.02259421,1.199213,-0.09509003,0.01788945,-0.0008886853,0.02227006,2.014766,32.7296,31.305015849792735
3,0.1559448,-0.0001983643,0.9877625,0.1,0.1408081,-0.01119995,0.9899597,-28.71245,-3.211243,-25.43242,3.561722,0.3719139,0.6599074,0.7686695,0.2038422,0.03483582,0.9783783,34.77502,-5.091385,-26.5782,3.449341,0.3909901,0.7296919,0.02243066,1.199147,-0.09500885,0.01799451,-0.001132034,0.0223552,2.014766,32.7296,31.305015849792735
3,0.1559448,-0.0001983643,0.9877625,0.1,0.1408081,-0.01119995,0.9899597,-28.71245,-3.211243,-25.43242,3.561722,0.3719139,0.6599074,0.7686695,0.2038422,0.03483582,0.9783783,34.77502,-5.091385,-26.5782,3.449341,0.3909901,0.7296919,0.02243066,1.199147,-0.09500885,0.01799451,-0.001132034,0.0223552,2.014766,32.7296,31.305015849792735
3,0.1559448,-0.0001983643,0.9877625,0.1,0.1408081,-0.01119995,0.9899597,-28.71245,-3.211243,-25.43242,3.561722,0.3719139,0.6599074,0.7686695,0.2038422,0.03483582,0.9783783,34.77502,-5.091385,-26.5782,3.449341,0.3909901,0.7296919,0.02243066,1.199147,-0.09500885,0.01799451,-0.001132034,0.0223552,2.014766,32.7296,31.305015849792735
3,0.1559448,-0.0001983643,0.9877625,0.1,0.1408081,-0.01119995,0.9899597,-28.71245,-3.211243,-25.43242,3.561722,0.3719139,0.6599074,0.7686695,0.2038422,0.03483582,0.9783783,34.77502,-5.091385,-26.5782,3.449341,0.3909901,0.7296919,0.0223012,1.199124,-0.09493279,0.01810678,-0.001413066,0.02239649,2.014766,32.7296,31.305015849792735
3,0.1798553,0.057724,0.9819946,0.1,0.1213531,-0.005050659,0.9925842,-28.76872,-3.386871,-25.10057,3.484879,0.3772818,0.6611191,0.9095936,0.1816406,0.05966187,0.9815521,34.87175,-4.847519,-27.21906,3.647476,0.3912822,0.7240521,0.02215064,1.199119,-0.09487498,0.01829711,-0.001704619,0.0224088,2.014766,21.9807,31.305015849792735
3,0.1798553,0.057724,0.9819946,0.1,0.1213531,-0.005050659,0.9925842,-28.76872,-3.386871,-25.10057,3.484879,0.3772818,0.6611191,0.9095936,0.1816406,0.05966187,0.9815521,34.87175,-4.847519,-27.21906,3.647476,0.3912822,0.7240521,0.02215064,1.199119,-0.09487498,0.01829711,-0.001704619,0.0224088,2.014766,21.9807,31.305015849792735
3,0.1798553,0.057724,0.9819946,0.1,0.1213531,-0.005050659,0.9925842,-28.76872,-3.386871,-25.10057,3.484879,0.3772818,0.6611191,0.9095936,0.1816406,0.05966187,0.9815521,34.87175,-4.847519,-27.21906,3.647476,0.3912822,0.7240521,0.02215064,1.199119,-0.09487498,0.01829711,-0.001704619,0.0224088,2.014766,21.9807,31.305015849792735
3,0.1116638,0.002853394,0.9937286,0.1,0.1116333,0.002838135,0.9937286,-28.90273,-3.509354,-24.88957,3.534729,0.3834897,0.661689,0.9831355,0.1764832,0.03521729,0.9836578,34.75877,-5.163589,-26.35519,3.806976,0.3966993,0.7296957,0.02197599,1.199048,-0.0948205,0.01848872,-0.001930101,0.02240514,2.014766,21.9807,31.305015849792735
3,0.1117706,-0.01023865,0.9936676,0.1,0.1115875,-0.01034546,0.9936981,-28.90773,-3.509354,-24.91144,3.527542,0.3836353,0.6641426,0.9605515,0.1725006,0.02549744,0.9846649,34.74803,-5.163589,-26.35519,3.689453,0.3976958,0.7312472,0.02182829,1.19903,-0.09476364,0.01861322,-0.002217517,0.02251196,2.014766,21.9807,31.305015849792735
3,0.1117706,-0.01023865,0.9936676,0.1,0.1115875,-0.01034546,0.9936981,-28.90773,-3.509354,-24.91144,3.527542,0.3836353,0.6641426,0.9605515,0.1725006,0.02549744,0.9846649,34.74803,-5.163589,-26.35519,3.689453,0.3976958,0.7312472,0.02182829,1.19903,-0.09476364,0.01861322,-0.002217517,0.02251196,2.014766,21.9807,31.305015849792735
3,0.1137085,-0.009155273,0.9934692,0.1,0.1050262,-0.01475525,0.9943542,-28.9127,-3.513321,-24.87955,3.468002,0.3849039,0.664614,0.9927174,0.1688995,0.02662659,0.98526,34.74722,-5.156509,-26.3954,3.687531,0.3983224,0.7312289,0.02167547,1.198961,-0.09468514,0.01869829,-0.002299981,0.0225295,2.014766,21.9807,31.305015849792735
3,0.1137085,-0.009155273,0.9934692,0.1,0.1050262,-0.01475525,0.9943542,-28.9127,-3.513321,-24.87955,3.468002,0.3849039,0.664614,0.9927174,0.1688995,0.02662659,0.98526,34.74722,-5.156509,-26.3954,3.687531,0.3983224,0.7312289,0.02167547,1.198961,-0.09468514,0.01869829,-0.002299981,0.0225295,2.014766,21.9807,31.305015849792735
3,0.111908,-0.003463745,0.9936981,0.1,0.1032867,-0.008682251,0.9945984,-28.91885,-3.545578,-24.8718,3.517609,0.3854051,0.664614,0.9794192,0.1674042,0.03033447,0.9854126,34.74391,-5.132584,-26.54059,3.684113,0.3985959,0.7313724,0.02150023,1.198935,-0.09466767,0.0187528,-0.002640785,0.02263146,2.014766,21.9807,31.305015849792735
3,0.111908,-0.003463745,0.9936981,0.1,0.1032867,-0.008682251,0.9945984,-28.91885,-3.545578,-24.8718,3.517609,0.3854051,0.664614,0.9794192,0.1674042,0.03033447,0.9854126,34.74391,-5.132584,-26.54059,3.684113,0.3985959,0.7313724,0.02150023,1.198935,-0.09466767,0.0187528,-0.002640785,0.02263146,2.014766,21.9807,31.305015849792735
3,0.1038361,-0.01345825,0.9944916,0.1,0.1022644,-0.01445007,0.9946442,-28.92563,-3.580566,-24.80061,3.510788,0.3858373,0.666004,0.9950244,0.1668549,0.02708435,0.9855957,34.73251,-5.007019,-26.88429,3.691132,0.398868,0.7314772,0.02141953,1.198909,-0.094598,0.01888898,-0.002934769,0.02274901,2.014766,21.9807,31.305015849792735
3,0.1038361,-0.01345825,0.9944916,0.1,0.1022644,-0.01445007,0.9946442,-28.92563,-3.580566,-24.80061,3.510788,0.3858373,0.666004,0.9950244,0.1668549,0.02708435,0.9855957,34.73251,-5.007019,-26.88429,3.691132,0.398868,0.7314772,0.02141953,1.198909,-0.094598,0.01888898,-0.002934769,0.02274901,2.014766,21.9807,31.305015849792735
3,0.1005096,-0.01159668,0.9948578,0.1,0.1004486,-0.01164246,0.994873,-28.93321,-3.613724,-24.74669,3.519699,0.3864281,0.6660797,1.0,0.1631927,0.02601624,0.9862366,34.73018,-4.897614,-27.21381,3.715729,0.3993692,0.7316352,0.02122211,1.198774,-0.0945546,0.01912768,-0.00315263,0.0228728,2.014766,21.9807,31.305015849792735
3,0.1005096,-0.01159668,0.9948578,0.1,0.1004486,-0.01164246,0.994873,-28.93321,-3.613724,-24.74669,3.519699,0.3864281,0.6660797,1.0,0.1631927,0.02601624,0.9862366,34.73018,-4.897614,-27.21381,3.715729,0.3993692,0.7316352,0.02122211,1.198774,-0.0945546,0.01912768,-0.00315263,0.0228728,2.014766,21.9807,31.305015849792735
3,0.09432983,-0.0146637,0.9954224,0.1,0.09423828,-0.01472473,0.9954376,-28.94293,-3.624939,-24.72488,3.534698,0.3877951,0.6667336,1.0,0.1555023,0.02354431,0.9875488,34.72957,-4.902222,-27.20026,3.685516,0.4007362,0.7319865,0.02109396,1.19873,-0.0944925,0.01936614,-0.003376298,0.0229086,2.014766,21.9807,31.305015849792735
3,0.09432983,-0.0146637,0.9954224,0.1,0.09423828,-0.01472473,0.9954376,-28.94293,-3.624939,-24.72488,3.534698,0.3877951,0.6667336,1.0,0.1555023,0.02354431,0.9875488,34.72957,-4.902222,-27.20026,3.685516,0.4007362,0.7319865,0.02109396,1.19873,-0.0944925,0.01936614,-0.003376298,0.0229086,2.014766,21.9807,31.305015849792735
3,0.09576416,-0.01313782,0.9953156,0.1,0.09124756,-0.01548767,0.995697,-28.95268,-3.677368,-24.65886,3.519821,0.388645,0.6679028,1.0,0.1569366,0.01889038,0.9874268,34.71451,-4.902222,-27.20026,3.715607,0.401009,0.7328507,0.02103937,1.198649,-0.0944252,0.01951904,-0.003706598,0.02303606,2.014766,3.428894,31.305015849792735
3,0.09576416,-0.01313782,0.9953156,0.1,0.09124756,-0.01548767,0.995697,-28.95268,-3.677368,-24.65886,3.519821,0.388645,0.6679028,1.0,0.1569366,0.01889038,0.9874268,34.71451,-4.902222,-27.20026,3.715607,0.401009,0.7328507,0.02103937,1.198649,-0.0944252,0.01951904,-0.003706598,0.02303606,2.014766,3.428894,31.305015849792735
3,0.1272278,0.00630188,0.9918518,0.1,0.0836792,-0.01013184,0.9964294,-29.05006,-3.727463,-24.5677,3.639175,0.3931794,0.6678135,1.0,0.1541138,0.01649475,0.9878998,34.67462,-4.921463,-27.16582,3.740784,0.4028957,0.733573,0.02094626,1.198619,-0.094275,0.01982957,-0.004004204,0.02295376,2.014766,3.428894,31.305015849792735
3,0.1272278,0.00630188,0.9918518,0.1,0.0836792,-0.01013184,0.9964294,-29.05006,-3.727463,-24.5677,3.639175,0.3931794,0.6678135,1.0,0.1541138,0.01649475,0.9878998,34.67462,-4.921463,-27.16582,3.740784,0.4028957,0.733573,0.02094626,1.198619,-0.094275,0.01982957,-0.004004204,0.02295376,2.014766,3.428894,31.305015849792735
3,0.1272278,0.00630188,0.9918518,0.1,0.0836792,-0.01013184,0.9964294,-29.05006,-3.727463,-24.5677,3.639175,0.3931794,0.6678135,1.0,0.1541138,0.01649475,0.9878998,34.67462,-4.921463,-27.16582,3.740784,0.4028957,0.733573,0.02087128,1.198478,-0.09421653,0.02003032,-0.004375842,0.02311452,2.014766,3.428894,31.305015849792735
3,0.1272278,0.00630188,0.9918518,0.1,0.0836792,-0.01013184,0.9964294,-29.05006,-3.727463,-24.5677,3.639175,0.3931794,0.6678135,1.0,0.1541138,0.01649475,0.9878998,34.67462,-4.921463,-27.16582,3.740784,0.4028957,0.733573,0.02087128,1.198478,-0.09421653,0.02003032,-0.004375842,0.02311452,2.014766,3.428894,31.305015849792735
3,0.1272278,0.00630188,0.9918518,0.1,0.0836792,-0.01013184,0.9964294,-29.05006,-3.727463,-24.5677,3.639175,0.3931794,0.6678135,1.0,0.1541138,0.01649475,0.9878998,34.67462,-4.921463,-27.16582,3.740784,0.4028957,0.733573,0.02079797,1.198418,-0.09408271,0.02032242,-0.004632242,0.02317408,2.014766,3.428894,31.305015849792735
3,0.1272278,0.00630188,0.9918518,0.1,0.0836792,-0.01013184,0.9964294,-29.05006,-3.727463,-24.5677,3.639175,0.3931794,0.6678135,1.0,0.1541138,0.01649475,0.9878998,34.67462,-4.921463,-27.16582,3.740784,0.4028957,0.733573,0.02079797,1.198418,-0.09408271,0.02032242,-0.004632242,0.02317408,2.014766,3.428894,31.305015849792735
3,0.1272278,0.00630188,0.9918518,0.1,0.0836792,-0.01013184,0.9964294,-29.05006,-3.727463,-24.5677,3.639175,0.3931794,0.6678135,1.0,0.1541138,0.01649475,0.9878998,34.67462,-4.921463,-27.16582,3.740784,0.4028957,0.733573,0.02075255,1.198386,-0.09391135,0.02046963,-0.005034569,0.02330009,2.014766,3.428894,31.305015849792735
3,0.1272278,0.00630188,0.9918518,0.1,0.0836792,-0.01013184,0.9964294,-29.05006,-3.727463,-24.5677,3.639175,0.3931794,0.6678135,1.0,0.1541138,0.01649475,0.9878998,34.67462,-4.921463,-27.16582,3.740784,0.4028957,0.733573,0.02075255,1.198386,-0.09391135,0.02046963,-0.005034569,0.02330009,2.014766,3.428894,31.305015849792735
3,0.2409973,0.0868988,0.9666138,0.1,0.2277527,0.02590942,0.9733582,-28.55267,-3.287018,-24.46889,3.570572,0.3530508,0.6469306,0.8807868,0.2414856,0.08920288,0.9662933,34.99748,-4.632156,-26.93927,3.842575,0.3768614,0.7091328,0.02074683,1.198363,-0.09376633,0.0207577,-0.00521913,0.02293363,2.014766,3.428894,31.305015849792735
3,0.2409973,0.0868988,0.9666138,0.1,0.2277527,0.02590942,0.9733582,-28.55267,-3.287018,-24.46889,3.570572,0.3530508,0.6469306,0.8807868,0.2414856,0.08920288,0.9662933,34.99748,-4.632156,-26.93927,3.842575,0.3768614,0.7091328,0.02074683,1.198363,-0.09376633,0.0207577,-0.00521913,0.02293363,2.014766,3.428894,31.305015849792735
3,0.2004395,0.09063721,0.9754944,0.1,0.1842041,0.08770752,0.9789581,-28.55322,-3.694168,-23.55084,3.731796,0.3610775,0.6406978,0.8916437,0.2004547,0.09065247,0.9754944,35.01291,-4.703186,-26.9269,3.824417,0.3835301,0.7107676,0.02074564,1.198291,-0.09361333,0.02107119,-0.00545915,0.02276996,2.014766,3.428894,31.305015849792735
3,0.2004395,0.09063721,0.9754944,0.1,0.1842041,0.08770752,0.9789581,-28.55322,-3.694168,-23.55084,3.731796,0.3610775,0.6406978,0.8916437,0.2004547,0.09065247,0.9754944,35.01291,-4.703186,-26.9269,3.824417,0.3835301,0.7107676,0.02074564,1.198291,-0.09361333,0.02107119,-0.00545915,0.02276996,2.014766,3.428894,31.305015849792735
3,0.2004395,0.09063721,0.9754944,0.1,0.1842041,0.08770752,0.9789581,-28.55322,-3.694168,-23.55084,3.731796,0.3610775,0.6406978,0.8916437,0.2004547,0.09065247,0.9754944,35.01291,-4.703186,-26.9269,3.824417,0.3835301,0.7107676,0.0207634,1.198233,-0.09349668,0.02138601,-0.005653582,0.02284868,2.014766,3.428894,31.305015849792735
3,0.2004395,0.09063721,0.9754944,0.1,0.1842041,0.08770752,0.9789581,-28.55322,-3.694168,-23.55084,3.731796,0.3610775,0.6406978,0.8916437,0.2004547,0.09065247,0.9754944,35.01291,-4.703186,-26.9269,3.824417,0.3835301,0.7107676,0.0207634,1.198233,-0.09349668,0.02138601,-0.005653582,0.02284868,2.014766,3.428894,31.305015849792735
3,0.2004395,0.09063721,0.9754944,0.1,0.1842041,0.08770752,0.9789581,-28.55322,-3.694168,-23.55084,3.731796,0.3610775,0.6406978,0.8916437,0.2004547,0.09065247,0.9754944,35.01291,-4.703186,-26.9269,3.824417,0.3835301,0.7107676,0.0207566,1.19825,-0.09348536,0.02148576,-0.005828777,0.02286465,2.014766,3.428894,31.305015849792735
3,0.2024536,0.0958252,0.9745789,0.05653857,0.185791,0.01747131,0.9824219,-28.61954,-3.766357,-23.45396,3.104767,0.3629766,0.6530622,0.9420575,0.2024536,0.0958252,0.9745789,35.01314,-4.755234,-26.93893,3.79837,0.3831155,0.7117686,0.02075386,1.198231,-0.09343535,0.02155604,-0.005875882,0.02305126,2.014766,-22.87445,31.305015849792735
3,0.2024536,0.0958252,0.9745789,0.05653857,0.185791,0.01747131,0.9824219,-28.61954,-3.766357,-23.45396,3.104767,0.3629766,0.6530622,0.9420575,0.2024536,0.0958252,0.9745789,35.01314,-4.755234,-26.93893,3.79837,0.3831155,0.7117686,0.02075386,1.198231,-0.09343535,0.02155604,-0.005875882,0.02305126,2.014766,-22.87445,31.305015849792735
3,0.1940308,0.09684753,0.9761963,0.08688832,0.1659698,0.05354309,0.9846649,-28.64565,-3.759613,-23.43802,3.499634,0.3672206,0.6469568,0.9706985,0.1940308,0.09684753,0.9761963,35.00746,-4.769852,-26.9399,3.836868,0.3847971,0.712091,0.02087605,1.198214,-0.09333909,0.02167118,-0.005978954,0.02310743,2.014766,-22.87445,31.305015849792735
3,0.1925354,0.09489441,0.9766846,0.1041461,0.1672363,0.05343628,0.9844513,-28.65544,-3.741837,-23.49448,3.498535,0.3672832,0.6469568,0.9732861,0.1936646,0.09674072,0.9762726,35.00555,-4.769852,-26.9399,3.892136,0.3849473,0.7121784,0.0208987,1.198249,-0.09330571,0.02176689,-0.005922612,0.02307807,2.014766,-22.87445,31.305015849792735
3,0.1925354,0.09489441,0.9766846,0.1041461,0.1672363,0.05343628,0.9844513,-28.65544,-3.741837,-23.49448,3.498535,0.3672832,0.6469568,0.9732861,0.1936646,0.09674072,0.9762726,35.00555,-4.769852,-26.9399,3.892136,0.3849473,0.7121784,0.0208987,1.198249,-0.09330571,0.02176689,-0.005922612,0.02307807,2.014766,-22.87445,31.305015849792735
3,0.1895905,0.0874176,0.977951,0.07242336,0.1677551,0.0483551,0.9846344,-28.65872,-3.714828,-23.58514,3.476456,0.3672206,0.6478103,0.9934089,0.1934509,0.09436035,0.9765472,34.97661,-4.748703,-26.88094,3.879395,0.3860414,0.7112053,0.02093875,1.198232,-0.09327972,0.02161748,-0.005973967,0.02327065,2.014766,-22.87445,32.81
3,0.1833801,0.07582092,0.9801025,0.09807125,0.1684418,0.0486908,0.9844971,-28.66426,-3.692764,-23.66205,3.474396,0.3672206,0.6478103,0.9895642,0.1903687,0.08859253,0.9776917,34.98575,-4.755219,-26.84804,3.968872,0.3863245,0.7121564,0.02094936,1.198217,-0.0932824,0.02155431,-0.006101074,0.02342669,2.014766,-22.87445,32.81
3,0.1863098,0.0743866,0.97966,0.09807125,0.1689453,0.04862976,0.9844208,-28.66817,-3.691925,-23.6712,3.473679,0.3672519,0.647888,0.9895642,0.1943665,0.08641052,0.9771118,34.97316,-4.751602,-26.85211,3.938751,0.3860495,0.7124383,0.02096617,1.198228,-0.0932548,0.02147709,-0.006263766,0.02355514,2.014766,-22.87445,32.81
3,0.1863098,0.0743866,0.97966,0.09807125,0.1689453,0.04862976,0.9844208,-28.66817,-3.691925,-23.6712,3.473679,0.3672519,0.647888,0.9895642,0.1943665,0.08641052,0.9771118,34.97316,-4.751602,-26.85211,3.938751,0.3860495,0.7124383,0.02096617,1.198228,-0.0932548,0.02147709,-0.006263766,0.02355514,2.014766,-22.87445,32.81
3,0.1858063,0.0710144,0.980011,0.1159171,0.1678772,0.04360962,0.9848328,-28.67583,-3.690979,-23.68436,3.469238,0.3676674,0.6488212,0.9887533,0.1963654,0.08724976,0.9766388,34.96294,-4.751892,-26.85991,3.959976,0.3860495,0.7124383,0.02093828,1.198195,-0.09326446,0.02151037,-0.006315886,0.02357727,2.014766,-22.87445,32.81
3,0.1842041,0.07510376,0.980011,0.1066343,0.1661224,0.0475769,0.9849548,-28.68083,-3.67868,-23.72197,3.471848,0.3680951,0.6481162,1.0,0.1963348,0.09368896,0.9760437,34.95743,-4.77153,-26.89491,3.96196,0.3862031,0.7123865,0.02087796,1.198177,-0.09321809,0.0215595,-0.006488126,0.02368447,2.014766,-22.87445,32.81
3,0.1821594,0.07388306,0.980484,0.1043041,0.1659241,0.04629517,0.9850464,-28.68207,-3.666489,-23.75558,3.470093,0.3681385,0.6482664,1.0,0.1960602,0.09770203,0.975708,34.9543,-4.787857,-26.92622,3.972168,0.3863245,0.7126135,0.02087629,1.198192,-0.09320992,0.02164778,-0.00651334,0.02373726,2.014766,-22.87445,32.81
3,0.1821594,0.07388306,0.980484,0.1043041,0.1659241,0.04629517,0.9850464,-28.68207,-3.666489,-23.75558,3.470093,0.3681385,0.6482664,1.0,0.1960602,0.09770203,0.975708,34.9543,-4.787857,-26.92622,3.972168,0.3863245,0.7126135,0.02087629,1.198192,-0.09320992,0.02164778,-0.00651334,0.02373726,2.014766,-22.87445,32.81
3,0.1807709,0.07299805,0.9808044,0.1701426,0.1609802,0.04109192,0.986084,-28.69455,-3.65419,-23.85338,3.460144,0.3692795,0.6496767,1.0,0.1962585,0.09820557,0.9756165,34.9501,-4.79039,-26.93266,3.962723,0.3864197,0.7126684,0.02081847,1.198166,-0.09320438,0.0215961,-0.006608729,0.02370523,2.014766,-22.87445,32.81
3,0.1793365,0.07518005,0.980896,0.1471761,0.1538086,0.04029846,0.9872742,-28.6949,-3.646042,-23.87071,3.46225,0.3704717,0.6496767,1.0,0.1963196,0.09855652,0.9755707,34.94865,-4.792221,-26.93828,3.95343,0.3864513,0.7127202,0.02080166,1.198158,-0.09316945,0.02157953,-0.006744868,0.02390802,2.014766,-64.02391,32.81
3,0.188858,0.08752441,0.9780884,0.1564509,0.1498108,0.0262146,0.9883575,-28.76802,-3.513504,-24.27626,3.404114,0.373225,0.6516738,1.0,0.1955109,0.0980835,0.975769,34.93759,-4.792389,-26.93951,3.950821,0.3869717,0.7128142,0.0208354,1.198206,-0.09308457,0.0216223,-0.006858787,0.02393668,2.014766,-64.02391,32.81
3,0.188858,0.08752441,0.9780884,0.1564509,0.1498108,0.0262146,0.9883575,-28.76802,-3.513504,-24.27626,3.404114,0.373225,0.6516738,1.0,0.1955109,0.0980835,0.975769,34.93759,-4.792389,-26.93951,3.950821,0.3869717,0.7128142,0.0208354,1.198206,-0.09308457,0.0216223,-0.006858787,0.02393668,2.014766,-64.02391,32.81
3,0.07997131,0.06768799,0.9944916,0.1529197,0.07997131,0.06768799,0.9944916,-28.88998,-3.298904,-24.60742,3.441818,0.3886632,0.6407968,1.0,0.1195068,0.09318542,0.9884491,34.80936,-3.22467,-30.99367,3.549149,0.4025891,0.7028868,0.02081764,1.19819,-0.09304571,0.02162093,-0.006945146,0.02410232,2.014766,-64.02391,32.81
3,0.06809998,0.0945282,0.9931793,0.1529197,0.06809998,0.0945282,0.9931793,-28.94772,-3.164673,-24.80974,3.698715,0.3924737,0.6342009,1.0,0.1401215,0.1325989,0.9812012,34.49565,-4.196335,-27.77405,3.869598,0.4114176,0.6951637,0.02077293,1.198093,-0.09293592,0.02169592,-0.007093745,0.02433551,2.014766,-64.02391,32.81
3,0.06910706,0.0848999,0.993988,0.0424076,0.06910706,0.0848999,0.993988,-29.02682,-3.140381,-24.55598,3.715927,0.3950712,0.6325353,0.9893107,0.1228027,0.138504,0.9827118,34.42848,-4.19133,-27.65305,3.935394,0.4170241,0.6925046,0.02076638,1.198081,-0.09291184,0.02180314,-0.007203183,0.02444395,2.014766,-64.02391,32.81
3,0.07092285,0.08305359,0.9940033,0.0424076,0.07092285,0.08305359,0.9940033,-29.06937,-3.096634,-24.78905,3.64624,0.3960296,0.633632,0.9893107,0.1244354,0.1227875,0.9845886,34.41862,-4.254059,-27.56573,3.861542,0.4170893,0.6963316,0.02074993,1.197999,-0.09288883,0.02193431,-0.007294659,0.02458467,2.014766,-64.02391,32.81
3,0.07092285,0.08305359,0.9940033,0.0424076,0.07092285,0.08305359,0.9940033,-29.06937,-3.096634,-24.78905,3.64624,0.3960296,0.633632,0.9893107,0.1244354,0.1227875,0.9845886,34.41862,-4.254059,-27.56573,3.861542,0.4170893,0.6963316,0.02074993,1.197999,-0.09288883,0.02193431,-0.007294659,0.02458467,2.014766,-64.02391,32.81
3,0.06690979,0.08808899,0.9938507,0.081719,0.06690979,0.08808899,0.9938507,-29.0706,-3.111984,-24.80869,3.663864,0.3967192,0.6335101,1.0,0.1262817,0.1259155,0.983963,34.41397,-4.246353,-27.58791,3.875961,0.4169225,0.6957948,0.0207144,1.19795,-0.09288251,0.02208629,-0.007441285,0.02455162,2.014766,-64.02391,32.81
3,0.06008911,0.09051514,0.9940643,0.07980324,0.06008911,0.09051514,0.9940643,-29.0766,-3.105972,-24.86823,3.683136,0.3980184,0.6335101,1.0,0.1243439,0.1211548,0.9848022,34.40587,-4.256958,-27.55182,3.854233,0.4175494,0.6965526,0.02070642,1.197777,-0.0928477,0.0225962,-0.00769624,0.02466696,2.014766,-64.02391,32.81
3,0.09989929,0.1118011,0.9886932,0.05977835,0.05633545,0.0932312,0.9940338,-29.09262,-3.111893,-24.90962,3.680664,0.3991401,0.6336621,1.0,0.1195068,0.1200867,0.9855347,34.39729,-4.263168,-27.53723,3.845947,0.418696,0.6967584,0.02066386,1.197659,-0.09280598,0.02283237,-0.007780965,0.02463432,2.014766,-64.02391,32.81
3,0.100174,0.1121521,0.9886169,0.05977835,0.04431152,0.08331299,0.9955292,-29.17256,-3.178009,-24.82372,3.607513,0.4037982,0.636552,1.0,0.1165771,0.120575,0.9858246,34.39217,-4.266495,-27.53658,3.845993,0.4193826,0.6967737,0.02064884,1.197581,-0.09276307,0.02307258,-0.00790258,0.02468327,2.014766,-64.02391,32.81
3,0.100174,0.1121521,0.9886169,0.05977835,0.04431152,0.08331299,0.9955292,-29.17256,-3.178009,-24.82372,3.607513,0.4037982,0.636552,1.0,0.1165771,0.120575,0.9858246,34.39217,-4.266495,-27.53658,3.845993,0.4193826,0.6967737,0.02064884,1.197581,-0.09276307,0.02307258,-0.00790258,0.02468327,2.014766,-64.02391,32.81
3,0.08950806,0.1019135,0.9907532,0.06757946,0.04743958,0.0769043,0.9958954,-29.20447,-3.186188,-24.82303,3.629089,0.4043224,0.6379122,1.0,0.1181946,0.118927,0.9858398,34.38388,-4.265488,-27.53789,3.845444,0.4193826,0.6970523,0.02063477,1.197457,-0.09266973,0.02341778,-0.008128453,0.02472579,2.014766,-64.02391,32.81
3,0.08361816,0.08811951,0.9925842,0.08884817,0.04644775,0.0798645,0.9957123,-29.25233,-3.160446,-24.91841,3.553726,0.4060174,0.6374378,1.0,0.1165009,0.09533691,0.9886017,34.32976,-4.300293,-27.55939,3.743835,0.4214857,0.7024338,0.02064979,1.197377,-0.09261751,0.02378649,-0.008264801,0.02499671,2.014766,-64.02391,32.81
3,0.08361816,0.08811951,0.9925842,0.08884817,0.04644775,0.0798645,0.9957123,-29.25233,-3.160446,-24.91841,3.553726,0.4060174,0.6374378,1.0,0.1165009,0.09533691,0.9886017,34.32976,-4.300293,-27.55939,3.743835,0.4214857,0.7024338,0.02064979,1.197377,-0.09261751,0.02378649,-0.008264801,0.02499671,2.014766,-64.02391,32.81
3,0.06646729,0.0867157,0.9940033,0.08884817,0.04345703,0.07496643,0.9962311,-29.2616,-3.142105,-24.97235,3.499771,0.4067864,0.6381333,1.0,0.09881592,0.1031647,0.9897308,34.31281,-4.203781,-27.73026,3.843033,0.4251349,0.6996746,0.02064979,1.197377,-0.09261751,0.02378649,-0.008264801,0.02499671,2.014766,-1.005951,32.81
3,0.06646729,0.0867157,0.9940033,0.08884817,0.04345703,0.07496643,0.9962311,-29.2616,-3.142105,-24.97235,3.499771,0.4067864,0.6381333,1.0,0.09881592,0.1031647,0.9897308,34.31281,-4.203781,-27.73026,3.843033,0.4251349,0.6996746,0.02064979,1.197377,-0.09261751,0.02378649,-0.008264801,0.02499671,2.014766,-1.005951,32.81
3,0.05497742,0.08236694,0.9950714,0.06810999,0.03990173,0.0763855,0.9962769,-29.27977,-3.129303,-25.02924,3.579605,0.4079525,0.6381333,1.0,0.09486389,0.09812927,0.9906311,34.30217,-4.203781,-27.74629,3.838013,0.4261704,0.7007226,0.02066338,1.197244,-0.09249687,0.02419673,-0.008193273,0.02508805,2.014766,-1.005951,32.81
3,0.05648804,0.08279419,0.9949493,0.06712272,0.03952026,0.07626343,0.9962921,-29.30054,-3.096085,-25.1371,3.576752,0.408646,0.6381333,1.0,0.09538269,0.09771729,0.9906311,34.29114,-4.197159,-27.76013,3.837158,0.4264566,0.7007226,0.02067888,1.197088,-0.09244442,0.02468327,-0.008063111,0.02518349,2.014766,-1.005951,32.81
3,0.06369019,0.08192444,0.9945984,0.03759554,0.03797913,0.06816101,0.9969482,-29.30054,-3.096085,-25.1371,3.573242,0.4088934,0.6394855,1.0,0.09396362,0.0980835,0.9907227,34.28348,-4.19278,-27.7805,3.836777,0.4269598,0.7007226,0.02077842,1.196971,-0.09235287,0.0248778,-0.007894091,0.02504971,2.014766,-1.005951,32.81
3,0.06369019,0.08192444,0.9945984,0.03759554,0.03797913,0.06816101,0.9969482,-29.30054,-3.096085,-25.1371,3.573242,0.4088934,0.6394855,1.0,0.09396362,0.0980835,0.9907227,34.28348,-4.19278,-27.7805,3.836777,0.4269598,0.7007226,0.02077842,1.196971,-0.09235287,0.0248778,-0.007894091,0.02504971,2.014766,-1.005951,32.81
3,0.07086182,0.08256531,0.9940491,0.06900756,0.03314209,0.06825256,0.9971161,-29.30078,-3.129303,-25.02924,3.576065,0.4097596,0.6394855,1.0,0.09184265,0.09046936,0.9916534,34.27843,-4.197159,-27.76787,3.832626,0.4275006,0.702056,0.02083528,1.196934,-0.09226316,0.02484003,-0.007505091,0.02489995,2.014766,-1.005951,32.81
3,0.07086182,0.08256531,0.9940491,0.06900756,0.03314209,0.06825256,0.9971161,-29.30078,-3.129303,-25.02924,3.576065,0.4097596,0.6394855,1.0,0.09184265,0.09046936,0.9916534,34.27843,-4.197159,-27.76787,3.832626,0.4275006,0.702056,0.02083528,1.196934,-0.09226316,0.02484003,-0.007505091,0.02489995,2.014766,-1.005951,32.81
3,0.08654785,0.08776855,0.9923706,0.1713827,0.02410889,0.05335999,0.9982758,-29.35962,-3.324524,-24.52864,3.368256,0.4134079,0.6431757,1.0,0.08847046,0.08882141,0.9920959,34.26302,-4.203873,-27.76068,3.816864,0.4286166,0.7024626,0.02095425,1.196948,-0.09218591,0.02484213,-0.006979391,0.02463856,2.014766,-1.005951,32.81
3,0.08654785,0.08776855,0.9923706,0.1713827,0.02410889,0.05335999,0.9982758,-29.35962,-3.324524,-24.52864,3.368256,0.4134079,0.6431757,1.0,0.08847046,0.08882141,0.9920959,34.26302,-4.203873,-27.76068,3.816864,0.4286166,0.7024626,0.02095425,1.196948,-0.09218591,0.02484213,-0.006979391,0.02463856,2.014766,-1.005951,32.81
3,0.08551025,0.0891571,0.9923248,0.1713827,0.03614807,0.06285095,0.9973602,-29.3623,-3.325974,-24.55096,3.517151,0.4115046,0.6420135,1.0,0.08578491,0.08929443,0.9922943,34.25876,-4.203964,-27.76013,3.819168,0.4292322,0.7023643,0.02113688,1.197003,-0.09210396,0.02493165,-0.006598575,0.02440735,2.014766,-1.005951,32.81
3,0.08551025,0.0891571,0.9923248,0.1713827,0.03614807,0.06285095,0.9973602,-29.3623,-3.325974,-24.55096,3.517151,0.4115046,0.6420135,1.0,0.08578491,0.08929443,0.9922943,34.25876,-4.203964,-27.76013,3.819168,0.4292322,0.7023643,0.02113688,1.197003,-0.09210396,0.02493165,-0.006598575,0.02440735,2.014766,-1.005951,32.81
3,0.08551025,0.0891571,0.9923248,0.1713827,0.03614807,0.06285095,0.9973602,-29.3623,-3.325974,-24.55096,3.517151,0.4115046,0.6420135,1.0,0.08578491,0.08929443,0.9922943,34.25876,-4.203964,-27.76013,3.819168,0.4292322,0.7023643,0.02128327,1.196987,-0.09213841,0.02490713,-0.006161831,0.02416006,2.014766,-1.005951,32.81
3,0.08551025,0.0891571,0.9923248,0.1713827,0.03614807,0.06285095,0.9973602,-29.3623,-3.325974,-24.55096,3.517151,0.4115046,0.6420135,1.0,0.08578491,0.08929443,0.9922943,34.25876,-4.203964,-27.76013,3.819168,0.4292322,0.7023643,0.02128327,1.196987,-0.09213841,0.02490713,-0.006161831,0.02416006,2.014766,-1.005951,32.81
3,0.07780457,0.08869934,0.9930115,0.1589985,0.02349854,0.0532074,0.9983063,-29.38051,-3.348999,-24.48833,3.409821,0.4142156,0.6436422,1.0,0.07785034,0.0887146,0.9929962,34.25761,-4.205246,-27.74629,3.831345,0.4306615,0.7023643,0.02139425,1.196961,-0.09225488,0.0247926,-0.005691671,0.02379025,2.014766,-1.005951,32.81
3,0.07780457,0.08869934,0.9930115,0.1589985,0.02349854,0.0532074,0.9983063,-29.38051,-3.348999,-24.48833,3.409821,0.4142156,0.6436422,1.0,0.07785034,0.0887146,0.9929962,34.25761,-4.205246,-27.74629,3.831345,0.4306615,0.7023643,0.02139425,1.196961,-0.09225488,0.0247926,-0.005691671,0.02379025,2.014766,-1.005951,32.81
3,0.005752563,0.02455139,0.9996796,0.2485912,-0.03686523,0.007263184,0.9992828,-29.72586,-3.733749,-24.558,3.604691,0.4353454,0.6650263,1.0,0.01264954,0.02734375,0.9995422,33.6819,-4.560471,-27.70128,3.711258,0.4616207,0.7248078,0.0215807,1.19698,-0.09234214,0.02478689,-0.005277336,0.02350702,2.014766,29.89069,32.81
3,0.005752563,0.02455139,0.9996796,0.2485912,-0.03686523,0.007263184,0.9992828,-29.72586,-3.733749,-24.558,3.604691,0.4353454,0.6650263,1.0,0.01264954,0.02734375,0.9995422,33.6819,-4.560471,-27.70128,3.711258,0.4616207,0.7248078,0.0215807,1.19698,-0.09234214,0.02478689,-0.005277336,0.02350702,2.014766,29.89069,32.81
3,-0.004302979,0.03089905,0.9995117,0.2250256,-0.04472351,0.007797241,0.9989624,-29.73805,-3.778748,-24.43304,3.750793,0.4370552,0.6652922,1.0,0.007003784,0.03733826,0.9992676,33.67857,-4.550156,-27.74886,3.652725,0.4627255,0.723151,0.0216949,1.196928,-0.09249437,0.02492089,-0.004970526,0.02317986,2.014766,29.89069,32.81
3,-0.004302979,0.03089905,0.9995117,0.2250256,-0.04472351,0.007797241,0.9989624,-29.73805,-3.778748,-24.43304,3.750793,0.4370552,0.6652922,1.0,0.007003784,0.03733826,0.9992676,33.67857,-4.550156,-27.74886,3.652725,0.4627255,0.723151,0.0216949,1.196928,-0.09249437,0.02492089,-0.004970526,0.02317986,2.014766,29.89069,32.81
4,-0.0009918213,0.0300293,0.9995422,0.2273268,-0.04370117,0.006790161,0.9990082,-29.74332,-3.796234,-24.40474,3.759689,0.4370636,0.6657472,1.0,0.007904053,0.03488159,0.9993591,33.68048,-4.563034,-27.73105,3.651993,0.4624968,0.7238361,0.02176416,1.196848,-0.09252733,0.02504525,-0.004659506,0.02310679,2.014766,29.89069,32.81
4,-0.0009918213,0.0300293,0.9995422,0.2273268,-0.04370117,0.006790161,0.9990082,-29.74332,-3.796234,-24.40474,3.759689,0.4370636,0.6657472,1.0,0.007904053,0.03488159,0.9993591,33.68048,-4.563034,-27.73105,3.651993,0.4624968,0.7238361,0.02176416,1.196848,-0.09252733,0.02504525,-0.004659506,0.02310679,2.014766,29.89069,32.81
4,-0.01409912,0.01560974,0.9997711,0.216529,-0.04525757,0.007843018,0.9989319,-29.75337,-3.795731,-24.42749,3.745575,0.4376454,0.6657859,1.0,0.009124756,0.02137756,0.9997253,33.68018,-4.587097,-27.69142,3.647369,0.4622742,0.7266056,0.02179158,1.196723,-0.09245676,0.0253918,-0.004461833,0.02324726,2.014766,29.89069,32.81
4,-0.01409912,0.01560974,0.9997711,0.216529,-0.04525757,0.007843018,0.9989319,-29.75337,-3.795731,-24.42749,3.745575,0.4376454,0.6657859,1.0,0.009124756,0.02137756,0.9997253,33.68018,-4.587097,-27.69142,3.647369,0.4622742,0.7266056,0.02179158,1.196723,-0.09245676,0.0253918,-0.004461833,0.02324726,2.014766,29.89069,32.81
4,-0.02182007,0.01373291,0.9996643,0.1707111,-0.04618835,0.008758545,0.9988861,-29.75902,-3.791122,-24.44472,3.73938,0.4379811,0.6656556,1.0,0.007415771,0.0196991,0.9997711,33.67969,-4.600143,-27.67964,3.656616,0.46258,0.7272409,0.0217706,1.196624,-0.09239054,0.02572847,-0.004317563,0.02357601,2.014766,29.89069,32.81
4,-0.02182007,0.01373291,0.9996643,0.1707111,-0.04618835,0.008758545,0.9988861,-29.75902,-3.791122,-24.44472,3.73938,0.4379811,0.6656556,1.0,0.007415771,0.0196991,0.9997711,33.67969,-4.600143,-27.67964,3.656616,0.46258,0.7272409,0.0217706,1.196624,-0.09239054,0.02572847,-0.004317563,0.02357601,2.014766,29.89069,32.81
4,-0.02037048,0.0144043,0.9996796,0.1291603,-0.04592896,0.009140015,0.9989014,-29.77371,-3.785126,-24.47791,3.749847,0.4384124,0.6657366,1.0,0.007537842,0.0201416,0.9997559,33.67725,-4.605469,-27.66823,3.686966,0.4626427,0.7272559,0.0217154,1.196496,-0.09235924,0.02601702,-0.00462097,0.0240063,2.014766,29.89069,32.81
4,-0.02037048,0.0144043,0.9996796,0.1291603,-0.04592896,0.009140015,0.9989014,-29.77371,-3.785126,-24.47791,3.749847,0.4384124,0.6657366,1.0,0.007537842,0.0201416,0.9997559,33.67725,-4.605469,-27.66823,3.686966,0.4626427,0.7272559,0.0217154,1.196496,-0.09235924,0.02601702,-0.00462097,0.0240063,2.014766,29.89069,32.81
4,-0.01947021,0.01426697,0.9996948,0.1019668,-0.04837036,0.009857178,0.9987793,-29.80086,-3.785126,-24.48784,3.760544,0.4397005,0.6657366,1.0,0.008651733,0.01853943,0.9997864,33.67342,-4.608826,-27.66368,3.715546,0.46258,0.7276341,0.02163422,1.196332,-0.09225971,0.02661805,-0.004979511,0.02424994,2.014766,29.89069,32.81
4,-0.01947021,0.01426697,0.9996948,0.1019668,-0.04837036,0.009857178,0.9987793,-29.80086,-3.785126,-24.48784,3.760544,0.4397005,0.6657366,1.0,0.008651733,0.01853943,0.9997864,33.67342,-4.608826,-27.66368,3.715546,0.46258,0.7276341,0.02163422,1.196332,-0.09225971,0.02661805,-0.004979511,0.02424994,2.014766,29.89069,32.81
4,-0.02104187,0.01396179,0.9996796,0.1010037,-0.05105591,0.00994873,0.998642,-29.81024,-3.775681,-24.51363,3.76001,0.4404454,0.6656909,1.0,0.00831604,0.01786804,0.9998016,33.6714,-4.611389,-27.65331,3.752945,0.4627054,0.727773,0.02159142,1.196126,-0.09218609,0.02732413,-0.005275924,0.02437864,2.014766,34.53371,32.81
4,-0.02104187,0.01396179,0.9996796,0.1010037,-0.05105591,0.00994873,0.998642,-29.81024,-3.775681,-24.51363,3.76001,0.4404454,0.6656909,1.0,0.00831604,0.01786804,0.9998016,33.6714,-4.611389,-27.65331,3.752945,0.4627054,0.727773,0.02159142,1.196126,-0.09218609,0.02732413,-0.005275924,0.02437864,2.014766,34.53371,32.81
4,-0.02041626,0.01564026,0.9996643,0.1028154,-0.0546875,0.01252747,0.9984131,-29.82593,-3.746552,-24.59218,3.767105,0.4415432,0.6651216,1.0,0.00541687,0.01797485,0.9998169,33.6684,-4.614059,-27.64424,3.77446,0.4633122,0.727773,0.02156985,1.195879,-0.0919503,0.02820775,-0.005619213,0.02443999,2.014766,34.53371,32.81
4,-0.02041626,0.01564026,0.9996643,0.1028154,-0.0546875,0.01252747,0.9984131,-29.82593,-3.746552,-24.59218,3.767105,0.4415432,0.6651216,1.0,0.00541687,0.01797485,0.9998169,33.6684,-4.614059,-27.64424,3.77446,0.4633122,0.727773,0.02156985,1.195879,-0.0919503,0.02820775,-0.005619213,0.02443999,2.014766,34.53371,32.81
4,-0.01667786,0.01618958,0.9997253,0.1483421,-0.05589294,0.01322937,0.9983368,-29.84445,-3.708115,-24.69498,3.830246,0.442318,0.664854,1.0,0.003479004,0.0177002,0.9998322,33.66118,-4.628021,-27.58411,3.779297,0.4639,0.7276341,0.02157962,1.195635,-0.09175074,0.02890799,-0.005672002,0.02445949,2.014766,34.53371,32.81
4,-0.01667786,0.01618958,0.9997253,0.1483421,-0.05589294,0.01322937,0.9983368,-29.84445,-3.708115,-24.69498,3.830246,0.442318,0.664854,1.0,0.003479004,0.0177002,0.9998322,33.66118,-4.628021,-27.58411,3.779297,0.4639,0.7276341,0.02157962,1.195635,-0.09175074,0.02890799,-0.005672002,0.02445949,2.014766,34.53371,32.81
4,-0.02355957,0.01568604,0.999588,0.1703627,-0.06274414,0.01353455,0.9979248,-29.8582,-3.697128,-24.6978,3.848694,0.4438962,0.6645123,1.0,0.00378418,0.0171814,0.9998322,33.65462,-4.630051,-27.5419,3.792847,0.4640794,0.7273409,0.02162278,1.195393,-0.09156621,0.02951477,-0.005646989,0.02435173,2.014766,34.53371,32.81
4,-0.02355957,0.01568604,0.999588,0.1703627,-0.06274414,0.01353455,0.9979248,-29.8582,-3.697128,-24.6978,3.848694,0.4438962,0.6645123,1.0,0.00378418,0.0171814,0.9998322,33.65462,-4.630051,-27.5419,3.792847,0.4640794,0.7273409,0.02162278,1.195393,-0.09156621,0.02951477,-0.005646989,0.02435173,2.014766,34.53371,32.81
4,-0.03346252,0.01574707,0.9993134,0.1054876,-0.06651306,0.01332092,0.9976807,-29.86781,-3.68959,-24.6978,3.885559,0.4448255,0.6643578,1.0,0.002838135,0.01838684,0.9998169,33.64862,-4.630051,-27.51674,3.794342,0.4644563,0.7268488,0.0216912,1.195164,-0.09136456,0.0302498,-0.0051124,0.02424256,2.014766,34.53371,32.81
4,-0.03346252,0.01574707,0.9993134,0.1054876,-0.06651306,0.01332092,0.9976807,-29.86781,-3.68959,-24.6978,3.885559,0.4448255,0.6643578,1.0,0.002838135,0.01838684,0.9998169,33.64862,-4.630051,-27.51674,3.794342,0.4644563,0.7268488,0.0216912,1.195164,-0.09136456,0.0302498,-0.0051124,0.02424256,2.014766,34.53371,32.81
4,-0.03346252,0.01574707,0.9993134,0.1054876,-0.06651306,0.01332092,0.9976807,-29.86781,-3.68959,-24.6978,3.885559,0.4448255,0.6643578,1.0,0.002838135,0.01838684,0.9998169,33.64862,-4.630051,-27.51674,3.794342,0.4644563,0.7268488,0.021873,1.194935,-0.09110022,0.03106156,-0.004580485,0.02397307,2.014766,34.53371,32.81
4,-0.03346252,0.01574707,0.9993134,0.1054876,-0.06651306,0.01332092,0.9976807,-29.86781,-3.68959,-24.6978,3.885559,0.4448255,0.6643578,1.0,0.002838135,0.01838684,0.9998169,33.64862,-4.630051,-27.51674,3.794342,0.4644563,0.7268488,0.021873,1.194935,-0.09110022,0.03106156,-0.004580485,0.02397307,2.014766,34.53371,32.81
4,-0.03346252,0.01574707,0.9993134,0.1054876,-0.06651306,0.01332092,0.9976807,-29.86781,-3.68959,-24.6978,3.885559,0.4448255,0.6643578,1.0,0.002838135,0.01838684,0.9998169,33.64862,-4.630051,-27.51674,3.794342,0.4644563,0.7268488,0.02216983,1.194776,-0.09084845,0.03182221,-0.003809689,0.02344386,2.014766,34.53371,32.81
4,-0.03346252,0.01574707,0.9993134,0.1054876,-0.06651306,0.01332092,0.9976807,-29.86781,-3.68959,-24.6978,3.885559,0.4448255,0.6643578,1.0,0.002838135,0.01838684,0.9998169,33.64862,-4.630051,-27.51674,3.794342,0.4644563,0.7268488,0.02216983,1.194776,-0.09084845,0.03182221,-0.003809689,0.02344386,2.014766,34.53371,32.81
4,-0.03346252,0.01574707,0.9993134,0.1054876,-0.06651306,0.01332092,0.9976807,-29.86781,-3.68959,-24.6978,3.885559,0.4448255,0.6643578,1.0,0.002838135,0.01838684,0.9998169,33.64862,-4.630051,-27.51674,3.794342,0.4644563,0.7268488,0.02216983,1.194776,-0.09084845,0.03182221,-0.003809689,0.02344386,2.014766,34.53371,32.81
4,-0.0388031,0.01843262,0.9990692,0.1098426,-0.06530762,0.01921082,0.9976654,-29.87846,-3.686218,-24.70059,3.906174,0.4449839,0.6633041,1.0,0.002700806,0.01719666,0.9998474,33.64253,-4.630051,-27.49643,3.794525,0.4646915,0.7268288,0.02253568,1.19467,-0.09065259,0.03244362,-0.002799645,0.02271755,2.014766,34.53371,32.81
4,-0.0388031,0.01843262,0.9990692,0.1098426,-0.06530762,0.01921082,0.9976654,-29.87846,-3.686218,-24.70059,3.906174,0.4449839,0.6633041,1.0,0.002700806,0.01719666,0.9998474,33.64253,-4.630051,-27.49643,3.794525,0.4646915,0.7268288,0.02272391,1.194562,-0.09057534,0.03259666,-0.00214927,0.02222149,2.014766,34.53371,32.81
4,-0.0388031,0.01843262,0.9990692,0.1098426,-0.06530762,0.01921082,0.9976654,-29.87846,-3.686218,-24.70059,3.906174,0.4449839,0.6633041,1.0,0.002700806,0.01719666,0.9998474,33.64253,-4.630051,-27.49643,3.794525,0.4646915,0.7268288,0.02314556,1.194484,-0.09036291,0.03282965,-0.001164477,0.02119705,2.014766,13.58981,32.81
4,-0.0388031,0.01843262,0.9990692,0.1098426,-0.06530762,0.01921082,0.9976654,-29.87846,-3.686218,-24.70059,3.906174,0.4449839,0.6633041,1.0,0.002700806,0.01719666,0.9998474,33.64253,-4.630051,-27.49643,3.794525,0.4646915,0.7268288,0.02314556,1.194484,-0.09036291,0.03282965,-0.001164477,0.02119705,2.014766,13.58981,32.81
4,-0.0388031,0.01843262,0.9990692,0.1098426,-0.06530762,0.01921082,0.9976654,-29.87846,-3.686218,-24.70059,3.906174,0.4449839,0.6633041,1.0,0.002700806,0.01719666,0.9998474,33.64253,-4.630051,-27.49643,3.794525,0.4646915,0.7268288,0.02337682,1.194448,-0.09023476,0.03298452,-0.0008717564,0.02026992,2.014766,13.58981,32.81
4,-0.0388031,0.01843262,0.9990692,0.1098426,-0.06530762,0.01921082,0.9976654,-29.87846,-3.686218,-24.70059,3.906174,0.4449839,0.6633041,1.0,0.002700806,0.01719666,0.9998474,33.64253,-4.630051,-27.49643,3.794525,0.4646915,0.7268288,0.02337682,1.194448,-0.09023476,0.03298452,-0.0008717564,0.02026992,2.014766,13.58981,32.81
4,-0.02284241,0.03170776,0.9992218,0.1021759,-0.0491333,0.0231781,0.9985199,-29.79332,-3.600204,-24.66084,3.805267,0.4395756,0.6592323,1.0,0.02490234,0.0471344,0.9985657,33.74817,-4.511871,-27.57648,3.838806,0.4572924,0.7183797,0.02358103,1.194366,-0.09008271,0.0332213,-0.0007425247,0.01941686,2.014766,13.58981,32.81
4,-0.01986694,0.03999329,0.9989929,0.1245583,-0.04685974,0.02326965,0.9986267,-29.78111,-3.617004,-24.61057,3.86377,0.4388025,0.6593091,1.0,0.03196716,0.07194519,0.9968872,33.75665,-4.578217,-27.34447,4.031113,0.4558509,0.7140222,0.02392054,1.194273,-0.08986497,0.03375879,-0.000211432,0.0174253,2.109578,13.58981,32.81
4,-0.01986694,0.03999329,0.9989929,0.1245583,-0.04685974,0.02326965,0.9986267,-29.78111,-3.617004,-24.61057,3.86377,0.4388025,0.6593091,1.0,0.03196716,0.07194519,0.9968872,33.75665,-4.578217,-27.34447,4.031113,0.4558509,0.7140222,0.02392054,1.194273,-0.08986497,0.03375879,-0.000211432,0.0174253,2.109578,13.58981,32.81
4,-0.07826233,0.0292511,0.9964905,0.1124833,-0.09359741,0.01785278,0.9954376,-29.99448,-3.541916,-24.80855,3.851089,0.4534828,0.6599355,1.0,-6.103516e-05,0.08686829,0.9962158,33.5193,-4.485275,-27.71928,3.826019,0.4695576,0.7121242,0.02436364,1.194179,-0.08961451,0.03438701,0.0,0.01538861,2.109578,13.58981,32.81
4,-0.07826233,0.0292511,0.9964905,0.1124833,-0.09359741,0.01785278,0.9954376,-29.99448,-3.541916,-24.80855,3.851089,0.4534828,0.6599355,1.0,-6.103516e-05,0.08686829,0.9962158,33.5193,-4.485275,-27.71928,3.826019,0.4695576,0.7121242,0.02436364,1.194179,-0.08961451,0.03438701,0.0,0.01538861,2.109578,13.58981,32.81
4,-0.1101837,0.03230286,0.9933777,0.0304422,-0.1121979,0.03137207,0.9931793,-30.10481,-3.516449,-24.83601,3.944214,0.460181,0.657343,1.0,-0.0186615,0.07418823,0.9970551,33.41219,-4.324677,-28.02634,3.639343,0.4764912,0.7120131,0.02455604,1.194062,-0.08953649,0.0346355,0.0005320922,0.01452739,2.109578,13.58981,32.81
4,-0.1101837,0.03230286,0.9933777,0.0304422,-0.1121979,0.03137207,0.9931793,-30.10481,-3.516449,-24.83601,3.944214,0.460181,0.657343,1.0,-0.0186615,0.07418823,0.9970551,33.41219,-4.324677,-28.02634,3.639343,0.4764912,0.7120131,0.02498782,1.19394,-0.08934641,0.03515667,0.001337213,0.01314511,2.109578,13.58981,32.81
4,-0.1101837,0.03230286,0.9933777,0.0304422,-0.1121979,0.03137207,0.9931793,-30.10481,-3.516449,-24.83601,3.944214,0.460181,0.657343,1.0,-0.0186615,0.07418823,0.9970551,33.41219,-4.324677,-28.02634,3.639343,0.4764912,0.7120131,0.02524495,1.193861,-0.08926392,0.03537239,0.001806476,0.01279178,2.109578,13.58981,32.81
4,-0.1101837,0.03230286,0.9933777,0.0304422,-0.1121979,0.03137207,0.9931793,-30.10481,-3.516449,-24.83601,3.944214,0.460181,0.657343,1.0,-0.0186615,0.07418823,0.9970551,33.41219,-4.324677,-28.02634,3.639343,0.4764912,0.7120131,0.02524495,1.193861,-0.08926392,0.03537239,0.001806476,0.01279178,2.109578,13.58981,32.81
4,-0.1101837,0.03230286,0.9933777,0.0304422,-0.1121979,0.03137207,0.9931793,-30.10481,-3.516449,-24.83601,3.944214,0.460181,0.657343,1.0,-0.0186615,0.07418823,0.9970551,33.41219,-4.324677,-28.02634,3.639343,0.4764912,0.7120131,0.02576792,1.193777,-0.08906841,0.03588057,0.002875786,0.01249001,2.109578,13.58981,32.81
4,-0.1109467,0.02124023,0.9935913,0.0004276639,-0.1112976,0.02102661,0.9935608,-30.09781,-3.537735,-24.75391,3.918106,0.4597939,0.6589107,1.0,-0.01989746,0.07487488,0.9969788,33.43269,-4.34137,-27.99596,3.731583,0.4759882,0.712246,0.02602208,1.193751,-0.08899212,0.03610187,0.003567295,0.01230188,2.109578,-13.47824,32.81
4,-0.1035461,0.02561951,0.9942932,0.09759951,-0.1052856,0.02449036,0.9941254,-30.09229,-3.546814,-24.74202,3.908722,0.4586346,0.6584535,1.0,-0.02059937,0.07899475,0.9966583,33.43697,-4.355927,-27.97266,3.73912,0.4759675,0.7117802,0.02623808,1.193671,-0.08894706,0.03618844,0.004370731,0.01218504,2.109578,-13.47824,32.81
4,-0.1035461,0.02561951,0.9942932,0.09759951,-0.1052856,0.02449036,0.9941254,-30.09229,-3.546814,-24.74202,3.908722,0.4586346,0.6584535,1.0,-0.02059937,0.07899475,0.9966583,33.43697,-4.355927,-27.97266,3.73912,0.4759675,0.7117802,0.02623808,1.193671,-0.08894706,0.03618844,0.004370731,0.01218504,2.109578,-13.47824,32.81
4,-0.06608582,0.05049133,0.996521,0.1483789,-0.1019592,0.02671814,0.9944153,-30.08694,-3.55072,-24.7444,3.93103,0.4579069,0.6582469,1.0,-0.01800537,0.08207703,0.99646,33.44666,-4.41864,-27.86684,3.738342,0.4751733,0.712246,0.02647114,1.193623,-0.08890498,0.03630684,0.0050861,0.01217525,2.109578,-13.47824,32.81
4,-0.06466675,0.05046082,0.9966278,0.1143653,-0.1035919,0.02552795,0.994278,-30.0827,-3.549454,-24.74857,3.930481,0.458034,0.6584535,1.0,-0.01522827,0.08184814,0.996521,33.44313,-4.428757,-27.83611,3.744186,0.4748141,0.7122905,0.02691448,1.193533,-0.08886266,0.03642771,0.006286325,0.01227034,2.109578,-13.47824,32.81
4,-0.0791626,0.03938293,0.9960785,0.09952844,-0.1034851,0.02423096,0.9943237,-30.07927,-3.545547,-24.75197,3.913956,0.4579069,0.6585634,1.0,-0.01356506,0.07989502,0.9967041,33.44666,-4.440201,-27.80118,3.746246,0.474399,0.7126341,0.02712584,1.19351,-0.08880103,0.03640909,0.006852267,0.01226852,2.109578,-13.47824,32.81
4,-0.0791626,0.03938293,0.9960785,0.09952844,-0.1034851,0.02423096,0.9943237,-30.07927,-3.545547,-24.75197,3.913956,0.4579069,0.6585634,1.0,-0.01356506,0.07989502,0.9967041,33.44666,-4.440201,-27.80118,3.746246,0.474399,0.7126341,0.02712584,1.19351,-0.08880103,0.03640909,0.006852267,0.01226852,2.109578,-13.47824,32.81
4,-0.07972717,0.03929138,0.9960327,0.1094676,-0.1035309,0.02337646,0.994339,-30.0748,-3.54126,-24.76263,3.905624,0.4577661,0.6586568,1.0,-0.01374817,0.08302307,0.9964447,33.44756,-4.459015,-27.79001,3.765045,0.4743987,0.7126341,0.02733362,1.19352,-0.08876014,0.03647615,0.007129366,0.01236169,2.109578,-13.47824,32.81
4,-0.0743866,0.04266357,0.9963074,0.1057484,-0.1033478,0.0236969,0.9943542,-30.07227,-3.540634,-24.77109,3.902924,0.4576527,0.658668,1.0,-0.01271057,0.08267212,0.9964905,33.4496,-4.459015,-27.79001,3.764633,0.4741482,0.7126941,0.02773607,1.193469,-0.08873492,0.03647044,0.007872352,0.01248046,2.109578,-13.47824,32.81
4,-0.06089783,0.04753113,0.9970093,0.1033437,-0.09638977,0.0234375,0.9950562,-30.06462,-3.541885,-24.76646,3.907059,0.4562533,0.658668,1.0,-0.01142883,0.08085632,0.9966583,33.46222,-4.459015,-27.79001,3.823807,0.4734817,0.7130901,0.02793217,1.193461,-0.08872795,0.03656673,0.00814402,0.01245416,2.109578,-13.47824,32.81
4,-0.06089783,0.04753113,0.9970093,0.1033437,-0.09638977,0.0234375,0.9950562,-30.06462,-3.541885,-24.76646,3.907059,0.4562533,0.658668,1.0,-0.01142883,0.08085632,0.9966583,33.46222,-4.459015,-27.79001,3.823807,0.4734817,0.7130901,0.02793217,1.193461,-0.08872795,0.03656673,0.00814402,0.01245416,2.109578,-13.47824,32.81
4,-0.06021118,0.04902649,0.9969788,0.1033437,-0.09700012,0.02375793,0.9949951,-30.06042,-3.545547,-24.76666,3.909164,0.4562131,0.658741,1.0,-0.0133667,0.08096313,0.9966125,33.47588,-4.459015,-27.79001,3.834869,0.4733481,0.7130901,0.02826107,1.193517,-0.08863962,0.03652678,0.00857191,0.01231459,2.109578,-13.47824,32.81
4,-0.06021118,0.04902649,0.9969788,0.1033437,-0.09700012,0.02375793,0.9949951,-30.06042,-3.545547,-24.76666,3.909164,0.4562131,0.658741,1.0,-0.0133667,0.08096313,0.9966125,33.47588,-4.459015,-27.79001,3.834869,0.4733481,0.7130901,0.02845907,1.19347,-0.08864456,0.03663533,0.008783975,0.01236832,2.109578,-13.47824,32.81
4,-0.06021118,0.04902649,0.9969788,0.1033437,-0.09700012,0.02375793,0.9949951,-30.06042,-3.545547,-24.76666,3.909164,0.4562131,0.658741,1.0,-0.0133667,0.08096313,0.9966125,33.47588,-4.459015,-27.79001,3.834869,0.4733481,0.7130901,0.02845907,1.19347,-0.08864456,0.03663533,0.008783975,0.01236832,2.109578,-13.47824,32.81
4,-0.06021118,0.04902649,0.9969788,0.1033437,-0.09700012,0.02375793,0.9949951,-30.06042,-3.545547,-24.76666,3.909164,0.4562131,0.658741,1.0,-0.0133667,0.08096313,0.9966125,33.47588,-4.459015,-27.79001,3.834869,0.4733481,0.7130901,0.02866971,1.193515,-0.08860445,0.03659118,0.008806847,0.01207633,2.109578,-13.47824,32.81
4,-0.06021118,0.04902649,0.9969788,0.1033437,-0.09700012,0.02375793,0.9949951,-30.06042,-3.545547,-24.76666,3.909164,0.4562131,0.658741,1.0,-0.0133667,0.08096313,0.9966125,33.47588,-4.459015,-27.79001,3.834869,0.4733481,0.7130901,0.02907157,1.193522,-0.08857465,0.03656694,0.009211254,0.01154323,2.109578,-13.47824,32.81
4,-0.0567627,0.05082703,0.9970856,0.1012771,-0.09820557,0.0241394,0.9948578,-30.0504,-3.549683,-24.76646,3.911636,0.4560833,0.6588148,1.0,-0.01222229,0.07928467,0.9967651,33.49124,-4.464676,-27.75275,3.834686,0.4726157,0.7131563,0.02928722,1.193532,-0.08856404,0.03648371,0.009317412,0.01115725,2.109578,-55.58913,32.81
4,-0.0567627,0.05082703,0.9970856,0.1012771,-0.09820557,0.0241394,0.9948578,-30.0504,-3.549683,-24.76646,3.911636,0.4560833,0.6588148,1.0,-0.01222229,0.07928467,0.9967651,33.49124,-4.464676,-27.75275,3.834686,0.4726157,0.7131563,0.02928722,1.193532,-0.08856404,0.03648371,0.009317412,0.01115725,2.109578,-55.58913,32.81
4,-0.08197021,0.02142334,0.9963989,0.1426377,-0.09440613,0.01878357,0.9953461,-29.99547,-3.706833,-24.56918,3.990189,0.4536246,0.6629333,1.0,-0.005310059,0.0375824,0.9992676,33.5249,-4.63356,-27.4995,3.944275,0.470158,0.7236105,0.02948475,1.193532,-0.0885756,0.03654166,0.009616476,0.01085122,2.109578,-55.58913,32.81
4,-0.0803833,0.02264404,0.9965057,0.1426377,-0.08938599,0.02157593,0.9957581,-29.98756,-3.725815,-24.55904,3.966736,0.452551,0.6629372,1.0,-0.004257202,0.03161621,0.9994812,33.54674,-4.715408,-27.37183,3.931488,0.4692022,0.7260382,0.03000546,1.193471,-0.08852923,0.03656612,0.01007505,0.009829503,2.109578,-55.58913,32.81
4,-0.07888794,0.02282715,0.9966125,0.1387844,-0.08924866,0.02131653,0.9957733,-29.98604,-3.729065,-24.55949,3.96701,0.4524751,0.6630925,1.0,0.001068115,0.03440857,0.9994049,33.55119,-4.763306,-27.28558,4.005753,0.4681278,0.7263293,0.03000546,1.193471,-0.08852923,0.03656612,0.01007505,0.009829503,2.109578,-55.58913,32.81
4,-0.07888794,0.02282715,0.9966125,0.1387844,-0.08924866,0.02131653,0.9957733,-29.98604,-3.729065,-24.55949,3.96701,0.4524751,0.6630925,1.0,0.001068115,0.03440857,0.9994049,33.55119,-4.763306,-27.28558,4.005753,0.4681278,0.7263293,0.03000546,1.193471,-0.08852923,0.03656612,0.01007505,0.009829503,2.109578,-55.58913,32.81
4,-0.07836914,0.01997375,0.9967194,0.1202718,-0.08909607,0.02104187,0.9957886,-29.98451,-3.7323,-24.55995,3.96579,0.4523993,0.6632478,1.0,0.0006408691,0.01202393,0.9999237,33.55632,-4.823044,-27.16167,3.809921,0.4679907,0.7307009,0.03055847,1.19342,-0.08846956,0.03660543,0.01089302,0.008917819,2.109578,-55.58913,32.81
4,-0.07836914,0.01997375,0.9967194,0.1202718,-0.08909607,0.02104187,0.9957886,-29.98451,-3.7323,-24.55995,3.96579,0.4523993,0.6632478,1.0,0.0006408691,0.01202393,0.9999237,33.55632,-4.823044,-27.16167,3.809921,0.4679907,0.7307009,0.03125584,1.193394,-0.08844399,0.0366837,0.01195915,0.007778092,2.109578,-55.58913,32.81
4,-0.07836914,0.01997375,0.9967194,0.1202718,-0.08909607,0.02104187,0.9957886,-29.98451,-3.7323,-24.55995,3.96579,0.4523993,0.6632478,1.0,0.0006408691,0.01202393,0.9999237,33.55632,-4.823044,-27.16167,3.809921,0.4679907,0.7307009,0.03206456,1.193317,-0.08834338,0.03692137,0.01354375,0.00634061,2.109578,-55.58913,32.81
4,-0.07836914,0.01997375,0.9967194,0.1202718,-0.08909607,0.02104187,0.9957886,-29.98451,-3.7323,-24.55995,3.96579,0.4523993,0.6632478,1.0,0.0006408691,0.01202393,0.9999237,33.55632,-4.823044,-27.16167,3.809921,0.4679907,0.7307009,0.03206456,1.193317,-0.08834338,0.03692137,0.01354375,0.00634061,2.109578,-55.58913,32.81
4,-0.07836914,0.01997375,0.9967194,0.1202718,-0.08909607,0.02104187,0.9957886,-29.98451,-3.7323,-24.55995,3.96579,0.4523993,0.6632478,1.0,0.0006408691,0.01202393,0.9999237,33.55632,-4.823044,-27.16167,3.809921,0.4679907,0.7307009,0.03295827,1.19321,-0.08818555,0.03746246,0.01556241,0.004604818,2.109578,-55.58913,32.81
4,-0.07836914,0.01997375,0.9967194,0.1202718,-0.08909607,0.02104187,0.9957886,-29.98451,-3.7323,-24.55995,3.96579,0.4523993,0.6632478,1.0,0.0006408691,0.01202393,0.9999237,33.55632,-4.823044,-27.16167,3.809921,0.4679907,0.7307009,0.03295827,1.19321,-0.08818555,0.03746246,0.01556241,0.004604818,2.109578,-55.58913,32.81
4,-0.09422302,0.04907227,0.994339,0.1454963,-0.09765625,0.04780579,0.9940643,-30.06805,-3.468796,-24.80249,4.150833,0.4565615,0.652828,1.0,-0.01445007,0.07832336,0.9968109,33.46397,-4.281021,-27.99579,3.88269,0.4739761,0.7097219,0.03400373,1.193009,-0.08811402,0.03803191,0.01787903,0.002685547,2.109578,-55.58913,32.81
4,-0.09422302,0.04907227,0.994339,0.1454963,-0.09765625,0.04780579,0.9940643,-30.06805,-3.468796,-24.80249,4.150833,0.4565615,0.652828,1.0,-0.01445007,0.07832336,0.9968109,33.46397,-4.281021,-27.99579,3.88269,0.4739761,0.7097219,0.03400373,1.193009,-0.08811402,0.03803191,0.01787903,0.002685547,2.109578,-55.58913,32.81
4,-0.0932312,0.04446411,0.9946442,0.1604435,-0.09368896,0.04429626,0.9946136,-30.05417,-3.479721,-24.80112,4.044708,0.455473,0.6536223,1.0,0.004730225,0.08166504,0.9966431,33.48999,-4.449875,-27.68604,3.837952,0.4697353,0.7114758,0.03508532,1.192856,-0.08797097,0.03865487,0.02041824,0.0004567453,2.109578,-3.783188,32.81
4,-0.0932312,0.04446411,0.9946442,0.1604435,-0.09368896,0.04429626,0.9946136,-30.05417,-3.479721,-24.80112,4.044708,0.455473,0.6536223,1.0,0.004730225,0.08166504,0.9966431,33.48999,-4.449875,-27.68604,3.837952,0.4697353,0.7114758,0.03508532,1.192856,-0.08797097,0.03865487,0.02041824,0.0004567453,2.109578,-3.783188,32.81
4,-0.09172058,0.04319763,0.9948425,0.1604435,-0.09280396,0.04269409,0.9947662,-30.04622,-3.492661,-24.79752,4.002899,0.4550711,0.6542268,1.0,0.003005981,0.0868988,0.9962006,33.49873,-4.516769,-27.55359,3.889023,0.4697353,0.7114758,0.03614342,1.192565,-0.08782136,0.03914481,0.02327801,-0.002128369,2.109578,-3.783188,32.81
4,-0.09172058,0.04319763,0.9948425,0.1604435,-0.09280396,0.04269409,0.9947662,-30.04622,-3.492661,-24.79752,4.002899,0.4550711,0.6542268,1.0,0.003005981,0.0868988,0.9962006,33.49873,-4.516769,-27.55359,3.889023,0.4697353,0.7114758,0.03614342,1.192565,-0.08782136,0.03914481,0.02327801,-0.002128369,2.109578,-3.783188,32.81
4,-0.09172058,0.04319763,0.9948425,0.1604435,-0.09280396,0.04269409,0.9947662,-30.04622,-3.492661,-24.79752,4.002899,0.4550711,0.6542268,1.0,0.003005981,0.0868988,0.9962006,33.49873,-4.516769,-27.55359,3.889023,0.4697353,0.7114758,0.0372225,1.192426,-0.08769679,0.03976533,0.02609908,-0.004949496,2.109578,-3.783188,32.81
4,-0.09172058,0.04319763,0.9948425,0.1604435,-0.09280396,0.04269409,0.9947662,-30.04622,-3.492661,-24.79752,4.002899,0.4550711,0.6542268,1.0,0.003005981,0.0868988,0.9962006,33.49873,-4.516769,-27.55359,3.889023,0.4697353,0.7114758,0.0372225,1.192426,-0.08769679,0.03976533,0.02609908,-0.004949496,2.109578,-3.783188,32.81
4,-0.09172058,0.04319763,0.9948425,0.1604435,-0.09280396,0.04269409,0.9947662,-30.04622,-3.492661,-24.79752,4.002899,0.4550711,0.6542268,1.0,0.003005981,0.0868988,0.9962006,33.49873,-4.516769,-27.55359,3.889023,0.4697353,0.7114758,0.03827548,1.192183,-0.087497,0.04042961,0.02877987,-0.00814036,2.109578,-3.783188,32.81
4,-0.09172058,0.04319763,0.9948425,0.1604435,-0.09280396,0.04269409,0.9947662,-30.04622,-3.492661,-24.79752,4.002899,0.4550711,0.6542268,1.0,0.003005981,0.0868988,0.9962006,33.49873,-4.516769,-27.55359,3.889023,0.4697353,0.7114758,0.03827548,1.192183,-0.087497,0.04042961,0.02877987,-0.00814036,2.109578,-3.783188,32.81
4,-0.09111023,0.04168701,0.9949646,0.1689456,-0.09280396,0.040802,0.9948425,-30.04218,-3.496658,-24.79529,4.015015,0.4549311,0.6546559,1.0,0.0008087158,0.08866882,0.996048,33.53926,-4.549042,-27.52278,3.924744,0.4687172,0.7119771,0.03930378,1.191912,-0.08736098,0.04107698,0.03136613,-0.01126888,2.109578,-3.783188,32.81
4,-0.09111023,0.04168701,0.9949646,0.1689456,-0.09280396,0.040802,0.9948425,-30.04218,-3.496658,-24.79529,4.015015,0.4549311,0.6546559,1.0,0.0008087158,0.08866882,0.996048,33.53926,-4.549042,-27.52278,3.924744,0.4687172,0.7119771,0.03930378,1.191912,-0.08736098,0.04107698,0.03136613,-0.01126888,2.109578,-3.783188,32.81
4,-0.09111023,0.04168701,0.9949646,0.1689456,-0.09280396,0.040802,0.9948425,-30.04218,-3.496658,-24.79529,4.015015,0.4549311,0.6546559,1.0,0.0008087158,0.08866882,0.996048,33.53926,-4.549042,-27.52278,3.924744,0.4687172,0.7119771,0.04022586,1.191716,-0.08720207,0.04143941,0.03376894,-0.01478261,2.109578,-3.783188,32.81
4,-0.09111023,0.04168701,0.9949646,0.1689456,-0.09280396,0.040802,0.9948425,-30.04218,-3.496658,-24.79529,4.015015,0.4549311,0.6546559,1.0,0.0008087158,0.08866882,0.996048,33.53926,-4.549042,-27.52278,3.924744,0.4687172,0.7119771,0.04022586,1.191716,-0.08720207,0.04143941,0.03376894,-0.01478261,2.109578,-3.783188,32.81
4,-0.09111023,0.04168701,0.9949646,0.1689456,-0.09280396,0.040802,0.9948425,-30.04218,-3.496658,-24.79529,4.015015,0.4549311,0.6546559,1.0,0.0008087158,0.08866882,0.996048,33.53926,-4.549042,-27.52278,3.924744,0.4687172,0.7119771,0.04111135,1.191647,-0.08706975,0.04156687,0.03570197,-0.01793271,2.109578,-3.783188,32.81
4,-0.09111023,0.04168701,0.9949646,0.1689456,-0.09280396,0.040802,0.9948425,-30.04218,-3.496658,-24.79529,4.015015,0.4549311,0.6546559,1.0,0.0008087158,0.08866882,0.996048,33.53926,-4.549042,-27.52278,3.924744,0.4687172,0.7119771,0.04111135,1.191647,-0.08706975,0.04156687,0.03570197,-0.01793271,2.109578,-3.783188,32.81
4,-0.02810669,0.03166199,0.9990997,0.199359,-0.05084229,0.02999878,0.9982452,-29.6813,-3.570663,-24.48347,3.985275,0.4362184,0.6554835,1.0,0.01989746,0.03511047,0.999176,33.88181,-4.623337,-27.35149,4.142151,0.4535474,0.7222017,0.04184639,1.191584,-0.0868991,0.04154374,0.03712744,-0.0204073,2.109578,-3.783188,32.81
4,-0.02810669,0.03166199,0.9990997,0.199359,-0.05084229,0.02999878,0.9982452,-29.6813,-3.570663,-24.48347,3.985275,0.4362184,0.6554835,1.0,0.01989746,0.03511047,0.999176,33.88181,-4.623337,-27.35149,4.142151,0.4535474,0.7222017,0.04184639,1.191584,-0.0868991,0.04154374,0.03712744,-0.0204073,2.109578,-3.783188,32.81
4,-0.02810669,0.03166199,0.9990997,0.199359,-0.05084229,0.02999878,0.9982452,-29.6813,-3.570663,-24.48347,3.985275,0.4362184,0.6554835,1.0,0.01989746,0.03511047,0.999176,33.88181,-4.623337,-27.35149,4.142151,0.4535474,0.7222017,0.04251802,1.191459,-0.08674002,0.0416292,0.03833416,-0.02237819,2.109578,-3.783188,32.81
4,-0.02810669,0.03166199,0.9990997,0.199359,-0.05084229,0.02999878,0.9982452,-29.6813,-3.570663,-24.48347,3.985275,0.4362184,0.6554835,1.0,0.01989746,0.03511047,0.999176,33.88181,-4.623337,-27.35149,4.142151,0.4535474,0.7222017,0.04251802,1.191459,-0.08674002,0.0416292,0.03833416,-0.02237819,2.109578,-3.783188,32.81
5,-0.02810669,0.03166199,0.9990997,0.199359,-0.05084229,0.02999878,0.9982452,-29.6813,-3.570663,-24.48347,3.985275,0.4362184,0.6554835,1.0,0.01989746,0.03511047,0.999176,33.88181,-4.623337,-27.35149,4.142151,0.4535474,0.7222017,0.04311061,1.191373,-0.08656955,0.0419629,0.03924271,-0.0240367,2.109578,-3.783188,32.81
5,-0.02810669,0.03166199,0.9990997,0.199359,-0.05084229,0.02999878,0.9982452,-29.6813,-3.570663,-24.48347,3.985275,0.4362184,0.6554835,1.0,0.01989746,0.03511047,0.999176,33.88181,-4.623337,-27.35149,4.142151,0.4535474,0.7222017,0.04311061,1.191373,-0.08656955,0.0419629,0.03924271,-0.0240367,2.109578,-3.783188,32.81
5,-0.02810669,0.03166199,0.9990997,0.199359,-0.05084229,0.02999878,0.9982452,-29.6813,-3.570663,-24.48347,3.985275,0.4362184,0.6554835,1.0,0.01989746,0.03511047,0.999176,33.88181,-4.623337,-27.35149,4.142151,0.4535474,0.7222017,0.04358184,1.191284,-0.08639735,0.04216094,0.04020156,-0.02494688,2.109578,31.21893,32.81
5,-0.02810669,0.03166199,0.9990997,0.199359,-0.05084229,0.02999878,0.9982452,-29.6813,-3.570663,-24.48347,3.985275,0.4362184,0.6554835,1.0,0.01989746,0.03511047,0.999176,33.88181,-4.623337,-27.35149,4.142151,0.4535474,0.7222017,0.04358184,1.191284,-0.08639735,0.04216094,0.04020156,-0.02494688,2.109578,31.21893,32.81
5,-0.001678467,0.0307312,0.9995117,0.199359,-0.04910278,0.01371765,0.9986877,-29.6666,-3.577789,-24.45625,3.893082,0.4354463,0.6580653,1.0,0.03027344,0.04216003,0.998642,33.89941,-4.641098,-27.30997,4.190826,0.4511796,0.7211792,0.04402232,1.191155,-0.08622587,0.04236984,0.04102616,-0.02517906,2.109578,31.21893,32.81
5,-0.001678467,0.0307312,0.9995117,0.199359,-0.04910278,0.01371765,0.9986877,-29.6666,-3.577789,-24.45625,3.893082,0.4354463,0.6580653,1.0,0.03027344,0.04216003,0.998642,33.89941,-4.641098,-27.30997,4.190826,0.4511796,0.7211792,0.04402232,1.191155,-0.08622587,0.04236984,0.04102616,-0.02517906,2.109578,31.21893,32.81
5,-0.001678467,0.0307312,0.9995117,0.199359,-0.04910278,0.01371765,0.9986877,-29.6666,-3.577789,-24.45625,3.893082,0.4354463,0.6580653,1.0,0.03027344,0.04216003,0.998642,33.89941,-4.641098,-27.30997,4.190826,0.4511796,0.7211792,0.04428256,1.19097,-0.08611828,0.04271065,0.04153406,-0.02475109,2.109578,31.21893,32.81
5,-0.001678467,0.0307312,0.9995117,0.199359,-0.04910278,0.01371765,0.9986877,-29.6666,-3.577789,-24.45625,3.893082,0.4354463,0.6580653,1.0,0.03027344,0.04216003,0.998642,33.89941,-4.641098,-27.30997,4.190826,0.4511796,0.7211792,0.04428256,1.19097,-0.08611828,0.04271065,0.04153406,-0.02475109,2.109578,31.21893,32.81
5,-0.05584717,0.08085632,0.9951477,0.2221976,-0.1279602,0.05844116,0.9900513,-30.07779,-3.301498,-24.90529,4.016815,0.4619732,0.6465811,1.0,-0.03445435,0.08740234,0.995575,33.33183,-4.483963,-27.40295,3.944427,0.4819753,0.708746,0.04441404,1.190853,-0.08593595,0.0430107,0.04191263,-0.02391706,2.109578,31.21893,32.81
5,-0.05584717,0.08085632,0.9951477,0.2221976,-0.1279602,0.05844116,0.9900513,-30.07779,-3.301498,-24.90529,4.016815,0.4619732,0.6465811,1.0,-0.03445435,0.08740234,0.995575,33.33183,-4.483963,-27.40295,3.944427,0.4819753,0.708746,0.04441404,1.190853,-0.08593595,0.0430107,0.04191263,-0.02391706,2.109578,31.21893,32.81
5,-0.059021,0.0743866,0.9954681,0.1169883,-0.1116791,0.05195618,0.9923706,-29.99986,-3.456802,-24.54266,3.956299,0.456745,0.6489657,1.0,-0.01289368,0.09375,0.9954987,33.49806,-4.536713,-27.57138,3.879211,0.4725183,0.7111675,0.04451168,1.190716,-0.0857923,0.04340162,0.04194798,-0.02307839,2.109578,31.21893,32.81
5,-0.059021,0.0743866,0.9954681,0.1169883,-0.1116791,0.05195618,0.9923706,-29.99986,-3.456802,-24.54266,3.956299,0.456745,0.6489657,1.0,-0.01289368,0.09375,0.9954987,33.49806,-4.536713,-27.57138,3.879211,0.4725183,0.7111675,0.04451168,1.190716,-0.0857923,0.04340162,0.04194798,-0.02307839,2.109578,31.21893,32.81
5,-0.08287048,0.06283569,0.9945679,0.1505178,-0.1118469,0.05070496,0.9924164,-29.9855,-3.472549,-24.51227,3.973236,0.456297,0.6494067,1.0,-0.01164246,0.09225464,0.9956665,33.52914,-4.504898,-27.67087,3.828476,0.4712312,0.7113542,0.0445118,1.190586,-0.08557761,0.04383532,0.04164942,-0.02220002,2.109578,31.21893,32.81
5,-0.08287048,0.06283569,0.9945679,0.1505178,-0.1118469,0.05070496,0.9924164,-29.9855,-3.472549,-24.51227,3.973236,0.456297,0.6494067,1.0,-0.01164246,0.09225464,0.9956665,33.52914,-4.504898,-27.67087,3.828476,0.4712312,0.7113542,0.0445118,1.190586,-0.08557761,0.04383532,0.04164942,-0.02220002,2.109578,31.21893,32.81
5,-0.05274963,0.07478333,0.9957886,0.1458802,-0.1116943,0.04896545,0.9925232,-29.98079,-3.468704,-24.52583,3.97171,0.4561088,0.6496996,1.0,-0.01112366,0.09277344,0.9956207,33.54509,-4.471832,-27.77393,3.85144,0.4705895,0.7112923,0.04445064,1.190442,-0.08540928,0.04452254,0.04116884,-0.02116539,2.109578,31.21893,32.81
5,-0.05274963,0.07478333,0.9957886,0.1458802,-0.1116943,0.04896545,0.9925232,-29.98079,-3.468704,-24.52583,3.97171,0.4561088,0.6496996,1.0,-0.01112366,0.09277344,0.9956207,33.54509,-4.471832,-27.77393,3.85144,0.4705895,0.7112923,0.04445064,1.190442,-0.08540928,0.04452254,0.04116884,-0.02116539,2.109578,31.21893,32.81
5,-0.09669495,0.05551147,0.9937592,0.1785841,-0.1111603,0.04925537,0.992569,-29.97719,-3.465378,-24.54277,3.97113,0.4559018,0.6497096,1.0,-0.01260376,0.09146118,0.9957275,33.55695,-4.445724,-27.8483,3.829803,0.4704367,0.7114207,0.04439676,1.190357,-0.08525759,0.04480762,0.0409298,-0.02071602,2.109578,31.21893,32.81
5,-0.09669495,0.05551147,0.9937592,0.1785841,-0.1111603,0.04925537,0.992569,-29.97719,-3.465378,-24.54277,3.97113,0.4559018,0.6497096,1.0,-0.01260376,0.09146118,0.9957275,33.55695,-4.445724,-27.8483,3.829803,0.4704367,0.7114207,0.04435718,1.190319,-0.08512664,0.04504924,0.04060137,-0.02032718,2.109578,35.63206,32.81
5,-0.09669495,0.05551147,0.9937592,0.1785841,-0.1111603,0.04925537,0.992569,-29.97719,-3.465378,-24.54277,3.97113,0.4559018,0.6497096,1.0,-0.01260376,0.09146118,0.9957275,33.55695,-4.445724,-27.8483,3.829803,0.4704367,0.7114207,0.04435718,1.190319,-0.08512664,0.04504924,0.04060137,-0.02032718,2.109578,35.63206,32.81
5,-0.09669495,0.05551147,0.9937592,0.1785841,-0.1111603,0.04925537,0.992569,-29.97719,-3.465378,-24.54277,3.97113,0.4559018,0.6497096,1.0,-0.01260376,0.09146118,0.9957275,33.55695,-4.445724,-27.8483,3.829803,0.4704367,0.7114207,0.04420364,1.190177,-0.08491939,0.04540622,0.03994964,-0.01982356,2.109578,35.63206,32.81
5,-0.09870911,0.05509949,0.993576,0.1785841,-0.1110535,0.04992676,0.9925537,-29.9756,-3.464386,-24.55797,3.969864,0.455834,0.6497157,1.0,-0.01229858,0.09077454,0.9957886,33.5618,-4.436371,-27.87361,3.823914,0.4702143,0.7114827,0.04413664,1.190094,-0.08485937,0.04561315,0.03954475,-0.01958915,2.109578,35.63206,32.81
5,-0.08996582,0.04544067,0.9949036,0.183848,-0.1064911,0.03601074,0.9936523,-30.00174,-3.483307,-24.5943,3.955063,0.4559025,0.652982,1.0,-0.009902954,0.09060669,0.9958344,33.56293,-4.434845,-27.85677,3.893616,0.4697571,0.7113637,0.04405963,1.19004,-0.08475107,0.04584467,0.03924195,-0.01938613,2.109578,35.63206,32.81
5,-0.08996582,0.04544067,0.9949036,0.183848,-0.1064911,0.03601074,0.9936523,-30.00174,-3.483307,-24.5943,3.955063,0.4559025,0.652982,1.0,-0.009902954,0.09060669,0.9958344,33.56293,-4.434845,-27.85677,3.893616,0.4697571,0.7113637,0.04405963,1.19004,-0.08475107,0.04584467,0.03924195,-0.01938613,2.109578,35.63206,32.81
5,-0.06330872,0.05680847,0.9963684,0.1757766,-0.1105957,0.03164673,0.9933472,-30.04469,-3.462448,-24.6707,4.028427,0.4579498,0.6538939,1.0,-0.01261902,0.08348083,0.9964142,33.54465,-4.464157,-27.78772,3.851563,0.4708485,0.7128103,0.04381454,1.189869,-0.0845111,0.04612433,0.0384812,-0.01874684,2.109578,35.63206,32.81
5,-0.05892944,0.06074524,0.9963989,0.1942617,-0.1147461,0.03396606,0.9927979,-30.06448,-3.430344,-24.75443,4.029846,0.4592806,0.6533307,1.0,-0.01068115,0.08361816,0.9964294,33.53336,-4.501282,-27.67438,3.855347,0.4709008,0.7128103,0.04369605,1.189793,-0.08446395,0.04636021,0.03807126,-0.01854063,2.109578,35.63206,32.81
5,-0.05892944,0.06074524,0.9963989,0.1942617,-0.1147461,0.03396606,0.9927979,-30.06448,-3.430344,-24.75443,4.029846,0.4592806,0.6533307,1.0,-0.01068115,0.08361816,0.9964294,33.53336,-4.501282,-27.67438,3.855347,0.4709008,0.7128103,0.04369605,1.189793,-0.08446395,0.04636021,0.03807126,-0.01854063,2.109578,35.63206,32.81
5,-0.06185913,0.05969238,0.9962921,0.2003784,-0.1131439,0.03677368,0.9928894,-30.07265,-3.403214,-24.82974,4.043701,0.4592806,0.6527361,1.0,-0.008651733,0.08319092,0.9964905,33.52251,-4.515503,-27.63243,3.856567,0.4709226,0.7129144,0.04349625,1.189685,-0.08431184,0.04645701,0.0373172,-0.01799616,2.109578,35.63206,32.81
5,-0.05941772,0.05915833,0.9964752,0.2003784,-0.1136322,0.03570557,0.9928741,-30.07671,-3.389465,-24.86456,4.060455,0.4594849,0.6528296,1.0,-0.007858276,0.08119202,0.9966583,33.5183,-4.512711,-27.62186,3.82016,0.4709318,0.7129937,0.04336202,1.189695,-0.08424377,0.04653713,0.03704869,-0.0178231,2.109578,35.63206,32.81
5,-0.05941772,0.05915833,0.9964752,0.2003784,-0.1136322,0.03570557,0.9928741,-30.07671,-3.389465,-24.86456,4.060455,0.4594849,0.6528296,1.0,-0.007858276,0.08119202,0.9966583,33.5183,-4.512711,-27.62186,3.82016,0.4709318,0.7129937,0.04336202,1.189695,-0.08424377,0.04653713,0.03704869,-0.0178231,2.109578,35.63206,32.81
5,-0.1069946,0.03045654,0.9937897,0.1763328,-0.1134796,0.02874756,0.9931183,-30.09767,-3.401154,-24.81319,4.028717,0.4601485,0.6538318,1.0,-0.003204346,0.05738831,0.9983368,33.46848,-4.552719,-27.35269,3.697372,0.4718233,0.7153987,0.043203,1.189644,-0.08409894,0.04666344,0.03663167,-0.01754333,2.109578,13.25821,32.81
5,-0.1069946,0.03045654,0.9937897,0.1763328,-0.1134796,0.02874756,0.9931183,-30.09767,-3.401154,-24.81319,4.028717,0.4601485,0.6538318,1.0,-0.003204346,0.05738831,0.9983368,33.46848,-4.552719,-27.35269,3.697372,0.4718233,0.7153987,0.043203,1.189644,-0.08409894,0.04666344,0.03663167,-0.01754333,2.109578,13.25821,32.81
5,-0.07516479,0.0300293,0.9967041,0.1855125,-0.07582092,0.02963257,0.9966736,-29.7524,-3.347092,-24.7164,3.856598,0.4426621,0.6505089,1.0,0.0242157,0.08912659,0.9957123,33.77798,-4.279205,-28.10385,4.021515,0.4564287,0.7090203,0.04310095,1.189596,-0.08404964,0.04671643,0.03647514,-0.01735976,2.109578,13.25821,32.81
5,-0.03712463,0.03965759,0.9985199,0.05919578,-0.03723145,0.03959656,0.9985199,-29.5377,-3.210999,-24.84752,3.943176,0.4292277,0.6456048,1.0,0.03923035,0.08970642,0.9951935,33.94554,-4.169815,-28.22545,4.108505,0.4480082,0.7066095,0.04292738,1.189526,-0.08398569,0.04690138,0.03641257,-0.01681117,2.109578,13.25821,32.81
5,-0.03712463,0.03965759,0.9985199,0.05919578,-0.03723145,0.03959656,0.9985199,-29.5377,-3.210999,-24.84752,3.943176,0.4292277,0.6456048,1.0,0.03923035,0.08970642,0.9951935,33.94554,-4.169815,-28.22545,4.108505,0.4480082,0.7066095,0.04292738,1.189526,-0.08398569,0.04690138,0.03641257,-0.01681117,2.109578,13.25821,32.81
5,-0.02293396,0.09873962,0.9948425,0.0,-0.02297974,0.09873962,0.9948425,-29.37164,-3.187637,-24.7518,4.183334,0.4215104,0.6343217,0.967807,0.05966187,0.09535217,0.9936523,34.03197,-4.202164,-27.94531,4.133682,0.4415715,0.7036875,0.04284024,1.189505,-0.08396387,0.0469671,0.03627111,-0.01648447,2.109578,13.25821,32.81
5,-0.01751709,0.0783844,0.9967651,0.08032612,-0.01753235,0.0783844,0.9967651,-29.39842,-3.233124,-24.65921,4.061996,0.4215178,0.6381071,0.956372,0.05892944,0.09255981,0.9939575,34.03539,-4.202164,-27.94531,4.131607,0.4415715,0.7041855,0.04267728,1.189511,-0.08390898,0.04706028,0.03602791,-0.0160781,2.109578,13.25821,32.81
5,-0.01655579,0.07347107,0.9971466,0.04847602,-0.01731873,0.073349,0.9971466,-29.39836,-3.273453,-24.56766,3.966782,0.4215178,0.6392357,0.9765905,0.05586243,0.08563232,0.994751,34.0529,-4.208237,-27.8925,4.129196,0.4415065,0.7050046,0.04261768,1.18947,-0.08385634,0.04702465,0.0360277,-0.01593146,2.109578,13.25821,32.81
5,-0.01655579,0.07347107,0.9971466,0.04847602,-0.01731873,0.073349,0.9971466,-29.39836,-3.273453,-24.56766,3.966782,0.4215178,0.6392357,0.9765905,0.05586243,0.08563232,0.994751,34.0529,-4.208237,-27.8925,4.129196,0.4415065,0.7050046,0.04261768,1.18947,-0.08385634,0.04702465,0.0360277,-0.01593146,2.109578,13.25821,32.81
5,0.02934265,0.08201599,0.9961853,0.01452067,-0.01737976,0.07398987,0.9971008,-29.39842,-3.287964,-24.52576,4.005859,0.4215433,0.6392357,0.9900062,0.05516052,0.08638,0.9947205,34.06604,-4.231384,-27.83209,4.1315,0.4411873,0.7050046,0.04236794,1.189525,-0.08379608,0.04701466,0.03583798,-0.01550629,2.109578,13.25821,32.81
5,0.04034424,0.08459473,0.9955902,0.06931247,-0.01643372,0.07720947,0.9968719,-29.40273,-3.303207,-24.49658,4.017914,0.4215433,0.638919,1.0,0.05439758,0.08638,0.9947662,34.07387,-4.258728,-27.74525,4.137589,0.4410719,0.7050046,0.04223502,1.189545,-0.08378696,0.04701023,0.03564871,-0.01518586,2.109578,13.25821,32.81
5,0.01559448,0.08062744,0.9966125,0.07213713,-0.01725769,0.07579041,0.9969635,-29.40266,-3.305557,-24.49658,4.017532,0.4216745,0.6392357,0.9931348,0.05522156,0.08634949,0.9947205,34.07835,-4.283264,-27.71767,4.1353,0.4407784,0.7055478,0.04209149,1.189532,-0.08375353,0.04685513,0.03545864,-0.01470276,2.109578,13.25821,32.81
5,0.01559448,0.08062744,0.9966125,0.07213713,-0.01725769,0.07579041,0.9969635,-29.40266,-3.305557,-24.49658,4.017532,0.4216745,0.6392357,0.9931348,0.05522156,0.08634949,0.9947205,34.07835,-4.283264,-27.71767,4.1353,0.4407784,0.7055478,0.04209149,1.189532,-0.08375353,0.04685513,0.03545864,-0.01470276,2.109578,13.25821,32.81
5,0.007202148,0.08097839,0.9966888,0.07213713,-0.01721191,0.07684326,0.9968872,-29.40091,-3.309708,-24.50258,4.013077,0.4216089,0.63925,0.9931348,0.05836487,0.08947754,0.9942627,34.08205,-4.294296,-27.70622,4.139145,0.4401111,0.7052762,0.04173338,1.189542,-0.08370638,0.04690408,0.03474418,-0.01352118,2.109578,13.25821,32.81
5,0.006027222,0.0823822,0.9965668,0.1154218,-0.01797485,0.07792664,0.9967957,-29.39917,-3.313873,-24.50856,4.008316,0.4216745,0.6392642,1.0,0.06150818,0.09249878,0.9938049,34.08574,-4.305313,-27.69478,4.143127,0.4394438,0.7050046,0.04149711,1.189559,-0.08368468,0.04684177,0.03441539,-0.0129239,2.109578,13.25821,32.81
5,0.006027222,0.0823822,0.9965668,0.1154218,-0.01797485,0.07792664,0.9967957,-29.39917,-3.313873,-24.50856,4.008316,0.4216745,0.6392642,1.0,0.06150818,0.09249878,0.9938049,34.08574,-4.305313,-27.69478,4.143127,0.4394438,0.7050046,0.04149711,1.189559,-0.08368468,0.04684177,0.03441539,-0.0129239,2.109578,13.25821,32.81
5,0.006027222,0.0823822,0.9965668,0.1154218,-0.01797485,0.07792664,0.9967957,-29.39917,-3.313873,-24.50856,4.008316,0.4216745,0.6392642,1.0,0.06150818,0.09249878,0.9938049,34.08574,-4.305313,-27.69478,4.143127,0.4394438,0.7050046,0.04104316,1.189567,-0.08359289,0.04673588,0.03356068,-0.01161016,2.109578,13.25821,32.81
