Second,eye_comb_direction_x,eye_comb_direction_y,eye_comb_direction_z,eye_r_openness,eye_r_direction_x,eye_r_direction_y,eye_r_direction_z,eye_r_origin_x,eye_r_origin_y,eye_r_origin_z,eye_r_pupil_diameter,eye_r_pupil_position_x,eye_r_pupil_position_y,eye_l_openness,eye_l_direction_x,eye_l_direction_y,eye_l_direction_z,eye_l_origin_x,eye_l_origin_y,eye_l_origin_z,eye_l_pupil_diameter,eye_l_pupil_position_x,eye_l_pupil_position_y,head_position_x,head_position_y,head_position_z,head_rotation_roll,head_rotation_pitch,head_rotation_yaw,EDA,BVP,TMP
0,0.0,0.0,0.0,0.0,0.0,0.0,0.0,0.0,0.0,0.0,0.0,0.0,0.0,0.0,0.0,0.0,0.0,0.0,0.0,0.0,0.0,0.0,0.0,0.0,0.0,0.0,0.0,0.0,0.0,0.27612779451855446,-0.4221095573174875,32.1816298811545
0,0.0309906,0.1576843,0.9869995,1.0,0.02755737,0.1427765,0.9893646,-32.92931,2.71402,-24.95065,5.368973,0.5308836,0.4381786,1.0,0.03694153,0.1835175,0.9823151,33.9214,4.732117,-23.01489,5.652359,0.4531796,0.3467152,0.1073843,1.213748,-0.2808343,0.02096591,-0.08580588,-0.04520641,0.27612779451855446,-0.4221095573174875,32.1816298811545
1,0.03193665,0.1665192,0.9855042,1.0,0.02670288,0.1435699,0.9892731,-32.92944,2.712357,-24.9334,5.359192,0.5310186,0.4379487,1.0,0.03721619,0.1896057,0.9811401,33.92436,4.732117,-23.01489,5.656586,0.4530374,0.3457401,0.1072949,1.213737,-0.2807107,0.02184683,-0.08599921,-0.04532673,0.27612779451855446,-0.4221095573174875,32.1816298811545
1,0.03193665,0.1665192,0.9855042,1.0,0.02670288,0.1435699,0.9892731,-32.92944,2.712357,-24.9334,5.359192,0.5310186,0.4379487,1.0,0.03721619,0.1896057,0.9811401,33.92436,4.732117,-23.01489,5.656586,0.4530374,0.3457401,0.1072949,1.213737,-0.2807107,0.02184683,-0.08599921,-0.04532673,0.27612779451855446,-0.4221095573174875,32.1816298811545
1,0.03193665,0.1665192,0.9855042,1.0,0.02670288,0.1435699,0.9892731,-32.92944,2.712357,-24.9334,5.359192,0.5310186,0.4379487,1.0,0.03721619,0.1896057,0.9811401,33.92436,4.732117,-23.01489,5.656586,0.4530374,0.3457401,0.1072949,1.213737,-0.2807107,0.02184683,-0.08599921,-0.04532673,0.27612779451855446,-0.4221095573174875,32.1816298811545
1,0.03193665,0.1665192,0.9855042,1.0,0.02670288,0.1435699,0.9892731,-32.92944,2.712357,-24.9334,5.359192,0.5310186,0.4379487,1.0,0.03721619,0.1896057,0.9811401,33.92436,4.732117,-23.01489,5.656586,0.4530374,0.3457401,0.1072949,1.213737,-0.2807107,0.02184683,-0.08599921,-0.04532673,0.27612779451855446,-0.4221095573174875,32.1816298811545
1,0.03193665,0.1665192,0.9855042,1.0,0.02670288,0.1435699,0.9892731,-32.92944,2.712357,-24.9334,5.359192,0.5310186,0.4379487,1.0,0.03721619,0.1896057,0.9811401,33.92436,4.732117,-23.01489,5.656586,0.4530374,0.3457401,0.1072949,1.213737,-0.2807107,0.02184683,-0.08599921,-0.04532673,0.27612779451855446,-0.4221095573174875,32.1816298811545
1,0.03193665,0.1665192,0.9855042,1.0,0.02670288,0.1435699,0.9892731,-32.92944,2.712357,-24.9334,5.359192,0.5310186,0.4379487,1.0,0.03721619,0.1896057,0.9811401,33.92436,4.732117,-23.01489,5.656586,0.4530374,0.3457401,0.1072949,1.213737,-0.2807107,0.02184683,-0.08599921,-0.04532673,0.27612779451855446,-0.4221095573174875,32.1816298811545
1,0.03193665,0.1665192,0.9855042,1.0,0.02670288,0.1435699,0.9892731,-32.92944,2.712357,-24.9334,5.359192,0.5310186,0.4379487,1.0,0.03721619,0.1896057,0.9811401,33.92436,4.732117,-23.01489,5.656586,0.4530374,0.3457401,0.1072949,1.213737,-0.2807107,0.02184683,-0.08599921,-0.04532673,0.27612779451855446,-0.4221095573174875,32.1816298811545
1,0.03193665,0.1665192,0.9855042,1.0,0.02670288,0.1435699,0.9892731,-32.92944,2.712357,-24.9334,5.359192,0.5310186,0.4379487,1.0,0.03721619,0.1896057,0.9811401,33.92436,4.732117,-23.01489,5.656586,0.4530374,0.3457401,0.1072949,1.213737,-0.2807107,0.02184683,-0.08599921,-0.04532673,0.27612779451855446,-0.4221095573174875,32.1816298811545
1,0.03193665,0.1665192,0.9855042,1.0,0.02670288,0.1435699,0.9892731,-32.92944,2.712357,-24.9334,5.359192,0.5310186,0.4379487,1.0,0.03721619,0.1896057,0.9811401,33.92436,4.732117,-23.01489,5.656586,0.4530374,0.3457401,0.1072949,1.213737,-0.2807107,0.02184683,-0.08599921,-0.04532673,0.27612779451855446,-0.4221095573174875,32.1816298811545
1,-1.0,-1.0,-1.0,0.4901714,0.0,0.0,0.0,-33.14574,7.854065,-44.01782,-1.0,0.7506882,0.5043656,0.5213816,0.0,0.0,0.0,32.89517,6.063675,-23.22382,-1.0,0.5250014,0.3286648,0.1086736,1.21424,-0.2817265,0.01980777,-0.08474564,-0.04667174,0.27612779451855446,-0.4221095573174875,32.1816298811545
1,-1.0,-1.0,-1.0,0.4901714,0.0,0.0,0.0,-33.14574,7.854065,-44.01782,-1.0,0.7506882,0.5043656,0.5213816,0.0,0.0,0.0,32.89517,6.063675,-23.22382,-1.0,0.5250014,0.3286648,0.1086736,1.21424,-0.2817265,0.01980777,-0.08474564,-0.04667174,0.27612779451855446,-0.4221095573174875,32.1816298811545
1,-1.0,-1.0,-1.0,0.4901714,0.0,0.0,0.0,-33.14574,7.854065,-44.01782,-1.0,0.7506882,0.5043656,0.5213816,0.0,0.0,0.0,32.89517,6.063675,-23.22382,-1.0,0.5250014,0.3286648,0.1086736,1.21424,-0.2817265,0.01980777,-0.08474564,-0.04667174,0.27612779451855446,-0.4221095573174875,32.1816298811545
1,-1.0,-1.0,-1.0,0.4901714,0.0,0.0,0.0,-33.14574,7.854065,-44.01782,-1.0,0.7506882,0.5043656,0.5213816,0.0,0.0,0.0,32.89517,6.063675,-23.22382,-1.0,0.5250014,0.3286648,0.1086736,1.21424,-0.2817265,0.01980777,-0.08474564,-0.04667174,0.27612779451855446,-0.4221095573174875,32.1816298811545
1,-1.0,-1.0,-1.0,0.4901714,0.0,0.0,0.0,-33.14574,7.854065,-44.01782,-1.0,0.7506882,0.5043656,0.5213816,0.0,0.0,0.0,32.89517,6.063675,-23.22382,-1.0,0.5250014,0.3286648,0.1086736,1.21424,-0.2817265,0.01980777,-0.08474564,-0.04667174,0.27612779451855446,-0.4221095573174875,32.1816298811545
1,-1.0,-1.0,-1.0,0.4901714,0.0,0.0,0.0,-33.14574,7.854065,-44.01782,-1.0,0.7506882,0.5043656,0.5213816,0.0,0.0,0.0,32.89517,6.063675,-23.22382,-1.0,0.5250014,0.3286648,0.1086736,1.21424,-0.2817265,0.01980777,-0.08474564,-0.04667174,0.27612779451855446,-0.4221095573174875,32.1816298811545
1,-1.0,-1.0,-1.0,0.7834679,0.0,0.0,0.0,-34.1676,3.742081,-26.31953,-1.0,0.6011487,0.4135328,0.8179143,0.0,0.0,0.0,33.09497,5.431747,-23.35283,-1.0,0.5140537,0.3258377,0.1086389,1.214416,-0.2817607,0.01913547,-0.08483834,-0.04691647,0.2972509,3.764145,32.1816298811545
1,-1.0,-1.0,-1.0,0.7834679,0.0,0.0,0.0,-34.1676,3.742081,-26.31953,-1.0,0.6011487,0.4135328,0.8179143,0.0,0.0,0.0,33.09497,5.431747,-23.35283,-1.0,0.5140537,0.3258377,0.1086389,1.214416,-0.2817607,0.01913547,-0.08483834,-0.04691647,0.2972509,3.764145,32.1816298811545
1,-0.1442261,0.1770935,0.9735565,0.8150362,-0.1424255,0.182785,0.9727631,-34.07289,3.661926,-26.37201,5.700775,0.597609,0.4131162,0.8824732,-0.1452179,0.1739044,0.9739838,33.13385,5.329926,-23.39514,5.623215,0.5087946,0.332046,0.1086218,1.214528,-0.2817385,0.01888385,-0.08475241,-0.04661024,0.2972509,3.764145,32.1816298811545
1,-0.1442261,0.1770935,0.9735565,0.8150362,-0.1424255,0.182785,0.9727631,-34.07289,3.661926,-26.37201,5.700775,0.597609,0.4131162,0.8824732,-0.1452179,0.1739044,0.9739838,33.13385,5.329926,-23.39514,5.623215,0.5087946,0.332046,0.1086218,1.214528,-0.2817385,0.01888385,-0.08475241,-0.04661024,0.2972509,3.764145,32.1816298811545
1,-0.150238,0.1805725,0.9720154,0.855921,-0.1620483,0.1789551,0.9704132,-33.98965,3.633682,-26.41867,5.683182,0.5981001,0.4151444,0.8961128,-0.1435699,0.1814728,0.9728546,33.17921,5.266403,-23.41069,5.683273,0.5070208,0.3330822,0.1085874,1.2146,-0.281736,0.01871581,-0.08474608,-0.0465661,0.2972509,3.764145,32.1816298811545
2,-0.128479,0.1857605,0.9741516,0.867327,-0.1422882,0.1786957,0.9735565,-33.95166,3.598663,-26.53511,5.659653,0.5936608,0.4172068,0.9195361,-0.1217346,0.1891785,0.97435,33.21361,5.253006,-23.47086,5.642548,0.5023677,0.3325916,0.1085382,1.214635,-0.2817131,0.01865441,-0.08465037,-0.04654595,0.2972509,3.764145,32.1816298811545
2,-0.128479,0.1857605,0.9741516,0.867327,-0.1422882,0.1786957,0.9735565,-33.95166,3.598663,-26.53511,5.659653,0.5936608,0.4172068,0.9195361,-0.1217346,0.1891785,0.97435,33.21361,5.253006,-23.47086,5.642548,0.5023677,0.3325916,0.1085382,1.214635,-0.2817131,0.01865441,-0.08465037,-0.04654595,0.2972509,3.764145,32.1816298811545
2,-0.1220856,0.1936035,0.9734497,0.8920751,-0.1290741,0.1318665,0.9828186,-33.90399,3.733749,-27.26424,5.275452,0.5904222,0.4260336,0.9317711,-0.1219177,0.1949768,0.9731903,33.22928,5.241425,-23.48943,5.675385,0.5018888,0.3321981,0.10842,1.214645,-0.2817569,0.01868912,-0.08465556,-0.0464474,0.2972509,3.764145,32.1816298811545
2,-0.1220856,0.1936035,0.9734497,0.8920751,-0.1290741,0.1318665,0.9828186,-33.90399,3.733749,-27.26424,5.275452,0.5904222,0.4260336,0.9317711,-0.1219177,0.1949768,0.9731903,33.22928,5.241425,-23.48943,5.675385,0.5018888,0.3321981,0.10842,1.214645,-0.2817569,0.01868912,-0.08465556,-0.0464474,0.2972509,3.764145,32.1816298811545
2,-0.1220856,0.1936035,0.9734497,0.8920751,-0.1290741,0.1318665,0.9828186,-33.90399,3.733749,-27.26424,5.275452,0.5904222,0.4260336,0.9317711,-0.1219177,0.1949768,0.9731903,33.22928,5.241425,-23.48943,5.675385,0.5018888,0.3321981,0.1083902,1.214577,-0.281759,0.01876392,-0.08473298,-0.04640888,0.2972509,3.764145,32.1816298811545
2,-0.1220856,0.1936035,0.9734497,0.8920751,-0.1290741,0.1318665,0.9828186,-33.90399,3.733749,-27.26424,5.275452,0.5904222,0.4260336,0.9317711,-0.1219177,0.1949768,0.9731903,33.22928,5.241425,-23.48943,5.675385,0.5018888,0.3321981,0.1083902,1.214577,-0.281759,0.01876392,-0.08473298,-0.04640888,0.2972509,3.764145,32.1816298811545
2,-0.1220856,0.1936035,0.9734497,0.8920751,-0.1290741,0.1318665,0.9828186,-33.90399,3.733749,-27.26424,5.275452,0.5904222,0.4260336,0.9317711,-0.1219177,0.1949768,0.9731903,33.22928,5.241425,-23.48943,5.675385,0.5018888,0.3321981,0.1083902,1.214577,-0.281759,0.01876392,-0.08473298,-0.04640888,0.2972509,3.764145,32.1816298811545
2,-0.122757,0.1947174,0.9731293,0.8927457,-0.1289215,0.1480713,0.9805298,-33.88025,3.693359,-27.16179,5.369797,0.5895734,0.4239294,0.9322138,-0.122757,0.1947937,0.9731293,33.25081,5.235123,-23.49568,5.650452,0.5013207,0.3324687,0.1082832,1.214507,-0.281762,0.01912145,-0.08488014,-0.04615372,0.2972509,3.764145,32.1816298811545
2,-0.09881592,0.2012329,0.9745331,0.9601029,-0.1138153,0.1532898,0.9815979,-33.83588,3.289246,-26.14087,5.48938,0.5847249,0.4279282,0.9925538,-0.09881592,0.2012329,0.9745331,33.25127,5.103958,-23.53171,5.69545,0.4973842,0.3359762,0.1083229,1.214503,-0.2817048,0.01959561,-0.08504745,-0.04602634,0.2972509,3.764145,32.1816298811545
2,-0.09881592,0.2012329,0.9745331,0.9601029,-0.1138153,0.1532898,0.9815979,-33.83588,3.289246,-26.14087,5.48938,0.5847249,0.4279282,0.9925538,-0.09881592,0.2012329,0.9745331,33.25127,5.103958,-23.53171,5.69545,0.4973842,0.3359762,0.1083229,1.214503,-0.2817048,0.01959561,-0.08504745,-0.04602634,0.2972509,3.764145,32.1816298811545
2,-0.09387207,0.1992188,0.9754333,0.9744669,-0.1148987,0.1628418,0.9799347,-33.83565,3.288681,-26.13713,5.571655,0.584806,0.4265433,0.9948508,-0.09387207,0.1992188,0.9754333,33.2596,5.093109,-23.50194,5.695877,0.4962896,0.3364307,0.1082534,1.214449,-0.2816713,0.01974447,-0.0851526,-0.04616937,0.2972509,5.673874,32.1816298811545
2,-0.09443665,0.1994476,0.9753418,0.9838144,-0.1141663,0.1646423,0.9797211,-33.83614,3.302277,-26.18918,5.593765,0.5847528,0.4262566,0.9969023,-0.09443665,0.1994476,0.9753418,33.26657,5.083191,-23.46382,5.697968,0.4961455,0.3364307,0.1081424,1.2144,-0.2816603,0.01992403,-0.0851848,-0.04614,0.2972509,-0.4813766,32.1816298811545
2,-0.09443665,0.1994476,0.9753418,0.9838144,-0.1141663,0.1646423,0.9797211,-33.83614,3.302277,-26.18918,5.593765,0.5847528,0.4262566,0.9969023,-0.09443665,0.1994476,0.9753418,33.26657,5.083191,-23.46382,5.697968,0.4961455,0.3364307,0.1081424,1.2144,-0.2816603,0.01992403,-0.0851848,-0.04614,0.2972509,-0.4813766,32.1816298811545
2,-0.09463501,0.1990356,0.9754028,1.0,-0.1133881,0.16716,0.9793854,-33.83588,3.289246,-26.14087,5.636002,0.5845816,0.4259183,1.0,-0.09463501,0.1990356,0.9754028,33.27406,5.066162,-23.40205,5.709442,0.4959165,0.3366176,0.1079983,1.214289,-0.281638,0.01981379,-0.0852923,-0.04599671,0.2972509,-0.4813766,32.1816298811545
2,-0.09463501,0.1990356,0.9754028,1.0,-0.1133881,0.16716,0.9793854,-33.83588,3.289246,-26.14087,5.636002,0.5845816,0.4259183,1.0,-0.09463501,0.1990356,0.9754028,33.27406,5.066162,-23.40205,5.709442,0.4959165,0.3366176,0.1079983,1.214289,-0.281638,0.01981379,-0.0852923,-0.04599671,0.2972509,-0.4813766,32.1816298811545
2,-0.1037903,0.1802216,0.9781189,1.0,-0.1117859,0.1672516,0.9795532,-33.83542,3.288116,-26.13338,5.647308,0.5842915,0.4258813,1.0,-0.09188843,0.1993866,0.9755859,33.28181,5.05336,-23.35481,5.714737,0.4952043,0.3366176,0.1079277,1.21431,-0.2816019,0.01977916,-0.08531851,-0.04592992,0.2972509,-0.4813766,32.1816298811545
2,-0.1037903,0.1802216,0.9781189,1.0,-0.1117859,0.1672516,0.9795532,-33.83542,3.288116,-26.13338,5.647308,0.5842915,0.4258813,1.0,-0.09188843,0.1993866,0.9755859,33.28181,5.05336,-23.35481,5.714737,0.4952043,0.3366176,0.1079277,1.21431,-0.2816019,0.01977916,-0.08531851,-0.04592992,0.2972509,-0.4813766,32.1816298811545
2,-0.09399414,0.1956787,0.9761505,1.0,-0.111969,0.1785126,0.9775391,-33.77307,3.182098,-25.85953,5.615601,0.5820361,0.4252688,1.0,-0.09150696,0.1980133,0.9759064,33.28642,5.047531,-23.34464,5.722549,0.4949844,0.3369649,0.1078669,1.214328,-0.2815912,0.01977765,-0.08525561,-0.04583444,0.2972509,-0.4813766,32.1816298811545
2,-0.09399414,0.1956787,0.9761505,1.0,-0.111969,0.1785126,0.9775391,-33.77307,3.182098,-25.85953,5.615601,0.5820361,0.4252688,1.0,-0.09150696,0.1980133,0.9759064,33.28642,5.047531,-23.34464,5.722549,0.4949844,0.3369649,0.1078669,1.214328,-0.2815912,0.01977765,-0.08525561,-0.04583444,0.2972509,-0.4813766,32.1816298811545
2,-0.09237671,0.1965485,0.97612,1.0,-0.1146545,0.1746826,0.9779205,-33.75542,3.179672,-25.88356,5.648819,0.5818955,0.42621,1.0,-0.09082031,0.1980591,0.9759674,33.29234,5.035614,-23.32959,5.736008,0.4946699,0.3372524,0.1077745,1.214334,-0.281597,0.01971313,-0.08519502,-0.04595473,0.2972509,-0.4813766,32.1816298811545
2,-0.09237671,0.1965485,0.97612,1.0,-0.1146545,0.1746826,0.9779205,-33.75542,3.179672,-25.88356,5.648819,0.5818955,0.42621,1.0,-0.09082031,0.1980591,0.9759674,33.29234,5.035614,-23.32959,5.736008,0.4946699,0.3372524,0.1077745,1.214334,-0.281597,0.01971313,-0.08519502,-0.04595473,0.2972509,-0.4813766,32.1816298811545
2,-0.0962677,0.1918793,0.9766693,1.0,-0.1130524,0.1796722,0.9772034,-33.74086,3.178848,-25.89532,5.671997,0.5811732,0.4255514,1.0,-0.08714294,0.1984711,0.9762115,33.29517,5.016083,-23.30255,5.737717,0.493972,0.3376126,0.1076958,1.214356,-0.2815516,0.01957811,-0.08508896,-0.04570763,0.2972509,-0.4813766,32.1816298811545
2,-0.0962677,0.1918793,0.9766693,1.0,-0.1130524,0.1796722,0.9772034,-33.74086,3.178848,-25.89532,5.671997,0.5811732,0.4255514,1.0,-0.08714294,0.1984711,0.9762115,33.29517,5.016083,-23.30255,5.737717,0.493972,0.3376126,0.1076958,1.214356,-0.2815516,0.01957811,-0.08508896,-0.04570763,0.2972509,-0.4813766,32.1816298811545
2,-0.0962677,0.1918793,0.9766693,1.0,-0.1130524,0.1796722,0.9772034,-33.74086,3.178848,-25.89532,5.671997,0.5811732,0.4255514,1.0,-0.08714294,0.1984711,0.9762115,33.29517,5.016083,-23.30255,5.737717,0.493972,0.3376126,0.1076958,1.214356,-0.2815516,0.01957811,-0.08508896,-0.04570763,0.2972509,-0.4813766,32.1816298811545
2,-0.09893799,0.1861725,0.9775085,1.0,-0.1109924,0.1777344,0.9777832,-33.68855,3.132477,-25.80815,5.561478,0.5790266,0.4265457,1.0,-0.08789063,0.1938477,0.9770813,33.29854,5.009918,-23.30255,5.72702,0.493972,0.3385475,0.1076297,1.214342,-0.2814974,0.01962221,-0.08506864,-0.04563977,0.2972509,-0.4813766,32.1816298811545
2,-0.09539795,0.1873016,0.9776459,1.0,-0.1111145,0.1743927,0.9783783,-33.67831,3.100876,-25.72397,5.536545,0.5786259,0.4273978,1.0,-0.08773804,0.193573,0.9771423,33.30106,5.003128,-23.29976,5.717209,0.4938645,0.3387898,0.107551,1.214304,-0.2814672,0.01963474,-0.08508065,-0.04562655,0.2972509,-0.4813766,32.1816298811545
2,-0.09539795,0.1873016,0.9776459,1.0,-0.1111145,0.1743927,0.9783783,-33.67831,3.100876,-25.72397,5.536545,0.5786259,0.4273978,1.0,-0.08773804,0.193573,0.9771423,33.30106,5.003128,-23.29976,5.717209,0.4938645,0.3387898,0.107551,1.214304,-0.2814672,0.01963474,-0.08508065,-0.04562655,0.2972509,-0.4813766,32.1816298811545
2,-0.09388733,0.1874847,0.9777527,1.0,-0.1102753,0.1751099,0.9783478,-33.66608,3.110748,-25.75249,5.506973,0.5781112,0.4271634,1.0,-0.08842468,0.1915741,0.977478,33.30106,5.000336,-23.30255,5.635086,0.493992,0.3391605,0.1074986,1.214247,-0.2814555,0.01968552,-0.08514857,-0.04558799,0.2972509,-11.20387,32.1816298811545
2,-0.09388733,0.1874847,0.9777527,1.0,-0.1102753,0.1751099,0.9783478,-33.66608,3.110748,-25.75249,5.506973,0.5781112,0.4271634,1.0,-0.08842468,0.1915741,0.977478,33.30106,5.000336,-23.30255,5.635086,0.493992,0.3391605,0.1074986,1.214247,-0.2814555,0.01968552,-0.08514857,-0.04558799,0.2972509,-11.20387,32.1816298811545
2,-0.09515381,0.1833344,0.9784241,1.0,-0.1083832,0.1695099,0.979538,-33.66046,3.110458,-25.75214,5.418304,0.5776064,0.427977,1.0,-0.08862305,0.1901398,0.9777374,33.30106,5.000336,-23.31207,5.614578,0.4940253,0.339448,0.1075164,1.21429,-0.2813573,0.02000427,-0.08523384,-0.0455319,0.2972509,-11.20387,32.1816298811545
2,-0.09515381,0.1833344,0.9784241,1.0,-0.1083832,0.1695099,0.979538,-33.66046,3.110458,-25.75214,5.418304,0.5776064,0.427977,1.0,-0.08862305,0.1901398,0.9777374,33.30106,5.000336,-23.31207,5.614578,0.4940253,0.339448,0.1075164,1.21429,-0.2813573,0.02000427,-0.08523384,-0.0455319,0.2972509,-11.20387,32.1816298811545
2,-0.09757996,0.1756134,0.979599,1.0,-0.1062469,0.1616974,0.9810944,-33.65123,3.102966,-25.72932,5.312119,0.5769206,0.4291742,1.0,-0.08924866,0.1888885,0.9779205,33.30029,5.000336,-23.3243,5.506302,0.4941779,0.339654,0.1074699,1.214193,-0.2812325,0.02017339,-0.08534566,-0.04553746,0.2972509,-11.20387,32.1816298811545
2,-0.09757996,0.1756134,0.979599,1.0,-0.1062469,0.1616974,0.9810944,-33.65123,3.102966,-25.72932,5.312119,0.5769206,0.4291742,1.0,-0.08924866,0.1888885,0.9779205,33.30029,5.000336,-23.3243,5.506302,0.4941779,0.339654,0.1074699,1.214193,-0.2812325,0.02017339,-0.08534566,-0.04553746,0.2972509,-11.20387,32.1816298811545
2,-0.1000519,0.1744385,0.9795685,1.0,-0.1074066,0.160553,0.9811554,-33.64317,3.096756,-25.71445,5.212219,0.5768363,0.4293517,1.0,-0.09220886,0.1891174,0.9776001,33.29544,5.004578,-23.36996,5.339828,0.4948672,0.3396981,0.107473,1.21425,-0.2811654,0.02048637,-0.08526881,-0.04573566,0.2972509,-11.20387,32.1816298811545
2,-0.1000519,0.1744385,0.9795685,1.0,-0.1074066,0.160553,0.9811554,-33.64317,3.096756,-25.71445,5.212219,0.5768363,0.4293517,1.0,-0.09220886,0.1891174,0.9776001,33.29544,5.004578,-23.36996,5.339828,0.4948672,0.3396981,0.107473,1.21425,-0.2811654,0.02048637,-0.08526881,-0.04573566,0.2972509,-11.20387,32.1816298811545
2,-0.1004028,0.1714783,0.9800568,1.0,-0.1074829,0.1587067,0.9814453,-33.63972,3.096756,-25.71445,5.156616,0.5767348,0.429584,1.0,-0.09138489,0.1876373,0.9779663,33.28783,5.01767,-23.41983,5.271164,0.495004,0.3398245,0.1074786,1.214159,-0.2810856,0.02078281,-0.08520035,-0.04560694,0.2972509,-11.20387,32.1816298811545
2,-0.1004028,0.1714783,0.9800568,1.0,-0.1074829,0.1587067,0.9814453,-33.63972,3.096756,-25.71445,5.156616,0.5767348,0.429584,1.0,-0.09138489,0.1876373,0.9779663,33.28783,5.01767,-23.41983,5.271164,0.495004,0.3398245,0.1074786,1.214159,-0.2810856,0.02078281,-0.08520035,-0.04560694,0.2972509,-11.20387,32.1816298811545
2,-0.1012573,0.1655884,0.9809723,1.0,-0.1050873,0.1570892,0.9819641,-33.63004,3.098053,-25.7155,5.093445,0.576025,0.4297384,1.0,-0.09265137,0.1845703,0.9784393,33.27196,5.04155,-23.49442,5.155731,0.4957698,0.3400047,0.1075069,1.21405,-0.2809614,0.02107508,-0.08508301,-0.04559959,0.2972509,-11.20387,32.1816298811545
2,-0.1012573,0.1655884,0.9809723,1.0,-0.1050873,0.1570892,0.9819641,-33.63004,3.098053,-25.7155,5.093445,0.576025,0.4297384,1.0,-0.09265137,0.1845703,0.9784393,33.27196,5.04155,-23.49442,5.155731,0.4957698,0.3400047,0.1075069,1.21405,-0.2809614,0.02107508,-0.08508301,-0.04559959,0.2972509,-11.20387,32.1816298811545
2,-0.0987854,0.1637573,0.9815369,1.0,-0.1020813,0.1562195,0.9824219,-33.62474,3.098053,-25.7155,4.954346,0.5753657,0.4297384,1.0,-0.09088135,0.181778,0.979126,33.25742,5.046539,-23.49911,5.021179,0.4959851,0.3402103,0.1075133,1.214004,-0.2808472,0.02153079,-0.08475409,-0.04570062,0.2972509,-11.20387,32.1816298811545
2,-0.0987854,0.1637573,0.9815369,1.0,-0.1020813,0.1562195,0.9824219,-33.62474,3.098053,-25.7155,4.954346,0.5753657,0.4297384,1.0,-0.09088135,0.181778,0.979126,33.25742,5.046539,-23.49911,5.021179,0.4959851,0.3402103,0.1075133,1.214004,-0.2808472,0.02153079,-0.08475409,-0.04570062,0.2972509,-11.20387,32.1816298811545
2,-0.09172058,0.1632385,0.9822998,1.0,-0.09887695,0.1546021,0.9830017,-33.6214,3.106247,-25.72919,4.853088,0.5747462,0.4297277,1.0,-0.08076477,0.1764221,0.9809875,33.17966,5.072937,-23.5498,4.69014,0.496962,0.3402999,0.1075927,1.213803,-0.2807729,0.02234887,-0.08441875,-0.04617503,0.2972509,5.492798,32.1816298811545
2,-0.09172058,0.1632385,0.9822998,1.0,-0.09887695,0.1546021,0.9830017,-33.6214,3.106247,-25.72919,4.853088,0.5747462,0.4297277,1.0,-0.08076477,0.1764221,0.9809875,33.17966,5.072937,-23.5498,4.69014,0.496962,0.3402999,0.1075927,1.213803,-0.2807729,0.02234887,-0.08441875,-0.04617503,0.2972509,5.492798,32.1816298811545
2,-0.1998444,0.1708527,0.9648132,1.0,-0.2108307,0.1366272,0.9679108,-34.10626,3.201965,-26.091,4.73024,0.6097458,0.4330121,1.0,-0.199646,0.1714478,0.9647369,32.63705,5.003342,-23.582,4.664169,0.5345365,0.3443489,0.1076623,1.213697,-0.2807585,0.02299333,-0.08366867,-0.04658418,0.2972509,5.492798,32.65
2,-0.1998444,0.1708527,0.9648132,1.0,-0.2108307,0.1366272,0.9679108,-34.10626,3.201965,-26.091,4.73024,0.6097458,0.4330121,1.0,-0.199646,0.1714478,0.9647369,32.63705,5.003342,-23.582,4.664169,0.5345365,0.3443489,0.1076623,1.213697,-0.2807585,0.02299333,-0.08366867,-0.04658418,0.2972509,5.492798,32.65
2,-0.1998444,0.1708527,0.9648132,1.0,-0.2108307,0.1366272,0.9679108,-34.10626,3.201965,-26.091,4.73024,0.6097458,0.4330121,1.0,-0.199646,0.1714478,0.9647369,32.63705,5.003342,-23.582,4.664169,0.5345365,0.3443489,0.1076623,1.213697,-0.2807585,0.02299333,-0.08366867,-0.04658418,0.2972509,5.492798,32.65
2,-0.1998444,0.1708527,0.9648132,1.0,-0.2108307,0.1366272,0.9679108,-34.10626,3.201965,-26.091,4.73024,0.6097458,0.4330121,1.0,-0.199646,0.1714478,0.9647369,32.63705,5.003342,-23.582,4.664169,0.5345365,0.3443489,0.1076623,1.213697,-0.2807585,0.02299333,-0.08366867,-0.04658418,0.2972509,5.492798,32.65
2,-0.1998444,0.1708527,0.9648132,1.0,-0.2108307,0.1366272,0.9679108,-34.10626,3.201965,-26.091,4.73024,0.6097458,0.4330121,1.0,-0.199646,0.1714478,0.9647369,32.63705,5.003342,-23.582,4.664169,0.5345365,0.3443489,0.1076623,1.213697,-0.2807585,0.02299333,-0.08366867,-0.04658418,0.2972509,5.492798,32.65
2,-0.1998444,0.1708527,0.9648132,1.0,-0.2108307,0.1366272,0.9679108,-34.10626,3.201965,-26.091,4.73024,0.6097458,0.4330121,1.0,-0.199646,0.1714478,0.9647369,32.63705,5.003342,-23.582,4.664169,0.5345365,0.3443489,0.1076623,1.213697,-0.2807585,0.02299333,-0.08366867,-0.04658418,0.2972509,5.492798,32.65
2,-0.1998444,0.1708527,0.9648132,1.0,-0.2108307,0.1366272,0.9679108,-34.10626,3.201965,-26.091,4.73024,0.6097458,0.4330121,1.0,-0.199646,0.1714478,0.9647369,32.63705,5.003342,-23.582,4.664169,0.5345365,0.3443489,0.1076623,1.213697,-0.2807585,0.02299333,-0.08366867,-0.04658418,0.2972509,5.492798,32.65
2,-0.1998444,0.1708527,0.9648132,1.0,-0.2108307,0.1366272,0.9679108,-34.10626,3.201965,-26.091,4.73024,0.6097458,0.4330121,1.0,-0.199646,0.1714478,0.9647369,32.63705,5.003342,-23.582,4.664169,0.5345365,0.3443489,0.1076623,1.213697,-0.2807585,0.02299333,-0.08366867,-0.04658418,0.2972509,5.492798,32.65
2,-0.1998444,0.1708527,0.9648132,1.0,-0.2108307,0.1366272,0.9679108,-34.10626,3.201965,-26.091,4.73024,0.6097458,0.4330121,1.0,-0.199646,0.1714478,0.9647369,32.63705,5.003342,-23.582,4.664169,0.5345365,0.3443489,0.1076623,1.213697,-0.2807585,0.02299333,-0.08366867,-0.04658418,0.2972509,5.492798,32.65
2,-0.2729797,0.1557159,0.9493256,1.0,-0.266449,0.1383057,0.9538574,-34.43944,3.234863,-26.16162,4.517792,0.6304188,0.432505,1.0,-0.2793579,0.1729126,0.9444733,32.24614,5.041962,-23.7077,4.538895,0.5609837,0.3443835,0.1100588,1.214224,-0.280296,0.0193338,-0.07085475,-0.04456369,0.2972509,5.492798,32.65
2,-0.2729797,0.1557159,0.9493256,1.0,-0.266449,0.1383057,0.9538574,-34.43944,3.234863,-26.16162,4.517792,0.6304188,0.432505,1.0,-0.2793579,0.1729126,0.9444733,32.24614,5.041962,-23.7077,4.538895,0.5609837,0.3443835,0.1100588,1.214224,-0.280296,0.0193338,-0.07085475,-0.04456369,0.2972509,5.492798,32.65
2,-0.2722473,0.1577301,0.9492035,1.0,-0.2654266,0.1417999,0.9536285,-34.43153,3.227768,-26.1667,4.462051,0.6300254,0.432164,1.0,-0.2788086,0.1732178,0.9445801,32.2491,5.041672,-23.70821,4.534393,0.5607964,0.3443402,0.1112114,1.215235,-0.280284,0.01419222,-0.06494451,-0.04344966,0.2972509,3.846085,32.65
2,-0.2722473,0.1577301,0.9492035,1.0,-0.2654266,0.1417999,0.9536285,-34.43153,3.227768,-26.1667,4.462051,0.6300254,0.432164,1.0,-0.2788086,0.1732178,0.9445801,32.2491,5.041672,-23.70821,4.534393,0.5607964,0.3443402,0.1112114,1.215235,-0.280284,0.01419222,-0.06494451,-0.04344966,0.2972509,3.846085,32.65
2,-0.2722473,0.1577301,0.9492035,1.0,-0.2654266,0.1417999,0.9536285,-34.43153,3.227768,-26.1667,4.462051,0.6300254,0.432164,1.0,-0.2788086,0.1732178,0.9445801,32.2491,5.041672,-23.70821,4.534393,0.5607964,0.3443402,0.1112114,1.215235,-0.280284,0.01419222,-0.06494451,-0.04344966,0.2972509,4.791748,32.65
2,-0.2722473,0.1577301,0.9492035,1.0,-0.2654266,0.1417999,0.9536285,-34.43153,3.227768,-26.1667,4.462051,0.6300254,0.432164,1.0,-0.2788086,0.1732178,0.9445801,32.2491,5.041672,-23.70821,4.534393,0.5607964,0.3443402,0.1127738,1.216774,-0.2804378,0.006439715,-0.05651829,-0.04285259,0.2972509,4.791748,32.65
2,-0.2722473,0.1577301,0.9492035,1.0,-0.2654266,0.1417999,0.9536285,-34.43153,3.227768,-26.1667,4.462051,0.6300254,0.432164,1.0,-0.2788086,0.1732178,0.9445801,32.2491,5.041672,-23.70821,4.534393,0.5607964,0.3443402,0.1127738,1.216774,-0.2804378,0.006439715,-0.05651829,-0.04285259,0.2972509,4.791748,32.65
2,-0.2722473,0.1577301,0.9492035,1.0,-0.2654266,0.1417999,0.9536285,-34.43153,3.227768,-26.1667,4.462051,0.6300254,0.432164,1.0,-0.2788086,0.1732178,0.9445801,32.2491,5.041672,-23.70821,4.534393,0.5607964,0.3443402,0.1140388,1.217756,-0.2806323,0.001413066,-0.04927258,-0.04301624,0.2972509,4.791748,32.65
2,-0.2722473,0.1577301,0.9492035,1.0,-0.2654266,0.1417999,0.9536285,-34.43153,3.227768,-26.1667,4.462051,0.6300254,0.432164,1.0,-0.2788086,0.1732178,0.9445801,32.2491,5.041672,-23.70821,4.534393,0.5607964,0.3443402,0.1140388,1.217756,-0.2806323,0.001413066,-0.04927258,-0.04301624,0.2972509,4.791748,32.65
2,-0.4167023,0.1585999,0.8950958,1.0,-0.4164429,0.1422577,0.8979492,-35.05859,3.207916,-26.43466,4.548126,0.6778176,0.4368199,1.0,-0.4168396,0.1768188,0.8916016,31.44995,5.048798,-23.99718,4.578339,0.6113251,0.3474469,0.1158947,1.218936,-0.280879,-0.004675468,-0.03925562,-0.04337345,0.2972509,4.791748,32.65
2,-0.4167023,0.1585999,0.8950958,1.0,-0.4164429,0.1422577,0.8979492,-35.05859,3.207916,-26.43466,4.548126,0.6778176,0.4368199,1.0,-0.4168396,0.1768188,0.8916016,31.44995,5.048798,-23.99718,4.578339,0.6113251,0.3474469,0.1158947,1.218936,-0.280879,-0.004675468,-0.03925562,-0.04337345,0.2972509,4.791748,32.65
2,-0.4710999,0.1404572,0.8708191,1.0,-0.4710999,0.1254883,0.8730927,-35.25566,3.225647,-26.54063,4.57077,0.6945105,0.4407495,1.0,-0.4707489,0.1712952,0.8654633,31.16824,5.07019,-24.14818,4.521912,0.6305101,0.3495288,0.1170385,1.219563,-0.2810555,-0.007631104,-0.03289834,-0.04330624,0.2972509,4.791748,32.65
2,-0.4710999,0.1404572,0.8708191,1.0,-0.4710999,0.1254883,0.8730927,-35.25566,3.225647,-26.54063,4.57077,0.6945105,0.4407495,1.0,-0.4707489,0.1712952,0.8654633,31.16824,5.07019,-24.14818,4.521912,0.6305101,0.3495288,0.1170385,1.219563,-0.2810555,-0.007631104,-0.03289834,-0.04330624,0.2972509,4.791748,32.65
2,-0.4710999,0.1404572,0.8708191,1.0,-0.4710999,0.1254883,0.8730927,-35.25566,3.225647,-26.54063,4.57077,0.6945105,0.4407495,1.0,-0.4707489,0.1712952,0.8654633,31.16824,5.07019,-24.14818,4.521912,0.6305101,0.3495288,0.1197006,1.220663,-0.2815465,-0.01298084,-0.01787903,-0.04279744,0.2972509,4.791748,32.65
2,-0.4710999,0.1404572,0.8708191,1.0,-0.4710999,0.1254883,0.8730927,-35.25566,3.225647,-26.54063,4.57077,0.6945105,0.4407495,1.0,-0.4707489,0.1712952,0.8654633,31.16824,5.07019,-24.14818,4.521912,0.6305101,0.3495288,0.1212513,1.221207,-0.2818009,-0.01582589,-0.009360493,-0.04246152,0.2972509,4.791748,32.65
2,-0.4710999,0.1404572,0.8708191,1.0,-0.4710999,0.1254883,0.8730927,-35.25566,3.225647,-26.54063,4.57077,0.6945105,0.4407495,1.0,-0.4707489,0.1712952,0.8654633,31.16824,5.07019,-24.14818,4.521912,0.6305101,0.3495288,0.1244693,1.222658,-0.2824862,-0.02274639,0.008226851,-0.0416934,0.2972509,4.791748,32.65
2,-0.4710999,0.1404572,0.8708191,1.0,-0.4710999,0.1254883,0.8730927,-35.25566,3.225647,-26.54063,4.57077,0.6945105,0.4407495,1.0,-0.4707489,0.1712952,0.8654633,31.16824,5.07019,-24.14818,4.521912,0.6305101,0.3495288,0.1244693,1.222658,-0.2824862,-0.02274639,0.008226851,-0.0416934,0.2972509,4.791748,32.65
2,-0.3955536,0.1057892,0.912323,1.0,-0.3968506,0.09365845,0.9130859,-35.14627,3.017029,-26.40259,4.450043,0.6769534,0.4505695,1.0,-0.39328,0.1256866,0.9107819,31.41817,4.889114,-23.92441,4.345718,0.6079396,0.3600918,0.1262022,1.223351,-0.2829165,-0.0261487,0.01739577,-0.04136004,0.2972509,4.791748,32.65
2,-0.3516846,0.08724976,0.9320374,1.0,-0.3467255,0.07830811,0.9346771,-34.94293,2.885895,-26.29814,4.354889,0.6610255,0.4558581,1.0,-0.3620911,0.1061859,0.9260559,31.62183,4.779068,-23.83078,4.486786,0.5954082,0.3659134,0.1279409,1.223879,-0.2835143,-0.02895744,0.02691007,-0.04141891,0.2972509,8.15802,32.65
2,-0.3516846,0.08724976,0.9320374,1.0,-0.3467255,0.07830811,0.9346771,-34.94293,2.885895,-26.29814,4.354889,0.6610255,0.4558581,1.0,-0.3620911,0.1061859,0.9260559,31.62183,4.779068,-23.83078,4.486786,0.5954082,0.3659134,0.1279409,1.223879,-0.2835143,-0.02895744,0.02691007,-0.04141891,0.2972509,8.15802,32.65
2,-0.3276825,0.07044983,0.9421387,1.0,-0.3282318,0.05731201,0.9428406,-34.75327,2.799484,-26.2307,4.201706,0.6513069,0.4612923,1.0,-0.3262634,0.09971619,0.9400024,31.79816,4.669952,-23.76581,4.405655,0.5833759,0.369572,0.1313826,1.224697,-0.2849344,-0.03343657,0.0452764,-0.04161255,0.2972509,8.15802,32.65
2,-0.288269,0.05740356,0.9558105,1.0,-0.2873077,0.04370117,0.9568329,-34.53642,2.760864,-26.14999,4.186356,0.6368627,0.4636352,1.0,-0.2893829,0.07420349,0.9543304,31.99805,4.579788,-23.6839,4.260132,0.5704009,0.3755614,0.1330088,1.225052,-0.2858006,-0.03565331,0.05386525,-0.04173698,0.2972509,8.15802,32.65
2,-0.288269,0.05740356,0.9558105,1.0,-0.2873077,0.04370117,0.9568329,-34.53642,2.760864,-26.14999,4.186356,0.6368627,0.4636352,1.0,-0.2893829,0.07420349,0.9543304,31.99805,4.579788,-23.6839,4.260132,0.5704009,0.3755614,0.1330088,1.225052,-0.2858006,-0.03565331,0.05386525,-0.04173698,0.2972509,8.15802,32.65
2,-0.2556915,0.05439758,0.96521,1.0,-0.2510376,0.03974915,0.9671478,-34.33821,2.711533,-26.09538,4.091476,0.6240495,0.4649955,1.0,-0.2597961,0.06742859,0.9633026,32.19629,4.518723,-23.64687,4.283386,0.5587986,0.3780748,0.1361169,1.225697,-0.2875745,-0.03965688,0.0699645,-0.0419112,0.2972509,8.15802,32.65
2,-0.2223663,0.04586792,0.973877,1.0,-0.215744,0.02835083,0.9760284,-34.12189,2.703003,-26.07391,4.164032,0.6108268,0.4666839,1.0,-0.228241,0.06156921,0.9716492,32.38005,4.459091,-23.61499,4.29187,0.5474052,0.3804379,0.1375042,1.225902,-0.2884607,-0.04099582,0.07725797,-0.04222839,0.2972509,8.15802,32.65
2,-0.2223663,0.04586792,0.973877,1.0,-0.215744,0.02835083,0.9760284,-34.12189,2.703003,-26.07391,4.164032,0.6108268,0.4666839,1.0,-0.228241,0.06156921,0.9716492,32.38005,4.459091,-23.61499,4.29187,0.5474052,0.3804379,0.1375042,1.225902,-0.2884607,-0.04099582,0.07725797,-0.04222839,0.2972509,8.15802,32.65
2,-0.2064056,0.03749084,0.9777374,1.0,-0.200058,0.01783752,0.9796143,-34.03487,2.701431,-26.12248,4.17244,0.6053312,0.4687685,1.0,-0.2120361,0.05516052,0.9756927,32.48029,4.427826,-23.61952,4.230682,0.5414047,0.3823521,0.1399904,1.225801,-0.2904607,-0.0421726,0.09015246,-0.0434253,0.2972509,8.15802,32.65
2,-0.1694031,0.04229736,0.9846344,1.0,-0.1536407,0.003845215,0.9881134,-33.80302,2.976074,-27.25087,4.025085,0.5909554,0.4714127,1.0,-0.1694183,0.04232788,0.9846191,32.70024,4.579895,-24.40405,4.231445,0.5273669,0.385381,0.1412014,1.225703,-0.2914114,-0.04234397,0.09610718,-0.04415994,0.2972509,8.15802,32.65
2,-0.150116,0.04139709,0.987793,1.0,-0.1382751,0.002563477,0.990387,-33.71562,2.969894,-27.2245,4.075455,0.5854229,0.4715407,1.0,-0.150116,0.04139709,0.987793,32.76027,4.534012,-24.21686,4.263794,0.5220869,0.3854087,0.1423194,1.225602,-0.2922465,-0.04253568,0.1016073,-0.0453453,0.2972509,8.15802,32.65
2,-0.150116,0.04139709,0.987793,1.0,-0.1382751,0.002563477,0.990387,-33.71562,2.969894,-27.2245,4.075455,0.5854229,0.4715407,1.0,-0.150116,0.04139709,0.987793,32.76027,4.534012,-24.21686,4.263794,0.5220869,0.3854087,0.1423194,1.225602,-0.2922465,-0.04253568,0.1016073,-0.0453453,0.2972509,8.15802,32.65
2,-0.1378632,0.03874207,0.9896851,1.0,-0.1169434,0.0003509521,0.9931335,-33.59741,3.057663,-27.45377,4.152451,0.5780858,0.4709326,1.0,-0.1378632,0.03874207,0.9896851,32.91403,4.495422,-23.77716,4.245758,0.5148373,0.383483,0.1445545,1.225757,-0.2938783,-0.04465339,0.111865,-0.04767842,0.2972509,8.15802,32.65
2,-0.1163788,0.03865051,0.9924469,1.0,-0.09805298,-0.008880615,0.9951324,-33.49551,3.266693,-27.99524,4.117142,0.5719466,0.4701671,1.0,-0.1163788,0.03866577,0.9924469,33.02881,4.451447,-23.40443,4.309891,0.5074047,0.3819002,0.145662,1.225883,-0.2945772,-0.04621792,0.1167891,-0.04886458,0.2972509,8.15802,32.65
3,-0.08073425,0.007537842,0.9967041,1.0,-0.06707764,-0.01509094,0.9976196,-33.43294,3.233994,-27.74731,4.160324,0.5644833,0.4700413,1.0,-0.09858704,0.0372467,0.9944153,33.13193,4.445557,-23.31007,4.324799,0.5010723,0.3814836,0.1467142,1.22613,-0.2952967,-0.04787055,0.1213263,-0.05011726,0.2972509,8.15802,32.65
3,-0.08073425,0.007537842,0.9967041,1.0,-0.06707764,-0.01509094,0.9976196,-33.43294,3.233994,-27.74731,4.160324,0.5644833,0.4700413,1.0,-0.09858704,0.0372467,0.9944153,33.13193,4.445557,-23.31007,4.324799,0.5010723,0.3814836,0.1467142,1.22613,-0.2952967,-0.04787055,0.1213263,-0.05011726,0.2972509,8.15802,32.65
3,-0.05528259,-0.01847839,0.998291,1.0,-0.05522156,-0.01863098,0.998291,-33.2859,3.219269,-27.59549,4.069702,0.5574905,0.4696763,1.0,-0.07913208,0.03340149,0.9962921,33.21806,4.423767,-23.20653,4.277634,0.4950464,0.3818842,0.1488429,1.226767,-0.2965989,-0.05203618,0.1304052,-0.05233144,0.2972509,8.15802,32.65
3,-0.06987,0.009811401,0.9974976,1.0,-0.07037354,-0.008499146,0.9974823,-33.17593,2.796326,-26.13882,4.206024,0.5553831,0.4694063,1.0,-0.0693512,0.02781677,0.9971924,33.23923,4.487885,-23.36226,4.227646,0.4927817,0.3818676,0.1498165,1.227104,-0.2972634,-0.05475939,0.1344911,-0.05341103,0.2972509,4.148026,32.65
3,-0.06987,0.009811401,0.9974976,1.0,-0.07037354,-0.008499146,0.9974823,-33.17593,2.796326,-26.13882,4.206024,0.5553831,0.4694063,1.0,-0.0693512,0.02781677,0.9971924,33.23923,4.487885,-23.36226,4.227646,0.4927817,0.3818676,0.1498165,1.227104,-0.2972634,-0.05475939,0.1344911,-0.05341103,0.2972509,4.148026,32.65
3,-0.1113739,0.1018066,0.9885406,1.0,-0.08724976,0.05105591,0.994873,-33.39223,3.982071,-28.37741,4.146332,0.5670975,0.4394978,1.0,-0.1114044,0.1018524,0.9885406,32.95058,5.101868,-23.75296,4.520401,0.5094702,0.3531271,0.151649,1.228138,-0.2984674,-0.06130738,0.1420709,-0.05522235,0.2972509,4.148026,32.65
3,-0.1091156,0.1450806,0.9833679,1.0,-0.125824,0.1243134,0.9842224,-33.28114,3.299606,-25.47697,4.377243,0.5678152,0.4258754,1.0,-0.1091156,0.1450806,0.9833679,32.92102,5.43338,-24.17523,4.494385,0.510358,0.3382746,0.1525477,1.228648,-0.2990612,-0.06528115,0.1455864,-0.05593446,0.2972509,4.148026,32.65
3,-0.09390259,0.22052,0.9708405,1.0,-0.108017,0.1949921,0.974823,-33.15691,3.663834,-26.03018,4.50885,0.5613558,0.4069967,1.0,-0.09390259,0.22052,0.9708405,32.92165,5.45784,-23.69615,4.57753,0.5078957,0.3214524,0.153354,1.229206,-0.2995962,-0.06916692,0.1488541,-0.05649429,0.2972509,4.148026,32.65
3,-0.09390259,0.22052,0.9708405,1.0,-0.108017,0.1949921,0.974823,-33.15691,3.663834,-26.03018,4.50885,0.5613558,0.4069967,1.0,-0.09390259,0.22052,0.9708405,32.92165,5.45784,-23.69615,4.57753,0.5078957,0.3214524,0.153354,1.229206,-0.2995962,-0.06916692,0.1488541,-0.05649429,0.2972509,4.148026,32.65
3,-0.08180237,0.2081757,0.9746552,1.0,-0.09924316,0.1868744,0.977356,-33.11424,3.541687,-25.7511,4.572693,0.5582671,0.4100766,1.0,-0.08180237,0.2081757,0.9746552,33.08762,5.410736,-23.6924,4.568604,0.5003599,0.3249239,0.1548781,1.230608,-0.3007934,-0.07771145,0.1546491,-0.05720073,0.2972509,4.148026,32.65
3,-0.08180237,0.2081757,0.9746552,1.0,-0.09924316,0.1868744,0.977356,-33.11424,3.541687,-25.7511,4.572693,0.5582671,0.4100766,1.0,-0.08180237,0.2081757,0.9746552,33.08762,5.410736,-23.6924,4.568604,0.5003599,0.3249239,0.1548781,1.230608,-0.3007934,-0.07771145,0.1546491,-0.05720073,0.2972509,4.148026,32.65
3,-0.07608032,0.2067108,0.9754333,1.0,-0.09254456,0.1735229,0.9804688,-33.08289,3.45517,-25.65076,4.429672,0.5560247,0.4140834,1.0,-0.07608032,0.2067108,0.9754333,33.13223,5.334183,-23.60605,4.627472,0.4978945,0.3270668,0.1560384,1.232228,-0.3020203,-0.08749147,0.1591157,-0.05724694,0.2972509,4.148026,32.65
3,-0.07608032,0.2067108,0.9754333,1.0,-0.09254456,0.1735229,0.9804688,-33.08289,3.45517,-25.65076,4.429672,0.5560247,0.4140834,1.0,-0.07608032,0.2067108,0.9754333,33.13223,5.334183,-23.60605,4.627472,0.4978945,0.3270668,0.1560384,1.232228,-0.3020203,-0.08749147,0.1591157,-0.05724694,0.2972509,4.148026,32.65
3,-0.07608032,0.2067108,0.9754333,1.0,-0.09254456,0.1735229,0.9804688,-33.08289,3.45517,-25.65076,4.429672,0.5560247,0.4140834,1.0,-0.07608032,0.2067108,0.9754333,33.13223,5.334183,-23.60605,4.627472,0.4978945,0.3270668,0.1569332,1.233794,-0.3033251,-0.09712978,0.1618496,-0.05745299,0.2972509,4.148026,32.65
3,-0.07608032,0.2067108,0.9754333,1.0,-0.09254456,0.1735229,0.9804688,-33.08289,3.45517,-25.65076,4.429672,0.5560247,0.4140834,1.0,-0.07608032,0.2067108,0.9754333,33.13223,5.334183,-23.60605,4.627472,0.4978945,0.3270668,0.1575378,1.235407,-0.3047841,-0.106572,0.1630544,-0.05779704,0.2972509,4.148026,32.65
3,-0.07608032,0.2067108,0.9754333,1.0,-0.09254456,0.1735229,0.9804688,-33.08289,3.45517,-25.65076,4.429672,0.5560247,0.4140834,1.0,-0.07608032,0.2067108,0.9754333,33.13223,5.334183,-23.60605,4.627472,0.4978945,0.3270668,0.1575378,1.235407,-0.3047841,-0.106572,0.1630544,-0.05779704,0.2972509,4.148026,32.65
3,-0.06530762,0.1868286,0.9802094,1.0,-0.07969666,0.1479034,0.9857788,-33.00421,3.326813,-25.45102,4.496994,0.5511166,0.4208039,1.0,-0.06530762,0.1868286,0.9802094,33.22771,5.210922,-23.42799,4.614532,0.4928797,0.3330038,0.1578075,1.237015,-0.3064182,-0.1157398,0.1630329,-0.05794741,0.2972509,4.148026,32.65
3,-0.06530762,0.1868286,0.9802094,1.0,-0.07969666,0.1479034,0.9857788,-33.00421,3.326813,-25.45102,4.496994,0.5511166,0.4208039,1.0,-0.06530762,0.1868286,0.9802094,33.22771,5.210922,-23.42799,4.614532,0.4928797,0.3330038,0.1578075,1.237015,-0.3064182,-0.1157398,0.1630329,-0.05794741,0.2972509,4.148026,32.65
3,-0.03852844,0.1213684,0.9918518,1.0,-0.04278564,0.0839386,0.9955444,-32.82169,2.849319,-25.17471,4.449097,0.5387849,0.4442765,1.0,-0.03823853,0.1238556,0.9915619,33.52484,4.666611,-23.13788,4.640335,0.4784347,0.3587923,0.1579843,1.238603,-0.307988,-0.1244438,0.1619184,-0.05801911,0.2972509,17.84369,32.65
3,-0.03852844,0.1213684,0.9918518,1.0,-0.04278564,0.0839386,0.9955444,-32.82169,2.849319,-25.17471,4.449097,0.5387849,0.4442765,1.0,-0.03823853,0.1238556,0.9915619,33.52484,4.666611,-23.13788,4.640335,0.4784347,0.3587923,0.1579843,1.238603,-0.307988,-0.1244438,0.1619184,-0.05801911,0.2972509,17.84369,32.65
3,-0.03283691,0.08880615,0.9954987,1.0,-0.02839661,0.05517578,0.9980621,-32.84959,2.910324,-25.72801,4.44191,0.5375958,0.4516235,1.0,-0.03395081,0.09724426,0.9946747,33.53413,4.53331,-23.15948,4.666122,0.4773611,0.3676343,0.1578951,1.239986,-0.309782,-0.1328737,0.1598587,-0.05764912,0.2972509,17.84369,32.65
3,-0.03283691,0.08880615,0.9954987,1.0,-0.02839661,0.05517578,0.9980621,-32.84959,2.910324,-25.72801,4.44191,0.5375958,0.4516235,1.0,-0.03395081,0.09724426,0.9946747,33.53413,4.53331,-23.15948,4.666122,0.4773611,0.3676343,0.1578951,1.239986,-0.309782,-0.1328737,0.1598587,-0.05764912,0.2972509,17.84369,32.65
3,-0.02325439,0.1342468,0.9906616,1.0,-0.02322388,0.08226013,0.9963379,-32.73923,3.162689,-25.93791,4.553345,0.5332622,0.4407805,1.0,-0.02325439,0.1343384,0.9906616,33.58543,4.801941,-23.35056,4.816879,0.4740079,0.3543909,0.1576988,1.241341,-0.3115301,-0.1404897,0.1570257,-0.05729222,0.2972509,17.84369,32.65
3,-0.02325439,0.1342468,0.9906616,1.0,-0.02322388,0.08226013,0.9963379,-32.73923,3.162689,-25.93791,4.553345,0.5332622,0.4407805,1.0,-0.02325439,0.1343384,0.9906616,33.58543,4.801941,-23.35056,4.816879,0.4740079,0.3543909,0.1576988,1.241341,-0.3115301,-0.1404897,0.1570257,-0.05729222,0.2972509,17.84369,32.65
3,0.01951599,0.2131805,0.9768066,1.0,-0.01608276,0.1865845,0.9822998,-32.50195,3.309494,-25.4722,4.567001,0.5242184,0.4151547,1.0,0.01971436,0.2133179,0.9767761,33.54169,5.235031,-23.50497,4.796738,0.4685231,0.328382,0.1575066,1.24255,-0.3132752,-0.1475022,0.1539288,-0.05725072,0.2972509,17.84369,32.65
3,0.01951599,0.2131805,0.9768066,1.0,-0.01608276,0.1865845,0.9822998,-32.50195,3.309494,-25.4722,4.567001,0.5242184,0.4151547,1.0,0.01971436,0.2133179,0.9767761,33.54169,5.235031,-23.50497,4.796738,0.4685231,0.328382,0.1575066,1.24255,-0.3132752,-0.1475022,0.1539288,-0.05725072,0.2972509,17.84369,32.65
3,0.03675842,0.3335876,0.9419861,1.0,0.02297974,0.2980804,0.9542542,-32.35623,3.957199,-26.16264,4.649033,0.5133674,0.3814634,1.0,0.0390625,0.3394928,0.9397888,33.62645,5.828049,-23.62152,4.814636,0.4625446,0.2886687,0.1573414,1.243751,-0.3152144,-0.1546156,0.1508457,-0.05800974,0.2972509,17.84369,32.65
3,0.03675842,0.3335876,0.9419861,1.0,0.02297974,0.2980804,0.9542542,-32.35623,3.957199,-26.16264,4.649033,0.5133674,0.3814634,1.0,0.0390625,0.3394928,0.9397888,33.62645,5.828049,-23.62152,4.814636,0.4625446,0.2886687,0.1573414,1.243751,-0.3152144,-0.1546156,0.1508457,-0.05800974,0.2972509,17.84369,32.65
3,0.05484009,0.3935089,0.9176788,1.0,0.03639221,0.3455048,0.9376984,-32.32843,4.110062,-26.25526,4.707672,0.5102808,0.3694643,1.0,0.05503845,0.3940277,0.9174347,33.66399,6.015289,-23.72379,4.961349,0.458537,0.2740182,0.1572775,1.244742,-0.3170891,-0.1605853,0.1481286,-0.05949222,0.2972509,17.84369,32.65
3,0.05484009,0.3935089,0.9176788,1.0,0.03639221,0.3455048,0.9376984,-32.32843,4.110062,-26.25526,4.707672,0.5102808,0.3694643,1.0,0.05503845,0.3940277,0.9174347,33.66399,6.015289,-23.72379,4.961349,0.458537,0.2740182,0.1572775,1.244742,-0.3170891,-0.1605853,0.1481286,-0.05949222,0.2972509,17.84369,32.65
3,0.0410614,0.3520508,0.9350739,1.0,0.03659058,0.319519,0.9468689,-32.50348,3.847122,-26.20369,4.591705,0.5159533,0.381899,1.0,0.0410614,0.3520508,0.9350739,33.6805,5.782379,-23.64197,4.771408,0.4603917,0.288168,0.157249,1.245465,-0.3188409,-0.1649322,0.1455549,-0.06176613,0.2972509,-35.76591,32.65
3,0.0410614,0.3520508,0.9350739,1.0,0.03659058,0.319519,0.9468689,-32.50348,3.847122,-26.20369,4.591705,0.5159533,0.381899,1.0,0.0410614,0.3520508,0.9350739,33.6805,5.782379,-23.64197,4.771408,0.4603917,0.288168,0.157249,1.245465,-0.3188409,-0.1649322,0.1455549,-0.06176613,0.2972509,-35.76591,32.65
3,0.03678894,0.3253937,0.9448547,1.0,0.02604675,0.2925415,0.9558868,-32.55815,3.686691,-26.15472,4.629089,0.5194776,0.3912497,1.0,0.04394531,0.3471222,0.9367828,33.67751,5.704132,-23.64507,4.83374,0.4600064,0.2917332,0.1570507,1.246029,-0.3205745,-0.1686068,0.1427661,-0.06362814,0.2972509,-35.76591,32.65
3,0.03678894,0.3253937,0.9448547,1.0,0.02604675,0.2925415,0.9558868,-32.55815,3.686691,-26.15472,4.629089,0.5194776,0.3912497,1.0,0.04394531,0.3471222,0.9367828,33.67751,5.704132,-23.64507,4.83374,0.4600064,0.2917332,0.1570507,1.246029,-0.3205745,-0.1686068,0.1427661,-0.06362814,0.2972509,-35.76591,32.65
3,0.03184509,0.3019562,0.952774,1.0,0.02333069,0.2799377,0.9597168,-32.58159,3.619461,-26.12358,4.521988,0.5206635,0.3951365,1.0,0.03907776,0.3205566,0.9464111,33.70114,5.48613,-23.59233,4.806808,0.4600451,0.3030305,0.156854,1.246621,-0.3220093,-0.1721489,0.1398884,-0.06485301,0.2972509,-35.76591,32.65
3,0.03184509,0.3019562,0.952774,1.0,0.02333069,0.2799377,0.9597168,-32.58159,3.619461,-26.12358,4.521988,0.5206635,0.3951365,1.0,0.03907776,0.3205566,0.9464111,33.70114,5.48613,-23.59233,4.806808,0.4600451,0.3030305,0.156854,1.246621,-0.3220093,-0.1721489,0.1398884,-0.06485301,0.2972509,-35.76591,32.65
3,0.03125,0.2968292,0.9544067,1.0,0.02320862,0.2729492,0.9617462,-32.62733,3.587494,-26.08298,4.479263,0.5221651,0.3969514,1.0,0.03770447,0.315918,0.9480286,33.6987,5.469391,-23.59166,4.775742,0.4603592,0.3043313,0.1565932,1.247248,-0.3233854,-0.1761989,0.1369884,-0.06573359,0.2972509,-35.76591,32.65
3,0.03125,0.2968292,0.9544067,1.0,0.02320862,0.2729492,0.9617462,-32.62733,3.587494,-26.08298,4.479263,0.5221651,0.3969514,1.0,0.03770447,0.315918,0.9480286,33.6987,5.469391,-23.59166,4.775742,0.4603592,0.3043313,0.1565932,1.247248,-0.3233854,-0.1761989,0.1369884,-0.06573359,0.2972509,-35.76591,32.65
3,0.02923584,0.2856293,0.9578857,1.0,0.02185059,0.2545624,0.9667969,-32.66338,3.549225,-26.02858,4.491577,0.5235456,0.4007751,1.0,0.03419495,0.3063507,0.9512939,33.69186,5.444443,-23.58997,4.704834,0.4611735,0.3066653,0.1562666,1.247993,-0.3246505,-0.1808822,0.134226,-0.06646334,0.2972509,-35.76591,32.65
3,0.02923584,0.2856293,0.9578857,1.0,0.02185059,0.2545624,0.9667969,-32.66338,3.549225,-26.02858,4.491577,0.5235456,0.4007751,1.0,0.03419495,0.3063507,0.9512939,33.69186,5.444443,-23.58997,4.704834,0.4611735,0.3066653,0.1562666,1.247993,-0.3246505,-0.1808822,0.134226,-0.06646334,0.2972509,-35.76591,32.65
3,0.02880859,0.287323,0.9573822,1.0,0.02307129,0.2512207,0.9676361,-32.70146,3.484283,-25.94858,4.405258,0.5245472,0.4027037,1.0,0.03166199,0.3053131,0.9517212,33.68602,5.42749,-23.58784,4.704941,0.4617886,0.3073932,0.1558689,1.248716,-0.3258588,-0.1857089,0.1316382,-0.06698046,0.2972509,-35.76591,32.65
3,0.02880859,0.287323,0.9573822,1.0,0.02307129,0.2512207,0.9676361,-32.70146,3.484283,-25.94858,4.405258,0.5245472,0.4027037,1.0,0.03166199,0.3053131,0.9517212,33.68602,5.42749,-23.58784,4.704941,0.4617886,0.3073932,0.1558689,1.248716,-0.3258588,-0.1857089,0.1316382,-0.06698046,0.2972509,-35.76591,32.65
3,0.02880859,0.287323,0.9573822,1.0,0.02307129,0.2512207,0.9676361,-32.70146,3.484283,-25.94858,4.405258,0.5245472,0.4027037,1.0,0.03166199,0.3053131,0.9517212,33.68602,5.42749,-23.58784,4.704941,0.4617886,0.3073932,0.1555263,1.249568,-0.3269619,-0.1911336,0.1293208,-0.06691146,0.2985322,-35.76591,32.65
3,0.02880859,0.287323,0.9573822,1.0,0.02307129,0.2512207,0.9676361,-32.70146,3.484283,-25.94858,4.405258,0.5245472,0.4027037,1.0,0.03166199,0.3053131,0.9517212,33.68602,5.42749,-23.58784,4.704941,0.4617886,0.3073932,0.1555263,1.249568,-0.3269619,-0.1911336,0.1293208,-0.06691146,0.2985322,-35.76591,32.65
3,0.02880859,0.287323,0.9573822,1.0,0.02307129,0.2512207,0.9676361,-32.70146,3.484283,-25.94858,4.405258,0.5245472,0.4027037,1.0,0.03166199,0.3053131,0.9517212,33.68602,5.42749,-23.58784,4.704941,0.4617886,0.3073932,0.1551874,1.250481,-0.3281054,-0.1964338,0.126926,-0.06658038,0.2985322,-35.76591,32.65
3,0.02880859,0.287323,0.9573822,1.0,0.02307129,0.2512207,0.9676361,-32.70146,3.484283,-25.94858,4.405258,0.5245472,0.4027037,1.0,0.03166199,0.3053131,0.9517212,33.68602,5.42749,-23.58784,4.704941,0.4617886,0.3073932,0.1551874,1.250481,-0.3281054,-0.1964338,0.126926,-0.06658038,0.2985322,-35.76591,32.65
3,0.02746582,0.2860413,0.9578094,1.0,0.01577759,0.2391815,0.9708405,-32.72273,3.43837,-25.8734,4.384995,0.5264154,0.4055323,1.0,0.03109741,0.3005371,0.9532471,33.68054,5.414474,-23.58698,4.69664,0.4620636,0.3085976,0.1545964,1.251115,-0.3292388,-0.2017571,0.1247056,-0.06640378,0.2985322,6.955673,32.65
3,0.02746582,0.2860413,0.9578094,1.0,0.01577759,0.2391815,0.9708405,-32.72273,3.43837,-25.8734,4.384995,0.5264154,0.4055323,1.0,0.03109741,0.3005371,0.9532471,33.68054,5.414474,-23.58698,4.69664,0.4620636,0.3085976,0.1545964,1.251115,-0.3292388,-0.2017571,0.1247056,-0.06640378,0.2985322,6.955673,32.65
3,0.0007629395,0.2544403,0.9670868,1.0,-0.01081848,0.2072754,0.9782104,-32.7999,2.999115,-25.12694,4.218414,0.5329559,0.4187838,1.0,0.0007629395,0.2544403,0.9670715,33.55028,5.052582,-23.45232,4.469559,0.4713872,0.3270422,0.154139,1.251917,-0.3302089,-0.2069128,0.122664,-0.06639559,0.2985322,6.955673,32.65
3,0.0007629395,0.2544403,0.9670868,1.0,-0.01081848,0.2072754,0.9782104,-32.7999,2.999115,-25.12694,4.218414,0.5329559,0.4187838,1.0,0.0007629395,0.2544403,0.9670715,33.55028,5.052582,-23.45232,4.469559,0.4713872,0.3270422,0.154139,1.251917,-0.3302089,-0.2069128,0.122664,-0.06639559,0.2985322,6.955673,32.65
3,-0.0008239746,0.2468567,0.9690399,1.0,-0.01603699,0.198349,0.9799957,-32.83179,2.923477,-25.04305,4.237274,0.5348048,0.4220206,1.0,-0.0008239746,0.2468719,0.9690399,33.52028,5.030823,-23.50154,4.466995,0.4726316,0.3293793,0.1535066,1.252663,-0.3312672,-0.2123954,0.1203444,-0.066098,0.2985322,6.955673,32.65
3,-0.0008239746,0.2468567,0.9690399,1.0,-0.01603699,0.198349,0.9799957,-32.83179,2.923477,-25.04305,4.237274,0.5348048,0.4220206,1.0,-0.0008239746,0.2468719,0.9690399,33.52028,5.030823,-23.50154,4.466995,0.4726316,0.3293793,0.1535066,1.252663,-0.3312672,-0.2123954,0.1203444,-0.066098,0.2985322,6.955673,32.65
3,-0.0004425049,0.239975,0.9707642,1.0,-0.01647949,0.1947021,0.9807129,-32.83867,2.910858,-25.02649,4.232605,0.5350912,0.4228855,1.0,-0.0004272461,0.2400513,0.9707489,33.51656,5.026352,-23.52303,4.448044,0.4726817,0.3307821,0.1529349,1.253418,-0.332249,-0.2174784,0.1182103,-0.06585815,0.2985322,6.955673,32.65
3,-0.0004425049,0.239975,0.9707642,1.0,-0.01647949,0.1947021,0.9807129,-32.83867,2.910858,-25.02649,4.232605,0.5350912,0.4228855,1.0,-0.0004272461,0.2400513,0.9707489,33.51656,5.026352,-23.52303,4.448044,0.4726817,0.3307821,0.1529349,1.253418,-0.332249,-0.2174784,0.1182103,-0.06585815,0.2985322,6.955673,32.65
3,-0.0004425049,0.239975,0.9707642,1.0,-0.01647949,0.1947021,0.9807129,-32.83867,2.910858,-25.02649,4.232605,0.5350912,0.4228855,1.0,-0.0004272461,0.2400513,0.9707489,33.51656,5.026352,-23.52303,4.448044,0.4726817,0.3307821,0.1524013,1.254148,-0.3333018,-0.2231195,0.1159898,-0.0656938,0.2985322,6.955673,32.65
3,-0.0004425049,0.239975,0.9707642,1.0,-0.01647949,0.1947021,0.9807129,-32.83867,2.910858,-25.02649,4.232605,0.5350912,0.4228855,1.0,-0.0004272461,0.2400513,0.9707489,33.51656,5.026352,-23.52303,4.448044,0.4726817,0.3307821,0.1524013,1.254148,-0.3333018,-0.2231195,0.1159898,-0.0656938,0.2985322,6.955673,32.65
3,-0.0004425049,0.239975,0.9707642,1.0,-0.01647949,0.1947021,0.9807129,-32.83867,2.910858,-25.02649,4.232605,0.5350912,0.4228855,1.0,-0.0004272461,0.2400513,0.9707489,33.51656,5.026352,-23.52303,4.448044,0.4726817,0.3307821,0.1521217,1.254563,-0.3338659,-0.2266079,0.1147297,-0.06584379,0.2985322,6.955673,32.65
3,-0.0004425049,0.239975,0.9707642,1.0,-0.01647949,0.1947021,0.9807129,-32.83867,2.910858,-25.02649,4.232605,0.5350912,0.4228855,1.0,-0.0004272461,0.2400513,0.9707489,33.51656,5.026352,-23.52303,4.448044,0.4726817,0.3307821,0.1521217,1.254563,-0.3338659,-0.2266079,0.1147297,-0.06584379,0.2985322,6.955673,32.65
3,0.05883789,0.3010101,0.9517975,1.0,0.04780579,0.2597046,0.9644928,-32.38995,3.425308,-25.71964,4.215454,0.510061,0.4011196,1.0,0.05943298,0.3032227,0.9510498,33.81955,5.400772,-23.59099,4.485077,0.4527091,0.3083846,0.1516311,1.255444,-0.3350081,-0.233959,0.1117422,-0.0667979,0.2985322,6.955673,32.65
3,0.0854187,0.3573761,0.9300385,1.0,0.07518005,0.3059692,0.9490509,-32.23117,3.637695,-25.79416,4.267319,0.500297,0.3873152,1.0,0.0854187,0.3573761,0.9300385,33.9429,5.685867,-23.68768,4.540054,0.444141,0.2905232,0.1514431,1.255968,-0.3355945,-0.2377153,0.110184,-0.06776848,0.2985322,6.955673,32.65
3,0.07827759,0.3467712,0.9346619,1.0,0.0662384,0.2905731,0.9545441,-32.33885,3.530991,-25.77277,4.27565,0.5053317,0.3931699,1.0,0.07827759,0.3467865,0.9346619,33.93877,5.628189,-23.66878,4.622437,0.4455189,0.2941772,0.1511924,1.256926,-0.3368652,-0.2461292,0.1072715,-0.07034619,0.2985322,6.955673,32.65
3,0.07827759,0.3467712,0.9346619,1.0,0.0662384,0.2905731,0.9545441,-32.33885,3.530991,-25.77277,4.27565,0.5053317,0.3931699,1.0,0.07827759,0.3467865,0.9346619,33.93877,5.628189,-23.66878,4.622437,0.4455189,0.2941772,0.1511924,1.256926,-0.3368652,-0.2461292,0.1072715,-0.07034619,0.2985322,6.955673,32.65
3,0.07209778,0.3294525,0.9414063,1.0,0.06471252,0.2740326,0.9595337,-32.36948,3.4608,-25.75562,4.257111,0.5065831,0.3980037,1.0,0.07211304,0.3295746,0.9413605,33.93414,5.530655,-23.63747,4.467636,0.4467335,0.2999309,0.1510369,1.257451,-0.3374469,-0.2502949,0.1056489,-0.07144566,0.2985322,6.955673,32.65
3,0.06634521,0.2895813,0.954834,1.0,0.06219482,0.2680511,0.96138,-32.38278,3.367111,-25.73265,4.312729,0.5074346,0.401931,1.0,0.07098389,0.3136749,0.9468689,33.95082,5.409332,-23.60564,4.414749,0.4463938,0.3063435,0.1508638,1.257878,-0.338087,-0.2541811,0.1039593,-0.07253678,0.2985322,-3.669769,32.65
3,0.06634521,0.2895813,0.954834,1.0,0.06219482,0.2680511,0.96138,-32.38278,3.367111,-25.73265,4.312729,0.5074346,0.401931,1.0,0.07098389,0.3136749,0.9468689,33.95082,5.409332,-23.60564,4.414749,0.4463938,0.3063435,0.1508638,1.257878,-0.338087,-0.2541811,0.1039593,-0.07253678,0.2985322,-3.669769,32.65
3,0.05828857,0.2752228,0.95961,1.0,0.05607605,0.2486725,0.9669495,-32.40556,3.293594,-25.7198,4.184708,0.5091711,0.4072182,1.0,0.06083679,0.3063507,0.9499664,33.95624,5.251404,-23.58905,4.52356,0.4479284,0.3128156,0.150606,1.258688,-0.3393018,-0.261055,0.1001843,-0.07371096,0.2985322,-3.669769,32.65
3,0.059021,0.2693787,0.9612122,1.0,0.0553894,0.2451477,0.9678955,-32.41652,3.249771,-25.70511,4.154099,0.5096296,0.4090692,1.0,0.06326294,0.2977142,0.9525452,33.94417,5.184357,-23.58046,4.457611,0.4479219,0.3163424,0.150292,1.259546,-0.3405828,-0.2674654,0.09650066,-0.07432939,0.2985322,-3.669769,32.65
3,0.059021,0.2693787,0.9612122,1.0,0.0553894,0.2451477,0.9678955,-32.41652,3.249771,-25.70511,4.154099,0.5096296,0.4090692,1.0,0.06326294,0.2977142,0.9525452,33.94417,5.184357,-23.58046,4.457611,0.4479219,0.3163424,0.150292,1.259546,-0.3405828,-0.2674654,0.09650066,-0.07432939,0.2985322,-3.669769,32.65
3,0.06082153,0.26474,0.9623871,1.0,0.04989624,0.2312622,0.9716034,-32.45763,3.086975,-25.50473,4.240234,0.5118368,0.4151083,1.0,0.06562805,0.2794342,0.9579163,33.91983,5.029449,-23.5585,4.41391,0.4483322,0.3242993,0.1501535,1.259836,-0.3412532,-0.2705622,0.09465213,-0.07439743,0.2985322,-3.669769,32.65
3,0.04829407,0.256012,0.9654541,1.0,0.03887939,0.2188873,0.9749603,-32.48883,2.993347,-25.37914,4.203705,0.5146334,0.4190949,1.0,0.0493927,0.2603455,0.9642487,33.89201,4.94342,-23.53166,4.404846,0.451976,0.3300724,0.1496987,1.260485,-0.3425661,-0.2760097,0.0906302,-0.07426,0.2985322,-3.669769,32.65
3,0.04829407,0.256012,0.9654541,1.0,0.03887939,0.2188873,0.9749603,-32.48883,2.993347,-25.37914,4.203705,0.5146334,0.4190949,1.0,0.0493927,0.2603455,0.9642487,33.89201,4.94342,-23.53166,4.404846,0.451976,0.3300724,0.1496987,1.260485,-0.3425661,-0.2760097,0.0906302,-0.07426,0.2985322,-3.669769,32.65
3,0.04277039,0.2566681,0.9655457,1.0,0.04174805,0.2161102,0.9754639,-32.54745,2.825775,-25.15285,4.172089,0.5159852,0.4231115,1.0,0.04278564,0.2575531,0.9653015,33.8558,4.854919,-23.56714,4.488083,0.4542582,0.333827,0.1494607,1.260858,-0.3431665,-0.2785024,0.088598,-0.07435375,0.2985322,-3.669769,32.65
3,0.04489136,0.245697,0.9682922,1.0,0.04208374,0.2113647,0.9764862,-32.56607,2.825287,-25.25371,4.166199,0.5165692,0.4247131,1.0,0.04495239,0.2463837,0.9681244,33.84438,4.833572,-23.59454,4.465637,0.4542676,0.3365337,0.1492151,1.261122,-0.3437763,-0.2806932,0.08651548,-0.07432719,0.2985322,-3.669769,32.65
3,0.04489136,0.245697,0.9682922,1.0,0.04208374,0.2113647,0.9764862,-32.56607,2.825287,-25.25371,4.166199,0.5165692,0.4247131,1.0,0.04495239,0.2463837,0.9681244,33.84438,4.833572,-23.59454,4.465637,0.4542676,0.3365337,0.1492151,1.261122,-0.3437763,-0.2806932,0.08651548,-0.07432719,0.2985322,-3.669769,32.65
3,0.04489136,0.245697,0.9682922,1.0,0.04208374,0.2113647,0.9764862,-32.56607,2.825287,-25.25371,4.166199,0.5165692,0.4247131,1.0,0.04495239,0.2463837,0.9681244,33.84438,4.833572,-23.59454,4.465637,0.4542676,0.3365337,0.1492151,1.261122,-0.3437763,-0.2806932,0.08651548,-0.07432719,0.2985322,-3.669769,32.65
3,0.02987671,0.2220917,0.9745636,1.0,0.02409363,0.1871338,0.9820251,-32.60736,2.791534,-25.32494,4.269684,0.5209216,0.4304475,1.0,0.03128052,0.2304993,0.9725647,33.80792,4.687027,-23.33762,4.488617,0.4577663,0.3420313,0.1484247,1.262086,-0.3455813,-0.2872213,0.08017641,-0.07366971,0.2985322,-3.669769,32.65
3,0.06895447,0.2416534,0.9678955,1.0,0.05484009,0.2145691,0.9751587,-32.3073,3.006882,-25.64497,4.193085,0.5060962,0.4214877,1.0,0.07566833,0.2545166,0.9640961,33.97293,4.911957,-23.56302,4.545853,0.4449162,0.3324176,0.1481589,1.262377,-0.3461121,-0.2894394,0.07797312,-0.07337421,0.2985322,1.3423,32.65
3,0.1266479,0.2985992,0.9459229,1.0,0.1051636,0.2394562,0.9651794,-32.06592,3.205627,-25.67508,4.210556,0.4898096,0.4112754,1.0,0.1280212,0.3023682,0.9445496,34.20354,5.126495,-23.63284,4.689285,0.4284333,0.3180642,0.1474756,1.262956,-0.347138,-0.293689,0.07327951,-0.07305447,0.2985322,1.3423,32.65
3,0.1266479,0.2985992,0.9459229,1.0,0.1051636,0.2394562,0.9651794,-32.06592,3.205627,-25.67508,4.210556,0.4898096,0.4112754,1.0,0.1280212,0.3023682,0.9445496,34.20354,5.126495,-23.63284,4.689285,0.4284333,0.3180642,0.1474756,1.262956,-0.347138,-0.293689,0.07327951,-0.07305447,0.2985322,1.3423,32.65
3,0.1577759,0.3367767,0.9282532,1.0,0.1521454,0.2778473,0.9484863,-31.85555,3.313446,-25.72195,4.367966,0.4750365,0.4021796,1.0,0.1581116,0.3404694,0.9268494,34.40863,5.254425,-23.73329,4.703384,0.4163464,0.3081879,0.1471452,1.263221,-0.3477297,-0.2958359,0.07095867,-0.07305498,0.2985322,1.3423,32.65
3,0.1577759,0.3367767,0.9282532,1.0,0.1521454,0.2778473,0.9484863,-31.85555,3.313446,-25.72195,4.367966,0.4750365,0.4021796,1.0,0.1581116,0.3404694,0.9268494,34.40863,5.254425,-23.73329,4.703384,0.4163464,0.3081879,0.1471452,1.263221,-0.3477297,-0.2958359,0.07095867,-0.07305498,0.2985322,1.3423,32.65
3,0.1651154,0.3332367,0.9282532,1.0,0.1546936,0.2789612,0.9477539,-31.88103,3.269516,-25.72867,4.354553,0.4754335,0.4034969,1.0,0.1668091,0.3422089,0.9246826,34.43195,5.244888,-23.74612,4.726105,0.4140689,0.3083118,0.146567,1.263736,-0.3487914,-0.3001097,0.06622469,-0.0734141,0.2985322,1.3423,32.65
3,0.1548004,0.306839,0.9390717,1.0,0.1525879,0.2723389,0.9500122,-31.9624,3.197205,-25.70796,4.454193,0.4785077,0.4069003,1.0,0.1558685,0.3247223,0.9328613,34.40778,5.186081,-23.70937,4.681168,0.4168164,0.3128611,0.146325,1.263996,-0.349311,-0.3024903,0.06383204,-0.07369681,0.2985322,1.3423,32.65
3,0.1444855,0.2767487,0.9500122,1.0,0.1399689,0.2503204,0.9579773,-32.0136,3.161804,-25.6881,4.327484,0.4822966,0.4112785,1.0,0.1502686,0.3112946,0.9383392,34.38968,5.147919,-23.68391,4.680923,0.4184321,0.3161663,0.1455597,1.264572,-0.3504107,-0.3072457,0.0588484,-0.07414333,0.2985322,1.3423,32.65
3,0.1444855,0.2767487,0.9500122,1.0,0.1399689,0.2503204,0.9579773,-32.0136,3.161804,-25.6881,4.327484,0.4822966,0.4112785,1.0,0.1502686,0.3112946,0.9383392,34.38968,5.147919,-23.68391,4.680923,0.4184321,0.3161663,0.1455597,1.264572,-0.3504107,-0.3072457,0.0588484,-0.07414333,0.2985322,1.3423,32.65
3,0.137146,0.2711182,0.952713,1.0,0.1370544,0.2479858,0.9589996,-32.06447,3.124512,-25.70731,4.530655,0.4845261,0.4132716,1.0,0.1371613,0.2986755,0.9444427,34.35483,5.080673,-23.65616,4.775482,0.4218751,0.3203731,0.1448404,1.265091,-0.3514423,-0.3113888,0.05357246,-0.07420138,0.2985322,1.3423,32.65
3,0.137146,0.2711182,0.952713,1.0,0.1370544,0.2479858,0.9589996,-32.06447,3.124512,-25.70731,4.530655,0.4845261,0.4132716,1.0,0.1371613,0.2986755,0.9444427,34.35483,5.080673,-23.65616,4.775482,0.4218751,0.3203731,0.1448404,1.265091,-0.3514423,-0.3113888,0.05357246,-0.07420138,0.2985322,1.3423,32.65
3,0.1217651,0.2634277,0.956955,1.0,0.1200714,0.2362213,0.9642487,-32.12018,3.055847,-25.71852,4.494888,0.4891859,0.4174364,1.0,0.1238556,0.2988129,0.946228,34.33363,4.981415,-23.64763,4.779846,0.42482,0.3235949,0.1445096,1.265271,-0.3519101,-0.3133287,0.05093434,-0.07412563,0.2985322,1.3423,32.65
3,0.1156158,0.2536774,0.9603424,1.0,0.1150665,0.2314148,0.9660187,-32.17226,3.026733,-25.75459,4.490158,0.4917347,0.4194628,1.0,0.1161804,0.2801819,0.9528809,34.3029,4.928635,-23.61479,4.693146,0.4271718,0.3280875,0.143715,1.265675,-0.352958,-0.3172514,0.04576498,-0.07390378,0.2985322,1.3423,32.65
3,0.1156158,0.2536774,0.9603424,1.0,0.1150665,0.2314148,0.9660187,-32.17226,3.026733,-25.75459,4.490158,0.4917347,0.4194628,1.0,0.1161804,0.2801819,0.9528809,34.3029,4.928635,-23.61479,4.693146,0.4271718,0.3280875,0.143715,1.265675,-0.352958,-0.3172514,0.04576498,-0.07390378,0.2985322,1.3423,32.65
4,0.1057281,0.2495575,0.9625549,1.0,0.1040344,0.2262115,0.9684906,-32.22684,3.023102,-25.81143,4.397186,0.4953499,0.4207668,1.0,0.107193,0.2702026,0.9568024,34.25211,4.899307,-23.59526,4.692642,0.4303887,0.3305608,0.1433748,1.265888,-0.3534503,-0.3191927,0.04306782,-0.07395769,0.2985322,1.3423,32.65
4,0.1000671,0.2504883,0.9629211,1.0,0.09268188,0.218338,0.9714508,-32.27061,3.021255,-25.92271,4.433441,0.4987147,0.4230532,1.0,0.1036224,0.2660522,0.9583588,34.18919,4.872314,-23.59366,4.704895,0.4330772,0.3321557,0.1430199,1.266152,-0.3539679,-0.3210872,0.04025489,-0.0740649,0.2985322,1.3423,32.65
4,0.1000671,0.2504883,0.9629211,1.0,0.09268188,0.218338,0.9714508,-32.27061,3.021255,-25.92271,4.433441,0.4987147,0.4230532,1.0,0.1036224,0.2660522,0.9583588,34.18919,4.872314,-23.59366,4.704895,0.4330772,0.3321557,0.1430199,1.266152,-0.3539679,-0.3210872,0.04025489,-0.0740649,0.2985322,5.135605,32.65
4,0.09663391,0.2542725,0.9622803,1.0,0.08406067,0.2082062,0.9744568,-32.30098,3.089828,-26.2356,4.469421,0.5012302,0.4250779,1.0,0.09776306,0.2583923,0.9610748,34.1351,4.832306,-23.58453,4.741058,0.4358627,0.3347121,0.1422224,1.266399,-0.3550842,-0.3246753,0.03477762,-0.07432097,0.2985322,3.314011,32.65
4,0.08804321,0.255249,0.9628448,1.0,0.06916809,0.1897125,0.9793854,-32.33881,3.214783,-26.74547,4.440002,0.5050844,0.4282116,1.0,0.08805847,0.255249,0.9628448,34.0672,4.775391,-23.55978,4.756699,0.4397358,0.3369572,0.1418735,1.266567,-0.3555593,-0.3264524,0.03199314,-0.07442345,0.2985322,3.314011,32.65
4,0.08804321,0.255249,0.9628448,1.0,0.06916809,0.1897125,0.9793854,-32.33881,3.214783,-26.74547,4.440002,0.5050844,0.4282116,1.0,0.08805847,0.255249,0.9628448,34.0672,4.775391,-23.55978,4.756699,0.4397358,0.3369572,0.1418735,1.266567,-0.3555593,-0.3264524,0.03199314,-0.07442345,0.2985322,3.314011,32.65
4,0.1056213,0.2587891,0.9601288,1.0,0.08773804,0.2060089,0.9745941,-32.25954,3.107452,-26.16399,4.496185,0.4992466,0.4243111,1.0,0.1056213,0.2587891,0.9601288,34.15636,4.879425,-23.59328,4.744339,0.4338508,0.3331657,0.1414472,1.266747,-0.3560917,-0.3282643,0.02944249,-0.07455429,0.2985322,3.314011,32.65
4,0.1413116,0.3078003,0.9408875,1.0,0.1307373,0.2500458,0.9593506,-32.01311,3.203766,-25.98073,4.591125,0.4839323,0.4126318,1.0,0.1413116,0.3078156,0.9408875,34.33937,5.085037,-23.68703,4.913132,0.4216742,0.3191243,0.140753,1.267102,-0.3571171,-0.3315302,0.02437894,-0.07496697,0.2985322,3.314011,32.65
4,0.1413116,0.3078003,0.9408875,1.0,0.1307373,0.2500458,0.9593506,-32.01311,3.203766,-25.98073,4.591125,0.4839323,0.4126318,1.0,0.1413116,0.3078156,0.9408875,34.33937,5.085037,-23.68703,4.913132,0.4216742,0.3191243,0.140753,1.267102,-0.3571171,-0.3315302,0.02437894,-0.07496697,0.2985322,3.314011,32.65
4,0.1702118,0.3543091,0.9194946,1.0,0.1561737,0.2941742,0.9428864,-31.8443,3.337296,-26.05589,4.599228,0.4740353,0.4017564,1.0,0.1702271,0.3543549,0.9194794,34.42673,5.246796,-23.79076,5.049988,0.4136536,0.3068982,0.1401678,1.267329,-0.358048,-0.3346304,0.01976333,-0.07553697,0.2985322,3.314011,32.65
4,0.1704407,0.3653564,0.9151154,1.0,0.1599121,0.2958832,0.9417267,-31.88902,3.328003,-26.05843,4.705307,0.4749185,0.4019624,1.0,0.1704559,0.3654327,0.9150848,34.41937,5.278732,-23.81284,4.922211,0.4137619,0.3040214,0.1397746,1.267632,-0.3589802,-0.3376591,0.01581647,-0.07627432,0.2985322,3.314011,32.65
4,0.1704407,0.3653564,0.9151154,1.0,0.1599121,0.2958832,0.9417267,-31.88902,3.328003,-26.05843,4.705307,0.4749185,0.4019624,1.0,0.1704559,0.3654327,0.9150848,34.41937,5.278732,-23.81284,4.922211,0.4137619,0.3040214,0.1397746,1.267632,-0.3589802,-0.3376591,0.01581647,-0.07627432,0.2985322,3.314011,32.65
4,0.1704407,0.3653564,0.9151154,1.0,0.1599121,0.2958832,0.9417267,-31.88902,3.328003,-26.05843,4.705307,0.4749185,0.4019624,1.0,0.1704559,0.3654327,0.9150848,34.41937,5.278732,-23.81284,4.922211,0.4137619,0.3040214,0.1397746,1.267632,-0.3589802,-0.3376591,0.01581647,-0.07627432,0.2985322,3.314011,32.65
4,0.1560516,0.3122406,0.937088,1.0,0.1553497,0.2878265,0.9449921,-32.01196,3.252991,-26.03439,4.719116,0.4797574,0.4055696,1.0,0.1570587,0.354599,0.9217224,34.38326,5.200775,-23.77997,5.005997,0.4173382,0.3082761,0.1393795,1.267832,-0.3598638,-0.3403846,0.0123978,-0.07724659,0.2985322,3.314011,32.65
4,0.1560516,0.3122406,0.937088,1.0,0.1553497,0.2878265,0.9449921,-32.01196,3.252991,-26.03439,4.719116,0.4797574,0.4055696,1.0,0.1570587,0.354599,0.9217224,34.38326,5.200775,-23.77997,5.005997,0.4173382,0.3082761,0.1393795,1.267832,-0.3598638,-0.3403846,0.0123978,-0.07724659,0.2985322,3.314011,32.65
4,0.1560516,0.3122406,0.937088,1.0,0.1553497,0.2878265,0.9449921,-32.01196,3.252991,-26.03439,4.719116,0.4797574,0.4055696,1.0,0.1570587,0.354599,0.9217224,34.38326,5.200775,-23.77997,5.005997,0.4173382,0.3082761,0.1393795,1.267832,-0.3598638,-0.3403846,0.0123978,-0.07724659,0.2985322,3.314011,32.65
4,0.1560516,0.3122406,0.937088,1.0,0.1553497,0.2878265,0.9449921,-32.01196,3.252991,-26.03439,4.719116,0.4797574,0.4055696,1.0,0.1570587,0.354599,0.9217224,34.38326,5.200775,-23.77997,5.005997,0.4173382,0.3082761,0.1393795,1.267832,-0.3598638,-0.3403846,0.0123978,-0.07724659,0.2985322,3.314011,32.65
4,0.1491547,0.2984619,0.942688,1.0,0.1460114,0.2696838,0.9518127,-32.06895,3.222427,-26.01073,4.627853,0.4832047,0.4091934,1.0,0.1526031,0.331192,0.9311371,34.35529,5.152985,-23.74005,4.89386,0.4191211,0.3133574,0.1388243,1.268189,-0.3617822,-0.3456139,0.007262927,-0.07848771,0.2985322,3.314011,32.65
4,0.1491547,0.2984619,0.942688,1.0,0.1460114,0.2696838,0.9518127,-32.06895,3.222427,-26.01073,4.627853,0.4832047,0.4091934,1.0,0.1526031,0.331192,0.9311371,34.35529,5.152985,-23.74005,4.89386,0.4191211,0.3133574,0.1388243,1.268189,-0.3617822,-0.3456139,0.007262927,-0.07848771,0.2985322,3.314011,32.65
4,0.1491547,0.2984619,0.942688,1.0,0.1460114,0.2696838,0.9518127,-32.06895,3.222427,-26.01073,4.627853,0.4832047,0.4091934,1.0,0.1526031,0.331192,0.9311371,34.35529,5.152985,-23.74005,4.89386,0.4191211,0.3133574,0.138718,1.26837,-0.3626757,-0.3481772,0.005267444,-0.07897865,0.2985322,-2.422653,32.65
4,0.1491547,0.2984619,0.942688,1.0,0.1460114,0.2696838,0.9518127,-32.06895,3.222427,-26.01073,4.627853,0.4832047,0.4091934,1.0,0.1526031,0.331192,0.9311371,34.35529,5.152985,-23.74005,4.89386,0.4191211,0.3133574,0.138718,1.26837,-0.3626757,-0.3481772,0.005267444,-0.07897865,0.2985322,-2.422653,32.65
4,0.1491547,0.2984619,0.942688,1.0,0.1460114,0.2696838,0.9518127,-32.06895,3.222427,-26.01073,4.627853,0.4832047,0.4091934,1.0,0.1526031,0.331192,0.9311371,34.35529,5.152985,-23.74005,4.89386,0.4191211,0.3133574,0.138718,1.26837,-0.3626757,-0.3481772,0.005267444,-0.07897865,0.2985322,-2.422653,32.65
4,0.1227875,0.276535,0.9531097,1.0,0.1211395,0.2521667,0.9600525,-32.22855,3.081116,-25.99797,4.575989,0.4926149,0.4164592,1.0,0.1248016,0.3078766,0.9431915,34.29527,4.976135,-23.67918,4.964752,0.425923,0.3227269,0.1385912,1.268517,-0.3635561,-0.3503773,0.003788115,-0.07926613,0.2985322,-2.422653,32.65
4,0.1227875,0.276535,0.9531097,1.0,0.1211395,0.2521667,0.9600525,-32.22855,3.081116,-25.99797,4.575989,0.4926149,0.4164592,1.0,0.1248016,0.3078766,0.9431915,34.29527,4.976135,-23.67918,4.964752,0.425923,0.3227269,0.1385912,1.268517,-0.3635561,-0.3503773,0.003788115,-0.07926613,0.2985322,-2.422653,32.65
4,0.1563568,0.2963104,0.9421997,1.0,0.1479797,0.2657776,0.9525909,-31.98828,3.19931,-26.02985,4.75647,0.4802656,0.410886,1.0,0.1667938,0.3348846,0.9273682,34.43234,5.07843,-23.76717,5.121567,0.4141723,0.3156795,0.1384078,1.268485,-0.3645955,-0.3530943,0.002456618,-0.07900572,0.2985322,-2.422653,32.65
4,0.1563568,0.2963104,0.9421997,1.0,0.1479797,0.2657776,0.9525909,-31.98828,3.19931,-26.02985,4.75647,0.4802656,0.410886,1.0,0.1667938,0.3348846,0.9273682,34.43234,5.07843,-23.76717,5.121567,0.4141723,0.3156795,0.1382084,1.268761,-0.3655835,-0.3568338,0.0008717565,-0.07817239,0.2985322,-2.422653,32.65
4,0.1563568,0.2963104,0.9421997,1.0,0.1479797,0.2657776,0.9525909,-31.98828,3.19931,-26.02985,4.75647,0.4802656,0.410886,1.0,0.1667938,0.3348846,0.9273682,34.43234,5.07843,-23.76717,5.121567,0.4141723,0.3156795,0.1382084,1.268761,-0.3655835,-0.3568338,0.0008717565,-0.07817239,0.2985322,-2.422653,32.65
4,0.1563568,0.2963104,0.9421997,1.0,0.1479797,0.2657776,0.9525909,-31.98828,3.19931,-26.02985,4.75647,0.4802656,0.410886,1.0,0.1667938,0.3348846,0.9273682,34.43234,5.07843,-23.76717,5.121567,0.4141723,0.3156795,0.1379167,1.269304,-0.3666023,-0.363027,-0.001145121,-0.07664713,0.2985322,-2.422653,32.65
4,0.1563568,0.2963104,0.9421997,1.0,0.1479797,0.2657776,0.9525909,-31.98828,3.19931,-26.02985,4.75647,0.4802656,0.410886,1.0,0.1667938,0.3348846,0.9273682,34.43234,5.07843,-23.76717,5.121567,0.4141723,0.3156795,0.1379167,1.269304,-0.3666023,-0.363027,-0.001145121,-0.07664713,0.2985322,-2.422653,32.65
4,0.1563568,0.2963104,0.9421997,1.0,0.1479797,0.2657776,0.9525909,-31.98828,3.19931,-26.02985,4.75647,0.4802656,0.410886,1.0,0.1667938,0.3348846,0.9273682,34.43234,5.07843,-23.76717,5.121567,0.4141723,0.3156795,0.1372379,1.270081,-0.3682383,-0.3725709,-0.004573974,-0.07450651,0.2985322,-2.422653,32.65
4,0.1563568,0.2963104,0.9421997,1.0,0.1479797,0.2657776,0.9525909,-31.98828,3.19931,-26.02985,4.75647,0.4802656,0.410886,1.0,0.1667938,0.3348846,0.9273682,34.43234,5.07843,-23.76717,5.121567,0.4141723,0.3156795,0.1372379,1.270081,-0.3682383,-0.3725709,-0.004573974,-0.07450651,0.2985322,-2.422653,32.65
4,0.2069855,0.3732452,0.9043274,1.0,0.2022552,0.3542023,0.9130249,-31.52785,3.54274,-26.24756,5.060898,0.4557692,0.3874283,1.0,0.2162933,0.4114685,0.885376,34.84422,5.467087,-24.0042,5.172348,0.3912073,0.2912718,0.1372379,1.270081,-0.3682383,-0.3725709,-0.004573974,-0.07450651,0.2985322,-2.422653,32.65
4,0.1998596,0.3598938,0.9113312,1.0,0.1964722,0.3376312,0.9205322,-31.60548,3.421188,-26.21178,4.848923,0.4592947,0.3936128,1.0,0.2054443,0.3979492,0.8940887,34.84,5.346024,-23.96152,5.147171,0.3933904,0.2973529,0.136263,1.270937,-0.3701774,-0.3834539,-0.009619575,-0.07185122,0.2985322,-2.422653,32.65
4,0.1998596,0.3598938,0.9113312,1.0,0.1964722,0.3376312,0.9205322,-31.60548,3.421188,-26.21178,4.848923,0.4592947,0.3936128,1.0,0.2054443,0.3979492,0.8940887,34.84,5.346024,-23.96152,5.147171,0.3933904,0.2973529,0.136263,1.270937,-0.3701774,-0.3834539,-0.009619575,-0.07185122,0.2985322,-2.422653,32.65
4,0.1962585,0.351181,0.9154968,1.0,0.1917877,0.3233032,0.926651,-31.66296,3.341934,-26.17905,4.879181,0.4620522,0.3983241,1.0,0.2014923,0.384903,0.9006805,34.81396,5.257385,-23.93327,5.133347,0.3950664,0.3023402,0.1353061,1.271599,-0.3721794,-0.3930914,-0.01597816,-0.07038273,0.2985322,-6.043228,32.65
4,0.1962585,0.351181,0.9154968,1.0,0.1917877,0.3233032,0.926651,-31.66296,3.341934,-26.17905,4.879181,0.4620522,0.3983241,1.0,0.2014923,0.384903,0.9006805,34.81396,5.257385,-23.93327,5.133347,0.3950664,0.3023402,0.1353061,1.271599,-0.3721794,-0.3930914,-0.01597816,-0.07038273,0.2985322,-6.043228,32.65
4,0.1815186,0.321228,0.9294281,1.0,0.1779327,0.2959137,0.9384918,-31.8259,3.118561,-26.12355,4.809418,0.4698118,0.4095796,1.0,0.1855316,0.3505096,0.917984,34.65704,5.062393,-23.84428,5.057755,0.4033334,0.3140179,0.1341146,1.271418,-0.3749304,-0.4001836,-0.01812981,-0.07348695,0.2985322,-6.043228,32.65
4,0.1815186,0.321228,0.9294281,1.0,0.1779327,0.2959137,0.9384918,-31.8259,3.118561,-26.12355,4.809418,0.4698118,0.4095796,1.0,0.1855316,0.3505096,0.917984,34.65704,5.062393,-23.84428,5.057755,0.4033334,0.3140179,0.1341146,1.271418,-0.3749304,-0.4001836,-0.01812981,-0.07348695,0.2985322,-6.043228,32.65
4,0.1815186,0.321228,0.9294281,1.0,0.1779327,0.2959137,0.9384918,-31.8259,3.118561,-26.12355,4.809418,0.4698118,0.4095796,1.0,0.1855316,0.3505096,0.917984,34.65704,5.062393,-23.84428,5.057755,0.4033334,0.3140179,0.1341146,1.271418,-0.3749304,-0.4001836,-0.01812981,-0.07348695,0.2985322,-6.043228,32.65
4,0.1748657,0.3070374,0.9354858,1.0,0.1671295,0.2771301,0.946167,-31.95229,2.993591,-26.07433,4.780975,0.4758253,0.4162759,1.0,0.1842957,0.3440552,0.9206696,34.54109,4.939758,-23.81589,5.131943,0.4074918,0.3191445,0.1336981,1.271989,-0.3767728,-0.4066029,-0.02951149,-0.07299733,0.2985322,-6.043228,32.65
4,0.1748657,0.3070374,0.9354858,1.0,0.1671295,0.2771301,0.946167,-31.95229,2.993591,-26.07433,4.780975,0.4758253,0.4162759,1.0,0.1842957,0.3440552,0.9206696,34.54109,4.939758,-23.81589,5.131943,0.4074918,0.3191445,0.1336981,1.271989,-0.3767728,-0.4066029,-0.02951149,-0.07299733,0.2985322,-6.043228,32.65
4,0.1748657,0.3070374,0.9354858,1.0,0.1671295,0.2771301,0.946167,-31.95229,2.993591,-26.07433,4.780975,0.4758253,0.4162759,1.0,0.1842957,0.3440552,0.9206696,34.54109,4.939758,-23.81589,5.131943,0.4074918,0.3191445,0.1336981,1.271989,-0.3767728,-0.4066029,-0.02951149,-0.07299733,0.2985322,-6.043228,32.65
4,0.1561584,0.2821045,0.946579,1.0,0.1503296,0.2592316,0.9540253,-32.06749,2.891724,-26.04626,4.762863,0.4824614,0.4222284,1.0,0.1629333,0.3088989,0.937027,34.4257,4.788864,-23.73521,5.027451,0.4151317,0.3292874,0.1329558,1.272393,-0.3785703,-0.41225,-0.0373591,-0.07521493,0.2985322,-6.043228,32.65
4,0.1561584,0.2821045,0.946579,1.0,0.1503296,0.2592316,0.9540253,-32.06749,2.891724,-26.04626,4.762863,0.4824614,0.4222284,1.0,0.1629333,0.3088989,0.937027,34.4257,4.788864,-23.73521,5.027451,0.4151317,0.3292874,0.1329558,1.272393,-0.3785703,-0.41225,-0.0373591,-0.07521493,0.2985322,-6.043228,32.65
4,0.1561584,0.2821045,0.946579,1.0,0.1503296,0.2592316,0.9540253,-32.06749,2.891724,-26.04626,4.762863,0.4824614,0.4222284,1.0,0.1629333,0.3088989,0.937027,34.4257,4.788864,-23.73521,5.027451,0.4151317,0.3292874,0.1329558,1.272393,-0.3785703,-0.41225,-0.0373591,-0.07521493,0.2985322,-6.043228,32.65
4,0.1578827,0.2753906,0.9482727,1.0,0.1539612,0.2518463,0.9554291,-32.02827,2.835907,-26.04578,4.844574,0.4805993,0.4253596,1.0,0.1624603,0.3034058,0.9389038,34.45107,4.686798,-23.73795,4.990707,0.4143781,0.3335749,0.1322876,1.272568,-0.3803349,-0.415802,-0.04488405,-0.07610083,0.2985322,-6.043228,32.65
4,0.1578827,0.2753906,0.9482727,1.0,0.1539612,0.2518463,0.9554291,-32.02827,2.835907,-26.04578,4.844574,0.4805993,0.4253596,1.0,0.1624603,0.3034058,0.9389038,34.45107,4.686798,-23.73795,4.990707,0.4143781,0.3335749,0.1322876,1.272568,-0.3803349,-0.415802,-0.04488405,-0.07610083,0.2985322,-6.043228,32.65
4,0.1578827,0.2753906,0.9482727,1.0,0.1539612,0.2518463,0.9554291,-32.02827,2.835907,-26.04578,4.844574,0.4805993,0.4253596,1.0,0.1624603,0.3034058,0.9389038,34.45107,4.686798,-23.73795,4.990707,0.4143781,0.3335749,0.1322876,1.272568,-0.3803349,-0.415802,-0.04488405,-0.07610083,0.2985322,-6.043228,32.65
4,0.2601624,0.3043365,0.9163361,1.0,0.2522278,0.2779694,0.9268646,-31.47775,2.931549,-26.21532,4.92511,0.4458372,0.4198555,1.0,0.2694092,0.3357391,0.9025879,34.88269,4.77739,-23.9207,5.129318,0.3814373,0.3268171,0.1319011,1.272639,-0.3816934,-0.4181367,-0.0504211,-0.07766589,0.2985322,-6.043228,32.65
4,0.2601624,0.3043365,0.9163361,1.0,0.2522278,0.2779694,0.9268646,-31.47775,2.931549,-26.21532,4.92511,0.4458372,0.4198555,1.0,0.2694092,0.3357391,0.9025879,34.88269,4.77739,-23.9207,5.129318,0.3814373,0.3268171,0.1319011,1.272639,-0.3816934,-0.4181367,-0.0504211,-0.07766589,0.2985322,-6.043228,32.65
4,0.2601624,0.3043365,0.9163361,1.0,0.2522278,0.2779694,0.9268646,-31.47775,2.931549,-26.21532,4.92511,0.4458372,0.4198555,1.0,0.2694092,0.3357391,0.9025879,34.88269,4.77739,-23.9207,5.129318,0.3814373,0.3268171,0.1319011,1.272639,-0.3816934,-0.4181367,-0.0504211,-0.07766589,0.2985322,-6.043228,32.65
4,0.2649689,0.3146973,0.9114532,1.0,0.2527008,0.2872467,0.9239044,-31.53215,2.824844,-26.22693,4.946152,0.4475079,0.4220193,1.0,0.2757568,0.3391113,0.8994141,34.87273,4.707184,-23.9323,5.115112,0.3806298,0.3287228,0.131636,1.272737,-0.3826036,-0.4201567,-0.05410346,-0.07853667,0.2985322,3.942352,32.65
4,0.2649689,0.3146973,0.9114532,1.0,0.2527008,0.2872467,0.9239044,-31.53215,2.824844,-26.22693,4.946152,0.4475079,0.4220193,1.0,0.2757568,0.3391113,0.8994141,34.87273,4.707184,-23.9323,5.115112,0.3806298,0.3287228,0.131636,1.272737,-0.3826036,-0.4201567,-0.05410346,-0.07853667,0.2985322,3.942352,32.65
4,0.2540436,0.2983246,0.9200134,1.0,0.2453156,0.2742615,0.9298248,-31.62221,2.765121,-26.20126,4.948196,0.451799,0.425845,1.0,0.2628326,0.3228302,0.9092255,34.82278,4.597717,-23.89505,5.099091,0.3846865,0.3347601,0.1316947,1.272724,-0.383294,-0.4218464,-0.05601525,-0.07926416,0.2985322,3.942352,32.65
4,0.2540436,0.2983246,0.9200134,1.0,0.2453156,0.2742615,0.9298248,-31.62221,2.765121,-26.20126,4.948196,0.451799,0.425845,1.0,0.2628326,0.3228302,0.9092255,34.82278,4.597717,-23.89505,5.099091,0.3846865,0.3347601,0.1316947,1.272724,-0.383294,-0.4218464,-0.05601525,-0.07926416,0.2985322,3.942352,32.65
4,0.2540436,0.2983246,0.9200134,1.0,0.2453156,0.2742615,0.9298248,-31.62221,2.765121,-26.20126,4.948196,0.451799,0.425845,1.0,0.2628326,0.3228302,0.9092255,34.82278,4.597717,-23.89505,5.099091,0.3846865,0.3347601,0.1316947,1.272724,-0.383294,-0.4218464,-0.05601525,-0.07926416,0.2985322,3.942352,32.65
4,0.2540436,0.2983246,0.9200134,1.0,0.2453156,0.2742615,0.9298248,-31.62221,2.765121,-26.20126,4.948196,0.451799,0.425845,1.0,0.2628326,0.3228302,0.9092255,34.82278,4.597717,-23.89505,5.099091,0.3846865,0.3347601,0.1316947,1.272724,-0.383294,-0.4218464,-0.05601525,-0.07926416,0.2985322,3.942352,32.65
4,0.2410583,0.289093,0.9264374,1.0,0.23349,0.2658997,0.9352875,-31.70287,2.677261,-26.17911,5.006943,0.4565204,0.4299269,1.0,0.248291,0.3115692,0.9172058,34.80112,4.52655,-23.86943,5.13562,0.3880169,0.3387902,0.1317352,1.272704,-0.383395,-0.4215653,-0.05706888,-0.07974023,0.2985322,3.942352,32.63
4,0.2410583,0.289093,0.9264374,1.0,0.23349,0.2658997,0.9352875,-31.70287,2.677261,-26.17911,5.006943,0.4565204,0.4299269,1.0,0.248291,0.3115692,0.9172058,34.80112,4.52655,-23.86943,5.13562,0.3880169,0.3387902,0.1317352,1.272704,-0.383395,-0.4215653,-0.05706888,-0.07974023,0.2985322,3.942352,32.63
4,0.2359924,0.2806702,0.9303284,1.0,0.2298126,0.2581635,0.9383545,-31.73254,2.617538,-26.168,4.946991,0.4581149,0.4329676,1.0,0.2425995,0.3051453,0.9208679,34.80363,4.446136,-23.85965,5.163513,0.388965,0.342467,0.1318041,1.272746,-0.3831948,-0.4209867,-0.05663642,-0.07926566,0.2985322,3.942352,32.63
4,0.2359924,0.2806702,0.9303284,1.0,0.2298126,0.2581635,0.9383545,-31.73254,2.617538,-26.168,4.946991,0.4581149,0.4329676,1.0,0.2425995,0.3051453,0.9208679,34.80363,4.446136,-23.85965,5.163513,0.388965,0.342467,0.1318041,1.272746,-0.3831948,-0.4209867,-0.05663642,-0.07926566,0.2985322,3.942352,32.63
4,0.2359924,0.2806702,0.9303284,1.0,0.2298126,0.2581635,0.9383545,-31.73254,2.617538,-26.168,4.946991,0.4581149,0.4329676,1.0,0.2425995,0.3051453,0.9208679,34.80363,4.446136,-23.85965,5.163513,0.388965,0.342467,0.1318041,1.272746,-0.3831948,-0.4209867,-0.05663642,-0.07926566,0.2985322,3.942352,32.63
4,0.2359924,0.2806702,0.9303284,1.0,0.2298126,0.2581635,0.9383545,-31.73254,2.617538,-26.168,4.946991,0.4581149,0.4329676,1.0,0.2425995,0.3051453,0.9208679,34.80363,4.446136,-23.85965,5.163513,0.388965,0.342467,0.1318041,1.272746,-0.3831948,-0.4209867,-0.05663642,-0.07926566,0.2985322,3.942352,32.63
4,0.2332458,0.2787933,0.9315796,1.0,0.2268829,0.2559357,0.939682,-31.74345,2.612381,-26.17055,4.933716,0.4589701,0.4334851,1.0,0.2395782,0.3019104,0.9227295,34.80049,4.427216,-23.86281,5.176346,0.3896071,0.3436484,0.1316983,1.272342,-0.3830019,-0.4204285,-0.05622859,-0.07857735,0.2985322,4.126999,32.63
4,0.2332458,0.2787933,0.9315796,1.0,0.2268829,0.2559357,0.939682,-31.74345,2.612381,-26.17055,4.933716,0.4589701,0.4334851,1.0,0.2395782,0.3019104,0.9227295,34.80049,4.427216,-23.86281,5.176346,0.3896071,0.3436484,0.1316983,1.272342,-0.3830019,-0.4204285,-0.05622859,-0.07857735,0.2985322,4.126999,32.63
4,0.2332458,0.2787933,0.9315796,1.0,0.2268829,0.2559357,0.939682,-31.74345,2.612381,-26.17055,4.933716,0.4589701,0.4334851,1.0,0.2395782,0.3019104,0.9227295,34.80049,4.427216,-23.86281,5.176346,0.3896071,0.3436484,0.1316983,1.272342,-0.3830019,-0.4204285,-0.05622859,-0.07857735,0.2985322,4.126999,32.63
4,0.2462006,0.2860565,0.9260406,1.0,0.2339935,0.2627258,0.9360504,-31.6409,2.644638,-26.20633,4.941223,0.4543567,0.4316457,1.0,0.2584839,0.3096771,0.9150238,34.88597,4.46727,-23.90884,5.17569,0.3834317,0.3414248,0.131307,1.272476,-0.382964,-0.4213745,-0.05616681,-0.07810888,0.2985322,4.126999,32.63
4,0.2462006,0.2860565,0.9260406,1.0,0.2339935,0.2627258,0.9360504,-31.6409,2.644638,-26.20633,4.941223,0.4543567,0.4316457,1.0,0.2584839,0.3096771,0.9150238,34.88597,4.46727,-23.90884,5.17569,0.3834317,0.3414248,0.131307,1.272476,-0.382964,-0.4213745,-0.05616681,-0.07810888,0.2985322,4.126999,32.63
4,0.2462006,0.2860565,0.9260406,1.0,0.2339935,0.2627258,0.9360504,-31.6409,2.644638,-26.20633,4.941223,0.4543567,0.4316457,1.0,0.2584839,0.3096771,0.9150238,34.88597,4.46727,-23.90884,5.17569,0.3834317,0.3414248,0.131307,1.272476,-0.382964,-0.4213745,-0.05616681,-0.07810888,0.2985322,4.126999,32.63
4,0.3115082,0.3008423,0.9013519,1.0,0.3013916,0.2705383,0.9143066,-31.32434,2.731705,-26.32994,4.977112,0.4323877,0.4289961,1.0,0.321991,0.3330383,0.8862152,35.14503,4.542511,-24.04483,5.269424,0.3634272,0.336307,0.130867,1.272602,-0.3829365,-0.4227762,-0.05675469,-0.07711444,0.2985322,4.126999,32.63
4,0.3115082,0.3008423,0.9013519,1.0,0.3013916,0.2705383,0.9143066,-31.32434,2.731705,-26.32994,4.977112,0.4323877,0.4289961,1.0,0.321991,0.3330383,0.8862152,35.14503,4.542511,-24.04483,5.269424,0.3634272,0.336307,0.130867,1.272602,-0.3829365,-0.4227762,-0.05675469,-0.07711444,0.2985322,4.126999,32.63
4,0.3115082,0.3008423,0.9013519,1.0,0.3013916,0.2705383,0.9143066,-31.32434,2.731705,-26.32994,4.977112,0.4323877,0.4289961,1.0,0.321991,0.3330383,0.8862152,35.14503,4.542511,-24.04483,5.269424,0.3634272,0.336307,0.130867,1.272602,-0.3829365,-0.4227762,-0.05675469,-0.07711444,0.2985322,4.126999,32.63
4,0.3097382,0.29776,0.9029846,1.0,0.3004608,0.2693634,0.9149628,-31.31912,2.724899,-26.33444,5.033691,0.4324121,0.4295046,1.0,0.3182068,0.3243103,0.8908081,35.19221,4.535782,-24.0388,5.246597,0.3625713,0.3378511,0.1305114,1.272704,-0.3828397,-0.4236165,-0.05818491,-0.07618166,0.2985322,2.490173,32.63
4,0.3097382,0.29776,0.9029846,1.0,0.3004608,0.2693634,0.9149628,-31.31912,2.724899,-26.33444,5.033691,0.4324121,0.4295046,1.0,0.3182068,0.3243103,0.8908081,35.19221,4.535782,-24.0388,5.246597,0.3625713,0.3378511,0.1305114,1.272704,-0.3828397,-0.4236165,-0.05818491,-0.07618166,0.2985322,2.490173,32.63
4,0.3097382,0.29776,0.9029846,1.0,0.3004608,0.2693634,0.9149628,-31.31912,2.724899,-26.33444,5.033691,0.4324121,0.4295046,1.0,0.3182068,0.3243103,0.8908081,35.19221,4.535782,-24.0388,5.246597,0.3625713,0.3378511,0.1305114,1.272704,-0.3828397,-0.4236165,-0.05818491,-0.07618166,0.2985322,2.490173,32.63
4,0.3097382,0.29776,0.9029846,1.0,0.3004608,0.2693634,0.9149628,-31.31912,2.724899,-26.33444,5.033691,0.4324121,0.4295046,1.0,0.3182068,0.3243103,0.8908081,35.19221,4.535782,-24.0388,5.246597,0.3625713,0.3378511,0.1305114,1.272704,-0.3828397,-0.4236165,-0.05818491,-0.07618166,0.2985322,2.490173,32.63
4,0.3097382,0.29776,0.9029846,1.0,0.3004608,0.2693634,0.9149628,-31.31912,2.724899,-26.33444,5.033691,0.4324121,0.4295046,1.0,0.3182068,0.3243103,0.8908081,35.19221,4.535782,-24.0388,5.246597,0.3625713,0.3378511,0.1305114,1.272704,-0.3828397,-0.4236165,-0.05818491,-0.07618166,0.2985322,2.490173,32.63
4,0.3097382,0.29776,0.9029846,1.0,0.3004608,0.2693634,0.9149628,-31.31912,2.724899,-26.33444,5.033691,0.4324121,0.4295046,1.0,0.3182068,0.3243103,0.8908081,35.19221,4.535782,-24.0388,5.246597,0.3625713,0.3378511,0.1305114,1.272704,-0.3828397,-0.4236165,-0.05818491,-0.07618166,0.2985322,2.490173,32.63
4,0.3097382,0.29776,0.9029846,1.0,0.3004608,0.2693634,0.9149628,-31.31912,2.724899,-26.33444,5.033691,0.4324121,0.4295046,1.0,0.3182068,0.3243103,0.8908081,35.19221,4.535782,-24.0388,5.246597,0.3625713,0.3378511,0.1305114,1.272704,-0.3828397,-0.4236165,-0.05818491,-0.07618166,0.2985322,2.490173,32.63
4,0.3097382,0.29776,0.9029846,1.0,0.3004608,0.2693634,0.9149628,-31.31912,2.724899,-26.33444,5.033691,0.4324121,0.4295046,1.0,0.3182068,0.3243103,0.8908081,35.19221,4.535782,-24.0388,5.246597,0.3625713,0.3378511,0.1305114,1.272704,-0.3828397,-0.4236165,-0.05818491,-0.07618166,0.2985322,2.490173,32.63
4,0.3097382,0.29776,0.9029846,1.0,0.3004608,0.2693634,0.9149628,-31.31912,2.724899,-26.33444,5.033691,0.4324121,0.4295046,1.0,0.3182068,0.3243103,0.8908081,35.19221,4.535782,-24.0388,5.246597,0.3625713,0.3378511,0.1305114,1.272704,-0.3828397,-0.4236165,-0.05818491,-0.07618166,0.2985322,2.490173,32.63
4,-1.0,-1.0,-1.0,0.8313331,0.0,0.0,0.0,-32.21313,3.556244,-26.02689,-1.0,0.4785492,0.4180709,0.6513665,0.0,0.0,0.0,34.69441,5.561951,-23.55283,-1.0,0.380258,0.3620679,0.1290237,1.272637,-0.383193,-0.4244848,-0.06568869,-0.07751197,0.2985322,2.490173,32.63
4,-1.0,-1.0,-1.0,0.8313331,0.0,0.0,0.0,-32.21313,3.556244,-26.02689,-1.0,0.4785492,0.4180709,0.6513665,0.0,0.0,0.0,34.69441,5.561951,-23.55283,-1.0,0.380258,0.3620679,0.1290237,1.272637,-0.383193,-0.4244848,-0.06568869,-0.07751197,0.2985322,2.490173,32.63
4,-1.0,-1.0,-1.0,0.523485,0.0,0.0,0.0,-33.38896,1.851303,-17.60457,-1.0,0.5169776,0.4578936,0.1638907,0.0,0.0,0.0,35.47632,3.614029,-23.91945,-1.0,0.3451225,0.4009061,0.1286734,1.272919,-0.3838696,-0.4265829,-0.0681911,-0.07830447,0.2985322,2.490173,32.63
4,-1.0,-1.0,-1.0,0.523485,0.0,0.0,0.0,-33.38896,1.851303,-17.60457,-1.0,0.5169776,0.4578936,0.1638907,0.0,0.0,0.0,35.47632,3.614029,-23.91945,-1.0,0.3451225,0.4009061,0.1286734,1.272919,-0.3838696,-0.4265829,-0.0681911,-0.07830447,0.2985322,2.490173,32.63
5,-1.0,-1.0,-1.0,0.523485,0.0,0.0,0.0,-33.38896,1.851303,-17.60457,-1.0,0.5169776,0.4578936,0.1638907,0.0,0.0,0.0,35.47632,3.614029,-23.91945,-1.0,0.3451225,0.4009061,0.1285062,1.273408,-0.3848505,-0.4309945,-0.06971969,-0.07878739,0.2934072,2.490173,32.63
5,-1.0,-1.0,-1.0,0.523485,0.0,0.0,0.0,-33.38896,1.851303,-17.60457,-1.0,0.5169776,0.4578936,0.1638907,0.0,0.0,0.0,35.47632,3.614029,-23.91945,-1.0,0.3451225,0.4009061,0.1285062,1.273408,-0.3848505,-0.4309945,-0.06971969,-0.07878739,0.2934072,2.490173,32.63
5,-1.0,-1.0,-1.0,0.523485,0.0,0.0,0.0,-33.38896,1.851303,-17.60457,-1.0,0.5169776,0.4578936,0.1638907,0.0,0.0,0.0,35.47632,3.614029,-23.91945,-1.0,0.3451225,0.4009061,0.1285062,1.273408,-0.3848505,-0.4309945,-0.06971969,-0.07878739,0.2934072,2.490173,32.63
5,-1.0,-1.0,-1.0,0.523485,0.0,0.0,0.0,-33.38896,1.851303,-17.60457,-1.0,0.5169776,0.4578936,0.1638907,0.0,0.0,0.0,35.47632,3.614029,-23.91945,-1.0,0.3451225,0.4009061,0.1285062,1.273408,-0.3848505,-0.4309945,-0.06971969,-0.07878739,0.2934072,2.490173,32.63
5,-1.0,-1.0,-1.0,0.523485,0.0,0.0,0.0,-33.18254,3.008118,-28.19112,-1.0,0.5403312,0.4682379,0.1638907,0.0,0.0,0.0,35.47632,3.614029,-23.91945,-1.0,-1.0,-1.0,0.128215,1.273866,-0.3859229,-0.4349647,-0.07195307,-0.07866529,0.2934072,-3.950317,32.63
5,-1.0,-1.0,-1.0,0.523485,0.0,0.0,0.0,-33.18254,3.008118,-28.19112,-1.0,0.5403312,0.4682379,0.1638907,0.0,0.0,0.0,35.47632,3.614029,-23.91945,-1.0,-1.0,-1.0,0.128215,1.273866,-0.3859229,-0.4349647,-0.07195307,-0.07866529,0.2934072,-3.950317,32.63
5,-1.0,-1.0,-1.0,0.6291139,0.0,0.0,0.0,-32.85703,3.360428,-26.03355,-1.0,0.5230334,0.412394,0.6088411,0.0,0.0,0.0,34.12985,5.383575,-23.64374,-1.0,0.4299371,0.3283325,0.1275221,1.274092,-0.3869901,-0.4386898,-0.07630166,-0.0778755,0.2934072,-3.950317,32.63
5,-1.0,-1.0,-1.0,0.6291139,0.0,0.0,0.0,-32.85703,3.360428,-26.03355,-1.0,0.5230334,0.412394,0.6088411,0.0,0.0,0.0,34.12985,5.383575,-23.64374,-1.0,0.4299371,0.3283325,0.1275221,1.274092,-0.3869901,-0.4386898,-0.07630166,-0.0778755,0.2934072,-3.950317,32.63
5,-1.0,-1.0,-1.0,0.6291139,0.0,0.0,0.0,-32.85703,3.360428,-26.03355,-1.0,0.5230334,0.412394,0.6088411,0.0,0.0,0.0,34.12985,5.383575,-23.64374,-1.0,0.4299371,0.3283325,0.1266996,1.274244,-0.3882216,-0.442236,-0.08150002,-0.07802175,0.2934072,-3.950317,32.63
5,-1.0,-1.0,-1.0,0.6291139,0.0,0.0,0.0,-32.85703,3.360428,-26.03355,-1.0,0.5230334,0.412394,0.6088411,0.0,0.0,0.0,34.12985,5.383575,-23.64374,-1.0,0.4299371,0.3283325,0.1266996,1.274244,-0.3882216,-0.442236,-0.08150002,-0.07802175,0.2934072,-3.950317,32.63
5,-1.0,-1.0,-1.0,0.6291139,0.0,0.0,0.0,-32.85703,3.360428,-26.03355,-1.0,0.5230334,0.412394,0.6088411,0.0,0.0,0.0,34.12985,5.383575,-23.64374,-1.0,0.4299371,0.3283325,0.1266996,1.274244,-0.3882216,-0.442236,-0.08150002,-0.07802175,0.2934072,-3.950317,32.63
5,-1.0,-1.0,-1.0,0.6291139,0.0,0.0,0.0,-32.88348,3.373352,-26.01167,-1.0,0.5256292,0.4153976,0.6088411,0.0,0.0,0.0,34.11305,5.22258,-23.65585,-1.0,0.4344819,0.3300826,0.1260539,1.274299,-0.3889784,-0.4442673,-0.08730144,-0.07941769,0.2934072,-3.950317,32.63
5,-1.0,-1.0,-1.0,0.6291139,0.0,0.0,0.0,-32.88348,3.373352,-26.01167,-1.0,0.5256292,0.4153976,0.6088411,0.0,0.0,0.0,34.11305,5.22258,-23.65585,-1.0,0.4344819,0.3300826,0.1260539,1.274299,-0.3889784,-0.4442673,-0.08730144,-0.07941769,0.2934072,-3.950317,32.63
5,-1.0,-1.0,-1.0,0.6291139,0.0,0.0,0.0,-32.88348,3.373352,-26.01167,-1.0,0.5256292,0.4153976,0.6088411,0.0,0.0,0.0,34.11305,5.22258,-23.65585,-1.0,0.4344819,0.3300826,0.1260539,1.274299,-0.3889784,-0.4442673,-0.08730144,-0.07941769,0.2934072,-3.950317,32.63
5,-0.01106262,0.2769318,0.9608154,0.9290538,-0.03999329,0.2281494,0.9727936,-33.30772,2.508713,-26.0047,5.055328,0.5549316,0.4398577,0.9415088,-0.01106262,0.2769318,0.9608154,33.48906,4.430923,-23.6541,5.44191,0.4752142,0.346511,0.1253992,1.274381,-0.389694,-0.4451239,-0.09297207,-0.08084742,0.2934072,-3.950317,32.63
5,-0.01106262,0.2769318,0.9608154,0.9290538,-0.03999329,0.2281494,0.9727936,-33.30772,2.508713,-26.0047,5.055328,0.5549316,0.4398577,0.9415088,-0.01106262,0.2769318,0.9608154,33.48906,4.430923,-23.6541,5.44191,0.4752142,0.346511,0.1253992,1.274381,-0.389694,-0.4451239,-0.09297207,-0.08084742,0.2934072,-3.950317,32.63
5,-0.01106262,0.2769318,0.9608154,0.9290538,-0.03999329,0.2281494,0.9727936,-33.30772,2.508713,-26.0047,5.055328,0.5549316,0.4398577,0.9415088,-0.01106262,0.2769318,0.9608154,33.48906,4.430923,-23.6541,5.44191,0.4752142,0.346511,0.1253992,1.274381,-0.389694,-0.4451239,-0.09297207,-0.08084742,0.2934072,-3.950317,32.63
5,-0.01266479,0.2549744,0.9668579,1.0,-0.04058838,0.2503357,0.9673004,-33.39809,2.083389,-25.12592,5.151474,0.5574577,0.4429842,1.0,-0.01264954,0.2549744,0.9668579,33.44507,4.350464,-23.6541,5.374573,0.4768988,0.3526633,0.1251941,1.274443,-0.3899381,-0.4455798,-0.09685524,-0.08179075,0.2934072,-3.950317,32.63
5,-0.01266479,0.2549744,0.9668579,1.0,-0.04058838,0.2503357,0.9673004,-33.39809,2.083389,-25.12592,5.151474,0.5574577,0.4429842,1.0,-0.01264954,0.2549744,0.9668579,33.44507,4.350464,-23.6541,5.374573,0.4768988,0.3526633,0.1251941,1.274443,-0.3899381,-0.4455798,-0.09685524,-0.08179075,0.2934072,-3.950317,32.63
5,-0.01266479,0.2549744,0.9668579,1.0,-0.04058838,0.2503357,0.9673004,-33.39809,2.083389,-25.12592,5.151474,0.5574577,0.4429842,1.0,-0.01264954,0.2549744,0.9668579,33.44507,4.350464,-23.6541,5.374573,0.4768988,0.3526633,0.1251941,1.274443,-0.3899381,-0.4455798,-0.09685524,-0.08179075,0.2934072,-3.950317,32.63
5,-0.03814697,0.2553406,0.966095,1.0,-0.05680847,0.2386017,0.9694366,-33.46588,2.074097,-25.21771,5.222122,0.5623799,0.4460402,1.0,-0.03814697,0.2553406,0.966095,33.34973,4.159241,-23.58659,5.338226,0.4842135,0.3584352,0.1250027,1.274435,-0.3899932,-0.4454028,-0.09855279,-0.08227385,0.2934072,-3.950317,32.63
5,-0.03814697,0.2553406,0.966095,1.0,-0.05680847,0.2386017,0.9694366,-33.46588,2.074097,-25.21771,5.222122,0.5623799,0.4460402,1.0,-0.03814697,0.2553406,0.966095,33.34973,4.159241,-23.58659,5.338226,0.4842135,0.3584352,0.1250027,1.274435,-0.3899932,-0.4454028,-0.09855279,-0.08227385,0.2934072,-3.950317,32.63
5,-0.03135681,0.254364,0.9665833,1.0,-0.06776428,0.2302399,0.9707642,-33.49332,2.227829,-25.72939,5.12265,0.56544,0.4465913,1.0,-0.03135681,0.2543793,0.9665833,33.30632,4.133469,-23.5961,5.346008,0.4845247,0.3595229,0.1250073,1.274389,-0.3897872,-0.4447779,-0.09922846,-0.08239982,0.2934072,-4.37793,32.63
5,-0.03135681,0.254364,0.9665833,1.0,-0.06776428,0.2302399,0.9707642,-33.49332,2.227829,-25.72939,5.12265,0.56544,0.4465913,1.0,-0.03135681,0.2543793,0.9665833,33.30632,4.133469,-23.5961,5.346008,0.4845247,0.3595229,0.1250073,1.274389,-0.3897872,-0.4447779,-0.09922846,-0.08239982,0.2934072,-4.37793,32.63
5,-0.03135681,0.254364,0.9665833,1.0,-0.06776428,0.2302399,0.9707642,-33.49332,2.227829,-25.72939,5.12265,0.56544,0.4465913,1.0,-0.03135681,0.2543793,0.9665833,33.30632,4.133469,-23.5961,5.346008,0.4845247,0.3595229,0.1250635,1.274414,-0.3895144,-0.4444453,-0.09893232,-0.0823819,0.2934072,-4.37793,32.63
5,-0.03135681,0.254364,0.9665833,1.0,-0.06776428,0.2302399,0.9707642,-33.49332,2.227829,-25.72939,5.12265,0.56544,0.4465913,1.0,-0.03135681,0.2543793,0.9665833,33.30632,4.133469,-23.5961,5.346008,0.4845247,0.3595229,0.1250635,1.274414,-0.3895144,-0.4444453,-0.09893232,-0.0823819,0.2934072,-4.37793,32.63
5,-0.03135681,0.254364,0.9665833,1.0,-0.06776428,0.2302399,0.9707642,-33.49332,2.227829,-25.72939,5.12265,0.56544,0.4465913,1.0,-0.03135681,0.2543793,0.9665833,33.30632,4.133469,-23.5961,5.346008,0.4845247,0.3595229,0.1251783,1.274482,-0.3892534,-0.4435294,-0.09796377,-0.082345,0.2934072,-4.37793,32.63
5,-0.03135681,0.254364,0.9665833,1.0,-0.06776428,0.2302399,0.9707642,-33.49332,2.227829,-25.72939,5.12265,0.56544,0.4465913,1.0,-0.03135681,0.2543793,0.9665833,33.30632,4.133469,-23.5961,5.346008,0.4845247,0.3595229,0.1251783,1.274482,-0.3892534,-0.4435294,-0.09796377,-0.082345,0.2934072,-4.37793,32.63
5,-0.03941345,0.2492523,0.9676208,1.0,-0.06634521,0.2280731,0.9713745,-33.52112,2.212158,-25.71748,5.127502,0.5661051,0.4473492,1.0,-0.03919983,0.2494202,0.9675903,33.28473,4.125931,-23.5961,5.356155,0.4865159,0.3605983,0.1253413,1.274451,-0.388707,-0.4417154,-0.09711973,-0.08284582,0.2934072,-4.37793,32.63
5,-0.03941345,0.2492523,0.9676208,1.0,-0.06634521,0.2280731,0.9713745,-33.52112,2.212158,-25.71748,5.127502,0.5661051,0.4473492,1.0,-0.03919983,0.2494202,0.9675903,33.28473,4.125931,-23.5961,5.356155,0.4865159,0.3605983,0.1253413,1.274451,-0.388707,-0.4417154,-0.09711973,-0.08284582,0.2934072,-4.37793,32.63
5,-0.04133606,0.2462158,0.9683228,1.0,-0.06990051,0.2373199,0.9689026,-33.57138,2.113159,-25.62692,5.110092,0.5682987,0.4483411,1.0,-0.03955078,0.2467651,0.9682617,33.23222,4.09967,-23.57608,5.352142,0.4882977,0.3617438,0.1253296,1.274508,-0.3880887,-0.4396175,-0.09640247,-0.08307546,0.2934072,-4.37793,32.63
5,-0.04133606,0.2462158,0.9683228,1.0,-0.06990051,0.2373199,0.9689026,-33.57138,2.113159,-25.62692,5.110092,0.5682987,0.4483411,1.0,-0.03955078,0.2467651,0.9682617,33.23222,4.09967,-23.57608,5.352142,0.4882977,0.3617438,0.1253296,1.274508,-0.3880887,-0.4396175,-0.09640247,-0.08307546,0.2934072,-4.37793,32.63
5,-0.05592346,0.2489319,0.9669037,1.0,-0.07530212,0.2286835,0.9705811,-33.54219,2.142868,-25.67271,5.215836,0.5682374,0.4492826,1.0,-0.04441833,0.2608337,0.9643555,33.18787,4.022247,-23.55956,5.374649,0.4905722,0.3619579,0.1249005,1.274107,-0.3878686,-0.4378146,-0.0963653,-0.08291594,0.2934072,-4.37793,32.63
5,-0.05592346,0.2489319,0.9669037,1.0,-0.07530212,0.2286835,0.9705811,-33.54219,2.142868,-25.67271,5.215836,0.5682374,0.4492826,1.0,-0.04441833,0.2608337,0.9643555,33.18787,4.022247,-23.55956,5.374649,0.4905722,0.3619579,0.1249005,1.274107,-0.3878686,-0.4378146,-0.0963653,-0.08291594,0.2934072,-4.37793,32.63
5,-0.05297852,0.2514648,0.9664001,1.0,-0.07066345,0.2326355,0.969986,-33.50246,2.19075,-25.72997,5.188416,0.5662172,0.447514,1.0,-0.04267883,0.2623291,0.9640198,33.20776,4.034927,-23.5786,5.404617,0.4896316,0.3614696,0.1247597,1.273921,-0.387345,-0.4361604,-0.09661555,-0.08313804,0.2934072,-4.37793,32.63
5,-0.05297852,0.2514648,0.9664001,1.0,-0.07066345,0.2326355,0.969986,-33.50246,2.19075,-25.72997,5.188416,0.5662172,0.447514,1.0,-0.04267883,0.2623291,0.9640198,33.20776,4.034927,-23.5786,5.404617,0.4896316,0.3614696,0.1247597,1.273921,-0.387345,-0.4361604,-0.09661555,-0.08313804,0.2934072,-4.37793,32.63
5,-0.05213928,0.2541656,0.965744,1.0,-0.06918335,0.2362823,0.9692078,-33.49451,2.197266,-25.73328,5.191177,0.5657231,0.44674,1.0,-0.04309082,0.2635651,0.9636688,33.20992,4.046158,-23.5786,5.409088,0.4896316,0.3609092,0.1247357,1.273726,-0.3867797,-0.4346156,-0.09685639,-0.08364507,0.2934072,-4.37793,32.63
5,-0.05213928,0.2541656,0.965744,1.0,-0.06918335,0.2362823,0.9692078,-33.49451,2.197266,-25.73328,5.191177,0.5657231,0.44674,1.0,-0.04309082,0.2635651,0.9636688,33.20992,4.046158,-23.5786,5.409088,0.4896316,0.3609092,0.1247357,1.273726,-0.3867797,-0.4346156,-0.09685639,-0.08364507,0.2934072,-4.37793,32.63
5,-0.0537262,0.2505646,0.9665985,1.0,-0.07089233,0.2365112,0.9690247,-33.48499,2.207184,-25.73232,5.228683,0.5656898,0.4464116,1.0,-0.03970337,0.2619476,0.9642487,33.20523,4.065659,-23.58012,5.433044,0.4892257,0.3605535,0.1247009,1.273674,-0.3861792,-0.4332615,-0.09698278,-0.08439846,0.2934072,9.044281,32.63
5,-0.0537262,0.2505646,0.9665985,1.0,-0.07089233,0.2365112,0.9690247,-33.48499,2.207184,-25.73232,5.228683,0.5656898,0.4464116,1.0,-0.03970337,0.2619476,0.9642487,33.20523,4.065659,-23.58012,5.433044,0.4892257,0.3605535,0.1247009,1.273674,-0.3861792,-0.4332615,-0.09698278,-0.08439846,0.2934072,9.044281,32.63
5,-0.05374146,0.2498474,0.9667816,1.0,-0.06948853,0.237854,0.9687958,-33.4794,2.214066,-25.72806,5.230118,0.5652755,0.4459366,1.0,-0.03778076,0.2618866,0.9643555,33.20502,4.084152,-23.57936,5.438614,0.4889192,0.359947,0.1246549,1.273637,-0.3855679,-0.4322988,-0.09736307,-0.0849961,0.2934072,9.044281,32.63
5,-0.05374146,0.2498474,0.9667816,1.0,-0.06948853,0.237854,0.9687958,-33.4794,2.214066,-25.72806,5.230118,0.5652755,0.4459366,1.0,-0.03778076,0.2618866,0.9643555,33.20502,4.084152,-23.57936,5.438614,0.4889192,0.359947,0.1246549,1.273637,-0.3855679,-0.4322988,-0.09736307,-0.0849961,0.2934072,9.044281,32.63
5,-0.0536499,0.2510529,0.9664764,1.0,-0.06976318,0.2386017,0.9685974,-33.47444,2.21553,-25.72966,5.235611,0.5651577,0.4457923,1.0,-0.03771973,0.2632446,0.963974,33.20717,4.100067,-23.5804,5.447418,0.4888438,0.3592269,0.1244835,1.273625,-0.3850751,-0.4309828,-0.09793182,-0.08511295,0.2934072,9.044281,32.63
5,-0.0536499,0.2510529,0.9664764,1.0,-0.06976318,0.2386017,0.9685974,-33.47444,2.21553,-25.72966,5.235611,0.5651577,0.4457923,1.0,-0.03771973,0.2632446,0.963974,33.20717,4.100067,-23.5804,5.447418,0.4888438,0.3592269,0.1244835,1.273625,-0.3850751,-0.4309828,-0.09793182,-0.08511295,0.2934072,9.044281,32.63
5,-0.05578613,0.2610779,0.9636993,1.0,-0.07563782,0.2530212,0.9644928,-33.39922,2.310364,-25.75568,5.286148,0.5637046,0.4406649,1.0,-0.03715515,0.2685242,0.9625397,33.21071,4.136551,-23.58394,5.452484,0.4886506,0.3572005,0.1242703,1.273499,-0.3846285,-0.4297196,-0.09854046,-0.08511934,0.2934072,9.044281,32.63
5,-0.05578613,0.2610779,0.9636993,1.0,-0.07563782,0.2530212,0.9644928,-33.39922,2.310364,-25.75568,5.286148,0.5637046,0.4406649,1.0,-0.03715515,0.2685242,0.9625397,33.21071,4.136551,-23.58394,5.452484,0.4886506,0.3572005,0.1242703,1.273499,-0.3846285,-0.4297196,-0.09854046,-0.08511934,0.2934072,9.044281,32.63
5,-0.06671143,0.2290039,0.9711304,1.0,-0.08686829,0.2234039,0.9708405,-33.41275,2.017044,-25.60866,5.390167,0.5657851,0.453936,1.0,-0.05325317,0.2326813,0.9710846,33.07077,3.880768,-23.57567,5.464966,0.4957928,0.371395,0.124127,1.273375,-0.3840435,-0.4285466,-0.09914695,-0.08486336,0.2934072,9.044281,32.63
5,-0.06671143,0.2290039,0.9711304,1.0,-0.08686829,0.2234039,0.9708405,-33.41275,2.017044,-25.60866,5.390167,0.5657851,0.453936,1.0,-0.05325317,0.2326813,0.9710846,33.07077,3.880768,-23.57567,5.464966,0.4957928,0.371395,0.124127,1.273375,-0.3840435,-0.4285466,-0.09914695,-0.08486336,0.2934072,9.044281,32.63
5,-0.09246826,0.07087708,0.9931793,1.0,-0.09506226,0.04644775,0.9943848,-33.50903,2.096466,-27.54468,5.136276,0.5714418,0.4967212,1.0,-0.09246826,0.07087708,0.9931793,32.59511,3.33606,-24.01125,5.260559,0.5175665,0.4188344,0.1241741,1.273262,-0.3833935,-0.4274289,-0.09935121,-0.08491874,0.2934072,9.044281,32.63
5,-0.09246826,0.07087708,0.9931793,1.0,-0.09506226,0.04644775,0.9943848,-33.50903,2.096466,-27.54468,5.136276,0.5714418,0.4967212,1.0,-0.09246826,0.07087708,0.9931793,32.59511,3.33606,-24.01125,5.260559,0.5175665,0.4188344,0.1241741,1.273262,-0.3833935,-0.4274289,-0.09935121,-0.08491874,0.2934072,9.044281,32.63
5,-0.1419983,-0.06469727,0.9877472,1.0,-0.148407,-0.05801392,0.9872131,-33.56873,1.328323,-26.23862,5.136795,0.5809739,0.5278393,1.0,-0.141983,-0.06469727,0.9877472,32.2666,3.064438,-24.62457,5.253799,0.5364193,0.4554065,0.1240264,1.273157,-0.3827634,-0.4256053,-0.09881341,-0.08474186,0.2934072,9.044281,32.63
5,-0.1419983,-0.06469727,0.9877472,1.0,-0.148407,-0.05801392,0.9872131,-33.56873,1.328323,-26.23862,5.136795,0.5809739,0.5278393,1.0,-0.141983,-0.06469727,0.9877472,32.2666,3.064438,-24.62457,5.253799,0.5364193,0.4554065,0.1240264,1.273157,-0.3827634,-0.4256053,-0.09881341,-0.08474186,0.2934072,9.044281,32.63
5,-0.1741486,-0.1090088,0.978653,1.0,-0.2016144,-0.1029663,0.9740295,-33.64565,1.111664,-25.86989,5.080002,0.5918753,0.5394821,1.0,-0.1741486,-0.1090088,0.978653,32.18701,2.768707,-23.92546,5.237564,0.5438187,0.4666852,0.1240396,1.273028,-0.3820562,-0.4235785,-0.0981903,-0.08487539,0.2934072,9.044281,32.63
5,-0.1741486,-0.1090088,0.978653,1.0,-0.2016144,-0.1029663,0.9740295,-33.64565,1.111664,-25.86989,5.080002,0.5918753,0.5394821,1.0,-0.1741486,-0.1090088,0.978653,32.18701,2.768707,-23.92546,5.237564,0.5438187,0.4666852,0.1240396,1.273028,-0.3820562,-0.4235785,-0.0981903,-0.08487539,0.2934072,9.044281,32.63
5,-0.1646881,-0.1058502,0.9806366,1.0,-0.1936951,-0.09849548,0.9760895,-33.78792,1.120621,-25.88322,5.131729,0.5952892,0.5385325,1.0,-0.1646729,-0.1058502,0.9806366,32.24191,2.840347,-24.01167,5.183014,0.5405432,0.4644296,0.1241771,1.272924,-0.3813305,-0.4211652,-0.09733315,-0.08506786,0.2934072,11.32159,32.63
5,-0.1646881,-0.1058502,0.9806366,1.0,-0.1936951,-0.09849548,0.9760895,-33.78792,1.120621,-25.88322,5.131729,0.5952892,0.5385325,1.0,-0.1646729,-0.1058502,0.9806366,32.24191,2.840347,-24.01167,5.183014,0.5405432,0.4644296,0.1241771,1.272924,-0.3813305,-0.4211652,-0.09733315,-0.08506786,0.2934072,11.32159,32.63
5,-0.1964874,-0.08787537,0.9765472,1.0,-0.1965485,-0.08786011,0.9765472,-33.84373,1.147324,-25.8842,5.13031,0.5976225,0.5359182,1.0,-0.1652527,-0.09281921,0.9818573,32.25873,2.905853,-24.08215,5.185272,0.5401501,0.4607316,0.1243443,1.272717,-0.3804824,-0.4187199,-0.09597584,-0.08529842,0.2934072,11.32159,32.63
5,-0.1964874,-0.08787537,0.9765472,1.0,-0.1965485,-0.08786011,0.9765472,-33.84373,1.147324,-25.8842,5.13031,0.5976225,0.5359182,1.0,-0.1652527,-0.09281921,0.9818573,32.25873,2.905853,-24.08215,5.185272,0.5401501,0.4607316,0.1243443,1.272717,-0.3804824,-0.4187199,-0.09597584,-0.08529842,0.2934072,11.32159,32.63
5,-0.1727295,-0.08398438,0.981369,1.0,-0.1952667,-0.06987,0.978241,-33.87595,1.164108,-25.89748,5.08699,0.5985308,0.5324637,1.0,-0.1612854,-0.09109497,0.9826813,32.2858,2.965546,-24.15919,5.200668,0.53865,0.4591145,0.1246144,1.272543,-0.3795233,-0.4159841,-0.09442444,-0.08578799,0.2934072,11.32159,32.63
5,-0.1727295,-0.08398438,0.981369,1.0,-0.1952667,-0.06987,0.978241,-33.87595,1.164108,-25.89748,5.08699,0.5985308,0.5324637,1.0,-0.1612854,-0.09109497,0.9826813,32.2858,2.965546,-24.15919,5.200668,0.53865,0.4591145,0.1246144,1.272543,-0.3795233,-0.4159841,-0.09442444,-0.08578799,0.2934072,11.32159,32.63
5,-0.1830292,-0.07759094,0.9800262,1.0,-0.1896973,-0.07247925,0.9791565,-33.88928,1.169388,-25.89059,5.147537,0.5980301,0.5326518,1.0,-0.1663666,-0.09028625,0.9819183,32.30148,2.981018,-24.1456,5.148087,0.5389748,0.4583675,0.1248842,1.272367,-0.3785951,-0.4134262,-0.09266375,-0.08697448,0.2934072,11.32159,32.63
5,-0.1830292,-0.07759094,0.9800262,1.0,-0.1896973,-0.07247925,0.9791565,-33.88928,1.169388,-25.89059,5.147537,0.5980301,0.5326518,1.0,-0.1663666,-0.09028625,0.9819183,32.30148,2.981018,-24.1456,5.148087,0.5389748,0.4583675,0.1248842,1.272367,-0.3785951,-0.4134262,-0.09266375,-0.08697448,0.2934072,11.32159,32.63
5,-0.1830292,-0.07759094,0.9800262,1.0,-0.1896973,-0.07247925,0.9791565,-33.88928,1.169388,-25.89059,5.147537,0.5980301,0.5326518,1.0,-0.1663666,-0.09028625,0.9819183,32.30148,2.981018,-24.1456,5.148087,0.5389748,0.4583675,0.1253511,1.272228,-0.3776037,-0.411205,-0.0905012,-0.08834577,0.2934072,11.32159,32.63
5,-0.1830292,-0.07759094,0.9800262,1.0,-0.1896973,-0.07247925,0.9791565,-33.88928,1.169388,-25.89059,5.147537,0.5980301,0.5326518,1.0,-0.1663666,-0.09028625,0.9819183,32.30148,2.981018,-24.1456,5.148087,0.5389748,0.4583675,0.1253511,1.272228,-0.3776037,-0.411205,-0.0905012,-0.08834577,0.2934072,11.32159,32.63
5,-0.1864777,-0.07940674,0.9792328,1.0,-0.1943054,-0.07635498,0.977951,-33.90138,1.176895,-25.89622,5.156296,0.5991859,0.5331426,1.0,-0.1648865,-0.08776855,0.9823914,32.3107,3.012955,-24.20261,5.067429,0.5384958,0.457333,0.1258775,1.272046,-0.3765638,-0.4089419,-0.08818303,-0.08967151,0.2934072,11.32159,32.63
5,-0.1864777,-0.07940674,0.9792328,1.0,-0.1943054,-0.07635498,0.977951,-33.90138,1.176895,-25.89622,5.156296,0.5991859,0.5331426,1.0,-0.1648865,-0.08776855,0.9823914,32.3107,3.012955,-24.20261,5.067429,0.5384958,0.457333,0.1258775,1.272046,-0.3765638,-0.4089419,-0.08818303,-0.08967151,0.2934072,11.32159,32.63
5,-0.1873932,-0.07505798,0.9794006,1.0,-0.1929169,-0.07290649,0.9784851,-33.91444,1.181915,-25.89442,5.145065,0.5993982,0.5323678,1.0,-0.16745,-0.08273315,0.9823914,32.3175,3.040894,-24.24916,5.155197,0.5386905,0.45604,0.1262544,1.27184,-0.3755394,-0.4063565,-0.08590646,-0.09065987,0.2934072,-0.556015,32.63
5,-0.1873932,-0.07505798,0.9794006,1.0,-0.1929169,-0.07290649,0.9784851,-33.91444,1.181915,-25.89442,5.145065,0.5993982,0.5323678,1.0,-0.16745,-0.08273315,0.9823914,32.3175,3.040894,-24.24916,5.155197,0.5386905,0.45604,0.1262544,1.27184,-0.3755394,-0.4063565,-0.08590646,-0.09065987,0.2934072,-0.556015,32.63
5,-0.1873932,-0.07505798,0.9794006,1.0,-0.1929169,-0.07290649,0.9784851,-33.91444,1.181915,-25.89442,5.145065,0.5993982,0.5323678,1.0,-0.16745,-0.08273315,0.9823914,32.3175,3.040894,-24.24916,5.155197,0.5386905,0.45604,0.1265823,1.271493,-0.3743633,-0.4030209,-0.08400345,-0.0912009,0.2934072,-0.556015,32.63
5,-0.1873932,-0.07505798,0.9794006,1.0,-0.1929169,-0.07290649,0.9784851,-33.91444,1.181915,-25.89442,5.145065,0.5993982,0.5323678,1.0,-0.16745,-0.08273315,0.9823914,32.3175,3.040894,-24.24916,5.155197,0.5386905,0.45604,0.1265823,1.271493,-0.3743633,-0.4030209,-0.08400345,-0.0912009,0.2934072,-0.556015,32.63
5,-0.158371,-0.03439331,0.9867706,1.0,-0.158371,-0.03439331,0.9867706,-33.86632,1.334595,-25.91307,5.157867,0.5922076,0.5208751,1.0,-0.1142883,-0.05670166,0.9918213,32.46825,3.550644,-25.51672,5.055786,0.5256737,0.4453089,0.1266257,1.271164,-0.3730569,-0.3991163,-0.08243001,-0.0912076,0.2934072,-0.556015,32.63
5,-0.158371,-0.03439331,0.9867706,1.0,-0.158371,-0.03439331,0.9867706,-33.86632,1.334595,-25.91307,5.157867,0.5922076,0.5208751,1.0,-0.1142883,-0.05670166,0.9918213,32.46825,3.550644,-25.51672,5.055786,0.5256737,0.4453089,0.1266257,1.271164,-0.3730569,-0.3991163,-0.08243001,-0.0912076,0.2934072,-0.556015,32.63
5,-0.1697235,-0.04930115,0.9842529,1.0,-0.1697235,-0.04930115,0.9842529,-33.89325,1.198975,-25.7775,5.048279,0.594839,0.5265813,1.0,-0.1224976,-0.0635376,0.9904175,32.39462,3.473907,-25.61981,5.027878,0.5295098,0.4499263,0.1268072,1.27087,-0.3716865,-0.3948603,-0.08106241,-0.09084836,0.2934072,-0.556015,32.63
5,-0.1697235,-0.04930115,0.9842529,1.0,-0.1697235,-0.04930115,0.9842529,-33.89325,1.198975,-25.7775,5.048279,0.594839,0.5265813,1.0,-0.1224976,-0.0635376,0.9904175,32.39462,3.473907,-25.61981,5.027878,0.5295098,0.4499263,0.1268072,1.27087,-0.3716865,-0.3948603,-0.08106241,-0.09084836,0.2934072,-0.556015,32.63
5,-0.2897186,-0.1282654,0.9484711,1.0,-0.2897186,-0.1282654,0.9484711,-34.07156,1.016769,-25.99304,5.253723,0.6205944,0.5491838,1.0,-0.2696533,-0.1500092,0.9511871,31.86397,2.756516,-24.50697,5.204636,0.5704599,0.4800425,0.126821,1.270613,-0.3701235,-0.3903862,-0.07925157,-0.09055364,0.2934072,-0.556015,32.63
5,-0.2897186,-0.1282654,0.9484711,1.0,-0.2897186,-0.1282654,0.9484711,-34.07156,1.016769,-25.99304,5.253723,0.6205944,0.5491838,1.0,-0.2696533,-0.1500092,0.9511871,31.86397,2.756516,-24.50697,5.204636,0.5704599,0.4800425,0.126821,1.270613,-0.3701235,-0.3903862,-0.07925157,-0.09055364,0.2934072,-0.556015,32.63
5,-0.3682556,-0.183075,0.9115143,1.0,-0.3682556,-0.183075,0.9115143,-34.26372,0.9056244,-26.09065,5.176987,0.6403148,0.5644636,1.0,-0.3461151,-0.1889496,0.9189606,31.57779,2.553009,-24.66663,5.183365,0.5927532,0.4960182,0.1268804,1.270307,-0.368462,-0.3858695,-0.07754905,-0.09023292,0.2934072,-0.556015,32.63
5,-0.3682556,-0.183075,0.9115143,1.0,-0.3682556,-0.183075,0.9115143,-34.26372,0.9056244,-26.09065,5.176987,0.6403148,0.5644636,1.0,-0.3461151,-0.1889496,0.9189606,31.57779,2.553009,-24.66663,5.183365,0.5927532,0.4960182,0.1268804,1.270307,-0.368462,-0.3858695,-0.07754905,-0.09023292,0.2934072,-0.556015,32.63
5,-0.3682556,-0.183075,0.9115143,1.0,-0.3682556,-0.183075,0.9115143,-34.26372,0.9056244,-26.09065,5.176987,0.6403148,0.5644636,1.0,-0.3461151,-0.1889496,0.9189606,31.57779,2.553009,-24.66663,5.183365,0.5927532,0.4960182,0.1270756,1.269922,-0.3668039,-0.3817642,-0.07545545,-0.08996408,0.2934072,-0.556015,32.63
5,-0.3682556,-0.183075,0.9115143,1.0,-0.3682556,-0.183075,0.9115143,-34.26372,0.9056244,-26.09065,5.176987,0.6403148,0.5644636,1.0,-0.3461151,-0.1889496,0.9189606,31.57779,2.553009,-24.66663,5.183365,0.5927532,0.4960182,0.1270756,1.269922,-0.3668039,-0.3817642,-0.07545545,-0.08996408,0.2934072,-0.556015,32.63
5,-0.3682556,-0.183075,0.9115143,1.0,-0.3682556,-0.183075,0.9115143,-34.26372,0.9056244,-26.09065,5.176987,0.6403148,0.5644636,1.0,-0.3461151,-0.1889496,0.9189606,31.57779,2.553009,-24.66663,5.183365,0.5927532,0.4960182,0.1272703,1.269569,-0.3651605,-0.3774225,-0.07338274,-0.08998702,0.2934072,-0.556015,32.63
5,-0.3682556,-0.183075,0.9115143,1.0,-0.3682556,-0.183075,0.9115143,-34.26372,0.9056244,-26.09065,5.176987,0.6403148,0.5644636,1.0,-0.3461151,-0.1889496,0.9189606,31.57779,2.553009,-24.66663,5.183365,0.5927532,0.4960182,0.1272703,1.269569,-0.3651605,-0.3774225,-0.07338274,-0.08998702,0.2934072,-0.556015,32.63
5,-0.3610992,-0.1764069,0.9156799,1.0,-0.3611145,-0.1763916,0.9156799,-34.36333,0.9205933,-26.10304,5.134186,0.6425041,0.562796,1.0,-0.3399811,-0.1941071,0.920166,31.62634,2.604874,-24.63713,5.261337,0.5900102,0.4948296,0.127349,1.269178,-0.3634883,-0.3730465,-0.07154966,-0.09008954,0.2934072,-10.42383,32.63
5,-0.3610992,-0.1764069,0.9156799,1.0,-0.3611145,-0.1763916,0.9156799,-34.36333,0.9205933,-26.10304,5.134186,0.6425041,0.562796,1.0,-0.3399811,-0.1941071,0.920166,31.62634,2.604874,-24.63713,5.261337,0.5900102,0.4948296,0.127349,1.269178,-0.3634883,-0.3730465,-0.07154966,-0.09008954,0.2934072,-10.42383,32.63
5,-0.3610992,-0.1764069,0.9156799,1.0,-0.3611145,-0.1763916,0.9156799,-34.36333,0.9205933,-26.10304,5.134186,0.6425041,0.562796,1.0,-0.3399811,-0.1941071,0.920166,31.62634,2.604874,-24.63713,5.261337,0.5900102,0.4948296,0.127349,1.269178,-0.3634883,-0.3730465,-0.07154966,-0.09008954,0.2934072,-10.42383,32.63
5,-0.3408813,-0.1669922,0.9251404,1.0,-0.3522949,-0.1650696,0.9212036,-34.42744,1.015137,-26.07967,5.138,0.6431358,0.5573384,1.0,-0.327301,-0.1692505,0.9296265,31.70085,2.761673,-24.57484,5.026642,0.5856035,0.4845442,0.1273634,1.268926,-0.3625519,-0.3709278,-0.07078258,-0.09014469,0.2934072,-10.42383,32.63
5,-0.3408813,-0.1669922,0.9251404,1.0,-0.3522949,-0.1650696,0.9212036,-34.42744,1.015137,-26.07967,5.138,0.6431358,0.5573384,1.0,-0.327301,-0.1692505,0.9296265,31.70085,2.761673,-24.57484,5.026642,0.5856035,0.4845442,0.127381,1.268583,-0.3608674,-0.3669471,-0.06874444,-0.0899413,0.2934072,-10.42383,32.63
5,-0.3408813,-0.1669922,0.9251404,1.0,-0.3522949,-0.1650696,0.9212036,-34.42744,1.015137,-26.07967,5.138,0.6431358,0.5573384,1.0,-0.327301,-0.1692505,0.9296265,31.70085,2.761673,-24.57484,5.026642,0.5856035,0.4845442,0.127381,1.268583,-0.3608674,-0.3669471,-0.06874444,-0.0899413,0.2934072,-10.42383,32.63
6,-0.3408813,-0.1669922,0.9251404,1.0,-0.3522949,-0.1650696,0.9212036,-34.42744,1.015137,-26.07967,5.138,0.6431358,0.5573384,1.0,-0.327301,-0.1692505,0.9296265,31.70085,2.761673,-24.57484,5.026642,0.5856035,0.4845442,0.1275165,1.268393,-0.3592377,-0.3637547,-0.06647724,-0.08954163,0.2934072,-10.42383,32.63
6,-0.3408813,-0.1669922,0.9251404,1.0,-0.3522949,-0.1650696,0.9212036,-34.42744,1.015137,-26.07967,5.138,0.6431358,0.5573384,1.0,-0.327301,-0.1692505,0.9296265,31.70085,2.761673,-24.57484,5.026642,0.5856035,0.4845442,0.1275165,1.268393,-0.3592377,-0.3637547,-0.06647724,-0.08954163,0.2934072,-10.42383,32.63
6,-0.3408813,-0.1669922,0.9251404,1.0,-0.3522949,-0.1650696,0.9212036,-34.42744,1.015137,-26.07967,5.138,0.6431358,0.5573384,1.0,-0.327301,-0.1692505,0.9296265,31.70085,2.761673,-24.57484,5.026642,0.5856035,0.4845442,0.1275165,1.268393,-0.3592377,-0.3637547,-0.06647724,-0.08954163,0.2934072,-10.42383,32.63
6,-0.3179779,-0.1256866,0.9397125,1.0,-0.3241577,-0.1257782,0.9375916,-34.4182,1.247742,-26.01846,4.958466,0.6381304,0.5417945,1.0,-0.3070526,-0.1255035,0.9433746,31.85095,3.042252,-24.48296,4.874832,0.5774035,0.4666286,0.127761,1.268267,-0.3576658,-0.3607294,-0.0636635,-0.08899327,0.2934072,-10.42383,32.63
6,-0.3179779,-0.1256866,0.9397125,1.0,-0.3241577,-0.1257782,0.9375916,-34.4182,1.247742,-26.01846,4.958466,0.6381304,0.5417945,1.0,-0.3070526,-0.1255035,0.9433746,31.85095,3.042252,-24.48296,4.874832,0.5774035,0.4666286,0.127761,1.268267,-0.3576658,-0.3607294,-0.0636635,-0.08899327,0.2934072,-10.42383,32.63
6,-0.3109589,-0.1149292,0.9434357,1.0,-0.3173676,-0.1184692,0.9408569,-34.42502,1.228394,-26.01871,4.957764,0.6372268,0.5410921,1.0,-0.3028564,-0.1104431,0.9466095,31.87843,3.046661,-24.48351,4.892288,0.5758175,0.4638815,0.1279196,1.267863,-0.3560094,-0.3562216,-0.06037386,-0.08842342,0.2934072,-10.42383,32.63
6,-0.3109589,-0.1149292,0.9434357,1.0,-0.3173676,-0.1184692,0.9408569,-34.42502,1.228394,-26.01871,4.957764,0.6372268,0.5410921,1.0,-0.3028564,-0.1104431,0.9466095,31.87843,3.046661,-24.48351,4.892288,0.5758175,0.4638815,0.1279196,1.267863,-0.3560094,-0.3562216,-0.06037386,-0.08842342,0.2934072,-10.42383,32.63
6,-0.3039551,-0.1114502,0.9461365,1.0,-0.313324,-0.1157227,0.9425507,-34.40991,1.212036,-26.01529,4.981201,0.6360305,0.5410822,1.0,-0.2928772,-0.1063995,0.9501953,31.90192,3.026825,-24.47731,4.828812,0.5734198,0.4636421,0.1280755,1.267385,-0.3542519,-0.3506554,-0.05727843,-0.0874603,0.2934072,-10.42383,32.63
6,-0.2974548,-0.1091919,0.9484558,1.0,-0.3081665,-0.1119843,0.9447021,-34.38806,1.244644,-26.00615,4.874146,0.6344839,0.5391632,1.0,-0.2856598,-0.1061096,0.9524231,31.9326,3.058685,-24.46129,4.812164,0.5711987,0.4622903,0.1282984,1.266918,-0.3525341,-0.3448023,-0.05405827,-0.08653984,0.2934072,-10.42383,32.63
6,-0.2974548,-0.1091919,0.9484558,1.0,-0.3081665,-0.1119843,0.9447021,-34.38806,1.244644,-26.00615,4.874146,0.6344839,0.5391632,1.0,-0.2856598,-0.1061096,0.9524231,31.9326,3.058685,-24.46129,4.812164,0.5711987,0.4622903,0.1282984,1.266918,-0.3525341,-0.3448023,-0.05405827,-0.08653984,0.2934072,-10.42383,32.63
6,-0.2911682,-0.1004944,0.9513702,1.0,-0.2976685,-0.1030884,0.9490814,-34.37152,1.289246,-25.98962,4.85141,0.6321694,0.5358614,1.0,-0.2842865,-0.0977478,0.9537354,31.98036,3.12674,-24.43599,4.78331,0.5694149,0.4583865,0.128509,1.266337,-0.3507779,-0.3390096,-0.05055156,-0.08591548,0.2934072,3.970306,32.63
6,-0.2911682,-0.1004944,0.9513702,1.0,-0.2976685,-0.1030884,0.9490814,-34.37152,1.289246,-25.98962,4.85141,0.6321694,0.5358614,1.0,-0.2842865,-0.0977478,0.9537354,31.98036,3.12674,-24.43599,4.78331,0.5694149,0.4583865,0.128509,1.266337,-0.3507779,-0.3390096,-0.05055156,-0.08591548,0.2934072,3.970306,32.63
6,-0.2705078,-0.0769043,0.9596252,1.0,-0.2767487,-0.07435608,0.9580536,-34.35246,1.325623,-25.96867,4.682968,0.6281296,0.5292571,1.0,-0.2637024,-0.07966614,0.9613037,32.01691,3.193512,-24.40959,4.765106,0.5648291,0.4526537,0.1287614,1.265701,-0.3490376,-0.3331808,-0.04754776,-0.0857157,0.2934072,3.970306,32.63
6,-0.2705078,-0.0769043,0.9596252,1.0,-0.2767487,-0.07435608,0.9580536,-34.35246,1.325623,-25.96867,4.682968,0.6281296,0.5292571,1.0,-0.2637024,-0.07966614,0.9613037,32.01691,3.193512,-24.40959,4.765106,0.5648291,0.4526537,0.1287614,1.265701,-0.3490376,-0.3331808,-0.04754776,-0.0857157,0.2934072,3.970306,32.63
6,-0.2644043,-0.06848145,0.9619751,1.0,-0.2747345,-0.06503296,0.9593048,-34.31419,1.369492,-25.95549,4.818115,0.6264498,0.5261664,1.0,-0.2531433,-0.07223511,0.9647217,32.05396,3.240997,-24.39287,4.676575,0.5619166,0.4495367,0.128991,1.265028,-0.3472646,-0.3272735,-0.0448955,-0.08552025,0.2934072,3.970306,32.63
6,-0.2644043,-0.06848145,0.9619751,1.0,-0.2747345,-0.06503296,0.9593048,-34.31419,1.369492,-25.95549,4.818115,0.6264498,0.5261664,1.0,-0.2531433,-0.07223511,0.9647217,32.05396,3.240997,-24.39287,4.676575,0.5619166,0.4495367,0.128991,1.265028,-0.3472646,-0.3272735,-0.0448955,-0.08552025,0.2934072,3.970306,32.63
6,-0.2644043,-0.06848145,0.9619751,1.0,-0.2747345,-0.06503296,0.9593048,-34.31419,1.369492,-25.95549,4.818115,0.6264498,0.5261664,1.0,-0.2531433,-0.07223511,0.9647217,32.05396,3.240997,-24.39287,4.676575,0.5619166,0.4495367,0.128991,1.265028,-0.3472646,-0.3272735,-0.0448955,-0.08552025,0.2934072,3.970306,32.63
6,-0.2564545,-0.05593872,0.96492,1.0,-0.26297,-0.05551147,0.9631958,-34.27419,1.452194,-25.92471,4.844528,0.6231152,0.5214402,1.0,-0.2493744,-0.05641174,0.9667511,32.13571,3.344284,-24.3678,4.768051,0.5585655,0.443263,0.1291896,1.264302,-0.3456008,-0.3213687,-0.04235066,-0.08533116,0.2934072,3.970306,32.63
6,-0.2528229,-0.04631042,0.9664001,1.0,-0.2591705,-0.04333496,0.9648438,-34.24867,1.493484,-25.92233,4.822754,0.6216623,0.5179586,1.0,-0.2458496,-0.04956055,0.9680328,32.16026,3.394302,-24.36159,4.723328,0.5572148,0.440354,0.1293516,1.263567,-0.343977,-0.3149129,-0.03969275,-0.08505218,0.2934072,3.970306,32.63
6,-0.2528229,-0.04631042,0.9664001,1.0,-0.2591705,-0.04333496,0.9648438,-34.24867,1.493484,-25.92233,4.822754,0.6216623,0.5179586,1.0,-0.2458496,-0.04956055,0.9680328,32.16026,3.394302,-24.36159,4.723328,0.5572148,0.440354,0.1293516,1.263567,-0.343977,-0.3149129,-0.03969275,-0.08505218,0.2934072,3.970306,32.63
6,-0.243927,-0.04614258,0.968689,1.0,-0.2462921,-0.04072571,0.968338,-34.23961,1.511215,-25.91335,4.661041,0.619278,0.5166175,1.0,-0.2416534,-0.05136108,0.9689941,32.16583,3.411835,-24.3596,4.723816,0.5563291,0.4400131,0.1294346,1.262854,-0.3423905,-0.3092563,-0.03721644,-0.08452151,0.2934072,3.970306,32.63
