Second,eye_comb_direction_x,eye_comb_direction_y,eye_comb_direction_z,eye_r_openness,eye_r_direction_x,eye_r_direction_y,eye_r_direction_z,eye_r_origin_x,eye_r_origin_y,eye_r_origin_z,eye_r_pupil_diameter,eye_r_pupil_position_x,eye_r_pupil_position_y,eye_l_openness,eye_l_direction_x,eye_l_direction_y,eye_l_direction_z,eye_l_origin_x,eye_l_origin_y,eye_l_origin_z,eye_l_pupil_diameter,eye_l_pupil_position_x,eye_l_pupil_position_y,head_position_x,head_position_y,head_position_z,head_rotation_roll,head_rotation_pitch,head_rotation_yaw,EDA,BVP,TMP
0,0.0,0.0,0.0,0.0,0.0,0.0,0.0,0.0,0.0,0.0,0.0,0.0,0.0,0.0,0.0,0.0,0.0,0.0,0.0,0.0,0.0,0.0,0.0,0.0,0.0,0.0,0.0,0.0,0.0,0.20919280994610484,0.3646757636746693,32.92388535031847
0,-0.0145874,-0.001068115,0.9998779,0.9840856,-0.001663208,0.01498413,0.9998779,-28.93318,8.48143,-36.78366,5.002625,0.3976841,0.3592645,0.9856279,-0.02656555,-0.01594543,0.9995117,32.71004,9.152847,-43.44649,4.496933,0.5084801,0.3983223,-0.006176353,1.262552,-0.342876,0.01842332,0.03523669,-0.01441257,0.20919280994610484,0.3646757636746693,32.92388535031847
1,-0.008041382,0.004150391,0.9999542,0.9867944,-0.0001373291,0.01269531,0.9999084,-28.92928,8.47728,-36.7608,5.015778,0.3972775,0.3596367,0.990391,-0.02407837,-0.01316833,0.9996185,32.71468,9.097733,-43.29526,4.505493,0.5077719,0.3984738,-0.006067872,1.262756,-0.3431342,0.01758194,0.03515137,-0.01417646,0.2062819,0.3646757636746693,32.92388535031847
1,-0.008041382,0.004150391,0.9999542,0.9867944,-0.0001373291,0.01269531,0.9999084,-28.92928,8.47728,-36.7608,5.015778,0.3972775,0.3596367,0.990391,-0.02407837,-0.01316833,0.9996185,32.71468,9.097733,-43.29526,4.505493,0.5077719,0.3984738,-0.006067872,1.262756,-0.3431342,0.01758194,0.03515137,-0.01417646,0.2062819,0.3646757636746693,32.92388535031847
1,-0.008041382,0.004150391,0.9999542,0.9867944,-0.0001373291,0.01269531,0.9999084,-28.92928,8.47728,-36.7608,5.015778,0.3972775,0.3596367,0.990391,-0.02407837,-0.01316833,0.9996185,32.71468,9.097733,-43.29526,4.505493,0.5077719,0.3984738,-0.006067872,1.262756,-0.3431342,0.01758194,0.03515137,-0.01417646,0.2062819,0.3646757636746693,32.92388535031847
1,-0.008041382,0.004150391,0.9999542,0.9867944,-0.0001373291,0.01269531,0.9999084,-28.92928,8.47728,-36.7608,5.015778,0.3972775,0.3596367,0.990391,-0.02407837,-0.01316833,0.9996185,32.71468,9.097733,-43.29526,4.505493,0.5077719,0.3984738,-0.006067872,1.262756,-0.3431342,0.01758194,0.03515137,-0.01417646,0.2062819,0.3646757636746693,32.92388535031847
1,-0.008041382,0.004150391,0.9999542,0.9867944,-0.0001373291,0.01269531,0.9999084,-28.92928,8.47728,-36.7608,5.015778,0.3972775,0.3596367,0.990391,-0.02407837,-0.01316833,0.9996185,32.71468,9.097733,-43.29526,4.505493,0.5077719,0.3984738,-0.006067872,1.262756,-0.3431342,0.01758194,0.03515137,-0.01417646,0.2062819,0.3646757636746693,32.92388535031847
1,-0.008041382,0.004150391,0.9999542,0.9867944,-0.0001373291,0.01269531,0.9999084,-28.92928,8.47728,-36.7608,5.015778,0.3972775,0.3596367,0.990391,-0.02407837,-0.01316833,0.9996185,32.71468,9.097733,-43.29526,4.505493,0.5077719,0.3984738,-0.006067872,1.262756,-0.3431342,0.01758194,0.03515137,-0.01417646,0.2062819,0.3646757636746693,32.92388535031847
1,-0.008041382,0.004150391,0.9999542,0.9867944,-0.0001373291,0.01269531,0.9999084,-28.92928,8.47728,-36.7608,5.015778,0.3972775,0.3596367,0.990391,-0.02407837,-0.01316833,0.9996185,32.71468,9.097733,-43.29526,4.505493,0.5077719,0.3984738,-0.006067872,1.262756,-0.3431342,0.01758194,0.03515137,-0.01417646,0.2062819,0.3646757636746693,32.92388535031847
1,-0.008041382,0.004150391,0.9999542,0.9867944,-0.0001373291,0.01269531,0.9999084,-28.92928,8.47728,-36.7608,5.015778,0.3972775,0.3596367,0.990391,-0.02407837,-0.01316833,0.9996185,32.71468,9.097733,-43.29526,4.505493,0.5077719,0.3984738,-0.006067872,1.262756,-0.3431342,0.01758194,0.03515137,-0.01417646,0.2062819,0.3646757636746693,32.92388535031847
1,-0.008041382,0.004150391,0.9999542,0.9867944,-0.0001373291,0.01269531,0.9999084,-28.92928,8.47728,-36.7608,5.015778,0.3972775,0.3596367,0.990391,-0.02407837,-0.01316833,0.9996185,32.71468,9.097733,-43.29526,4.505493,0.5077719,0.3984738,-0.006067872,1.262756,-0.3431342,0.01758194,0.03515137,-0.01417646,0.2062819,0.3646757636746693,32.92388535031847
1,0.05235291,0.0315094,0.9981232,0.9747601,0.05235291,0.0315094,0.9981232,-28.44545,8.843216,-37.10413,3.85704,0.3700359,0.3446708,0.9603778,0.07116699,0.004150391,0.9974518,33.3396,9.275436,-42.91396,3.517975,0.4651414,0.3838606,-0.005810499,1.262891,-0.3435678,0.01696338,0.03531505,-0.01478966,0.2062819,-4.959892,32.92388535031847
1,0.05235291,0.0315094,0.9981232,0.9747601,0.05235291,0.0315094,0.9981232,-28.44545,8.843216,-37.10413,3.85704,0.3700359,0.3446708,0.9603778,0.07116699,0.004150391,0.9974518,33.3396,9.275436,-42.91396,3.517975,0.4651414,0.3838606,-0.005810499,1.262891,-0.3435678,0.01696338,0.03531505,-0.01478966,0.2062819,-4.959892,32.92388535031847
1,0.05235291,0.0315094,0.9981232,0.9747601,0.05235291,0.0315094,0.9981232,-28.44545,8.843216,-37.10413,3.85704,0.3700359,0.3446708,0.9603778,0.07116699,0.004150391,0.9974518,33.3396,9.275436,-42.91396,3.517975,0.4651414,0.3838606,-0.005810499,1.262891,-0.3435678,0.01696338,0.03531505,-0.01478966,0.2062819,-4.959892,32.92388535031847
1,0.05235291,0.0315094,0.9981232,0.9747601,0.05235291,0.0315094,0.9981232,-28.44545,8.843216,-37.10413,3.85704,0.3700359,0.3446708,0.9603778,0.07116699,0.004150391,0.9974518,33.3396,9.275436,-42.91396,3.517975,0.4651414,0.3838606,-0.005810499,1.262891,-0.3435678,0.01696338,0.03531505,-0.01478966,0.2062819,-4.959892,32.92388535031847
1,0.05235291,0.0315094,0.9981232,0.9747601,0.05235291,0.0315094,0.9981232,-28.44545,8.843216,-37.10413,3.85704,0.3700359,0.3446708,0.9603778,0.07116699,0.004150391,0.9974518,33.3396,9.275436,-42.91396,3.517975,0.4651414,0.3838606,-0.005810499,1.262891,-0.3435678,0.01696338,0.03531505,-0.01478966,0.2062819,-4.959892,32.92388535031847
1,0.05235291,0.0315094,0.9981232,0.9747601,0.05235291,0.0315094,0.9981232,-28.44545,8.843216,-37.10413,3.85704,0.3700359,0.3446708,0.9603778,0.07116699,0.004150391,0.9974518,33.3396,9.275436,-42.91396,3.517975,0.4651414,0.3838606,-0.005810499,1.262891,-0.3435678,0.01696338,0.03531505,-0.01478966,0.2062819,-4.959892,32.92388535031847
1,0.05235291,0.0315094,0.9981232,0.9747601,0.05235291,0.0315094,0.9981232,-28.44545,8.843216,-37.10413,3.85704,0.3700359,0.3446708,0.9603778,0.07116699,0.004150391,0.9974518,33.3396,9.275436,-42.91396,3.517975,0.4651414,0.3838606,-0.005810499,1.262891,-0.3435678,0.01696338,0.03531505,-0.01478966,0.2062819,-4.959892,32.92388535031847
1,0.05235291,0.0315094,0.9981232,0.9747601,0.05235291,0.0315094,0.9981232,-28.44545,8.843216,-37.10413,3.85704,0.3700359,0.3446708,0.9603778,0.07116699,0.004150391,0.9974518,33.3396,9.275436,-42.91396,3.517975,0.4651414,0.3838606,-0.005810499,1.262891,-0.3435678,0.01696338,0.03531505,-0.01478966,0.2062819,-4.959892,32.92388535031847
1,0.05235291,0.0315094,0.9981232,0.9747601,0.05235291,0.0315094,0.9981232,-28.44545,8.843216,-37.10413,3.85704,0.3700359,0.3446708,0.9603778,0.07116699,0.004150391,0.9974518,33.3396,9.275436,-42.91396,3.517975,0.4651414,0.3838606,-0.005810499,1.262891,-0.3435678,0.01696338,0.03531505,-0.01478966,0.2062819,-4.959892,32.92388535031847
1,0.0617218,0.01116943,0.9980164,1.0,0.0453186,0.02526855,0.998642,-28.40775,8.75174,-36.85387,3.565567,0.3703015,0.347087,1.0,0.068573,0.005279541,0.9976196,33.32614,9.263229,-42.93315,3.156143,0.4661169,0.3841662,-0.005897045,1.262746,-0.343406,0.01746118,0.03479347,-0.01446572,0.2062819,-4.959892,32.92388535031847
1,0.0617218,0.01116943,0.9980164,1.0,0.0453186,0.02526855,0.998642,-28.40775,8.75174,-36.85387,3.565567,0.3703015,0.347087,1.0,0.068573,0.005279541,0.9976196,33.32614,9.263229,-42.93315,3.156143,0.4661169,0.3841662,-0.005897045,1.262746,-0.343406,0.01746118,0.03479347,-0.01446572,0.2062819,-4.959892,32.92388535031847
1,0.05033875,0.01934814,0.9985352,1.0,0.04573059,0.02272034,0.9986877,-28.40775,8.75174,-36.83566,3.563065,0.3702486,0.347407,1.0,0.07196045,0.003479004,0.9973907,33.30829,9.348221,-43.24576,3.07486,0.4661169,0.3841473,-0.005842328,1.262732,-0.34339,0.01743214,0.03480075,-0.01455916,0.2062819,-4.959892,32.92388535031847
1,0.05033875,0.01934814,0.9985352,1.0,0.04573059,0.02272034,0.9986877,-28.40775,8.75174,-36.83566,3.563065,0.3702486,0.347407,1.0,0.07196045,0.003479004,0.9973907,33.30829,9.348221,-43.24576,3.07486,0.4661169,0.3841473,-0.005842328,1.262732,-0.34339,0.01743214,0.03480075,-0.01455916,0.2062819,-4.959892,32.92388535031847
1,0.04096985,0.02468872,0.9988403,1.0,0.04083252,0.02484131,0.9988556,-28.40977,8.838776,-37.14282,3.428635,0.3710006,0.3464606,1.0,0.06260681,0.0009460449,0.9980316,33.33905,9.063782,-42.01091,3.040741,0.4668261,0.3839993,-0.005865693,1.262725,-0.3433496,0.01738806,0.0348245,-0.0146291,0.2062819,-4.959892,32.92388535031847
1,0.04096985,0.02468872,0.9988403,1.0,0.04083252,0.02484131,0.9988556,-28.40977,8.838776,-37.14282,3.428635,0.3710006,0.3464606,1.0,0.06260681,0.0009460449,0.9980316,33.33905,9.063782,-42.01091,3.040741,0.4668261,0.3839993,-0.005865693,1.262725,-0.3433496,0.01738806,0.0348245,-0.0146291,0.2062819,-4.959892,32.92388535031847
1,0.05589294,0.02006531,0.99823,0.9797628,0.05587769,0.02008057,0.99823,-28.44135,8.848892,-37.03159,3.429581,0.3694653,0.3459905,0.9584211,0.06684875,-0.00227356,0.997757,33.30531,9.597015,-44.03981,2.928268,0.4671831,0.3830667,-0.005840778,1.26277,-0.3433056,0.01731807,0.03486192,-0.01463164,0.2062819,-13.78412,32.92388535031847
1,0.0579834,0.02835083,0.9979095,0.9243212,0.0579834,0.02835083,0.9979095,-28.46124,8.877151,-37.00114,3.383804,0.3698033,0.3430908,0.923189,0.06811523,-0.0001678467,0.9976654,33.31534,9.254211,-42.37857,3.037186,0.4666583,0.3803187,-0.005830765,1.2628,-0.3433573,0.01722143,0.03490122,-0.01459902,0.2062819,-13.78412,32.92388535031847
1,0.0579834,0.02835083,0.9979095,0.9243212,0.0579834,0.02835083,0.9979095,-28.46124,8.877151,-37.00114,3.383804,0.3698033,0.3430908,0.923189,0.06811523,-0.0001678467,0.9976654,33.31534,9.254211,-42.37857,3.037186,0.4666583,0.3803187,-0.005830765,1.2628,-0.3433573,0.01722143,0.03490122,-0.01459902,0.2062819,-13.78412,32.92388535031847
1,0.04559326,0.04347229,0.9980011,0.8626482,0.04559326,0.04347229,0.9980011,-28.53227,9.046356,-37.51773,3.360016,0.3742234,0.338492,0.8882029,0.06176758,0.01568604,0.9979553,33.25722,9.418411,-42.86078,2.980911,0.4701199,0.3753109,-0.005796432,1.262823,-0.3433849,0.01699103,0.03490912,-0.01452688,0.2062819,-13.78412,32.92388535031847
1,0.05427551,0.01222229,0.9984436,0.7901194,0.05541992,0.01251221,0.9983826,-28.56976,8.233444,-33.63135,3.435104,0.3769132,0.3409244,0.8611796,0.04386902,0.009506226,0.9989777,33.15773,9.715317,-44.01604,2.829575,0.4775008,0.3758191,-0.005790472,1.262784,-0.3433971,0.01694581,0.03498651,-0.0145315,0.2062819,-13.78412,32.92388535031847
1,0.05427551,0.01222229,0.9984436,0.7901194,0.05541992,0.01251221,0.9983826,-28.56976,8.233444,-33.63135,3.435104,0.3769132,0.3409244,0.8611796,0.04386902,0.009506226,0.9989777,33.15773,9.715317,-44.01604,2.829575,0.4775008,0.3758191,-0.005790472,1.262784,-0.3433971,0.01694581,0.03498651,-0.0145315,0.2062819,-13.78412,32.92388535031847
1,0.06616211,0.03437805,0.9972076,0.7590958,0.03549194,0.02726746,0.9989929,-28.58989,8.284546,-33.85352,3.466782,0.3809945,0.3383003,0.8446523,0.06616211,0.03437805,0.9972076,33.15364,9.791916,-44.28629,3.065674,0.4732777,0.3704443,-0.005782962,1.262771,-0.3434379,0.01686515,0.03503014,-0.01459442,0.2062819,-13.78412,32.92388535031847
1,0.04597473,0.02153015,0.998703,0.7297337,0.03952026,0.004455566,0.9992065,-28.61676,8.272827,-33.6915,3.350479,0.3814296,0.3416107,0.8387038,0.04597473,0.02153015,0.998703,33.15497,9.875961,-44.5829,2.88353,0.4772266,0.3724538,-0.005720019,1.262863,-0.3434783,0.01689075,0.03511681,-0.01468197,0.2062819,-13.78412,32.92388535031847
1,0.05029297,0.01826477,0.9985657,0.7128169,0.04812622,0.02108765,0.9986115,-28.61282,8.332169,-34.05174,3.33284,0.379447,0.3393746,0.8291275,0.05029297,0.01826477,0.9985657,33.1492,9.712189,-44.02353,2.79277,0.4765602,0.3742276,-0.005720019,1.262863,-0.3434783,0.01689075,0.03511681,-0.01468197,0.2062819,-13.78412,32.92388535031847
1,0.05029297,0.01826477,0.9985657,0.7128169,0.04812622,0.02108765,0.9986115,-28.61282,8.332169,-34.05174,3.33284,0.379447,0.3393746,0.8291275,0.05029297,0.01826477,0.9985657,33.1492,9.712189,-44.02353,2.79277,0.4765602,0.3742276,-0.005720019,1.262863,-0.3434783,0.01689075,0.03511681,-0.01468197,0.2062819,-13.78412,32.92388535031847
1,0.05426025,0.02238464,0.9982758,0.6890093,0.04745483,0.00177002,0.9988708,-28.57784,8.273254,-33.8493,3.278229,0.3785393,0.3433651,0.8374983,0.05426025,0.02238464,0.9982605,33.16864,9.676346,-43.97226,2.783264,0.4750085,0.3743087,-0.005739927,1.262848,-0.3435489,0.01678633,0.03534394,-0.01496046,0.2062819,-13.78412,32.92388535031847
1,0.05426025,0.02238464,0.9982758,0.6890093,0.04745483,0.00177002,0.9988708,-28.57784,8.273254,-33.8493,3.278229,0.3785393,0.3433651,0.8374983,0.05426025,0.02238464,0.9982605,33.16864,9.676346,-43.97226,2.783264,0.4750085,0.3743087,-0.005739927,1.262848,-0.3435489,0.01678633,0.03534394,-0.01496046,0.2062819,-13.78412,32.92388535031847
1,0.05618286,0.02128601,0.9981842,0.7045863,0.02275085,0.02452087,0.9994354,-28.60306,9.081345,-37.61905,3.220596,0.3810946,0.3418998,0.8540026,0.05618286,0.02128601,0.9981842,33.1658,9.547897,-43.48418,2.802704,0.474731,0.3749635,-0.00578177,1.262887,-0.3436091,0.01670893,0.03549287,-0.01483744,0.2062819,-13.78412,32.92388535031847
1,0.0463562,0.0138855,0.9988251,0.717299,0.03723145,0.02357483,0.9990234,-28.60886,8.995255,-37.29857,3.180466,0.3788843,0.3424412,0.8612759,0.0463562,0.0138855,0.9988251,33.18007,9.585968,-43.68149,2.710007,0.4761098,0.376769,-0.005846739,1.262993,-0.3436506,0.01655977,0.03556941,-0.01455506,0.2062819,-13.78412,32.92388535031847
1,0.04660034,0.01368713,0.9988098,0.7253983,0.03541565,0.02432251,0.9990692,-28.61322,9.017822,-37.3658,3.140808,0.3793377,0.3420488,0.8646711,0.04660034,0.01368713,0.9988098,33.20467,9.565231,-43.64876,2.798798,0.4751109,0.3773462,-0.00590694,1.262982,-0.3437197,0.01659124,0.03549141,-0.014381,0.2062819,4.839409,33.13
1,0.04660034,0.01368713,0.9988098,0.7253983,0.03541565,0.02432251,0.9990692,-28.61322,9.017822,-37.3658,3.140808,0.3793377,0.3420488,0.8646711,0.04660034,0.01368713,0.9988098,33.20467,9.565231,-43.64876,2.798798,0.4751109,0.3773462,-0.00590694,1.262982,-0.3437197,0.01659124,0.03549141,-0.014381,0.2062819,4.839409,33.13
1,0.04953003,0.01498413,0.9986572,0.7771344,0.03878784,0.02110291,0.9990234,-28.6069,8.974655,-37.36029,2.850311,0.378588,0.3441893,0.8789843,0.04953003,0.01498413,0.9986572,33.20303,9.638992,-44.01996,2.744064,0.4745911,0.3776957,-0.005963445,1.263022,-0.3438087,0.01659662,0.03529648,-0.01430724,0.2062819,4.839409,33.13
1,0.04953003,0.01498413,0.9986572,0.7771344,0.03878784,0.02110291,0.9990234,-28.6069,8.974655,-37.36029,2.850311,0.378588,0.3441893,0.8789843,0.04953003,0.01498413,0.9986572,33.20303,9.638992,-44.01996,2.744064,0.4745911,0.3776957,-0.005963445,1.263022,-0.3438087,0.01659662,0.03529648,-0.01430724,0.2062819,4.839409,33.13
1,0.03747559,0.02381897,0.9990082,0.7820801,0.03739929,0.02391052,0.9990082,-28.61424,8.882965,-37.0222,3.015564,0.3793339,0.3441669,0.8858393,0.05155945,0.005752563,0.998642,33.185,9.409988,-43.09773,2.569199,0.4748548,0.3796997,-0.005922556,1.263102,-0.3437617,0.01659438,0.03491211,-0.01426709,0.2062819,4.839409,33.13
1,0.03747559,0.02381897,0.9990082,0.7820801,0.03739929,0.02391052,0.9990082,-28.61424,8.882965,-37.0222,3.015564,0.3793339,0.3441669,0.8858393,0.05155945,0.005752563,0.998642,33.185,9.409988,-43.09773,2.569199,0.4748548,0.3796997,-0.005922556,1.263102,-0.3437617,0.01659438,0.03491211,-0.01426709,0.2062819,4.839409,33.13
1,0.03953552,0.02760315,0.9988251,0.8465522,0.03947449,0.02770996,0.9988251,-28.60855,8.783463,-36.6842,2.95195,0.3790203,0.3441702,0.9270893,0.04969788,0.008300781,0.9987183,33.16454,9.678604,-44.26952,2.527405,0.4760362,0.3797748,-0.00597775,1.263108,-0.343843,0.01640836,0.03451547,-0.01429839,0.2062819,4.839409,33.13
1,0.03953552,0.02760315,0.9988251,0.8465522,0.03947449,0.02770996,0.9988251,-28.60855,8.783463,-36.6842,2.95195,0.3790203,0.3441702,0.9270893,0.04969788,0.008300781,0.9987183,33.16454,9.678604,-44.26952,2.527405,0.4760362,0.3797748,-0.00597775,1.263108,-0.343843,0.01640836,0.03451547,-0.01429839,0.2062819,4.839409,33.13
1,0.03143311,0.0330658,0.9989471,0.8690178,0.03137207,0.03311157,0.9989471,-28.5997,8.859207,-37.00615,2.907227,0.3799494,0.3431445,0.9371358,0.05551147,0.01142883,0.9983826,33.16586,9.596237,-43.94284,2.480469,0.4748129,0.379245,-0.006057143,1.263163,-0.3439285,0.01626378,0.0342535,-0.0142937,0.2062819,4.839409,33.13
1,0.03143311,0.0330658,0.9989471,0.8690178,0.03137207,0.03311157,0.9989471,-28.5997,8.859207,-37.00615,2.907227,0.3799494,0.3431445,0.9371358,0.05551147,0.01142883,0.9983826,33.16586,9.596237,-43.94284,2.480469,0.4748129,0.379245,-0.006057143,1.263163,-0.3439285,0.01626378,0.0342535,-0.0142937,0.2062819,4.839409,33.13
1,0.03453064,0.02304077,0.9991302,0.8925491,0.03453064,0.02304077,0.9991302,-28.61665,8.791931,-36.78494,2.974182,0.3801649,0.3456616,0.9482784,0.04838562,0.009414673,0.9987793,33.17528,9.612946,-44.10953,2.528625,0.475869,0.3805972,-0.00607574,1.263183,-0.3439734,0.01592491,0.03412056,-0.01416173,0.2062819,4.839409,33.13
1,0.03453064,0.02304077,0.9991302,0.8925491,0.03453064,0.02304077,0.9991302,-28.61665,8.791931,-36.78494,2.974182,0.3801649,0.3456616,0.9482784,0.04838562,0.009414673,0.9987793,33.17528,9.612946,-44.10953,2.528625,0.475869,0.3805972,-0.00607574,1.263183,-0.3439734,0.01592491,0.03412056,-0.01416173,0.2062819,4.839409,33.13
1,0.03421021,0.02255249,0.9991455,0.9488307,0.02688599,0.02853394,0.9992218,-28.60941,8.967773,-37.61903,2.854019,0.3807128,0.345358,0.9703121,0.04911804,0.01034546,0.9987335,33.16521,9.495529,-43.67609,2.451324,0.4760956,0.3808615,-0.006051064,1.263257,-0.3439634,0.01564882,0.03406746,-0.0142242,0.2062819,4.839409,33.13
1,0.03421021,0.02255249,0.9991455,0.9488307,0.02688599,0.02853394,0.9992218,-28.60941,8.967773,-37.61903,2.854019,0.3807128,0.345358,0.9703121,0.04911804,0.01034546,0.9987335,33.16521,9.495529,-43.67609,2.451324,0.4760956,0.3808615,-0.006051064,1.263257,-0.3439634,0.01564882,0.03406746,-0.0142242,0.2062819,4.839409,33.13
1,0.0322876,0.02264404,0.9992218,0.994399,0.02844238,0.02534485,0.9992676,-28.60779,8.843521,-37.13451,2.822922,0.3807525,0.346346,0.9758343,0.04837036,0.01130676,0.998764,33.16449,9.411514,-43.41602,2.526901,0.4762689,0.3815231,-0.00600338,1.263266,-0.3439941,0.0154215,0.0341605,-0.01447859,0.2062819,4.839409,33.13
1,0.0322876,0.02264404,0.9992218,0.994399,0.02844238,0.02534485,0.9992676,-28.60779,8.843521,-37.13451,2.822922,0.3807525,0.346346,0.9758343,0.04837036,0.01130676,0.998764,33.16449,9.411514,-43.41602,2.526901,0.4762689,0.3815231,-0.00600338,1.263266,-0.3439941,0.0154215,0.0341605,-0.01447859,0.2062819,4.839409,33.13
1,0.03704834,0.01976013,0.999115,1.0,0.03251648,0.02220154,0.9992218,-28.61356,8.895233,-37.38219,2.81041,0.3800284,0.3471709,1.0,0.04563904,0.01513672,0.9988403,33.16206,9.395584,-43.39009,2.41658,0.4768911,0.3810675,-0.005874515,1.263285,-0.3439765,0.01525684,0.03421651,-0.01458063,0.2062819,4.839409,33.13
1,0.03704834,0.01976013,0.999115,1.0,0.03251648,0.02220154,0.9992218,-28.61356,8.895233,-37.38219,2.81041,0.3800284,0.3471709,1.0,0.04563904,0.01513672,0.9988403,33.16206,9.395584,-43.39009,2.41658,0.4768911,0.3810675,-0.005874515,1.263285,-0.3439765,0.01525684,0.03421651,-0.01458063,0.2062819,4.839409,33.13
1,0.04377747,0.0149231,0.9989166,1.0,0.03285217,0.02125549,0.9992218,-28.61525,8.894638,-37.38219,2.813828,0.3800284,0.347393,1.0,0.04725647,0.01290894,0.9987946,33.16208,9.418503,-43.52678,2.429337,0.4765715,0.3819281,-0.005850911,1.263311,-0.3439349,0.01544226,0.03425916,-0.01453047,0.2062819,4.353798,33.13
1,0.04377747,0.0149231,0.9989166,1.0,0.03285217,0.02125549,0.9992218,-28.61525,8.894638,-37.38219,2.813828,0.3800284,0.347393,1.0,0.04725647,0.01290894,0.9987946,33.16208,9.418503,-43.52678,2.429337,0.4765715,0.3819281,-0.005850911,1.263311,-0.3439349,0.01544226,0.03425916,-0.01453047,0.2062819,4.353798,33.13
1,0.04310608,0.01721191,0.9989166,1.0,0.03338623,0.02365112,0.9991608,-28.61417,8.873871,-37.31963,2.793961,0.3799403,0.3471472,1.0,0.04734802,0.01441956,0.998764,33.16277,9.423431,-43.56796,2.438812,0.4765298,0.381819,-0.005889535,1.26325,-0.3439341,0.01558298,0.03446493,-0.01452483,0.2062819,4.353798,33.13
1,0.04310608,0.01721191,0.9989166,1.0,0.03338623,0.02365112,0.9991608,-28.61417,8.873871,-37.31963,2.793961,0.3799403,0.3471472,1.0,0.04734802,0.01441956,0.998764,33.16277,9.423431,-43.56796,2.438812,0.4765298,0.381819,-0.005889535,1.26325,-0.3439341,0.01558298,0.03446493,-0.01452483,0.2062819,4.353798,33.13
1,0.04032898,0.01957703,0.9989929,1.0,0.03465271,0.02435303,0.9990997,-28.61134,8.851151,-37.24504,2.794327,0.3796572,0.3472025,1.0,0.04721069,0.01377869,0.9987793,33.16362,9.441193,-43.63972,2.428101,0.4765252,0.3819281,-0.005848408,1.263272,-0.3439308,0.01550678,0.03458944,-0.01461024,0.2062819,4.353798,33.13
1,0.04032898,0.01957703,0.9989929,1.0,0.03465271,0.02435303,0.9990997,-28.61134,8.851151,-37.24504,2.794327,0.3796572,0.3472025,1.0,0.04721069,0.01377869,0.9987793,33.16362,9.441193,-43.63972,2.428101,0.4765252,0.3819281,-0.005848408,1.263272,-0.3439308,0.01550678,0.03458944,-0.01461024,0.2062819,4.353798,33.13
1,0.04013062,0.01913452,0.9990082,1.0,0.03417969,0.02330017,0.9991302,-28.6091,8.867676,-37.31963,2.794113,0.379611,0.3474321,1.0,0.04710388,0.01425171,0.9987793,33.164,9.44751,-43.67181,2.420273,0.4765298,0.3818912,-0.00583446,1.263251,-0.3439798,0.01556815,0.03444438,-0.01468451,0.2062819,4.353798,33.13
1,0.04013062,0.01913452,0.9990082,1.0,0.03417969,0.02330017,0.9991302,-28.6091,8.867676,-37.31963,2.794113,0.379611,0.3474321,1.0,0.04710388,0.01425171,0.9987793,33.164,9.44751,-43.67181,2.420273,0.4765298,0.3818912,-0.00583446,1.263251,-0.3439798,0.01556815,0.03444438,-0.01468451,0.2062819,4.353798,33.13
1,0.04013062,0.01913452,0.9990082,1.0,0.03417969,0.02330017,0.9991302,-28.6091,8.867676,-37.31963,2.794113,0.379611,0.3474321,1.0,0.04710388,0.01425171,0.9987793,33.164,9.44751,-43.67181,2.420273,0.4765298,0.3818912,-0.00583446,1.263251,-0.3439798,0.01556815,0.03444438,-0.01468451,0.2062819,4.353798,33.13
1,0.04084778,0.01898193,0.9989777,1.0,0.03486633,0.02351379,0.999115,-28.59787,8.873871,-37.33215,2.793396,0.3790596,0.3472578,1.0,0.04710388,0.01423645,0.9987793,33.16409,9.453186,-43.69115,2.411697,0.4765252,0.3818551,-0.005851746,1.2632,-0.3439816,0.0154548,0.03432694,-0.0148279,0.2062819,4.353798,33.13
1,0.04084778,0.01898193,0.9989777,1.0,0.03486633,0.02351379,0.999115,-28.59787,8.873871,-37.33215,2.793396,0.3790596,0.3472578,1.0,0.04710388,0.01423645,0.9987793,33.16409,9.453186,-43.69115,2.411697,0.4765252,0.3818551,-0.00583899,1.263207,-0.3439486,0.01555954,0.03411664,-0.014951,0.2062819,4.353798,33.13
1,0.04084778,0.01898193,0.9989777,1.0,0.03486633,0.02351379,0.999115,-28.59787,8.873871,-37.33215,2.793396,0.3790596,0.3472578,1.0,0.04710388,0.01423645,0.9987793,33.16409,9.453186,-43.69115,2.411697,0.4765252,0.3818551,-0.00583899,1.263207,-0.3439486,0.01555954,0.03411664,-0.014951,0.2062819,4.353798,33.13
1,0.04084778,0.01898193,0.9989777,1.0,0.03486633,0.02351379,0.999115,-28.59787,8.873871,-37.33215,2.793396,0.3790596,0.3472578,1.0,0.04710388,0.01423645,0.9987793,33.16409,9.453186,-43.69115,2.411697,0.4765252,0.3818551,-0.00590229,1.263211,-0.3439416,0.01554804,0.03402128,-0.01502259,0.2062819,-1.035866,33.13
1,0.04084778,0.01898193,0.9989777,1.0,0.03486633,0.02351379,0.999115,-28.59787,8.873871,-37.33215,2.793396,0.3790596,0.3472578,1.0,0.04710388,0.01423645,0.9987793,33.16409,9.453186,-43.69115,2.411697,0.4765252,0.3818551,-0.00590229,1.263211,-0.3439416,0.01554804,0.03402128,-0.01502259,0.2062819,-1.035866,33.13
1,0.04084778,0.01898193,0.9989777,1.0,0.03486633,0.02351379,0.999115,-28.59787,8.873871,-37.33215,2.793396,0.3790596,0.3472578,1.0,0.04710388,0.01423645,0.9987793,33.16409,9.453186,-43.69115,2.411697,0.4765252,0.3818551,-0.00590229,1.263211,-0.3439416,0.01554804,0.03402128,-0.01502259,0.2062819,-1.035866,33.13
1,0.04084778,0.01898193,0.9989777,1.0,0.03486633,0.02351379,0.999115,-28.59787,8.873871,-37.33215,2.793396,0.3790596,0.3472578,1.0,0.04710388,0.01423645,0.9987793,33.16409,9.453186,-43.69115,2.411697,0.4765252,0.3818551,-0.00590229,1.263211,-0.3439416,0.01554804,0.03402128,-0.01502259,0.2062819,-1.035866,33.13
1,0.04084778,0.01898193,0.9989777,1.0,0.03486633,0.02351379,0.999115,-28.59787,8.873871,-37.33215,2.793396,0.3790596,0.3472578,1.0,0.04710388,0.01423645,0.9987793,33.16409,9.453186,-43.69115,2.411697,0.4765252,0.3818551,-0.00590229,1.263211,-0.3439416,0.01554804,0.03402128,-0.01502259,0.2062819,-1.035866,33.13
1,0.040802,0.01878357,0.9989777,1.0,0.03379822,0.02410889,0.9991302,-28.59224,8.873871,-37.33215,2.793167,0.3790508,0.3471472,1.0,0.04710388,0.01397705,0.9987793,33.1642,9.455475,-43.70007,2.403687,0.4765206,0.3818912,-0.006043196,1.263138,-0.3438648,0.01564454,0.0332038,-0.01490908,0.2062819,-1.035866,33.13
1,0.040802,0.01878357,0.9989777,1.0,0.03379822,0.02410889,0.9991302,-28.59224,8.873871,-37.33215,2.793167,0.3790508,0.3471472,1.0,0.04710388,0.01397705,0.9987793,33.1642,9.455475,-43.70007,2.403687,0.4765206,0.3818912,-0.006043196,1.263138,-0.3438648,0.01564454,0.0332038,-0.01490908,0.2062819,-1.035866,33.13
1,0.040802,0.01878357,0.9989777,1.0,0.03379822,0.02410889,0.9991302,-28.59224,8.873871,-37.33215,2.793167,0.3790508,0.3471472,1.0,0.04710388,0.01397705,0.9987793,33.1642,9.455475,-43.70007,2.403687,0.4765206,0.3818912,-0.006043196,1.263138,-0.3438648,0.01564454,0.0332038,-0.01490908,0.2062819,-1.035866,33.13
1,0.040802,0.01878357,0.9989777,1.0,0.03379822,0.02410889,0.9991302,-28.59224,8.873871,-37.33215,2.793167,0.3790508,0.3471472,1.0,0.04710388,0.01397705,0.9987793,33.1642,9.455475,-43.70007,2.403687,0.4765206,0.3818912,-0.006043196,1.263138,-0.3438648,0.01564454,0.0332038,-0.01490908,0.2062819,-1.035866,33.13
1,0.09928894,-0.01049805,0.9949951,1.0,0.09579468,-0.001556396,0.9953918,-27.99817,8.475266,-36.66783,2.760239,0.346454,0.3600986,1.0,0.1016083,-0.01646423,0.9946747,33.56038,9.286011,-43.7272,2.321259,0.4502332,0.3947747,-0.006139159,1.263133,-0.343878,0.01558681,0.03295627,-0.01488657,0.2062819,-1.035866,33.13
1,0.09928894,-0.01049805,0.9949951,1.0,0.09579468,-0.001556396,0.9953918,-27.99817,8.475266,-36.66783,2.760239,0.346454,0.3600986,1.0,0.1016083,-0.01646423,0.9946747,33.56038,9.286011,-43.7272,2.321259,0.4502332,0.3947747,-0.006139159,1.263133,-0.343878,0.01558681,0.03295627,-0.01488657,0.2062819,-1.035866,33.13
1,0.09928894,-0.01049805,0.9949951,1.0,0.09579468,-0.001556396,0.9953918,-27.99817,8.475266,-36.66783,2.760239,0.346454,0.3600986,1.0,0.1016083,-0.01646423,0.9946747,33.56038,9.286011,-43.7272,2.321259,0.4502332,0.3947747,-0.006139159,1.263133,-0.343878,0.01558681,0.03295627,-0.01488657,0.2062819,-1.035866,33.13
2,0.09928894,-0.01049805,0.9949951,1.0,0.09579468,-0.001556396,0.9953918,-27.99817,8.475266,-36.66783,2.760239,0.346454,0.3600986,1.0,0.1016083,-0.01646423,0.9946747,33.56038,9.286011,-43.7272,2.321259,0.4502332,0.3947747,-0.006137848,1.263206,-0.3438773,0.01558107,0.03254908,-0.01477202,0.2062819,-1.035866,33.13
2,0.09928894,-0.01049805,0.9949951,1.0,0.09579468,-0.001556396,0.9953918,-27.99817,8.475266,-36.66783,2.760239,0.346454,0.3600986,1.0,0.1016083,-0.01646423,0.9946747,33.56038,9.286011,-43.7272,2.321259,0.4502332,0.3947747,-0.006137848,1.263206,-0.3438773,0.01558107,0.03254908,-0.01477202,0.2062819,-1.035866,33.13
2,0.09928894,-0.01049805,0.9949951,1.0,0.09579468,-0.001556396,0.9953918,-27.99817,8.475266,-36.66783,2.760239,0.346454,0.3600986,1.0,0.1016083,-0.01646423,0.9946747,33.56038,9.286011,-43.7272,2.321259,0.4502332,0.3947747,-0.00613296,1.263233,-0.343853,0.01538909,0.03222078,-0.01490108,0.2062819,-1.035866,33.13
2,0.09928894,-0.01049805,0.9949951,1.0,0.09579468,-0.001556396,0.9953918,-27.99817,8.475266,-36.66783,2.760239,0.346454,0.3600986,1.0,0.1016083,-0.01646423,0.9946747,33.56038,9.286011,-43.7272,2.321259,0.4502332,0.3947747,-0.00613296,1.263233,-0.343853,0.01538909,0.03222078,-0.01490108,0.2062819,-1.035866,33.13
2,0.1072388,-0.01202393,0.9941559,1.0,0.09288025,-0.001998901,0.9956665,-27.99646,8.479141,-36.68523,2.663345,0.3469379,0.3601873,1.0,0.1074829,-0.01220703,0.9941254,33.575,9.33139,-43.95921,2.396622,0.4484589,0.3944041,-0.006172657,1.263228,-0.343877,0.01530267,0.03199384,-0.01502556,0.2062819,-11.28542,33.13
2,0.1072388,-0.01202393,0.9941559,1.0,0.09288025,-0.001998901,0.9956665,-27.99646,8.479141,-36.68523,2.663345,0.3469379,0.3601873,1.0,0.1074829,-0.01220703,0.9941254,33.575,9.33139,-43.95921,2.396622,0.4484589,0.3944041,-0.006172657,1.263228,-0.343877,0.01530267,0.03199384,-0.01502556,0.2062819,-11.28542,33.13
2,0.1025391,-0.01615906,0.9945831,1.0,0.09577942,0.000289917,0.9953918,-27.99118,8.444,-36.63454,2.74704,0.3462433,0.3606005,1.0,0.1025696,-0.01622009,0.9945831,33.59708,9.307007,-43.937,2.459076,0.4485993,0.3959679,-0.006135106,1.263263,-0.3438402,0.01522115,0.03184141,-0.01521723,0.2062819,-11.28542,33.13
2,0.1078033,-0.01020813,0.9941101,1.0,0.09535217,0.001296997,0.9954376,-27.98763,8.425369,-36.57774,2.804459,0.3462433,0.3606005,1.0,0.1078644,-0.01026917,0.9941101,33.59708,9.307007,-43.937,2.453369,0.447539,0.3947722,-0.006113768,1.263251,-0.3437865,0.01511406,0.03180816,-0.01531192,0.2062819,-11.28542,33.13
2,0.1078033,-0.01020813,0.9941101,1.0,0.09535217,0.001296997,0.9954376,-27.98763,8.425369,-36.57774,2.804459,0.3462433,0.3606005,1.0,0.1078644,-0.01026917,0.9941101,33.59708,9.307007,-43.937,2.453369,0.447539,0.3947722,-0.006113768,1.263251,-0.3437865,0.01511406,0.03180816,-0.01531192,0.2062819,-11.28542,33.13
2,0.1023102,-0.0004577637,0.994751,1.0,0.09338379,0.003753662,0.9956207,-27.98212,8.421631,-36.57593,2.793625,0.3464036,0.3602539,1.0,0.1193085,-0.008499146,0.9928131,33.56366,9.278076,-43.81779,2.492447,0.4465963,0.3944676,-0.006088614,1.26326,-0.3438488,0.01509976,0.03146029,-0.0154355,0.2062819,-11.28542,33.13
2,0.1023102,-0.0004577637,0.994751,1.0,0.09338379,0.003753662,0.9956207,-27.98212,8.421631,-36.57593,2.793625,0.3464036,0.3602539,1.0,0.1193085,-0.008499146,0.9928131,33.56366,9.278076,-43.81779,2.492447,0.4465963,0.3944676,-0.006088614,1.26326,-0.3438488,0.01509976,0.03146029,-0.0154355,0.2062819,-11.28542,33.13
2,0.1023102,-0.0004577637,0.994751,1.0,0.09338379,0.003753662,0.9956207,-27.98212,8.421631,-36.57593,2.793625,0.3464036,0.3602539,1.0,0.1193085,-0.008499146,0.9928131,33.56366,9.278076,-43.81779,2.492447,0.4465963,0.3944676,-0.006088614,1.26326,-0.3438488,0.01509976,0.03146029,-0.0154355,0.2062819,-11.28542,33.13
2,0.1088257,-0.001434326,0.9940491,1.0,0.1036224,0.002914429,0.9945984,-27.97337,8.424561,-36.5878,2.822952,0.3441505,0.3603737,1.0,0.1205597,-0.01126099,0.99263,33.56413,9.258286,-43.75209,2.562302,0.4463629,0.3951973,-0.006093979,1.263236,-0.3438636,0.01496395,0.03111356,-0.01543454,0.2062819,-11.28542,33.13
2,0.1088257,-0.001434326,0.9940491,1.0,0.1036224,0.002914429,0.9945984,-27.97337,8.424561,-36.5878,2.822952,0.3441505,0.3603737,1.0,0.1205597,-0.01126099,0.99263,33.56413,9.258286,-43.75209,2.562302,0.4463629,0.3951973,-0.006093979,1.263236,-0.3438636,0.01496395,0.03111356,-0.01543454,0.2062819,-11.28542,33.13
2,0.1108551,-0.002609253,0.9938202,1.0,0.1044464,0.002838135,0.9945221,-27.96841,8.425369,-36.60223,2.835922,0.3437962,0.3604795,1.0,0.1211853,-0.01139832,0.9925537,33.56485,9.243057,-43.70055,2.573593,0.4462256,0.3953297,-0.006088853,1.263211,-0.3438548,0.01507457,0.030799,-0.01561832,0.2062819,-11.28542,33.13
2,0.1108551,-0.002609253,0.9938202,1.0,0.1044464,0.002838135,0.9945221,-27.96841,8.425369,-36.60223,2.835922,0.3437962,0.3604795,1.0,0.1211853,-0.01139832,0.9925537,33.56485,9.243057,-43.70055,2.573593,0.4462256,0.3953297,-0.006088853,1.263211,-0.3438548,0.01507457,0.030799,-0.01561832,0.2062819,-11.28542,33.13
2,0.1114197,-0.001708984,0.9937592,1.0,0.1057129,0.002655029,0.9943848,-27.96021,8.426224,-36.60381,2.839584,0.3432552,0.3604795,1.0,0.1229401,-0.01054382,0.9923553,33.56731,9.216202,-43.60721,2.610535,0.4458139,0.3953297,-0.006078243,1.263258,-0.3437974,0.01497987,0.03046309,-0.01584988,0.2062819,-11.28542,33.13
2,0.107605,0.0009918213,0.9941864,1.0,0.1059265,0.003509521,0.9943542,-27.95796,8.441208,-36.686,2.877319,0.3430364,0.3604795,1.0,0.1226654,-0.02172852,0.9922028,33.59984,9.404892,-44.28305,2.566681,0.444427,0.3966885,-0.006190777,1.263186,-0.3438506,0.01499975,0.03034939,-0.01603588,0.2062819,-11.28542,33.13
2,0.107605,0.0009918213,0.9941864,1.0,0.1059265,0.003509521,0.9943542,-27.95796,8.441208,-36.686,2.877319,0.3430364,0.3604795,1.0,0.1226654,-0.02172852,0.9922028,33.59984,9.404892,-44.28305,2.566681,0.444427,0.3966885,-0.006190777,1.263186,-0.3438506,0.01499975,0.03034939,-0.01603588,0.2062819,-11.28542,33.13
2,0.1082764,-0.0002288818,0.9941101,1.0,0.1066284,0.001647949,0.9942932,-27.95784,8.459915,-36.77597,2.879471,0.3428114,0.3609376,1.0,0.1229248,-0.01715088,0.9922638,33.60696,9.246109,-43.7309,2.674698,0.4442647,0.3966973,-0.00622654,1.263167,-0.3438827,0.01502209,0.02991495,-0.0163045,0.2062819,-11.28542,33.13
2,0.1082764,-0.0002288818,0.9941101,1.0,0.1066284,0.001647949,0.9942932,-27.95784,8.459915,-36.77597,2.879471,0.3428114,0.3609376,1.0,0.1229248,-0.01715088,0.9922638,33.60696,9.246109,-43.7309,2.674698,0.4442647,0.3966973,-0.00622654,1.263167,-0.3438827,0.01502209,0.02991495,-0.0163045,0.2062819,-11.28542,33.13
2,0.1094055,0.002044678,0.993988,1.0,0.1092834,0.002304077,0.9940033,-27.95503,8.465775,-36.81723,2.885666,0.342163,0.3609544,1.0,0.1203003,-0.01942444,0.9925385,33.61807,9.338745,-44.07466,2.671783,0.4442647,0.3968277,-0.006200194,1.263281,-0.3438637,0.01499578,0.02950089,-0.01620963,0.2062819,7.921646,33.13
2,0.110199,0.002090454,0.9938965,1.0,0.1101379,0.002212524,0.9939117,-27.94856,8.470032,-36.83591,2.902466,0.34174,0.3609554,1.0,0.1202545,-0.0201416,0.9925232,33.62125,9.241943,-43.7292,2.680252,0.4442402,0.397431,-0.006210685,1.263291,-0.3438685,0.014949,0.02930374,-0.01612206,0.2062819,7.921646,33.13
2,0.110199,0.002090454,0.9938965,1.0,0.1101379,0.002212524,0.9939117,-27.94856,8.470032,-36.83591,2.902466,0.34174,0.3609554,1.0,0.1202545,-0.0201416,0.9925232,33.62125,9.241943,-43.7292,2.680252,0.4442402,0.397431,-0.006210685,1.263291,-0.3438685,0.014949,0.02930374,-0.01612206,0.2062819,7.921646,33.13
2,0.06547546,-0.01481628,0.9977417,1.0,0.06544495,-0.01480103,0.9977417,-28.23138,8.526443,-37.08359,3.135925,0.3602624,0.3648546,1.0,0.0785675,-0.01997375,0.9967041,33.38335,9.423172,-44.43279,2.680023,0.4616913,0.3971134,-0.006156087,1.263267,-0.3438966,0.01497987,0.02947865,-0.0161553,0.2062819,7.921646,33.13
2,0.004364014,-0.01557922,0.9998627,1.0,-0.01925659,-0.005493164,0.9997864,-28.82657,8.683075,-37.55241,3.112228,0.3973148,0.3624091,1.0,0.01031494,-0.01811218,0.9997711,32.81795,9.322937,-43.91496,2.791397,0.4972536,0.3959003,-0.006029248,1.263255,-0.3438922,0.01505528,0.0300603,-0.0162647,0.2062819,7.921646,33.13
2,0.004364014,-0.01557922,0.9998627,1.0,-0.01925659,-0.005493164,0.9997864,-28.82657,8.683075,-37.55241,3.112228,0.3973148,0.3624091,1.0,0.01031494,-0.01811218,0.9997711,32.81795,9.322937,-43.91496,2.791397,0.4972536,0.3959003,-0.006029248,1.263255,-0.3438922,0.01505528,0.0300603,-0.0162647,0.2062819,7.921646,33.13
2,-0.06184387,-0.008773804,0.9980316,1.0,-0.1131439,-0.02336121,0.9933014,-29.4581,8.919144,-38.07263,3.17746,0.437307,0.3627225,1.0,-0.06182861,-0.008773804,0.9980469,32.17177,9.387512,-43.98454,2.787659,0.5367156,0.3924264,-0.005758286,1.263155,-0.3439329,0.01537262,0.03137872,-0.01625095,0.2062819,7.921646,33.13
2,-0.06184387,-0.008773804,0.9980316,1.0,-0.1131439,-0.02336121,0.9933014,-29.4581,8.919144,-38.07263,3.17746,0.437307,0.3627225,1.0,-0.06182861,-0.008773804,0.9980469,32.17177,9.387512,-43.98454,2.787659,0.5367156,0.3924264,-0.005758286,1.263155,-0.3439329,0.01537262,0.03137872,-0.01625095,0.2062819,7.921646,33.13
2,-0.1426086,-0.01000977,0.9897156,1.0,-0.1432037,-0.01029968,0.989624,-29.7236,8.942383,-38.11775,3.181396,0.4525047,0.3601544,1.0,-0.1115112,0.005340576,0.9937439,31.91101,8.92218,-42.30304,2.892014,0.5554916,0.3919356,-0.005347371,1.263106,-0.3439372,0.01542874,0.03236936,-0.01610727,0.2062819,7.921646,33.13
2,-0.1826935,-0.01477051,0.9830475,1.0,-0.1826935,-0.01477051,0.9830475,-29.88931,8.771317,-37.32632,3.240509,0.4657961,0.3607894,1.0,-0.13591,-0.00239563,0.9907074,31.68387,9.044922,-42.65872,2.899689,0.5693071,0.3922271,-0.004590034,1.263024,-0.3439746,0.01598469,0.03566564,-0.01597163,0.2062819,7.921646,33.13
2,-0.1826935,-0.01477051,0.9830475,1.0,-0.1826935,-0.01477051,0.9830475,-29.88931,8.771317,-37.32632,3.240509,0.4657961,0.3607894,1.0,-0.13591,-0.00239563,0.9907074,31.68387,9.044922,-42.65872,2.899689,0.5693071,0.3922271,-0.004590034,1.263024,-0.3439746,0.01598469,0.03566564,-0.01597163,0.2062819,7.921646,33.13
2,-0.1907654,-0.01077271,0.9815674,1.0,-0.1907654,-0.01077271,0.9815674,-29.99287,8.762344,-37.27924,3.345551,0.4709579,0.3600785,1.0,-0.1439209,-0.001937866,0.9895782,31.63448,9.12471,-42.92458,2.840042,0.5730532,0.3915882,-0.003662705,1.262825,-0.3441113,0.01653636,0.04001356,-0.01622617,0.2062819,7.921646,33.13
2,-0.1907654,-0.01077271,0.9815674,1.0,-0.1907654,-0.01077271,0.9815674,-29.99287,8.762344,-37.27924,3.345551,0.4709579,0.3600785,1.0,-0.1439209,-0.001937866,0.9895782,31.63448,9.12471,-42.92458,2.840042,0.5730532,0.3915882,-0.003662705,1.262825,-0.3441113,0.01653636,0.04001356,-0.01622617,0.2062819,7.921646,33.13
2,-0.1907654,-0.01077271,0.9815674,1.0,-0.1907654,-0.01077271,0.9815674,-29.99287,8.762344,-37.27924,3.345551,0.4709579,0.3600785,1.0,-0.1439209,-0.001937866,0.9895782,31.63448,9.12471,-42.92458,2.840042,0.5730532,0.3915882,-0.002436996,1.262699,-0.344167,0.01685676,0.04474122,-0.01675479,0.2062819,7.921646,33.13
2,-0.1907654,-0.01077271,0.9815674,1.0,-0.1907654,-0.01077271,0.9815674,-29.99287,8.762344,-37.27924,3.345551,0.4709579,0.3600785,1.0,-0.1439209,-0.001937866,0.9895782,31.63448,9.12471,-42.92458,2.840042,0.5730532,0.3915882,-0.001836658,1.262715,-0.3441806,0.01693305,0.04740731,-0.01680585,0.2024381,6.516159,33.13
2,-0.1907654,-0.01077271,0.9815674,1.0,-0.1907654,-0.01077271,0.9815674,-29.99287,8.762344,-37.27924,3.345551,0.4709579,0.3600785,1.0,-0.1439209,-0.001937866,0.9895782,31.63448,9.12471,-42.92458,2.840042,0.5730532,0.3915882,-0.001836658,1.262715,-0.3441806,0.01693305,0.04740731,-0.01680585,0.2024381,6.516159,33.13
2,-0.1907654,-0.01077271,0.9815674,1.0,-0.1907654,-0.01077271,0.9815674,-29.99287,8.762344,-37.27924,3.345551,0.4709579,0.3600785,1.0,-0.1439209,-0.001937866,0.9895782,31.63448,9.12471,-42.92458,2.840042,0.5730532,0.3915882,-0.000461936,1.2626,-0.3442925,0.01722922,0.05358442,-0.01701776,0.2024381,6.516159,33.13
2,-0.1907654,-0.01077271,0.9815674,1.0,-0.1907654,-0.01077271,0.9815674,-29.99287,8.762344,-37.27924,3.345551,0.4709579,0.3600785,1.0,-0.1439209,-0.001937866,0.9895782,31.63448,9.12471,-42.92458,2.840042,0.5730532,0.3915882,-0.000461936,1.2626,-0.3442925,0.01722922,0.05358442,-0.01701776,0.2024381,6.516159,33.13
2,-0.1668243,-0.007339478,0.9859467,1.0,-0.1668854,-0.007369995,0.9859467,-29.9278,8.8246,-37.47292,3.388611,0.4642152,0.3585983,1.0,-0.1318359,0.009155273,0.9912262,31.78328,8.828369,-41.78621,3.098099,0.5639452,0.3901134,0.0009738207,1.262529,-0.3444446,0.01752379,0.05977957,-0.01746758,0.2024381,6.516159,33.13
2,-0.1425781,0.001296997,0.9897766,1.0,-0.1467285,0.001708984,0.9891663,-29.87312,8.97113,-38.12366,3.352936,0.4585147,0.3569701,1.0,-0.09420776,-0.003585815,0.9955444,31.85298,8.970901,-42.31529,2.935638,0.5543308,0.3918861,0.00167346,1.262509,-0.3445038,0.01757177,0.06267986,-0.01759041,0.2024381,6.516159,33.13
2,-0.1425781,0.001296997,0.9897766,1.0,-0.1467285,0.001708984,0.9891663,-29.87312,8.97113,-38.12366,3.352936,0.4585147,0.3569701,1.0,-0.09420776,-0.003585815,0.9955444,31.85298,8.970901,-42.31529,2.935638,0.5543308,0.3918861,0.00167346,1.262509,-0.3445038,0.01757177,0.06267986,-0.01759041,0.2024381,6.516159,33.13
2,-0.09741211,0.006011963,0.995224,1.0,-0.1367188,-0.01411438,0.9904938,-29.73026,8.853867,-37.60152,3.476471,0.4514749,0.3595806,1.0,-0.0960083,0.006729126,0.9953461,31.98836,8.88208,-42.02036,3.056259,0.5492815,0.3905399,0.003055215,1.262444,-0.3446133,0.01761919,0.06801529,-0.01768166,0.2024381,6.516159,33.13
2,-0.09741211,0.006011963,0.995224,1.0,-0.1367188,-0.01411438,0.9904938,-29.73026,8.853867,-37.60152,3.476471,0.4514749,0.3595806,1.0,-0.0960083,0.006729126,0.9953461,31.98836,8.88208,-42.02036,3.056259,0.5492815,0.3905399,0.003055215,1.262444,-0.3446133,0.01761919,0.06801529,-0.01768166,0.2024381,6.516159,33.13
2,-0.1017761,0.00239563,0.9947968,1.0,-0.1424255,-0.0007781982,0.9897919,-29.70454,8.837677,-37.52542,3.471573,0.4516225,0.3570224,1.0,-0.09713745,0.002761841,0.9952545,32.02615,8.936371,-42.20305,3.071289,0.5481634,0.3909686,0.004209042,1.262327,-0.3447804,0.01780219,0.0725835,-0.01804577,0.2024381,6.516159,33.13
2,-0.126358,0.001556396,0.9919739,1.0,-0.1307526,0.0003967285,0.9914093,-29.66022,8.921692,-37.83504,3.448425,0.4478341,0.356281,1.0,-0.0907135,0.01100159,0.9958038,32.08446,9.122696,-42.93745,3.089874,0.545162,0.3890495,0.005314469,1.262249,-0.344947,0.01801602,0.07634227,-0.01869311,0.2024381,6.516159,33.13
2,-0.126358,0.001556396,0.9919739,1.0,-0.1307526,0.0003967285,0.9914093,-29.66022,8.921692,-37.83504,3.448425,0.4478341,0.356281,1.0,-0.0907135,0.01100159,0.9958038,32.08446,9.122696,-42.93745,3.089874,0.545162,0.3890495,0.005314469,1.262249,-0.344947,0.01801602,0.07634227,-0.01869311,0.2024381,6.516159,33.13
2,-0.1228638,-0.01377869,0.9923248,1.0,-0.1229401,-0.01382446,0.9923096,-29.60182,8.825546,-37.43839,3.391602,0.4443828,0.3589494,1.0,-0.08151245,0.003082275,0.9966583,32.12425,9.129181,-42.94576,3.01001,0.5418178,0.3903787,0.005756259,1.262216,-0.3450476,0.01818848,0.07780343,-0.01921629,0.2024381,6.516159,33.13
2,-0.1228638,-0.01377869,0.9923248,1.0,-0.1229401,-0.01382446,0.9923096,-29.60182,8.825546,-37.43839,3.391602,0.4443828,0.3589494,1.0,-0.08151245,0.003082275,0.9966583,32.12425,9.129181,-42.94576,3.01001,0.5418178,0.3903787,0.005756259,1.262216,-0.3450476,0.01818848,0.07780343,-0.01921629,0.2024381,6.516159,33.13
2,-0.1118317,-0.004730225,0.9937134,1.0,-0.1118317,-0.004730225,0.9937134,-29.55144,8.860321,-37.55838,3.480576,0.4404626,0.3568908,1.0,-0.07640076,0.002227783,0.9970703,32.19377,9.253845,-43.36246,3.161331,0.5383585,0.3897092,0.006541729,1.262042,-0.3453118,0.01847824,0.08015569,-0.02044887,0.2024381,6.516159,33.13
2,-0.1118317,-0.004730225,0.9937134,1.0,-0.1118317,-0.004730225,0.9937134,-29.55144,8.860321,-37.55838,3.480576,0.4404626,0.3568908,1.0,-0.07640076,0.002227783,0.9970703,32.19377,9.253845,-43.36246,3.161331,0.5383585,0.3897092,0.006541729,1.262042,-0.3453118,0.01847824,0.08015569,-0.02044887,0.2024381,6.516159,33.13
2,-0.1156769,0.007278442,0.9932556,1.0,-0.1157074,0.007278442,0.9932556,-29.48717,8.835022,-37.48795,3.542603,0.4388387,0.354933,1.0,-0.07739258,-0.002914429,0.996994,32.23207,9.117645,-42.86024,3.158981,0.5367666,0.3912508,0.007222533,1.261913,-0.3454596,0.01870864,0.08142731,-0.02179596,0.2024381,6.516159,33.13
2,-0.1156769,0.007278442,0.9932556,1.0,-0.1157074,0.007278442,0.9932556,-29.48717,8.835022,-37.48795,3.542603,0.4388387,0.354933,1.0,-0.07739258,-0.002914429,0.996994,32.23207,9.117645,-42.86024,3.158981,0.5367666,0.3912508,0.007222533,1.261913,-0.3454596,0.01870864,0.08142731,-0.02179596,0.2024381,6.516159,33.13
2,-0.1114807,-0.008224487,0.9937286,1.0,-0.1117859,-0.00831604,0.9936829,-29.46086,8.84671,-37.47681,3.608658,0.4371222,0.3573044,1.0,-0.06671143,0.005722046,0.9977417,32.27167,9.101898,-42.82277,3.102264,0.5331553,0.3897233,0.007701874,1.261813,-0.3455415,0.0186572,0.08165967,-0.02312193,0.2024381,1.62207,33.13
2,-0.1114807,-0.008224487,0.9937286,1.0,-0.1117859,-0.00831604,0.9936829,-29.46086,8.84671,-37.47681,3.608658,0.4371222,0.3573044,1.0,-0.06671143,0.005722046,0.9977417,32.27167,9.101898,-42.82277,3.102264,0.5331553,0.3897233,0.007701874,1.261813,-0.3455415,0.0186572,0.08165967,-0.02312193,0.2024381,1.62207,33.13
2,-0.1114807,-0.008224487,0.9937286,1.0,-0.1117859,-0.00831604,0.9936829,-29.46086,8.84671,-37.47681,3.608658,0.4371222,0.3573044,1.0,-0.06671143,0.005722046,0.9977417,32.27167,9.101898,-42.82277,3.102264,0.5331553,0.3897233,0.007701874,1.261813,-0.3455415,0.0186572,0.08165967,-0.02312193,0.2024381,1.62207,33.13
2,-0.1020966,-0.005462646,0.994751,1.0,-0.1021881,-0.005493164,0.9947357,-29.44633,8.858688,-37.50929,3.609177,0.4348364,0.3565347,1.0,-0.07107544,0.002182007,0.997467,32.28479,9.189133,-43.16119,3.252716,0.5336582,0.3903344,0.007972002,1.261794,-0.3457111,0.0183589,0.08084253,-0.02433367,0.2024381,1.62207,33.13
2,-0.1020966,-0.005462646,0.994751,1.0,-0.1021881,-0.005493164,0.9947357,-29.44633,8.858688,-37.50929,3.609177,0.4348364,0.3565347,1.0,-0.07107544,0.002182007,0.997467,32.28479,9.189133,-43.16119,3.252716,0.5336582,0.3903344,0.007972002,1.261794,-0.3457111,0.0183589,0.08084253,-0.02433367,0.2024381,1.62207,33.13
2,-0.1020966,-0.005462646,0.994751,1.0,-0.1021881,-0.005493164,0.9947357,-29.44633,8.858688,-37.50929,3.609177,0.4348364,0.3565347,1.0,-0.07107544,0.002182007,0.997467,32.28479,9.189133,-43.16119,3.252716,0.5336582,0.3903344,0.008056998,1.261841,-0.3457946,0.01796384,0.07933144,-0.02521513,0.2024381,1.62207,33.13
2,-0.1020966,-0.005462646,0.994751,1.0,-0.1021881,-0.005493164,0.9947357,-29.44633,8.858688,-37.50929,3.609177,0.4348364,0.3565347,1.0,-0.07107544,0.002182007,0.997467,32.28479,9.189133,-43.16119,3.252716,0.5336582,0.3903344,0.008056998,1.261841,-0.3457946,0.01796384,0.07933144,-0.02521513,0.2024381,1.62207,33.13
2,-0.1051788,-0.008758545,0.9944,1.0,-0.1051941,-0.008758545,0.9944,-29.40482,8.877411,-37.4929,3.716187,0.4338216,0.356309,1.0,-0.05747986,-0.009246826,0.998291,32.31387,9.389496,-43.86449,3.167084,0.5302265,0.39143,0.008002877,1.261835,-0.3457636,0.01757304,0.07748032,-0.02580163,0.2024381,1.62207,33.13
2,-0.1066742,-0.008407593,0.9942474,1.0,-0.1066742,-0.008407593,0.9942474,-29.41246,8.866318,-37.49503,3.73056,0.4343629,0.3566828,1.0,-0.06196594,-0.003631592,0.9980621,32.2984,9.409683,-44.00113,3.264572,0.5317823,0.3908862,0.007955074,1.261941,-0.3457884,0.01726723,0.07529304,-0.02640361,0.2024381,1.62207,33.13
2,-0.1066742,-0.008407593,0.9942474,1.0,-0.1066742,-0.008407593,0.9942474,-29.41246,8.866318,-37.49503,3.73056,0.4343629,0.3566828,1.0,-0.06196594,-0.003631592,0.9980621,32.2984,9.409683,-44.00113,3.264572,0.5317823,0.3908862,0.007955074,1.261941,-0.3457884,0.01726723,0.07529304,-0.02640361,0.2024381,1.62207,33.13
2,-0.1081848,-0.008117676,0.9940948,1.0,-0.1082001,-0.008117676,0.9940948,-29.42026,8.868988,-37.50945,3.761108,0.4349041,0.3566854,1.0,-0.06738281,-0.002151489,0.9977112,32.29289,9.346024,-43.78439,3.28949,0.5329438,0.3910335,0.00772047,1.261989,-0.3458583,0.01694668,0.072877,-0.02671221,0.2024381,1.62207,33.13
2,-0.1081848,-0.008117676,0.9940948,1.0,-0.1082001,-0.008117676,0.9940948,-29.42026,8.868988,-37.50945,3.761108,0.4349041,0.3566854,1.0,-0.06738281,-0.002151489,0.9977112,32.29289,9.346024,-43.78439,3.28949,0.5329438,0.3910335,0.00772047,1.261989,-0.3458583,0.01694668,0.072877,-0.02671221,0.2024381,1.62207,33.13
2,-0.07087708,0.004776001,0.997467,1.0,-0.07104492,0.004821777,0.9974518,-29.1525,8.736511,-37.27045,3.853851,0.4184691,0.3566126,1.0,-0.02336121,-0.009033203,0.9996796,32.57724,9.341782,-43.77565,3.41304,0.5132213,0.3923723,0.007444739,1.262082,-0.3458564,0.0167272,0.07023903,-0.02684298,0.2024381,1.62207,33.13
2,-0.07087708,0.004776001,0.997467,1.0,-0.07104492,0.004821777,0.9974518,-29.1525,8.736511,-37.27045,3.853851,0.4184691,0.3566126,1.0,-0.02336121,-0.009033203,0.9996796,32.57724,9.341782,-43.77565,3.41304,0.5132213,0.3923723,0.007444739,1.262082,-0.3458564,0.0167272,0.07023903,-0.02684298,0.2024381,1.62207,33.13
2,-0.07087708,0.004776001,0.997467,1.0,-0.07104492,0.004821777,0.9974518,-29.1525,8.736511,-37.27045,3.853851,0.4184691,0.3566126,1.0,-0.02336121,-0.009033203,0.9996796,32.57724,9.341782,-43.77565,3.41304,0.5132213,0.3923723,0.007444739,1.262082,-0.3458564,0.0167272,0.07023903,-0.02684298,0.2024381,1.62207,33.13
2,0.07319641,0.003158569,0.9972992,0.9587352,0.06333923,0.04310608,0.9970551,-28.28197,8.5289,-36.3383,4.07782,0.3626276,0.3472876,0.9700359,0.07380676,0.0006713867,0.9972687,33.25356,9.431946,-43.99187,3.404694,0.4678754,0.3887182,0.007171154,1.262185,-0.3458833,0.01634968,0.06722883,-0.02706798,0.2024381,-8.92057,33.13
2,0.0847168,0.02455139,0.9960938,0.9729571,0.0827179,0.027771,0.9961853,-28.01401,8.684845,-36.97511,3.794983,0.3486797,0.3494715,0.9641025,0.1027679,-0.004577637,0.9946899,33.49313,9.515289,-44.21765,3.430862,0.4527847,0.388597,0.006718755,1.262218,-0.3459216,0.01591321,0.06399909,-0.02741505,0.2024381,-8.92057,33.13
2,0.0847168,0.02455139,0.9960938,0.9729571,0.0827179,0.027771,0.9961853,-28.01401,8.684845,-36.97511,3.794983,0.3486797,0.3494715,0.9641025,0.1027679,-0.004577637,0.9946899,33.49313,9.515289,-44.21765,3.430862,0.4527847,0.388597,0.006718755,1.262218,-0.3459216,0.01591321,0.06399909,-0.02741505,0.2024381,-8.92057,33.13
2,0.0847168,0.02455139,0.9960938,0.9729571,0.0827179,0.027771,0.9961853,-28.01401,8.684845,-36.97511,3.794983,0.3486797,0.3494715,0.9641025,0.1027679,-0.004577637,0.9946899,33.49313,9.515289,-44.21765,3.430862,0.4527847,0.388597,0.006718755,1.262218,-0.3459216,0.01591321,0.06399909,-0.02741505,0.2024381,-8.92057,33.13
2,0.07826233,0.01402283,0.9968262,0.9983734,0.0774231,0.01470947,0.9968872,-28.05559,8.720703,-37.14975,3.87793,0.3510489,0.3522386,0.974773,0.09954834,-0.003631592,0.9950104,33.47903,9.536285,-44.32549,3.47438,0.4539606,0.3886325,0.006314993,1.26237,-0.3459285,0.01552022,0.06086194,-0.02798713,0.2024381,-8.92057,33.13
2,0.07826233,0.01402283,0.9968262,0.9983734,0.0774231,0.01470947,0.9968872,-28.05559,8.720703,-37.14975,3.87793,0.3510489,0.3522386,0.974773,0.09954834,-0.003631592,0.9950104,33.47903,9.536285,-44.32549,3.47438,0.4539606,0.3886325,0.006314993,1.26237,-0.3459285,0.01552022,0.06086194,-0.02798713,0.2024381,-8.92057,33.13
2,0.06829834,0.02098083,0.9974365,0.9792126,0.0682373,0.02105713,0.9974365,-28.11331,8.693527,-37.08716,3.891434,0.3549364,0.3516275,0.9674453,0.08717346,-0.005569458,0.99617,33.43794,9.299728,-43.50026,3.497131,0.458125,0.3904068,0.005835533,1.262539,-0.3459238,0.01495797,0.05785837,-0.02808068,0.2024381,-8.92057,33.13
2,0.06829834,0.02098083,0.9974365,0.9792126,0.0682373,0.02105713,0.9974365,-28.11331,8.693527,-37.08716,3.891434,0.3549364,0.3516275,0.9674453,0.08717346,-0.005569458,0.99617,33.43794,9.299728,-43.50026,3.497131,0.458125,0.3904068,0.005835533,1.262539,-0.3459238,0.01495797,0.05785837,-0.02808068,0.2024381,-8.92057,33.13
2,0.07029724,0.01231384,0.9974365,0.9998406,0.07023621,0.01239014,0.9974518,-28.15096,8.619873,-36.85283,3.975922,0.3562021,0.3540102,0.9774334,0.08586121,-0.005203247,0.9962921,33.42197,9.308426,-43.59644,3.527954,0.4589931,0.3909197,0.005311608,1.262587,-0.3458942,0.01441412,0.05471433,-0.02848479,0.2024381,-8.92057,33.13
2,0.07029724,0.01231384,0.9974365,0.9998406,0.07023621,0.01239014,0.9974518,-28.15096,8.619873,-36.85283,3.975922,0.3562021,0.3540102,0.9774334,0.08586121,-0.005203247,0.9962921,33.42197,9.308426,-43.59644,3.527954,0.4589931,0.3909197,0.005311608,1.262587,-0.3458942,0.01441412,0.05471433,-0.02848479,0.2024381,-8.92057,33.13
2,0.07029724,0.01231384,0.9974365,0.9567024,0.07023621,0.01239014,0.9974518,-28.15096,8.619873,-36.85283,3.975922,0.3562021,0.3540102,0.9743771,0.08586121,-0.005203247,0.9962921,33.42197,9.308426,-43.59644,3.527954,0.4589931,0.3909197,0.004736066,1.262784,-0.3457472,0.01404817,0.05152697,-0.02881066,0.2024381,-8.92057,33.13
2,0.07029724,0.01231384,0.9974365,0.9567024,0.07023621,0.01239014,0.9974518,-28.15096,8.619873,-36.85283,3.975922,0.3562021,0.3540102,0.9743771,0.08586121,-0.005203247,0.9962921,33.42197,9.308426,-43.59644,3.527954,0.4589931,0.3909197,0.004736066,1.262784,-0.3457472,0.01404817,0.05152697,-0.02881066,0.2024381,-8.92057,33.13
2,0.07029724,0.01231384,0.9974365,0.9567024,0.07023621,0.01239014,0.9974518,-28.15096,8.619873,-36.85283,3.975922,0.3562021,0.3540102,0.9743771,0.08586121,-0.005203247,0.9962921,33.42197,9.308426,-43.59644,3.527954,0.4589931,0.3909197,0.004106045,1.26287,-0.3456428,0.01370616,0.04856205,-0.02922431,0.2024381,-8.92057,33.13
2,0.07029724,0.01231384,0.9974365,0.9567024,0.07023621,0.01239014,0.9974518,-28.15096,8.619873,-36.85283,3.975922,0.3562021,0.3540102,0.9743771,0.08586121,-0.005203247,0.9962921,33.42197,9.308426,-43.59644,3.527954,0.4589931,0.3909197,0.004106045,1.26287,-0.3456428,0.01370616,0.04856205,-0.02922431,0.2024381,-8.92057,33.13
2,0.06758118,0.02015686,0.9974976,0.9567024,0.06721497,0.02079773,0.9975128,-28.16856,8.627411,-36.91429,4.014572,0.3573093,0.3527136,0.9743771,0.08268738,-0.005996704,0.9965515,33.4192,9.353607,-43.75182,3.436707,0.4596897,0.3907732,0.003438473,1.262896,-0.3455551,0.01335039,0.04557998,-0.02966761,0.2024381,-8.92057,33.13
2,0.06758118,0.02015686,0.9974976,0.9567024,0.06721497,0.02079773,0.9975128,-28.16856,8.627411,-36.91429,4.014572,0.3573093,0.3527136,0.9743771,0.08268738,-0.005996704,0.9965515,33.4192,9.353607,-43.75182,3.436707,0.4596897,0.3907732,0.002727509,1.263104,-0.3453987,0.01322479,0.04254059,-0.0295695,0.2024381,5.350037,33.13
2,0.06758118,0.02015686,0.9974976,0.9567024,0.06721497,0.02079773,0.9975128,-28.16856,8.627411,-36.91429,4.014572,0.3573093,0.3527136,0.9743771,0.08268738,-0.005996704,0.9965515,33.4192,9.353607,-43.75182,3.436707,0.4596897,0.3907732,0.002727509,1.263104,-0.3453987,0.01322479,0.04254059,-0.0295695,0.2024381,5.350037,33.13
2,0.06758118,0.02015686,0.9974976,0.9567024,0.06721497,0.02079773,0.9975128,-28.16856,8.627411,-36.91429,4.014572,0.3573093,0.3527136,0.9743771,0.08268738,-0.005996704,0.9965515,33.4192,9.353607,-43.75182,3.436707,0.4596897,0.3907732,0.002053142,1.263169,-0.3453672,0.01292966,0.03966459,-0.02946601,0.2024381,5.350037,33.13
2,0.06666565,0.01669312,0.9976349,0.9903319,0.06132507,0.026474,0.997757,-28.19133,8.610489,-36.84514,3.936752,0.3593174,0.3517261,0.9739093,0.08132935,-0.01025391,0.9966278,33.41032,9.345932,-43.70407,3.392914,0.4603032,0.3914511,0.001219153,1.263152,-0.3453386,0.01265181,0.03682519,-0.02921385,0.2024381,5.350037,33.13
2,0.06666565,0.01669312,0.9976349,0.9903319,0.06132507,0.026474,0.997757,-28.19133,8.610489,-36.84514,3.936752,0.3593174,0.3517261,0.9739093,0.08132935,-0.01025391,0.9966278,33.41032,9.345932,-43.70407,3.392914,0.4603032,0.3914511,0.001219153,1.263152,-0.3453386,0.01265181,0.03682519,-0.02921385,0.2024381,5.350037,33.13
2,0.03057861,0.01976013,0.9993286,0.9828851,0.02871704,0.02133179,0.9993591,-28.39157,8.708893,-37.48734,4.029388,0.3721488,0.3551198,0.9784228,0.05661011,-0.002182007,0.9983826,33.24408,9.47171,-44.37372,3.611252,0.4716319,0.3914717,0.0004099607,1.263292,-0.3451793,0.01233454,0.03363165,-0.0289721,0.2024381,5.350037,33.13
2,0.03057861,0.01976013,0.9993286,0.9828851,0.02871704,0.02133179,0.9993591,-28.39157,8.708893,-37.48734,4.029388,0.3721488,0.3551198,0.9784228,0.05661011,-0.002182007,0.9983826,33.24408,9.47171,-44.37372,3.611252,0.4716319,0.3914717,0.0004099607,1.263292,-0.3451793,0.01233454,0.03363165,-0.0289721,0.2024381,5.350037,33.13
2,0.03057861,0.01976013,0.9993286,0.9828851,0.02871704,0.02133179,0.9993591,-28.39157,8.708893,-37.48734,4.029388,0.3721488,0.3551198,0.9784228,0.05661011,-0.002182007,0.9983826,33.24408,9.47171,-44.37372,3.611252,0.4716319,0.3914717,0.0004099607,1.263292,-0.3451793,0.01233454,0.03363165,-0.0289721,0.2024381,5.350037,33.13
3,0.04130554,0.03367615,0.9985657,0.951821,0.04052734,0.03559875,0.9985352,-28.40187,8.717407,-37.51831,4.191284,0.3702182,0.352319,0.98119,0.05778503,-0.006958008,0.998291,33.23877,9.483459,-44.41022,3.592911,0.471605,0.3923152,-0.0005441904,1.263488,-0.3451018,0.01155291,0.03015878,-0.02850675,0.2024381,5.350037,33.13
3,0.04130554,0.03367615,0.9985657,0.951821,0.04052734,0.03559875,0.9985352,-28.40187,8.717407,-37.51831,4.191284,0.3702182,0.352319,0.98119,0.05778503,-0.006958008,0.998291,33.23877,9.483459,-44.41022,3.592911,0.471605,0.3923152,-0.001446962,1.263791,-0.3449087,0.010674,0.02632137,-0.02794637,0.2024381,5.350037,33.13
3,0.04130554,0.03367615,0.9985657,0.951821,0.04052734,0.03559875,0.9985352,-28.40187,8.717407,-37.51831,4.191284,0.3702182,0.352319,0.98119,0.05778503,-0.006958008,0.998291,33.23877,9.483459,-44.41022,3.592911,0.471605,0.3923152,-0.001446962,1.263791,-0.3449087,0.010674,0.02632137,-0.02794637,0.2024381,5.350037,33.13
3,0.04130554,0.03367615,0.9985657,0.951821,0.04052734,0.03559875,0.9985352,-28.40187,8.717407,-37.51831,4.191284,0.3702182,0.352319,0.98119,0.05778503,-0.006958008,0.998291,33.23877,9.483459,-44.41022,3.592911,0.471605,0.3923152,-0.002397418,1.264087,-0.3446846,0.00935014,0.02257509,-0.02707898,0.2024381,5.350037,33.13
3,0.04130554,0.03367615,0.9985657,0.951821,0.04052734,0.03559875,0.9985352,-28.40187,8.717407,-37.51831,4.191284,0.3702182,0.352319,0.98119,0.05778503,-0.006958008,0.998291,33.23877,9.483459,-44.41022,3.592911,0.471605,0.3923152,-0.002397418,1.264087,-0.3446846,0.00935014,0.02257509,-0.02707898,0.2024381,5.350037,33.13
3,0.01843262,0.01051331,0.9997711,0.9565857,0.000289917,0.02357483,0.9997101,-28.50055,8.827927,-37.7711,4.230789,0.3810468,0.3529871,0.9702315,0.03404236,-0.0007019043,0.9994049,33.13196,9.428802,-44.13222,3.625122,0.4804441,0.3905824,-0.003504038,1.264392,-0.3445201,0.007709782,0.01820404,-0.02678018,0.2024381,5.350037,33.13
3,0.01843262,0.01051331,0.9997711,0.9565857,0.000289917,0.02357483,0.9997101,-28.50055,8.827927,-37.7711,4.230789,0.3810468,0.3529871,0.9702315,0.03404236,-0.0007019043,0.9994049,33.13196,9.428802,-44.13222,3.625122,0.4804441,0.3905824,-0.003504038,1.264392,-0.3445201,0.007709782,0.01820404,-0.02678018,0.2024381,5.350037,33.13
3,0.00793457,0.01875305,0.9997864,0.9416143,-0.0008544922,0.02656555,0.9996338,-28.5278,8.738358,-37.45302,4.336639,0.3824538,0.353005,0.9673344,0.03289795,-0.003433228,0.9994507,33.10794,9.618759,-44.84465,3.743149,0.4816695,0.3905712,-0.004675388,1.26457,-0.3444712,0.006649191,0.01372681,-0.02731185,0.2024381,6.037186,33.13
3,0.00793457,0.01875305,0.9997864,0.9416143,-0.0008544922,0.02656555,0.9996338,-28.5278,8.738358,-37.45302,4.336639,0.3824538,0.353005,0.9673344,0.03289795,-0.003433228,0.9994507,33.10794,9.618759,-44.84465,3.743149,0.4816695,0.3905712,-0.004675388,1.26457,-0.3444712,0.006649191,0.01372681,-0.02731185,0.2024381,6.037186,33.13
3,0.007888794,0.01644897,0.9998322,0.9656692,0.004638672,0.02056885,0.9997711,-28.59691,8.677032,-37.35576,4.326721,0.3841026,0.3556392,0.9705669,0.02557373,-0.005950928,0.999649,33.04701,9.35582,-43.94252,3.757843,0.485398,0.3927573,-0.005865693,1.264818,-0.3444223,0.006056951,0.009023301,-0.02736009,0.2024381,6.037186,33.13
3,0.007888794,0.01644897,0.9998322,0.9656692,0.004638672,0.02056885,0.9997711,-28.59691,8.677032,-37.35576,4.326721,0.3841026,0.3556392,0.9705669,0.02557373,-0.005950928,0.999649,33.04701,9.35582,-43.94252,3.757843,0.485398,0.3927573,-0.005865693,1.264818,-0.3444223,0.006056951,0.009023301,-0.02736009,0.2024381,6.037186,33.13
3,0.0002288818,0.02444458,0.9996948,0.937907,-0.000869751,0.02557373,0.9996643,-28.5477,8.677704,-37.44142,4.41861,0.3831847,0.3554039,0.9711671,0.02406311,0.0004272461,0.9997101,33.09299,9.487045,-44.549,3.795181,0.4839596,0.3921752,-0.007163048,1.265217,-0.3443521,0.004518251,0.003431023,-0.02746284,0.2024381,6.037186,33.13
3,0.0002288818,0.02444458,0.9996948,0.937907,-0.000869751,0.02557373,0.9996643,-28.5477,8.677704,-37.44142,4.41861,0.3831847,0.3554039,0.9711671,0.02406311,0.0004272461,0.9997101,33.09299,9.487045,-44.549,3.795181,0.4839596,0.3921752,-0.007163048,1.265217,-0.3443521,0.004518251,0.003431023,-0.02746284,0.2024381,6.037186,33.13
3,0.03445435,0.03460693,0.9987946,0.9383048,0.03436279,0.03483582,0.9987946,-28.37794,8.664993,-37.34229,4.424026,0.3705151,0.3528539,0.9692969,0.05172729,-0.01057434,0.9985962,33.22441,9.542816,-44.5929,3.742798,0.4733739,0.3925262,-0.008512259,1.265737,-0.3443214,0.002743189,-0.002338531,-0.02768952,0.2024381,6.037186,33.13
3,0.03445435,0.03460693,0.9987946,0.9383048,0.03436279,0.03483582,0.9987946,-28.37794,8.664993,-37.34229,4.424026,0.3705151,0.3528539,0.9692969,0.05172729,-0.01057434,0.9985962,33.22441,9.542816,-44.5929,3.742798,0.4733739,0.3925262,-0.008512259,1.265737,-0.3443214,0.002743189,-0.002338531,-0.02768952,0.2024381,6.037186,33.13
3,0.02804565,0.03088379,0.999115,0.9478846,0.02770996,0.03163147,0.9990997,-28.41794,8.663818,-37.29239,4.408966,0.3732658,0.3531434,0.9589905,0.04595947,-0.009933472,0.9988861,33.168,9.515503,-44.47179,3.864609,0.476726,0.392363,-0.009787202,1.266084,-0.3443644,0.001118793,-0.007758911,-0.02830663,0.2024381,6.037186,33.13
3,0.02804565,0.03088379,0.999115,0.9478846,0.02770996,0.03163147,0.9990997,-28.41794,8.663818,-37.29239,4.408966,0.3732658,0.3531434,0.9589905,0.04595947,-0.009933472,0.9988861,33.168,9.515503,-44.47179,3.864609,0.476726,0.392363,-0.009787202,1.266084,-0.3443644,0.001118793,-0.007758911,-0.02830663,0.2024381,6.037186,33.13
3,0.01695251,0.004592896,0.9998322,0.9180134,0.006576538,0.007827759,0.999939,-28.50706,8.702667,-37.53954,4.252716,0.3803629,0.3586081,0.9582938,0.027771,0.001220703,0.9996033,33.09138,9.458069,-44.408,3.795227,0.4832825,0.3917912,-0.01113534,1.26649,-0.3443993,-0.0005179005,-0.01353935,-0.02947891,0.2024381,6.037186,33.13
3,0.01695251,0.004592896,0.9998322,0.9180134,0.006576538,0.007827759,0.999939,-28.50706,8.702667,-37.53954,4.252716,0.3803629,0.3586081,0.9582938,0.027771,0.001220703,0.9996033,33.09138,9.458069,-44.408,3.795227,0.4832825,0.3917912,-0.01113534,1.26649,-0.3443993,-0.0005179005,-0.01353935,-0.02947891,0.2024381,6.037186,33.13
3,-0.0003509521,0.009521484,0.9999542,0.9284008,-0.003814697,0.0112915,0.9999237,-28.5782,8.611069,-37.22247,4.393402,0.3850503,0.3587003,0.9719314,0.02470398,-0.003234863,0.9996796,33.03676,9.360306,-44.02184,3.914917,0.4859798,0.3928675,-0.0125761,1.266881,-0.344555,-0.002016932,-0.01989896,-0.0304009,0.2024381,6.037186,33.13
3,-0.0003509521,0.009521484,0.9999542,0.9284008,-0.003814697,0.0112915,0.9999237,-28.5782,8.611069,-37.22247,4.393402,0.3850503,0.3587003,0.9719314,0.02470398,-0.003234863,0.9996796,33.03676,9.360306,-44.02184,3.914917,0.4859798,0.3928675,-0.0125761,1.266881,-0.344555,-0.002016932,-0.01989896,-0.0304009,0.2024381,6.037186,33.13
3,-9.155273e-05,0.007263184,0.9999695,0.9384704,-0.002548218,0.009811401,0.999939,-28.67142,8.556885,-37.01103,4.487183,0.3883513,0.3592165,0.9692333,0.01850891,-0.01202393,0.9997559,32.97923,9.396103,-44.20808,3.784622,0.4894511,0.3949848,-0.01388717,1.267249,-0.3446677,-0.003334106,-0.02588179,-0.03133143,0.2024381,4.21788,33.13
3,-9.155273e-05,0.007263184,0.9999695,0.9384704,-0.002548218,0.009811401,0.999939,-28.67142,8.556885,-37.01103,4.487183,0.3883513,0.3592165,0.9692333,0.01850891,-0.01202393,0.9997559,32.97923,9.396103,-44.20808,3.784622,0.4894511,0.3949848,-0.01388717,1.267249,-0.3446677,-0.003334106,-0.02588179,-0.03133143,0.2024381,4.21788,33.13
3,-0.009643555,-0.003433228,0.999939,0.9366874,-0.01983643,0.0004119873,0.9998016,-28.7625,8.656769,-37.45544,4.376556,0.3945943,0.3613894,0.9797212,0.01420593,-0.01243591,0.9998169,32.89391,9.280167,-43.86823,3.845337,0.4935588,0.3963911,-0.01520216,1.267648,-0.3448879,-0.004989974,-0.03158603,-0.03228177,0.2024381,4.21788,33.13
3,-0.009643555,-0.003433228,0.999939,0.9366874,-0.01983643,0.0004119873,0.9998016,-28.7625,8.656769,-37.45544,4.376556,0.3945943,0.3613894,0.9797212,0.01420593,-0.01243591,0.9998169,32.89391,9.280167,-43.86823,3.845337,0.4935588,0.3963911,-0.01520216,1.267648,-0.3448879,-0.004989974,-0.03158603,-0.03228177,0.2024381,4.21788,33.13
3,-0.03535461,-0.002761841,0.9993591,0.9147751,-0.03675842,-0.002288818,0.9993134,-28.86334,8.601181,-37.2692,4.410019,0.4014599,0.3625025,0.9799923,0.001022339,-0.01530457,0.9998779,32.79929,9.257568,-43.76401,3.918365,0.4997868,0.396909,-0.01654398,1.268023,-0.3451781,-0.006328848,-0.03750718,-0.03383793,0.2024381,4.21788,33.13
3,-0.03535461,-0.002761841,0.9993591,0.9147751,-0.03675842,-0.002288818,0.9993134,-28.86334,8.601181,-37.2692,4.410019,0.4014599,0.3625025,0.9799923,0.001022339,-0.01530457,0.9998779,32.79929,9.257568,-43.76401,3.918365,0.4997868,0.396909,-0.01654398,1.268023,-0.3451781,-0.006328848,-0.03750718,-0.03383793,0.2024381,4.21788,33.13
3,-0.02734375,-0.006988525,0.999588,0.9561981,-0.03817749,-0.0003662109,0.9992676,-28.92078,8.507156,-37.01173,4.466049,0.4039426,0.3634371,0.9771739,-0.0006713867,-0.02328491,0.9997253,32.74464,9.312317,-44.03706,3.984756,0.5023058,0.3990261,-0.01722801,1.268214,-0.3453647,-0.006980459,-0.04059421,-0.03455345,0.2024381,4.21788,33.13
3,-0.04100037,-0.00289917,0.9991455,0.9774313,-0.04624939,0.0002288818,0.9989166,-28.96397,8.571732,-37.32903,4.531357,0.4067695,0.3638133,0.9801759,-0.004867554,-0.02456665,0.9996796,32.70152,9.323593,-44.13043,3.704514,0.5048277,0.3996573,-0.01857769,1.268686,-0.3457928,-0.008332137,-0.0469479,-0.03605458,0.2024381,4.21788,33.13
3,-0.04100037,-0.00289917,0.9991455,0.9774313,-0.04624939,0.0002288818,0.9989166,-28.96397,8.571732,-37.32903,4.531357,0.4067695,0.3638133,0.9801759,-0.004867554,-0.02456665,0.9996796,32.70152,9.323593,-44.13043,3.704514,0.5048277,0.3996573,-0.01857769,1.268686,-0.3457928,-0.008332137,-0.0469479,-0.03605458,0.2024381,4.21788,33.13
3,-0.05072021,-0.014328,0.9985962,0.9330527,-0.06019592,-0.01268005,0.9980927,-29.01477,8.62471,-37.45412,4.406769,0.4111419,0.3654997,0.9785681,-0.01330566,-0.02078247,0.9996948,32.65265,9.253204,-43.90491,3.726852,0.5083106,0.3995203,-0.01919258,1.268934,-0.3459563,-0.009089937,-0.04977281,-0.0367456,0.2024381,4.21788,33.13
3,-0.05072021,-0.014328,0.9985962,0.9330527,-0.06019592,-0.01268005,0.9980927,-29.01477,8.62471,-37.45412,4.406769,0.4111419,0.3654997,0.9785681,-0.01330566,-0.02078247,0.9996948,32.65265,9.253204,-43.90491,3.726852,0.5083106,0.3995203,-0.01919258,1.268934,-0.3459563,-0.009089937,-0.04977281,-0.0367456,0.2024381,4.21788,33.13
3,-0.03634644,-0.01309204,0.9992523,0.94915,-0.07034302,-0.01234436,0.9974365,-29.1093,8.772583,-38.04707,4.414856,0.4161466,0.3653414,0.9772761,-0.02055359,-0.01344299,0.9996948,32.58411,9.162811,-43.60022,3.935303,0.5122895,0.3987586,-0.02034891,1.26941,-0.3463603,-0.01068028,-0.05521047,-0.0382466,0.2024381,4.21788,33.13
3,-0.01914978,-0.02552795,0.9994812,0.965471,-0.08538818,-0.02267456,0.9960785,-29.15677,8.777039,-38.05617,4.367523,0.4206379,0.3673452,0.9811032,-0.01846313,-0.02555847,0.9994965,32.52753,9.177078,-43.64392,3.855347,0.5140881,0.4010033,-0.02095234,1.26966,-0.3465722,-0.01182697,-0.05767987,-0.03893775,0.2024381,4.21788,33.13
3,-0.01914978,-0.02552795,0.9994812,0.965471,-0.08538818,-0.02267456,0.9960785,-29.15677,8.777039,-38.05617,4.367523,0.4206379,0.3673452,0.9811032,-0.01846313,-0.02555847,0.9994965,32.52753,9.177078,-43.64392,3.855347,0.5140881,0.4010033,-0.02095234,1.26966,-0.3465722,-0.01182697,-0.05767987,-0.03893775,0.2024381,4.21788,33.13
3,-0.06877136,-0.02088928,0.997406,0.9578595,-0.09011841,-0.02401733,0.995636,-29.21095,8.736359,-37.86838,4.444489,0.423512,0.367501,0.9806389,-0.04949951,-0.01806641,0.9985962,32.46838,9.0504,-43.11263,4.009506,0.5221763,0.3994788,-0.02202094,1.270138,-0.3470824,-0.01357343,-0.06280255,-0.04026989,0.2024381,4.21788,33.13
3,-0.06919861,-0.01901245,0.997406,0.921974,-0.09628296,-0.01571655,0.995224,-29.2545,8.633484,-37.46179,4.554871,0.4263193,0.3662247,0.976432,-0.05055237,-0.02128601,0.9984894,32.41827,9.258469,-43.81345,3.941681,0.5246564,0.3987263,-0.02258384,1.27017,-0.3473843,-0.01364951,-0.06559357,-0.04086038,0.2024381,4.21788,33.13
3,-0.07411194,-0.02479553,0.996933,0.9505169,-0.09671021,-0.02119446,0.9950714,-29.30321,8.615173,-37.39876,4.523438,0.4282071,0.3674079,0.984372,-0.04774475,-0.02896118,0.9984283,32.36444,9.269363,-43.9942,3.906296,0.5262764,0.4015644,-0.02321637,1.270054,-0.3477601,-0.01293254,-0.06849875,-0.04135068,0.2024381,-4.614136,33.13
3,-0.07411194,-0.02479553,0.996933,0.9505169,-0.09671021,-0.02119446,0.9950714,-29.30321,8.615173,-37.39876,4.523438,0.4282071,0.3674079,0.984372,-0.04774475,-0.02896118,0.9984283,32.36444,9.269363,-43.9942,3.906296,0.5262764,0.4015644,-0.02321637,1.270054,-0.3477601,-0.01293254,-0.06849875,-0.04135068,0.2024381,-4.614136,33.13
3,-0.09109497,-0.02322388,0.9955597,0.9339529,-0.1067657,-0.02093506,0.9940491,-29.36041,8.656097,-37.59503,4.484573,0.4320583,0.3676982,0.9876678,-0.0459137,-0.02972412,0.9984894,32.31889,9.241928,-43.89093,3.806244,0.5276493,0.4017634,-0.02444708,1.269832,-0.3484318,-0.01087591,-0.07387484,-0.04208471,0.2024381,-4.614136,33.13
3,-0.09109497,-0.02322388,0.9955597,0.9339529,-0.1067657,-0.02093506,0.9940491,-29.36041,8.656097,-37.59503,4.484573,0.4320583,0.3676982,0.9876678,-0.0459137,-0.02972412,0.9984894,32.31889,9.241928,-43.89093,3.806244,0.5276493,0.4017634,-0.02444708,1.269832,-0.3484318,-0.01087591,-0.07387484,-0.04208471,0.2024381,-4.614136,33.13
3,-0.1154022,-0.02252197,0.9930573,0.9081641,-0.1156464,-0.02249146,0.9930267,-29.41396,8.690338,-37.4478,4.427841,0.4356825,0.3655081,0.9764115,-0.0610199,-0.02984619,0.9976807,32.3085,9.235519,-43.57692,3.908554,0.5308451,0.3990732,-0.02507603,1.269797,-0.3486911,-0.009883927,-0.07652552,-0.04250431,0.2024381,-4.614136,33.13
3,-0.1084442,-0.02349854,0.9938202,0.9170418,-0.1090393,-0.02340698,0.9937592,-29.23589,8.688507,-37.26302,4.560501,0.4279935,0.3639091,0.9650809,-0.03349304,-0.03395081,0.9988556,32.45151,9.452545,-44.24344,3.917175,0.5202361,0.3977351,-0.02652192,1.269523,-0.3492087,-0.007719439,-0.08260734,-0.04339544,0.2024381,-4.614136,33.13
3,-0.042099,-0.02018738,0.9989014,0.8701283,-0.04336548,-0.01983643,0.9988556,-28.8365,8.613022,-37.04121,4.523315,0.4017405,0.3633173,0.9602319,0.005111694,-0.03303528,0.9994354,32.83987,9.369095,-43.95181,4.001709,0.4974506,0.3978789,-0.02730143,1.269386,-0.349413,-0.006954795,-0.08621794,-0.04348823,0.2024381,-4.614136,33.13
3,-0.042099,-0.02018738,0.9989014,0.8701283,-0.04336548,-0.01983643,0.9988556,-28.8365,8.613022,-37.04121,4.523315,0.4017405,0.3633173,0.9602319,0.005111694,-0.03303528,0.9994354,32.83987,9.369095,-43.95181,4.001709,0.4974506,0.3978789,-0.02730143,1.269386,-0.349413,-0.006954795,-0.08621794,-0.04348823,0.2024381,-4.614136,33.13
3,0.02076721,-0.002563477,0.9997711,0.8558031,0.01992798,-0.001480103,0.9997864,-28.39229,8.645691,-37.09918,4.479584,0.3739292,0.3583377,0.9475169,0.05114746,-0.04199219,0.9978027,33.20563,9.566788,-44.66078,3.940567,0.4742333,0.3986073,-0.02883959,1.269285,-0.3499192,-0.005673316,-0.09369674,-0.04273159,0.2024381,-4.614136,33.13
3,0.02076721,-0.002563477,0.9997711,0.8558031,0.01992798,-0.001480103,0.9997864,-28.39229,8.645691,-37.09918,4.479584,0.3739292,0.3583377,0.9475169,0.05114746,-0.04199219,0.9978027,33.20563,9.566788,-44.66078,3.940567,0.4742333,0.3986073,-0.02883959,1.269285,-0.3499192,-0.005673316,-0.09369674,-0.04273159,0.2024381,-4.614136,33.13
3,0.07763672,-0.0050354,0.9969635,0.8698469,0.07763672,-0.0050354,0.9969635,-28.05118,8.716614,-37.30678,4.525375,0.3504888,0.3574277,0.9579994,0.09403992,-0.03846741,0.994812,33.48294,9.033859,-42.34886,4.133163,0.4553239,0.3964285,-0.02978575,1.269182,-0.3502221,-0.004688199,-0.0976429,-0.04227212,0.2024381,-4.614136,33.15
3,0.07102966,-0.02177429,0.9972229,0.8886707,0.07102966,-0.02177429,0.9972229,-27.94606,8.659546,-37.03011,4.500565,0.3481391,0.3601479,0.9544173,0.09329224,-0.03860474,0.9948883,33.54303,9.336853,-43.57956,4.134338,0.4529269,0.3964216,-0.03156841,1.269069,-0.3506941,-0.00317148,-0.1059326,-0.04178355,0.2024381,-4.614136,33.15
3,0.07125854,-0.01446533,0.997345,0.8674996,0.07124329,-0.01446533,0.997345,-28.03871,8.739243,-37.28273,4.622253,0.3511878,0.3581162,0.9600528,0.0977478,-0.03535461,0.9945679,33.48586,9.415344,-43.74619,4.100586,0.4542643,0.3943245,-0.03244269,1.269116,-0.3509165,-0.002873194,-0.1100824,-0.0416648,0.2024381,-4.614136,33.15
3,0.07125854,-0.01446533,0.997345,0.8674996,0.07124329,-0.01446533,0.997345,-28.03871,8.739243,-37.28273,4.622253,0.3511878,0.3581162,0.9600528,0.0977478,-0.03535461,0.9945679,33.48586,9.415344,-43.74619,4.100586,0.4542643,0.3943245,-0.03244269,1.269116,-0.3509165,-0.002873194,-0.1100824,-0.0416648,0.2024381,-4.614136,33.15
3,0.05456543,-0.01618958,0.9983673,0.8678914,0.05456543,-0.01618958,0.9983673,-28.08867,8.737793,-37.14023,4.502762,0.356304,0.3574039,0.9469888,0.09272766,-0.03790283,0.9949646,33.42764,9.238617,-42.81203,4.151443,0.4576616,0.3928052,-0.03425384,1.269184,-0.3513876,-0.002370177,-0.1186778,-0.04082864,0.2024381,-4.614136,33.15
3,0.05589294,-0.004180908,0.9984131,0.8760495,0.05589294,-0.004180908,0.9984131,-28.18256,8.706818,-37.00375,4.630676,0.3595755,0.3551779,0.9536287,0.07478333,-0.03045654,0.9967194,33.39668,9.190094,-42.63617,4.165802,0.4623296,0.3915412,-0.03598559,1.269712,-0.3517503,-0.003736628,-0.1272602,-0.04081843,0.2024381,-1.303139,33.15
3,0.05589294,-0.004180908,0.9984131,0.8760495,0.05589294,-0.004180908,0.9984131,-28.18256,8.706818,-37.00375,4.630676,0.3595755,0.3551779,0.9536287,0.07478333,-0.03045654,0.9967194,33.39668,9.190094,-42.63617,4.165802,0.4623296,0.3915412,-0.03598559,1.269712,-0.3517503,-0.003736628,-0.1272602,-0.04081843,0.2024381,-1.303139,33.15
3,0.05589294,-0.004180908,0.9984131,0.8760495,0.05589294,-0.004180908,0.9984131,-28.18256,8.706818,-37.00375,4.630676,0.3595755,0.3551779,0.9536287,0.07478333,-0.03045654,0.9967194,33.39668,9.190094,-42.63617,4.165802,0.4623296,0.3915412,-0.03598559,1.269712,-0.3517503,-0.003736628,-0.1272602,-0.04081843,0.2024381,-1.303139,33.15
3,0.03936768,-0.008300781,0.999176,0.8796043,0.03936768,-0.008300781,0.999176,-28.3076,8.707718,-36.64099,4.648239,0.3674998,0.3529381,0.9459261,0.06936646,-0.02592468,0.9972382,33.23967,9.607025,-43.99884,4.182404,0.4694117,0.3874232,-0.03670812,1.270213,-0.3518941,-0.005708664,-0.1308388,-0.04130182,0.2024381,-1.303139,33.15
3,0.02601624,-0.002502441,0.999649,0.8862312,0.02601624,-0.002502441,0.999649,-28.40746,8.714539,-36.74979,4.592941,0.3735385,0.352787,0.9514465,0.05703735,-0.03651428,0.9976959,33.17789,9.508591,-43.62309,4.170135,0.4742174,0.3898221,-0.03799117,1.270816,-0.3523669,-0.008816148,-0.1373918,-0.04206169,0.2024381,-1.303139,33.15
3,0.03105164,-0.01306152,0.9994202,0.865846,0.03105164,-0.01306152,0.9994202,-28.43781,8.802399,-37.32185,4.561844,0.3733336,0.3565774,0.9599515,0.04029846,-0.03086853,0.998703,33.15849,9.458008,-43.63828,3.967102,0.4781933,0.3907926,-0.03855705,1.271096,-0.3526595,-0.009938803,-0.1405708,-0.04271816,0.2024381,-1.303139,33.15
3,0.03105164,-0.01306152,0.9994202,0.865846,0.03105164,-0.01306152,0.9994202,-28.43781,8.802399,-37.32185,4.561844,0.3733336,0.3565774,0.9599515,0.04029846,-0.03086853,0.998703,33.15849,9.458008,-43.63828,3.967102,0.4781933,0.3907926,-0.03855705,1.271096,-0.3526595,-0.009938803,-0.1405708,-0.04271816,0.2024381,-1.303139,33.15
3,0.01296997,-0.007110596,0.9998779,0.8738422,0.01295471,-0.007110596,0.9998779,-28.50404,8.766022,-37.41566,4.497696,0.3790468,0.3578514,0.9560866,0.05241394,-0.03900146,0.9978485,33.09752,9.504593,-43.95157,4.124802,0.4782431,0.3936577,-0.0396229,1.271923,-0.3531885,-0.01277721,-0.1462806,-0.04488371,0.2024381,-1.303139,33.15
3,0.01296997,-0.007110596,0.9998779,0.8738422,0.01295471,-0.007110596,0.9998779,-28.50404,8.766022,-37.41566,4.497696,0.3790468,0.3578514,0.9560866,0.05241394,-0.03900146,0.9978485,33.09752,9.504593,-43.95157,4.124802,0.4782431,0.3936577,-0.0396229,1.271923,-0.3531885,-0.01277721,-0.1462806,-0.04488371,0.2024381,-1.303139,33.15
3,0.004898071,-0.006713867,0.9999542,0.8738422,0.004882813,-0.006698608,0.9999542,-28.53464,8.787476,-37.53662,4.580658,0.3815141,0.358102,0.9560866,0.03904724,-0.04034424,0.9984131,33.09319,9.583145,-44.30215,4.044449,0.4810208,0.3942062,-0.04063368,1.272732,-0.3536968,-0.01571629,-0.1509024,-0.0472707,0.2024381,-1.303139,33.15
3,0.004898071,-0.006713867,0.9999542,0.8738422,0.004882813,-0.006698608,0.9999542,-28.53464,8.787476,-37.53662,4.580658,0.3815141,0.358102,0.9560866,0.03904724,-0.04034424,0.9984131,33.09319,9.583145,-44.30215,4.044449,0.4810208,0.3942062,-0.04063368,1.272732,-0.3536968,-0.01571629,-0.1509024,-0.0472707,0.2024381,-1.303139,33.15
3,0.004898071,-0.006713867,0.9999542,0.8738422,0.004882813,-0.006698608,0.9999542,-28.53464,8.787476,-37.53662,4.580658,0.3815141,0.358102,0.9560866,0.03904724,-0.04034424,0.9984131,33.09319,9.583145,-44.30215,4.044449,0.4810208,0.3942062,-0.04063368,1.272732,-0.3536968,-0.01571629,-0.1509024,-0.0472707,0.2024381,-1.303139,33.15
3,0.004898071,-0.006713867,0.9999542,0.8738422,0.004882813,-0.006698608,0.9999542,-28.53464,8.787476,-37.53662,4.580658,0.3815141,0.358102,0.9560866,0.03904724,-0.04034424,0.9984131,33.09319,9.583145,-44.30215,4.044449,0.4810208,0.3942062,-0.0417366,1.273463,-0.3542799,-0.0186596,-0.1564753,-0.04905283,0.2024381,-1.303139,33.15
3,-0.009353638,-0.02891541,0.999527,0.8857578,-0.01022339,-0.02867126,0.999527,-28.56581,8.720215,-37.2576,4.507599,0.3856899,0.3624205,0.9655477,0.01895142,-0.03715515,0.999115,33.07692,9.522949,-44.08148,3.929169,0.4855434,0.3937982,-0.04312694,1.274162,-0.3550613,-0.02116468,-0.1639132,-0.04896207,0.2024381,-1.303139,33.15
3,-0.009353638,-0.02891541,0.999527,0.8857578,-0.01022339,-0.02867126,0.999527,-28.56581,8.720215,-37.2576,4.507599,0.3856899,0.3624205,0.9655477,0.01895142,-0.03715515,0.999115,33.07692,9.522949,-44.08148,3.929169,0.4855434,0.3937982,-0.04312694,1.274162,-0.3550613,-0.02116468,-0.1639132,-0.04896207,0.2024381,-1.303139,33.15
3,0.006271362,-0.05024719,0.998703,0.8779259,-0.0221405,-0.03013611,0.9992981,-28.6217,8.668564,-37.70346,4.585419,0.3896033,0.3687378,0.975131,0.01026917,-0.05308533,0.9985352,33.01447,9.16539,-43.70297,4.08783,0.4895448,0.4074094,-0.04487026,1.274845,-0.3559823,-0.02370711,-0.172694,-0.04898884,0.2024381,-1.303139,33.15
3,-0.01473999,-0.04211426,0.9989929,0.9064332,-0.02651978,-0.03286743,0.9990997,-28.6423,8.57251,-37.53171,4.461914,0.3913577,0.3713687,0.9953964,0.001556396,-0.05493164,0.9984741,33.00867,9.177505,-43.93968,4.100189,0.4914784,0.4096187,-0.04692602,1.275372,-0.3570433,-0.02544456,-0.1825863,-0.04915995,0.2024381,-1.303139,33.15
3,-0.01473999,-0.04211426,0.9989929,0.9064332,-0.02651978,-0.03286743,0.9990997,-28.6423,8.57251,-37.53171,4.461914,0.3913577,0.3713687,0.9953964,0.001556396,-0.05493164,0.9984741,33.00867,9.177505,-43.93968,4.100189,0.4914784,0.4096187,-0.04692602,1.275372,-0.3570433,-0.02544456,-0.1825863,-0.04915995,0.2024381,-1.303139,33.15
3,-0.02536011,-0.04592896,0.9986115,0.9310904,-0.04060364,-0.03985596,0.9983673,-28.69386,8.390228,-37.08939,4.50679,0.3960811,0.3756271,0.9954908,-0.001159668,-0.05554199,0.9984436,32.96359,9.127838,-44.06776,3.916519,0.493775,0.4128995,-0.04948056,1.275707,-0.3582144,-0.02642082,-0.1939473,-0.04885924,0.2024381,3.355911,33.15
3,-0.02536011,-0.04592896,0.9986115,0.9310904,-0.04060364,-0.03985596,0.9983673,-28.69386,8.390228,-37.08939,4.50679,0.3960811,0.3756271,0.9954908,-0.001159668,-0.05554199,0.9984436,32.96359,9.127838,-44.06776,3.916519,0.493775,0.4128995,-0.04948056,1.275707,-0.3582144,-0.02642082,-0.1939473,-0.04885924,0.2024381,3.355911,33.15
3,0.003967285,-0.07020569,0.9975128,0.9673066,0.003753662,-0.07019043,0.9975128,-28.42171,8.35878,-37.55289,4.422043,0.3778557,0.3861552,0.9911142,0.04670715,-0.07493591,0.9960785,33.23225,9.225006,-45.01424,4.016235,0.4739632,0.4222069,-0.05217087,1.275974,-0.3595222,-0.02669687,-0.2068,-0.04827908,0.2024381,3.355911,33.15
3,0.003967285,-0.07020569,0.9975128,0.9673066,0.003753662,-0.07019043,0.9975128,-28.42171,8.35878,-37.55289,4.422043,0.3778557,0.3861552,0.9911142,0.04670715,-0.07493591,0.9960785,33.23225,9.225006,-45.01424,4.016235,0.4739632,0.4222069,-0.05217087,1.275974,-0.3595222,-0.02669687,-0.2068,-0.04827908,0.2024381,3.355911,33.15
3,0.1047974,-0.0796814,0.9912872,0.974691,0.1047821,-0.07966614,0.9912872,-27.6825,8.074753,-37.47316,4.571899,0.3321174,0.3965347,0.9813932,0.152298,-0.09913635,0.9833374,33.71782,8.835068,-44.14011,4.111633,0.4343759,0.433734,-0.05486476,1.276142,-0.3609561,-0.02659144,-0.2197631,-0.04747405,0.2024381,3.355911,33.15
3,0.1047974,-0.0796814,0.9912872,0.974691,0.1047821,-0.07966614,0.9912872,-27.6825,8.074753,-37.47316,4.571899,0.3321174,0.3965347,0.9813932,0.152298,-0.09913635,0.9833374,33.71782,8.835068,-44.14011,4.111633,0.4343759,0.433734,-0.05486476,1.276142,-0.3609561,-0.02659144,-0.2197631,-0.04747405,0.2024381,3.355911,33.15
3,0.1496277,-0.1271362,0.9805298,1.0,0.1496124,-0.1271515,0.9805298,-27.20006,8.032043,-37.56453,4.599548,0.3056094,0.4071728,1.0,0.1896973,-0.1036682,0.9763489,34.07651,8.736389,-44.17296,4.133423,0.4129179,0.4388537,-0.05759537,1.276216,-0.3624014,-0.02598492,-0.2327268,-0.04693234,0.2024381,3.355911,33.15
3,0.1496277,-0.1271362,0.9805298,1.0,0.1496124,-0.1271515,0.9805298,-27.20006,8.032043,-37.56453,4.599548,0.3056094,0.4071728,1.0,0.1896973,-0.1036682,0.9763489,34.07651,8.736389,-44.17296,4.133423,0.4129179,0.4388537,-0.05759537,1.276216,-0.3624014,-0.02598492,-0.2327268,-0.04693234,0.2024381,3.355911,33.15
3,0.2458191,-0.1276703,0.9608612,1.0,0.2458038,-0.1276703,0.9608612,-26.75977,7.887039,-37.6794,4.752777,0.2701799,0.4129995,1.0,0.2756195,-0.137085,0.9514313,34.37172,8.716492,-44.2542,4.070648,0.3841777,0.4477602,-0.06032836,1.276309,-0.363868,-0.02569109,-0.2457188,-0.04627576,0.2037194,3.355911,33.15
3,0.2458191,-0.1276703,0.9608612,1.0,0.2458038,-0.1276703,0.9608612,-26.75977,7.887039,-37.6794,4.752777,0.2701799,0.4129995,1.0,0.2756195,-0.137085,0.9514313,34.37172,8.716492,-44.2542,4.070648,0.3841777,0.4477602,-0.06032836,1.276309,-0.363868,-0.02569109,-0.2457188,-0.04627576,0.2037194,3.355911,33.15
3,0.2578735,-0.1280518,0.9576416,1.0,0.2374878,-0.1251831,0.9632874,-26.76694,7.874908,-37.6725,4.742477,0.2720895,0.4129104,1.0,0.2635498,-0.1288452,0.9559937,34.41298,8.690201,-44.26707,4.177353,0.3849715,0.447099,-0.06294489,1.276574,-0.36522,-0.02608594,-0.2579856,-0.04590655,0.2037194,3.355911,33.15
3,0.2578735,-0.1280518,0.9576416,1.0,0.2374878,-0.1251831,0.9632874,-26.76694,7.874908,-37.6725,4.742477,0.2720895,0.4129104,1.0,0.2635498,-0.1288452,0.9559937,34.41298,8.690201,-44.26707,4.177353,0.3849715,0.447099,-0.06294489,1.276574,-0.36522,-0.02608594,-0.2579856,-0.04590655,0.2037194,3.355911,33.15
3,0.236496,-0.1276855,0.9631958,1.0,0.2200165,-0.1335449,0.9663086,-26.98882,7.882645,-37.63446,4.708099,0.2841626,0.4142687,1.0,0.249054,-0.1231689,0.9606171,34.25722,8.697159,-44.23264,4.161636,0.3940423,0.4452842,-0.06544328,1.276795,-0.366475,-0.02641151,-0.2691267,-0.04572751,0.2037194,3.355911,33.15
3,0.236496,-0.1276855,0.9631958,1.0,0.2200165,-0.1335449,0.9663086,-26.98882,7.882645,-37.63446,4.708099,0.2841626,0.4142687,1.0,0.249054,-0.1231689,0.9606171,34.25722,8.697159,-44.23264,4.161636,0.3940423,0.4452842,-0.06544328,1.276795,-0.366475,-0.02641151,-0.2691267,-0.04572751,0.2037194,3.355911,33.15
3,0.2232971,-0.1334534,0.9655609,1.0,0.2131958,-0.1302948,0.968277,-27.09438,7.868118,-37.62167,4.722046,0.2895405,0.41425,1.0,0.2317505,-0.1360779,0.9631958,34.21414,8.72168,-44.20158,4.209335,0.3992269,0.4465009,-0.06771827,1.276918,-0.3676381,-0.02654938,-0.2793349,-0.04478617,0.2037194,0.09147263,33.15
3,0.2232971,-0.1334534,0.9655609,1.0,0.2131958,-0.1302948,0.968277,-27.09438,7.868118,-37.62167,4.722046,0.2895405,0.41425,1.0,0.2317505,-0.1360779,0.9631958,34.21414,8.72168,-44.20158,4.209335,0.3992269,0.4465009,-0.06771827,1.276918,-0.3676381,-0.02654938,-0.2793349,-0.04478617,0.2037194,0.09147263,33.15
3,0.1876526,-0.1348877,0.9729156,1.0,0.1704865,-0.1194458,0.9780884,-27.26308,7.859375,-37.58961,4.605881,0.3041268,0.4124859,1.0,0.2017365,-0.1475525,0.9682465,34.09009,8.703918,-44.17198,4.096649,0.410012,0.4490515,-0.07006991,1.276893,-0.3688031,-0.02637538,-0.2891175,-0.04324133,0.2037194,0.09147263,33.15
3,0.1876526,-0.1348877,0.9729156,1.0,0.1704865,-0.1194458,0.9780884,-27.26308,7.859375,-37.58961,4.605881,0.3041268,0.4124859,1.0,0.2017365,-0.1475525,0.9682465,34.09009,8.703918,-44.17198,4.096649,0.410012,0.4490515,-0.07006991,1.276893,-0.3688031,-0.02637538,-0.2891175,-0.04324133,0.2037194,0.09147263,33.15
3,0.1783905,-0.1295471,0.9753876,1.0,0.1726074,-0.1244049,0.9770966,-27.40244,7.84819,-37.58476,4.684158,0.3090109,0.4139819,1.0,0.1831512,-0.1337738,0.9739227,33.98953,8.684509,-44.16359,4.141846,0.4176343,0.446863,-0.07234108,1.276944,-0.3698133,-0.02610793,-0.2982999,-0.04154822,0.2037194,0.09147263,33.15
3,0.1783905,-0.1295471,0.9753876,1.0,0.1726074,-0.1244049,0.9770966,-27.40244,7.84819,-37.58476,4.684158,0.3090109,0.4139819,1.0,0.1831512,-0.1337738,0.9739227,33.98953,8.684509,-44.16359,4.141846,0.4176343,0.446863,-0.07234108,1.276944,-0.3698133,-0.02610793,-0.2982999,-0.04154822,0.2037194,0.09147263,33.15
4,0.1625977,-0.1237793,0.9788818,1.0,0.1597137,-0.115799,0.9803314,-27.50084,7.835403,-37.58142,4.72934,0.3151124,0.4129204,1.0,0.1652985,-0.1313171,0.9774475,33.93304,8.69133,-44.13568,4.136978,0.423364,0.4457487,-0.07449603,1.276835,-0.3707849,-0.02568413,-0.3062148,-0.03949649,0.2037194,0.09147263,33.15
4,0.1625977,-0.1237793,0.9788818,1.0,0.1597137,-0.115799,0.9803314,-27.50084,7.835403,-37.58142,4.72934,0.3151124,0.4129204,1.0,0.1652985,-0.1313171,0.9774475,33.93304,8.69133,-44.13568,4.136978,0.423364,0.4457487,-0.07449603,1.276835,-0.3707849,-0.02568413,-0.3062148,-0.03949649,0.2037194,0.09147263,33.15
4,0.1526489,-0.1154633,0.9815063,1.0,0.1447754,-0.09790039,0.9846039,-27.64906,7.757614,-37.58226,4.683929,0.3234823,0.4126595,1.0,0.1619263,-0.136261,0.9773407,33.75206,8.687698,-44.13214,4.16153,0.4311427,0.4469315,-0.07663596,1.276548,-0.3717064,-0.02491939,-0.314064,-0.03690019,0.2037194,0.09147263,33.15
4,0.1526489,-0.1154633,0.9815063,1.0,0.1447754,-0.09790039,0.9846039,-27.64906,7.757614,-37.58226,4.683929,0.3234823,0.4126595,1.0,0.1619263,-0.136261,0.9773407,33.75206,8.687698,-44.13214,4.16153,0.4311427,0.4469315,-0.07663596,1.276548,-0.3717064,-0.02491939,-0.314064,-0.03690019,0.2037194,0.09147263,33.15
4,0.1410065,-0.1186371,0.9828644,1.0,0.1211395,-0.1021576,0.9873505,-27.72234,7.782303,-37.49237,4.727402,0.330676,0.4118073,1.0,0.1573334,-0.1321869,0.978653,33.6685,8.696213,-44.13518,4.109192,0.4353027,0.4458064,-0.07868326,1.27624,-0.3724973,-0.02391457,-0.3213335,-0.03403771,0.2037194,0.09147263,33.15
4,0.1410065,-0.1186371,0.9828644,1.0,0.1211395,-0.1021576,0.9873505,-27.72234,7.782303,-37.49237,4.727402,0.330676,0.4118073,1.0,0.1573334,-0.1321869,0.978653,33.6685,8.696213,-44.13518,4.109192,0.4353027,0.4458064,-0.07868326,1.27624,-0.3724973,-0.02391457,-0.3213335,-0.03403771,0.2037194,0.09147263,33.15
4,0.1353912,-0.1233521,0.983078,1.0,0.1145477,-0.1173859,0.9864502,-27.79117,7.873184,-37.59914,4.591522,0.3343907,0.4124099,1.0,0.1511078,-0.1278229,0.9802094,33.58521,8.709091,-44.12584,4.100479,0.4397877,0.444336,-0.08052111,1.275946,-0.3730966,-0.02271755,-0.3274558,-0.03192087,0.2037194,0.09147263,33.15
4,0.1353912,-0.1233521,0.983078,1.0,0.1145477,-0.1173859,0.9864502,-27.79117,7.873184,-37.59914,4.591522,0.3343907,0.4124099,1.0,0.1511078,-0.1278229,0.9802094,33.58521,8.709091,-44.12584,4.100479,0.4397877,0.444336,-0.08052111,1.275946,-0.3730966,-0.02271755,-0.3274558,-0.03192087,0.2037194,0.09147263,33.15
4,0.1160431,-0.1282959,0.9849091,1.0,0.08953857,-0.1226654,0.9883881,-27.92542,7.954239,-37.73262,4.570068,0.3438333,0.4118283,1.0,0.1233368,-0.1298218,0.9838257,33.50333,8.743698,-44.12976,4.104584,0.4484091,0.4433406,-0.08241558,1.275536,-0.3737477,-0.02133334,-0.3334205,-0.03039673,0.2037194,-8.588341,33.15
4,0.1160431,-0.1282959,0.9849091,1.0,0.08953857,-0.1226654,0.9883881,-27.92542,7.954239,-37.73262,4.570068,0.3438333,0.4118283,1.0,0.1233368,-0.1298218,0.9838257,33.50333,8.743698,-44.12976,4.104584,0.4484091,0.4433406,-0.08241558,1.275536,-0.3737477,-0.02133334,-0.3334205,-0.03039673,0.2037194,-8.588341,33.15
4,0.1051483,-0.1231537,0.9867859,1.0,0.08277893,-0.1058044,0.990921,-27.96132,7.864624,-37.37575,4.699478,0.3467155,0.4087207,1.0,0.1065369,-0.1242371,0.9865112,33.48055,8.7892,-44.18451,4.094177,0.45256,0.4409374,-0.08456206,1.274968,-0.3745809,-0.020296,-0.3404285,-0.02821224,0.2037194,-8.588341,33.15
4,0.1051483,-0.1231537,0.9867859,1.0,0.08277893,-0.1058044,0.990921,-27.96132,7.864624,-37.37575,4.699478,0.3467155,0.4087207,1.0,0.1065369,-0.1242371,0.9865112,33.48055,8.7892,-44.18451,4.094177,0.45256,0.4409374,-0.08456206,1.274968,-0.3745809,-0.020296,-0.3404285,-0.02821224,0.2037194,-8.588341,33.15
4,0.1074066,-0.1199951,0.9869385,1.0,0.07896423,-0.120697,0.9895325,-27.9894,7.958466,-37.64615,4.745361,0.3481538,0.4105666,1.0,0.1117401,-0.119873,0.9864655,33.42104,8.821304,-44.30176,4.17627,0.4538837,0.4400447,-0.08707559,1.274509,-0.3757461,-0.01967378,-0.3500595,-0.02472549,0.2037194,-8.588341,33.15
4,0.1074066,-0.1199951,0.9869385,1.0,0.07896423,-0.120697,0.9895325,-27.9894,7.958466,-37.64615,4.745361,0.3481538,0.4105666,1.0,0.1117401,-0.119873,0.9864655,33.42104,8.821304,-44.30176,4.17627,0.4538837,0.4400447,-0.08707559,1.274509,-0.3757461,-0.01967378,-0.3500595,-0.02472549,0.2037194,-8.588341,33.15
4,0.09130859,-0.1187134,0.9887085,1.0,0.05987549,-0.1213837,0.9907837,-27.98521,7.99855,-37.51118,4.69841,0.3516084,0.4080156,1.0,0.09344482,-0.1185303,0.9885406,33.47557,8.797806,-44.29083,4.133575,0.4552881,0.4405097,-0.08996928,1.274375,-0.3770618,-0.0196336,-0.3611088,-0.02286693,0.2037194,-8.588341,33.15
4,0.09130859,-0.1187134,0.9887085,1.0,0.05987549,-0.1213837,0.9907837,-27.98521,7.99855,-37.51118,4.69841,0.3516084,0.4080156,1.0,0.09344482,-0.1185303,0.9885406,33.47557,8.797806,-44.29083,4.133575,0.4552881,0.4405097,-0.08996928,1.274375,-0.3770618,-0.0196336,-0.3611088,-0.02286693,0.2037194,-8.588341,33.15
4,0.07289124,-0.110672,0.9911652,1.0,0.0565033,-0.1021271,0.9931641,-28.11066,8.201752,-38.16524,4.636185,0.3562238,0.4030229,1.0,0.08810425,-0.1185913,0.9890137,33.3653,9.033875,-44.94547,4.100052,0.4605846,0.4378606,-0.0931468,1.274148,-0.3786522,-0.01949956,-0.3731337,-0.02290275,0.2037194,-8.588341,33.15
4,0.07289124,-0.110672,0.9911652,1.0,0.0565033,-0.1021271,0.9931641,-28.11066,8.201752,-38.16524,4.636185,0.3562238,0.4030229,1.0,0.08810425,-0.1185913,0.9890137,33.3653,9.033875,-44.94547,4.100052,0.4605846,0.4378606,-0.0931468,1.274148,-0.3786522,-0.01949956,-0.3731337,-0.02290275,0.2037194,-8.588341,33.15
4,0.03218079,-0.1017456,0.994278,1.0,0.03213501,-0.1017303,0.994278,-28.16557,8.136734,-37.8965,4.49913,0.3630186,0.4030574,1.0,0.07241821,-0.1172791,0.990448,33.32001,9.20607,-45.52895,4.113754,0.4653998,0.4366757,-0.09473372,1.274038,-0.3795545,-0.0192875,-0.3797486,-0.02260609,0.2037194,-8.588341,33.15
4,0.03218079,-0.1017456,0.994278,1.0,0.03213501,-0.1017303,0.994278,-28.16557,8.136734,-37.8965,4.49913,0.3630186,0.4030574,1.0,0.07241821,-0.1172791,0.990448,33.32001,9.20607,-45.52895,4.113754,0.4653998,0.4366757,-0.09473372,1.274038,-0.3795545,-0.0192875,-0.3797486,-0.02260609,0.2037194,-8.588341,33.15
4,0.0223999,-0.1010895,0.9946136,1.0,0.02238464,-0.1010742,0.9946136,-28.21292,8.150009,-38.00415,4.509995,0.3664433,0.4035085,1.0,0.05693054,-0.1154175,0.9916687,33.30188,9.158279,-45.45244,4.028275,0.469144,0.437385,-0.09822857,1.273835,-0.3816966,-0.01909845,-0.3953611,-0.02213145,0.2037194,-8.588341,33.15
4,0.0223999,-0.1010895,0.9946136,1.0,0.02238464,-0.1010742,0.9946136,-28.21292,8.150009,-38.00415,4.509995,0.3664433,0.4035085,1.0,0.05693054,-0.1154175,0.9916687,33.30188,9.158279,-45.45244,4.028275,0.469144,0.437385,-0.09822857,1.273835,-0.3816966,-0.01909845,-0.3953611,-0.02213145,0.2037194,-8.588341,33.15
4,0.1592865,-0.06413269,0.9851379,0.9788514,0.157135,-0.06417847,0.9854736,-27.17249,8.258759,-37.66544,4.702805,0.3025751,0.387464,0.9648229,0.2101593,-0.06274414,0.975647,33.98422,9.09079,-44.53412,4.306076,0.4123816,0.4205158,-0.1018828,1.273769,-0.3841164,-0.02037733,-0.4124216,-0.02161231,0.2037194,-8.588341,33.15
4,0.1592865,-0.06413269,0.9851379,0.9788514,0.157135,-0.06417847,0.9854736,-27.17249,8.258759,-37.66544,4.702805,0.3025751,0.387464,0.9648229,0.2101593,-0.06274414,0.975647,33.98422,9.09079,-44.53412,4.306076,0.4123816,0.4205158,-0.1018828,1.273769,-0.3841164,-0.02037733,-0.4124216,-0.02161231,0.2037194,-8.588341,33.15
4,0.2407227,-0.04447937,0.9695587,1.0,0.2406311,-0.04446411,0.9695892,-26.69206,8.324112,-37.7594,4.683365,0.2675034,0.3808554,1.0,0.2585297,-0.04499817,0.9649506,34.33304,9.18631,-44.5892,4.258484,0.3888066,0.4137895,-0.1058418,1.273926,-0.3871086,-0.02326713,-0.4311281,-0.02152249,0.2037194,-8.588341,33.15
4,0.2949982,-0.02056885,0.9552612,1.0,0.2940674,-0.01954651,0.9555664,-26.22528,8.369797,-37.87625,4.735703,0.2374386,0.3738109,1.0,0.3068848,-0.03361511,0.9511414,34.71082,9.241348,-44.69249,4.231232,0.3637602,0.410376,-0.1078779,1.274133,-0.3886905,-0.02495674,-0.4411354,-0.02196384,0.2037194,-5.371357,33.15
4,0.2949982,-0.02056885,0.9552612,1.0,0.2940674,-0.01954651,0.9555664,-26.22528,8.369797,-37.87625,4.735703,0.2374386,0.3738109,1.0,0.3068848,-0.03361511,0.9511414,34.71082,9.241348,-44.69249,4.231232,0.3637602,0.410376,-0.1078779,1.274133,-0.3886905,-0.02495674,-0.4411354,-0.02196384,0.2037194,-5.371357,33.15
4,0.3474884,-0.02618408,0.9373169,1.0,0.3586121,0.005859375,0.9334564,-25.88185,8.385056,-38.03784,4.54567,0.2089894,0.3683642,1.0,0.3465576,-0.02877808,0.9375763,34.99808,9.261887,-44.78587,4.225983,0.3438566,0.4095777,-0.1116943,1.274642,-0.3921841,-0.02750648,-0.4622083,-0.02389244,0.2037194,-5.371357,33.15
4,0.3474884,-0.02618408,0.9373169,1.0,0.3586121,0.005859375,0.9334564,-25.88185,8.385056,-38.03784,4.54567,0.2089894,0.3683642,1.0,0.3465576,-0.02877808,0.9375763,34.99808,9.261887,-44.78587,4.225983,0.3438566,0.4095777,-0.1116943,1.274642,-0.3921841,-0.02750648,-0.4622083,-0.02389244,0.2037194,-5.371357,33.15
4,0.365799,-0.01690674,0.9305267,1.0,0.3597565,-0.001968384,0.9330292,-25.7547,8.341248,-38.06789,4.472885,0.203544,0.3715335,1.0,0.3664093,-0.01843262,0.9302673,35.11131,9.259613,-44.83672,4.232925,0.3349966,0.4081319,-0.1135081,1.274755,-0.3939793,-0.02814006,-0.472327,-0.02516455,0.2037194,-5.371357,33.15
4,0.3353729,-0.02479553,0.9417419,1.0,0.313858,-0.01942444,0.9492645,-25.93518,8.264145,-38.00012,4.519806,0.2215116,0.3782494,1.0,0.3445129,-0.02708435,0.938385,34.95914,9.196976,-44.78734,4.229965,0.3458712,0.4118688,-0.1166753,1.274938,-0.3974164,-0.02864182,-0.4908615,-0.0282331,0.2037194,-5.371357,33.15
4,0.3229218,-0.02653503,0.9460449,1.0,0.3166962,-0.009216309,0.9484711,-26.1338,8.229294,-37.97023,4.803116,0.228895,0.3778126,1.0,0.3269501,-0.03796387,0.9442596,34.78842,9.157074,-44.73637,4.208084,0.3565025,0.4151864,-0.1181395,1.275042,-0.3990327,-0.02852021,-0.4993839,-0.02953231,0.2037194,-5.371357,33.15
4,0.3229218,-0.02653503,0.9460449,1.0,0.3166962,-0.009216309,0.9484711,-26.1338,8.229294,-37.97023,4.803116,0.228895,0.3778126,1.0,0.3269501,-0.03796387,0.9442596,34.78842,9.157074,-44.73637,4.208084,0.3565025,0.4151864,-0.1181395,1.275042,-0.3990327,-0.02852021,-0.4993839,-0.02953231,0.2037194,-5.371357,33.15
4,0.3015137,-0.02432251,0.9531403,1.0,0.2921295,0.01100159,0.9563141,-26.47569,8.133179,-37.8687,4.679321,0.2481715,0.3778619,1.0,0.3068848,-0.04522705,0.9506683,34.62575,9.108246,-44.69876,4.233582,0.3672343,0.418197,-0.1207926,1.275115,-0.4024258,-0.02913289,-0.515222,-0.03106084,0.2037194,-5.371357,33.15
4,0.2997589,-0.04069519,0.9531403,1.0,0.3088684,-0.03340149,0.9505005,-26.785,8.163116,-37.81752,4.779968,0.2576177,0.3856553,1.0,0.2949371,-0.04454041,0.9544678,34.44763,9.076019,-44.66014,4.224716,0.3768272,0.419004,-0.1219535,1.27509,-0.4040396,-0.0296769,-0.5225758,-0.030871,0.2037194,-5.371357,33.15
4,0.2997589,-0.04069519,0.9531403,1.0,0.3088684,-0.03340149,0.9505005,-26.785,8.163116,-37.81752,4.779968,0.2576177,0.3856553,1.0,0.2949371,-0.04454041,0.9544678,34.44763,9.076019,-44.66014,4.224716,0.3768272,0.419004,-0.1219535,1.27509,-0.4040396,-0.0296769,-0.5225758,-0.030871,0.2037194,-5.371357,33.15
4,0.2580414,-0.0450592,0.9650726,1.0,0.260025,-0.03475952,0.9649658,-26.82616,8.128754,-37.78601,4.744873,0.2690725,0.3870442,1.0,0.2571106,-0.04989624,0.9650879,34.32471,9.05278,-44.61656,4.228287,0.389405,0.4203355,-0.1240624,1.275088,-0.4069314,-0.03041095,-0.5360673,-0.03031574,0.2037194,-5.371357,33.15
4,0.2480164,-0.04013062,0.9679108,1.0,0.2433472,-0.03215027,0.9693909,-27.03276,8.103958,-37.75844,4.673615,0.2805231,0.3877365,1.0,0.2505951,-0.04455566,0.9670563,34.15303,9.046738,-44.58231,4.190323,0.3975365,0.4192298,-0.1255988,1.275235,-0.4093676,-0.03006426,-0.5460873,-0.03167131,0.2037194,-5.371357,33.15
4,0.2480164,-0.04013062,0.9679108,1.0,0.2433472,-0.03215027,0.9693909,-27.03276,8.103958,-37.75844,4.673615,0.2805231,0.3877365,1.0,0.2505951,-0.04455566,0.9670563,34.15303,9.046738,-44.58231,4.190323,0.3975365,0.4192298,-0.1255988,1.275235,-0.4093676,-0.03006426,-0.5460873,-0.03167131,0.2037194,-5.371357,33.15
4,0.2217865,-0.04882813,0.9738617,1.0,0.2211761,-0.04093933,0.9743652,-27.19835,8.12706,-37.69983,4.717499,0.2913229,0.3883253,1.0,0.2222748,-0.05513,0.9734192,34.01389,9.085754,-44.55357,4.220505,0.4087507,0.4194261,-0.1262237,1.275237,-0.4104819,-0.03002222,-0.5498922,-0.03262008,0.2037194,-5.371357,33.15
4,0.2217865,-0.04882813,0.9738617,1.0,0.2211761,-0.04093933,0.9743652,-27.19835,8.12706,-37.69983,4.717499,0.2913229,0.3883253,1.0,0.2222748,-0.05513,0.9734192,34.01389,9.085754,-44.55357,4.220505,0.4087507,0.4194261,-0.1262237,1.275237,-0.4104819,-0.03002222,-0.5498922,-0.03262008,0.2037194,-5.371357,33.15
4,0.2018433,-0.05041504,0.9781036,1.0,0.1987,-0.04304504,0.9791107,-27.36177,8.06424,-37.64888,4.766205,0.3020045,0.3909438,1.0,0.2042084,-0.05599976,0.9773102,33.89839,9.086563,-44.54317,4.237778,0.4169149,0.4194204,-0.1267604,1.275333,-0.4114166,-0.03014815,-0.5534192,-0.03296305,0.2037194,4.297625,33.15
4,0.1901398,-0.04727173,0.9806061,1.0,0.1887207,-0.0224762,0.9817657,-27.45183,8.013062,-37.48813,4.691986,0.3075115,0.3877029,1.0,0.1906433,-0.05665588,0.980011,33.83258,9.031158,-44.47928,4.305389,0.4222474,0.4210767,-0.1278015,1.275487,-0.4132895,-0.03133643,-0.5600241,-0.03223558,0.2037194,4.297625,33.15
4,0.1834564,-0.05453491,0.9815063,1.0,0.1816101,-0.03346252,0.9827881,-27.54958,7.982803,-37.28662,4.770309,0.3128547,0.3892154,1.0,0.1836243,-0.05648804,0.981369,33.72581,9.022079,-44.48683,4.29393,0.427835,0.4215049,-0.1281941,1.275535,-0.4141724,-0.03173418,-0.5627361,-0.03191748,0.2037194,4.297625,33.15
4,0.1834564,-0.05453491,0.9815063,1.0,0.1816101,-0.03346252,0.9827881,-27.54958,7.982803,-37.28662,4.770309,0.3128547,0.3892154,1.0,0.1836243,-0.05648804,0.981369,33.72581,9.022079,-44.48683,4.29393,0.427835,0.4215049,-0.1281941,1.275535,-0.4141724,-0.03173418,-0.5627361,-0.03191748,0.2037194,4.297625,33.15
4,0.1780396,-0.05422974,0.9825134,1.0,0.1813049,-0.03501892,0.9827881,-27.48833,8.002808,-37.38718,4.763474,0.3104608,0.389575,1.0,0.1777802,-0.05570984,0.9824829,33.86115,9.028702,-44.48228,4.213333,0.4236197,0.4209057,-0.1289103,1.275675,-0.4158747,-0.03184538,-0.5679213,-0.03249479,0.2037194,4.297625,33.15
4,0.1780396,-0.05422974,0.9825134,1.0,0.1813049,-0.03501892,0.9827881,-27.48833,8.002808,-37.38718,4.763474,0.3104608,0.389575,1.0,0.1777802,-0.05570984,0.9824829,33.86115,9.028702,-44.48228,4.213333,0.4236197,0.4209057,-0.1289103,1.275675,-0.4158747,-0.03184538,-0.5679213,-0.03249479,0.2037194,4.297625,33.15
4,0.2813873,-0.04690552,0.9584351,1.0,0.2733307,-0.04420471,0.9608917,-26.99629,8.150467,-37.70746,4.734009,0.273323,0.3877065,1.0,0.2822266,-0.04718018,0.9581757,34.17593,9.060562,-44.59698,4.251877,0.3903071,0.419631,-0.1299087,1.27587,-0.4177384,-0.03251381,-0.5736625,-0.03323901,0.2037194,4.297625,33.15
4,0.3293762,-0.04722595,0.9430084,1.0,0.317688,-0.02464294,0.9478607,-26.51337,8.116211,-37.80496,4.749023,0.2449487,0.3849402,1.0,0.3308563,-0.0500946,0.942337,34.55879,9.060989,-44.70813,4.234909,0.3650449,0.4214892,-0.1303267,1.276047,-0.4188612,-0.03349045,-0.5771402,-0.03339956,0.2037194,4.297625,33.15
4,0.3237762,-0.03889465,0.9453278,1.0,0.3364868,-0.01560974,0.9415436,-26.31953,8.15152,-37.87717,4.740891,0.2329027,0.3818941,1.0,0.3228912,-0.04048157,0.9455566,34.71832,9.068329,-44.73233,4.202469,0.3601839,0.4192349,-0.1311097,1.276371,-0.4210473,-0.03548227,-0.5851498,-0.03333,0.2037194,4.297625,33.15
4,0.3237762,-0.03889465,0.9453278,1.0,0.3364868,-0.01560974,0.9415436,-26.31953,8.15152,-37.87717,4.740891,0.2329027,0.3818941,1.0,0.3228912,-0.04048157,0.9455566,34.71832,9.068329,-44.73233,4.202469,0.3601839,0.4192349,-0.1311097,1.276371,-0.4210473,-0.03548227,-0.5851498,-0.03333,0.2037194,4.297625,33.15
4,0.3206177,-0.03704834,0.9464722,1.0,0.3324127,-0.008651733,0.9430847,-26.40614,8.14566,-37.85191,4.741577,0.2372724,0.3807855,1.0,0.3181152,-0.04301453,0.9470673,34.70174,9.052917,-44.72606,4.292465,0.3618865,0.4202698,-0.1314478,1.27651,-0.4220191,-0.03562582,-0.5887961,-0.03305909,0.2037194,4.297625,33.15
4,0.3206177,-0.03704834,0.9464722,1.0,0.3324127,-0.008651733,0.9430847,-26.40614,8.14566,-37.85191,4.741577,0.2372724,0.3807855,1.0,0.3181152,-0.04301453,0.9470673,34.70174,9.052917,-44.72606,4.292465,0.3618865,0.4202698,-0.1314478,1.27651,-0.4220191,-0.03562582,-0.5887961,-0.03305909,0.2037194,4.297625,33.15
4,0.3047028,-0.04057312,0.9515686,1.0,0.3054657,-0.03153992,0.9516754,-26.52983,8.11058,-37.78169,4.824646,0.2481501,0.3862894,1.0,0.304245,-0.04577637,0.9514771,34.63872,9.035278,-44.70715,4.244873,0.3672551,0.4212616,-0.1317511,1.276605,-0.4229227,-0.03526385,-0.5915467,-0.03306405,0.2037194,4.297625,33.15
4,0.3047028,-0.04057312,0.9515686,1.0,0.3054657,-0.03153992,0.9516754,-26.52983,8.11058,-37.78169,4.824646,0.2481501,0.3862894,1.0,0.304245,-0.04577637,0.9514771,34.63872,9.035278,-44.70715,4.244873,0.3672551,0.4212616,-0.1317511,1.276605,-0.4229227,-0.03526385,-0.5915467,-0.03306405,0.2037194,4.297625,33.15
4,0.3002777,-0.04208374,0.9529114,1.0,0.3042908,-0.04388428,0.9515533,-26.73711,8.124771,-37.7666,4.886856,0.2567781,0.3885102,1.0,0.297699,-0.04092407,0.9537659,34.47815,9.017975,-44.67761,4.320313,0.3750644,0.4207701,-0.1323491,1.276504,-0.4247948,-0.03417271,-0.5959525,-0.03379298,0.2037194,25.98369,33.15
4,0.3002777,-0.04208374,0.9529114,1.0,0.3042908,-0.04388428,0.9515533,-26.73711,8.124771,-37.7666,4.886856,0.2567781,0.3885102,1.0,0.297699,-0.04092407,0.9537659,34.47815,9.017975,-44.67761,4.320313,0.3750644,0.4207701,-0.1323491,1.276504,-0.4247948,-0.03417271,-0.5959525,-0.03379298,0.2037194,25.98369,33.15
4,0.2859802,-0.04510498,0.9571686,1.0,0.2795715,-0.03874207,0.9593353,-26.74565,8.151489,-37.74046,4.761124,0.2620881,0.3863154,1.0,0.2905121,-0.04962158,0.9555664,34.43982,9.023148,-44.65778,4.223465,0.3780521,0.422071,-0.1329807,1.276448,-0.4266667,-0.03515879,-0.601342,-0.03275308,0.2037194,25.98369,33.15
4,0.2859802,-0.04510498,0.9571686,1.0,0.2795715,-0.03874207,0.9593353,-26.74565,8.151489,-37.74046,4.761124,0.2620881,0.3863154,1.0,0.2905121,-0.04962158,0.9555664,34.43982,9.023148,-44.65778,4.223465,0.3780521,0.422071,-0.1329807,1.276448,-0.4266667,-0.03515879,-0.601342,-0.03275308,0.2037194,25.98369,33.15
4,0.2733459,-0.04533386,0.9608307,1.0,0.2702332,-0.03694153,0.9620819,-26.82986,8.149139,-37.714,4.731979,0.2673188,0.386026,1.0,0.2757874,-0.05195618,0.9598083,34.37122,9.042587,-44.63231,4.223694,0.3837909,0.42144,-0.1334287,1.276485,-0.4278536,-0.03472584,-0.6043301,-0.03177125,0.2037194,25.98369,33.15
4,0.2758179,-0.0458374,0.9600983,1.0,0.283844,-0.03526306,0.9582062,-27.00571,8.088348,-37.69583,4.826248,0.2716027,0.38826,1.0,0.2686462,-0.05523682,0.9616394,34.27927,9.055252,-44.60951,4.154327,0.3888888,0.4213662,-0.1336749,1.276189,-0.4288255,-0.03337323,-0.6053028,-0.03164895,0.2037194,25.98369,33.15
4,0.2758179,-0.0458374,0.9600983,1.0,0.283844,-0.03526306,0.9582062,-27.00571,8.088348,-37.69583,4.826248,0.2716027,0.38826,1.0,0.2686462,-0.05523682,0.9616394,34.27927,9.055252,-44.60951,4.154327,0.3888888,0.4213662,-0.1336749,1.276189,-0.4288255,-0.03337323,-0.6053028,-0.03164895,0.2037194,25.98369,33.15
4,0.2632141,-0.04145813,0.9638367,1.0,0.2636108,-0.03497314,0.9639893,-26.98549,8.072662,-37.71094,4.713486,0.2748295,0.3889212,1.0,0.2628021,-0.04806519,0.9636383,34.28664,9.016205,-44.61797,4.214386,0.3897694,0.4215083,-0.1341093,1.276015,-0.4300684,-0.03430784,-0.6086993,-0.02958109,0.2037194,25.98369,33.15
4,0.2620697,-0.04681396,0.9638977,1.0,0.261261,-0.04431152,0.9642334,-26.92819,8.164993,-37.69623,4.816895,0.2729662,0.3868717,1.0,0.2629089,-0.04949951,0.9635315,34.32013,9.017075,-44.62059,4.258896,0.3884313,0.4217686,-0.1345205,1.275996,-0.4313415,-0.03419189,-0.6119437,-0.02783899,0.2037194,25.98369,33.15
4,0.2620697,-0.04681396,0.9638977,1.0,0.261261,-0.04431152,0.9642334,-26.92819,8.164993,-37.69623,4.816895,0.2729662,0.3868717,1.0,0.2629089,-0.04949951,0.9635315,34.32013,9.017075,-44.62059,4.258896,0.3884313,0.4217686,-0.1345205,1.275996,-0.4313415,-0.03419189,-0.6119437,-0.02783899,0.2037194,25.98369,33.15
4,0.2559357,-0.03730774,0.9659729,1.0,0.2517242,-0.02760315,0.967392,-26.94547,8.157471,-37.69357,4.730698,0.2754531,0.3839909,1.0,0.259903,-0.04653931,0.9645081,34.26802,9.057251,-44.59529,4.285431,0.3911328,0.419346,-0.1347578,1.27567,-0.4322822,-0.03152181,-0.6130734,-0.02734838,0.2037194,25.98369,33.15
4,0.2559357,-0.03730774,0.9659729,1.0,0.2517242,-0.02760315,0.967392,-26.94547,8.157471,-37.69357,4.730698,0.2754531,0.3839909,1.0,0.259903,-0.04653931,0.9645081,34.26802,9.057251,-44.59529,4.285431,0.3911328,0.419346,-0.1347578,1.27567,-0.4322822,-0.03152181,-0.6130734,-0.02734838,0.2037194,25.98369,33.15
4,0.2539368,-0.03717041,0.9664917,1.0,0.2471619,-0.03266907,0.9684143,-27.02817,8.107727,-37.6844,4.766937,0.2796607,0.3869663,1.0,0.260376,-0.04145813,0.9645996,34.16447,9.032364,-44.57349,4.225403,0.3951374,0.4191693,-0.1350204,1.275329,-0.4336047,-0.03093224,-0.6156516,-0.02613217,0.2037194,25.98369,33.15
4,0.2539368,-0.03717041,0.9664917,1.0,0.2471619,-0.03266907,0.9684143,-27.02817,8.107727,-37.6844,4.766937,0.2796607,0.3869663,1.0,0.260376,-0.04145813,0.9645996,34.16447,9.032364,-44.57349,4.225403,0.3951374,0.4191693,-0.1350204,1.275329,-0.4336047,-0.03093224,-0.6156516,-0.02613217,0.2037194,25.98369,33.15
4,0.2538147,-0.03147888,0.9667358,1.0,0.2459412,-0.03161621,0.9687653,-27.00102,8.178467,-37.67856,4.779602,0.2787535,0.3839269,1.0,0.2626495,-0.03132629,0.9643707,34.21356,9.034515,-44.58308,4.316147,0.3927355,0.4171398,-0.1355524,1.275349,-0.4352691,-0.03223119,-0.6207361,-0.02453826,0.2037194,25.98369,33.15
4,0.2538147,-0.03147888,0.9667358,1.0,0.2459412,-0.03161621,0.9687653,-27.00102,8.178467,-37.67856,4.779602,0.2787535,0.3839269,1.0,0.2626495,-0.03132629,0.9643707,34.21356,9.034515,-44.58308,4.316147,0.3927355,0.4171398,-0.1355524,1.275349,-0.4352691,-0.03223119,-0.6207361,-0.02453826,0.2037194,25.98369,33.15
4,0.2492371,-0.02859497,0.9680176,1.0,0.2478027,-0.02191162,0.9685516,-26.99648,8.266205,-37.64256,4.732574,0.2781195,0.3783671,1.0,0.2505493,-0.03485107,0.9674683,34.2899,9.102585,-44.58253,4.34198,0.3921363,0.4149958,-0.1360413,1.275289,-0.4365727,-0.03090489,-0.6241472,-0.02379322,0.2037194,31.53942,33.15
4,0.2492371,-0.02859497,0.9680176,1.0,0.2478027,-0.02191162,0.9685516,-26.99648,8.266205,-37.64256,4.732574,0.2781195,0.3783671,1.0,0.2505493,-0.03485107,0.9674683,34.2899,9.102585,-44.58253,4.34198,0.3921363,0.4149958,-0.1360413,1.275289,-0.4365727,-0.03090489,-0.6241472,-0.02379322,0.2037194,31.53942,33.15
4,0.2297974,-0.02848816,0.9728088,1.0,0.2177582,-0.01673889,0.9758453,-27.08113,8.197174,-37.64452,4.767258,0.2872677,0.3802592,1.0,0.240387,-0.03886414,0.9698944,34.13191,9.110123,-44.54616,4.280838,0.4004644,0.4151709,-0.1361648,1.274824,-0.437448,-0.02858844,-0.6251391,-0.02433765,0.2037194,31.53942,33.15
4,0.2297974,-0.02848816,0.9728088,1.0,0.2177582,-0.01673889,0.9758453,-27.08113,8.197174,-37.64452,4.767258,0.2872677,0.3802592,1.0,0.240387,-0.03886414,0.9698944,34.13191,9.110123,-44.54616,4.280838,0.4004644,0.4151709,-0.1361648,1.274824,-0.437448,-0.02858844,-0.6251391,-0.02433765,0.2037194,31.53942,33.15
4,0.2281189,-0.03129578,0.973114,1.0,0.2280884,-0.01972961,0.9734344,-27.17149,8.161407,-37.63298,4.751556,0.2888679,0.3822784,1.0,0.2281189,-0.04252625,0.972702,34.05711,9.096085,-44.52737,4.376907,0.4059277,0.4162653,-0.1362656,1.274617,-0.4385681,-0.02883302,-0.6276338,-0.02342081,0.2037194,31.53942,33.15
4,0.2281189,-0.03129578,0.973114,1.0,0.2280884,-0.01972961,0.9734344,-27.17149,8.161407,-37.63298,4.751556,0.2888679,0.3822784,1.0,0.2281189,-0.04252625,0.972702,34.05711,9.096085,-44.52737,4.376907,0.4059277,0.4162653,-0.1362656,1.274617,-0.4385681,-0.02883302,-0.6276338,-0.02342081,0.2037194,31.53942,33.15
4,0.2253723,-0.03396606,0.9736633,1.0,0.2188263,-0.02262878,0.9754944,-27.14622,8.242584,-37.5972,4.781708,0.2896383,0.3793395,1.0,0.2322693,-0.04595947,0.9715576,34.08452,9.140457,-44.52689,4.303864,0.4039963,0.4151919,-0.1364175,1.274798,-0.4395857,-0.02933754,-0.6306776,-0.02292258,0.2037194,31.53942,33.15
4,0.2253723,-0.03396606,0.9736633,1.0,0.2188263,-0.02262878,0.9754944,-27.14622,8.242584,-37.5972,4.781708,0.2896383,0.3793395,1.0,0.2322693,-0.04595947,0.9715576,34.08452,9.140457,-44.52689,4.303864,0.4039963,0.4151919,-0.1364175,1.274798,-0.4395857,-0.02933754,-0.6306776,-0.02292258,0.2037194,31.53942,33.15
4,0.2200775,-0.02687073,0.9750977,1.0,0.2165527,-0.006881714,0.9762421,-27.1555,8.261551,-37.58452,4.574158,0.2904391,0.3755778,1.0,0.2229309,-0.04342651,0.9738617,34.07529,9.181061,-44.51289,4.310562,0.4062256,0.4128765,-0.136475,1.274758,-0.4403367,-0.02752002,-0.6315463,-0.02309453,0.2037194,31.53942,33.15
4,0.2200775,-0.02687073,0.9750977,1.0,0.2165527,-0.006881714,0.9762421,-27.1555,8.261551,-37.58452,4.574158,0.2904391,0.3755778,1.0,0.2229309,-0.04342651,0.9738617,34.07529,9.181061,-44.51289,4.310562,0.4062256,0.4128765,-0.136475,1.274758,-0.4403367,-0.02752002,-0.6315463,-0.02309453,0.2037194,31.53942,33.15
4,0.2200775,-0.02687073,0.9750977,1.0,0.2165527,-0.006881714,0.9762421,-27.1555,8.261551,-37.58452,4.574158,0.2904391,0.3755778,1.0,0.2229309,-0.04342651,0.9738617,34.07529,9.181061,-44.51289,4.310562,0.4062256,0.4128765,-0.136475,1.274758,-0.4403367,-0.02752002,-0.6315463,-0.02309453,0.2037194,31.53942,33.15
4,0.2438354,-0.034729,0.9691925,1.0,0.2291565,-0.03341675,0.9728088,-27.08167,8.169449,-37.64368,4.761108,0.2852331,0.3844899,1.0,0.2562408,-0.0358429,0.9659424,34.14258,9.084656,-44.55948,4.291122,0.3968603,0.4158268,-0.1362211,1.274368,-0.4410523,-0.02592062,-0.6315054,-0.02264232,0.2037194,31.53942,33.15
4,0.2438354,-0.034729,0.9691925,1.0,0.2291565,-0.03341675,0.9728088,-27.08167,8.169449,-37.64368,4.761108,0.2852331,0.3844899,1.0,0.2562408,-0.0358429,0.9659424,34.14258,9.084656,-44.55948,4.291122,0.3968603,0.4158268,-0.1362211,1.274368,-0.4410523,-0.02592062,-0.6315054,-0.02264232,0.2037194,31.53942,33.15
4,0.238739,-0.03593445,0.9704132,1.0,0.2237549,-0.03259277,0.9740906,-27.07129,8.194168,-37.63374,4.795471,0.2858351,0.3832629,1.0,0.251358,-0.03875732,0.9671021,34.14481,9.0849,-44.55579,4.347733,0.3977806,0.4163328,-0.135955,1.27425,-0.4417273,-0.02637312,-0.6326555,-0.02162161,0.2037194,31.53942,33.15
4,0.2395477,-0.03549194,0.9702301,1.0,0.2313843,-0.02954102,0.9723969,-27.0984,8.237183,-37.60011,4.700089,0.2854509,0.3808147,1.0,0.2464294,-0.04051208,0.9683075,34.16153,9.133179,-44.54462,4.327621,0.3981044,0.4146137,-0.1357539,1.274424,-0.4424644,-0.02724849,-0.6334159,-0.02129314,0.2037194,31.53942,33.15
4,0.2395477,-0.03549194,0.9702301,1.0,0.2313843,-0.02954102,0.9723969,-27.0984,8.237183,-37.60011,4.700089,0.2854509,0.3808147,1.0,0.2464294,-0.04051208,0.9683075,34.16153,9.133179,-44.54462,4.327621,0.3981044,0.4146137,-0.1357539,1.274424,-0.4424644,-0.02724849,-0.6334159,-0.02129314,0.2037194,31.53942,33.15
4,0.2311859,-0.03553772,0.9722443,1.0,0.216507,-0.02728271,0.9758911,-27.05692,8.252365,-37.62288,4.786896,0.2865974,0.3798939,1.0,0.2444611,-0.04301453,0.968689,34.14911,9.15329,-44.53642,4.310822,0.398993,0.4142184,-0.1354202,1.274575,-0.4430833,-0.02723181,-0.6338493,-0.02167702,0.2037194,-4.554083,33.15
4,0.2311859,-0.03553772,0.9722443,1.0,0.216507,-0.02728271,0.9758911,-27.05692,8.252365,-37.62288,4.786896,0.2865974,0.3798939,1.0,0.2444611,-0.04301453,0.968689,34.14911,9.15329,-44.53642,4.310822,0.398993,0.4142184,-0.1354202,1.274575,-0.4430833,-0.02723181,-0.6338493,-0.02167702,0.2037194,-4.554083,33.15
5,0.2349243,-0.03521729,0.9713593,1.0,0.2193451,-0.02548218,0.9753113,-27.11929,8.239746,-37.57251,4.782379,0.2885481,0.3797034,1.0,0.2470245,-0.04281616,0.9680481,34.14104,9.15239,-44.53661,4.325562,0.3988074,0.4142531,-0.1349467,1.274709,-0.4437661,-0.02810853,-0.6344773,-0.02170175,0.2037194,-4.554083,33.15
5,0.2349243,-0.03521729,0.9713593,1.0,0.2193451,-0.02548218,0.9753113,-27.11929,8.239746,-37.57251,4.782379,0.2885481,0.3797034,1.0,0.2470245,-0.04281616,0.9680481,34.14104,9.15239,-44.53661,4.325562,0.3988074,0.4142531,-0.1349467,1.274709,-0.4437661,-0.02810853,-0.6344773,-0.02170175,0.2037194,-4.554083,33.15
5,0.2328033,-0.03649902,0.9718323,1.0,0.2172394,-0.03082275,0.9756165,-27.0787,8.241501,-37.61359,4.744385,0.2873767,0.3809672,1.0,0.2459259,-0.04129028,0.968399,34.1431,9.14476,-44.53751,4.326523,0.3989443,0.4142433,-0.1343861,1.275051,-0.4444371,-0.02970864,-0.635325,-0.02112539,0.2037194,-4.554083,33.15
5,0.2328033,-0.03649902,0.9718323,1.0,0.2172394,-0.03082275,0.9756165,-27.0787,8.241501,-37.61359,4.744385,0.2873767,0.3809672,1.0,0.2459259,-0.04129028,0.968399,34.1431,9.14476,-44.53751,4.326523,0.3989443,0.4142433,-0.1343861,1.275051,-0.4444371,-0.02970864,-0.635325,-0.02112539,0.2037194,-4.554083,33.15
5,0.2323914,-0.03486633,0.9719849,1.0,0.2178955,-0.02874756,0.9755402,-27.08255,8.242035,-37.61359,4.759384,0.2873767,0.3805601,1.0,0.2445831,-0.0400238,0.9687958,34.14322,9.138229,-44.53793,4.334625,0.3992063,0.4142433,-0.1338112,1.275414,-0.44489,-0.03051489,-0.6353214,-0.02114848,0.2037194,-4.554083,33.15
5,0.2323914,-0.03486633,0.9719849,1.0,0.2178955,-0.02874756,0.9755402,-27.08255,8.242035,-37.61359,4.759384,0.2873767,0.3805601,1.0,0.2445831,-0.0400238,0.9687958,34.14322,9.138229,-44.53793,4.334625,0.3992063,0.4142433,-0.1338112,1.275414,-0.44489,-0.03051489,-0.6353214,-0.02114848,0.2037194,-4.554083,33.15
5,0.2335358,-0.03788757,0.9716034,1.0,0.2224121,-0.02706909,0.9745636,-27.15121,8.213318,-37.57655,4.818176,0.2892072,0.3811034,1.0,0.2432556,-0.04737854,0.9687958,34.09212,9.130295,-44.52533,4.289276,0.4015086,0.4159341,-0.1332068,1.275514,-0.4451964,-0.03161786,-0.6343567,-0.02081791,0.2037194,-4.554083,33.15
5,0.2335358,-0.03788757,0.9716034,1.0,0.2224121,-0.02706909,0.9745636,-27.15121,8.213318,-37.57655,4.818176,0.2892072,0.3811034,1.0,0.2432556,-0.04737854,0.9687958,34.09212,9.130295,-44.52533,4.289276,0.4015086,0.4159341,-0.1332068,1.275514,-0.4451964,-0.03161786,-0.6343567,-0.02081791,0.2037194,-4.554083,33.15
5,0.22995,-0.03430176,0.9725952,1.0,0.220993,-0.02989197,0.9748077,-27.16054,8.187653,-37.5733,4.799957,0.2898998,0.3826321,1.0,0.2379761,-0.03825378,0.9705048,34.0874,9.104065,-44.52881,4.35994,0.4027515,0.4151512,-0.1326294,1.275808,-0.4457366,-0.03364228,-0.6342404,-0.02002028,0.2037194,-4.554083,33.15
5,0.22995,-0.03430176,0.9725952,1.0,0.220993,-0.02989197,0.9748077,-27.16054,8.187653,-37.5733,4.799957,0.2898998,0.3826321,1.0,0.2379761,-0.03825378,0.9705048,34.0874,9.104065,-44.52881,4.35994,0.4027515,0.4151512,-0.1326294,1.275808,-0.4457366,-0.03364228,-0.6342404,-0.02002028,0.2037194,-4.554083,33.15
5,0.2279053,-0.03733826,0.9729614,1.0,0.2150879,-0.03213501,0.976059,-27.1405,8.209778,-37.56522,4.893616,0.2902077,0.3820672,1.0,0.2394257,-0.04202271,0.9700012,34.09908,9.100235,-44.52919,4.3452,0.4020016,0.4160593,-0.1323092,1.275982,-0.4459795,-0.03447638,-0.6343961,-0.02002884,0.2037194,-4.554083,33.15
5,0.2329102,-0.03793335,0.9717407,1.0,0.2241211,-0.03063965,0.9740753,-27.13388,8.220718,-37.57727,4.739548,0.288265,0.3815088,1.0,0.2414551,-0.04502869,0.9693604,34.13422,9.117676,-44.53082,4.261887,0.4001753,0.415963,-0.1320097,1.276146,-0.4461777,-0.03490496,-0.634414,-0.02025466,0.2037194,-4.554083,33.15
5,0.2329102,-0.03793335,0.9717407,1.0,0.2241211,-0.03063965,0.9740753,-27.13388,8.220718,-37.57727,4.739548,0.288265,0.3815088,1.0,0.2414551,-0.04502869,0.9693604,34.13422,9.117676,-44.53082,4.261887,0.4001753,0.415963,-0.1320097,1.276146,-0.4461777,-0.03490496,-0.634414,-0.02025466,0.2037194,-4.554083,33.15
5,0.2306976,-0.04534912,0.9719543,1.0,0.219574,-0.04310608,0.9746399,-27.15038,8.184128,-37.56459,4.777313,0.2898892,0.385194,1.0,0.2415619,-0.04754639,0.9692078,34.10381,9.111557,-44.5255,4.313599,0.4013883,0.4166922,-0.1314206,1.276304,-0.446306,-0.03417107,-0.6334494,-0.02071152,0.2037194,-25.58697,33.15
5,0.2306976,-0.04534912,0.9719543,1.0,0.219574,-0.04310608,0.9746399,-27.15038,8.184128,-37.56459,4.777313,0.2898892,0.385194,1.0,0.2415619,-0.04754639,0.9692078,34.10381,9.111557,-44.5255,4.313599,0.4013883,0.4166922,-0.1314206,1.276304,-0.446306,-0.03417107,-0.6334494,-0.02071152,0.2037194,-25.58697,33.15
5,0.2317657,-0.03952026,0.9719543,1.0,0.2253418,-0.02940369,0.9738312,-27.17389,8.151016,-37.59354,4.885208,0.2895409,0.3841267,1.0,0.2377625,-0.04904175,0.9700775,34.08028,9.080856,-44.52229,4.401489,0.4031159,0.4181874,-0.1308128,1.276394,-0.4463947,-0.03384002,-0.6323755,-0.02021453,0.2037194,-25.58697,33.15
5,0.2266388,-0.04077148,0.973114,1.0,0.2086334,-0.03561401,0.9773407,-27.11105,8.197464,-37.58745,4.885452,0.2903114,0.3833534,1.0,0.2435303,-0.04562378,0.968811,34.12408,9.082275,-44.53432,4.291092,0.400172,0.4175498,-0.130558,1.276546,-0.4465336,-0.03427981,-0.6324885,-0.01944715,0.2037194,-25.58697,33.15
5,0.2266388,-0.04077148,0.973114,1.0,0.2086334,-0.03561401,0.9773407,-27.11105,8.197464,-37.58745,4.885452,0.2903114,0.3833534,1.0,0.2435303,-0.04562378,0.968811,34.12408,9.082275,-44.53432,4.291092,0.400172,0.4175498,-0.130558,1.276546,-0.4465336,-0.03427981,-0.6324885,-0.01944715,0.2037194,-25.58697,33.15
5,0.2311707,-0.03936768,0.9721069,1.0,0.2186584,-0.03378296,0.9752045,-27.08054,8.218353,-37.5965,4.853439,0.2871759,0.3822224,1.0,0.243042,-0.04467773,0.9689789,34.15768,9.091339,-44.535,4.405319,0.3989766,0.4169948,-0.1301464,1.276806,-0.4468548,-0.03521882,-0.6335447,-0.01827165,0.2037194,-25.58697,33.15
5,0.2316437,-0.0375824,0.9720612,1.0,0.219101,-0.03833008,0.9749451,-27.07663,8.188141,-37.59651,4.833801,0.2870103,0.3842457,1.0,0.2438354,-0.03683472,0.969101,34.16124,9.087769,-44.54059,4.374512,0.3986452,0.4156213,-0.1298817,1.276767,-0.4471011,-0.03511002,-0.6340244,-0.01803917,0.2037194,-25.58697,33.15
5,0.2316437,-0.0375824,0.9720612,1.0,0.219101,-0.03833008,0.9749451,-27.07663,8.188141,-37.59651,4.833801,0.2870103,0.3842457,1.0,0.2438354,-0.03683472,0.969101,34.16124,9.087769,-44.54059,4.374512,0.3986452,0.4156213,-0.1298817,1.276767,-0.4471011,-0.03511002,-0.6340244,-0.01803917,0.2037194,-25.58697,33.15
5,0.2300873,-0.03128052,0.9726563,1.0,0.2181549,-0.02702332,0.9755249,-27.08275,8.171997,-37.60693,4.845993,0.2873529,0.3828112,1.0,0.2421417,-0.03559875,0.969574,34.15961,9.085541,-44.54135,4.391205,0.3990499,0.415456,-0.1294515,1.276459,-0.4475596,-0.03405992,-0.6354049,-0.01761221,0.2037194,-25.58697,33.15
5,0.2295532,-0.04167175,0.9723969,1.0,0.215683,-0.04473877,0.9754333,-27.09447,8.153915,-37.60597,4.81839,0.2884288,0.3869092,1.0,0.2429199,-0.03869629,0.9692688,34.15587,9.078751,-44.5415,4.391174,0.3990499,0.4163553,-0.12914,1.275977,-0.4481223,-0.03360583,-0.6379683,-0.01686802,0.2037194,-25.58697,33.15
