Second,eye_comb_direction_x,eye_comb_direction_y,eye_comb_direction_z,eye_r_openness,eye_r_direction_x,eye_r_direction_y,eye_r_direction_z,eye_r_origin_x,eye_r_origin_y,eye_r_origin_z,eye_r_pupil_diameter,eye_r_pupil_position_x,eye_r_pupil_position_y,eye_l_openness,eye_l_direction_x,eye_l_direction_y,eye_l_direction_z,eye_l_origin_x,eye_l_origin_y,eye_l_origin_z,eye_l_pupil_diameter,eye_l_pupil_position_x,eye_l_pupil_position_y,head_position_x,head_position_y,head_position_z,head_rotation_roll,head_rotation_pitch,head_rotation_yaw,EDA,BVP,TMP
0,0.0684967,-0.3957672,0.9157867,0.9542647,-0.06178284,-0.39888,0.9149017,-28.50813,5.89949,-31.47986,3.95369,0.4116149999999999,0.4657867999999999,0.9887089,0.2993622,-0.3732147,0.8781128,34.92218,4.908691,-35.15573,3.841507,0.379627,0.5167456,-0.2737847,1.3175370000000002,0.0087364909999999,-0.02952159,0.596051,-0.01097072,6.818234067353607,-0.6200448255089219,33.9304423221915
0,0.0684967,-0.3957672,0.9157867,0.9542647,-0.06178284,-0.39888,0.9149017,-28.50813,5.89949,-31.47986,3.95369,0.4116149999999999,0.4657867999999999,0.9887089,0.2993622,-0.3732147,0.8781128,34.92218,4.908691,-35.15573,3.841507,0.379627,0.5167456,-0.2737847,1.3175370000000002,0.0087364909999999,-0.02952159,0.596051,-0.01097072,6.818234067353607,-0.6200448255089219,33.9304423221915
0,0.0684967,-0.3957672,0.9157867,0.9542647,-0.06178284,-0.39888,0.9149017,-28.50813,5.89949,-31.47986,3.95369,0.4116149999999999,0.4657867999999999,0.9887089,0.2993622,-0.3732147,0.8781128,34.92218,4.908691,-35.15573,3.841507,0.379627,0.5167456,-0.2737847,1.3175370000000002,0.0087364909999999,-0.02952159,0.596051,-0.01097072,6.818234067353607,-0.6200448255089219,33.9304423221915
0,0.0684967,-0.3957672,0.9157867,0.9542647,-0.06178284,-0.39888,0.9149017,-28.50813,5.89949,-31.47986,3.95369,0.4116149999999999,0.4657867999999999,0.9887089,0.2993622,-0.3732147,0.8781128,34.92218,4.908691,-35.15573,3.841507,0.379627,0.5167456,-0.2737847,1.3175370000000002,0.0087364909999999,-0.02952159,0.596051,-0.01097072,6.818234067353607,-0.6200448255089219,33.9304423221915
0,0.09487915,-0.39711,0.9128418,0.9628282,-0.07455444,-0.4024506,0.912384,-28.5363,5.887955000000001,-31.48354,3.890808,0.414135,0.4667866,0.9702913,0.2900238,-0.376297,0.8799133,34.93468,4.917404,-35.15038,3.797714,0.3804181,0.5167529000000001,-0.2738917,1.317494,0.008866429,-0.0291591,0.595879,-0.01089952,6.818234067353607,-0.6200448255089219,33.9304423221915
0,0.09487915,-0.39711,0.9128418,0.9628282,-0.07455444,-0.4024506,0.912384,-28.5363,5.887955000000001,-31.48354,3.890808,0.414135,0.4667866,0.9702913,0.2900238,-0.376297,0.8799133,34.93468,4.917404,-35.15038,3.797714,0.3804181,0.5167529000000001,-0.2738917,1.317494,0.008866429,-0.0291591,0.595879,-0.01089952,6.818234067353607,-0.6200448255089219,33.9304423221915
0,0.09487915,-0.39711,0.9128418,0.9628282,-0.07455444,-0.4024506,0.912384,-28.5363,5.887955000000001,-31.48354,3.890808,0.414135,0.4667866,0.9702913,0.2900238,-0.376297,0.8799133,34.93468,4.917404,-35.15038,3.797714,0.3804181,0.5167529000000001,-0.2738917,1.317494,0.008866429,-0.0291591,0.595879,-0.01089952,6.818234067353607,-0.6200448255089219,33.9304423221915
0,0.1240233999999999,-0.3917236,0.9116821,0.9622165,-0.07453918,-0.3993073,0.9137726,-28.53961,5.884521,-31.48386,3.879852,0.4142457999999999,0.4664932,0.9803332,0.2903595,-0.3729095,0.8812561,34.93538,4.916641,-35.149840000000005,3.796783,0.380364,0.5163048,-0.2739459,1.317457,0.008999825,-0.0288884,0.5957898,-0.01079132,6.818234067353607,-0.6200448255089219,33.9304423221915
0,0.1240233999999999,-0.3917236,0.9116821,0.9622165,-0.07453918,-0.3993073,0.9137726,-28.53961,5.884521,-31.48386,3.879852,0.4142457999999999,0.4664932,0.9803332,0.2903595,-0.3729095,0.8812561,34.93538,4.916641,-35.149840000000005,3.796783,0.380364,0.5163048,-0.2739459,1.317457,0.008999825,-0.0288884,0.5957898,-0.01079132,6.818234067353607,-0.6200448255089219,33.9304423221915
0,0.1240233999999999,-0.3917236,0.9116821,0.9622165,-0.07453918,-0.3993073,0.9137726,-28.53961,5.884521,-31.48386,3.879852,0.4142457999999999,0.4664932,0.9803332,0.2903595,-0.3729095,0.8812561,34.93538,4.916641,-35.149840000000005,3.796783,0.380364,0.5163048,-0.2739459,1.317457,0.008999825,-0.0288884,0.5957898,-0.01079132,6.818234067353607,-0.6200448255089219,33.9304423221915
0,0.1516571,-0.3851776,0.9102783,0.9786023,-0.07505798,-0.390686,0.91745,-28.54944,5.888428,-31.48328,3.804718,0.4146263,0.4652507000000001,0.9865018,0.2872772,-0.3719788,0.8826599,34.9502,4.916641,-35.14891,3.769104,0.3802504,0.5161555,-0.2739957,1.317353,0.009041071,-0.02874257,0.5956931,-0.01056667,6.818234067353607,-0.6200448255089219,33.9304423221915
0,0.1516571,-0.3851776,0.9102783,0.9786023,-0.07505798,-0.390686,0.91745,-28.54944,5.888428,-31.48328,3.804718,0.4146263,0.4652507000000001,0.9865018,0.2872772,-0.3719788,0.8826599,34.9502,4.916641,-35.14891,3.769104,0.3802504,0.5161555,-0.2739957,1.317353,0.009041071,-0.02874257,0.5956931,-0.01056667,6.818234067353607,-0.6200448255089219,33.9304423221915
0,0.1516571,-0.3851776,0.9102783,0.9786023,-0.07505798,-0.390686,0.91745,-28.54944,5.888428,-31.48328,3.804718,0.4146263,0.4652507000000001,0.9865018,0.2872772,-0.3719788,0.8826599,34.9502,4.916641,-35.14891,3.769104,0.3802504,0.5161555,-0.2739957,1.317353,0.009041071,-0.02874257,0.5956931,-0.01056667,6.818234067353607,-0.6200448255089219,33.9304423221915
0,0.1493225,-0.381897,0.9120483,0.9605021,-0.07272339,-0.3898315,0.9179993,-28.58333,5.893905999999999,-31.472490000000004,3.715607,0.4154889,0.464909,0.9702863000000002,0.2843323,-0.3673859,0.8855286,34.962270000000004,4.918335,-35.14703,3.700180000000001,0.3802504,0.5154278,-0.2741250999999999,1.3173700000000002,0.009263277,-0.02847668,0.5955244000000001,-0.01009426,6.818234067353607,-0.6200448255089219,33.9304423221915
0,0.1493225,-0.381897,0.9120483,0.9605021,-0.07272339,-0.3898315,0.9179993,-28.58333,5.893905999999999,-31.472490000000004,3.715607,0.4154889,0.464909,0.9702863000000002,0.2843323,-0.3673859,0.8855286,34.962270000000004,4.918335,-35.14703,3.700180000000001,0.3802504,0.5154278,-0.2741250999999999,1.3173700000000002,0.009263277,-0.02847668,0.5955244000000001,-0.01009426,6.818234067353607,-0.6200448255089219,33.9304423221915
0,0.1493225,-0.381897,0.9120483,0.9605021,-0.07272339,-0.3898315,0.9179993,-28.58333,5.893905999999999,-31.472490000000004,3.715607,0.4154889,0.464909,0.9702863000000002,0.2843323,-0.3673859,0.8855286,34.962270000000004,4.918335,-35.14703,3.700180000000001,0.3802504,0.5154278,-0.2741250999999999,1.3173700000000002,0.009263277,-0.02847668,0.5955244000000001,-0.01009426,6.818234067353607,-0.6200448255089219,33.9304423221915
0,0.1496124,-0.3805847,0.9125519,0.9690416,-0.07196045,-0.3899230999999999,0.9180145,-28.58546,5.894226000000001,-31.4724,3.710114,0.4154670999999999,0.4649051999999999,0.9660044,0.2833405,-0.3654175,0.8866576999999999,34.96461,4.918808,-35.14702,3.690598000000001,0.3803071,0.5151339,-0.2742139,1.317388,0.009419918,-0.02832833,0.5954159000000001,-0.00983064,6.818234067353607,-0.6200448255089219,33.9304423221915
0,0.1496124,-0.3805847,0.9125519,0.9690416,-0.07196045,-0.3899230999999999,0.9180145,-28.58546,5.894226000000001,-31.4724,3.710114,0.4154670999999999,0.4649051999999999,0.9660044,0.2833405,-0.3654175,0.8866576999999999,34.96461,4.918808,-35.14702,3.690598000000001,0.3803071,0.5151339,-0.2742139,1.317388,0.009419918,-0.02832833,0.5954159000000001,-0.00983064,6.818234067353607,-0.6200448255089219,33.9304423221915
0,0.1496124,-0.3805847,0.9125519,0.9690416,-0.07196045,-0.3899230999999999,0.9180145,-28.58546,5.894226000000001,-31.4724,3.710114,0.4154670999999999,0.4649051999999999,0.9660044,0.2833405,-0.3654175,0.8866576999999999,34.96461,4.918808,-35.14702,3.690598000000001,0.3803071,0.5151339,-0.2742139,1.317388,0.009419918,-0.02832833,0.5954159000000001,-0.00983064,6.818234067353607,-0.6200448255089219,33.9304423221915
0,0.1467133,-0.3796844,0.9133911,0.9585438,-0.07032776,-0.3898315,0.9181824,-28.60701,5.89357,-31.469240000000003,3.678329,0.4160051999999999,0.4649127999999999,0.9568196,0.2796172999999999,-0.364151,0.8883514000000001,34.9782,4.923157,-35.14638,3.563477,0.380364,0.514806,-0.2743381,1.317395,0.009596467,-0.02826528,0.5952281,-0.009487778,6.818234067353607,-0.6200448255089219,33.9304423221915
0,0.1467133,-0.3796844,0.9133911,0.9585438,-0.07032776,-0.3898315,0.9181824,-28.60701,5.89357,-31.469240000000003,3.678329,0.4160051999999999,0.4649127999999999,0.9568196,0.2796172999999999,-0.364151,0.8883514000000001,34.9782,4.923157,-35.14638,3.563477,0.380364,0.514806,-0.2743381,1.317395,0.009596467,-0.02826528,0.5952281,-0.009487778,6.818234067353607,-0.6200448255089219,33.9304423221915
0,0.1467133,-0.3796844,0.9133911,0.9585438,-0.07032776,-0.3898315,0.9181824,-28.60701,5.89357,-31.469240000000003,3.678329,0.4160051999999999,0.4649127999999999,0.9568196,0.2796172999999999,-0.364151,0.8883514000000001,34.9782,4.923157,-35.14638,3.563477,0.380364,0.514806,-0.2743381,1.317395,0.009596467,-0.02826528,0.5952281,-0.009487778,6.818234067353607,-0.6200448255089219,33.9304423221915
0,0.1416168,-0.3805847,0.9138336,0.9556122,-0.06877136,-0.3922424,0.9172821,-28.61722,5.89325,-31.469240000000003,3.5728150000000003,0.4161132999999999,0.4653135,0.9548529,0.2724304,-0.3643494,0.8905029000000001,34.98256,4.923157,-35.14604,3.4735410000000004,0.3811884,0.514806,-0.274404,1.317413,0.009824395,-0.02816916,0.5947855,-0.008947846,6.818234067353607,-0.6200448255089219,33.9304423221915
0,0.1416168,-0.3805847,0.9138336,0.9556122,-0.06877136,-0.3922424,0.9172821,-28.61722,5.89325,-31.469240000000003,3.5728150000000003,0.4161132999999999,0.4653135,0.9548529,0.2724304,-0.3643494,0.8905029000000001,34.98256,4.923157,-35.14604,3.4735410000000004,0.3811884,0.514806,-0.274404,1.317413,0.009824395,-0.02816916,0.5947855,-0.008947846,6.818234067353607,-0.6200448255089219,33.9304423221915
0,0.1416168,-0.3805847,0.9138336,0.9556122,-0.06877136,-0.3922424,0.9172821,-28.61722,5.89325,-31.469240000000003,3.5728150000000003,0.4161132999999999,0.4653135,0.9548529,0.2724304,-0.3643494,0.8905029000000001,34.98256,4.923157,-35.14604,3.4735410000000004,0.3811884,0.514806,-0.274404,1.317413,0.009824395,-0.02816916,0.5947855,-0.008947846,6.818234067353607,-0.6200448255089219,33.9304423221915
0,0.1360931,-0.3834991,0.9134521,0.9453367,-0.07218933,-0.3959503,0.9154205,-28.623520000000003,5.891602,-31.469240000000003,3.5174410000000003,0.4167234999999999,0.4659196,0.9463649,0.2666779,-0.3667297,0.8912810999999999,34.98297,4.923157,-35.14484,3.392151,0.3819571,0.515108,-0.274403,1.317454,0.01002049,-0.02806038,0.5945803000000001,-0.008783552,6.818234067353607,-0.6200448255089219,33.9304423221915
0,0.1360931,-0.3834991,0.9134521,0.9453367,-0.07218933,-0.3959503,0.9154205,-28.623520000000003,5.891602,-31.469240000000003,3.5174410000000003,0.4167234999999999,0.4659196,0.9463649,0.2666779,-0.3667297,0.8912810999999999,34.98297,4.923157,-35.14484,3.392151,0.3819571,0.515108,-0.274403,1.317454,0.01002049,-0.02806038,0.5945803000000001,-0.008783552,6.818234067353607,-0.6200448255089219,33.9304423221915
0,0.1360931,-0.3834991,0.9134521,0.9453367,-0.07218933,-0.3959503,0.9154205,-28.623520000000003,5.891602,-31.469240000000003,3.5174410000000003,0.4167234999999999,0.4659196,0.9463649,0.2666779,-0.3667297,0.8912810999999999,34.98297,4.923157,-35.14484,3.392151,0.3819571,0.515108,-0.274403,1.317454,0.01002049,-0.02806038,0.5945803000000001,-0.008783552,6.818234067353607,-0.6200448255089219,33.9304423221915
0,0.1360931,-0.3834991,0.9134521,0.9453367,-0.07218933,-0.3959503,0.9154205,-28.623520000000003,5.891602,-31.469240000000003,3.5174410000000003,0.4167234999999999,0.4659196,0.9463649,0.2666779,-0.3667297,0.8912810999999999,34.98297,4.923157,-35.14484,3.392151,0.3819571,0.515108,-0.2744467,1.317473,0.01022136,-0.02803249,0.5943699,-0.008752109,6.818234067353607,-0.6200448255089219,33.9304423221915
0,0.1360931,-0.3834991,0.9134521,0.9453367,-0.07218933,-0.3959503,0.9154205,-28.623520000000003,5.891602,-31.469240000000003,3.5174410000000003,0.4167234999999999,0.4659196,0.9463649,0.2666779,-0.3667297,0.8912810999999999,34.98297,4.923157,-35.14484,3.392151,0.3819571,0.515108,-0.2744467,1.317473,0.01022136,-0.02803249,0.5943699,-0.008752109,6.818234067353607,-0.6200448255089219,33.9304423221915
0,0.1360931,-0.3834991,0.9134521,0.9453367,-0.07218933,-0.3959503,0.9154205,-28.623520000000003,5.891602,-31.469240000000003,3.5174410000000003,0.4167234999999999,0.4659196,0.9463649,0.2666779,-0.3667297,0.8912810999999999,34.98297,4.923157,-35.14484,3.392151,0.3819571,0.515108,-0.2744467,1.317473,0.01022136,-0.02803249,0.5943699,-0.008752109,6.818234067353607,-0.6200448255089219,33.9304423221915
0,0.1360931,-0.3834991,0.9134521,0.9453367,-0.07218933,-0.3959503,0.9154205,-28.623520000000003,5.891602,-31.469240000000003,3.5174410000000003,0.4167234999999999,0.4659196,0.9463649,0.2666779,-0.3667297,0.8912810999999999,34.98297,4.923157,-35.14484,3.392151,0.3819571,0.515108,-0.2745688,1.317464,0.01052511,-0.02780645,0.594075,-0.008814034,6.818234067353607,25.16846,33.9304423221915
0,0.1360931,-0.3834991,0.9134521,0.9453367,-0.07218933,-0.3959503,0.9154205,-28.623520000000003,5.891602,-31.469240000000003,3.5174410000000003,0.4167234999999999,0.4659196,0.9463649,0.2666779,-0.3667297,0.8912810999999999,34.98297,4.923157,-35.14484,3.392151,0.3819571,0.515108,-0.2745688,1.317464,0.01052511,-0.02780645,0.594075,-0.008814034,6.818234067353607,25.16846,33.9304423221915
0,0.1360931,-0.3834991,0.9134521,0.9453367,-0.07218933,-0.3959503,0.9154205,-28.623520000000003,5.891602,-31.469240000000003,3.5174410000000003,0.4167234999999999,0.4659196,0.9463649,0.2666779,-0.3667297,0.8912810999999999,34.98297,4.923157,-35.14484,3.392151,0.3819571,0.515108,-0.2745688,1.317464,0.01052511,-0.02780645,0.594075,-0.008814034,6.818234067353607,25.16846,33.9304423221915
0,0.1249847,-0.388504,0.9129181,0.967792,-0.07495117,-0.4024506,0.9123535,-28.65845,5.883621,-31.48882,3.352234,0.4181876,0.4673724,0.9558527,0.2461547999999999,-0.3720855999999999,0.8949431999999999,34.97723,4.915939,-35.142720000000004,3.148407,0.3849548,0.516062,-0.2746302,1.317413,0.01062691,-0.02757682,0.5938035,-0.008784823,6.83894,25.16846,33.9304423221915
0,0.1249847,-0.388504,0.9129181,0.967792,-0.07495117,-0.4024506,0.9123535,-28.65845,5.883621,-31.48882,3.352234,0.4181876,0.4673724,0.9558527,0.2461547999999999,-0.3720855999999999,0.8949431999999999,34.97723,4.915939,-35.142720000000004,3.148407,0.3849548,0.516062,-0.2746302,1.317413,0.01062691,-0.02757682,0.5938035,-0.008784823,6.827408,25.16846,33.9304423221915
0,0.1249847,-0.388504,0.9129181,0.967792,-0.07495117,-0.4024506,0.9123535,-28.65845,5.883621,-31.48882,3.352234,0.4181876,0.4673724,0.9558527,0.2461547999999999,-0.3720855999999999,0.8949431999999999,34.97723,4.915939,-35.142720000000004,3.148407,0.3849548,0.516062,-0.2746302,1.317413,0.01062691,-0.02757682,0.5938035,-0.008784823,6.827408,25.16846,33.9304423221915
0,0.1249847,-0.388504,0.9129181,0.967792,-0.07495117,-0.4024506,0.9123535,-28.65845,5.883621,-31.48882,3.352234,0.4181876,0.4673724,0.9558527,0.2461547999999999,-0.3720855999999999,0.8949431999999999,34.97723,4.915939,-35.142720000000004,3.148407,0.3849548,0.516062,-0.2748342,1.317339,0.01081121,-0.02744696,0.5936213,-0.00899394,6.827408,25.16846,33.9304423221915
0,0.1249847,-0.388504,0.9129181,0.967792,-0.07495117,-0.4024506,0.9123535,-28.65845,5.883621,-31.48882,3.352234,0.4181876,0.4673724,0.9558527,0.2461547999999999,-0.3720855999999999,0.8949431999999999,34.97723,4.915939,-35.142720000000004,3.148407,0.3849548,0.516062,-0.2748342,1.317339,0.01081121,-0.02744696,0.5936213,-0.00899394,6.827408,25.16846,33.9304423221915
0,0.1249847,-0.388504,0.9129181,0.967792,-0.07495117,-0.4024506,0.9123535,-28.65845,5.883621,-31.48882,3.352234,0.4181876,0.4673724,0.9558527,0.2461547999999999,-0.3720855999999999,0.8949431999999999,34.97723,4.915939,-35.142720000000004,3.148407,0.3849548,0.516062,-0.2748342,1.317339,0.01081121,-0.02744696,0.5936213,-0.00899394,6.827408,25.16846,33.9304423221915
0,0.1249847,-0.388504,0.9129181,0.967792,-0.07495117,-0.4024506,0.9123535,-28.65845,5.883621,-31.48882,3.352234,0.4181876,0.4673724,0.9558527,0.2461547999999999,-0.3720855999999999,0.8949431999999999,34.97723,4.915939,-35.142720000000004,3.148407,0.3849548,0.516062,-0.2749117,1.317327,0.01089776,-0.02736214,0.5935305999999999,-0.009027015,6.827408,25.16846,33.9304423221915
0,0.1249847,-0.388504,0.9129181,0.967792,-0.07495117,-0.4024506,0.9123535,-28.65845,5.883621,-31.48882,3.352234,0.4181876,0.4673724,0.9558527,0.2461547999999999,-0.3720855999999999,0.8949431999999999,34.97723,4.915939,-35.142720000000004,3.148407,0.3849548,0.516062,-0.2749117,1.317327,0.01089776,-0.02736214,0.5935305999999999,-0.009027015,6.827408,25.16846,33.9304423221915
0,0.1249847,-0.388504,0.9129181,0.967792,-0.07495117,-0.4024506,0.9123535,-28.65845,5.883621,-31.48882,3.352234,0.4181876,0.4673724,0.9558527,0.2461547999999999,-0.3720855999999999,0.8949431999999999,34.97723,4.915939,-35.142720000000004,3.148407,0.3849548,0.516062,-0.2749117,1.317327,0.01089776,-0.02736214,0.5935305999999999,-0.009027015,6.827408,25.16846,33.9304423221915
0,0.1483002,-0.1710815,0.9740295,0.9186561,-0.179245,-0.181076,0.96698,-28.67952,6.714339999999999,-30.98576,3.2786410000000004,0.4322759,0.405526,0.9386649,0.2033234,-0.1674957,0.9646606,34.55005,5.847961,-35.0202,3.014847,0.4068927,0.454266,-0.2750255,1.31731,0.01100779,-0.02717004,0.5935999,-0.00903444,6.827408,25.16846,33.9304423221915
0,0.1483002,-0.1710815,0.9740295,0.9186561,-0.179245,-0.181076,0.96698,-28.67952,6.714339999999999,-30.98576,3.2786410000000004,0.4322759,0.405526,0.9386649,0.2033234,-0.1674957,0.9646606,34.55005,5.847961,-35.0202,3.014847,0.4068927,0.454266,-0.2750255,1.31731,0.01100779,-0.02717004,0.5935999,-0.00903444,6.827408,25.16846,33.9304423221915
0,0.1483002,-0.1710815,0.9740295,0.9186561,-0.179245,-0.181076,0.96698,-28.67952,6.714339999999999,-30.98576,3.2786410000000004,0.4322759,0.405526,0.9386649,0.2033234,-0.1674957,0.9646606,34.55005,5.847961,-35.0202,3.014847,0.4068927,0.454266,-0.2750255,1.31731,0.01100779,-0.02717004,0.5935999,-0.00903444,6.827408,25.16846,33.9304423221915
0,0.1664124,-0.1576691,0.9733582,0.9566959,-0.1265716999999999,-0.1705933,0.9771729,-28.94812,6.800964,-31.57071,3.255569,0.4349738,0.4058604,0.9684362,0.1951141,-0.1556244,0.968338,34.61566,5.84082,-35.117540000000005,2.977814,0.405562,0.453747,-0.2751254,1.317232,0.01102531,-0.02700556,0.5936673000000001,-0.008876367,6.827408,25.16846,33.9304423221915
0,0.1664124,-0.1576691,0.9733582,0.9566959,-0.1265716999999999,-0.1705933,0.9771729,-28.94812,6.800964,-31.57071,3.255569,0.4349738,0.4058604,0.9684362,0.1951141,-0.1556244,0.968338,34.61566,5.84082,-35.117540000000005,2.977814,0.405562,0.453747,-0.2751254,1.317232,0.01102531,-0.02700556,0.5936673000000001,-0.008876367,6.827408,25.16846,33.9304423221915
0,0.1664124,-0.1576691,0.9733582,0.9566959,-0.1265716999999999,-0.1705933,0.9771729,-28.94812,6.800964,-31.57071,3.255569,0.4349738,0.4058604,0.9684362,0.1951141,-0.1556244,0.968338,34.61566,5.84082,-35.117540000000005,2.977814,0.405562,0.453747,-0.2751254,1.317232,0.01102531,-0.02700556,0.5936673000000001,-0.008876367,6.827408,25.16846,33.9304423221915
0,0.1999664,-0.1704712,0.9648438,1.0,-0.1270446999999999,-0.1642761,0.9781799,-29.00021,6.860275,-31.89917,3.097244,0.4367376,0.4057091,1.0,0.2085266,-0.1703949,0.9630432,34.61763,5.873627,-35.05873,3.012314,0.4037742,0.4540473,-0.2752115,1.317298,0.01117527,-0.0269293,0.5937897,-0.0086931719999999,6.827408,25.16846,33.9304423221915
0,0.1999664,-0.1704712,0.9648438,1.0,-0.1270446999999999,-0.1642761,0.9781799,-29.00021,6.860275,-31.89917,3.097244,0.4367376,0.4057091,1.0,0.2085266,-0.1703949,0.9630432,34.61763,5.873627,-35.05873,3.012314,0.4037742,0.4540473,-0.2752115,1.317298,0.01117527,-0.0269293,0.5937897,-0.0086931719999999,6.827408,25.16846,33.9304423221915
0,0.1999664,-0.1704712,0.9648438,1.0,-0.1270446999999999,-0.1642761,0.9781799,-29.00021,6.860275,-31.89917,3.097244,0.4367376,0.4057091,1.0,0.2085266,-0.1703949,0.9630432,34.61763,5.873627,-35.05873,3.012314,0.4037742,0.4540473,-0.2752115,1.317298,0.01117527,-0.0269293,0.5937897,-0.0086931719999999,6.827408,25.16846,33.9304423221915
0,0.1765137,-0.1654052999999999,0.9702911,1.0,-0.1205444,-0.1687012,0.9782562,-29.0405,6.906052000000001,-31.94739,3.074432,0.4373222,0.405055,1.0,0.2043762,-0.1643219,0.9649963,34.63913,5.899277,-35.109120000000004,2.965363,0.4035414,0.4527405,-0.2751446,1.3173469999999998,0.01119816,-0.02699341,0.5938114999999999,-0.008820795,6.827408,23.50128,34.39
0,0.1765137,-0.1654052999999999,0.9702911,1.0,-0.1205444,-0.1687012,0.9782562,-29.0405,6.906052000000001,-31.94739,3.074432,0.4373222,0.405055,1.0,0.2043762,-0.1643219,0.9649963,34.63913,5.899277,-35.109120000000004,2.965363,0.4035414,0.4527405,-0.2751446,1.3173469999999998,0.01119816,-0.02699341,0.5938114999999999,-0.008820795,6.827408,23.50128,34.39
0,0.1765137,-0.1654052999999999,0.9702911,1.0,-0.1205444,-0.1687012,0.9782562,-29.0405,6.906052000000001,-31.94739,3.074432,0.4373222,0.405055,1.0,0.2043762,-0.1643219,0.9649963,34.63913,5.899277,-35.109120000000004,2.965363,0.4035414,0.4527405,-0.2751446,1.3173469999999998,0.01119816,-0.02699341,0.5938114999999999,-0.008820795,6.827408,23.50128,34.39
0,0.2074737999999999,-0.1547394,0.9659119,1.0,-0.1375579999999999,-0.1593018,0.9775848,-29.00531,6.957611,-32.28285,3.053894,0.4381519,0.4048592,1.0,0.2080231,-0.1547088999999999,0.9658051,34.63994,5.899780000000001,-35.10715,2.9591830000000003,0.4030609,0.4514543,-0.2752452999999999,1.317165,0.01099896,-0.02704898,0.5938205,-0.008858302,6.827408,23.50128,34.39
0,0.2074737999999999,-0.1547394,0.9659119,1.0,-0.1375579999999999,-0.1593018,0.9775848,-29.00531,6.957611,-32.28285,3.053894,0.4381519,0.4048592,1.0,0.2080231,-0.1547088999999999,0.9658051,34.63994,5.899780000000001,-35.10715,2.9591830000000003,0.4030609,0.4514543,-0.2752452999999999,1.317165,0.01099896,-0.02704898,0.5938205,-0.008858302,6.827408,23.50128,34.39
0,0.2074737999999999,-0.1547394,0.9659119,1.0,-0.1375579999999999,-0.1593018,0.9775848,-29.00531,6.957611,-32.28285,3.053894,0.4381519,0.4048592,1.0,0.2080231,-0.1547088999999999,0.9658051,34.63994,5.899780000000001,-35.10715,2.9591830000000003,0.4030609,0.4514543,-0.2752452999999999,1.317165,0.01099896,-0.02704898,0.5938205,-0.008858302,6.827408,23.50128,34.39
0,0.1926117,-0.1557922,0.9688263,1.0,-0.1364136,-0.1553192,0.9783936,-29.02563,6.957611,-32.292970000000004,3.008148,0.4387045999999999,0.4044304999999999,1.0,0.2065887,-0.155426,0.9659882,34.64635,5.900299,-35.11563,2.945877,0.4030178,0.4515880999999999,-0.2753080999999999,1.317219,0.0112958,-0.02671918,0.5938772,-0.009090756,6.827408,23.50128,34.39
0,0.1926117,-0.1557922,0.9688263,1.0,-0.1364136,-0.1553192,0.9783936,-29.02563,6.957611,-32.292970000000004,3.008148,0.4387045999999999,0.4044304999999999,1.0,0.2065887,-0.155426,0.9659882,34.64635,5.900299,-35.11563,2.945877,0.4030178,0.4515880999999999,-0.2753080999999999,1.317219,0.0112958,-0.02671918,0.5938772,-0.009090756,6.827408,23.50128,34.39
0,0.1926117,-0.1557922,0.9688263,1.0,-0.1364136,-0.1553192,0.9783936,-29.02563,6.957611,-32.292970000000004,3.008148,0.4387045999999999,0.4044304999999999,1.0,0.2065887,-0.155426,0.9659882,34.64635,5.900299,-35.11563,2.945877,0.4030178,0.4515880999999999,-0.2753080999999999,1.317219,0.0112958,-0.02671918,0.5938772,-0.009090756,6.827408,23.50128,34.39
0,-0.1159363,-0.1309052,0.9845886,1.0,-0.1587677,-0.1326904,0.9783478,-29.29195,7.133545,-32.49445,2.884018,0.4508342999999999,0.3971643,1.0,0.1661072,-0.1133423,0.9795685,34.459579999999995,6.11647,-35.81384,2.917587,0.4144234999999999,0.4444436,-0.2753426,1.317144,0.01123786,-0.02658682,0.5940403000000001,-0.009196279,6.827408,23.50128,34.39
0,-0.1159363,-0.1309052,0.9845886,1.0,-0.1587677,-0.1326904,0.9783478,-29.29195,7.133545,-32.49445,2.884018,0.4508342999999999,0.3971643,1.0,0.1661072,-0.1133423,0.9795685,34.459579999999995,6.11647,-35.81384,2.917587,0.4144234999999999,0.4444436,-0.2753426,1.317144,0.01123786,-0.02658682,0.5940403000000001,-0.009196279,6.827408,23.50128,34.39
0,-0.1159363,-0.1309052,0.9845886,1.0,-0.1587677,-0.1326904,0.9783478,-29.29195,7.133545,-32.49445,2.884018,0.4508342999999999,0.3971643,1.0,0.1661072,-0.1133423,0.9795685,34.459579999999995,6.11647,-35.81384,2.917587,0.4144234999999999,0.4444436,-0.2753426,1.317144,0.01123786,-0.02658682,0.5940403000000001,-0.009196279,6.827408,23.50128,34.39
0,-0.1159363,-0.1309052,0.9845886,1.0,-0.1587677,-0.1326904,0.9783478,-29.29195,7.133545,-32.49445,2.884018,0.4508342999999999,0.3971643,1.0,0.1661072,-0.1133423,0.9795685,34.459579999999995,6.11647,-35.81384,2.917587,0.4144234999999999,0.4444436,-0.2753426,1.317144,0.01123786,-0.02658682,0.5940403000000001,-0.009196279,6.827408,-8.650391,34.39
0,-0.1159363,-0.1309052,0.9845886,1.0,-0.1587677,-0.1326904,0.9783478,-29.29195,7.133545,-32.49445,2.884018,0.4508342999999999,0.3971643,1.0,0.1661072,-0.1133423,0.9795685,34.459579999999995,6.11647,-35.81384,2.917587,0.4144234999999999,0.4444436,-0.2753426,1.317144,0.01123786,-0.02658682,0.5940403000000001,-0.009196279,6.827408,-8.650391,34.39
0,-0.1159363,-0.1309052,0.9845886,1.0,-0.1587677,-0.1326904,0.9783478,-29.29195,7.133545,-32.49445,2.884018,0.4508342999999999,0.3971643,1.0,0.1661072,-0.1133423,0.9795685,34.459579999999995,6.11647,-35.81384,2.917587,0.4144234999999999,0.4444436,-0.2753426,1.317144,0.01123786,-0.02658682,0.5940403000000001,-0.009196279,6.827408,-8.650391,34.39
1,-0.4177094,-0.03674316,0.9078216999999998,1.0,-0.4261322,-0.03704834,0.9038849,-30.33983,7.326538,-32.17686,2.942261,0.5219539000000001,0.3777958,1.0,-0.07981873,-0.02333069,0.996521,33.27722,6.2919160000000005,-35.285740000000004,2.823334,0.4884853,0.4230755999999999,-0.2752605,1.316974,0.01070881,-0.02615355,0.5960272,-0.009908771,6.827408,-8.650391,34.39
1,-0.4177094,-0.03674316,0.9078216999999998,1.0,-0.4261322,-0.03704834,0.9038849,-30.33983,7.326538,-32.17686,2.942261,0.5219539000000001,0.3777958,1.0,-0.07981873,-0.02333069,0.996521,33.27722,6.2919160000000005,-35.285740000000004,2.823334,0.4884853,0.4230755999999999,-0.2752605,1.316974,0.01070881,-0.02615355,0.5960272,-0.009908771,6.827408,-8.650391,34.39
1,-0.4177094,-0.03674316,0.9078216999999998,1.0,-0.4261322,-0.03704834,0.9038849,-30.33983,7.326538,-32.17686,2.942261,0.5219539000000001,0.3777958,1.0,-0.07981873,-0.02333069,0.996521,33.27722,6.2919160000000005,-35.285740000000004,2.823334,0.4884853,0.4230755999999999,-0.2752605,1.316974,0.01070881,-0.02615355,0.5960272,-0.009908771,6.827408,-8.650391,34.39
1,-0.4120331,-0.0291748,0.9106903,1.0,-0.4200744999999999,-0.02922058,0.9070129,-30.34775,7.322906,-32.176590000000004,2.941086,0.5214358,0.3768538,1.0,-0.07896423,-0.02565002,0.9965363000000002,33.294509999999995,6.278671,-35.23236,2.683655,0.4879672,0.4232934,-0.2749392,1.316957,0.01053011,-0.02613303,0.5978208,-0.01043469,6.827408,-8.650391,34.39
1,-0.4120331,-0.0291748,0.9106903,1.0,-0.4200744999999999,-0.02922058,0.9070129,-30.34775,7.322906,-32.176590000000004,2.941086,0.5214358,0.3768538,1.0,-0.07896423,-0.02565002,0.9965363000000002,33.294509999999995,6.278671,-35.23236,2.683655,0.4879672,0.4232934,-0.2749392,1.316957,0.01053011,-0.02613303,0.5978208,-0.01043469,6.827408,-8.650391,34.39
1,-0.4120331,-0.0291748,0.9106903,1.0,-0.4200744999999999,-0.02922058,0.9070129,-30.34775,7.322906,-32.176590000000004,2.941086,0.5214358,0.3768538,1.0,-0.07896423,-0.02565002,0.9965363000000002,33.294509999999995,6.278671,-35.23236,2.683655,0.4879672,0.4232934,-0.2749392,1.316957,0.01053011,-0.02613303,0.5978208,-0.01043469,6.827408,-8.650391,34.39
1,-0.4120331,-0.0291748,0.9106903,1.0,-0.4200744999999999,-0.02922058,0.9070129,-30.34775,7.322906,-32.176590000000004,2.941086,0.5214358,0.3768538,1.0,-0.07896423,-0.02565002,0.9965363000000002,33.294509999999995,6.278671,-35.23236,2.683655,0.4879672,0.4232934,-0.2749392,1.316957,0.01053011,-0.02613303,0.5978208,-0.01043469,6.827408,-8.650391,34.39
1,-0.4120331,-0.0291748,0.9106903,1.0,-0.4200744999999999,-0.02922058,0.9070129,-30.34775,7.322906,-32.176590000000004,2.941086,0.5214358,0.3768538,1.0,-0.07896423,-0.02565002,0.9965363000000002,33.294509999999995,6.278671,-35.23236,2.683655,0.4879672,0.4232934,-0.2749392,1.316957,0.01053011,-0.02613303,0.5978208,-0.01043469,6.827408,-8.650391,34.39
1,-0.4120331,-0.0291748,0.9106903,1.0,-0.4200744999999999,-0.02922058,0.9070129,-30.34775,7.322906,-32.176590000000004,2.941086,0.5214358,0.3768538,1.0,-0.07896423,-0.02565002,0.9965363000000002,33.294509999999995,6.278671,-35.23236,2.683655,0.4879672,0.4232934,-0.2749392,1.316957,0.01053011,-0.02613303,0.5978208,-0.01043469,6.827408,-8.650391,34.39
1,-0.2648163,-0.0160675,0.9641571,1.0,-0.3939209,-0.01971436,0.9189148,-30.42271,7.306412,-32.21042,2.897278,0.5206614,0.3762069,1.0,-0.07124329,-0.0103302,0.9973907,33.345209999999994,6.313537999999999,-35.33221,2.782684,0.485046,0.4209415,-0.2744362,1.316616,0.009473205,-0.02559521,0.601984,-0.01177457,6.827408,-8.650391,34.39
1,-0.2648163,-0.0160675,0.9641571,1.0,-0.3939209,-0.01971436,0.9189148,-30.42271,7.306412,-32.21042,2.897278,0.5206614,0.3762069,1.0,-0.07124329,-0.0103302,0.9973907,33.345209999999994,6.313537999999999,-35.33221,2.782684,0.485046,0.4209415,-0.2744362,1.316616,0.009473205,-0.02559521,0.601984,-0.01177457,6.827408,-8.650391,34.39
1,-0.2648163,-0.0160675,0.9641571,1.0,-0.3939209,-0.01971436,0.9189148,-30.42271,7.306412,-32.21042,2.897278,0.5206614,0.3762069,1.0,-0.07124329,-0.0103302,0.9973907,33.345209999999994,6.313537999999999,-35.33221,2.782684,0.485046,0.4209415,-0.2744362,1.316616,0.009473205,-0.02559521,0.601984,-0.01177457,6.827408,-8.650391,34.39
1,-0.2648163,-0.0160675,0.9641571,1.0,-0.3939209,-0.01971436,0.9189148,-30.42271,7.306412,-32.21042,2.897278,0.5206614,0.3762069,1.0,-0.07124329,-0.0103302,0.9973907,33.345209999999994,6.313537999999999,-35.33221,2.782684,0.485046,0.4209415,-0.2744362,1.316616,0.009473205,-0.02559521,0.601984,-0.01177457,6.827408,-15.41809,34.39
1,-0.2648163,-0.0160675,0.9641571,1.0,-0.3939209,-0.01971436,0.9189148,-30.42271,7.306412,-32.21042,2.897278,0.5206614,0.3762069,1.0,-0.07124329,-0.0103302,0.9973907,33.345209999999994,6.313537999999999,-35.33221,2.782684,0.485046,0.4209415,-0.2744362,1.316616,0.009473205,-0.02559521,0.601984,-0.01177457,6.827408,-15.41809,34.39
1,-0.2648163,-0.0160675,0.9641571,1.0,-0.3939209,-0.01971436,0.9189148,-30.42271,7.306412,-32.21042,2.897278,0.5206614,0.3762069,1.0,-0.07124329,-0.0103302,0.9973907,33.345209999999994,6.313537999999999,-35.33221,2.782684,0.485046,0.4209415,-0.2744362,1.316616,0.009473205,-0.02559521,0.601984,-0.01177457,6.827408,-15.41809,34.39
1,-0.2648163,-0.0160675,0.9641571,1.0,-0.3939209,-0.01971436,0.9189148,-30.42271,7.306412,-32.21042,2.897278,0.5206614,0.3762069,1.0,-0.07124329,-0.0103302,0.9973907,33.345209999999994,6.313537999999999,-35.33221,2.782684,0.485046,0.4209415,-0.2737992,1.316352,0.008114934,-0.02601244,0.6063960999999999,-0.01312412,6.827408,-15.41809,34.39
1,-0.2648163,-0.0160675,0.9641571,1.0,-0.3939209,-0.01971436,0.9189148,-30.42271,7.306412,-32.21042,2.897278,0.5206614,0.3762069,1.0,-0.07124329,-0.0103302,0.9973907,33.345209999999994,6.313537999999999,-35.33221,2.782684,0.485046,0.4209415,-0.2737992,1.316352,0.008114934,-0.02601244,0.6063960999999999,-0.01312412,6.827408,-15.41809,34.39
1,-0.2648163,-0.0160675,0.9641571,1.0,-0.3939209,-0.01971436,0.9189148,-30.42271,7.306412,-32.21042,2.897278,0.5206614,0.3762069,1.0,-0.07124329,-0.0103302,0.9973907,33.345209999999994,6.313537999999999,-35.33221,2.782684,0.485046,0.4209415,-0.2737992,1.316352,0.008114934,-0.02601244,0.6063960999999999,-0.01312412,6.827408,-15.41809,34.39
1,-0.2650909,-0.01167297,0.9641418,1.0,-0.3938599,-0.01481628,0.9190369,-30.41713,7.30957,-32.208940000000005,2.886917,0.5204629,0.3754462,1.0,-0.06819153,-0.006698608,0.9976349,33.36418,6.3582,-35.46973,2.721542,0.4840401,0.4199747,-0.2733637,1.3164360000000002,0.0073237419999999,-0.0267110999999999,0.6100525,-0.01382093,6.827408,-15.41809,34.39
1,-0.2650909,-0.01167297,0.9641418,1.0,-0.3938599,-0.01481628,0.9190369,-30.41713,7.30957,-32.208940000000005,2.886917,0.5204629,0.3754462,1.0,-0.06819153,-0.006698608,0.9976349,33.36418,6.3582,-35.46973,2.721542,0.4840401,0.4199747,-0.2733637,1.3164360000000002,0.0073237419999999,-0.0267110999999999,0.6100525,-0.01382093,6.827408,-15.41809,34.39
1,-0.2650909,-0.01167297,0.9641418,1.0,-0.3938599,-0.01481628,0.9190369,-30.41713,7.30957,-32.208940000000005,2.886917,0.5204629,0.3754462,1.0,-0.06819153,-0.006698608,0.9976349,33.36418,6.3582,-35.46973,2.721542,0.4840401,0.4199747,-0.2733637,1.3164360000000002,0.0073237419999999,-0.0267110999999999,0.6100525,-0.01382093,6.827408,-15.41809,34.39
1,-0.2650909,-0.01167297,0.9641418,1.0,-0.3938599,-0.01481628,0.9190369,-30.41713,7.30957,-32.208940000000005,2.886917,0.5204629,0.3754462,1.0,-0.06819153,-0.006698608,0.9976349,33.36418,6.3582,-35.46973,2.721542,0.4840401,0.4199747,-0.2730435999999999,1.316457,0.006518841,-0.02675499,0.6144303000000001,-0.01428562,6.827408,-15.41809,34.39
1,-0.2650909,-0.01167297,0.9641418,1.0,-0.3938599,-0.01481628,0.9190369,-30.41713,7.30957,-32.208940000000005,2.886917,0.5204629,0.3754462,1.0,-0.06819153,-0.006698608,0.9976349,33.36418,6.3582,-35.46973,2.721542,0.4840401,0.4199747,-0.2730435999999999,1.316457,0.006518841,-0.02675499,0.6144303000000001,-0.01428562,6.827408,-15.41809,34.39
1,-0.2650909,-0.01167297,0.9641418,1.0,-0.3938599,-0.01481628,0.9190369,-30.41713,7.30957,-32.208940000000005,2.886917,0.5204629,0.3754462,1.0,-0.06819153,-0.006698608,0.9976349,33.36418,6.3582,-35.46973,2.721542,0.4840401,0.4199747,-0.2730435999999999,1.316457,0.006518841,-0.02675499,0.6144303000000001,-0.01428562,6.827408,-15.41809,34.39
1,-0.3257599,0.004013062,0.9454346,1.0,-0.3864136,0.006057739,0.9223021999999998,-30.37158,7.320572,-32.204440000000005,2.980743,0.5178778,0.3723262,1.0,-0.05181885,-0.004943848,0.998642,33.432109999999994,6.278641,-35.09344,2.801773,0.479556,0.4193864,-0.2730435999999999,1.316457,0.006518841,-0.02675499,0.6144303000000001,-0.01428562,6.827408,-15.41809,34.39
1,-0.3257599,0.004013062,0.9454346,1.0,-0.3864136,0.006057739,0.9223021999999998,-30.37158,7.320572,-32.204440000000005,2.980743,0.5178778,0.3723262,1.0,-0.05181885,-0.004943848,0.998642,33.432109999999994,6.278641,-35.09344,2.801773,0.479556,0.4193864,-0.2730435999999999,1.316457,0.006518841,-0.02675499,0.6144303000000001,-0.01428562,6.827408,-15.41809,34.39
1,-0.3257599,0.004013062,0.9454346,1.0,-0.3864136,0.006057739,0.9223021999999998,-30.37158,7.320572,-32.204440000000005,2.980743,0.5178778,0.3723262,1.0,-0.05181885,-0.004943848,0.998642,33.432109999999994,6.278641,-35.09344,2.801773,0.479556,0.4193864,-0.2730435999999999,1.316457,0.006518841,-0.02675499,0.6144303000000001,-0.01428562,6.827408,-15.41809,34.39
1,-0.3257599,0.004013062,0.9454346,1.0,-0.3864136,0.006057739,0.9223021999999998,-30.37158,7.320572,-32.204440000000005,2.980743,0.5178778,0.3723262,1.0,-0.05181885,-0.004943848,0.998642,33.432109999999994,6.278641,-35.09344,2.801773,0.479556,0.4193864,-0.2721686,1.31595,0.0034101009999999,-0.02583713,0.6259861,-0.01497689,6.827408,12.5,34.39
1,-0.3257599,0.004013062,0.9454346,1.0,-0.3864136,0.006057739,0.9223021999999998,-30.37158,7.320572,-32.204440000000005,2.980743,0.5178778,0.3723262,1.0,-0.05181885,-0.004943848,0.998642,33.432109999999994,6.278641,-35.09344,2.801773,0.479556,0.4193864,-0.2721686,1.31595,0.0034101009999999,-0.02583713,0.6259861,-0.01497689,6.827408,12.5,34.39
1,-0.3257599,0.004013062,0.9454346,1.0,-0.3864136,0.006057739,0.9223021999999998,-30.37158,7.320572,-32.204440000000005,2.980743,0.5178778,0.3723262,1.0,-0.05181885,-0.004943848,0.998642,33.432109999999994,6.278641,-35.09344,2.801773,0.479556,0.4193864,-0.2721686,1.31595,0.0034101009999999,-0.02583713,0.6259861,-0.01497689,6.827408,12.5,34.39
1,-0.352829,0.00289917,0.9356689,1.0,-0.3577728,0.002746582,0.9337921,-30.2328,7.329117,-32.14774,2.920761,0.5092746,0.371671,1.0,-0.02584839,0.0116272,0.999588,33.58417,6.253067,-34.96349,2.707367,0.4710639,0.4168484,-0.2714733,1.315703,0.001623273,-0.02511165,0.6335571999999999,-0.0156009,6.827408,12.5,34.39
1,-0.352829,0.00289917,0.9356689,1.0,-0.3577728,0.002746582,0.9337921,-30.2328,7.329117,-32.14774,2.920761,0.5092746,0.371671,1.0,-0.02584839,0.0116272,0.999588,33.58417,6.253067,-34.96349,2.707367,0.4710639,0.4168484,-0.2714733,1.315703,0.001623273,-0.02511165,0.6335571999999999,-0.0156009,6.827408,12.5,34.39
1,-0.352829,0.00289917,0.9356689,1.0,-0.3577728,0.002746582,0.9337921,-30.2328,7.329117,-32.14774,2.920761,0.5092746,0.371671,1.0,-0.02584839,0.0116272,0.999588,33.58417,6.253067,-34.96349,2.707367,0.4710639,0.4168484,-0.2714733,1.315703,0.001623273,-0.02511165,0.6335571999999999,-0.0156009,6.827408,12.5,34.39
1,-0.3213959,-0.008346558,0.9468994,1.0,-0.3690337999999999,-0.007247925,0.9293823,-30.35185,7.230697999999999,-32.19003,2.94603,0.5148924,0.3769151,1.0,-0.04577637,-0.01397705,0.9988403,33.36169,6.278564,-35.54938,2.881897,0.4810219,0.4244181999999999,-0.2708117,1.315389,-0.0004794598,-0.02407804,0.6420796999999999,-0.01645619,6.827408,12.5,34.39
1,-0.3213959,-0.008346558,0.9468994,1.0,-0.3690337999999999,-0.007247925,0.9293823,-30.35185,7.230697999999999,-32.19003,2.94603,0.5148924,0.3769151,1.0,-0.04577637,-0.01397705,0.9988403,33.36169,6.278564,-35.54938,2.881897,0.4810219,0.4244181999999999,-0.2708117,1.315389,-0.0004794598,-0.02407804,0.6420796999999999,-0.01645619,6.827408,12.5,34.39
1,-0.3213959,-0.008346558,0.9468994,1.0,-0.3690337999999999,-0.007247925,0.9293823,-30.35185,7.230697999999999,-32.19003,2.94603,0.5148924,0.3769151,1.0,-0.04577637,-0.01397705,0.9988403,33.36169,6.278564,-35.54938,2.881897,0.4810219,0.4244181999999999,-0.2708117,1.315389,-0.0004794598,-0.02407804,0.6420796999999999,-0.01645619,6.827408,12.5,34.39
1,-0.416214,-0.04328918,0.9082184,1.0,-0.4162292,-0.04328918,0.9082184,-30.355940000000004,7.143845,-32.2,2.959198,0.5211678,0.3851749,1.0,-0.07133484,-0.05731201,0.9958038,33.18565,6.306396,-36.159290000000006,2.796112,0.4904430999999999,0.434304,-0.2694065,1.314591,-0.005911827,-0.02149235,0.6633285,-0.01685499,6.827408,12.5,34.39
1,-0.416214,-0.04328918,0.9082184,1.0,-0.4162292,-0.04328918,0.9082184,-30.355940000000004,7.143845,-32.2,2.959198,0.5211678,0.3851749,1.0,-0.07133484,-0.05731201,0.9958038,33.18565,6.306396,-36.159290000000006,2.796112,0.4904430999999999,0.434304,-0.2694065,1.314591,-0.005911827,-0.02149235,0.6633285,-0.01685499,6.827408,12.5,34.39
1,-0.416214,-0.04328918,0.9082184,1.0,-0.4162292,-0.04328918,0.9082184,-30.355940000000004,7.143845,-32.2,2.959198,0.5211678,0.3851749,1.0,-0.07133484,-0.05731201,0.9958038,33.18565,6.306396,-36.159290000000006,2.796112,0.4904430999999999,0.434304,-0.2694065,1.314591,-0.005911827,-0.02149235,0.6633285,-0.01685499,6.827408,12.5,34.39
1,-0.4134674,-0.04589844,0.9093475,1.0,-0.4134674,-0.04589844,0.9093475,-30.34323,7.105086999999999,-32.1983,2.726456,0.5204329000000001,0.3867532,1.0,-0.03143311,-0.08250427,0.9960938,33.09898,6.879532000000001,-38.4735,2.574158,0.4881867999999999,0.4366377999999999,-0.2687442,1.314533,-0.009054422,-0.02083079,0.6754593000000001,-0.01546106,6.827408,12.5,34.39
1,-0.4134674,-0.04589844,0.9093475,1.0,-0.4134674,-0.04589844,0.9093475,-30.34323,7.105086999999999,-32.1983,2.726456,0.5204329000000001,0.3867532,1.0,-0.03143311,-0.08250427,0.9960938,33.09898,6.879532000000001,-38.4735,2.574158,0.4881867999999999,0.4366377999999999,-0.2687442,1.314533,-0.009054422,-0.02083079,0.6754593000000001,-0.01546106,6.827408,12.5,34.39
1,-0.4134674,-0.04589844,0.9093475,1.0,-0.4134674,-0.04589844,0.9093475,-30.34323,7.105086999999999,-32.1983,2.726456,0.5204329000000001,0.3867532,1.0,-0.03143311,-0.08250427,0.9960938,33.09898,6.879532000000001,-38.4735,2.574158,0.4881867999999999,0.4366377999999999,-0.2687442,1.314533,-0.009054422,-0.02083079,0.6754593000000001,-0.01546106,6.827408,12.5,34.39
1,-0.307373,-0.05807495,0.9497986,1.0,-0.307373,-0.05807495,0.9497986,-30.09903,7.146896000000001,-32.08618,3.190994,0.497986,0.3850325999999999,1.0,-0.03935242,-0.04997253,0.9979706,33.72415,6.011475,-34.64996,2.743896,0.4677885,0.4306821,-0.2687442,1.314533,-0.009054422,-0.02083079,0.6754593000000001,-0.01546106,6.827408,8.057129,34.39
1,-0.307373,-0.05807495,0.9497986,1.0,-0.307373,-0.05807495,0.9497986,-30.09903,7.146896000000001,-32.08618,3.190994,0.497986,0.3850325999999999,1.0,-0.03935242,-0.04997253,0.9979706,33.72415,6.011475,-34.64996,2.743896,0.4677885,0.4306821,-0.2687442,1.314533,-0.009054422,-0.02083079,0.6754593000000001,-0.01546106,6.827408,8.057129,34.39
1,-0.307373,-0.05807495,0.9497986,1.0,-0.307373,-0.05807495,0.9497986,-30.09903,7.146896000000001,-32.08618,3.190994,0.497986,0.3850325999999999,1.0,-0.03935242,-0.04997253,0.9979706,33.72415,6.011475,-34.64996,2.743896,0.4677885,0.4306821,-0.2687442,1.314533,-0.009054422,-0.02083079,0.6754593000000001,-0.01546106,6.827408,8.057129,34.39
1,-0.2968597,-0.06280518,0.9528503,1.0,-0.2968597,-0.06280518,0.9528503,-30.02518,7.188446000000001,-32.05917,3.136261,0.4940642,0.383819,1.0,0.01274109,-0.02142334,0.9996796,33.782059999999994,5.954742,-34.52167,2.877838,0.4590939999999999,0.4278311999999999,-0.2683659,1.3145,-0.01524889,-0.01946301,0.7001045,-0.01377425,6.827408,8.057129,34.39
1,-0.2968597,-0.06280518,0.9528503,1.0,-0.2968597,-0.06280518,0.9528503,-30.02518,7.188446000000001,-32.05917,3.136261,0.4940642,0.383819,1.0,0.01274109,-0.02142334,0.9996796,33.782059999999994,5.954742,-34.52167,2.877838,0.4590939999999999,0.4278311999999999,-0.2683659,1.3145,-0.01524889,-0.01946301,0.7001045,-0.01377425,6.827408,8.057129,34.39
1,-0.2968597,-0.06280518,0.9528503,1.0,-0.2968597,-0.06280518,0.9528503,-30.02518,7.188446000000001,-32.05917,3.136261,0.4940642,0.383819,1.0,0.01274109,-0.02142334,0.9996796,33.782059999999994,5.954742,-34.52167,2.877838,0.4590939999999999,0.4278311999999999,-0.2683659,1.3145,-0.01524889,-0.01946301,0.7001045,-0.01377425,6.827408,8.057129,34.39
1,-0.2968597,-0.06280518,0.9528503,1.0,-0.2968597,-0.06280518,0.9528503,-30.02518,7.188446000000001,-32.05917,3.136261,0.4940642,0.383819,1.0,0.01274109,-0.02142334,0.9996796,33.782059999999994,5.954742,-34.52167,2.877838,0.4590939999999999,0.4278311999999999,-0.2684790999999999,1.314374,-0.01799273,-0.01981961,0.7096142,-0.01441594,6.827408,8.057129,34.39
1,-0.2968597,-0.06280518,0.9528503,1.0,-0.2968597,-0.06280518,0.9528503,-30.02518,7.188446000000001,-32.05917,3.136261,0.4940642,0.383819,1.0,0.01274109,-0.02142334,0.9996796,33.782059999999994,5.954742,-34.52167,2.877838,0.4590939999999999,0.4278311999999999,-0.2684790999999999,1.314374,-0.01799273,-0.01981961,0.7096142,-0.01441594,6.827408,8.057129,34.39
1,-0.2968597,-0.06280518,0.9528503,1.0,-0.2968597,-0.06280518,0.9528503,-30.02518,7.188446000000001,-32.05917,3.136261,0.4940642,0.383819,1.0,0.01274109,-0.02142334,0.9996796,33.782059999999994,5.954742,-34.52167,2.877838,0.4590939999999999,0.4278311999999999,-0.2684790999999999,1.314374,-0.01799273,-0.01981961,0.7096142,-0.01441594,6.827408,8.057129,34.39
1,-0.1934509,-0.03552246,0.9804535,1.0,-0.2153473,-0.03694153,0.9758301,-29.52428,7.24794,-32.43849,3.238007,0.4662420999999999,0.3808889,1.0,0.1149444999999999,-0.0144043,0.9932556,34.25819,5.96312,-34.51019,3.061066,0.4291974,0.4262974,-0.2684790999999999,1.314374,-0.01799273,-0.01981961,0.7096142,-0.01441594,6.827408,8.057129,34.39
1,-0.1934509,-0.03552246,0.9804535,1.0,-0.2153473,-0.03694153,0.9758301,-29.52428,7.24794,-32.43849,3.238007,0.4662420999999999,0.3808889,1.0,0.1149444999999999,-0.0144043,0.9932556,34.25819,5.96312,-34.51019,3.061066,0.4291974,0.4262974,-0.2684790999999999,1.314374,-0.01799273,-0.01981961,0.7096142,-0.01441594,6.827408,8.057129,34.39
1,-0.1934509,-0.03552246,0.9804535,1.0,-0.2153473,-0.03694153,0.9758301,-29.52428,7.24794,-32.43849,3.238007,0.4662420999999999,0.3808889,1.0,0.1149444999999999,-0.0144043,0.9932556,34.25819,5.96312,-34.51019,3.061066,0.4291974,0.4262974,-0.2684790999999999,1.314374,-0.01799273,-0.01981961,0.7096142,-0.01441594,6.827408,8.057129,34.39
1,0.008773804,-0.01698303,0.9998169,1.0,-0.179718,-0.007019043,0.9836884,-29.208040000000004,6.923064999999999,-31.33507,3.304596,0.4507323,0.3793948,1.0,0.140625,-0.02360535,0.9897766,34.5862,6.12587,-35.157070000000004,3.1449580000000004,0.4136911,0.4270301999999999,-0.2686616,1.31428,-0.02018321,-0.02129023,0.7166781,-0.01596524,6.827408,8.057129,34.39
1,0.008773804,-0.01698303,0.9998169,1.0,-0.179718,-0.007019043,0.9836884,-29.208040000000004,6.923064999999999,-31.33507,3.304596,0.4507323,0.3793948,1.0,0.140625,-0.02360535,0.9897766,34.5862,6.12587,-35.157070000000004,3.1449580000000004,0.4136911,0.4270301999999999,-0.2686616,1.31428,-0.02018321,-0.02129023,0.7166781,-0.01596524,6.827408,8.057129,34.39
1,0.008773804,-0.01698303,0.9998169,1.0,-0.179718,-0.007019043,0.9836884,-29.208040000000004,6.923064999999999,-31.33507,3.304596,0.4507323,0.3793948,1.0,0.140625,-0.02360535,0.9897766,34.5862,6.12587,-35.157070000000004,3.1449580000000004,0.4136911,0.4270301999999999,-0.2686616,1.31428,-0.02018321,-0.02129023,0.7166781,-0.01596524,6.827408,8.057129,34.39
1,0.1585846,-0.02401733,0.9870453,1.0,-0.1420898,-0.01480103,0.9897308,-29.13268,6.921509,-31.26552,3.397476,0.4434878,0.3797247,1.0,0.1591797,-0.02403259,0.9869537,34.64516,6.247955,-35.54694,3.135223,0.4088810999999999,0.4259907,-0.2690685,1.314165,-0.02362573,-0.02608519,0.7276402,-0.02049859,6.827408,8.057129,34.39
1,0.1585846,-0.02401733,0.9870453,1.0,-0.1420898,-0.01480103,0.9897308,-29.13268,6.921509,-31.26552,3.397476,0.4434878,0.3797247,1.0,0.1591797,-0.02403259,0.9869537,34.64516,6.247955,-35.54694,3.135223,0.4088810999999999,0.4259907,-0.2690685,1.314165,-0.02362573,-0.02608519,0.7276402,-0.02049859,6.827408,7.908569,34.39
1,0.1585846,-0.02401733,0.9870453,1.0,-0.1420898,-0.01480103,0.9897308,-29.13268,6.921509,-31.26552,3.397476,0.4434878,0.3797247,1.0,0.1591797,-0.02403259,0.9869537,34.64516,6.247955,-35.54694,3.135223,0.4088810999999999,0.4259907,-0.2690685,1.314165,-0.02362573,-0.02608519,0.7276402,-0.02049859,6.827408,-7.713959,34.39
1,0.1585846,-0.02401733,0.9870453,1.0,-0.1420898,-0.01480103,0.9897308,-29.13268,6.921509,-31.26552,3.397476,0.4434878,0.3797247,1.0,0.1591797,-0.02403259,0.9869537,34.64516,6.247955,-35.54694,3.135223,0.4088810999999999,0.4259907,-0.2694649,1.314078,-0.02438605,-0.02729951,0.728726,-0.02143516,6.827408,-7.713959,34.39
1,0.1585846,-0.02401733,0.9870453,1.0,-0.1420898,-0.01480103,0.9897308,-29.13268,6.921509,-31.26552,3.397476,0.4434878,0.3797247,1.0,0.1591797,-0.02403259,0.9869537,34.64516,6.247955,-35.54694,3.135223,0.4088810999999999,0.4259907,-0.2694649,1.314078,-0.02438605,-0.02729951,0.728726,-0.02143516,6.827408,-7.713959,34.39
1,0.1585846,-0.02401733,0.9870453,1.0,-0.1420898,-0.01480103,0.9897308,-29.13268,6.921509,-31.26552,3.397476,0.4434878,0.3797247,1.0,0.1591797,-0.02403259,0.9869537,34.64516,6.247955,-35.54694,3.135223,0.4088810999999999,0.4259907,-0.2694649,1.314078,-0.02438605,-0.02729951,0.728726,-0.02143516,6.827408,-7.713959,34.39
1,0.2270507999999999,-0.02658081,0.9735107,1.0,-0.08255005,0.005493164,0.9965668,-28.76187,6.974578999999999,-31.39882,3.524826,0.4232334,0.3760930999999999,1.0,0.2272034,-0.02659607,0.9734802,34.96753,6.387344000000001,-36.12796,3.078995,0.3879175,0.4260933,-0.2698194,1.31445,-0.02436817,-0.02963887,0.7278501,-0.02142095,6.827408,-7.713959,34.39
1,0.2270507999999999,-0.02658081,0.9735107,1.0,-0.08255005,0.005493164,0.9965668,-28.76187,6.974578999999999,-31.39882,3.524826,0.4232334,0.3760930999999999,1.0,0.2272034,-0.02659607,0.9734802,34.96753,6.387344000000001,-36.12796,3.078995,0.3879175,0.4260933,-0.2698194,1.31445,-0.02436817,-0.02963887,0.7278501,-0.02142095,6.827408,-7.713959,34.39
1,0.2270507999999999,-0.02658081,0.9735107,1.0,-0.08255005,0.005493164,0.9965668,-28.76187,6.974578999999999,-31.39882,3.524826,0.4232334,0.3760930999999999,1.0,0.2272034,-0.02659607,0.9734802,34.96753,6.387344000000001,-36.12796,3.078995,0.3879175,0.4260933,-0.2698194,1.31445,-0.02436817,-0.02963887,0.7278501,-0.02142095,6.827408,-7.713959,34.39
1,-0.1440125,-0.01998901,0.9893646,1.0,-0.1899872,-0.01712036,0.9816284,-29.19426,6.8843380000000005,-31.11241,3.5527040000000003,0.451586,0.3803597999999999,1.0,0.1291351,-0.03573608,0.9909668,34.55959,6.110641,-35.26279,3.317444,0.4158531,0.4301398,-0.2700447,1.314938,-0.02400219,-0.03216408,0.7269224,-0.02161644,6.827408,-7.713959,34.39
1,-0.1440125,-0.01998901,0.9893646,1.0,-0.1899872,-0.01712036,0.9816284,-29.19426,6.8843380000000005,-31.11241,3.5527040000000003,0.451586,0.3803597999999999,1.0,0.1291351,-0.03573608,0.9909668,34.55959,6.110641,-35.26279,3.317444,0.4158531,0.4301398,-0.2700447,1.314938,-0.02400219,-0.03216408,0.7269224,-0.02161644,6.827408,-7.713959,34.39
1,-0.1440125,-0.01998901,0.9893646,1.0,-0.1899872,-0.01712036,0.9816284,-29.19426,6.8843380000000005,-31.11241,3.5527040000000003,0.451586,0.3803597999999999,1.0,0.1291351,-0.03573608,0.9909668,34.55959,6.110641,-35.26279,3.317444,0.4158531,0.4301398,-0.2700447,1.314938,-0.02400219,-0.03216408,0.7269224,-0.02161644,6.827408,-7.713959,34.39
1,0.08154297,-0.03100586,0.9961853,1.0,-0.229538,-0.07594299,0.9703216999999998,-29.51871,7.348403999999999,-32.81371,3.5428620000000004,0.4678887,0.3854642,1.0,0.08154297,-0.03100586,0.9961853,34.26706,6.02655,-34.86623,3.186096,0.4327201,0.4292690999999999,-0.2702352,1.315017,-0.02345467,-0.03274216,0.7251801999999999,-0.02210383,6.827408,-7.713959,34.39
1,0.08154297,-0.03100586,0.9961853,1.0,-0.229538,-0.07594299,0.9703216999999998,-29.51871,7.348403999999999,-32.81371,3.5428620000000004,0.4678887,0.3854642,1.0,0.08154297,-0.03100586,0.9961853,34.26706,6.02655,-34.86623,3.186096,0.4327201,0.4292690999999999,-0.2702352,1.315017,-0.02345467,-0.03274216,0.7251801999999999,-0.02210383,6.827408,-7.713959,34.39
1,0.08154297,-0.03100586,0.9961853,1.0,-0.229538,-0.07594299,0.9703216999999998,-29.51871,7.348403999999999,-32.81371,3.5428620000000004,0.4678887,0.3854642,1.0,0.08154297,-0.03100586,0.9961853,34.26706,6.02655,-34.86623,3.186096,0.4327201,0.4292690999999999,-0.2702352,1.315017,-0.02345467,-0.03274216,0.7251801999999999,-0.02210383,6.827408,-7.713959,34.39
1,0.08427429,-0.03636169,0.9957733,1.0,-0.2278748,-0.07406616,0.9708557,-29.5208,7.351775999999999,-32.80936,3.56134,0.4677564999999999,0.3850694,1.0,0.08427429,-0.03636169,0.9957733,34.275420000000004,5.983276,-34.79874,3.154373,0.4321439,0.4308859,-0.2702352,1.315017,-0.02345467,-0.03274216,0.7251801999999999,-0.02210383,6.827408,-23.07858,34.39
1,0.08427429,-0.03636169,0.9957733,1.0,-0.2278748,-0.07406616,0.9708557,-29.5208,7.351775999999999,-32.80936,3.56134,0.4677564999999999,0.3850694,1.0,0.08427429,-0.03636169,0.9957733,34.275420000000004,5.983276,-34.79874,3.154373,0.4321439,0.4308859,-0.2702352,1.315017,-0.02345467,-0.03274216,0.7251801999999999,-0.02210383,6.827408,-23.07858,34.39
1,0.08427429,-0.03636169,0.9957733,1.0,-0.2278748,-0.07406616,0.9708557,-29.5208,7.351775999999999,-32.80936,3.56134,0.4677564999999999,0.3850694,1.0,0.08427429,-0.03636169,0.9957733,34.275420000000004,5.983276,-34.79874,3.154373,0.4321439,0.4308859,-0.2702352,1.315017,-0.02345467,-0.03274216,0.7251801999999999,-0.02210383,6.827408,-23.07858,34.39
1,-0.05082703,-0.04930115,0.9974823,1.0,-0.2195435,-0.06787109,0.9732361,-29.56503,7.360214,-32.71266,3.438904,0.4682527,0.383125,1.0,0.0866393999999999,-0.0332489,0.9956818,34.2607,6.002228,-34.81485,3.263748,0.4322602,0.4300312,-0.2703841,1.31509,-0.02271473,-0.03216115,0.7232751000000001,-0.0221915,6.827408,-23.07858,34.39
1,-0.05082703,-0.04930115,0.9974823,1.0,-0.2195435,-0.06787109,0.9732361,-29.56503,7.360214,-32.71266,3.438904,0.4682527,0.383125,1.0,0.0866393999999999,-0.0332489,0.9956818,34.2607,6.002228,-34.81485,3.263748,0.4322602,0.4300312,-0.2703841,1.31509,-0.02271473,-0.03216115,0.7232751000000001,-0.0221915,6.827408,-23.07858,34.39
1,-0.05082703,-0.04930115,0.9974823,1.0,-0.2195435,-0.06787109,0.9732361,-29.56503,7.360214,-32.71266,3.438904,0.4682527,0.383125,1.0,0.0866393999999999,-0.0332489,0.9956818,34.2607,6.002228,-34.81485,3.263748,0.4322602,0.4300312,-0.2703841,1.31509,-0.02271473,-0.03216115,0.7232751000000001,-0.0221915,6.827408,-23.07858,34.39
1,-0.06672668,-0.04586792,0.9967041,1.0,-0.238678,-0.05638123,0.9694519,-29.6543,7.351761,-32.55035,3.572296,0.4738058,0.3808136,1.0,0.090271,-0.03517151,0.995285,34.15724,6.156036,-35.09219,3.152191,0.4354128,0.4271305,-0.2704925999999999,1.315058,-0.02217126,-0.03202166,0.7223305,-0.022327,6.827408,-23.07858,34.39
1,-0.06672668,-0.04586792,0.9967041,1.0,-0.238678,-0.05638123,0.9694519,-29.6543,7.351761,-32.55035,3.572296,0.4738058,0.3808136,1.0,0.090271,-0.03517151,0.995285,34.15724,6.156036,-35.09219,3.152191,0.4354128,0.4271305,-0.2704925999999999,1.315058,-0.02217126,-0.03202166,0.7223305,-0.022327,6.827408,-23.07858,34.39
1,-0.06672668,-0.04586792,0.9967041,1.0,-0.238678,-0.05638123,0.9694519,-29.6543,7.351761,-32.55035,3.572296,0.4738058,0.3808136,1.0,0.090271,-0.03517151,0.995285,34.15724,6.156036,-35.09219,3.152191,0.4354128,0.4271305,-0.2704925999999999,1.315058,-0.02217126,-0.03202166,0.7223305,-0.022327,6.827408,-23.07858,34.39
1,-0.09994507,-0.04180908,0.9941101,1.0,-0.2206879,-0.04910278,0.9740906,-29.71532,7.314331,-32.55025,3.573853,0.4736975,0.3811560999999999,1.0,0.09022522,-0.02926636,0.9954834,34.15356,6.1595,-35.100190000000005,3.217163,0.4354906,0.4263735999999999,-0.2705524,1.314969,-0.02184868,-0.03181734,0.7221379,-0.02216402,6.827408,-23.07858,34.39
1,-0.09994507,-0.04180908,0.9941101,1.0,-0.2206879,-0.04910278,0.9740906,-29.71532,7.314331,-32.55025,3.573853,0.4736975,0.3811560999999999,1.0,0.09022522,-0.02926636,0.9954834,34.15356,6.1595,-35.100190000000005,3.217163,0.4354906,0.4263735999999999,-0.2705524,1.314969,-0.02184868,-0.03181734,0.7221379,-0.02216402,6.827408,-23.07858,34.39
1,-0.09994507,-0.04180908,0.9941101,1.0,-0.2206879,-0.04910278,0.9740906,-29.71532,7.314331,-32.55025,3.573853,0.4736975,0.3811560999999999,1.0,0.09022522,-0.02926636,0.9954834,34.15356,6.1595,-35.100190000000005,3.217163,0.4354906,0.4263735999999999,-0.2705524,1.314969,-0.02184868,-0.03181734,0.7221379,-0.02216402,6.827408,-23.07858,34.39
1,-0.1561279,-0.04473877,0.9867096,1.0,-0.2272643999999999,-0.05062866,0.9725037,-29.72923,7.328110000000001,-32.55537,3.502335,0.4750039000000001,0.3809181,1.0,0.09048462,-0.02302551,0.9956207,34.14816,6.095428,-34.8692,3.325394,0.4357061,0.4259863,-0.2704539999999999,1.314671,-0.02097797,-0.03020918,0.7216852,-0.0216119,6.827408,-23.07858,34.39
1,-0.1561279,-0.04473877,0.9867096,1.0,-0.2272643999999999,-0.05062866,0.9725037,-29.72923,7.328110000000001,-32.55537,3.502335,0.4750039000000001,0.3809181,1.0,0.09048462,-0.02302551,0.9956207,34.14816,6.095428,-34.8692,3.325394,0.4357061,0.4259863,-0.2704539999999999,1.314671,-0.02097797,-0.03020918,0.7216852,-0.0216119,6.827408,-23.07858,34.39
1,-0.1561279,-0.04473877,0.9867096,1.0,-0.2272643999999999,-0.05062866,0.9725037,-29.72923,7.328110000000001,-32.55537,3.502335,0.4750039000000001,0.3809181,1.0,0.09048462,-0.02302551,0.9956207,34.14816,6.095428,-34.8692,3.325394,0.4357061,0.4259863,-0.2704539999999999,1.314671,-0.02097797,-0.03020918,0.7216852,-0.0216119,6.827408,-23.07858,34.39
2,-0.08894348,-0.03625488,0.9953613,1.0,-0.2291565,-0.04672241,0.9722595,-29.73416,7.334579,-32.577290000000005,3.52179,0.4754208,0.3803859,1.0,0.08522034,-0.02243042,0.9960938,34.14992,6.103409,-34.8692,3.310043,0.4363217,0.4256295,-0.2704539999999999,1.314671,-0.02097797,-0.03020918,0.7216852,-0.0216119,6.827408,10.86395,34.39
2,-0.08894348,-0.03625488,0.9953613,1.0,-0.2291565,-0.04672241,0.9722595,-29.73416,7.334579,-32.577290000000005,3.52179,0.4754208,0.3803859,1.0,0.08522034,-0.02243042,0.9960938,34.14992,6.103409,-34.8692,3.310043,0.4363217,0.4256295,-0.2704539999999999,1.314671,-0.02097797,-0.03020918,0.7216852,-0.0216119,6.827408,10.86395,34.39
2,-0.08894348,-0.03625488,0.9953613,1.0,-0.2291565,-0.04672241,0.9722595,-29.73416,7.334579,-32.577290000000005,3.52179,0.4754208,0.3803859,1.0,0.08522034,-0.02243042,0.9960938,34.14992,6.103409,-34.8692,3.310043,0.4363217,0.4256295,-0.2704539999999999,1.314671,-0.02097797,-0.03020918,0.7216852,-0.0216119,6.827408,10.86395,34.39
2,-0.03207397,-0.02955627,0.9990386999999998,1.0,-0.2362366,-0.04380798,0.9707031,-29.73494,7.341873,-32.595,3.514511,0.4763380999999999,0.3799414,1.0,0.08442688,-0.0209198,0.9962006,34.1506,6.10553,-34.87845,3.304962,0.4363979,0.4254372999999999,-0.2704467,1.314757,-0.02041459,-0.02943695,0.7212601,-0.0213319,6.827408,10.86395,34.39
2,-0.03207397,-0.02955627,0.9990386999999998,1.0,-0.2362366,-0.04380798,0.9707031,-29.73494,7.341873,-32.595,3.514511,0.4763380999999999,0.3799414,1.0,0.08442688,-0.0209198,0.9962006,34.1506,6.10553,-34.87845,3.304962,0.4363979,0.4254372999999999,-0.2704467,1.314757,-0.02041459,-0.02943695,0.7212601,-0.0213319,6.827408,10.86395,34.39
2,-0.03207397,-0.02955627,0.9990386999999998,1.0,-0.2362366,-0.04380798,0.9707031,-29.73494,7.341873,-32.595,3.514511,0.4763380999999999,0.3799414,1.0,0.08442688,-0.0209198,0.9962006,34.1506,6.10553,-34.87845,3.304962,0.4363979,0.4254372999999999,-0.2704467,1.314757,-0.02041459,-0.02943695,0.7212601,-0.0213319,6.827408,10.86395,34.39
2,-0.03100586,-0.02931213,0.9990845,1.0,-0.2377777,-0.0459136999999999,0.9702301,-29.74597,7.362991,-32.64156,3.50325,0.4769265,0.3798538,1.0,0.07936096,-0.0199585,0.9966431,34.15283,6.10611,-34.86783,3.291779,0.4369770999999999,0.4251997999999999,-0.2704199,1.314837,-0.01871347,-0.02794495,0.7184991999999999,-0.01979772,6.827408,10.86395,34.39
2,-0.03100586,-0.02931213,0.9990845,1.0,-0.2377777,-0.0459136999999999,0.9702301,-29.74597,7.362991,-32.64156,3.50325,0.4769265,0.3798538,1.0,0.07936096,-0.0199585,0.9966431,34.15283,6.10611,-34.86783,3.291779,0.4369770999999999,0.4251997999999999,-0.2704199,1.314837,-0.01871347,-0.02794495,0.7184991999999999,-0.01979772,6.827408,10.86395,34.39
2,-0.03100586,-0.02931213,0.9990845,1.0,-0.2377777,-0.0459136999999999,0.9702301,-29.74597,7.362991,-32.64156,3.50325,0.4769265,0.3798538,1.0,0.07936096,-0.0199585,0.9966431,34.15283,6.10611,-34.86783,3.291779,0.4369770999999999,0.4251997999999999,-0.2704199,1.314837,-0.01871347,-0.02794495,0.7184991999999999,-0.01979772,6.827408,10.86395,34.39
2,-0.03044128,-0.02905273,0.9990997,1.0,-0.2373962,-0.0461731,0.9703064,-29.74728,7.364517,-32.64465,3.512604,0.4769265,0.3798538,1.0,0.07907104,-0.01951599,0.9966736,34.15384,6.10611,-34.86783,3.291672,0.4369770999999999,0.4251460999999999,-0.2703335999999999,1.314913,-0.01768303,-0.02714185,0.7158126,-0.01858287,6.827408,10.86395,34.39
2,-0.03044128,-0.02905273,0.9990997,1.0,-0.2373962,-0.0461731,0.9703064,-29.74728,7.364517,-32.64465,3.512604,0.4769265,0.3798538,1.0,0.07907104,-0.01951599,0.9966736,34.15384,6.10611,-34.86783,3.291672,0.4369770999999999,0.4251460999999999,-0.2703335999999999,1.314913,-0.01768303,-0.02714185,0.7158126,-0.01858287,6.827408,10.86395,34.39
2,-0.03044128,-0.02905273,0.9990997,1.0,-0.2373962,-0.0461731,0.9703064,-29.74728,7.364517,-32.64465,3.512604,0.4769265,0.3798538,1.0,0.07907104,-0.01951599,0.9966736,34.15384,6.10611,-34.86783,3.291672,0.4369770999999999,0.4251460999999999,-0.2703335999999999,1.314913,-0.01768303,-0.02714185,0.7158126,-0.01858287,6.827408,10.86395,34.39
2,-0.03044128,-0.02905273,0.9990997,1.0,-0.2373962,-0.0461731,0.9703064,-29.74728,7.364517,-32.64465,3.512604,0.4769265,0.3798538,1.0,0.07907104,-0.01951599,0.9966736,34.15384,6.10611,-34.86783,3.291672,0.4369770999999999,0.4251460999999999,-0.2703335999999999,1.314913,-0.01768303,-0.02714185,0.7158126,-0.01858287,6.827408,10.86395,34.39
2,-0.03044128,-0.02905273,0.9990997,1.0,-0.2373962,-0.0461731,0.9703064,-29.74728,7.364517,-32.64465,3.512604,0.4769265,0.3798538,1.0,0.07907104,-0.01951599,0.9966736,34.15384,6.10611,-34.86783,3.291672,0.4369770999999999,0.4251460999999999,-0.2703335999999999,1.314913,-0.01768303,-0.02714185,0.7158126,-0.01858287,6.827408,10.86395,34.39
2,-0.03044128,-0.02905273,0.9990997,1.0,-0.2373962,-0.0461731,0.9703064,-29.74728,7.364517,-32.64465,3.512604,0.4769265,0.3798538,1.0,0.07907104,-0.01951599,0.9966736,34.15384,6.10611,-34.86783,3.291672,0.4369770999999999,0.4251460999999999,-0.2703335999999999,1.314913,-0.01768303,-0.02714185,0.7158126,-0.01858287,6.827408,10.86395,34.39
2,-0.2265167,-0.04602051,0.9729156,1.0,-0.2461243,-0.04695129,0.9680939,-29.8046,7.369446000000001,-32.6741,3.5428620000000004,0.4800509,0.3800919,1.0,0.0637207,-0.0307312,0.9974823,34.105270000000004,6.224976,-35.321,3.339828,0.4402914,0.4262446,-0.2702649,1.315034,-0.01658154,-0.02658188,0.7128079,-0.01783193,6.845346,8.774628,34.39
2,-0.2265167,-0.04602051,0.9729156,1.0,-0.2461243,-0.04695129,0.9680939,-29.8046,7.369446000000001,-32.6741,3.5428620000000004,0.4800509,0.3800919,1.0,0.0637207,-0.0307312,0.9974823,34.105270000000004,6.224976,-35.321,3.339828,0.4402914,0.4262446,-0.2702649,1.315034,-0.01658154,-0.02658188,0.7128079,-0.01783193,6.845346,8.774628,34.39
2,-0.2265167,-0.04602051,0.9729156,1.0,-0.2461243,-0.04695129,0.9680939,-29.8046,7.369446000000001,-32.6741,3.5428620000000004,0.4800509,0.3800919,1.0,0.0637207,-0.0307312,0.9974823,34.105270000000004,6.224976,-35.321,3.339828,0.4402914,0.4262446,-0.2702649,1.315034,-0.01658154,-0.02658188,0.7128079,-0.01783193,6.845346,8.774628,34.39
2,-0.2495575,-0.03886414,0.9675751,1.0,-0.2522278,-0.03883362,0.9668732,-29.804240000000004,7.401244999999999,-32.68884,3.4716190000000005,0.4808117999999999,0.378071,1.0,0.06752014,-0.04011536,0.9969025,34.11458,6.241714,-35.26823,3.116699,0.439734,0.4262333,-0.2699419,1.31512,-0.01539552,-0.0261354,0.7097135,-0.01726364,6.845346,8.774628,34.39
2,-0.2495575,-0.03886414,0.9675751,1.0,-0.2522278,-0.03883362,0.9668732,-29.804240000000004,7.401244999999999,-32.68884,3.4716190000000005,0.4808117999999999,0.378071,1.0,0.06752014,-0.04011536,0.9969025,34.11458,6.241714,-35.26823,3.116699,0.439734,0.4262333,-0.2699419,1.31512,-0.01539552,-0.0261354,0.7097135,-0.01726364,6.845346,8.774628,34.39
2,-0.2495575,-0.03886414,0.9675751,1.0,-0.2522278,-0.03883362,0.9668732,-29.804240000000004,7.401244999999999,-32.68884,3.4716190000000005,0.4808117999999999,0.378071,1.0,0.06752014,-0.04011536,0.9969025,34.11458,6.241714,-35.26823,3.116699,0.439734,0.4262333,-0.2699419,1.31512,-0.01539552,-0.0261354,0.7097135,-0.01726364,6.845346,8.774628,34.39
2,-0.2353820999999999,-0.03352356,0.9713135,1.0,-0.2368774,-0.03364563,0.9709473,-29.720640000000003,7.527466,-32.73903,3.480164,0.4759570999999999,0.3731847,1.0,0.07798767,-0.007720947,0.9969177,34.20094,6.203995,-34.67513,3.3039089999999995,0.435597,0.4185654,-0.2695879,1.315312,-0.01359546,-0.02510426,0.7042187,-0.01693674,6.845346,8.774628,34.39
2,-0.2353820999999999,-0.03352356,0.9713135,1.0,-0.2368774,-0.03364563,0.9709473,-29.720640000000003,7.527466,-32.73903,3.480164,0.4759570999999999,0.3731847,1.0,0.07798767,-0.007720947,0.9969177,34.20094,6.203995,-34.67513,3.3039089999999995,0.435597,0.4185654,-0.2695879,1.315312,-0.01359546,-0.02510426,0.7042187,-0.01693674,6.845346,8.774628,34.39
2,-0.2353820999999999,-0.03352356,0.9713135,1.0,-0.2368774,-0.03364563,0.9709473,-29.720640000000003,7.527466,-32.73903,3.480164,0.4759570999999999,0.3731847,1.0,0.07798767,-0.007720947,0.9969177,34.20094,6.203995,-34.67513,3.3039089999999995,0.435597,0.4185654,-0.2695879,1.315312,-0.01359546,-0.02510426,0.7042187,-0.01693674,6.845346,8.774628,34.39
2,-0.1769104,0.09251404,0.9798584,1.0,-0.1963043,0.09176636,0.9762268,-29.53899,7.783905,-32.45955,3.608963,0.4645430999999999,0.3456763,1.0,0.1183472,0.09931946,0.9879913,34.34093,6.58551,-34.981120000000004,3.249176,0.4254737,0.3939305999999999,-0.2692705999999999,1.315266,-0.01299942,-0.02506867,0.7024847,-0.01701917,6.845346,8.774628,34.39
2,-0.1769104,0.09251404,0.9798584,1.0,-0.1963043,0.09176636,0.9762268,-29.53899,7.783905,-32.45955,3.608963,0.4645430999999999,0.3456763,1.0,0.1183472,0.09931946,0.9879913,34.34093,6.58551,-34.981120000000004,3.249176,0.4254737,0.3939305999999999,-0.2692705999999999,1.315266,-0.01299942,-0.02506867,0.7024847,-0.01701917,6.845346,8.774628,34.39
2,-0.1769104,0.09251404,0.9798584,1.0,-0.1963043,0.09176636,0.9762268,-29.53899,7.783905,-32.45955,3.608963,0.4645430999999999,0.3456763,1.0,0.1183472,0.09931946,0.9879913,34.34093,6.58551,-34.981120000000004,3.249176,0.4254737,0.3939305999999999,-0.2692705999999999,1.315266,-0.01299942,-0.02506867,0.7024847,-0.01701917,6.845346,8.774628,34.39
2,-0.2149962999999999,0.09687805,0.9717865,1.0,-0.2161864999999999,0.09680176,0.9715271,-29.62212,7.819855,-32.55055,3.4966129999999995,0.4699614,0.3445475,1.0,0.09542847,0.1098785,0.9893494,34.33215,6.420105,-34.33696,3.300735,0.4291104999999999,0.3933302999999999,-0.2692705999999999,1.315266,-0.01299942,-0.02506867,0.7024847,-0.01701917,6.845346,8.774628,34.39
2,-0.2149962999999999,0.09687805,0.9717865,1.0,-0.2161864999999999,0.09680176,0.9715271,-29.62212,7.819855,-32.55055,3.4966129999999995,0.4699614,0.3445475,1.0,0.09542847,0.1098785,0.9893494,34.33215,6.420105,-34.33696,3.300735,0.4291104999999999,0.3933302999999999,-0.2692705999999999,1.315266,-0.01299942,-0.02506867,0.7024847,-0.01701917,6.845346,8.774628,34.39
2,-0.2149962999999999,0.09687805,0.9717865,1.0,-0.2161864999999999,0.09680176,0.9715271,-29.62212,7.819855,-32.55055,3.4966129999999995,0.4699614,0.3445475,1.0,0.09542847,0.1098785,0.9893494,34.33215,6.420105,-34.33696,3.300735,0.4291104999999999,0.3933302999999999,-0.2692705999999999,1.315266,-0.01299942,-0.02506867,0.7024847,-0.01701917,6.845346,8.774628,34.39
2,-0.2232512999999999,0.08299255,0.9712067,1.0,-0.2232819,0.08297729,0.9712067,-29.69374,7.850372,-32.56149,3.440475,0.4733702999999999,0.3452969999999999,1.0,0.08856201,0.1055145,0.9904633,34.29758,6.4039,-34.197390000000006,3.3344120000000004,0.4312653,0.3933667,-0.2690484,1.315121,-0.01284492,-0.02511599,0.7016901999999999,-0.01729304,6.845346,3.337555,34.39
2,-0.2232512999999999,0.08299255,0.9712067,1.0,-0.2232819,0.08297729,0.9712067,-29.69374,7.850372,-32.56149,3.440475,0.4733702999999999,0.3452969999999999,1.0,0.08856201,0.1055145,0.9904633,34.29758,6.4039,-34.197390000000006,3.3344120000000004,0.4312653,0.3933667,-0.2690484,1.315121,-0.01284492,-0.02511599,0.7016901999999999,-0.01729304,6.845346,3.337555,34.39
2,-0.2232512999999999,0.08299255,0.9712067,1.0,-0.2232819,0.08297729,0.9712067,-29.69374,7.850372,-32.56149,3.440475,0.4733702999999999,0.3452969999999999,1.0,0.08856201,0.1055145,0.9904633,34.29758,6.4039,-34.197390000000006,3.3344120000000004,0.4312653,0.3933667,-0.2690484,1.315121,-0.01284492,-0.02511599,0.7016901999999999,-0.01729304,6.845346,3.337555,34.39
2,-0.2238159,0.07440186,0.9717712,1.0,-0.2297974,0.07359314,0.9704437,-29.73215,7.851227000000001,-32.57277,3.42662,0.4755407999999999,0.3465741,1.0,0.07208252,0.1091461,0.991394,34.28792,6.391785,-34.13969,3.222687,0.4338270999999999,0.392803,-0.268546,1.314691,-0.01306129,-0.02444136,0.7023807,-0.01901811,6.845346,3.337555,34.39
2,-0.2238159,0.07440186,0.9717712,1.0,-0.2297974,0.07359314,0.9704437,-29.73215,7.851227000000001,-32.57277,3.42662,0.4755407999999999,0.3465741,1.0,0.07208252,0.1091461,0.991394,34.28792,6.391785,-34.13969,3.222687,0.4338270999999999,0.392803,-0.268546,1.314691,-0.01306129,-0.02444136,0.7023807,-0.01901811,6.845346,3.337555,34.39
2,-0.2238159,0.07440186,0.9717712,1.0,-0.2297974,0.07359314,0.9704437,-29.73215,7.851227000000001,-32.57277,3.42662,0.4755407999999999,0.3465741,1.0,0.07208252,0.1091461,0.991394,34.28792,6.391785,-34.13969,3.222687,0.4338270999999999,0.392803,-0.268546,1.314691,-0.01306129,-0.02444136,0.7023807,-0.01901811,6.845346,3.337555,34.39
2,-0.2238159,0.07440186,0.9717712,1.0,-0.2297974,0.07359314,0.9704437,-29.73215,7.851227000000001,-32.57277,3.42662,0.4755407999999999,0.3465741,1.0,0.07208252,0.1091461,0.991394,34.28792,6.391785,-34.13969,3.222687,0.4338270999999999,0.392803,-0.268546,1.314691,-0.01306129,-0.02444136,0.7023807,-0.01901811,6.845346,3.337555,34.39
2,-0.2238159,0.07440186,0.9717712,1.0,-0.2297974,0.07359314,0.9704437,-29.73215,7.851227000000001,-32.57277,3.42662,0.4755407999999999,0.3465741,1.0,0.07208252,0.1091461,0.991394,34.28792,6.391785,-34.13969,3.222687,0.4338270999999999,0.392803,-0.268546,1.314691,-0.01306129,-0.02444136,0.7023807,-0.01901811,6.845346,3.337555,34.39
2,-0.2238159,0.07440186,0.9717712,1.0,-0.2297974,0.07359314,0.9704437,-29.73215,7.851227000000001,-32.57277,3.42662,0.4755407999999999,0.3465741,1.0,0.07208252,0.1091461,0.991394,34.28792,6.391785,-34.13969,3.222687,0.4338270999999999,0.392803,-0.268546,1.314691,-0.01306129,-0.02444136,0.7023807,-0.01901811,6.845346,3.337555,34.39
2,-0.1799469,0.01696777,0.9835205,1.0,-0.1799469,0.01696777,0.9835205,-29.48334,7.654586999999999,-32.810179999999995,3.356918,0.4604345999999999,0.3623672,1.0,0.1155701,0.0111084,0.9932251,34.43013,6.510269,-35.49092,3.043427,0.4223662,0.4117433,-0.2681136,1.314335,-0.01337767,-0.02384277,0.7035017,-0.02017749,6.845346,3.337555,34.39
2,-0.1799469,0.01696777,0.9835205,1.0,-0.1799469,0.01696777,0.9835205,-29.48334,7.654586999999999,-32.810179999999995,3.356918,0.4604345999999999,0.3623672,1.0,0.1155701,0.0111084,0.9932251,34.43013,6.510269,-35.49092,3.043427,0.4223662,0.4117433,-0.2681136,1.314335,-0.01337767,-0.02384277,0.7035017,-0.02017749,6.845346,3.337555,34.39
2,-0.1799469,0.01696777,0.9835205,1.0,-0.1799469,0.01696777,0.9835205,-29.48334,7.654586999999999,-32.810179999999995,3.356918,0.4604345999999999,0.3623672,1.0,0.1155701,0.0111084,0.9932251,34.43013,6.510269,-35.49092,3.043427,0.4223662,0.4117433,-0.2681136,1.314335,-0.01337767,-0.02384277,0.7035017,-0.02017749,6.845346,3.337555,34.39
2,-0.1636658,0.02253723,0.9862518,1.0,-0.1636658,0.02253723,0.9862518,-29.4924,7.614456,-32.6689,3.306366,0.4587032999999999,0.3618815,1.0,0.1203308,0.01164246,0.9926605,34.44659,6.551193,-35.61902,3.0684970000000003,0.4210479,0.4112869,-0.2676777,1.313957,-0.01369345,-0.02308621,0.7043853,-0.02118782,6.845346,3.337555,34.39
2,-0.1636658,0.02253723,0.9862518,1.0,-0.1636658,0.02253723,0.9862518,-29.4924,7.614456,-32.6689,3.306366,0.4587032999999999,0.3618815,1.0,0.1203308,0.01164246,0.9926605,34.44659,6.551193,-35.61902,3.0684970000000003,0.4210479,0.4112869,-0.2676777,1.313957,-0.01369345,-0.02308621,0.7043853,-0.02118782,6.845346,3.337555,34.39
2,-0.1636658,0.02253723,0.9862518,1.0,-0.1636658,0.02253723,0.9862518,-29.4924,7.614456,-32.6689,3.306366,0.4587032999999999,0.3618815,1.0,0.1203308,0.01164246,0.9926605,34.44659,6.551193,-35.61902,3.0684970000000003,0.4210479,0.4112869,-0.2676777,1.313957,-0.01369345,-0.02308621,0.7043853,-0.02118782,6.845346,3.337555,34.39
2,-0.1693115,0.0177002,0.9853973,1.0,-0.1693115,0.0177002,0.9853973,-29.49022,7.687363,-32.92264,3.214935,0.4593077999999999,0.3619071,1.0,0.1202087,0.01702881,0.9925995,34.45415,6.569992,-35.65752,2.952255,0.4208696,0.4101509,-0.26729,1.313808,-0.01384914,-0.02246772,0.7049207,-0.02219316,6.845346,-14.78241,34.39
2,-0.1693115,0.0177002,0.9853973,1.0,-0.1693115,0.0177002,0.9853973,-29.49022,7.687363,-32.92264,3.214935,0.4593077999999999,0.3619071,1.0,0.1202087,0.01702881,0.9925995,34.45415,6.569992,-35.65752,2.952255,0.4208696,0.4101509,-0.26729,1.313808,-0.01384914,-0.02246772,0.7049207,-0.02219316,6.845346,-14.78241,34.39
2,-0.1693115,0.0177002,0.9853973,1.0,-0.1693115,0.0177002,0.9853973,-29.49022,7.687363,-32.92264,3.214935,0.4593077999999999,0.3619071,1.0,0.1202087,0.01702881,0.9925995,34.45415,6.569992,-35.65752,2.952255,0.4208696,0.4101509,-0.26729,1.313808,-0.01384914,-0.02246772,0.7049207,-0.02219316,6.845346,-14.78241,34.39
2,0.1272583,0.0415802,0.9909821,1.0,-0.1795043999999999,0.04296875,0.9828033000000002,-29.39883,7.404311999999999,-31.61797,3.200623,0.4573956,0.3584071,1.0,0.1327515,0.04151917,0.9902649,34.531420000000004,6.366379,-34.78687,2.916687,0.4172522,0.4069824999999999,-0.266466,1.313273,-0.0142597,-0.02150445,0.7049209,-0.02321779,6.845346,-14.78241,34.39
2,0.1272583,0.0415802,0.9909821,1.0,-0.1795043999999999,0.04296875,0.9828033000000002,-29.39883,7.404311999999999,-31.61797,3.200623,0.4573956,0.3584071,1.0,0.1327515,0.04151917,0.9902649,34.531420000000004,6.366379,-34.78687,2.916687,0.4172522,0.4069824999999999,-0.266466,1.313273,-0.0142597,-0.02150445,0.7049209,-0.02321779,6.845346,-14.78241,34.39
2,0.1272583,0.0415802,0.9909821,1.0,-0.1795043999999999,0.04296875,0.9828033000000002,-29.39883,7.404311999999999,-31.61797,3.200623,0.4573956,0.3584071,1.0,0.1327515,0.04151917,0.9902649,34.531420000000004,6.366379,-34.78687,2.916687,0.4172522,0.4069824999999999,-0.266466,1.313273,-0.0142597,-0.02150445,0.7049209,-0.02321779,6.845346,-14.78241,34.39
2,0.1307983,0.04219055,0.990509,1.0,-0.1796265,0.0402832,0.9828949,-29.39412,7.38475,-31.541490000000003,3.19754,0.4572449999999999,0.3588362,1.0,0.1315155,0.04219055,0.9904022,34.543820000000004,6.345962999999999,-34.71434,2.928528,0.4170180999999999,0.4070305999999999,-0.266466,1.313273,-0.0142597,-0.02150445,0.7049209,-0.02321779,6.845346,-14.78241,34.39
2,0.1307983,0.04219055,0.990509,1.0,-0.1796265,0.0402832,0.9828949,-29.39412,7.38475,-31.541490000000003,3.19754,0.4572449999999999,0.3588362,1.0,0.1315155,0.04219055,0.9904022,34.543820000000004,6.345962999999999,-34.71434,2.928528,0.4170180999999999,0.4070305999999999,-0.266466,1.313273,-0.0142597,-0.02150445,0.7049209,-0.02321779,6.845346,-14.78241,34.39
2,0.1307983,0.04219055,0.990509,1.0,-0.1796265,0.0402832,0.9828949,-29.39412,7.38475,-31.541490000000003,3.19754,0.4572449999999999,0.3588362,1.0,0.1315155,0.04219055,0.9904022,34.543820000000004,6.345962999999999,-34.71434,2.928528,0.4170180999999999,0.4070305999999999,-0.266466,1.313273,-0.0142597,-0.02150445,0.7049209,-0.02321779,6.845346,-14.78241,34.39
2,0.04206848,0.04281616,0.9981842,1.0,-0.178772,0.04345703,0.9829254,-29.39549,7.375107000000001,-31.48703,3.204132,0.4571906,0.3583565,1.0,0.1300658999999999,0.04197693,0.9906006,34.557140000000004,6.353958,-34.70795,2.913818,0.4167480999999999,0.4067065,-0.2662962,1.313143,-0.01428521,-0.02116546,0.7043387,-0.0236755999999999,6.845346,-14.78241,34.39
2,0.04206848,0.04281616,0.9981842,1.0,-0.178772,0.04345703,0.9829254,-29.39549,7.375107000000001,-31.48703,3.204132,0.4571906,0.3583565,1.0,0.1300658999999999,0.04197693,0.9906006,34.557140000000004,6.353958,-34.70795,2.913818,0.4167480999999999,0.4067065,-0.2662962,1.313143,-0.01428521,-0.02116546,0.7043387,-0.0236755999999999,6.845346,-14.78241,34.39
2,0.04206848,0.04281616,0.9981842,1.0,-0.178772,0.04345703,0.9829254,-29.39549,7.375107000000001,-31.48703,3.204132,0.4571906,0.3583565,1.0,0.1300658999999999,0.04197693,0.9906006,34.557140000000004,6.353958,-34.70795,2.913818,0.4167480999999999,0.4067065,-0.2662962,1.313143,-0.01428521,-0.02116546,0.7043387,-0.0236755999999999,6.845346,-14.78241,34.39
2,0.03746033,0.04373169,0.9983368,1.0,-0.1791382,0.04608154,0.9827423,-29.39655,7.369536999999999,-31.46844,3.205322,0.457275,0.3580764999999999,1.0,0.1310271999999999,0.04206848,0.9904785,34.55679,6.355469,-34.7023,2.912048,0.4166449,0.4065847,-0.2659430999999999,1.3130879999999998,-0.01419771,-0.02079875,0.7035302,-0.02392439,6.845346,-14.78241,34.39
2,0.03746033,0.04373169,0.9983368,1.0,-0.1791382,0.04608154,0.9827423,-29.39655,7.369536999999999,-31.46844,3.205322,0.457275,0.3580764999999999,1.0,0.1310271999999999,0.04206848,0.9904785,34.55679,6.355469,-34.7023,2.912048,0.4166449,0.4065847,-0.2659430999999999,1.3130879999999998,-0.01419771,-0.02079875,0.7035302,-0.02392439,6.845346,-14.78241,34.39
2,0.03746033,0.04373169,0.9983368,1.0,-0.1791382,0.04608154,0.9827423,-29.39655,7.369536999999999,-31.46844,3.205322,0.457275,0.3580764999999999,1.0,0.1310271999999999,0.04206848,0.9904785,34.55679,6.355469,-34.7023,2.912048,0.4166449,0.4065847,-0.2659430999999999,1.3130879999999998,-0.01419771,-0.02079875,0.7035302,-0.02392439,6.845346,-14.78241,34.39
2,0.02487183,0.04620361,0.9986115,1.0,-0.1803436,0.04873657,0.9823914,-29.39673,7.362578999999999,-31.403440000000003,3.206223,0.4574340999999999,0.3574817999999999,1.0,0.1339264,0.04405212,0.9900055,34.55679,6.352462999999999,-34.68806,2.899887,0.4162979999999999,0.4063085999999999,-0.2656139,1.313041,-0.01417005,-0.02066015,0.7028072,-0.02404108,6.845346,-14.78241,34.39
2,0.02487183,0.04620361,0.9986115,1.0,-0.1803436,0.04873657,0.9823914,-29.39673,7.362578999999999,-31.403440000000003,3.206223,0.4574340999999999,0.3574817999999999,1.0,0.1339264,0.04405212,0.9900055,34.55679,6.352462999999999,-34.68806,2.899887,0.4162979999999999,0.4063085999999999,-0.2656139,1.313041,-0.01417005,-0.02066015,0.7028072,-0.02404108,6.845346,-14.78241,34.39
2,0.02487183,0.04620361,0.9986115,1.0,-0.1803436,0.04873657,0.9823914,-29.39673,7.362578999999999,-31.403440000000003,3.206223,0.4574340999999999,0.3574817999999999,1.0,0.1339264,0.04405212,0.9900055,34.55679,6.352462999999999,-34.68806,2.899887,0.4162979999999999,0.4063085999999999,-0.2656139,1.313041,-0.01417005,-0.02066015,0.7028072,-0.02404108,6.845346,-14.78241,34.39
2,0.1072388,0.04620361,0.9931488000000002,1.0,-0.1825104,0.05371094,0.98172,-29.40263,7.329467999999999,-31.18533,3.196457,0.4579170999999999,0.3563221,1.0,0.1364136,0.04521179,0.9896088,34.54784,6.373459,-34.7023,2.889191,0.4162979999999999,0.4055318,-0.2652975999999999,1.312912,-0.01401174,-0.0203219,0.7021371,-0.02437295,6.845346,-7.112335,34.39
2,0.1072388,0.04620361,0.9931488000000002,1.0,-0.1825104,0.05371094,0.98172,-29.40263,7.329467999999999,-31.18533,3.196457,0.4579170999999999,0.3563221,1.0,0.1364136,0.04521179,0.9896088,34.54784,6.373459,-34.7023,2.889191,0.4162979999999999,0.4055318,-0.2652975999999999,1.312912,-0.01401174,-0.0203219,0.7021371,-0.02437295,6.845346,-7.112335,34.39
2,0.1072388,0.04620361,0.9931488000000002,1.0,-0.1825104,0.05371094,0.98172,-29.40263,7.329467999999999,-31.18533,3.196457,0.4579170999999999,0.3563221,1.0,0.1364136,0.04521179,0.9896088,34.54784,6.373459,-34.7023,2.889191,0.4162979999999999,0.4055318,-0.2652975999999999,1.312912,-0.01401174,-0.0203219,0.7021371,-0.02437295,6.845346,-7.112335,34.39
2,0.1099396,0.04724121,0.9928131,1.0,-0.1839905,0.05569458,0.9813385,-29.403140000000004,7.329467999999999,-31.18533,3.1811830000000003,0.4581161,0.3560759,1.0,0.1378937,0.04620361,0.9893646,34.54225,6.376923000000001,-34.71361,2.8895720000000003,0.4162979999999999,0.4053825,-0.2649969,1.312747,-0.01400888,-0.0197803,0.7013971999999999,-0.02450148,6.845346,-7.112335,34.39
2,0.1099396,0.04724121,0.9928131,1.0,-0.1839905,0.05569458,0.9813385,-29.403140000000004,7.329467999999999,-31.18533,3.1811830000000003,0.4581161,0.3560759,1.0,0.1378937,0.04620361,0.9893646,34.54225,6.376923000000001,-34.71361,2.8895720000000003,0.4162979999999999,0.4053825,-0.2649969,1.312747,-0.01400888,-0.0197803,0.7013971999999999,-0.02450148,6.845346,-7.112335,34.39
2,0.1099396,0.04724121,0.9928131,1.0,-0.1839905,0.05569458,0.9813385,-29.403140000000004,7.329467999999999,-31.18533,3.1811830000000003,0.4581161,0.3560759,1.0,0.1378937,0.04620361,0.9893646,34.54225,6.376923000000001,-34.71361,2.8895720000000003,0.4162979999999999,0.4053825,-0.2649969,1.312747,-0.01400888,-0.0197803,0.7013971999999999,-0.02450148,6.845346,-7.112335,34.39
2,0.1099396,0.04724121,0.9928131,1.0,-0.1839905,0.05569458,0.9813385,-29.403140000000004,7.329467999999999,-31.18533,3.1811830000000003,0.4581161,0.3560759,1.0,0.1378937,0.04620361,0.9893646,34.54225,6.376923000000001,-34.71361,2.8895720000000003,0.4162979999999999,0.4053825,-0.2648207,1.312731,-0.01400018,-0.01947089,0.7007654999999999,-0.0243401,6.845346,-7.112335,34.39
2,0.1099396,0.04724121,0.9928131,1.0,-0.1839905,0.05569458,0.9813385,-29.403140000000004,7.329467999999999,-31.18533,3.1811830000000003,0.4581161,0.3560759,1.0,0.1378937,0.04620361,0.9893646,34.54225,6.376923000000001,-34.71361,2.8895720000000003,0.4162979999999999,0.4053825,-0.2648207,1.312731,-0.01400018,-0.01947089,0.7007654999999999,-0.0243401,6.845346,-7.112335,34.39
2,0.1099396,0.04724121,0.9928131,1.0,-0.1839905,0.05569458,0.9813385,-29.403140000000004,7.329467999999999,-31.18533,3.1811830000000003,0.4581161,0.3560759,1.0,0.1378937,0.04620361,0.9893646,34.54225,6.376923000000001,-34.71361,2.8895720000000003,0.4162979999999999,0.4053825,-0.2648207,1.312731,-0.01400018,-0.01947089,0.7007654999999999,-0.0243401,6.845346,-7.112335,34.39
2,0.09902954,0.05258179,0.9936829,1.0,-0.1828612999999999,0.0556488,0.9815521,-29.40721,7.329467999999999,-31.183490000000003,3.197311,0.4581219,0.3560759,1.0,0.1361084,0.05184937,0.9893341,34.541140000000006,6.397522,-34.77888,2.889252,0.4165149,0.4044733,-0.2642835999999999,1.312722,-0.01372099,-0.01910624,0.6997299,-0.02429906,6.845346,-7.112335,34.37
2,0.09902954,0.05258179,0.9936829,1.0,-0.1828612999999999,0.0556488,0.9815521,-29.40721,7.329467999999999,-31.183490000000003,3.197311,0.4581219,0.3560759,1.0,0.1361084,0.05184937,0.9893341,34.541140000000006,6.397522,-34.77888,2.889252,0.4165149,0.4044733,-0.2642835999999999,1.312722,-0.01372099,-0.01910624,0.6997299,-0.02429906,6.845346,-7.112335,34.37
2,0.09902954,0.05258179,0.9936829,1.0,-0.1828612999999999,0.0556488,0.9815521,-29.40721,7.329467999999999,-31.183490000000003,3.197311,0.4581219,0.3560759,1.0,0.1361084,0.05184937,0.9893341,34.541140000000006,6.397522,-34.77888,2.889252,0.4165149,0.4044733,-0.2642835999999999,1.312722,-0.01372099,-0.01910624,0.6997299,-0.02429906,6.845346,-7.112335,34.37
2,0.09902954,0.05258179,0.9936829,1.0,-0.1828612999999999,0.0556488,0.9815521,-29.40721,7.329467999999999,-31.183490000000003,3.197311,0.4581219,0.3560759,1.0,0.1361084,0.05184937,0.9893341,34.541140000000006,6.397522,-34.77888,2.889252,0.4165149,0.4044733,-0.2641108,1.3126639999999998,-0.01373339,-0.0189498,0.6994039000000001,-0.02440844,6.845346,-7.112335,34.37
2,0.09902954,0.05258179,0.9936829,1.0,-0.1828612999999999,0.0556488,0.9815521,-29.40721,7.329467999999999,-31.183490000000003,3.197311,0.4581219,0.3560759,1.0,0.1361084,0.05184937,0.9893341,34.541140000000006,6.397522,-34.77888,2.889252,0.4165149,0.4044733,-0.2641108,1.3126639999999998,-0.01373339,-0.0189498,0.6994039000000001,-0.02440844,6.845346,-7.112335,34.37
2,0.09902954,0.05258179,0.9936829,1.0,-0.1828612999999999,0.0556488,0.9815521,-29.40721,7.329467999999999,-31.183490000000003,3.197311,0.4581219,0.3560759,1.0,0.1361084,0.05184937,0.9893341,34.541140000000006,6.397522,-34.77888,2.889252,0.4165149,0.4044733,-0.2641108,1.3126639999999998,-0.01373339,-0.0189498,0.6994039000000001,-0.02440844,6.845346,-7.112335,34.37
2,0.04901123,0.0532074,0.9973755,1.0,-0.1881256,0.06477356,0.9799957,-29.42131,7.409119,-31.29506,3.283875,0.4592939,0.3530704,1.0,0.1427002,0.04776001,0.9886017,34.535059999999994,6.429855,-34.75288,2.79599,0.415989,0.4035402999999999,-0.2641108,1.3126639999999998,-0.01373339,-0.0189498,0.6994039000000001,-0.02440844,6.845346,6.310669,34.37
2,0.04901123,0.0532074,0.9973755,1.0,-0.1881256,0.06477356,0.9799957,-29.42131,7.409119,-31.29506,3.283875,0.4592939,0.3530704,1.0,0.1427002,0.04776001,0.9886017,34.535059999999994,6.429855,-34.75288,2.79599,0.415989,0.4035402999999999,-0.2641108,1.3126639999999998,-0.01373339,-0.0189498,0.6994039000000001,-0.02440844,6.845346,6.310669,34.37
2,0.04901123,0.0532074,0.9973755,1.0,-0.1881256,0.06477356,0.9799957,-29.42131,7.409119,-31.29506,3.283875,0.4592939,0.3530704,1.0,0.1427002,0.04776001,0.9886017,34.535059999999994,6.429855,-34.75288,2.79599,0.415989,0.4035402999999999,-0.2641108,1.3126639999999998,-0.01373339,-0.0189498,0.6994039000000001,-0.02440844,6.845346,6.310669,34.37
2,0.04901123,0.0532074,0.9973755,1.0,-0.1881256,0.06477356,0.9799957,-29.42131,7.409119,-31.29506,3.283875,0.4592939,0.3530704,1.0,0.1427002,0.04776001,0.9886017,34.535059999999994,6.429855,-34.75288,2.79599,0.415989,0.4035402999999999,-0.2639566,1.312627,-0.01351857,-0.0189407999999999,0.6985314,-0.02342365,6.845346,6.310669,34.37
2,0.04901123,0.0532074,0.9973755,1.0,-0.1881256,0.06477356,0.9799957,-29.42131,7.409119,-31.29506,3.283875,0.4592939,0.3530704,1.0,0.1427002,0.04776001,0.9886017,34.535059999999994,6.429855,-34.75288,2.79599,0.415989,0.4035402999999999,-0.2639566,1.312627,-0.01351857,-0.0189407999999999,0.6985314,-0.02342365,6.845346,6.310669,34.37
2,0.04901123,0.0532074,0.9973755,1.0,-0.1881256,0.06477356,0.9799957,-29.42131,7.409119,-31.29506,3.283875,0.4592939,0.3530704,1.0,0.1427002,0.04776001,0.9886017,34.535059999999994,6.429855,-34.75288,2.79599,0.415989,0.4035402999999999,-0.2639566,1.312627,-0.01351857,-0.0189407999999999,0.6985314,-0.02342365,6.845346,6.310669,34.37
2,0.06417847,0.06820679,0.9955902,1.0,-0.182312,0.06463623,0.9811096,-29.42325,7.463089,-31.31738,3.145142,0.45861,0.3512192,1.0,0.1421967,0.06846619,0.9874573,34.55676,6.440062999999999,-34.68251,2.989853,0.4151929,0.4001538,-0.2640179,1.3127950000000002,-0.01324797,-0.01894793,0.697879,-0.02283215,6.845346,6.310669,34.37
2,0.06417847,0.06820679,0.9955902,1.0,-0.182312,0.06463623,0.9811096,-29.42325,7.463089,-31.31738,3.145142,0.45861,0.3512192,1.0,0.1421967,0.06846619,0.9874573,34.55676,6.440062999999999,-34.68251,2.989853,0.4151929,0.4001538,-0.2640179,1.3127950000000002,-0.01324797,-0.01894793,0.697879,-0.02283215,6.845346,6.310669,34.37
2,0.06417847,0.06820679,0.9955902,1.0,-0.182312,0.06463623,0.9811096,-29.42325,7.463089,-31.31738,3.145142,0.45861,0.3512192,1.0,0.1421967,0.06846619,0.9874573,34.55676,6.440062999999999,-34.68251,2.989853,0.4151929,0.4001538,-0.2640179,1.3127950000000002,-0.01324797,-0.01894793,0.697879,-0.02283215,6.845346,6.310669,34.37
3,0.03126526,0.06352234,0.9974823,1.0,-0.1884003,0.06208801,0.9801178,-29.43753,7.50351,-31.46362,3.24762,0.4598893,0.3513493,1.0,0.1367797999999999,0.06309509,0.9885864,34.55461,6.440062999999999,-34.67557,2.921707,0.4160229,0.4007146,-0.2639560999999999,1.312801,-0.01309884,-0.01869204,0.6973939,-0.02267312,6.845346,6.310669,34.37
3,0.03126526,0.06352234,0.9974823,1.0,-0.1884003,0.06208801,0.9801178,-29.43753,7.50351,-31.46362,3.24762,0.4598893,0.3513493,1.0,0.1367797999999999,0.06309509,0.9885864,34.55461,6.440062999999999,-34.67557,2.921707,0.4160229,0.4007146,-0.2639560999999999,1.312801,-0.01309884,-0.01869204,0.6973939,-0.02267312,6.845346,6.310669,34.37
3,0.03126526,0.06352234,0.9974823,1.0,-0.1884003,0.06208801,0.9801178,-29.43753,7.50351,-31.46362,3.24762,0.4598893,0.3513493,1.0,0.1367797999999999,0.06309509,0.9885864,34.55461,6.440062999999999,-34.67557,2.921707,0.4160229,0.4007146,-0.2639560999999999,1.312801,-0.01309884,-0.01869204,0.6973939,-0.02267312,6.845346,6.310669,34.37
3,0.03096008,0.06330872,0.9974976,1.0,-0.1869964999999999,0.06124878,0.9804382,-29.44785,7.50351,-31.46362,3.257492,0.4600769,0.3514557,1.0,0.137207,0.06323242,0.9885101,34.55327,6.428513,-34.627790000000005,2.922684,0.4160544,0.4007146,-0.2639592,1.312784,-0.01277697,-0.01822752,0.6967220000000001,-0.02289513,6.845346,6.505341,34.37
3,0.03096008,0.06330872,0.9974976,1.0,-0.1869964999999999,0.06124878,0.9804382,-29.44785,7.50351,-31.46362,3.257492,0.4600769,0.3514557,1.0,0.137207,0.06323242,0.9885101,34.55327,6.428513,-34.627790000000005,2.922684,0.4160544,0.4007146,-0.2639592,1.312784,-0.01277697,-0.01822752,0.6967220000000001,-0.02289513,6.845346,6.505341,34.37
3,0.03096008,0.06330872,0.9974976,1.0,-0.1869964999999999,0.06124878,0.9804382,-29.44785,7.50351,-31.46362,3.257492,0.4600769,0.3514557,1.0,0.137207,0.06323242,0.9885101,34.55327,6.428513,-34.627790000000005,2.922684,0.4160544,0.4007146,-0.2639592,1.312784,-0.01277697,-0.01822752,0.6967220000000001,-0.02289513,6.845346,6.505341,34.37
3,0.01123047,0.06437683,0.9978485,1.0,-0.1878357,0.0622405999999999,0.9802246,-29.45264,7.494919,-31.45836,3.2477720000000003,0.4603455,0.3515972,1.0,0.137146,0.06440735,0.9884491,34.55312,6.42186,-34.61208,2.941986,0.4160645999999999,0.4006924,-0.2643581,1.312686,-0.0121305,-0.01710314,0.6953151999999999,-0.02328425,6.845346,6.505341,34.37
3,0.01123047,0.06437683,0.9978485,1.0,-0.1878357,0.0622405999999999,0.9802246,-29.45264,7.494919,-31.45836,3.2477720000000003,0.4603455,0.3515972,1.0,0.137146,0.06440735,0.9884491,34.55312,6.42186,-34.61208,2.941986,0.4160645999999999,0.4006924,-0.2643581,1.312686,-0.0121305,-0.01710314,0.6953151999999999,-0.02328425,6.845346,6.505341,34.37
3,0.01123047,0.06437683,0.9978485,1.0,-0.1878357,0.0622405999999999,0.9802246,-29.45264,7.494919,-31.45836,3.2477720000000003,0.4603455,0.3515972,1.0,0.137146,0.06440735,0.9884491,34.55312,6.42186,-34.61208,2.941986,0.4160645999999999,0.4006924,-0.2643581,1.312686,-0.0121305,-0.01710314,0.6953151999999999,-0.02328425,6.845346,6.505341,34.37
3,0.01123047,0.06437683,0.9978485,1.0,-0.1878357,0.0622405999999999,0.9802246,-29.45264,7.494919,-31.45836,3.2477720000000003,0.4603455,0.3515972,1.0,0.137146,0.06440735,0.9884491,34.55312,6.42186,-34.61208,2.941986,0.4160645999999999,0.4006924,-0.2643581,1.312686,-0.0121305,-0.01710314,0.6953151999999999,-0.02328425,6.845346,6.505341,34.37
3,0.01123047,0.06437683,0.9978485,1.0,-0.1878357,0.0622405999999999,0.9802246,-29.45264,7.494919,-31.45836,3.2477720000000003,0.4603455,0.3515972,1.0,0.137146,0.06440735,0.9884491,34.55312,6.42186,-34.61208,2.941986,0.4160645999999999,0.4006924,-0.2643581,1.312686,-0.0121305,-0.01710314,0.6953151999999999,-0.02328425,6.845346,6.505341,34.37
3,0.01123047,0.06437683,0.9978485,1.0,-0.1878357,0.0622405999999999,0.9802246,-29.45264,7.494919,-31.45836,3.2477720000000003,0.4603455,0.3515972,1.0,0.137146,0.06440735,0.9884491,34.55312,6.42186,-34.61208,2.941986,0.4160645999999999,0.4006924,-0.2643581,1.312686,-0.0121305,-0.01710314,0.6953151999999999,-0.02328425,6.845346,6.505341,34.37
3,0.003173828,0.06385803,0.9979401,1.0,-0.1878052,0.06141663,0.9802704,-29.45271,7.494919,-31.45836,3.258286,0.4603478,0.3517088,1.0,0.1362152,0.06416321,0.9885864,34.552890000000005,6.42186,-34.61208,2.923492,0.4162067,0.4007146,-0.2647394,1.31282,-0.01177967,-0.01722562,0.6946256,-0.02307785,6.845346,6.505341,34.37
3,0.003173828,0.06385803,0.9979401,1.0,-0.1878052,0.06141663,0.9802704,-29.45271,7.494919,-31.45836,3.258286,0.4603478,0.3517088,1.0,0.1362152,0.06416321,0.9885864,34.552890000000005,6.42186,-34.61208,2.923492,0.4162067,0.4007146,-0.2647394,1.31282,-0.01177967,-0.01722562,0.6946256,-0.02307785,6.845346,6.505341,34.37
3,0.003173828,0.06385803,0.9979401,1.0,-0.1878052,0.06141663,0.9802704,-29.45271,7.494919,-31.45836,3.258286,0.4603478,0.3517088,1.0,0.1362152,0.06416321,0.9885864,34.552890000000005,6.42186,-34.61208,2.923492,0.4162067,0.4007146,-0.2647394,1.31282,-0.01177967,-0.01722562,0.6946256,-0.02307785,6.845346,6.505341,34.37
3,0.003173828,0.06385803,0.9979401,1.0,-0.1878052,0.06141663,0.9802704,-29.45271,7.494919,-31.45836,3.258286,0.4603478,0.3517088,1.0,0.1362152,0.06416321,0.9885864,34.552890000000005,6.42186,-34.61208,2.923492,0.4162067,0.4007146,-0.2651025,1.312797,-0.01155341,-0.01730729,0.6940542,-0.02271429,6.845346,6.505341,34.37
3,0.003173828,0.06385803,0.9979401,1.0,-0.1878052,0.06141663,0.9802704,-29.45271,7.494919,-31.45836,3.258286,0.4603478,0.3517088,1.0,0.1362152,0.06416321,0.9885864,34.552890000000005,6.42186,-34.61208,2.923492,0.4162067,0.4007146,-0.2651025,1.312797,-0.01155341,-0.01730729,0.6940542,-0.02271429,6.845346,6.505341,34.37
3,0.003173828,0.06385803,0.9979401,1.0,-0.1878052,0.06141663,0.9802704,-29.45271,7.494919,-31.45836,3.258286,0.4603478,0.3517088,1.0,0.1362152,0.06416321,0.9885864,34.552890000000005,6.42186,-34.61208,2.923492,0.4162067,0.4007146,-0.2651025,1.312797,-0.01155341,-0.01730729,0.6940542,-0.02271429,6.845346,6.505341,34.37
3,0.003936768,0.0546875,0.9984894,1.0,-0.1926117,0.05725098,0.979599,-29.46906,7.509613000000001,-31.47212,3.32869,0.4615324,0.351876,1.0,0.1410828,0.051651,0.9886475,34.543009999999995,6.448348999999999,-34.60916,2.867554,0.4159835999999999,0.4012787,-0.2652948,1.312967,-0.01118863,-0.01778578,0.6936018,-0.02212579,6.845346,2.28302,34.37
3,0.003936768,0.0546875,0.9984894,1.0,-0.1926117,0.05725098,0.979599,-29.46906,7.509613000000001,-31.47212,3.32869,0.4615324,0.351876,1.0,0.1410828,0.051651,0.9886475,34.543009999999995,6.448348999999999,-34.60916,2.867554,0.4159835999999999,0.4012787,-0.2652948,1.312967,-0.01118863,-0.01778578,0.6936018,-0.02212579,6.845346,2.28302,34.37
3,0.003936768,0.0546875,0.9984894,1.0,-0.1926117,0.05725098,0.979599,-29.46906,7.509613000000001,-31.47212,3.32869,0.4615324,0.351876,1.0,0.1410828,0.051651,0.9886475,34.543009999999995,6.448348999999999,-34.60916,2.867554,0.4159835999999999,0.4012787,-0.2652948,1.312967,-0.01118863,-0.01778578,0.6936018,-0.02212579,6.845346,2.28302,34.37
3,0.003936768,0.0546875,0.9984894,1.0,-0.1926117,0.05725098,0.979599,-29.46906,7.509613000000001,-31.47212,3.32869,0.4615324,0.351876,1.0,0.1410828,0.051651,0.9886475,34.543009999999995,6.448348999999999,-34.60916,2.867554,0.4159835999999999,0.4012787,-0.2655824,1.313152,-0.01076269,-0.0180882,0.6931584,-0.0216884,6.845346,2.28302,34.37
3,0.003936768,0.0546875,0.9984894,1.0,-0.1926117,0.05725098,0.979599,-29.46906,7.509613000000001,-31.47212,3.32869,0.4615324,0.351876,1.0,0.1410828,0.051651,0.9886475,34.543009999999995,6.448348999999999,-34.60916,2.867554,0.4159835999999999,0.4012787,-0.2655824,1.313152,-0.01076269,-0.0180882,0.6931584,-0.0216884,6.845346,2.28302,34.37
3,0.003936768,0.0546875,0.9984894,1.0,-0.1926117,0.05725098,0.979599,-29.46906,7.509613000000001,-31.47212,3.32869,0.4615324,0.351876,1.0,0.1410828,0.051651,0.9886475,34.543009999999995,6.448348999999999,-34.60916,2.867554,0.4159835999999999,0.4012787,-0.2655824,1.313152,-0.01076269,-0.0180882,0.6931584,-0.0216884,6.845346,2.28302,34.37
3,-0.01170349,0.05854797,0.9982147,1.0,-0.1948852999999999,0.06344604,0.9787598,-29.48778,7.509842,-31.454040000000003,3.347977,0.4624755999999999,0.3509811,1.0,0.1383209,0.05308533,0.9889526,34.54143,6.437180000000001,-34.52884,2.870026,0.4164593,0.4008344,-0.2657860999999999,1.313347,-0.01025116,-0.01816304,0.6927656999999999,-0.02127635,6.845346,2.28302,34.37
3,-0.01170349,0.05854797,0.9982147,1.0,-0.1948852999999999,0.06344604,0.9787598,-29.48778,7.509842,-31.454040000000003,3.347977,0.4624755999999999,0.3509811,1.0,0.1383209,0.05308533,0.9889526,34.54143,6.437180000000001,-34.52884,2.870026,0.4164593,0.4008344,-0.2657860999999999,1.313347,-0.01025116,-0.01816304,0.6927656999999999,-0.02127635,6.845346,2.28302,34.37
3,-0.01170349,0.05854797,0.9982147,1.0,-0.1948852999999999,0.06344604,0.9787598,-29.48778,7.509842,-31.454040000000003,3.347977,0.4624755999999999,0.3509811,1.0,0.1383209,0.05308533,0.9889526,34.54143,6.437180000000001,-34.52884,2.870026,0.4164593,0.4008344,-0.2657860999999999,1.313347,-0.01025116,-0.01816304,0.6927656999999999,-0.02127635,6.845346,2.28302,34.37
3,-0.0128478999999999,0.06013489,0.9980927,1.0,-0.1937102999999999,0.06439209,0.9789276,-29.49437,7.513275,-31.47774,3.3554690000000003,0.4625634,0.3509322,1.0,0.1340485,0.05522156,0.9894257,34.54327,6.421021,-34.49498,2.88884,0.4169522,0.4008784999999999,-0.2661908,1.31326,-0.009850025,-0.01819186,0.6919845,-0.0206298,6.845346,2.28302,34.37
3,-0.0128478999999999,0.06013489,0.9980927,1.0,-0.1937102999999999,0.06439209,0.9789276,-29.49437,7.513275,-31.47774,3.3554690000000003,0.4625634,0.3509322,1.0,0.1340485,0.05522156,0.9894257,34.54327,6.421021,-34.49498,2.88884,0.4169522,0.4008784999999999,-0.2661908,1.31326,-0.009850025,-0.01819186,0.6919845,-0.0206298,6.845346,2.28302,34.37
3,-0.0128478999999999,0.06013489,0.9980927,1.0,-0.1937102999999999,0.06439209,0.9789276,-29.49437,7.513275,-31.47774,3.3554690000000003,0.4625634,0.3509322,1.0,0.1340485,0.05522156,0.9894257,34.54327,6.421021,-34.49498,2.88884,0.4169522,0.4008784999999999,-0.2661908,1.31326,-0.009850025,-0.01819186,0.6919845,-0.0206298,6.845346,2.28302,34.37
3,-0.0128478999999999,0.06013489,0.9980927,1.0,-0.1937102999999999,0.06439209,0.9789276,-29.49437,7.513275,-31.47774,3.3554690000000003,0.4625634,0.3509322,1.0,0.1340485,0.05522156,0.9894257,34.54327,6.421021,-34.49498,2.88884,0.4169522,0.4008784999999999,-0.2664779,1.313301,-0.009301186,-0.01796511,0.6912356,-0.01998934,6.845346,2.28302,34.37
3,-0.0128478999999999,0.06013489,0.9980927,1.0,-0.1937102999999999,0.06439209,0.9789276,-29.49437,7.513275,-31.47774,3.3554690000000003,0.4625634,0.3509322,1.0,0.1340485,0.05522156,0.9894257,34.54327,6.421021,-34.49498,2.88884,0.4169522,0.4008784999999999,-0.2664779,1.313301,-0.009301186,-0.01796511,0.6912356,-0.01998934,6.845346,2.28302,34.37
3,-0.0128478999999999,0.06013489,0.9980927,1.0,-0.1937102999999999,0.06439209,0.9789276,-29.49437,7.513275,-31.47774,3.3554690000000003,0.4625634,0.3509322,1.0,0.1340485,0.05522156,0.9894257,34.54327,6.421021,-34.49498,2.88884,0.4169522,0.4008784999999999,-0.2664779,1.313301,-0.009301186,-0.01796511,0.6912356,-0.01998934,6.845346,2.28302,34.37
3,-0.0128478999999999,0.06013489,0.9980927,1.0,-0.1937102999999999,0.06439209,0.9789276,-29.49437,7.513275,-31.47774,3.3554690000000003,0.4625634,0.3509322,1.0,0.1340485,0.05522156,0.9894257,34.54327,6.421021,-34.49498,2.88884,0.4169522,0.4008784999999999,-0.2667424,1.313442,-0.008602977,-0.01766409,0.6902093,-0.01944818,6.845346,-16.40533,34.37
3,-0.0128478999999999,0.06013489,0.9980927,1.0,-0.1937102999999999,0.06439209,0.9789276,-29.49437,7.513275,-31.47774,3.3554690000000003,0.4625634,0.3509322,1.0,0.1340485,0.05522156,0.9894257,34.54327,6.421021,-34.49498,2.88884,0.4169522,0.4008784999999999,-0.2667424,1.313442,-0.008602977,-0.01766409,0.6902093,-0.01944818,6.845346,-16.40533,34.37
3,-0.0128478999999999,0.06013489,0.9980927,1.0,-0.1937102999999999,0.06439209,0.9789276,-29.49437,7.513275,-31.47774,3.3554690000000003,0.4625634,0.3509322,1.0,0.1340485,0.05522156,0.9894257,34.54327,6.421021,-34.49498,2.88884,0.4169522,0.4008784999999999,-0.2667424,1.313442,-0.008602977,-0.01766409,0.6902093,-0.01944818,6.845346,-16.40533,34.37
3,0.01637268,0.05973816,0.9980774,1.0,-0.193634,0.06286621,0.9790497,-29.49976,7.538010000000001,-31.55853,3.366196,0.4627454000000001,0.3508832,1.0,0.1298981,0.05693054,0.9898834,34.54547,6.407684,-34.46304,2.94075,0.4173847,0.4009225999999999,-0.2669045,1.313608,-0.00789535,-0.01764782,0.6889356,-0.01872228,6.845346,-16.40533,34.37
3,0.01637268,0.05973816,0.9980774,1.0,-0.193634,0.06286621,0.9790497,-29.49976,7.538010000000001,-31.55853,3.366196,0.4627454000000001,0.3508832,1.0,0.1298981,0.05693054,0.9898834,34.54547,6.407684,-34.46304,2.94075,0.4173847,0.4009225999999999,-0.2669045,1.313608,-0.00789535,-0.01764782,0.6889356,-0.01872228,6.845346,-16.40533,34.37
3,0.01637268,0.05973816,0.9980774,1.0,-0.193634,0.06286621,0.9790497,-29.49976,7.538010000000001,-31.55853,3.366196,0.4627454000000001,0.3508832,1.0,0.1298981,0.05693054,0.9898834,34.54547,6.407684,-34.46304,2.94075,0.4173847,0.4009225999999999,-0.2669045,1.313608,-0.00789535,-0.01764782,0.6889356,-0.01872228,6.845346,-16.40533,34.37
3,0.02552795,0.05917358,0.9979095,1.0,-0.1929168999999999,0.0614624,0.9792786,-29.502640000000003,7.542999000000001,-31.57233,3.370102,0.4627577,0.3509811,1.0,0.1271972999999999,0.05714417,0.9902191,34.54547,6.404053,-34.440090000000005,3.028152,0.4176733,0.4009225999999999,-0.2670347,1.31366,-0.007242799,-0.01759531,0.6874748,-0.01808679,6.845346,-16.40533,34.37
3,0.02552795,0.05917358,0.9979095,1.0,-0.1929168999999999,0.0614624,0.9792786,-29.502640000000003,7.542999000000001,-31.57233,3.370102,0.4627577,0.3509811,1.0,0.1271972999999999,0.05714417,0.9902191,34.54547,6.404053,-34.440090000000005,3.028152,0.4176733,0.4009225999999999,-0.2670347,1.31366,-0.007242799,-0.01759531,0.6874748,-0.01808679,6.845346,-16.40533,34.37
3,0.02552795,0.05917358,0.9979095,1.0,-0.1929168999999999,0.0614624,0.9792786,-29.502640000000003,7.542999000000001,-31.57233,3.370102,0.4627577,0.3509811,1.0,0.1271972999999999,0.05714417,0.9902191,34.54547,6.404053,-34.440090000000005,3.028152,0.4176733,0.4009225999999999,-0.2670347,1.31366,-0.007242799,-0.01759531,0.6874748,-0.01808679,6.845346,-16.40533,34.37
3,0.02552795,0.05917358,0.9979095,1.0,-0.1929168999999999,0.0614624,0.9792786,-29.502640000000003,7.542999000000001,-31.57233,3.370102,0.4627577,0.3509811,1.0,0.1271972999999999,0.05714417,0.9902191,34.54547,6.404053,-34.440090000000005,3.028152,0.4176733,0.4009225999999999,-0.2672134,1.313695,-0.006710291,-0.01740436,0.6859554,-0.01745304,6.845346,-16.40533,34.37
3,0.02552795,0.05917358,0.9979095,1.0,-0.1929168999999999,0.0614624,0.9792786,-29.502640000000003,7.542999000000001,-31.57233,3.370102,0.4627577,0.3509811,1.0,0.1271972999999999,0.05714417,0.9902191,34.54547,6.404053,-34.440090000000005,3.028152,0.4176733,0.4009225999999999,-0.2672134,1.313695,-0.006710291,-0.01740436,0.6859554,-0.01745304,6.845346,-16.40533,34.37
3,0.02552795,0.05917358,0.9979095,1.0,-0.1929168999999999,0.0614624,0.9792786,-29.502640000000003,7.542999000000001,-31.57233,3.370102,0.4627577,0.3509811,1.0,0.1271972999999999,0.05714417,0.9902191,34.54547,6.404053,-34.440090000000005,3.028152,0.4176733,0.4009225999999999,-0.2672134,1.313695,-0.006710291,-0.01740436,0.6859554,-0.01745304,6.845346,-16.40533,34.37
3,-0.057724,0.06306458,0.9963379,1.0,-0.1996612999999999,0.06272888,0.9778442,-29.5424,7.553619,-31.61975,3.533936,0.4650233,0.3509516,1.0,0.119751,0.06169128,0.9908752,34.51775,6.389694,-34.30998,3.256378,0.4195089,0.400016,-0.2673821,1.31389,-0.005726695,-0.01701839,0.6844941999999999,-0.01691701,6.845346,-16.40533,34.37
3,-0.057724,0.06306458,0.9963379,1.0,-0.1996612999999999,0.06272888,0.9778442,-29.5424,7.553619,-31.61975,3.533936,0.4650233,0.3509516,1.0,0.119751,0.06169128,0.9908752,34.51775,6.389694,-34.30998,3.256378,0.4195089,0.400016,-0.2673821,1.31389,-0.005726695,-0.01701839,0.6844941999999999,-0.01691701,6.845346,-16.40533,34.37
3,-0.057724,0.06306458,0.9963379,1.0,-0.1996612999999999,0.06272888,0.9778442,-29.5424,7.553619,-31.61975,3.533936,0.4650233,0.3509516,1.0,0.119751,0.06169128,0.9908752,34.51775,6.389694,-34.30998,3.256378,0.4195089,0.400016,-0.2673821,1.31389,-0.005726695,-0.01701839,0.6844941999999999,-0.01691701,6.845346,-16.40533,34.37
3,-0.04431152,0.06333923,0.996994,1.0,-0.1982117,0.06332397,0.9781036,-29.55156,7.551575,-31.61934,3.541519,0.4651649,0.3509569,1.0,0.1162108999999999,0.06176758,0.9912872,34.508590000000005,6.408081,-34.38876,3.254593,0.4202202999999999,0.4000034,-0.2674852,1.313788,-0.0051518679999999,-0.01629753,0.6831348,-0.0165022,6.845346,-16.40533,34.37
3,-0.04431152,0.06333923,0.996994,1.0,-0.1982117,0.06332397,0.9781036,-29.55156,7.551575,-31.61934,3.541519,0.4651649,0.3509569,1.0,0.1162108999999999,0.06176758,0.9912872,34.508590000000005,6.408081,-34.38876,3.254593,0.4202202999999999,0.4000034,-0.2674852,1.313788,-0.0051518679999999,-0.01629753,0.6831348,-0.0165022,6.845346,-16.40533,34.37
3,-0.04431152,0.06333923,0.996994,1.0,-0.1982117,0.06332397,0.9781036,-29.55156,7.551575,-31.61934,3.541519,0.4651649,0.3509569,1.0,0.1162108999999999,0.06176758,0.9912872,34.508590000000005,6.408081,-34.38876,3.254593,0.4202202999999999,0.4000034,-0.2674852,1.313788,-0.0051518679999999,-0.01629753,0.6831348,-0.0165022,6.845346,-16.40533,34.37
3,-0.03616333,0.06542969,0.9971924,1.0,-0.1981049,0.06260681,0.9781647,-29.55721,7.552017,-31.61934,3.541489,0.4653489,0.3510259,1.0,0.1151732999999999,0.0664978,0.9911041,34.50223,6.428574,-34.46815,3.252167,0.4205170999999999,0.3993423,-0.2675201,1.313741,-0.004668236,-0.01578977,0.6820955,-0.01642861,6.845346,3.544281,34.37
3,-0.03616333,0.06542969,0.9971924,1.0,-0.1981049,0.06260681,0.9781647,-29.55721,7.552017,-31.61934,3.541489,0.4653489,0.3510259,1.0,0.1151732999999999,0.0664978,0.9911041,34.50223,6.428574,-34.46815,3.252167,0.4205170999999999,0.3993423,-0.2675201,1.313741,-0.004668236,-0.01578977,0.6820955,-0.01642861,6.845346,3.544281,34.37
3,-0.03616333,0.06542969,0.9971924,1.0,-0.1981049,0.06260681,0.9781647,-29.55721,7.552017,-31.61934,3.541489,0.4653489,0.3510259,1.0,0.1151732999999999,0.0664978,0.9911041,34.50223,6.428574,-34.46815,3.252167,0.4205170999999999,0.3993423,-0.2675201,1.313741,-0.004668236,-0.01578977,0.6820955,-0.01642861,6.845346,3.544281,34.37
3,-0.07118225,0.0645752,0.9953613,1.0,-0.1966248,0.06263733,0.9784698,-29.5688,7.552567,-31.62204,3.572403,0.465578,0.3510335,1.0,0.1161194,0.0655365,0.9910583,34.49483,6.44931,-34.5421,3.248398,0.4206048,0.3993309,-0.2673645999999999,1.313756,-0.004366159,-0.01518911,0.6812166999999999,-0.01638263,6.845346,3.544281,34.37
3,-0.07118225,0.0645752,0.9953613,1.0,-0.1966248,0.06263733,0.9784698,-29.5688,7.552567,-31.62204,3.572403,0.465578,0.3510335,1.0,0.1161194,0.0655365,0.9910583,34.49483,6.44931,-34.5421,3.248398,0.4206048,0.3993309,-0.2673645999999999,1.313756,-0.004366159,-0.01518911,0.6812166999999999,-0.01638263,6.845346,3.544281,34.37
3,-0.07118225,0.0645752,0.9953613,1.0,-0.1966248,0.06263733,0.9784698,-29.5688,7.552567,-31.62204,3.572403,0.465578,0.3510335,1.0,0.1161194,0.0655365,0.9910583,34.49483,6.44931,-34.5421,3.248398,0.4206048,0.3993309,-0.2673645999999999,1.313756,-0.004366159,-0.01518911,0.6812166999999999,-0.01638263,6.845346,3.544281,34.37
3,-0.0796051,0.06420898,0.994751,1.0,-0.2003020999999999,0.06213379,0.9777527,-29.57524,7.556931,-31.62946,3.585617,0.4662634,0.3510182,1.0,0.1165924,0.06552124,0.9910126,34.4893,6.477264,-34.63577,3.245865,0.4206718,0.3991114,-0.2672943,1.313626,-0.004188657,-0.01468,0.6808791000000001,-0.01642736,6.845346,3.544281,34.37
3,-0.0796051,0.06420898,0.994751,1.0,-0.2003020999999999,0.06213379,0.9777527,-29.57524,7.556931,-31.62946,3.585617,0.4662634,0.3510182,1.0,0.1165924,0.06552124,0.9910126,34.4893,6.477264,-34.63577,3.245865,0.4206718,0.3991114,-0.2672943,1.313626,-0.004188657,-0.01468,0.6808791000000001,-0.01642736,6.845346,3.544281,34.37
3,-0.0796051,0.06420898,0.994751,1.0,-0.2003020999999999,0.06213379,0.9777527,-29.57524,7.556931,-31.62946,3.585617,0.4662634,0.3510182,1.0,0.1165924,0.06552124,0.9910126,34.4893,6.477264,-34.63577,3.245865,0.4206718,0.3991114,-0.2672943,1.313626,-0.004188657,-0.01468,0.6808791000000001,-0.01642736,6.845346,3.544281,34.37
3,-0.0796051,0.06420898,0.994751,1.0,-0.2003020999999999,0.06213379,0.9777527,-29.57524,7.556931,-31.62946,3.585617,0.4662634,0.3510182,1.0,0.1165924,0.06552124,0.9910126,34.4893,6.477264,-34.63577,3.245865,0.4206718,0.3991114,-0.2673229,1.31346,-0.004093647,-0.01433924,0.6806563,-0.01649418,6.845346,3.544281,34.37
3,-0.0796051,0.06420898,0.994751,1.0,-0.2003020999999999,0.06213379,0.9777527,-29.57524,7.556931,-31.62946,3.585617,0.4662634,0.3510182,1.0,0.1165924,0.06552124,0.9910126,34.4893,6.477264,-34.63577,3.245865,0.4206718,0.3991114,-0.2673229,1.31346,-0.004093647,-0.01433924,0.6806563,-0.01649418,6.845346,3.544281,34.37
3,-0.0796051,0.06420898,0.994751,1.0,-0.2003020999999999,0.06213379,0.9777527,-29.57524,7.556931,-31.62946,3.585617,0.4662634,0.3510182,1.0,0.1165924,0.06552124,0.9910126,34.4893,6.477264,-34.63577,3.245865,0.4206718,0.3991114,-0.2673229,1.31346,-0.004093647,-0.01433924,0.6806563,-0.01649418,6.845346,3.544281,34.37
3,-0.1380462999999999,0.05963135,0.9886169,1.0,-0.2164764,0.05838013,0.9745331,-29.60408,7.599197,-31.64549,3.526154,0.4692762,0.3501614999999999,1.0,0.1133117999999999,0.06109619,0.9916687,34.48032,6.514587000000001,-34.746,3.244598,0.4213205,0.3992495,-0.2672162,1.313351,-0.003921986,-0.01408901,0.6804693,-0.01635873,6.894033,3.544281,34.37
3,-0.1380462999999999,0.05963135,0.9886169,1.0,-0.2164764,0.05838013,0.9745331,-29.60408,7.599197,-31.64549,3.526154,0.4692762,0.3501614999999999,1.0,0.1133117999999999,0.06109619,0.9916687,34.48032,6.514587000000001,-34.746,3.244598,0.4213205,0.3992495,-0.2672162,1.313351,-0.003921986,-0.01408901,0.6804693,-0.01635873,6.894033,3.544281,34.37
3,-0.1380462999999999,0.05963135,0.9886169,1.0,-0.2164764,0.05838013,0.9745331,-29.60408,7.599197,-31.64549,3.526154,0.4692762,0.3501614999999999,1.0,0.1133117999999999,0.06109619,0.9916687,34.48032,6.514587000000001,-34.746,3.244598,0.4213205,0.3992495,-0.2672162,1.313351,-0.003921986,-0.01408901,0.6804693,-0.01635873,6.894033,3.544281,34.37
3,-0.03489685,0.06451416,0.9972992,1.0,-0.2098846,0.06272888,0.975708,-29.60635,7.609572999999999,-31.63615,3.539642,0.468541,0.3491450999999999,1.0,0.1111298,0.06448364,0.9916992,34.48032,6.514587000000001,-34.746,3.261978,0.4215818,0.398841,-0.267219,1.313339,-0.003878951,-0.01408405,0.6804906999999999,-0.01593859,6.894033,7.915405,34.37
3,-0.03489685,0.06451416,0.9972992,1.0,-0.2098846,0.06272888,0.975708,-29.60635,7.609572999999999,-31.63615,3.539642,0.468541,0.3491450999999999,1.0,0.1111298,0.06448364,0.9916992,34.48032,6.514587000000001,-34.746,3.261978,0.4215818,0.398841,-0.267219,1.313339,-0.003878951,-0.01408405,0.6804906999999999,-0.01593859,6.894033,7.915405,34.37
3,-0.03489685,0.06451416,0.9972992,1.0,-0.2098846,0.06272888,0.975708,-29.60635,7.609572999999999,-31.63615,3.539642,0.468541,0.3491450999999999,1.0,0.1111298,0.06448364,0.9916992,34.48032,6.514587000000001,-34.746,3.261978,0.4215818,0.398841,-0.267219,1.313339,-0.003878951,-0.01408405,0.6804906999999999,-0.01593859,6.894033,7.915405,34.37
3,-0.2050933999999999,0.05934143,0.9769287,1.0,-0.2050933999999999,0.05934143,0.9769287,-29.60721,7.615067,-31.63551,3.533554,0.4679733,0.3493442,1.0,0.112915,0.07395935,0.9908447,34.48633,6.257126,-33.75752,3.264786,0.4219103,0.3987009,-0.2671272,1.313298,-0.003867507,-0.01415779,0.6806876999999999,-0.01544298,6.894033,7.915405,34.37
3,-0.2050933999999999,0.05934143,0.9769287,1.0,-0.2050933999999999,0.05934143,0.9769287,-29.60721,7.615067,-31.63551,3.533554,0.4679733,0.3493442,1.0,0.112915,0.07395935,0.9908447,34.48633,6.257126,-33.75752,3.264786,0.4219103,0.3987009,-0.2671272,1.313298,-0.003867507,-0.01415779,0.6806876999999999,-0.01544298,6.894033,7.915405,34.37
3,-0.2050933999999999,0.05934143,0.9769287,1.0,-0.2050933999999999,0.05934143,0.9769287,-29.60721,7.615067,-31.63551,3.533554,0.4679733,0.3493442,1.0,0.112915,0.07395935,0.9908447,34.48633,6.257126,-33.75752,3.264786,0.4219103,0.3987009,-0.2671272,1.313298,-0.003867507,-0.01415779,0.6806876999999999,-0.01544298,6.894033,7.915405,34.37
3,-0.2049103,0.05871582,0.977005,1.0,-0.2049103,0.05871582,0.977005,-29.60791,7.617004,-31.6347,3.5249019999999995,0.4679733,0.3493442,1.0,0.1115875,0.07606506,0.9908295,34.48633,6.254822,-33.75693,3.256714,0.4220865,0.3985085,-0.2669649,1.313447,-0.0037410259999999,-0.0142454,0.6808733,-0.0153214,6.894033,7.915405,34.37
3,-0.2049103,0.05871582,0.977005,1.0,-0.2049103,0.05871582,0.977005,-29.60791,7.617004,-31.6347,3.5249019999999995,0.4679733,0.3493442,1.0,0.1115875,0.07606506,0.9908295,34.48633,6.254822,-33.75693,3.256714,0.4220865,0.3985085,-0.2669649,1.313447,-0.0037410259999999,-0.0142454,0.6808733,-0.0153214,6.894033,7.915405,34.37
3,-0.2049103,0.05871582,0.977005,1.0,-0.2049103,0.05871582,0.977005,-29.60791,7.617004,-31.6347,3.5249019999999995,0.4679733,0.3493442,1.0,0.1115875,0.07606506,0.9908295,34.48633,6.254822,-33.75693,3.256714,0.4220865,0.3985085,-0.2669649,1.313447,-0.0037410259999999,-0.0142454,0.6808733,-0.0153214,6.894033,7.915405,34.37
3,-0.0428009,0.06782532,0.9967651,1.0,-0.203476,0.05802917,0.977356,-29.61116,7.621719000000001,-31.6353,3.526184,0.467909,0.3492595,1.0,0.1103058,0.07543945,0.9910278,34.48532,6.241837,-33.69057,3.2559970000000003,0.4223332,0.3985039999999999,-0.2668302,1.313465,-0.0037312509999999,-0.01422159,0.6809685000000001,-0.01537165,6.894033,7.915405,34.37
3,-0.0428009,0.06782532,0.9967651,1.0,-0.203476,0.05802917,0.977356,-29.61116,7.621719000000001,-31.6353,3.526184,0.467909,0.3492595,1.0,0.1103058,0.07543945,0.9910278,34.48532,6.241837,-33.69057,3.2559970000000003,0.4223332,0.3985039999999999,-0.2668302,1.313465,-0.0037312509999999,-0.01422159,0.6809685000000001,-0.01537165,6.894033,7.915405,34.37
3,-0.0428009,0.06782532,0.9967651,1.0,-0.203476,0.05802917,0.977356,-29.61116,7.621719000000001,-31.6353,3.526184,0.467909,0.3492595,1.0,0.1103058,0.07543945,0.9910278,34.48532,6.241837,-33.69057,3.2559970000000003,0.4223332,0.3985039999999999,-0.2668302,1.313465,-0.0037312509999999,-0.01422159,0.6809685000000001,-0.01537165,6.894033,7.915405,34.37
3,-0.03631592,0.06730652,0.9970703000000002,1.0,-0.203476,0.05636597,0.9774475,-29.61484,7.621719000000001,-31.6353,3.525589,0.4680375,0.3494612,1.0,0.1145325,0.07548523,0.9905396,34.47552,6.241837,-33.69189,3.217636,0.4221824999999999,0.3984811,-0.2667018,1.313388,-0.003657222,-0.01429389,0.681361,-0.01574216,6.894033,7.915405,34.37
3,-0.03631592,0.06730652,0.9970703000000002,1.0,-0.203476,0.05636597,0.9774475,-29.61484,7.621719000000001,-31.6353,3.525589,0.4680375,0.3494612,1.0,0.1145325,0.07548523,0.9905396,34.47552,6.241837,-33.69189,3.217636,0.4221824999999999,0.3984811,-0.2667018,1.313388,-0.003657222,-0.01429389,0.681361,-0.01574216,6.894033,7.915405,34.37
3,-0.03631592,0.06730652,0.9970703000000002,1.0,-0.203476,0.05636597,0.9774475,-29.61484,7.621719000000001,-31.6353,3.525589,0.4680375,0.3494612,1.0,0.1145325,0.07548523,0.9905396,34.47552,6.241837,-33.69189,3.217636,0.4221824999999999,0.3984811,-0.2667018,1.313388,-0.003657222,-0.01429389,0.681361,-0.01574216,6.894033,7.915405,34.37
3,-0.03631592,0.06730652,0.9970703000000002,1.0,-0.203476,0.05636597,0.9774475,-29.61484,7.621719000000001,-31.6353,3.525589,0.4680375,0.3494612,1.0,0.1145325,0.07548523,0.9905396,34.47552,6.241837,-33.69189,3.217636,0.4221824999999999,0.3984811,-0.2666014,1.313295,-0.0035575629999999,-0.01409364,0.6818892,-0.01614936,6.894033,-3.995667,34.37
3,-0.03631592,0.06730652,0.9970703000000002,1.0,-0.203476,0.05636597,0.9774475,-29.61484,7.621719000000001,-31.6353,3.525589,0.4680375,0.3494612,1.0,0.1145325,0.07548523,0.9905396,34.47552,6.241837,-33.69189,3.217636,0.4221824999999999,0.3984811,-0.2666014,1.313295,-0.0035575629999999,-0.01409364,0.6818892,-0.01614936,6.894033,-3.995667,34.37
3,-0.03631592,0.06730652,0.9970703000000002,1.0,-0.203476,0.05636597,0.9774475,-29.61484,7.621719000000001,-31.6353,3.525589,0.4680375,0.3494612,1.0,0.1145325,0.07548523,0.9905396,34.47552,6.241837,-33.69189,3.217636,0.4221824999999999,0.3984811,-0.2666014,1.313295,-0.0035575629999999,-0.01409364,0.6818892,-0.01614936,6.894033,-3.995667,34.37
3,-0.2053375,0.05656433,0.9770508,1.0,-0.2053375,0.05656433,0.9770508,-29.61868,7.621719000000001,-31.63333,3.510559,0.4684010999999999,0.3494286,1.0,0.1083527,0.05929565,0.9923401,34.46503,6.508957,-34.60951,3.166931,0.4226718,0.3985039999999999,-0.266574,1.313101,-0.003568888,-0.01355358,0.6821406,-0.01576463,6.894033,-3.995667,34.37
3,-0.2053375,0.05656433,0.9770508,1.0,-0.2053375,0.05656433,0.9770508,-29.61868,7.621719000000001,-31.63333,3.510559,0.4684010999999999,0.3494286,1.0,0.1083527,0.05929565,0.9923401,34.46503,6.508957,-34.60951,3.166931,0.4226718,0.3985039999999999,-0.266574,1.313101,-0.003568888,-0.01355358,0.6821406,-0.01576463,6.894033,-3.995667,34.37
3,-0.2053375,0.05656433,0.9770508,1.0,-0.2053375,0.05656433,0.9770508,-29.61868,7.621719000000001,-31.63333,3.510559,0.4684010999999999,0.3494286,1.0,0.1083527,0.05929565,0.9923401,34.46503,6.508957,-34.60951,3.166931,0.4226718,0.3985039999999999,-0.266574,1.313101,-0.003568888,-0.01355358,0.6821406,-0.01576463,6.894033,-3.995667,34.37
3,-0.2048797999999999,0.05697632,0.9771118,1.0,-0.2048797999999999,0.05697632,0.9771118,-29.62636,7.621719000000001,-31.63098,3.531998,0.4686174,0.3493697,1.0,0.110733,0.07949829,0.9906616,34.46315,6.219833,-33.66357,3.18515,0.4231451,0.3985039999999999,-0.2666825999999999,1.312984,-0.003681064,-0.01324751,0.6825629,-0.01571374,6.894033,-3.995667,34.37
3,-0.2048797999999999,0.05697632,0.9771118,1.0,-0.2048797999999999,0.05697632,0.9771118,-29.62636,7.621719000000001,-31.63098,3.531998,0.4686174,0.3493697,1.0,0.110733,0.07949829,0.9906616,34.46315,6.219833,-33.66357,3.18515,0.4231451,0.3985039999999999,-0.2666825999999999,1.312984,-0.003681064,-0.01324751,0.6825629,-0.01571374,6.894033,-3.995667,34.37
3,-0.2048797999999999,0.05697632,0.9771118,1.0,-0.2048797999999999,0.05697632,0.9771118,-29.62636,7.621719000000001,-31.63098,3.531998,0.4686174,0.3493697,1.0,0.110733,0.07949829,0.9906616,34.46315,6.219833,-33.66357,3.18515,0.4231451,0.3985039999999999,-0.2666825999999999,1.312984,-0.003681064,-0.01324751,0.6825629,-0.01571374,6.894033,-3.995667,34.37
4,-0.2077637,0.05819702,0.9764404,1.0,-0.2078704999999999,0.05818176,0.9764099,-29.63512,7.619675,-31.618740000000003,3.512436,0.469292,0.3492015,1.0,0.1097107,0.08143616,0.9906158000000002,34.45647,6.2173,-33.64513,3.181168,0.4235287,0.3982062,-0.2667251,1.312964,-0.003455162,-0.01367262,0.6833614,-0.01624344,6.894033,-3.995667,34.37
4,-0.2077637,0.05819702,0.9764404,1.0,-0.2078704999999999,0.05818176,0.9764099,-29.63512,7.619675,-31.618740000000003,3.512436,0.469292,0.3492015,1.0,0.1097107,0.08143616,0.9906158000000002,34.45647,6.2173,-33.64513,3.181168,0.4235287,0.3982062,-0.2667251,1.312964,-0.003455162,-0.01367262,0.6833614,-0.01624344,6.894033,-3.995667,34.37
4,-0.2077637,0.05819702,0.9764404,1.0,-0.2078704999999999,0.05818176,0.9764099,-29.63512,7.619675,-31.618740000000003,3.512436,0.469292,0.3492015,1.0,0.1097107,0.08143616,0.9906158000000002,34.45647,6.2173,-33.64513,3.181168,0.4235287,0.3982062,-0.2667251,1.312964,-0.003455162,-0.01367262,0.6833614,-0.01624344,6.894033,-3.995667,34.37
4,-0.01791382,0.07298279,0.9971619,1.0,-0.2119141,0.05830383,0.9755402,-29.64005,7.619675,-31.61552,3.515594,0.4699683,0.3491893,1.0,0.1098021999999999,0.08111572,0.9906311,34.45508,6.2173,-33.6416,3.169556,0.4235779999999999,0.3982062,-0.2668412,1.313022,-0.003076673,-0.01399829,0.6841858000000001,-0.01685007,6.894033,-3.995667,34.37
4,-0.01791382,0.07298279,0.9971619,1.0,-0.2119141,0.05830383,0.9755402,-29.64005,7.619675,-31.61552,3.515594,0.4699683,0.3491893,1.0,0.1098021999999999,0.08111572,0.9906311,34.45508,6.2173,-33.6416,3.169556,0.4235779999999999,0.3982062,-0.2668412,1.313022,-0.003076673,-0.01399829,0.6841858000000001,-0.01685007,6.894033,-3.995667,34.37
4,-0.01791382,0.07298279,0.9971619,1.0,-0.2119141,0.05830383,0.9755402,-29.64005,7.619675,-31.61552,3.515594,0.4699683,0.3491893,1.0,0.1098021999999999,0.08111572,0.9906311,34.45508,6.2173,-33.6416,3.169556,0.4235779999999999,0.3982062,-0.2668412,1.313022,-0.003076673,-0.01399829,0.6841858000000001,-0.01685007,6.894033,-3.995667,34.37
4,-0.01791382,0.07298279,0.9971619,1.0,-0.2119141,0.05830383,0.9755402,-29.64005,7.619675,-31.61552,3.515594,0.4699683,0.3491893,1.0,0.1098021999999999,0.08111572,0.9906311,34.45508,6.2173,-33.6416,3.169556,0.4235779999999999,0.3982062,-0.2671418,1.312991,-0.002761245,-0.01466035,0.6855465999999999,-0.01768485,6.894033,-9.245941,34.37
4,-0.01791382,0.07298279,0.9971619,1.0,-0.2119141,0.05830383,0.9755402,-29.64005,7.619675,-31.61552,3.515594,0.4699683,0.3491893,1.0,0.1098021999999999,0.08111572,0.9906311,34.45508,6.2173,-33.6416,3.169556,0.4235779999999999,0.3982062,-0.2671418,1.312991,-0.002761245,-0.01466035,0.6855465999999999,-0.01768485,6.894033,-9.245941,34.37
4,-0.01791382,0.07298279,0.9971619,1.0,-0.2119141,0.05830383,0.9755402,-29.64005,7.619675,-31.61552,3.515594,0.4699683,0.3491893,1.0,0.1098021999999999,0.08111572,0.9906311,34.45508,6.2173,-33.6416,3.169556,0.4235779999999999,0.3982062,-0.2671418,1.312991,-0.002761245,-0.01466035,0.6855465999999999,-0.01768485,6.894033,-9.245941,34.37
4,-0.02056885,0.0791626,0.9966431,1.0,-0.2075042999999999,0.06974792,0.9757385,-29.68173,7.582443,-31.640320000000003,3.468735,0.4708773,0.3492663,1.0,0.1047516,0.08389282,0.9909515,34.444759999999995,6.2173,-33.6172,3.187668,0.4245808,0.3976913,-0.2677994,1.312999,-0.002120256,-0.01604317,0.6876032,-0.01881282,6.894033,-9.245941,34.37
4,-0.02056885,0.0791626,0.9966431,1.0,-0.2075042999999999,0.06974792,0.9757385,-29.68173,7.582443,-31.640320000000003,3.468735,0.4708773,0.3492663,1.0,0.1047516,0.08389282,0.9909515,34.444759999999995,6.2173,-33.6172,3.187668,0.4245808,0.3976913,-0.2677994,1.312999,-0.002120256,-0.01604317,0.6876032,-0.01881282,6.894033,-9.245941,34.37
