Second,eye_comb_direction_x,eye_comb_direction_y,eye_comb_direction_z,eye_r_openness,eye_r_direction_x,eye_r_direction_y,eye_r_direction_z,eye_r_origin_x,eye_r_origin_y,eye_r_origin_z,eye_r_pupil_diameter,eye_r_pupil_position_x,eye_r_pupil_position_y,eye_l_openness,eye_l_direction_x,eye_l_direction_y,eye_l_direction_z,eye_l_origin_x,eye_l_origin_y,eye_l_origin_z,eye_l_pupil_diameter,eye_l_pupil_position_x,eye_l_pupil_position_y,head_position_x,head_position_y,head_position_z,head_rotation_roll,head_rotation_pitch,head_rotation_yaw,EDA,BVP,TMP
0,-0.02532959,-0.0355835,0.9990386999999998,0.9378352,0.0,0.0,0.0,-32.32611,5.879074,-27.7756,-1.0,0.5908865,0.4342577999999999,0.8927729999999999,-0.02532959,-0.0355835,0.9990386999999998,34.9895,3.398056,-33.79823,3.686371,0.4199744000000001,0.5134704999999999,-0.5637317,1.07065,-0.3918346,0.04056107,0.6640205,-0.1228553,0.5794635,0.3778974649416139,35.28788481953291
0,-0.02532959,-0.0355835,0.9990386999999998,0.9378352,0.0,0.0,0.0,-32.32611,5.879074,-27.7756,-1.0,0.5908865,0.4342577999999999,0.8927729999999999,-0.02532959,-0.0355835,0.9990386999999998,34.9895,3.398056,-33.79823,3.686371,0.4199744000000001,0.5134704999999999,-0.5637317,1.07065,-0.3918346,0.04056107,0.6640205,-0.1228553,0.5794635,0.3778974649416139,35.28788481953291
0,-0.02532959,-0.0355835,0.9990386999999998,0.9378352,0.0,0.0,0.0,-32.32611,5.879074,-27.7756,-1.0,0.5908865,0.4342577999999999,0.8927729999999999,-0.02532959,-0.0355835,0.9990386999999998,34.9895,3.398056,-33.79823,3.686371,0.4199744000000001,0.5134704999999999,-0.5637317,1.07065,-0.3918346,0.04056107,0.6640205,-0.1228553,0.5794635,0.3778974649416139,35.28788481953291
0,-0.01196289,-0.03263855,0.9993896,0.9443237,0.0,0.0,0.0,-23.59163,2.901703,-26.55203,-1.0,0.5867522,0.4325372999999999,0.8814161,-0.01196289,-0.03263855,0.9993896,35.01588,3.370514,-33.800990000000006,3.649338,0.4174362,0.5139983,-0.5625051999999999,1.071203,-0.3948012,0.04004381,0.6763594,-0.1217178,0.5794635,0.3778974649416139,35.33
0,-0.01196289,-0.03263855,0.9993896,0.9443237,0.0,0.0,0.0,-23.59163,2.901703,-26.55203,-1.0,0.5867522,0.4325372999999999,0.8814161,-0.01196289,-0.03263855,0.9993896,35.01588,3.370514,-33.800990000000006,3.649338,0.4174362,0.5139983,-0.5625051999999999,1.071203,-0.3948012,0.04004381,0.6763594,-0.1217178,0.5794635,0.3778974649416139,35.33
0,-0.01196289,-0.03263855,0.9993896,0.9443237,0.0,0.0,0.0,-23.59163,2.901703,-26.55203,-1.0,0.5867522,0.4325372999999999,0.8814161,-0.01196289,-0.03263855,0.9993896,35.01588,3.370514,-33.800990000000006,3.649338,0.4174362,0.5139983,-0.5625051999999999,1.071203,-0.3948012,0.04004381,0.6763594,-0.1217178,0.5794635,0.3778974649416139,35.33
0,0.02656555,0.04518127,0.9986115,0.9443237,0.0,0.0,0.0,-32.78014,5.890518,-28.3022,-1.0,0.5742589,0.4258376,0.8814161,0.02656555,0.04518127,0.9986115,35.27515,3.543533,-34.16098,3.50267,0.4034940999999999,0.5011323000000001,-0.5618781999999999,1.072003,-0.3962047999999999,0.03758577,0.6825004,-0.1203363,0.5794635,-8.82592,35.33
0,0.02656555,0.04518127,0.9986115,0.9443237,0.0,0.0,0.0,-32.78014,5.890518,-28.3022,-1.0,0.5742589,0.4258376,0.8814161,0.02656555,0.04518127,0.9986115,35.27515,3.543533,-34.16098,3.50267,0.4034940999999999,0.5011323000000001,-0.5618781999999999,1.072003,-0.3962047999999999,0.03758577,0.6825004,-0.1203363,0.5794635,-8.82592,35.33
0,0.02656555,0.04518127,0.9986115,0.9443237,0.0,0.0,0.0,-32.78014,5.890518,-28.3022,-1.0,0.5742589,0.4258376,0.8814161,0.02656555,0.04518127,0.9986115,35.27515,3.543533,-34.16098,3.50267,0.4034940999999999,0.5011323000000001,-0.5618781999999999,1.072003,-0.3962047999999999,0.03758577,0.6825004,-0.1203363,0.5794635,-8.82592,35.33
0,0.02656555,0.04518127,0.9986115,0.9566879,0.0,0.0,0.0,-32.78014,5.890518,-28.3022,-1.0,0.5742589,0.4258376,0.8670325000000001,0.02656555,0.04518127,0.9986115,35.27515,3.543533,-34.16098,3.50267,0.4034940999999999,0.5011323000000001,-0.5611629,1.073041,-0.3973645999999999,0.03451332,0.6881868,-0.1192623,0.5794635,-8.82592,35.33
0,0.02656555,0.04518127,0.9986115,0.9566879,0.0,0.0,0.0,-32.78014,5.890518,-28.3022,-1.0,0.5742589,0.4258376,0.8670325000000001,0.02656555,0.04518127,0.9986115,35.27515,3.543533,-34.16098,3.50267,0.4034940999999999,0.5011323000000001,-0.5611629,1.073041,-0.3973645999999999,0.03451332,0.6881868,-0.1192623,0.5794635,-8.82592,35.33
0,0.02656555,0.04518127,0.9986115,0.9566879,0.0,0.0,0.0,-32.78014,5.890518,-28.3022,-1.0,0.5742589,0.4258376,0.8670325000000001,0.02656555,0.04518127,0.9986115,35.27515,3.543533,-34.16098,3.50267,0.4034940999999999,0.5011323000000001,-0.5611629,1.073041,-0.3973645999999999,0.03451332,0.6881868,-0.1192623,0.5794635,-8.82592,35.33
0,0.02656555,0.04518127,0.9986115,0.9566879,0.0,0.0,0.0,-32.78014,5.890518,-28.3022,-1.0,0.5742589,0.4258376,0.8670325000000001,0.02656555,0.04518127,0.9986115,35.27515,3.543533,-34.16098,3.50267,0.4034940999999999,0.5011323000000001,-0.5607269,1.07384,-0.3985000999999999,0.0321958,0.6931844,-0.1179938,0.5794635,-8.82592,35.33
0,0.02656555,0.04518127,0.9986115,0.9566879,0.0,0.0,0.0,-32.78014,5.890518,-28.3022,-1.0,0.5742589,0.4258376,0.8670325000000001,0.02656555,0.04518127,0.9986115,35.27515,3.543533,-34.16098,3.50267,0.4034940999999999,0.5011323000000001,-0.5607269,1.07384,-0.3985000999999999,0.0321958,0.6931844,-0.1179938,0.5794635,-8.82592,35.33
0,0.02656555,0.04518127,0.9986115,0.9566879,0.0,0.0,0.0,-32.78014,5.890518,-28.3022,-1.0,0.5742589,0.4258376,0.8670325000000001,0.02656555,0.04518127,0.9986115,35.27515,3.543533,-34.16098,3.50267,0.4034940999999999,0.5011323000000001,-0.5607269,1.07384,-0.3985000999999999,0.0321958,0.6931844,-0.1179938,0.5794635,-8.82592,35.33
0,0.02656555,0.04518127,0.9986115,0.9566879,0.0,0.0,0.0,-32.78014,5.890518,-28.3022,-1.0,0.5742589,0.4258376,0.8670325000000001,0.02656555,0.04518127,0.9986115,35.27515,3.543533,-34.16098,3.50267,0.4034940999999999,0.5011323000000001,-0.5602235999999999,1.074712,-0.3999037,0.0305421,0.6986334,-0.1156367,0.5794635,-8.82592,35.33
0,0.02656555,0.04518127,0.9986115,0.9566879,0.0,0.0,0.0,-32.78014,5.890518,-28.3022,-1.0,0.5742589,0.4258376,0.8670325000000001,0.02656555,0.04518127,0.9986115,35.27515,3.543533,-34.16098,3.50267,0.4034940999999999,0.5011323000000001,-0.5602235999999999,1.074712,-0.3999037,0.0305421,0.6986334,-0.1156367,0.5794635,-8.82592,35.33
0,0.02656555,0.04518127,0.9986115,0.9566879,0.0,0.0,0.0,-32.78014,5.890518,-28.3022,-1.0,0.5742589,0.4258376,0.8670325000000001,0.02656555,0.04518127,0.9986115,35.27515,3.543533,-34.16098,3.50267,0.4034940999999999,0.5011323000000001,-0.5602235999999999,1.074712,-0.3999037,0.0305421,0.6986334,-0.1156367,0.5794635,-8.82592,35.33
0,0.04069519,0.04037476,0.9983521,0.9566879,0.0,0.0,0.0,-32.78014,5.890518,-28.3022,-1.0,0.5738083,0.4248849,0.8670325000000001,0.04069519,0.04037476,0.9983521,35.25626,3.666,-34.4781,3.4276120000000003,0.4022007,0.5001523,-0.5595298000000001,1.075689,-0.4009607,0.02893942,0.7027481,-0.1137285,0.5794635,-8.82592,35.33
0,0.04069519,0.04037476,0.9983521,0.9566879,0.0,0.0,0.0,-32.78014,5.890518,-28.3022,-1.0,0.5738083,0.4248849,0.8670325000000001,0.04069519,0.04037476,0.9983521,35.25626,3.666,-34.4781,3.4276120000000003,0.4022007,0.5001523,-0.5595298000000001,1.075689,-0.4009607,0.02893942,0.7027481,-0.1137285,0.5794635,-8.82592,35.33
0,0.04069519,0.04037476,0.9983521,0.9566879,0.0,0.0,0.0,-32.78014,5.890518,-28.3022,-1.0,0.5738083,0.4248849,0.8670325000000001,0.04069519,0.04037476,0.9983521,35.25626,3.666,-34.4781,3.4276120000000003,0.4022007,0.5001523,-0.5595298000000001,1.075689,-0.4009607,0.02893942,0.7027481,-0.1137285,0.5794635,-8.82592,35.33
1,0.04069519,0.04037476,0.9983521,0.9566879,0.0,0.0,0.0,-32.78014,5.890518,-28.3022,-1.0,0.5738083,0.4248849,0.8670325000000001,0.04069519,0.04037476,0.9983521,35.25626,3.666,-34.4781,3.4276120000000003,0.4022007,0.5001523,-0.5589955,1.076152,-0.4018434,0.02627207,0.7061995,-0.1122872,0.5794635,-8.82592,35.33
1,0.04069519,0.04037476,0.9983521,0.9566879,0.0,0.0,0.0,-32.78014,5.890518,-28.3022,-1.0,0.5738083,0.4248849,0.8670325000000001,0.04069519,0.04037476,0.9983521,35.25626,3.666,-34.4781,3.4276120000000003,0.4022007,0.5001523,-0.5589955,1.076152,-0.4018434,0.02627207,0.7061995,-0.1122872,0.5794635,-8.82592,35.33
1,0.04069519,0.04037476,0.9983521,0.9566879,0.0,0.0,0.0,-32.78014,5.890518,-28.3022,-1.0,0.5738083,0.4248849,0.8670325000000001,0.04069519,0.04037476,0.9983521,35.25626,3.666,-34.4781,3.4276120000000003,0.4022007,0.5001523,-0.5589955,1.076152,-0.4018434,0.02627207,0.7061995,-0.1122872,0.5794635,-8.82592,35.33
1,-0.003265381,-0.006759644,0.9999695,0.9566879,0.0,0.0,0.0,-23.19035,1.853195,-29.54018,-1.0,0.5570121,0.4342125,0.8670325000000001,-0.003265381,-0.006759644,0.9999695,35.62766,3.064926,-33.355,3.248291,0.3956370999999999,0.5168202999999999,-0.5580494,1.076589,-0.4023276,0.02432341,0.7082202,-0.1116341,0.5794635,-8.82592,35.33
1,-0.003265381,-0.006759644,0.9999695,0.9566879,0.0,0.0,0.0,-23.19035,1.853195,-29.54018,-1.0,0.5570121,0.4342125,0.8670325000000001,-0.003265381,-0.006759644,0.9999695,35.62766,3.064926,-33.355,3.248291,0.3956370999999999,0.5168202999999999,-0.5580494,1.076589,-0.4023276,0.02432341,0.7082202,-0.1116341,0.5794635,-8.82592,35.33
1,-0.003265381,-0.006759644,0.9999695,0.9566879,0.0,0.0,0.0,-23.19035,1.853195,-29.54018,-1.0,0.5570121,0.4342125,0.8670325000000001,-0.003265381,-0.006759644,0.9999695,35.62766,3.064926,-33.355,3.248291,0.3956370999999999,0.5168202999999999,-0.5580494,1.076589,-0.4023276,0.02432341,0.7082202,-0.1116341,0.5794635,-8.82592,35.33
1,0.09446716,-0.1123351999999999,0.9891663,0.946051,0.0,0.0,0.0,-25.89911,2.315796,-28.08716,-1.0,0.5476489999999999,0.4373218,0.8421738000000001,0.09446716,-0.1123351999999999,0.9891663,35.869890000000005,2.7381900000000003,-32.16064,3.629456,0.3756743,0.5305979999999999,-0.5575711999999999,1.076782,-0.4025767,0.02402212,0.7089488,-0.1118803999999999,0.5794635,-3.511909,35.33
1,0.09446716,-0.1123351999999999,0.9891663,0.946051,0.0,0.0,0.0,-25.89911,2.315796,-28.08716,-1.0,0.5476489999999999,0.4373218,0.8421738000000001,0.09446716,-0.1123351999999999,0.9891663,35.869890000000005,2.7381900000000003,-32.16064,3.629456,0.3756743,0.5305979999999999,-0.5575711999999999,1.076782,-0.4025767,0.02402212,0.7089488,-0.1118803999999999,0.5794635,-3.511909,35.33
1,0.09446716,-0.1123351999999999,0.9891663,0.946051,0.0,0.0,0.0,-25.89911,2.315796,-28.08716,-1.0,0.5476489999999999,0.4373218,0.8421738000000001,0.09446716,-0.1123351999999999,0.9891663,35.869890000000005,2.7381900000000003,-32.16064,3.629456,0.3756743,0.5305979999999999,-0.5575711999999999,1.076782,-0.4025767,0.02402212,0.7089488,-0.1118803999999999,0.5794635,-3.511909,35.33
1,0.09277344,-0.108078,0.9897919,0.9389169,0.0,0.0,0.0,-28.303590000000003,4.982451999999999,-27.38583,-1.0,0.5463916999999999,0.4384682,0.8560883,0.09277344,-0.108078,0.9897919,35.87585,2.722748,-32.16064,3.630432,0.3756743,0.5305979999999999,-0.5568755,1.077456,-0.4027179999999999,0.02396732,0.7093043000000001,-0.1115666,0.5794635,-3.511909,35.33
1,0.09277344,-0.108078,0.9897919,0.9389169,0.0,0.0,0.0,-28.303590000000003,4.982451999999999,-27.38583,-1.0,0.5463916999999999,0.4384682,0.8560883,0.09277344,-0.108078,0.9897919,35.87585,2.722748,-32.16064,3.630432,0.3756743,0.5305979999999999,-0.5568755,1.077456,-0.4027179999999999,0.02396732,0.7093043000000001,-0.1115666,0.5794635,-3.511909,35.33
1,0.09277344,-0.108078,0.9897919,0.9389169,0.0,0.0,0.0,-28.303590000000003,4.982451999999999,-27.38583,-1.0,0.5463916999999999,0.4384682,0.8560883,0.09277344,-0.108078,0.9897919,35.87585,2.722748,-32.16064,3.630432,0.3756743,0.5305979999999999,-0.5568755,1.077456,-0.4027179999999999,0.02396732,0.7093043000000001,-0.1115666,0.5794635,-3.511909,35.33
1,0.09277344,-0.108078,0.9897919,0.9389169,0.0,0.0,0.0,-28.303590000000003,4.982451999999999,-27.38583,-1.0,0.5463916999999999,0.4384682,0.8560883,0.09277344,-0.108078,0.9897919,35.87585,2.722748,-32.16064,3.630432,0.3756743,0.5305979999999999,-0.5561819,1.078176,-0.4025882999999999,0.02376251,0.7083566,-0.1102368,0.5794635,-3.511909,35.33
1,0.09277344,-0.108078,0.9897919,0.9389169,0.0,0.0,0.0,-28.303590000000003,4.982451999999999,-27.38583,-1.0,0.5463916999999999,0.4384682,0.8560883,0.09277344,-0.108078,0.9897919,35.87585,2.722748,-32.16064,3.630432,0.3756743,0.5305979999999999,-0.5561819,1.078176,-0.4025882999999999,0.02376251,0.7083566,-0.1102368,0.5794635,-3.511909,35.33
1,0.09277344,-0.108078,0.9897919,0.9389169,0.0,0.0,0.0,-28.303590000000003,4.982451999999999,-27.38583,-1.0,0.5463916999999999,0.4384682,0.8560883,0.09277344,-0.108078,0.9897919,35.87585,2.722748,-32.16064,3.630432,0.3756743,0.5305979999999999,-0.5561819,1.078176,-0.4025882999999999,0.02376251,0.7083566,-0.1102368,0.5794635,-3.511909,35.33
1,0.09375,-0.1307526,0.986969,0.9291984,0.0,0.0,0.0,-27.52963,4.760788,-27.50903,-1.0,0.5458196999999999,0.4410431999999999,0.8579853000000001,0.09375,-0.1307526,0.986969,35.88089,2.722946,-32.17728,3.684494,0.3752579,0.5336213000000001,-0.5558267,1.078615,-0.4023792,0.02346482,0.7063891999999999,-0.109552,0.5794635,-3.511909,35.33
1,0.09375,-0.1307526,0.986969,0.9291984,0.0,0.0,0.0,-27.52963,4.760788,-27.50903,-1.0,0.5458196999999999,0.4410431999999999,0.8579853000000001,0.09375,-0.1307526,0.986969,35.88089,2.722946,-32.17728,3.684494,0.3752579,0.5336213000000001,-0.5558267,1.078615,-0.4023792,0.02346482,0.7063891999999999,-0.109552,0.5794635,-3.511909,35.33
1,0.09375,-0.1307526,0.986969,0.9291984,0.0,0.0,0.0,-27.52963,4.760788,-27.50903,-1.0,0.5458196999999999,0.4410431999999999,0.8579853000000001,0.09375,-0.1307526,0.986969,35.88089,2.722946,-32.17728,3.684494,0.3752579,0.5336213000000001,-0.5558267,1.078615,-0.4023792,0.02346482,0.7063891999999999,-0.109552,0.5794635,-3.511909,35.33
1,0.09375,-0.1307526,0.986969,0.9291984,0.0,0.0,0.0,-27.52963,4.760788,-27.50903,-1.0,0.5458196999999999,0.4410431999999999,0.8579853000000001,0.09375,-0.1307526,0.986969,35.88089,2.722946,-32.17728,3.684494,0.3752579,0.5336213000000001,-0.5554993,1.078898,-0.4020887999999999,0.02262635,0.7047894,-0.1096051,0.5794635,-3.511909,35.33
1,0.09375,-0.1307526,0.986969,0.9291984,0.0,0.0,0.0,-27.52963,4.760788,-27.50903,-1.0,0.5458196999999999,0.4410431999999999,0.8579853000000001,0.09375,-0.1307526,0.986969,35.88089,2.722946,-32.17728,3.684494,0.3752579,0.5336213000000001,-0.5554993,1.078898,-0.4020887999999999,0.02262635,0.7047894,-0.1096051,0.5794635,-3.511909,35.33
1,0.09375,-0.1307526,0.986969,0.9291984,0.0,0.0,0.0,-27.52963,4.760788,-27.50903,-1.0,0.5458196999999999,0.4410431999999999,0.8579853000000001,0.09375,-0.1307526,0.986969,35.88089,2.722946,-32.17728,3.684494,0.3752579,0.5336213000000001,-0.5554993,1.078898,-0.4020887999999999,0.02262635,0.7047894,-0.1096051,0.5794635,-3.511909,35.33
1,0.1190796,-0.162262,0.9795227,0.9340512,0.0,0.0,0.0,-25.90334,2.194641,-28.07346,-1.0,0.5429392,0.438515,0.8568549000000001,0.1190796,-0.162262,0.9795227,35.94447,2.6918330000000004,-32.01862,3.834518,0.3698803,0.5372666,-0.5548224,1.079536,-0.4013038,0.01995784,0.7014796,-0.1092682,0.5794635,-8.575005,35.33
1,0.1190796,-0.162262,0.9795227,0.9340512,0.0,0.0,0.0,-25.90334,2.194641,-28.07346,-1.0,0.5429392,0.438515,0.8568549000000001,0.1190796,-0.162262,0.9795227,35.94447,2.6918330000000004,-32.01862,3.834518,0.3698803,0.5372666,-0.5548224,1.079536,-0.4013038,0.01995784,0.7014796,-0.1092682,0.5794635,-8.575005,35.33
1,0.1190796,-0.162262,0.9795227,0.9340512,0.0,0.0,0.0,-25.90334,2.194641,-28.07346,-1.0,0.5429392,0.438515,0.8568549000000001,0.1190796,-0.162262,0.9795227,35.94447,2.6918330000000004,-32.01862,3.834518,0.3698803,0.5372666,-0.5548224,1.079536,-0.4013038,0.01995784,0.7014796,-0.1092682,0.5794635,-8.575005,35.33
1,0.1190796,-0.162262,0.9795227,0.9340512,0.0,0.0,0.0,-25.90334,2.194641,-28.07346,-1.0,0.5429392,0.438515,0.8568549000000001,0.1190796,-0.162262,0.9795227,35.94447,2.6918330000000004,-32.01862,3.834518,0.3698803,0.5372666,-0.5545492,1.080172,-0.4002493,0.01756668,0.6963924,-0.1088166999999999,0.5794635,-8.575005,35.33
1,0.1190796,-0.162262,0.9795227,0.9340512,0.0,0.0,0.0,-25.90334,2.194641,-28.07346,-1.0,0.5429392,0.438515,0.8568549000000001,0.1190796,-0.162262,0.9795227,35.94447,2.6918330000000004,-32.01862,3.834518,0.3698803,0.5372666,-0.5545492,1.080172,-0.4002493,0.01756668,0.6963924,-0.1088166999999999,0.5794635,-8.575005,35.33
1,0.1190796,-0.162262,0.9795227,0.9340512,0.0,0.0,0.0,-25.90334,2.194641,-28.07346,-1.0,0.5429392,0.438515,0.8568549000000001,0.1190796,-0.162262,0.9795227,35.94447,2.6918330000000004,-32.01862,3.834518,0.3698803,0.5372666,-0.5545492,1.080172,-0.4002493,0.01756668,0.6963924,-0.1088166999999999,0.5794635,-8.575005,35.33
1,0.1190796,-0.162262,0.9795227,0.9340512,0.0,0.0,0.0,-25.90334,2.194641,-28.07346,-1.0,0.5429392,0.438515,0.8568549000000001,0.1190796,-0.162262,0.9795227,35.94447,2.6918330000000004,-32.01862,3.834518,0.3698803,0.5372666,-0.5546854,1.080847,-0.3986779,0.01624751,0.6894028,-0.1083795,0.5794635,-8.575005,35.33
1,0.1190796,-0.162262,0.9795227,0.9340512,0.0,0.0,0.0,-25.90334,2.194641,-28.07346,-1.0,0.5429392,0.438515,0.8568549000000001,0.1190796,-0.162262,0.9795227,35.94447,2.6918330000000004,-32.01862,3.834518,0.3698803,0.5372666,-0.5546854,1.080847,-0.3986779,0.01624751,0.6894028,-0.1083795,0.5794635,-8.575005,35.33
1,0.1190796,-0.162262,0.9795227,0.9340512,0.0,0.0,0.0,-25.90334,2.194641,-28.07346,-1.0,0.5429392,0.438515,0.8568549000000001,0.1190796,-0.162262,0.9795227,35.94447,2.6918330000000004,-32.01862,3.834518,0.3698803,0.5372666,-0.5546854,1.080847,-0.3986779,0.01624751,0.6894028,-0.1083795,0.5794635,-8.575005,35.33
1,0.1190796,-0.162262,0.9795227,0.9340512,0.0,0.0,0.0,-25.90334,2.194641,-28.07346,-1.0,0.5429392,0.438515,0.8568549000000001,0.1190796,-0.162262,0.9795227,35.94447,2.6918330000000004,-32.01862,3.834518,0.3698803,0.5372666,-0.5549026,1.081425,-0.3972585999999999,0.01493479,0.6836488000000001,-0.1076321,0.5794635,-8.575005,35.33
1,0.1190796,-0.162262,0.9795227,0.9340512,0.0,0.0,0.0,-25.90334,2.194641,-28.07346,-1.0,0.5429392,0.438515,0.8568549000000001,0.1190796,-0.162262,0.9795227,35.94447,2.6918330000000004,-32.01862,3.834518,0.3698803,0.5372666,-0.5549026,1.081425,-0.3972585999999999,0.01493479,0.6836488000000001,-0.1076321,0.5794635,-8.575005,35.33
1,0.1190796,-0.162262,0.9795227,0.9340512,0.0,0.0,0.0,-25.90334,2.194641,-28.07346,-1.0,0.5429392,0.438515,0.8568549000000001,0.1190796,-0.162262,0.9795227,35.94447,2.6918330000000004,-32.01862,3.834518,0.3698803,0.5372666,-0.5549026,1.081425,-0.3972585999999999,0.01493479,0.6836488000000001,-0.1076321,0.5794635,-8.575005,35.33
1,0.0124054,-0.2136992999999999,0.9768066,0.8521904,0.0,0.0,0.0,-24.71049,1.343018,-28.19872,-1.0,0.5716454000000001,0.4459301999999999,0.8656925,0.0124054,-0.2136992999999999,0.9768066,35.51776,2.738876,-32.30803,3.767822,0.3975604,0.5451033000000001,-0.5554855,1.082402,-0.3948839,0.01230036,0.6739354000000001,-0.1066196,0.5794635,-8.575005,35.33
1,0.0124054,-0.2136992999999999,0.9768066,0.8521904,0.0,0.0,0.0,-24.71049,1.343018,-28.19872,-1.0,0.5716454000000001,0.4459301999999999,0.8656925,0.0124054,-0.2136992999999999,0.9768066,35.51776,2.738876,-32.30803,3.767822,0.3975604,0.5451033000000001,-0.5554855,1.082402,-0.3948839,0.01230036,0.6739354000000001,-0.1066196,0.5794635,-8.575005,35.33
1,0.0124054,-0.2136992999999999,0.9768066,0.8521904,0.0,0.0,0.0,-24.71049,1.343018,-28.19872,-1.0,0.5716454000000001,0.4459301999999999,0.8656925,0.0124054,-0.2136992999999999,0.9768066,35.51776,2.738876,-32.30803,3.767822,0.3975604,0.5451033000000001,-0.5554855,1.082402,-0.3948839,0.01230036,0.6739354000000001,-0.1066196,0.5794635,-8.575005,35.33
1,-0.05438232,-0.2325592,0.9710541,0.8384536,0.0,0.0,0.0,-23.55699,0.2770690999999999,-27.05157,-1.0,0.5792519,0.4553479,0.8653139999999999,-0.05438232,-0.2325592,0.9710541,35.15617,2.796829,-33.02194,3.732468,0.4177719,0.5525441999999999,-0.5564058000000001,1.083351,-0.392215,0.01027242,0.663146,-0.1053693,0.5794635,-8.575005,35.33
1,-0.05438232,-0.2325592,0.9710541,0.8384536,0.0,0.0,0.0,-23.55699,0.2770690999999999,-27.05157,-1.0,0.5792519,0.4553479,0.8653139999999999,-0.05438232,-0.2325592,0.9710541,35.15617,2.796829,-33.02194,3.732468,0.4177719,0.5525441999999999,-0.5564058000000001,1.083351,-0.392215,0.01027242,0.663146,-0.1053693,0.5794635,-8.575005,35.33
1,-0.05438232,-0.2325592,0.9710541,0.8384536,0.0,0.0,0.0,-23.55699,0.2770690999999999,-27.05157,-1.0,0.5792519,0.4553479,0.8653139999999999,-0.05438232,-0.2325592,0.9710541,35.15617,2.796829,-33.02194,3.732468,0.4177719,0.5525441999999999,-0.5564058000000001,1.083351,-0.392215,0.01027242,0.663146,-0.1053693,0.5794635,-8.575005,35.33
1,-0.1004333,-0.2456665,0.9641266,0.8249905000000001,0.0,0.0,0.0,-29.93806,6.564316000000001,-27.395540000000004,-1.0,0.583647,0.4564145999999999,0.8880231,-0.1004333,-0.2456665,0.9641266,35.11732,2.800293,-33.04234,3.634598,0.4248856,0.5546084,-0.5575333,1.084275,-0.3894146,0.008420198,0.6515894,-0.10321,0.5794635,3.458321,35.33
1,-0.1004333,-0.2456665,0.9641266,0.8249905000000001,0.0,0.0,0.0,-29.93806,6.564316000000001,-27.395540000000004,-1.0,0.583647,0.4564145999999999,0.8880231,-0.1004333,-0.2456665,0.9641266,35.11732,2.800293,-33.04234,3.634598,0.4248856,0.5546084,-0.5575333,1.084275,-0.3894146,0.008420198,0.6515894,-0.10321,0.5794635,3.458321,35.33
1,-0.1004333,-0.2456665,0.9641266,0.8249905000000001,0.0,0.0,0.0,-29.93806,6.564316000000001,-27.395540000000004,-1.0,0.583647,0.4564145999999999,0.8880231,-0.1004333,-0.2456665,0.9641266,35.11732,2.800293,-33.04234,3.634598,0.4248856,0.5546084,-0.5575333,1.084275,-0.3894146,0.008420198,0.6515894,-0.10321,0.5794635,3.458321,35.33
1,-0.1004333,-0.2456665,0.9641266,0.8249905000000001,0.0,0.0,0.0,-29.93806,6.564316000000001,-27.395540000000004,-1.0,0.583647,0.4564145999999999,0.8880231,-0.1004333,-0.2456665,0.9641266,35.11732,2.800293,-33.04234,3.634598,0.4248856,0.5546084,-0.5582533000000001,1.084993,-0.3875406,0.006865845,0.6441363,-0.1013091,0.5794635,3.458321,35.33
1,-0.1004333,-0.2456665,0.9641266,0.8249905000000001,0.0,0.0,0.0,-29.93806,6.564316000000001,-27.395540000000004,-1.0,0.583647,0.4564145999999999,0.8880231,-0.1004333,-0.2456665,0.9641266,35.11732,2.800293,-33.04234,3.634598,0.4248856,0.5546084,-0.5582533000000001,1.084993,-0.3875406,0.006865845,0.6441363,-0.1013091,0.5794635,3.458321,35.33
1,-0.1004333,-0.2456665,0.9641266,0.8249905000000001,0.0,0.0,0.0,-29.93806,6.564316000000001,-27.395540000000004,-1.0,0.583647,0.4564145999999999,0.8880231,-0.1004333,-0.2456665,0.9641266,35.11732,2.800293,-33.04234,3.634598,0.4248856,0.5546084,-0.5582533000000001,1.084993,-0.3875406,0.006865845,0.6441363,-0.1013091,0.5794635,3.458321,35.33
1,-0.1004333,-0.2456665,0.9641266,0.8249905000000001,0.0,0.0,0.0,-29.93806,6.564316000000001,-27.395540000000004,-1.0,0.583647,0.4564145999999999,0.8880231,-0.1004333,-0.2456665,0.9641266,35.11732,2.800293,-33.04234,3.634598,0.4248856,0.5546084,-0.5597346,1.0858370000000002,-0.3849764,0.005279453,0.6337284000000001,-0.09910887,0.5794635,3.458321,35.33
1,-0.1004333,-0.2456665,0.9641266,0.8249905000000001,0.0,0.0,0.0,-29.93806,6.564316000000001,-27.395540000000004,-1.0,0.583647,0.4564145999999999,0.8880231,-0.1004333,-0.2456665,0.9641266,35.11732,2.800293,-33.04234,3.634598,0.4248856,0.5546084,-0.5597346,1.0858370000000002,-0.3849764,0.005279453,0.6337284000000001,-0.09910887,0.5794635,3.458321,35.33
1,-0.1004333,-0.2456665,0.9641266,0.8249905000000001,0.0,0.0,0.0,-29.93806,6.564316000000001,-27.395540000000004,-1.0,0.583647,0.4564145999999999,0.8880231,-0.1004333,-0.2456665,0.9641266,35.11732,2.800293,-33.04234,3.634598,0.4248856,0.5546084,-0.5597346,1.0858370000000002,-0.3849764,0.005279453,0.6337284000000001,-0.09910887,0.5794635,3.458321,35.33
1,-0.1641693,-0.2804565,0.9457092,0.8082305000000001,0.0,0.0,0.0,-24.49521,-0.707901,-28.86423,-1.0,0.6118636,0.4612412,0.8939134,-0.1641693,-0.2804565,0.9457092,34.72861,2.843994,-33.09059,3.434875,0.4466324,0.5587888000000001,-0.561342,1.086197,-0.3825763,0.004447616,0.6241288,-0.0968765,0.5794635,3.458321,35.33
1,-0.1641693,-0.2804565,0.9457092,0.8082305000000001,0.0,0.0,0.0,-24.49521,-0.707901,-28.86423,-1.0,0.6118636,0.4612412,0.8939134,-0.1641693,-0.2804565,0.9457092,34.72861,2.843994,-33.09059,3.434875,0.4466324,0.5587888000000001,-0.561342,1.086197,-0.3825763,0.004447616,0.6241288,-0.0968765,0.5794635,3.458321,35.33
1,-0.1641693,-0.2804565,0.9457092,0.8082305000000001,0.0,0.0,0.0,-24.49521,-0.707901,-28.86423,-1.0,0.6118636,0.4612412,0.8939134,-0.1641693,-0.2804565,0.9457092,34.72861,2.843994,-33.09059,3.434875,0.4466324,0.5587888000000001,-0.561342,1.086197,-0.3825763,0.004447616,0.6241288,-0.0968765,0.5794635,3.458321,35.33
1,-0.1741027999999999,-0.2857208,0.9423523,0.7836916,0.0,0.0,0.0,-24.8067,-0.591095,-28.9072,-1.0,0.6147698,0.4663706,0.8962653,-0.1741027999999999,-0.2857208,0.9423523,34.69701,2.832748,-33.09137,3.42511,0.4489729,0.5600042,-0.5622079000000001,1.086544,-0.3808200999999999,0.003559977,0.6180939999999999,-0.09511521,0.5794635,3.458321,35.33
1,-0.1741027999999999,-0.2857208,0.9423523,0.7836916,0.0,0.0,0.0,-24.8067,-0.591095,-28.9072,-1.0,0.6147698,0.4663706,0.8962653,-0.1741027999999999,-0.2857208,0.9423523,34.69701,2.832748,-33.09137,3.42511,0.4489729,0.5600042,-0.5622079000000001,1.086544,-0.3808200999999999,0.003559977,0.6180939999999999,-0.09511521,0.5794635,3.458321,35.33
1,-0.1741027999999999,-0.2857208,0.9423523,0.7836916,0.0,0.0,0.0,-24.8067,-0.591095,-28.9072,-1.0,0.6147698,0.4663706,0.8962653,-0.1741027999999999,-0.2857208,0.9423523,34.69701,2.832748,-33.09137,3.42511,0.4489729,0.5600042,-0.5622079000000001,1.086544,-0.3808200999999999,0.003559977,0.6180939999999999,-0.09511521,0.5794635,3.458321,35.33
1,-0.1741027999999999,-0.2857208,0.9423523,0.7836916,0.0,0.0,0.0,-24.8067,-0.591095,-28.9072,-1.0,0.6147698,0.4663706,0.8962653,-0.1741027999999999,-0.2857208,0.9423523,34.69701,2.832748,-33.09137,3.42511,0.4489729,0.5600042,-0.5639682,1.086877,-0.3781547,0.003382912,0.6095114,-0.09168724,0.5794635,3.458321,35.33
1,-0.1741027999999999,-0.2857208,0.9423523,0.7836916,0.0,0.0,0.0,-24.8067,-0.591095,-28.9072,-1.0,0.6147698,0.4663706,0.8962653,-0.1741027999999999,-0.2857208,0.9423523,34.69701,2.832748,-33.09137,3.42511,0.4489729,0.5600042,-0.5639682,1.086877,-0.3781547,0.003382912,0.6095114,-0.09168724,0.5794635,3.458321,35.33
1,-0.1741027999999999,-0.2857208,0.9423523,0.7836916,0.0,0.0,0.0,-24.8067,-0.591095,-28.9072,-1.0,0.6147698,0.4663706,0.8962653,-0.1741027999999999,-0.2857208,0.9423523,34.69701,2.832748,-33.09137,3.42511,0.4489729,0.5600042,-0.5639682,1.086877,-0.3781547,0.003382912,0.6095114,-0.09168724,0.5794635,3.458321,35.33
1,-0.1864318999999999,-0.2915955,0.9381866,0.7836916,0.0,0.0,0.0,-24.8067,-0.591095,-28.9072,-1.0,0.6179338000000001,0.464868,0.8962653,-0.1864318999999999,-0.2915955,0.9381866,34.68158,2.829758,-33.09138,3.421005,0.4510325,0.5610417,-0.5656536,1.087132,-0.3752975999999999,0.004773246,0.6004491,-0.08671144,0.5794635,-10.91321,35.33
1,-0.1864318999999999,-0.2915955,0.9381866,0.7836916,0.0,0.0,0.0,-24.8067,-0.591095,-28.9072,-1.0,0.6179338000000001,0.464868,0.8962653,-0.1864318999999999,-0.2915955,0.9381866,34.68158,2.829758,-33.09138,3.421005,0.4510325,0.5610417,-0.5656536,1.087132,-0.3752975999999999,0.004773246,0.6004491,-0.08671144,0.5794635,-10.91321,35.33
1,-0.1864318999999999,-0.2915955,0.9381866,0.7836916,0.0,0.0,0.0,-24.8067,-0.591095,-28.9072,-1.0,0.6179338000000001,0.464868,0.8962653,-0.1864318999999999,-0.2915955,0.9381866,34.68158,2.829758,-33.09138,3.421005,0.4510325,0.5610417,-0.5656536,1.087132,-0.3752975999999999,0.004773246,0.6004491,-0.08671144,0.5794635,-10.91321,35.33
1,-0.1864318999999999,-0.2915955,0.9381866,0.7836916,0.0,0.0,0.0,-24.8067,-0.591095,-28.9072,-1.0,0.6179338000000001,0.464868,0.8962653,-0.1864318999999999,-0.2915955,0.9381866,34.68158,2.829758,-33.09138,3.421005,0.4510325,0.5610417,-0.5669991999999999,1.0872959999999998,-0.373506,0.006166665,0.5946358,-0.0822291999999999,0.5794635,-10.91321,35.33
1,-0.1864318999999999,-0.2915955,0.9381866,0.7836916,0.0,0.0,0.0,-24.8067,-0.591095,-28.9072,-1.0,0.6179338000000001,0.464868,0.8962653,-0.1864318999999999,-0.2915955,0.9381866,34.68158,2.829758,-33.09138,3.421005,0.4510325,0.5610417,-0.5669991999999999,1.0872959999999998,-0.373506,0.006166665,0.5946358,-0.0822291999999999,0.5794635,-10.91321,35.33
1,-0.1864318999999999,-0.2915955,0.9381866,0.7836916,0.0,0.0,0.0,-24.8067,-0.591095,-28.9072,-1.0,0.6179338000000001,0.464868,0.8962653,-0.1864318999999999,-0.2915955,0.9381866,34.68158,2.829758,-33.09138,3.421005,0.4510325,0.5610417,-0.5669991999999999,1.0872959999999998,-0.373506,0.006166665,0.5946358,-0.0822291999999999,0.5794635,-10.91321,35.33
1,-0.1864318999999999,-0.2915955,0.9381866,0.7836916,0.0,0.0,0.0,-24.8067,-0.591095,-28.9072,-1.0,0.6179338000000001,0.464868,0.8962653,-0.1864318999999999,-0.2915955,0.9381866,34.68158,2.829758,-33.09138,3.421005,0.4510325,0.5610417,-0.5686014,1.087918,-0.3707617,0.008030241,0.5861166,-0.07509324,0.5743378,-10.91321,35.33
1,-0.1864318999999999,-0.2915955,0.9381866,0.7836916,0.0,0.0,0.0,-24.8067,-0.591095,-28.9072,-1.0,0.6179338000000001,0.464868,0.8962653,-0.1864318999999999,-0.2915955,0.9381866,34.68158,2.829758,-33.09138,3.421005,0.4510325,0.5610417,-0.5686014,1.087918,-0.3707617,0.008030241,0.5861166,-0.07509324,0.5743378,-10.91321,35.33
1,-0.1864318999999999,-0.2915955,0.9381866,0.7836916,0.0,0.0,0.0,-24.8067,-0.591095,-28.9072,-1.0,0.6179338000000001,0.464868,0.8962653,-0.1864318999999999,-0.2915955,0.9381866,34.68158,2.829758,-33.09138,3.421005,0.4510325,0.5610417,-0.5686014,1.087918,-0.3707617,0.008030241,0.5861166,-0.07509324,0.5743378,-10.91321,35.33
1,-0.1824036,-0.2846832,0.9411011,0.7836916,0.0,0.0,0.0,-24.8067,-0.591095,-28.9072,-1.0,0.6120906,0.4646755,0.8962653,-0.1824036,-0.2846832,0.9411011,34.66707,2.829483,-33.0979,3.4278410000000004,0.4510399,0.5601363,-0.5710185000000001,1.089038,-0.3671741,0.01067993,0.5758255999999999,-0.06601483,0.5743378,-10.91321,35.33
1,-0.1824036,-0.2846832,0.9411011,0.7836916,0.0,0.0,0.0,-24.8067,-0.591095,-28.9072,-1.0,0.6120906,0.4646755,0.8962653,-0.1824036,-0.2846832,0.9411011,34.66707,2.829483,-33.0979,3.4278410000000004,0.4510399,0.5601363,-0.5710185000000001,1.089038,-0.3671741,0.01067993,0.5758255999999999,-0.06601483,0.5743378,-10.91321,35.33
1,-0.1824036,-0.2846832,0.9411011,0.7836916,0.0,0.0,0.0,-24.8067,-0.591095,-28.9072,-1.0,0.6120906,0.4646755,0.8962653,-0.1824036,-0.2846832,0.9411011,34.66707,2.829483,-33.0979,3.4278410000000004,0.4510399,0.5601363,-0.5710185000000001,1.089038,-0.3671741,0.01067993,0.5758255999999999,-0.06601483,0.5743378,-10.91321,35.33
1,-0.1824036,-0.2846832,0.9411011,0.7836916,0.0,0.0,0.0,-24.8067,-0.591095,-28.9072,-1.0,0.6120906,0.4646755,0.8962653,-0.1824036,-0.2846832,0.9411011,34.66707,2.829483,-33.0979,3.4278410000000004,0.4510399,0.5601363,-0.5722427,1.089649,-0.3653257,0.01050089,0.5705709,-0.06203238,0.5743378,-10.91321,35.33
1,-0.1824036,-0.2846832,0.9411011,0.7836916,0.0,0.0,0.0,-24.8067,-0.591095,-28.9072,-1.0,0.6120906,0.4646755,0.8962653,-0.1824036,-0.2846832,0.9411011,34.66707,2.829483,-33.0979,3.4278410000000004,0.4510399,0.5601363,-0.5722427,1.089649,-0.3653257,0.01050089,0.5705709,-0.06203238,0.5743378,-10.91321,35.33
1,-0.1824036,-0.2846832,0.9411011,0.7836916,0.0,0.0,0.0,-24.8067,-0.591095,-28.9072,-1.0,0.6120906,0.4646755,0.8962653,-0.1824036,-0.2846832,0.9411011,34.66707,2.829483,-33.0979,3.4278410000000004,0.4510399,0.5601363,-0.5722427,1.089649,-0.3653257,0.01050089,0.5705709,-0.06203238,0.5743378,-10.91321,35.33
1,-0.269165,-0.2763672,0.9225769,0.7522607,0.0,0.0,0.0,-25.12886,1.197205,-28.39073,-1.0,0.6439388,0.4609511999999999,0.9046221,-0.269165,-0.2763672,0.9225769,34.26201,2.937973,-33.2216,3.752609,0.4753963,0.5575382,-0.5735416,1.0902120000000002,-0.3636144,0.009611052,0.5653799,-0.05828382,0.5743378,-11.1912,35.33
1,-0.269165,-0.2763672,0.9225769,0.7522607,0.0,0.0,0.0,-25.12886,1.197205,-28.39073,-1.0,0.6439388,0.4609511999999999,0.9046221,-0.269165,-0.2763672,0.9225769,34.26201,2.937973,-33.2216,3.752609,0.4753963,0.5575382,-0.5735416,1.0902120000000002,-0.3636144,0.009611052,0.5653799,-0.05828382,0.5743378,-11.1912,35.33
1,-0.269165,-0.2763672,0.9225769,0.7522607,0.0,0.0,0.0,-25.12886,1.197205,-28.39073,-1.0,0.6439388,0.4609511999999999,0.9046221,-0.269165,-0.2763672,0.9225769,34.26201,2.937973,-33.2216,3.752609,0.4753963,0.5575382,-0.5735416,1.0902120000000002,-0.3636144,0.009611052,0.5653799,-0.05828382,0.5743378,-11.1912,35.33
1,-0.269165,-0.2763672,0.9225769,0.7522607,0.0,0.0,0.0,-25.12886,1.197205,-28.39073,-1.0,0.6439388,0.4609511999999999,0.9046221,-0.269165,-0.2763672,0.9225769,34.26201,2.937973,-33.2216,3.752609,0.4753963,0.5575382,-0.5764121999999999,1.091963,-0.3590772,0.00604094,0.5509208000000001,-0.05055701,0.5743378,-11.1912,35.33
1,-0.269165,-0.2763672,0.9225769,0.7522607,0.0,0.0,0.0,-25.12886,1.197205,-28.39073,-1.0,0.6439388,0.4609511999999999,0.9046221,-0.269165,-0.2763672,0.9225769,34.26201,2.937973,-33.2216,3.752609,0.4753963,0.5575382,-0.5764121999999999,1.091963,-0.3590772,0.00604094,0.5509208000000001,-0.05055701,0.5743378,-11.1912,35.33
1,-0.269165,-0.2763672,0.9225769,0.7522607,0.0,0.0,0.0,-25.12886,1.197205,-28.39073,-1.0,0.6439388,0.4609511999999999,0.9046221,-0.269165,-0.2763672,0.9225769,34.26201,2.937973,-33.2216,3.752609,0.4753963,0.5575382,-0.5764121999999999,1.091963,-0.3590772,0.00604094,0.5509208000000001,-0.05055701,0.5743378,-11.1912,35.33
1,-0.276001,-0.2680511,0.9230042,0.7524827,0.0,0.0,0.0,-25.12886,1.197205,-28.39073,-1.0,0.6430774,0.464972,0.9100572,-0.276001,-0.2680511,0.9230042,34.24231,2.943863,-33.226209999999995,3.788437,0.4768726,0.5563656,-0.5781448,1.093073,-0.356728,0.001734945,0.5418966,-0.04734849,0.5743378,-11.1912,35.33
1,-0.276001,-0.2680511,0.9230042,0.7524827,0.0,0.0,0.0,-25.12886,1.197205,-28.39073,-1.0,0.6430774,0.464972,0.9100572,-0.276001,-0.2680511,0.9230042,34.24231,2.943863,-33.226209999999995,3.788437,0.4768726,0.5563656,-0.5781448,1.093073,-0.356728,0.001734945,0.5418966,-0.04734849,0.5743378,-11.1912,35.33
1,-0.276001,-0.2680511,0.9230042,0.7524827,0.0,0.0,0.0,-25.12886,1.197205,-28.39073,-1.0,0.6430774,0.464972,0.9100572,-0.276001,-0.2680511,0.9230042,34.24231,2.943863,-33.226209999999995,3.788437,0.4768726,0.5563656,-0.5781448,1.093073,-0.356728,0.001734945,0.5418966,-0.04734849,0.5743378,-11.1912,35.33
1,-0.276001,-0.2680511,0.9230042,0.7524827,0.0,0.0,0.0,-25.12886,1.197205,-28.39073,-1.0,0.6430774,0.464972,0.9100572,-0.276001,-0.2680511,0.9230042,34.24231,2.943863,-33.226209999999995,3.788437,0.4768726,0.5563656,-0.5796964,1.093836,-0.3550089,-0.002250865,0.5355713000000001,-0.04574299,0.5743378,-11.1912,35.33
1,-0.276001,-0.2680511,0.9230042,0.7524827,0.0,0.0,0.0,-25.12886,1.197205,-28.39073,-1.0,0.6430774,0.464972,0.9100572,-0.276001,-0.2680511,0.9230042,34.24231,2.943863,-33.226209999999995,3.788437,0.4768726,0.5563656,-0.5796964,1.093836,-0.3550089,-0.002250865,0.5355713000000001,-0.04574299,0.5743378,-11.1912,35.33
1,-0.276001,-0.2680511,0.9230042,0.7524827,0.0,0.0,0.0,-25.12886,1.197205,-28.39073,-1.0,0.6430774,0.464972,0.9100572,-0.276001,-0.2680511,0.9230042,34.24231,2.943863,-33.226209999999995,3.788437,0.4768726,0.5563656,-0.5796964,1.093836,-0.3550089,-0.002250865,0.5355713000000001,-0.04574299,0.5743378,-11.1912,35.33
1,-1.0,-1.0,-1.0,0.7524827,0.0,0.0,0.0,-25.12886,1.197205,-28.39073,-1.0,0.6205585,0.4090625,0.9100572,0.0,0.0,0.0,34.39685,3.924927,-33.06419,-1.0,0.4557266,0.4798914000000001,-0.5808365,1.094264,-0.3536103,-0.004206558,0.5304770999999999,-0.04518325,0.5743378,-11.1912,35.33
1,-1.0,-1.0,-1.0,0.7524827,0.0,0.0,0.0,-25.12886,1.197205,-28.39073,-1.0,0.6205585,0.4090625,0.9100572,0.0,0.0,0.0,34.39685,3.924927,-33.06419,-1.0,0.4557266,0.4798914000000001,-0.5808365,1.094264,-0.3536103,-0.004206558,0.5304770999999999,-0.04518325,0.5743378,-11.1912,35.33
1,-1.0,-1.0,-1.0,0.7524827,0.0,0.0,0.0,-25.12886,1.197205,-28.39073,-1.0,0.6205585,0.4090625,0.9100572,0.0,0.0,0.0,34.39685,3.924927,-33.06419,-1.0,0.4557266,0.4798914000000001,-0.5808365,1.094264,-0.3536103,-0.004206558,0.5304770999999999,-0.04518325,0.5743378,-11.1912,35.33
1,-1.0,-1.0,-1.0,0.7524827,0.0,0.0,0.0,-25.12886,1.197205,-28.39073,-1.0,0.6205585,0.4090625,0.9100572,0.0,0.0,0.0,34.39685,3.924927,-33.06419,-1.0,0.4557266,0.4798914000000001,-0.5813295999999999,1.094775,-0.3529943,-0.005156658,0.5279873,-0.04469866,0.5743378,-11.1912,35.33
1,-1.0,-1.0,-1.0,0.7524827,0.0,0.0,0.0,-25.12886,1.197205,-28.39073,-1.0,0.6205585,0.4090625,0.9100572,0.0,0.0,0.0,34.39685,3.924927,-33.06419,-1.0,0.4557266,0.4798914000000001,-0.5813295999999999,1.094775,-0.3529943,-0.005156658,0.5279873,-0.04469866,0.5743378,-11.1912,35.33
1,-1.0,-1.0,-1.0,0.7524827,0.0,0.0,0.0,-25.12886,1.197205,-28.39073,-1.0,0.6205585,0.4090625,0.9100572,0.0,0.0,0.0,34.39685,3.924927,-33.06419,-1.0,0.4557266,0.4798914000000001,-0.5813295999999999,1.094775,-0.3529943,-0.005156658,0.5279873,-0.04469866,0.5743378,-11.1912,35.33
1,-1.0,-1.0,-1.0,0.7732832,0.0,0.0,0.0,-22.12125,3.5561830000000003,-26.56453,-1.0,0.5764996,0.3558679999999999,0.6850434,0.0,0.0,0.0,35.13158,4.669922,-34.113890000000005,-1.0,0.4101309,0.4460050999999999,-0.5813295999999999,1.094775,-0.3529943,-0.005156658,0.5279873,-0.04469866,0.5743378,7.771065,35.33
1,-1.0,-1.0,-1.0,0.7732832,0.0,0.0,0.0,-22.12125,3.5561830000000003,-26.56453,-1.0,0.5764996,0.3558679999999999,0.6850434,0.0,0.0,0.0,35.13158,4.669922,-34.113890000000005,-1.0,0.4101309,0.4460050999999999,-0.5813295999999999,1.094775,-0.3529943,-0.005156658,0.5279873,-0.04469866,0.5743378,7.771065,35.33
1,-1.0,-1.0,-1.0,0.7732832,0.0,0.0,0.0,-22.12125,3.5561830000000003,-26.56453,-1.0,0.5764996,0.3558679999999999,0.6850434,0.0,0.0,0.0,35.13158,4.669922,-34.113890000000005,-1.0,0.4101309,0.4460050999999999,-0.5813295999999999,1.094775,-0.3529943,-0.005156658,0.5279873,-0.04469866,0.5743378,7.771065,35.33
1,-1.0,-1.0,-1.0,0.8535826999999999,0.0,0.0,0.0,-23.00124,1.701324,-23.93584,-1.0,0.5936746,0.3594684999999999,0.7498393,0.0,0.0,0.0,34.99582,4.388824,-33.31714,-1.0,0.4214140999999999,0.4516952,-0.5817945,1.095302,-0.3527872,-0.007007623,0.5272464,-0.04314775,0.5743378,7.771065,35.33
1,-1.0,-1.0,-1.0,0.8535826999999999,0.0,0.0,0.0,-23.00124,1.701324,-23.93584,-1.0,0.5936746,0.3594684999999999,0.7498393,0.0,0.0,0.0,34.99582,4.388824,-33.31714,-1.0,0.4214140999999999,0.4516952,-0.5817945,1.095302,-0.3527872,-0.007007623,0.5272464,-0.04314775,0.5743378,7.771065,35.33
1,-1.0,-1.0,-1.0,0.8535826999999999,0.0,0.0,0.0,-23.00124,1.701324,-23.93584,-1.0,0.5936746,0.3594684999999999,0.7498393,0.0,0.0,0.0,34.99582,4.388824,-33.31714,-1.0,0.4214140999999999,0.4516952,-0.5817945,1.095302,-0.3527872,-0.007007623,0.5272464,-0.04314775,0.5743378,7.771065,35.33
2,-0.02987671,0.127243,0.9914093,0.8535826999999999,0.0,0.0,0.0,-32.50363,6.960007000000001,-27.31033,-1.0,0.5952606,0.3645820999999999,0.7498393,-0.02987671,0.127243,0.9914093,34.97122,4.447037,-33.538990000000005,3.751846,0.4218592,0.4545303,-0.5820887,1.095315,-0.3531842,-0.007189724,0.5277430000000001,-0.04215351,0.5743378,7.771065,35.33
2,-0.02987671,0.127243,0.9914093,0.8535826999999999,0.0,0.0,0.0,-32.50363,6.960007000000001,-27.31033,-1.0,0.5952606,0.3645820999999999,0.7498393,-0.02987671,0.127243,0.9914093,34.97122,4.447037,-33.538990000000005,3.751846,0.4218592,0.4545303,-0.5820887,1.095315,-0.3531842,-0.007189724,0.5277430000000001,-0.04215351,0.5743378,7.771065,35.33
2,-0.02987671,0.127243,0.9914093,0.8535826999999999,0.0,0.0,0.0,-32.50363,6.960007000000001,-27.31033,-1.0,0.5952606,0.3645820999999999,0.7498393,-0.02987671,0.127243,0.9914093,34.97122,4.447037,-33.538990000000005,3.751846,0.4218592,0.4545303,-0.5820887,1.095315,-0.3531842,-0.007189724,0.5277430000000001,-0.04215351,0.5743378,7.771065,35.33
2,-0.03190613,0.1294556,0.9910583,0.8713248,-0.3574982,-0.02410889,0.9335938,-32.864259999999994,6.566757000000001,-27.48563,3.941635,0.597172,0.3643505999999999,0.7586666999999999,-0.03190613,0.1294556,0.9910583,34.96472,4.462601,-33.64528,3.714417,0.4223042,0.4545865,-0.5822425,1.095268,-0.3539343,-0.007222293,0.5298710999999999,-0.04126654,0.5743378,7.771065,35.33
2,-0.03190613,0.1294556,0.9910583,0.8713248,-0.3574982,-0.02410889,0.9335938,-32.864259999999994,6.566757000000001,-27.48563,3.941635,0.597172,0.3643505999999999,0.7586666999999999,-0.03190613,0.1294556,0.9910583,34.96472,4.462601,-33.64528,3.714417,0.4223042,0.4545865,-0.5822425,1.095268,-0.3539343,-0.007222293,0.5298710999999999,-0.04126654,0.5743378,7.771065,35.33
2,-0.03190613,0.1294556,0.9910583,0.8713248,-0.3574982,-0.02410889,0.9335938,-32.864259999999994,6.566757000000001,-27.48563,3.941635,0.597172,0.3643505999999999,0.7586666999999999,-0.03190613,0.1294556,0.9910583,34.96472,4.462601,-33.64528,3.714417,0.4223042,0.4545865,-0.5822425,1.095268,-0.3539343,-0.007222293,0.5298710999999999,-0.04126654,0.5743378,7.771065,35.33
2,-0.04341125,0.1635589999999999,0.9855652,0.8802496,0.0,0.0,0.0,-23.64832,2.489258,-28.54131,-1.0,0.5996838000000001,0.3660580999999999,0.7648520999999999,-0.04341125,0.1635589999999999,0.9855652,34.91763,4.303513,-33.25714,3.817566,0.4255599,0.4529071,-0.5820841999999999,1.095582,-0.3548828,-0.008983579,0.5330316999999999,-0.04081459,0.5743378,7.771065,35.33
2,-0.04341125,0.1635589999999999,0.9855652,0.8802496,0.0,0.0,0.0,-23.64832,2.489258,-28.54131,-1.0,0.5996838000000001,0.3660580999999999,0.7648520999999999,-0.04341125,0.1635589999999999,0.9855652,34.91763,4.303513,-33.25714,3.817566,0.4255599,0.4529071,-0.5820841999999999,1.095582,-0.3548828,-0.008983579,0.5330316999999999,-0.04081459,0.5743378,7.771065,35.33
2,-0.04341125,0.1635589999999999,0.9855652,0.8802496,0.0,0.0,0.0,-23.64832,2.489258,-28.54131,-1.0,0.5996838000000001,0.3660580999999999,0.7648520999999999,-0.04341125,0.1635589999999999,0.9855652,34.91763,4.303513,-33.25714,3.817566,0.4255599,0.4529071,-0.5820841999999999,1.095582,-0.3548828,-0.008983579,0.5330316999999999,-0.04081459,0.5743378,7.771065,35.33
2,-0.04341125,0.1635589999999999,0.9855652,0.8802496,0.0,0.0,0.0,-23.64832,2.489258,-28.54131,-1.0,0.5996838000000001,0.3660580999999999,0.7648520999999999,-0.04341125,0.1635589999999999,0.9855652,34.91763,4.303513,-33.25714,3.817566,0.4255599,0.4529071,-0.5819662,1.095631,-0.3561834,-0.009950415,0.536665,-0.04124992,0.5743378,9.639309,35.33
2,-0.04341125,0.1635589999999999,0.9855652,0.8802496,0.0,0.0,0.0,-23.64832,2.489258,-28.54131,-1.0,0.5996838000000001,0.3660580999999999,0.7648520999999999,-0.04341125,0.1635589999999999,0.9855652,34.91763,4.303513,-33.25714,3.817566,0.4255599,0.4529071,-0.5819662,1.095631,-0.3561834,-0.009950415,0.536665,-0.04124992,0.5743378,9.639309,35.33
2,-0.04341125,0.1635589999999999,0.9855652,0.8802496,0.0,0.0,0.0,-23.64832,2.489258,-28.54131,-1.0,0.5996838000000001,0.3660580999999999,0.7648520999999999,-0.04341125,0.1635589999999999,0.9855652,34.91763,4.303513,-33.25714,3.817566,0.4255599,0.4529071,-0.5819662,1.095631,-0.3561834,-0.009950415,0.536665,-0.04124992,0.5743378,9.639309,35.33
2,-0.04522705,0.1430053999999999,0.988678,0.8854011,0.0,0.0,0.0,-24.86861,0.6361694,-28.43947,-1.0,0.599216,0.3662189,0.7782264,-0.04522705,0.1430053999999999,0.988678,34.91953,4.31189,-33.27151,3.723145,0.4258019,0.4551196,-0.581917,1.095736,-0.3578418,-0.01189356,0.5411760999999999,-0.04097801,0.5743378,9.639309,35.33
2,-0.04522705,0.1430053999999999,0.988678,0.8854011,0.0,0.0,0.0,-24.86861,0.6361694,-28.43947,-1.0,0.599216,0.3662189,0.7782264,-0.04522705,0.1430053999999999,0.988678,34.91953,4.31189,-33.27151,3.723145,0.4258019,0.4551196,-0.581917,1.095736,-0.3578418,-0.01189356,0.5411760999999999,-0.04097801,0.5743378,9.639309,35.33
2,-0.04522705,0.1430053999999999,0.988678,0.8854011,0.0,0.0,0.0,-24.86861,0.6361694,-28.43947,-1.0,0.599216,0.3662189,0.7782264,-0.04522705,0.1430053999999999,0.988678,34.91953,4.31189,-33.27151,3.723145,0.4258019,0.4551196,-0.581917,1.095736,-0.3578418,-0.01189356,0.5411760999999999,-0.04097801,0.5743378,9.639309,35.33
2,-0.0287323,0.08139038,0.9962616,0.8950954,0.0,0.0,0.0,-26.56447,5.298325,-27.80763,-1.0,0.5978539,0.36579,0.7880083000000001,-0.0287323,0.08139038,0.9962616,34.99335,4.440186,-33.51651,3.5167080000000004,0.4212025,0.4598899999999999,-0.5819688000000001,1.096082,-0.3596905,-0.01461279,0.5464127,-0.0406440999999999,0.5743378,9.639309,35.33
2,-0.0287323,0.08139038,0.9962616,0.8950954,0.0,0.0,0.0,-26.56447,5.298325,-27.80763,-1.0,0.5978539,0.36579,0.7880083000000001,-0.0287323,0.08139038,0.9962616,34.99335,4.440186,-33.51651,3.5167080000000004,0.4212025,0.4598899999999999,-0.5819688000000001,1.096082,-0.3596905,-0.01461279,0.5464127,-0.0406440999999999,0.5743378,9.639309,35.33
2,-0.0287323,0.08139038,0.9962616,0.8950954,0.0,0.0,0.0,-26.56447,5.298325,-27.80763,-1.0,0.5978539,0.36579,0.7880083000000001,-0.0287323,0.08139038,0.9962616,34.99335,4.440186,-33.51651,3.5167080000000004,0.4212025,0.4598899999999999,-0.5819688000000001,1.096082,-0.3596905,-0.01461279,0.5464127,-0.0406440999999999,0.5743378,9.639309,35.33
2,-0.04434204,0.1218567,0.9915466,0.8804609,0.0,0.0,0.0,-24.69598,0.3428497,-29.04901,-1.0,0.5980533,0.3746297,0.7853414000000001,-0.04434204,0.1218567,0.9915466,34.86137,4.320648,-33.91383,3.68158,0.4272604999999999,0.4628542,-0.5816826999999999,1.096069,-0.36182,-0.0160883,0.5523613,-0.04088062,0.5743378,9.639309,35.33
2,-0.04434204,0.1218567,0.9915466,0.8804609,0.0,0.0,0.0,-24.69598,0.3428497,-29.04901,-1.0,0.5980533,0.3746297,0.7853414000000001,-0.04434204,0.1218567,0.9915466,34.86137,4.320648,-33.91383,3.68158,0.4272604999999999,0.4628542,-0.5816826999999999,1.096069,-0.36182,-0.0160883,0.5523613,-0.04088062,0.5743378,9.639309,35.33
2,-0.04434204,0.1218567,0.9915466,0.8804609,0.0,0.0,0.0,-24.69598,0.3428497,-29.04901,-1.0,0.5980533,0.3746297,0.7853414000000001,-0.04434204,0.1218567,0.9915466,34.86137,4.320648,-33.91383,3.68158,0.4272604999999999,0.4628542,-0.5816826999999999,1.096069,-0.36182,-0.0160883,0.5523613,-0.04088062,0.5743378,9.639309,35.33
2,-0.1500092,0.0645752,0.9865723,0.8962306000000001,0.0,0.0,0.0,-24.69598,0.3428497,-29.04901,-1.0,0.6150922,0.3982848,0.8294271999999999,-0.1500092,0.0645752,0.9865723,34.38774,3.937149,-33.41296,3.322601,0.4576082999999999,0.4792824,-0.5812566,1.09565,-0.3645595,-0.01665511,0.5608978,-0.0425958,0.5743378,9.639309,35.33
2,-0.1500092,0.0645752,0.9865723,0.8962306000000001,0.0,0.0,0.0,-24.69598,0.3428497,-29.04901,-1.0,0.6150922,0.3982848,0.8294271999999999,-0.1500092,0.0645752,0.9865723,34.38774,3.937149,-33.41296,3.322601,0.4576082999999999,0.4792824,-0.5812566,1.09565,-0.3645595,-0.01665511,0.5608978,-0.0425958,0.5743378,9.639309,35.33
2,-0.1500092,0.0645752,0.9865723,0.8962306000000001,0.0,0.0,0.0,-24.69598,0.3428497,-29.04901,-1.0,0.6150922,0.3982848,0.8294271999999999,-0.1500092,0.0645752,0.9865723,34.38774,3.937149,-33.41296,3.322601,0.4576082999999999,0.4792824,-0.5812566,1.09565,-0.3645595,-0.01665511,0.5608978,-0.0425958,0.5743378,9.639309,35.33
2,-0.1500092,0.0645752,0.9865723,0.8962306000000001,0.0,0.0,0.0,-24.69598,0.3428497,-29.04901,-1.0,0.6150922,0.3982848,0.8294271999999999,-0.1500092,0.0645752,0.9865723,34.38774,3.937149,-33.41296,3.322601,0.4576082999999999,0.4792824,-0.5805118,1.095315,-0.3682858,-0.01807713,0.5730819,-0.04451836,0.5743378,9.639309,35.33
2,-0.1500092,0.0645752,0.9865723,0.8962306000000001,0.0,0.0,0.0,-24.69598,0.3428497,-29.04901,-1.0,0.6150922,0.3982848,0.8294271999999999,-0.1500092,0.0645752,0.9865723,34.38774,3.937149,-33.41296,3.322601,0.4576082999999999,0.4792824,-0.5805118,1.095315,-0.3682858,-0.01807713,0.5730819,-0.04451836,0.5743378,9.639309,35.33
2,-0.1500092,0.0645752,0.9865723,0.8962306000000001,0.0,0.0,0.0,-24.69598,0.3428497,-29.04901,-1.0,0.6150922,0.3982848,0.8294271999999999,-0.1500092,0.0645752,0.9865723,34.38774,3.937149,-33.41296,3.322601,0.4576082999999999,0.4792824,-0.5805118,1.095315,-0.3682858,-0.01807713,0.5730819,-0.04451836,0.5743378,9.639309,35.33
2,-0.2068634,0.01435852,0.9782562,0.9209237,0.0,0.0,0.0,-24.89186,0.1421661,-29.02991,-1.0,0.6347333000000001,0.4068105,0.9039317,-0.2068634,0.01435852,0.9782562,34.18871,3.79628,-33.45511,3.4561,0.4712524,0.4914339,-0.5798345,1.094742,-0.3713815,-0.01849879,0.5832404,-0.04683445,0.5743378,3.326351,35.33
2,-0.2068634,0.01435852,0.9782562,0.9209237,0.0,0.0,0.0,-24.89186,0.1421661,-29.02991,-1.0,0.6347333000000001,0.4068105,0.9039317,-0.2068634,0.01435852,0.9782562,34.18871,3.79628,-33.45511,3.4561,0.4712524,0.4914339,-0.5798345,1.094742,-0.3713815,-0.01849879,0.5832404,-0.04683445,0.5743378,3.326351,35.33
2,-0.2068634,0.01435852,0.9782562,0.9209237,0.0,0.0,0.0,-24.89186,0.1421661,-29.02991,-1.0,0.6347333000000001,0.4068105,0.9039317,-0.2068634,0.01435852,0.9782562,34.18871,3.79628,-33.45511,3.4561,0.4712524,0.4914339,-0.5798345,1.094742,-0.3713815,-0.01849879,0.5832404,-0.04683445,0.5743378,3.326351,35.33
2,-0.2068634,0.01435852,0.9782562,0.9209237,0.0,0.0,0.0,-24.89186,0.1421661,-29.02991,-1.0,0.6347333000000001,0.4068105,0.9039317,-0.2068634,0.01435852,0.9782562,34.18871,3.79628,-33.45511,3.4561,0.4712524,0.4914339,-0.579231,1.093973,-0.3746384,-0.01799761,0.5941826,-0.0494173,0.5743378,3.326351,35.33
2,-0.2068634,0.01435852,0.9782562,0.9209237,0.0,0.0,0.0,-24.89186,0.1421661,-29.02991,-1.0,0.6347333000000001,0.4068105,0.9039317,-0.2068634,0.01435852,0.9782562,34.18871,3.79628,-33.45511,3.4561,0.4712524,0.4914339,-0.579231,1.093973,-0.3746384,-0.01799761,0.5941826,-0.0494173,0.5743378,3.326351,35.33
2,-0.2068634,0.01435852,0.9782562,0.9209237,0.0,0.0,0.0,-24.89186,0.1421661,-29.02991,-1.0,0.6347333000000001,0.4068105,0.9039317,-0.2068634,0.01435852,0.9782562,34.18871,3.79628,-33.45511,3.4561,0.4712524,0.4914339,-0.579231,1.093973,-0.3746384,-0.01799761,0.5941826,-0.0494173,0.5743378,3.326351,35.33
2,-0.2145844,0.001953125,0.9766998,0.9209237,0.0,0.0,0.0,-23.24683,1.395599,-33.085570000000004,-1.0,0.6336696999999999,0.4134854999999999,0.9039317,-0.2145844,0.001953125,0.9766998,34.210190000000004,3.787781,-33.45682,3.086075,0.4720689,0.4930224,-0.5786233000000001,1.093075,-0.3778238,-0.01786861,0.6046611999999999,-0.05259389,0.5743378,3.326351,35.33
2,-0.2145844,0.001953125,0.9766998,0.9209237,0.0,0.0,0.0,-23.24683,1.395599,-33.085570000000004,-1.0,0.6336696999999999,0.4134854999999999,0.9039317,-0.2145844,0.001953125,0.9766998,34.210190000000004,3.787781,-33.45682,3.086075,0.4720689,0.4930224,-0.5786233000000001,1.093075,-0.3778238,-0.01786861,0.6046611999999999,-0.05259389,0.5743378,3.326351,35.33
2,-0.2145844,0.001953125,0.9766998,0.9209237,0.0,0.0,0.0,-23.24683,1.395599,-33.085570000000004,-1.0,0.6336696999999999,0.4134854999999999,0.9039317,-0.2145844,0.001953125,0.9766998,34.210190000000004,3.787781,-33.45682,3.086075,0.4720689,0.4930224,-0.5786233000000001,1.093075,-0.3778238,-0.01786861,0.6046611999999999,-0.05259389,0.5743378,3.326351,35.33
2,-0.1545105,-0.01182556,0.987915,0.9127581,0.0,0.0,0.0,-23.24683,1.395599,-33.085570000000004,-1.0,0.6166901,0.416938,0.9049301,-0.1545105,-0.01182556,0.987915,34.52615,3.764374,-33.37558,3.50177,0.4528805999999999,0.4946149999999999,-0.578059,1.092069,-0.3810359,-0.01767471,0.6154858,-0.05601571,0.5743378,3.326351,35.33
2,-0.1545105,-0.01182556,0.987915,0.9127581,0.0,0.0,0.0,-23.24683,1.395599,-33.085570000000004,-1.0,0.6166901,0.416938,0.9049301,-0.1545105,-0.01182556,0.987915,34.52615,3.764374,-33.37558,3.50177,0.4528805999999999,0.4946149999999999,-0.578059,1.092069,-0.3810359,-0.01767471,0.6154858,-0.05601571,0.5743378,3.326351,35.33
2,-0.1545105,-0.01182556,0.987915,0.9127581,0.0,0.0,0.0,-23.24683,1.395599,-33.085570000000004,-1.0,0.6166901,0.416938,0.9049301,-0.1545105,-0.01182556,0.987915,34.52615,3.764374,-33.37558,3.50177,0.4528805999999999,0.4946149999999999,-0.578059,1.092069,-0.3810359,-0.01767471,0.6154858,-0.05601571,0.5743378,3.326351,35.33
2,-0.08958435,-0.03109741,0.9954834,0.8814786,0.0,0.0,0.0,-23.24683,1.395599,-33.085570000000004,-1.0,0.6046272,0.4093605999999999,0.8672129999999999,-0.08958435,-0.03109741,0.9954834,34.80826,3.939041000000001,-33.99551,3.851715,0.4340681999999999,0.4961895999999999,-0.5770786,1.0901379999999998,-0.3872467,-0.016458,0.6364105999999999,-0.06292728,0.5743378,-15.00572,35.33
2,-0.08958435,-0.03109741,0.9954834,0.8814786,0.0,0.0,0.0,-23.24683,1.395599,-33.085570000000004,-1.0,0.6046272,0.4093605999999999,0.8672129999999999,-0.08958435,-0.03109741,0.9954834,34.80826,3.939041000000001,-33.99551,3.851715,0.4340681999999999,0.4961895999999999,-0.5770786,1.0901379999999998,-0.3872467,-0.016458,0.6364105999999999,-0.06292728,0.5743378,-15.00572,35.33
2,-0.08958435,-0.03109741,0.9954834,0.8814786,0.0,0.0,0.0,-23.24683,1.395599,-33.085570000000004,-1.0,0.6046272,0.4093605999999999,0.8672129999999999,-0.08958435,-0.03109741,0.9954834,34.80826,3.939041000000001,-33.99551,3.851715,0.4340681999999999,0.4961895999999999,-0.5770786,1.0901379999999998,-0.3872467,-0.016458,0.6364105999999999,-0.06292728,0.5743378,-15.00572,35.33
2,-0.08958435,-0.03109741,0.9954834,0.8814786,0.0,0.0,0.0,-23.24683,1.395599,-33.085570000000004,-1.0,0.6046272,0.4093605999999999,0.8672129999999999,-0.08958435,-0.03109741,0.9954834,34.80826,3.939041000000001,-33.99551,3.851715,0.4340681999999999,0.4961895999999999,-0.5765944000000001,1.089292,-0.3905804,-0.01677967,0.6477440999999999,-0.0661968999999999,0.5743378,-15.00572,35.33
2,-0.08958435,-0.03109741,0.9954834,0.8814786,0.0,0.0,0.0,-23.24683,1.395599,-33.085570000000004,-1.0,0.6046272,0.4093605999999999,0.8672129999999999,-0.08958435,-0.03109741,0.9954834,34.80826,3.939041000000001,-33.99551,3.851715,0.4340681999999999,0.4961895999999999,-0.5765944000000001,1.089292,-0.3905804,-0.01677967,0.6477440999999999,-0.0661968999999999,0.5743378,-15.00572,35.33
2,-0.08958435,-0.03109741,0.9954834,0.8814786,0.0,0.0,0.0,-23.24683,1.395599,-33.085570000000004,-1.0,0.6046272,0.4093605999999999,0.8672129999999999,-0.08958435,-0.03109741,0.9954834,34.80826,3.939041000000001,-33.99551,3.851715,0.4340681999999999,0.4961895999999999,-0.5765944000000001,1.089292,-0.3905804,-0.01677967,0.6477440999999999,-0.0661968999999999,0.5743378,-15.00572,35.33
2,-0.05340576,0.02377319,0.9982758,0.8824576,0.0,0.0,0.0,-25.40742,1.90625,-28.46927,-1.0,0.59518,0.410083,0.8647556999999999,-0.05340576,0.02377319,0.9982758,34.93504,4.02832,-34.353,3.501068,0.4254389,0.4888525999999999,-0.5758281,1.086604,-0.3981075,-0.01306552,0.6747496999999999,-0.07427374,0.5743378,-15.00572,35.33
2,-0.05340576,0.02377319,0.9982758,0.8824576,0.0,0.0,0.0,-25.40742,1.90625,-28.46927,-1.0,0.59518,0.410083,0.8647556999999999,-0.05340576,0.02377319,0.9982758,34.93504,4.02832,-34.353,3.501068,0.4254389,0.4888525999999999,-0.5758281,1.086604,-0.3981075,-0.01306552,0.6747496999999999,-0.07427374,0.5743378,-15.00572,35.33
2,-0.05340576,0.02377319,0.9982758,0.8824576,0.0,0.0,0.0,-25.40742,1.90625,-28.46927,-1.0,0.59518,0.410083,0.8647556999999999,-0.05340576,0.02377319,0.9982758,34.93504,4.02832,-34.353,3.501068,0.4254389,0.4888525999999999,-0.5758281,1.086604,-0.3981075,-0.01306552,0.6747496999999999,-0.07427374,0.5743378,-15.00572,35.33
2,-0.1697388,-0.3660889,0.9149628,0.710712,0.0,0.0,0.0,-25.40742,1.90625,-28.46927,-1.0,0.6197265000000001,0.462837,0.8582383,-0.1697388,-0.3660889,0.9149628,34.36882,3.136963,-33.54591,4.000244,0.4588363,0.5645123000000001,-0.5758281,1.086604,-0.3981075,-0.01306552,0.6747496999999999,-0.07427374,0.5743378,12.77803,35.33
2,-0.1697388,-0.3660889,0.9149628,0.710712,0.0,0.0,0.0,-25.40742,1.90625,-28.46927,-1.0,0.6197265000000001,0.462837,0.8582383,-0.1697388,-0.3660889,0.9149628,34.36882,3.136963,-33.54591,4.000244,0.4588363,0.5645123000000001,-0.5758281,1.086604,-0.3981075,-0.01306552,0.6747496999999999,-0.07427374,0.5743378,12.77803,35.33
2,-0.1697388,-0.3660889,0.9149628,0.710712,0.0,0.0,0.0,-25.40742,1.90625,-28.46927,-1.0,0.6197265000000001,0.462837,0.8582383,-0.1697388,-0.3660889,0.9149628,34.36882,3.136963,-33.54591,4.000244,0.4588363,0.5645123000000001,-0.5758281,1.086604,-0.3981075,-0.01306552,0.6747496999999999,-0.07427374,0.5743378,12.77803,35.33
2,-0.1498108,-0.3746185,0.914978,0.6892526999999999,0.0,0.0,0.0,-25.03963,-2.046692,-29.49886,-1.0,0.6097756,0.4603320999999999,0.7825164000000001,-0.1498108,-0.3746185,0.914978,34.63853,3.136444,-33.49422,3.869598,0.4470755,0.5649571999999999,-0.5753927,1.083038,-0.4048865,-0.004008853,0.6981519,-0.08314068,0.5743378,12.77803,35.33
2,-0.1498108,-0.3746185,0.914978,0.6892526999999999,0.0,0.0,0.0,-25.03963,-2.046692,-29.49886,-1.0,0.6097756,0.4603320999999999,0.7825164000000001,-0.1498108,-0.3746185,0.914978,34.63853,3.136444,-33.49422,3.869598,0.4470755,0.5649571999999999,-0.5753927,1.083038,-0.4048865,-0.004008853,0.6981519,-0.08314068,0.5743378,12.77803,35.33
2,-0.1498108,-0.3746185,0.914978,0.6892526999999999,0.0,0.0,0.0,-25.03963,-2.046692,-29.49886,-1.0,0.6097756,0.4603320999999999,0.7825164000000001,-0.1498108,-0.3746185,0.914978,34.63853,3.136444,-33.49422,3.869598,0.4470755,0.5649571999999999,-0.5753927,1.083038,-0.4048865,-0.004008853,0.6981519,-0.08314068,0.5743378,12.77803,35.33
2,-0.1540527,-0.380188,0.911972,0.6892526999999999,0.0,0.0,0.0,-25.0791,2.135376,-28.44931,-1.0,0.6097087,0.4608195,0.7825164000000001,-0.1540527,-0.380188,0.911972,34.66939,3.150116,-33.48387,3.884186,0.4464884,0.5651782,-0.57533,1.081006,-0.407541,0.0008143105999999,0.7068425,-0.08932924,0.5743378,12.77803,35.33
2,-0.1540527,-0.380188,0.911972,0.6892526999999999,0.0,0.0,0.0,-25.0791,2.135376,-28.44931,-1.0,0.6097087,0.4608195,0.7825164000000001,-0.1540527,-0.380188,0.911972,34.66939,3.150116,-33.48387,3.884186,0.4464884,0.5651782,-0.57533,1.081006,-0.407541,0.0008143105999999,0.7068425,-0.08932924,0.5743378,12.77803,35.33
2,-0.1540527,-0.380188,0.911972,0.6892526999999999,0.0,0.0,0.0,-25.0791,2.135376,-28.44931,-1.0,0.6097087,0.4608195,0.7825164000000001,-0.1540527,-0.380188,0.911972,34.66939,3.150116,-33.48387,3.884186,0.4464884,0.5651782,-0.57533,1.081006,-0.407541,0.0008143105999999,0.7068425,-0.08932924,0.5743378,12.77803,35.33
2,-0.1540527,-0.380188,0.911972,0.6892526999999999,0.0,0.0,0.0,-25.0791,2.135376,-28.44931,-1.0,0.6097087,0.4608195,0.7825164000000001,-0.1540527,-0.380188,0.911972,34.66939,3.150116,-33.48387,3.884186,0.4464884,0.5651782,-0.5748496,1.079145,-0.4095367,0.005219844,0.7132542,-0.09515391,0.5743378,12.77803,35.33
2,-0.1540527,-0.380188,0.911972,0.6892526999999999,0.0,0.0,0.0,-25.0791,2.135376,-28.44931,-1.0,0.6097087,0.4608195,0.7825164000000001,-0.1540527,-0.380188,0.911972,34.66939,3.150116,-33.48387,3.884186,0.4464884,0.5651782,-0.5748496,1.079145,-0.4095367,0.005219844,0.7132542,-0.09515391,0.5743378,12.77803,35.33
2,-0.1540527,-0.380188,0.911972,0.6892526999999999,0.0,0.0,0.0,-25.0791,2.135376,-28.44931,-1.0,0.6097087,0.4608195,0.7825164000000001,-0.1540527,-0.380188,0.911972,34.66939,3.150116,-33.48387,3.884186,0.4464884,0.5651782,-0.5748496,1.079145,-0.4095367,0.005219844,0.7132542,-0.09515391,0.5743378,12.77803,35.33
2,-0.1540527,-0.380188,0.911972,0.6892526999999999,0.0,0.0,0.0,-25.0791,2.135376,-28.44931,-1.0,0.6097087,0.4608195,0.7825164000000001,-0.1540527,-0.380188,0.911972,34.66939,3.150116,-33.48387,3.884186,0.4464884,0.5651782,-0.5743909,1.077726,-0.4110234,0.008557991,0.7176218000000001,-0.100033,0.5743378,12.77803,35.33
2,-0.1540527,-0.380188,0.911972,0.6892526999999999,0.0,0.0,0.0,-25.0791,2.135376,-28.44931,-1.0,0.6097087,0.4608195,0.7825164000000001,-0.1540527,-0.380188,0.911972,34.66939,3.150116,-33.48387,3.884186,0.4464884,0.5651782,-0.5743909,1.077726,-0.4110234,0.008557991,0.7176218000000001,-0.100033,0.5743378,12.77803,35.33
2,-0.1540527,-0.380188,0.911972,0.6892526999999999,0.0,0.0,0.0,-25.0791,2.135376,-28.44931,-1.0,0.6097087,0.4608195,0.7825164000000001,-0.1540527,-0.380188,0.911972,34.66939,3.150116,-33.48387,3.884186,0.4464884,0.5651782,-0.5743909,1.077726,-0.4110234,0.008557991,0.7176218000000001,-0.100033,0.5743378,12.77803,35.33
2,-0.1540527,-0.380188,0.911972,0.6892526999999999,0.0,0.0,0.0,-25.0791,2.135376,-28.44931,-1.0,0.6097087,0.4608195,0.7825164000000001,-0.1540527,-0.380188,0.911972,34.66939,3.150116,-33.48387,3.884186,0.4464884,0.5651782,-0.5738411,1.07667,-0.4117814999999999,0.01034757,0.7192026,-0.1041746,0.5743378,5.955223,35.33
2,-0.1540527,-0.380188,0.911972,0.6892526999999999,0.0,0.0,0.0,-25.0791,2.135376,-28.44931,-1.0,0.6097087,0.4608195,0.7825164000000001,-0.1540527,-0.380188,0.911972,34.66939,3.150116,-33.48387,3.884186,0.4464884,0.5651782,-0.5738411,1.07667,-0.4117814999999999,0.01034757,0.7192026,-0.1041746,0.5743378,5.955223,35.33
2,-0.1540527,-0.380188,0.911972,0.6892526999999999,0.0,0.0,0.0,-25.0791,2.135376,-28.44931,-1.0,0.6097087,0.4608195,0.7825164000000001,-0.1540527,-0.380188,0.911972,34.66939,3.150116,-33.48387,3.884186,0.4464884,0.5651782,-0.5738411,1.07667,-0.4117814999999999,0.01034757,0.7192026,-0.1041746,0.5743378,5.955223,35.33
2,-0.0802002,-0.3554993,0.9312134,0.686067,0.0,0.0,0.0,-24.62605,-1.509354,-28.15565,-1.0,0.5890281999999999,0.458945,0.778623,-0.0802002,-0.3554993,0.9312134,34.9297,3.157837,-33.378040000000006,4.005966,0.4281724,0.5597885,-0.5732067,1.076094,-0.4120639,0.01072101,0.7191645999999999,-0.1071313,0.5743378,5.955223,35.33
2,-0.0802002,-0.3554993,0.9312134,0.686067,0.0,0.0,0.0,-24.62605,-1.509354,-28.15565,-1.0,0.5890281999999999,0.458945,0.778623,-0.0802002,-0.3554993,0.9312134,34.9297,3.157837,-33.378040000000006,4.005966,0.4281724,0.5597885,-0.5732067,1.076094,-0.4120639,0.01072101,0.7191645999999999,-0.1071313,0.5743378,5.955223,35.33
2,-0.0802002,-0.3554993,0.9312134,0.686067,0.0,0.0,0.0,-24.62605,-1.509354,-28.15565,-1.0,0.5890281999999999,0.458945,0.778623,-0.0802002,-0.3554993,0.9312134,34.9297,3.157837,-33.378040000000006,4.005966,0.4281724,0.5597885,-0.5732067,1.076094,-0.4120639,0.01072101,0.7191645999999999,-0.1071313,0.5743378,5.955223,35.33
2,-0.0802002,-0.3554993,0.9312134,0.686067,0.0,0.0,0.0,-24.62605,-1.509354,-28.15565,-1.0,0.5890281999999999,0.458945,0.778623,-0.0802002,-0.3554993,0.9312134,34.9297,3.157837,-33.378040000000006,4.005966,0.4281724,0.5597885,-0.571682,1.07654,-0.4113192,0.009516789,0.7154504,-0.1079767,0.5743378,5.955223,35.33
2,-0.0802002,-0.3554993,0.9312134,0.686067,0.0,0.0,0.0,-24.62605,-1.509354,-28.15565,-1.0,0.5890281999999999,0.458945,0.778623,-0.0802002,-0.3554993,0.9312134,34.9297,3.157837,-33.378040000000006,4.005966,0.4281724,0.5597885,-0.571682,1.07654,-0.4113192,0.009516789,0.7154504,-0.1079767,0.5743378,5.955223,35.33
2,-0.0802002,-0.3554993,0.9312134,0.686067,0.0,0.0,0.0,-24.62605,-1.509354,-28.15565,-1.0,0.5890281999999999,0.458945,0.778623,-0.0802002,-0.3554993,0.9312134,34.9297,3.157837,-33.378040000000006,4.005966,0.4281724,0.5597885,-0.571682,1.07654,-0.4113192,0.009516789,0.7154504,-0.1079767,0.5743378,5.955223,35.33
2,0.0037078859999999,-0.3124237,0.9499207,0.6828156,0.0,0.0,0.0,-24.62605,-1.509354,-28.15565,-1.0,0.5618506999999999,0.4571212,0.7503181,0.0037078859999999,-0.3124237,0.9499207,35.33409,3.16983,-33.3067,4.394165,0.403286,0.5523416999999999,-0.5713531999999999,1.076875,-0.4108068,0.009639691,0.7130249,-0.1076213999999999,0.5743378,5.955223,35.33
2,0.0037078859999999,-0.3124237,0.9499207,0.6828156,0.0,0.0,0.0,-24.62605,-1.509354,-28.15565,-1.0,0.5618506999999999,0.4571212,0.7503181,0.0037078859999999,-0.3124237,0.9499207,35.33409,3.16983,-33.3067,4.394165,0.403286,0.5523416999999999,-0.5713531999999999,1.076875,-0.4108068,0.009639691,0.7130249,-0.1076213999999999,0.5743378,5.955223,35.33
2,0.0037078859999999,-0.3124237,0.9499207,0.6828156,0.0,0.0,0.0,-24.62605,-1.509354,-28.15565,-1.0,0.5618506999999999,0.4571212,0.7503181,0.0037078859999999,-0.3124237,0.9499207,35.33409,3.16983,-33.3067,4.394165,0.403286,0.5523416999999999,-0.5713531999999999,1.076875,-0.4108068,0.009639691,0.7130249,-0.1076213999999999,0.5743378,5.955223,35.33
2,0.0037078859999999,-0.3124237,0.9499207,0.6828156,0.0,0.0,0.0,-24.62605,-1.509354,-28.15565,-1.0,0.5618506999999999,0.4571212,0.7503181,0.0037078859999999,-0.3124237,0.9499207,35.33409,3.16983,-33.3067,4.394165,0.403286,0.5523416999999999,-0.5707455,1.077249,-0.4099377999999999,0.01070293,0.7102783,-0.1071551999999999,0.5743378,5.955223,35.33
2,0.0037078859999999,-0.3124237,0.9499207,0.6828156,0.0,0.0,0.0,-24.62605,-1.509354,-28.15565,-1.0,0.5618506999999999,0.4571212,0.7503181,0.0037078859999999,-0.3124237,0.9499207,35.33409,3.16983,-33.3067,4.394165,0.403286,0.5523416999999999,-0.5707455,1.077249,-0.4099377999999999,0.01070293,0.7102783,-0.1071551999999999,0.5743378,5.955223,35.33
2,0.0037078859999999,-0.3124237,0.9499207,0.6828156,0.0,0.0,0.0,-24.62605,-1.509354,-28.15565,-1.0,0.5618506999999999,0.4571212,0.7503181,0.0037078859999999,-0.3124237,0.9499207,35.33409,3.16983,-33.3067,4.394165,0.403286,0.5523416999999999,-0.5707455,1.077249,-0.4099377999999999,0.01070293,0.7102783,-0.1071551999999999,0.5743378,5.955223,35.33
2,-0.002059937,-0.3078002999999999,0.9514313,0.6802615,0.0,0.0,0.0,-26.06635,3.930252,-27.9469,-1.0,0.5690630999999999,0.4562702,0.7599343000000001,-0.002059937,-0.3078002999999999,0.9514313,35.30815,3.158066,-33.307559999999995,4.301254,0.4050262,0.5521866,-0.5703564,1.077448,-0.4090114,0.01142809,0.7067821999999999,-0.1063856,0.5743378,8.292606,35.33
2,-0.002059937,-0.3078002999999999,0.9514313,0.6802615,0.0,0.0,0.0,-26.06635,3.930252,-27.9469,-1.0,0.5690630999999999,0.4562702,0.7599343000000001,-0.002059937,-0.3078002999999999,0.9514313,35.30815,3.158066,-33.307559999999995,4.301254,0.4050262,0.5521866,-0.5703564,1.077448,-0.4090114,0.01142809,0.7067821999999999,-0.1063856,0.5743378,8.292606,35.33
2,-0.002059937,-0.3078002999999999,0.9514313,0.6802615,0.0,0.0,0.0,-26.06635,3.930252,-27.9469,-1.0,0.5690630999999999,0.4562702,0.7599343000000001,-0.002059937,-0.3078002999999999,0.9514313,35.30815,3.158066,-33.307559999999995,4.301254,0.4050262,0.5521866,-0.5703564,1.077448,-0.4090114,0.01142809,0.7067821999999999,-0.1063856,0.5743378,8.292606,35.33
3,-0.003433228,-0.3057250999999999,0.9521027,0.6867119,0.0,0.0,0.0,-26.02707,3.907898,-28.002990000000004,-1.0,0.5687349,0.4563801999999999,0.7646331999999999,-0.003433228,-0.3057250999999999,0.9521027,35.30736,3.146286,-33.308409999999995,4.308746,0.405212,0.5523416999999999,-0.5700071,1.077754,-0.4083312,0.01176444,0.7046078,-0.1054186,0.5743378,8.292606,35.33
3,-0.003433228,-0.3057250999999999,0.9521027,0.6867119,0.0,0.0,0.0,-26.02707,3.907898,-28.002990000000004,-1.0,0.5687349,0.4563801999999999,0.7646331999999999,-0.003433228,-0.3057250999999999,0.9521027,35.30736,3.146286,-33.308409999999995,4.308746,0.405212,0.5523416999999999,-0.5700071,1.077754,-0.4083312,0.01176444,0.7046078,-0.1054186,0.5743378,8.292606,35.33
3,-0.003433228,-0.3057250999999999,0.9521027,0.6867119,0.0,0.0,0.0,-26.02707,3.907898,-28.002990000000004,-1.0,0.5687349,0.4563801999999999,0.7646331999999999,-0.003433228,-0.3057250999999999,0.9521027,35.30736,3.146286,-33.308409999999995,4.308746,0.405212,0.5523416999999999,-0.5700071,1.077754,-0.4083312,0.01176444,0.7046078,-0.1054186,0.5743378,8.292606,35.33
3,-0.01190186,-0.3022614,0.9531403,0.6790264,0.0,0.0,0.0,-26.05254,3.890564,-27.97025,-1.0,0.5695142,0.4568087,0.7573747,-0.01190186,-0.3022614,0.9531403,35.304959999999994,3.133972,-33.3109,4.297226,0.4063434,0.5523714,-0.5700562,1.077636,-0.4075318,0.01283539,0.7024595,-0.1047151,0.5743378,8.292606,35.33
3,-0.01190186,-0.3022614,0.9531403,0.6790264,0.0,0.0,0.0,-26.05254,3.890564,-27.97025,-1.0,0.5695142,0.4568087,0.7573747,-0.01190186,-0.3022614,0.9531403,35.304959999999994,3.133972,-33.3109,4.297226,0.4063434,0.5523714,-0.5700562,1.077636,-0.4075318,0.01283539,0.7024595,-0.1047151,0.5743378,8.292606,35.33
3,-0.01190186,-0.3022614,0.9531403,0.6790264,0.0,0.0,0.0,-26.05254,3.890564,-27.97025,-1.0,0.5695142,0.4568087,0.7573747,-0.01190186,-0.3022614,0.9531403,35.304959999999994,3.133972,-33.3109,4.297226,0.4063434,0.5523714,-0.5700562,1.077636,-0.4075318,0.01283539,0.7024595,-0.1047151,0.5743378,8.292606,35.33
3,-0.0425415,-0.3264313,0.9442596,0.6982934000000001,0.0,0.0,0.0,-26.05734,3.915802,-27.97916,-1.0,0.5779116999999999,0.4564479999999999,0.7442263000000001,-0.0425415,-0.3264313,0.9442596,35.17062,3.180496,-33.31102,4.245377,0.4148628,0.5541252,-0.5699799,1.077685,-0.4063726,0.01438955,0.6994514000000001,-0.1039313,0.5743378,8.292606,35.33
3,-0.0425415,-0.3264313,0.9442596,0.6982934000000001,0.0,0.0,0.0,-26.05734,3.915802,-27.97916,-1.0,0.5779116999999999,0.4564479999999999,0.7442263000000001,-0.0425415,-0.3264313,0.9442596,35.17062,3.180496,-33.31102,4.245377,0.4148628,0.5541252,-0.5699799,1.077685,-0.4063726,0.01438955,0.6994514000000001,-0.1039313,0.5743378,8.292606,35.33
3,-0.0425415,-0.3264313,0.9442596,0.6982934000000001,0.0,0.0,0.0,-26.05734,3.915802,-27.97916,-1.0,0.5779116999999999,0.4564479999999999,0.7442263000000001,-0.0425415,-0.3264313,0.9442596,35.17062,3.180496,-33.31102,4.245377,0.4148628,0.5541252,-0.5699799,1.077685,-0.4063726,0.01438955,0.6994514000000001,-0.1039313,0.5743378,8.292606,35.33
3,-0.04234314,-0.3270264,0.9440613,0.675075,0.0,0.0,0.0,-26.05734,3.915802,-27.97916,-1.0,0.5775595,0.4586107,0.7604407,-0.04234314,-0.3270264,0.9440613,35.154140000000005,3.187332,-33.31102,4.241043,0.4154287999999999,0.5539742,-0.5699868,1.077978,-0.4051859,0.01598725,0.6965121,-0.1018732,0.5743378,-5.283005,35.33
3,-0.04234314,-0.3270264,0.9440613,0.675075,0.0,0.0,0.0,-26.05734,3.915802,-27.97916,-1.0,0.5775595,0.4586107,0.7604407,-0.04234314,-0.3270264,0.9440613,35.154140000000005,3.187332,-33.31102,4.241043,0.4154287999999999,0.5539742,-0.5699868,1.077978,-0.4051859,0.01598725,0.6965121,-0.1018732,0.5743378,-5.283005,35.33
3,-0.04234314,-0.3270264,0.9440613,0.675075,0.0,0.0,0.0,-26.05734,3.915802,-27.97916,-1.0,0.5775595,0.4586107,0.7604407,-0.04234314,-0.3270264,0.9440613,35.154140000000005,3.187332,-33.31102,4.241043,0.4154287999999999,0.5539742,-0.5699868,1.077978,-0.4051859,0.01598725,0.6965121,-0.1018732,0.5743378,-5.283005,35.33
3,-0.03927612,-0.3289032,0.9435425,0.675075,0.0,0.0,0.0,-25.38364,1.806885,-28.27873,-1.0,0.5769784,0.4598688,0.7604407,-0.03927612,-0.3289032,0.9435425,35.13776,3.193695,-33.30995,4.214583999999999,0.4156662999999999,0.5539742,-0.5701129,1.078177,-0.4032355,0.01829549,0.6922876,-0.1002455,0.5743378,-5.283005,35.33
3,-0.03927612,-0.3289032,0.9435425,0.675075,0.0,0.0,0.0,-25.38364,1.806885,-28.27873,-1.0,0.5769784,0.4598688,0.7604407,-0.03927612,-0.3289032,0.9435425,35.13776,3.193695,-33.30995,4.214583999999999,0.4156662999999999,0.5539742,-0.5701129,1.078177,-0.4032355,0.01829549,0.6922876,-0.1002455,0.5743378,-5.283005,35.33
3,-0.03927612,-0.3289032,0.9435425,0.675075,0.0,0.0,0.0,-25.38364,1.806885,-28.27873,-1.0,0.5769784,0.4598688,0.7604407,-0.03927612,-0.3289032,0.9435425,35.13776,3.193695,-33.30995,4.214583999999999,0.4156662999999999,0.5539742,-0.5701129,1.078177,-0.4032355,0.01829549,0.6922876,-0.1002455,0.5743378,-5.283005,35.33
3,-0.03839111,-0.3315735,0.9426422,0.6763175,0.0,0.0,0.0,-25.38364,1.806885,-28.27873,-1.0,0.5772161,0.4602052,0.7604768,-0.03839111,-0.3315735,0.9426422,35.13425,3.2000580000000003,-33.31047,4.208572,0.4156869000000001,0.5541066,-0.5704958000000001,1.0787129999999998,-0.400381,0.02050709,0.6852428,-0.09674687,0.5704936,-5.283005,35.33
3,-0.03839111,-0.3315735,0.9426422,0.6763175,0.0,0.0,0.0,-25.38364,1.806885,-28.27873,-1.0,0.5772161,0.4602052,0.7604768,-0.03839111,-0.3315735,0.9426422,35.13425,3.2000580000000003,-33.31047,4.208572,0.4156869000000001,0.5541066,-0.5704958000000001,1.0787129999999998,-0.400381,0.02050709,0.6852428,-0.09674687,0.5704936,-5.283005,35.33
3,-0.03839111,-0.3315735,0.9426422,0.6763175,0.0,0.0,0.0,-25.38364,1.806885,-28.27873,-1.0,0.5772161,0.4602052,0.7604768,-0.03839111,-0.3315735,0.9426422,35.13425,3.2000580000000003,-33.31047,4.208572,0.4156869000000001,0.5541066,-0.5704958000000001,1.0787129999999998,-0.400381,0.02050709,0.6852428,-0.09674687,0.5704936,-5.283005,35.33
3,-0.04597473,-0.3331604,0.9417419,0.6633089,0.0,0.0,0.0,-25.38364,1.806885,-28.27873,-1.0,0.5803753,0.4551525999999999,0.7674371999999999,-0.04597473,-0.3331604,0.9417419,35.14127,3.211182,-33.30829,4.176193,0.4164087,0.5539588000000001,-0.5706871,1.079894,-0.3962167,0.02237419,0.6737886,-0.09063957,0.5704936,-5.283005,35.33
3,-0.04597473,-0.3331604,0.9417419,0.6633089,0.0,0.0,0.0,-25.38364,1.806885,-28.27873,-1.0,0.5803753,0.4551525999999999,0.7674371999999999,-0.04597473,-0.3331604,0.9417419,35.14127,3.211182,-33.30829,4.176193,0.4164087,0.5539588000000001,-0.5706871,1.079894,-0.3962167,0.02237419,0.6737886,-0.09063957,0.5704936,-5.283005,35.33
3,-0.04597473,-0.3331604,0.9417419,0.6633089,0.0,0.0,0.0,-25.38364,1.806885,-28.27873,-1.0,0.5803753,0.4551525999999999,0.7674371999999999,-0.04597473,-0.3331604,0.9417419,35.14127,3.211182,-33.30829,4.176193,0.4164087,0.5539588000000001,-0.5706871,1.079894,-0.3962167,0.02237419,0.6737886,-0.09063957,0.5704936,-5.283005,35.33
3,-0.05038452,-0.3330230999999999,0.9415588,0.6673838000000001,0.0,0.0,0.0,-25.38364,1.806885,-28.27873,-1.0,0.5831853,0.4586956,0.7707082,-0.05038452,-0.3330230999999999,0.9415588,35.14127,3.211182,-33.30786,4.159668,0.4169685,0.5539588000000001,-0.5716515,1.08071,-0.3908647,0.02455146,0.6578568,-0.08437616,0.5704936,-5.283005,35.33
3,-0.05038452,-0.3330230999999999,0.9415588,0.6673838000000001,0.0,0.0,0.0,-25.38364,1.806885,-28.27873,-1.0,0.5831853,0.4586956,0.7707082,-0.05038452,-0.3330230999999999,0.9415588,35.14127,3.211182,-33.30786,4.159668,0.4169685,0.5539588000000001,-0.5716515,1.08071,-0.3908647,0.02455146,0.6578568,-0.08437616,0.5704936,-5.283005,35.33
3,-0.05038452,-0.3330230999999999,0.9415588,0.6673838000000001,0.0,0.0,0.0,-25.38364,1.806885,-28.27873,-1.0,0.5831853,0.4586956,0.7707082,-0.05038452,-0.3330230999999999,0.9415588,35.14127,3.211182,-33.30786,4.159668,0.4169685,0.5539588000000001,-0.5716515,1.08071,-0.3908647,0.02455146,0.6578568,-0.08437616,0.5704936,-5.283005,35.33
3,-0.05038452,-0.3330230999999999,0.9415588,0.6673838000000001,0.0,0.0,0.0,-25.38364,1.806885,-28.27873,-1.0,0.5831853,0.4586956,0.7707082,-0.05038452,-0.3330230999999999,0.9415588,35.14127,3.211182,-33.30786,4.159668,0.4169685,0.5539588000000001,-0.5726101,1.081695,-0.3842042999999999,0.02640516,0.6373174,-0.07863806,0.5704936,-5.283005,35.33
3,-0.05038452,-0.3330230999999999,0.9415588,0.6673838000000001,0.0,0.0,0.0,-25.38364,1.806885,-28.27873,-1.0,0.5831853,0.4586956,0.7707082,-0.05038452,-0.3330230999999999,0.9415588,35.14127,3.211182,-33.30786,4.159668,0.4169685,0.5539588000000001,-0.5726101,1.081695,-0.3842042999999999,0.02640516,0.6373174,-0.07863806,0.5704936,-5.283005,35.33
3,-0.05038452,-0.3330230999999999,0.9415588,0.6673838000000001,0.0,0.0,0.0,-25.38364,1.806885,-28.27873,-1.0,0.5831853,0.4586956,0.7707082,-0.05038452,-0.3330230999999999,0.9415588,35.14127,3.211182,-33.30786,4.159668,0.4169685,0.5539588000000001,-0.5726101,1.081695,-0.3842042999999999,0.02640516,0.6373174,-0.07863806,0.5704936,-5.283005,35.33
3,-0.05693054,-0.3338928,0.9408722,0.6673838000000001,0.0,0.0,0.0,-25.38364,1.806885,-28.27873,-1.0,0.5852242,0.4630286,0.7707082,-0.05693054,-0.3338928,0.9408722,35.14594,3.211182,-33.30786,4.139526,0.4176272,0.5541066,-0.5739133000000001,1.082407,-0.3766672,0.02886492,0.6131103,-0.07358036,0.5704936,-12.5508,35.33
3,-0.05693054,-0.3338928,0.9408722,0.6673838000000001,0.0,0.0,0.0,-25.38364,1.806885,-28.27873,-1.0,0.5852242,0.4630286,0.7707082,-0.05693054,-0.3338928,0.9408722,35.14594,3.211182,-33.30786,4.139526,0.4176272,0.5541066,-0.5739133000000001,1.082407,-0.3766672,0.02886492,0.6131103,-0.07358036,0.5704936,-12.5508,35.33
3,-0.05693054,-0.3338928,0.9408722,0.6673838000000001,0.0,0.0,0.0,-25.38364,1.806885,-28.27873,-1.0,0.5852242,0.4630286,0.7707082,-0.05693054,-0.3338928,0.9408722,35.14594,3.211182,-33.30786,4.139526,0.4176272,0.5541066,-0.5739133000000001,1.082407,-0.3766672,0.02886492,0.6131103,-0.07358036,0.5704936,-12.5508,35.33
3,-0.1780396,-0.4658050999999999,0.8667754999999999,0.6358451999999999,0.0,0.0,0.0,-24.6823,-1.567123,-29.34351,-1.0,0.5968528000000001,0.4524167999999999,0.7640737,-0.1780396,-0.4658050999999999,0.8667754999999999,34.768840000000004,3.0796810000000003,-33.50465,3.18129,0.4469244,0.5806091999999999,-0.5761883000000001,1.082441,-0.3690651,0.03313361,0.5876361,-0.0694321,0.5704936,-12.5508,35.33
3,-0.1780396,-0.4658050999999999,0.8667754999999999,0.6358451999999999,0.0,0.0,0.0,-24.6823,-1.567123,-29.34351,-1.0,0.5968528000000001,0.4524167999999999,0.7640737,-0.1780396,-0.4658050999999999,0.8667754999999999,34.768840000000004,3.0796810000000003,-33.50465,3.18129,0.4469244,0.5806091999999999,-0.5761883000000001,1.082441,-0.3690651,0.03313361,0.5876361,-0.0694321,0.5704936,-12.5508,35.33
3,-0.1780396,-0.4658050999999999,0.8667754999999999,0.6358451999999999,0.0,0.0,0.0,-24.6823,-1.567123,-29.34351,-1.0,0.5968528000000001,0.4524167999999999,0.7640737,-0.1780396,-0.4658050999999999,0.8667754999999999,34.768840000000004,3.0796810000000003,-33.50465,3.18129,0.4469244,0.5806091999999999,-0.5761883000000001,1.082441,-0.3690651,0.03313361,0.5876361,-0.0694321,0.5704936,-12.5508,35.33
3,-0.2036437999999999,-0.3846587999999999,0.9002991,0.6337727,0.0,0.0,0.0,-24.6823,-1.567123,-29.34351,-1.0,0.6269829,0.4577622999999999,0.776965,-0.2036437999999999,-0.3846587999999999,0.9002991,34.59715,3.086639,-33.500370000000004,3.727661,0.4553632000000001,0.5688173000000001,-0.5785668,1.082485,-0.3615205999999999,0.03598528,0.5618405,-0.06686668,0.5704936,-12.5508,35.33
3,-0.2036437999999999,-0.3846587999999999,0.9002991,0.6337727,0.0,0.0,0.0,-24.6823,-1.567123,-29.34351,-1.0,0.6269829,0.4577622999999999,0.776965,-0.2036437999999999,-0.3846587999999999,0.9002991,34.59715,3.086639,-33.500370000000004,3.727661,0.4553632000000001,0.5688173000000001,-0.5785668,1.082485,-0.3615205999999999,0.03598528,0.5618405,-0.06686668,0.5704936,-12.5508,35.33
3,-0.2036437999999999,-0.3846587999999999,0.9002991,0.6337727,0.0,0.0,0.0,-24.6823,-1.567123,-29.34351,-1.0,0.6269829,0.4577622999999999,0.776965,-0.2036437999999999,-0.3846587999999999,0.9002991,34.59715,3.086639,-33.500370000000004,3.727661,0.4553632000000001,0.5688173000000001,-0.5785668,1.082485,-0.3615205999999999,0.03598528,0.5618405,-0.06686668,0.5704936,-12.5508,35.33
3,-0.2397461,-0.3446198,0.9075928,0.6339833,0.0,0.0,0.0,-24.6823,-1.567123,-29.34351,-1.0,0.6304041,0.4593162999999999,0.7781723,-0.2397461,-0.3446198,0.9075928,34.37167,3.1502380000000003,-33.55853,3.603409,0.4680294,0.5621293,-0.58145,1.082314,-0.3544927,0.03863,0.5366204000000001,-0.06544188,0.5704936,-12.5508,35.33
3,-0.2397461,-0.3446198,0.9075928,0.6339833,0.0,0.0,0.0,-24.6823,-1.567123,-29.34351,-1.0,0.6304041,0.4593162999999999,0.7781723,-0.2397461,-0.3446198,0.9075928,34.37167,3.1502380000000003,-33.55853,3.603409,0.4680294,0.5621293,-0.58145,1.082314,-0.3544927,0.03863,0.5366204000000001,-0.06544188,0.5704936,-12.5508,35.33
3,-0.2397461,-0.3446198,0.9075928,0.6339833,0.0,0.0,0.0,-24.6823,-1.567123,-29.34351,-1.0,0.6304041,0.4593162999999999,0.7781723,-0.2397461,-0.3446198,0.9075928,34.37167,3.1502380000000003,-33.55853,3.603409,0.4680294,0.5621293,-0.58145,1.082314,-0.3544927,0.03863,0.5366204000000001,-0.06544188,0.5704936,-12.5508,35.33
3,-0.2397461,-0.3446198,0.9075928,0.6339833,0.0,0.0,0.0,-24.6823,-1.567123,-29.34351,-1.0,0.6304041,0.4593162999999999,0.7781723,-0.2397461,-0.3446198,0.9075928,34.37167,3.1502380000000003,-33.55853,3.603409,0.4680294,0.5621293,-0.5848238,1.081761,-0.3482026,0.04164504,0.5126233,-0.06362294,0.5704936,-12.5508,35.33
3,-0.2397461,-0.3446198,0.9075928,0.6339833,0.0,0.0,0.0,-24.6823,-1.567123,-29.34351,-1.0,0.6304041,0.4593162999999999,0.7781723,-0.2397461,-0.3446198,0.9075928,34.37167,3.1502380000000003,-33.55853,3.603409,0.4680294,0.5621293,-0.5848238,1.081761,-0.3482026,0.04164504,0.5126233,-0.06362294,0.5704936,-12.5508,35.33
3,-0.2397461,-0.3446198,0.9075928,0.6339833,0.0,0.0,0.0,-24.6823,-1.567123,-29.34351,-1.0,0.6304041,0.4593162999999999,0.7781723,-0.2397461,-0.3446198,0.9075928,34.37167,3.1502380000000003,-33.55853,3.603409,0.4680294,0.5621293,-0.5848238,1.081761,-0.3482026,0.04164504,0.5126233,-0.06362294,0.5704936,-12.5508,35.33
3,-0.2685852,-0.315918,0.9099731,0.6339833,0.0,0.0,0.0,-24.6823,-1.567123,-29.34351,-1.0,0.6379779999999999,0.4603893,0.7781723,-0.2685852,-0.315918,0.9099731,34.21457,3.1492310000000003,-33.60515,3.873337,0.4766646,0.5590708000000001,-0.5875986,1.081386,-0.3426909999999999,0.0450494,0.491975,-0.0609692,0.5704936,14.8451,35.33
3,-0.2685852,-0.315918,0.9099731,0.6339833,0.0,0.0,0.0,-24.6823,-1.567123,-29.34351,-1.0,0.6379779999999999,0.4603893,0.7781723,-0.2685852,-0.315918,0.9099731,34.21457,3.1492310000000003,-33.60515,3.873337,0.4766646,0.5590708000000001,-0.5875986,1.081386,-0.3426909999999999,0.0450494,0.491975,-0.0609692,0.5704936,14.8451,35.33
3,-0.2685852,-0.315918,0.9099731,0.6339833,0.0,0.0,0.0,-24.6823,-1.567123,-29.34351,-1.0,0.6379779999999999,0.4603893,0.7781723,-0.2685852,-0.315918,0.9099731,34.21457,3.1492310000000003,-33.60515,3.873337,0.4766646,0.5590708000000001,-0.5875986,1.081386,-0.3426909999999999,0.0450494,0.491975,-0.0609692,0.5704936,14.8451,35.33
3,-0.2685852,-0.315918,0.9099731,0.6339833,0.0,0.0,0.0,-24.6823,-1.567123,-29.34351,-1.0,0.6379779999999999,0.4603893,0.7781723,-0.2685852,-0.315918,0.9099731,34.21457,3.1492310000000003,-33.60515,3.873337,0.4766646,0.5590708000000001,-0.5903008000000001,1.080929,-0.3384455,0.04809229,0.4756823,-0.05817262,0.5704936,14.8451,35.33
3,-0.2685852,-0.315918,0.9099731,0.6339833,0.0,0.0,0.0,-24.6823,-1.567123,-29.34351,-1.0,0.6379779999999999,0.4603893,0.7781723,-0.2685852,-0.315918,0.9099731,34.21457,3.1492310000000003,-33.60515,3.873337,0.4766646,0.5590708000000001,-0.5903008000000001,1.080929,-0.3384455,0.04809229,0.4756823,-0.05817262,0.5704936,14.8451,35.33
3,-0.2685852,-0.315918,0.9099731,0.6339833,0.0,0.0,0.0,-24.6823,-1.567123,-29.34351,-1.0,0.6379779999999999,0.4603893,0.7781723,-0.2685852,-0.315918,0.9099731,34.21457,3.1492310000000003,-33.60515,3.873337,0.4766646,0.5590708000000001,-0.5903008000000001,1.080929,-0.3384455,0.04809229,0.4756823,-0.05817262,0.5704936,14.8451,35.33
3,-0.3797607,-0.3064575,0.8728333,0.6130391,0.0,0.0,0.0,-24.6823,-1.567123,-29.34351,-1.0,0.6767635999999999,0.4702189999999999,0.811103,-0.3797607,-0.3064575,0.8728333,33.65996,3.293427,-33.81619,4.123169,0.5096049,0.5566357,-0.5923196999999999,1.08059,-0.3351138,0.05034346,0.4635228,-0.05624713,0.5704936,14.8451,35.33
3,-0.3797607,-0.3064575,0.8728333,0.6130391,0.0,0.0,0.0,-24.6823,-1.567123,-29.34351,-1.0,0.6767635999999999,0.4702189999999999,0.811103,-0.3797607,-0.3064575,0.8728333,33.65996,3.293427,-33.81619,4.123169,0.5096049,0.5566357,-0.5923196999999999,1.08059,-0.3351138,0.05034346,0.4635228,-0.05624713,0.5704936,14.8451,35.33
3,-0.3797607,-0.3064575,0.8728333,0.6130391,0.0,0.0,0.0,-24.6823,-1.567123,-29.34351,-1.0,0.6767635999999999,0.4702189999999999,0.811103,-0.3797607,-0.3064575,0.8728333,33.65996,3.293427,-33.81619,4.123169,0.5096049,0.5566357,-0.5923196999999999,1.08059,-0.3351138,0.05034346,0.4635228,-0.05624713,0.5704936,14.8451,35.33
3,-0.3797607,-0.3064575,0.8728333,0.6130391,0.0,0.0,0.0,-24.6823,-1.567123,-29.34351,-1.0,0.6767635999999999,0.4702189999999999,0.811103,-0.3797607,-0.3064575,0.8728333,33.65996,3.293427,-33.81619,4.123169,0.5096049,0.5566357,-0.5933988,1.080216,-0.3334467,0.05244096,0.4586114,-0.05581871,0.5704936,14.8451,35.33
3,-0.3797607,-0.3064575,0.8728333,0.6130391,0.0,0.0,0.0,-24.6823,-1.567123,-29.34351,-1.0,0.6767635999999999,0.4702189999999999,0.811103,-0.3797607,-0.3064575,0.8728333,33.65996,3.293427,-33.81619,4.123169,0.5096049,0.5566357,-0.5933988,1.080216,-0.3334467,0.05244096,0.4586114,-0.05581871,0.5704936,14.8451,35.33
3,-0.3797607,-0.3064575,0.8728333,0.6130391,0.0,0.0,0.0,-24.6823,-1.567123,-29.34351,-1.0,0.6767635999999999,0.4702189999999999,0.811103,-0.3797607,-0.3064575,0.8728333,33.65996,3.293427,-33.81619,4.123169,0.5096049,0.5566357,-0.5933988,1.080216,-0.3334467,0.05244096,0.4586114,-0.05581871,0.5704936,14.8451,35.33
3,-0.4664612,-0.2524719,0.8477325000000001,0.5369453000000001,0.0,0.0,0.0,-24.6823,-1.567123,-29.34351,-1.0,0.7368774,0.4769675,0.8129472,-0.4664612,-0.2524719,0.8477325000000001,32.546490000000006,3.591827,-34.27597,3.625671,0.5612459,0.5451424,-0.5931531999999999,1.079758,-0.3337424,0.05359012,0.4642826,-0.05691095,0.5704936,14.8451,35.33
3,-0.4664612,-0.2524719,0.8477325000000001,0.5369453000000001,0.0,0.0,0.0,-24.6823,-1.567123,-29.34351,-1.0,0.7368774,0.4769675,0.8129472,-0.4664612,-0.2524719,0.8477325000000001,32.546490000000006,3.591827,-34.27597,3.625671,0.5612459,0.5451424,-0.5931531999999999,1.079758,-0.3337424,0.05359012,0.4642826,-0.05691095,0.5704936,14.8451,35.33
3,-0.4664612,-0.2524719,0.8477325000000001,0.5369453000000001,0.0,0.0,0.0,-24.6823,-1.567123,-29.34351,-1.0,0.7368774,0.4769675,0.8129472,-0.4664612,-0.2524719,0.8477325000000001,32.546490000000006,3.591827,-34.27597,3.625671,0.5612459,0.5451424,-0.5931531999999999,1.079758,-0.3337424,0.05359012,0.4642826,-0.05691095,0.5704936,14.8451,35.33
3,-0.4957275,-0.1947479,0.8463440000000001,0.5432335,0.0,0.0,0.0,-24.6823,-1.567123,-29.34351,-1.0,0.7393613,0.4862528,0.8138524,-0.4957275,-0.1947479,0.8463440000000001,32.48222,3.616364,-34.303090000000005,3.878662,0.5667732,0.5373288,-0.5923357,1.079329,-0.3351311999999999,0.05487424,0.4746746,-0.05714286,0.5704936,-0.9299717,35.33
3,-0.4957275,-0.1947479,0.8463440000000001,0.5432335,0.0,0.0,0.0,-24.6823,-1.567123,-29.34351,-1.0,0.7393613,0.4862528,0.8138524,-0.4957275,-0.1947479,0.8463440000000001,32.48222,3.616364,-34.303090000000005,3.878662,0.5667732,0.5373288,-0.5923357,1.079329,-0.3351311999999999,0.05487424,0.4746746,-0.05714286,0.5704936,-0.9299717,35.33
3,-0.4957275,-0.1947479,0.8463440000000001,0.5432335,0.0,0.0,0.0,-24.6823,-1.567123,-29.34351,-1.0,0.7393613,0.4862528,0.8138524,-0.4957275,-0.1947479,0.8463440000000001,32.48222,3.616364,-34.303090000000005,3.878662,0.5667732,0.5373288,-0.5923357,1.079329,-0.3351311999999999,0.05487424,0.4746746,-0.05714286,0.5704936,-0.9299717,35.33
3,-0.4957275,-0.1947479,0.8463440000000001,0.5432335,0.0,0.0,0.0,-24.6823,-1.567123,-29.34351,-1.0,0.7393613,0.4862528,0.8138524,-0.4957275,-0.1947479,0.8463440000000001,32.48222,3.616364,-34.303090000000005,3.878662,0.5667732,0.5373288,-0.5907207,1.079059,-0.3371752,0.05627972,0.4863755,-0.0558043,0.5704936,-0.9299717,35.33
3,-0.4957275,-0.1947479,0.8463440000000001,0.5432335,0.0,0.0,0.0,-24.6823,-1.567123,-29.34351,-1.0,0.7393613,0.4862528,0.8138524,-0.4957275,-0.1947479,0.8463440000000001,32.48222,3.616364,-34.303090000000005,3.878662,0.5667732,0.5373288,-0.5907207,1.079059,-0.3371752,0.05627972,0.4863755,-0.0558043,0.5704936,-0.9299717,35.33
3,-0.4957275,-0.1947479,0.8463440000000001,0.5432335,0.0,0.0,0.0,-24.6823,-1.567123,-29.34351,-1.0,0.7393613,0.4862528,0.8138524,-0.4957275,-0.1947479,0.8463440000000001,32.48222,3.616364,-34.303090000000005,3.878662,0.5667732,0.5373288,-0.5907207,1.079059,-0.3371752,0.05627972,0.4863755,-0.0558043,0.5704936,-0.9299717,35.33
3,-0.4933319,-0.1999817,0.8465271000000001,0.5406144,0.0,0.0,0.0,-24.6823,-1.567123,-29.34351,-1.0,0.7393613,0.4862528,0.8134325,-0.4933319,-0.1999817,0.8465271000000001,32.4454,3.643326,-34.33382,3.874298000000001,0.5677989,0.5373288,-0.5886611999999999,1.078724,-0.3401354,0.05720678,0.5029159000000001,-0.05619671,0.5704936,-0.9299717,35.33
3,-0.4933319,-0.1999817,0.8465271000000001,0.5406144,0.0,0.0,0.0,-24.6823,-1.567123,-29.34351,-1.0,0.7393613,0.4862528,0.8134325,-0.4933319,-0.1999817,0.8465271000000001,32.4454,3.643326,-34.33382,3.874298000000001,0.5677989,0.5373288,-0.5886611999999999,1.078724,-0.3401354,0.05720678,0.5029159000000001,-0.05619671,0.5704936,-0.9299717,35.33
3,-0.4933319,-0.1999817,0.8465271000000001,0.5406144,0.0,0.0,0.0,-24.6823,-1.567123,-29.34351,-1.0,0.7393613,0.4862528,0.8134325,-0.4933319,-0.1999817,0.8465271000000001,32.4454,3.643326,-34.33382,3.874298000000001,0.5677989,0.5373288,-0.5886611999999999,1.078724,-0.3401354,0.05720678,0.5029159000000001,-0.05619671,0.5704936,-0.9299717,35.33
3,-0.4625854,-0.2201232999999999,0.8587952,0.5904831,0.0,0.0,0.0,-24.6823,-1.567123,-29.34351,-1.0,0.7243501999999999,0.4823708,0.8140622,-0.4625854,-0.2201232999999999,0.8587952,32.67862,3.615036,-34.223690000000005,3.860306,0.5555204,0.5392895999999999,-0.5862824999999999,1.0784049999999998,-0.3440114,0.05788752,0.5215195,-0.056433,0.5704936,-0.9299717,35.33
3,-0.4625854,-0.2201232999999999,0.8587952,0.5904831,0.0,0.0,0.0,-24.6823,-1.567123,-29.34351,-1.0,0.7243501999999999,0.4823708,0.8140622,-0.4625854,-0.2201232999999999,0.8587952,32.67862,3.615036,-34.223690000000005,3.860306,0.5555204,0.5392895999999999,-0.5862824999999999,1.0784049999999998,-0.3440114,0.05788752,0.5215195,-0.056433,0.5704936,-0.9299717,35.33
3,-0.4625854,-0.2201232999999999,0.8587952,0.5904831,0.0,0.0,0.0,-24.6823,-1.567123,-29.34351,-1.0,0.7243501999999999,0.4823708,0.8140622,-0.4625854,-0.2201232999999999,0.8587952,32.67862,3.615036,-34.223690000000005,3.860306,0.5555204,0.5392895999999999,-0.5862824999999999,1.0784049999999998,-0.3440114,0.05788752,0.5215195,-0.056433,0.5704936,-0.9299717,35.33
3,-0.4545441,-0.2304993,0.8603668,0.5904831,0.0,0.0,0.0,-24.6823,-1.567123,-29.34351,-1.0,0.7239028000000001,0.4823032,0.8140622,-0.4545441,-0.2304993,0.8603668,32.70064,3.620422,-34.21812,3.838608,0.5537538000000001,0.5402725,-0.5833670999999999,1.078555,-0.3491457,0.05823611,0.5446017,-0.05361514,0.5704936,-0.9299717,35.33
3,-0.4545441,-0.2304993,0.8603668,0.5904831,0.0,0.0,0.0,-24.6823,-1.567123,-29.34351,-1.0,0.7239028000000001,0.4823032,0.8140622,-0.4545441,-0.2304993,0.8603668,32.70064,3.620422,-34.21812,3.838608,0.5537538000000001,0.5402725,-0.5833670999999999,1.078555,-0.3491457,0.05823611,0.5446017,-0.05361514,0.5704936,-0.9299717,35.33
3,-0.4545441,-0.2304993,0.8603668,0.5904831,0.0,0.0,0.0,-24.6823,-1.567123,-29.34351,-1.0,0.7239028000000001,0.4823032,0.8140622,-0.4545441,-0.2304993,0.8603668,32.70064,3.620422,-34.21812,3.838608,0.5537538000000001,0.5402725,-0.5833670999999999,1.078555,-0.3491457,0.05823611,0.5446017,-0.05361514,0.5704936,-0.9299717,35.33
3,-0.4454041,-0.2354583999999999,0.8638,0.59735,0.0,0.0,0.0,-24.6823,-1.567123,-29.34351,-1.0,0.7195553000000001,0.4700361,0.8320877,-0.4454041,-0.2354583999999999,0.8638,32.76489,3.628952,-34.20113,3.752625,0.5504732,0.5402725,-0.5788863000000001,1.077976,-0.3614007,0.05929049,0.5932335,-0.05244167,0.5704936,10.36214,35.33
3,-0.4454041,-0.2354583999999999,0.8638,0.59735,0.0,0.0,0.0,-24.6823,-1.567123,-29.34351,-1.0,0.7195553000000001,0.4700361,0.8320877,-0.4454041,-0.2354583999999999,0.8638,32.76489,3.628952,-34.20113,3.752625,0.5504732,0.5402725,-0.5788863000000001,1.077976,-0.3614007,0.05929049,0.5932335,-0.05244167,0.5704936,10.36214,35.33
3,-0.4454041,-0.2354583999999999,0.8638,0.59735,0.0,0.0,0.0,-24.6823,-1.567123,-29.34351,-1.0,0.7195553000000001,0.4700361,0.8320877,-0.4454041,-0.2354583999999999,0.8638,32.76489,3.628952,-34.20113,3.752625,0.5504732,0.5402725,-0.5788863000000001,1.077976,-0.3614007,0.05929049,0.5932335,-0.05244167,0.5704936,10.36214,35.33
3,-0.4454041,-0.2354583999999999,0.8638,0.59735,0.0,0.0,0.0,-24.6823,-1.567123,-29.34351,-1.0,0.7195553000000001,0.4700361,0.8320877,-0.4454041,-0.2354583999999999,0.8638,32.76489,3.628952,-34.20113,3.752625,0.5504732,0.5402725,-0.5770299,1.0779729999999998,-0.3679627,0.05884733,0.6169439999999999,-0.05120664,0.5704936,10.36214,35.33
3,-0.4454041,-0.2354583999999999,0.8638,0.59735,0.0,0.0,0.0,-24.6823,-1.567123,-29.34351,-1.0,0.7195553000000001,0.4700361,0.8320877,-0.4454041,-0.2354583999999999,0.8638,32.76489,3.628952,-34.20113,3.752625,0.5504732,0.5402725,-0.5770299,1.0779729999999998,-0.3679627,0.05884733,0.6169439999999999,-0.05120664,0.5704936,10.36214,35.33
3,-0.4454041,-0.2354583999999999,0.8638,0.59735,0.0,0.0,0.0,-24.6823,-1.567123,-29.34351,-1.0,0.7195553000000001,0.4700361,0.8320877,-0.4454041,-0.2354583999999999,0.8638,32.76489,3.628952,-34.20113,3.752625,0.5504732,0.5402725,-0.5770299,1.0779729999999998,-0.3679627,0.05884733,0.6169439999999999,-0.05120664,0.5704936,10.36214,35.33
3,-0.4442139,-0.2429047,0.8623504999999999,0.6000641999999999,0.0,0.0,0.0,-24.6823,-1.567123,-29.34351,-1.0,0.7133528,0.4725932,0.8205153000000001,-0.4442139,-0.2429047,0.8623504999999999,32.80713,3.625809,-34.18968,3.686142,0.548959,0.5412554,-0.5762706,1.077418,-0.3740910999999999,0.05883738,0.6369206000000001,-0.05282162,0.5704936,10.36214,35.33
3,-0.4442139,-0.2429047,0.8623504999999999,0.6000641999999999,0.0,0.0,0.0,-24.6823,-1.567123,-29.34351,-1.0,0.7133528,0.4725932,0.8205153000000001,-0.4442139,-0.2429047,0.8623504999999999,32.80713,3.625809,-34.18968,3.686142,0.548959,0.5412554,-0.5762706,1.077418,-0.3740910999999999,0.05883738,0.6369206000000001,-0.05282162,0.5704936,10.36214,35.33
3,-0.4442139,-0.2429047,0.8623504999999999,0.6000641999999999,0.0,0.0,0.0,-24.6823,-1.567123,-29.34351,-1.0,0.7133528,0.4725932,0.8205153000000001,-0.4442139,-0.2429047,0.8623504999999999,32.80713,3.625809,-34.18968,3.686142,0.548959,0.5412554,-0.5762706,1.077418,-0.3740910999999999,0.05883738,0.6369206000000001,-0.05282162,0.5704936,10.36214,35.33
3,-0.2847442999999999,-0.3240051,0.9021759,0.6000641999999999,0.0,0.0,0.0,-24.6823,-1.567123,-29.34351,-1.0,0.6645736999999999,0.4734195,0.8205153000000001,-0.2847442999999999,-0.3240051,0.9021759,33.62288,3.500626,-33.6619,3.956879,0.4994878,0.5487116999999999,-0.5755107,1.077375,-0.3791791,0.05728513,0.6522864,-0.05480787,0.5704936,10.36214,35.33
3,-0.2847442999999999,-0.3240051,0.9021759,0.6000641999999999,0.0,0.0,0.0,-24.6823,-1.567123,-29.34351,-1.0,0.6645736999999999,0.4734195,0.8205153000000001,-0.2847442999999999,-0.3240051,0.9021759,33.62288,3.500626,-33.6619,3.956879,0.4994878,0.5487116999999999,-0.5755107,1.077375,-0.3791791,0.05728513,0.6522864,-0.05480787,0.5704936,10.36214,35.33
3,-0.2847442999999999,-0.3240051,0.9021759,0.6000641999999999,0.0,0.0,0.0,-24.6823,-1.567123,-29.34351,-1.0,0.6645736999999999,0.4734195,0.8205153000000001,-0.2847442999999999,-0.3240051,0.9021759,33.62288,3.500626,-33.6619,3.956879,0.4994878,0.5487116999999999,-0.5755107,1.077375,-0.3791791,0.05728513,0.6522864,-0.05480787,0.5704936,10.36214,35.33
3,-0.1668242999999999,-0.3182678,0.933197,0.6901838,0.0,0.0,0.0,-24.6823,-1.567123,-29.34351,-1.0,0.6250949,0.4602956,0.7611763,-0.1668242999999999,-0.3182678,0.933197,34.36009,3.406189,-33.44556,3.946075,0.4590558,0.5475726,-0.5745809000000001,1.077927,-0.385189,0.05341158,0.6693829000000001,-0.05441462,0.5704936,10.36214,35.33
3,-0.1668242999999999,-0.3182678,0.933197,0.6901838,0.0,0.0,0.0,-24.6823,-1.567123,-29.34351,-1.0,0.6250949,0.4602956,0.7611763,-0.1668242999999999,-0.3182678,0.933197,34.36009,3.406189,-33.44556,3.946075,0.4590558,0.5475726,-0.5745809000000001,1.077927,-0.385189,0.05341158,0.6693829000000001,-0.05441462,0.5704936,10.36214,35.33
3,-0.1668242999999999,-0.3182678,0.933197,0.6901838,0.0,0.0,0.0,-24.6823,-1.567123,-29.34351,-1.0,0.6250949,0.4602956,0.7611763,-0.1668242999999999,-0.3182678,0.933197,34.36009,3.406189,-33.44556,3.946075,0.4590558,0.5475726,-0.5745809000000001,1.077927,-0.385189,0.05341158,0.6693829000000001,-0.05441462,0.5704936,10.36214,35.33
4,-0.1668242999999999,-0.3182678,0.933197,0.6901838,0.0,0.0,0.0,-24.6823,-1.567123,-29.34351,-1.0,0.6250949,0.4602956,0.7611763,-0.1668242999999999,-0.3182678,0.933197,34.36009,3.406189,-33.44556,3.946075,0.4590558,0.5475726,-0.5744703,1.078005,-0.3890424,0.05153623,0.6795684000000001,-0.05375753,0.5704936,-2.289671,35.33
4,-0.1668242999999999,-0.3182678,0.933197,0.6901838,0.0,0.0,0.0,-24.6823,-1.567123,-29.34351,-1.0,0.6250949,0.4602956,0.7611763,-0.1668242999999999,-0.3182678,0.933197,34.36009,3.406189,-33.44556,3.946075,0.4590558,0.5475726,-0.5744703,1.078005,-0.3890424,0.05153623,0.6795684000000001,-0.05375753,0.5704936,-2.289671,35.33
4,-0.1668242999999999,-0.3182678,0.933197,0.6901838,0.0,0.0,0.0,-24.6823,-1.567123,-29.34351,-1.0,0.6250949,0.4602956,0.7611763,-0.1668242999999999,-0.3182678,0.933197,34.36009,3.406189,-33.44556,3.946075,0.4590558,0.5475726,-0.5744703,1.078005,-0.3890424,0.05153623,0.6795684000000001,-0.05375753,0.5704936,-2.289671,35.33
4,-0.1412201,-0.3204040999999999,0.936676,0.6816496999999999,0.0,0.0,0.0,-24.6823,-1.567123,-29.34351,-1.0,0.6218021,0.4585982,0.7544251000000001,-0.1412201,-0.3204040999999999,0.936676,34.46411,3.416656,-33.41637,3.968246,0.4522417,0.5469465,-0.5740725999999999,1.078629,-0.392154,0.05045271,0.6884678000000001,-0.04982921,0.5704936,-2.289671,35.33
4,-0.1412201,-0.3204040999999999,0.936676,0.6816496999999999,0.0,0.0,0.0,-24.6823,-1.567123,-29.34351,-1.0,0.6218021,0.4585982,0.7544251000000001,-0.1412201,-0.3204040999999999,0.936676,34.46411,3.416656,-33.41637,3.968246,0.4522417,0.5469465,-0.5740725999999999,1.078629,-0.392154,0.05045271,0.6884678000000001,-0.04982921,0.5704936,-2.289671,35.33
4,-0.1412201,-0.3204040999999999,0.936676,0.6816496999999999,0.0,0.0,0.0,-24.6823,-1.567123,-29.34351,-1.0,0.6218021,0.4585982,0.7544251000000001,-0.1412201,-0.3204040999999999,0.936676,34.46411,3.416656,-33.41637,3.968246,0.4522417,0.5469465,-0.5740725999999999,1.078629,-0.392154,0.05045271,0.6884678000000001,-0.04982921,0.5704936,-2.289671,35.33
4,-0.1412201,-0.3204040999999999,0.936676,0.6816496999999999,0.0,0.0,0.0,-24.6823,-1.567123,-29.34351,-1.0,0.6218021,0.4585982,0.7544251000000001,-0.1412201,-0.3204040999999999,0.936676,34.46411,3.416656,-33.41637,3.968246,0.4522417,0.5469465,-0.5737774,1.079117,-0.3944257,0.05139718,0.6950061,-0.04629998,0.5704936,-2.289671,35.33
4,-0.1412201,-0.3204040999999999,0.936676,0.6816496999999999,0.0,0.0,0.0,-24.6823,-1.567123,-29.34351,-1.0,0.6218021,0.4585982,0.7544251000000001,-0.1412201,-0.3204040999999999,0.936676,34.46411,3.416656,-33.41637,3.968246,0.4522417,0.5469465,-0.5737774,1.079117,-0.3944257,0.05139718,0.6950061,-0.04629998,0.5704936,-2.289671,35.33
4,-0.1412201,-0.3204040999999999,0.936676,0.6816496999999999,0.0,0.0,0.0,-24.6823,-1.567123,-29.34351,-1.0,0.6218021,0.4585982,0.7544251000000001,-0.1412201,-0.3204040999999999,0.936676,34.46411,3.416656,-33.41637,3.968246,0.4522417,0.5469465,-0.5737774,1.079117,-0.3944257,0.05139718,0.6950061,-0.04629998,0.5704936,-2.289671,35.33
4,-0.007797241,-0.3264922999999999,0.9451599,0.6816472,0.0,0.0,0.0,-24.6823,-1.567123,-29.34351,-1.0,0.5712606,0.4644828,0.6946669,-0.007797241,-0.3264922999999999,0.9451599,35.11975,3.228256,-33.31036,4.191466999999999,0.4125077,0.5523026999999999,-0.5738446999999999,1.079388,-0.3960487,0.05294454,0.7000295,-0.04155011,0.5704936,-2.289671,35.33
4,-0.007797241,-0.3264922999999999,0.9451599,0.6816472,0.0,0.0,0.0,-24.6823,-1.567123,-29.34351,-1.0,0.5712606,0.4644828,0.6946669,-0.007797241,-0.3264922999999999,0.9451599,35.11975,3.228256,-33.31036,4.191466999999999,0.4125077,0.5523026999999999,-0.5738446999999999,1.079388,-0.3960487,0.05294454,0.7000295,-0.04155011,0.5704936,-2.289671,35.33
4,-0.007797241,-0.3264922999999999,0.9451599,0.6816472,0.0,0.0,0.0,-24.6823,-1.567123,-29.34351,-1.0,0.5712606,0.4644828,0.6946669,-0.007797241,-0.3264922999999999,0.9451599,35.11975,3.228256,-33.31036,4.191466999999999,0.4125077,0.5523026999999999,-0.5738446999999999,1.079388,-0.3960487,0.05294454,0.7000295,-0.04155011,0.5704936,-2.289671,35.33
4,0.02128601,-0.3404083,0.940033,0.3809009,0.0,0.0,0.0,-24.6823,-1.567123,-29.34351,-1.0,0.5680925,0.4640106,0.6915115,0.02128601,-0.3404083,0.940033,35.14641,3.2705990000000003,-33.28558,4.187759,0.4080127,0.5523026999999999,-0.5738733,1.079939,-0.3964946,0.0615300999999999,0.7033732,-0.03051733,0.5704936,-13.92869,35.33
4,0.02128601,-0.3404083,0.940033,0.3809009,0.0,0.0,0.0,-24.6823,-1.567123,-29.34351,-1.0,0.5680925,0.4640106,0.6915115,0.02128601,-0.3404083,0.940033,35.14641,3.2705990000000003,-33.28558,4.187759,0.4080127,0.5523026999999999,-0.5738733,1.079939,-0.3964946,0.0615300999999999,0.7033732,-0.03051733,0.5704936,-13.92869,35.33
4,0.02128601,-0.3404083,0.940033,0.3809009,0.0,0.0,0.0,-24.6823,-1.567123,-29.34351,-1.0,0.5680925,0.4640106,0.6915115,0.02128601,-0.3404083,0.940033,35.14641,3.2705990000000003,-33.28558,4.187759,0.4080127,0.5523026999999999,-0.5738733,1.079939,-0.3964946,0.0615300999999999,0.7033732,-0.03051733,0.5704936,-13.92869,35.33
4,0.01985168,-0.3647003,0.9309082,0.3680933,0.0,0.0,0.0,-23.81213,4.550674,-25.70222,-1.0,0.5643498,0.4581863,0.698417,0.01985168,-0.3647003,0.9309082,35.19627,3.273804,-33.28296,4.125977,0.4064353,0.5554163000000001,-0.5739472,1.080139,-0.3953729,0.06720711,0.7012056999999999,-0.02368888,0.5704936,-13.92869,35.33
4,0.01985168,-0.3647003,0.9309082,0.3680933,0.0,0.0,0.0,-23.81213,4.550674,-25.70222,-1.0,0.5643498,0.4581863,0.698417,0.01985168,-0.3647003,0.9309082,35.19627,3.273804,-33.28296,4.125977,0.4064353,0.5554163000000001,-0.5739472,1.080139,-0.3953729,0.06720711,0.7012056999999999,-0.02368888,0.5704936,-13.92869,35.33
4,0.01985168,-0.3647003,0.9309082,0.3680933,0.0,0.0,0.0,-23.81213,4.550674,-25.70222,-1.0,0.5643498,0.4581863,0.698417,0.01985168,-0.3647003,0.9309082,35.19627,3.273804,-33.28296,4.125977,0.4064353,0.5554163000000001,-0.5739472,1.080139,-0.3953729,0.06720711,0.7012056999999999,-0.02368888,0.5704936,-13.92869,35.33
4,0.01985168,-0.3647003,0.9309082,0.3680933,0.0,0.0,0.0,-23.81213,4.550674,-25.70222,-1.0,0.5643498,0.4581863,0.698417,0.01985168,-0.3647003,0.9309082,35.19627,3.273804,-33.28296,4.125977,0.4064353,0.5554163000000001,-0.5738425,1.080287,-0.3932057,0.07257432,0.6966779000000001,-0.01625943,0.5704936,-13.92869,35.33
4,0.01985168,-0.3647003,0.9309082,0.3680933,0.0,0.0,0.0,-23.81213,4.550674,-25.70222,-1.0,0.5643498,0.4581863,0.698417,0.01985168,-0.3647003,0.9309082,35.19627,3.273804,-33.28296,4.125977,0.4064353,0.5554163000000001,-0.5738425,1.080287,-0.3932057,0.07257432,0.6966779000000001,-0.01625943,0.5704936,-13.92869,35.33
4,0.01985168,-0.3647003,0.9309082,0.3680933,0.0,0.0,0.0,-23.81213,4.550674,-25.70222,-1.0,0.5643498,0.4581863,0.698417,0.01985168,-0.3647003,0.9309082,35.19627,3.273804,-33.28296,4.125977,0.4064353,0.5554163000000001,-0.5738425,1.080287,-0.3932057,0.07257432,0.6966779000000001,-0.01625943,0.5704936,-13.92869,35.33
4,0.09347534,-0.3769073,0.9215088,0.3680933,0.0,0.0,0.0,-25.10001,0.9894867,-28.68326,-1.0,0.5592351999999999,0.4565749,0.698417,0.09347534,-0.3769073,0.9215088,35.37144,3.132263,-33.29874,3.939468,0.3912129,0.5620069000000001,-0.5737827,1.080495,-0.3899743,0.07808923,0.6893587,-0.009381959,0.5704936,-13.92869,35.33
4,0.09347534,-0.3769073,0.9215088,0.3680933,0.0,0.0,0.0,-25.10001,0.9894867,-28.68326,-1.0,0.5592351999999999,0.4565749,0.698417,0.09347534,-0.3769073,0.9215088,35.37144,3.132263,-33.29874,3.939468,0.3912129,0.5620069000000001,-0.5737827,1.080495,-0.3899743,0.07808923,0.6893587,-0.009381959,0.5704936,-13.92869,35.33
4,0.09347534,-0.3769073,0.9215088,0.3680933,0.0,0.0,0.0,-25.10001,0.9894867,-28.68326,-1.0,0.5592351999999999,0.4565749,0.698417,0.09347534,-0.3769073,0.9215088,35.37144,3.132263,-33.29874,3.939468,0.3912129,0.5620069000000001,-0.5737827,1.080495,-0.3899743,0.07808923,0.6893587,-0.009381959,0.5704936,-13.92869,35.33
4,0.09347534,-0.3769073,0.9215088,0.3680933,0.0,0.0,0.0,-25.10001,0.9894867,-28.68326,-1.0,0.5592351999999999,0.4565749,0.698417,0.09347534,-0.3769073,0.9215088,35.37144,3.132263,-33.29874,3.939468,0.3912129,0.5620069000000001,-0.5740633,1.080686,-0.3863763,0.08227856,0.6804626,-0.001879249,0.5704936,10.44558,35.33
4,0.09347534,-0.3769073,0.9215088,0.3680933,0.0,0.0,0.0,-25.10001,0.9894867,-28.68326,-1.0,0.5592351999999999,0.4565749,0.698417,0.09347534,-0.3769073,0.9215088,35.37144,3.132263,-33.29874,3.939468,0.3912129,0.5620069000000001,-0.5740633,1.080686,-0.3863763,0.08227856,0.6804626,-0.001879249,0.5704936,10.44558,35.33
4,0.09347534,-0.3769073,0.9215088,0.3680933,0.0,0.0,0.0,-25.10001,0.9894867,-28.68326,-1.0,0.5592351999999999,0.4565749,0.698417,0.09347534,-0.3769073,0.9215088,35.37144,3.132263,-33.29874,3.939468,0.3912129,0.5620069000000001,-0.5740633,1.080686,-0.3863763,0.08227856,0.6804626,-0.001879249,0.5704936,10.44558,35.33
4,0.1121063,-0.38237,0.9171753,0.3705549,0.0,0.0,0.0,-25.1165,0.9684601,-28.68358,-1.0,0.5571301,0.46082,0.6588996,0.1121063,-0.38237,0.9171753,35.33876,3.256073,-33.241820000000004,3.954895,0.3901467999999999,0.5578473,-0.5740535,1.081207,-0.3823652999999999,0.08554987,0.6715814,0.005747684,0.5704936,10.44558,35.33
4,0.1121063,-0.38237,0.9171753,0.3705549,0.0,0.0,0.0,-25.1165,0.9684601,-28.68358,-1.0,0.5571301,0.46082,0.6588996,0.1121063,-0.38237,0.9171753,35.33876,3.256073,-33.241820000000004,3.954895,0.3901467999999999,0.5578473,-0.5740535,1.081207,-0.3823652999999999,0.08554987,0.6715814,0.005747684,0.5704936,10.44558,35.33
4,0.1121063,-0.38237,0.9171753,0.3705549,0.0,0.0,0.0,-25.1165,0.9684601,-28.68358,-1.0,0.5571301,0.46082,0.6588996,0.1121063,-0.38237,0.9171753,35.33876,3.256073,-33.241820000000004,3.954895,0.3901467999999999,0.5578473,-0.5740535,1.081207,-0.3823652999999999,0.08554987,0.6715814,0.005747684,0.5704936,10.44558,35.33
4,0.09634399,-0.3646698,0.9261322,0.3908102,0.0,0.0,0.0,-31.97169,4.08638,-26.56621,-1.0,0.5610002,0.4610159,0.6712076,0.09634399,-0.3646698,0.9261322,35.30988,3.269363,-33.2384,4.030762,0.3931226,0.554951,-0.5740759,1.0816,-0.3783942,0.08984545,0.663359,0.01262204,0.5704936,10.44558,35.33
4,0.09634399,-0.3646698,0.9261322,0.3908102,0.0,0.0,0.0,-31.97169,4.08638,-26.56621,-1.0,0.5610002,0.4610159,0.6712076,0.09634399,-0.3646698,0.9261322,35.30988,3.269363,-33.2384,4.030762,0.3931226,0.554951,-0.5740759,1.0816,-0.3783942,0.08984545,0.663359,0.01262204,0.5704936,10.44558,35.33
4,0.09634399,-0.3646698,0.9261322,0.3908102,0.0,0.0,0.0,-31.97169,4.08638,-26.56621,-1.0,0.5610002,0.4610159,0.6712076,0.09634399,-0.3646698,0.9261322,35.30988,3.269363,-33.2384,4.030762,0.3931226,0.554951,-0.5740759,1.0816,-0.3783942,0.08984545,0.663359,0.01262204,0.5704936,10.44558,35.33
4,0.09634399,-0.3646698,0.9261322,0.3908102,0.0,0.0,0.0,-31.97169,4.08638,-26.56621,-1.0,0.5610002,0.4610159,0.6712076,0.09634399,-0.3646698,0.9261322,35.30988,3.269363,-33.2384,4.030762,0.3931226,0.554951,-0.5744965,1.0818020000000002,-0.3749822,0.09305109,0.6565869000000001,0.01864422,0.5704936,10.44558,35.33
4,0.09634399,-0.3646698,0.9261322,0.3908102,0.0,0.0,0.0,-31.97169,4.08638,-26.56621,-1.0,0.5610002,0.4610159,0.6712076,0.09634399,-0.3646698,0.9261322,35.30988,3.269363,-33.2384,4.030762,0.3931226,0.554951,-0.5744965,1.0818020000000002,-0.3749822,0.09305109,0.6565869000000001,0.01864422,0.5704936,10.44558,35.33
4,0.09634399,-0.3646698,0.9261322,0.3908102,0.0,0.0,0.0,-31.97169,4.08638,-26.56621,-1.0,0.5610002,0.4610159,0.6712076,0.09634399,-0.3646698,0.9261322,35.30988,3.269363,-33.2384,4.030762,0.3931226,0.554951,-0.5744965,1.0818020000000002,-0.3749822,0.09305109,0.6565869000000001,0.01864422,0.5704936,10.44558,35.33
4,0.08572388,-0.381958,0.9201813,0.3908102,0.0,0.0,0.0,-25.14653,0.9790497,-28.68723,-1.0,0.5642159999999999,0.4611842,0.6712076,0.08572388,-0.381958,0.9201813,35.27985,3.267975,-33.23299,3.892319,0.3955877,0.5573394,-0.574908,1.081838,-0.3723205,0.09571005,0.6523848000000001,0.0223955,0.5704936,10.44558,35.33
4,0.08572388,-0.381958,0.9201813,0.3908102,0.0,0.0,0.0,-25.14653,0.9790497,-28.68723,-1.0,0.5642159999999999,0.4611842,0.6712076,0.08572388,-0.381958,0.9201813,35.27985,3.267975,-33.23299,3.892319,0.3955877,0.5573394,-0.574908,1.081838,-0.3723205,0.09571005,0.6523848000000001,0.0223955,0.5704936,10.44558,35.33
4,0.08572388,-0.381958,0.9201813,0.3908102,0.0,0.0,0.0,-25.14653,0.9790497,-28.68723,-1.0,0.5642159999999999,0.4611842,0.6712076,0.08572388,-0.381958,0.9201813,35.27985,3.267975,-33.23299,3.892319,0.3955877,0.5573394,-0.574908,1.081838,-0.3723205,0.09571005,0.6523848000000001,0.0223955,0.5704936,10.44558,35.33
4,0.08572388,-0.381958,0.9201813,0.3908102,0.0,0.0,0.0,-25.14653,0.9790497,-28.68723,-1.0,0.5642159999999999,0.4611842,0.6712076,0.08572388,-0.381958,0.9201813,35.27985,3.267975,-33.23299,3.892319,0.3955877,0.5573394,-0.575048,1.082042,-0.3702002,0.09639328,0.650221,0.02380058,0.5704936,10.44558,35.33
4,0.08572388,-0.381958,0.9201813,0.3908102,0.0,0.0,0.0,-25.14653,0.9790497,-28.68723,-1.0,0.5642159999999999,0.4611842,0.6712076,0.08572388,-0.381958,0.9201813,35.27985,3.267975,-33.23299,3.892319,0.3955877,0.5573394,-0.575048,1.082042,-0.3702002,0.09639328,0.650221,0.02380058,0.5704936,10.44558,35.33
4,0.08572388,-0.381958,0.9201813,0.3908102,0.0,0.0,0.0,-25.14653,0.9790497,-28.68723,-1.0,0.5642159999999999,0.4611842,0.6712076,0.08572388,-0.381958,0.9201813,35.27985,3.267975,-33.23299,3.892319,0.3955877,0.5573394,-0.575048,1.082042,-0.3702002,0.09639328,0.650221,0.02380058,0.5704936,10.44558,35.33
4,0.08232117,-0.3736877,0.9238892,0.381747,0.0,0.0,0.0,-25.14653,0.9790497,-28.68723,-1.0,0.5648996000000001,0.4660475999999999,0.6575453,0.08232117,-0.3736877,0.9238892,35.265640000000005,3.263351,-33.23195,3.971405,0.3964595999999999,0.5563595,-0.5755889,1.082027,-0.3683754,0.09646942,0.6490905,0.02394368,0.5704936,-2.831059,35.33
4,0.08232117,-0.3736877,0.9238892,0.381747,0.0,0.0,0.0,-25.14653,0.9790497,-28.68723,-1.0,0.5648996000000001,0.4660475999999999,0.6575453,0.08232117,-0.3736877,0.9238892,35.265640000000005,3.263351,-33.23195,3.971405,0.3964595999999999,0.5563595,-0.5755889,1.082027,-0.3683754,0.09646942,0.6490905,0.02394368,0.5704936,-2.831059,35.33
4,0.08232117,-0.3736877,0.9238892,0.381747,0.0,0.0,0.0,-25.14653,0.9790497,-28.68723,-1.0,0.5648996000000001,0.4660475999999999,0.6575453,0.08232117,-0.3736877,0.9238892,35.265640000000005,3.263351,-33.23195,3.971405,0.3964595999999999,0.5563595,-0.5755889,1.082027,-0.3683754,0.09646942,0.6490905,0.02394368,0.5704936,-2.831059,35.33
4,-1.0,-1.0,-1.0,0.05975271,0.0,0.0,0.0,-26.17125,5.523911,-27.74422,-1.0,0.5847102,0.3937815,0.5484893,0.0,0.0,0.0,34.63878,4.625076,-32.79453,-1.0,0.4207991,0.4652544,-0.5759265,1.082419,-0.3663121,0.0960044,0.6461880999999999,0.02431927,0.5704936,-2.831059,35.33
4,-1.0,-1.0,-1.0,0.05975271,0.0,0.0,0.0,-26.17125,5.523911,-27.74422,-1.0,0.5847102,0.3937815,0.5484893,0.0,0.0,0.0,34.63878,4.625076,-32.79453,-1.0,0.4207991,0.4652544,-0.5759265,1.082419,-0.3663121,0.0960044,0.6461880999999999,0.02431927,0.5704936,-2.831059,35.33
4,-1.0,-1.0,-1.0,0.05975271,0.0,0.0,0.0,-26.17125,5.523911,-27.74422,-1.0,0.5847102,0.3937815,0.5484893,0.0,0.0,0.0,34.63878,4.625076,-32.79453,-1.0,0.4207991,0.4652544,-0.5759265,1.082419,-0.3663121,0.0960044,0.6461880999999999,0.02431927,0.5704936,-2.831059,35.33
4,-1.0,-1.0,-1.0,0.4867202999999999,0.0,0.0,0.0,-23.845,3.4812769999999995,-28.10712,-1.0,0.5931247,0.3724967999999999,0.7255115,0.0,0.0,0.0,34.73012,4.40744,-32.48166,-1.0,0.4264217,0.4506911,-0.5763583000000001,1.082601,-0.3643815999999999,0.09538173,0.64244,0.02510779,0.5704936,-2.831059,35.33
4,-1.0,-1.0,-1.0,0.4867202999999999,0.0,0.0,0.0,-23.845,3.4812769999999995,-28.10712,-1.0,0.5931247,0.3724967999999999,0.7255115,0.0,0.0,0.0,34.73012,4.40744,-32.48166,-1.0,0.4264217,0.4506911,-0.5763583000000001,1.082601,-0.3643815999999999,0.09538173,0.64244,0.02510779,0.5704936,-2.831059,35.33
4,-1.0,-1.0,-1.0,0.4867202999999999,0.0,0.0,0.0,-23.845,3.4812769999999995,-28.10712,-1.0,0.5931247,0.3724967999999999,0.7255115,0.0,0.0,0.0,34.73012,4.40744,-32.48166,-1.0,0.4264217,0.4506911,-0.5763583000000001,1.082601,-0.3643815999999999,0.09538173,0.64244,0.02510779,0.5704936,-2.831059,35.33
4,-1.0,-1.0,-1.0,0.5699255,0.0,0.0,0.0,-25.12534,2.515717,-28.44218,-1.0,0.5953599,0.3753265,0.741831,0.0,0.0,0.0,34.7204,4.478729,-32.97473,-1.0,0.4256407,0.4520465,-0.5769169,1.08252,-0.3625855999999999,0.09489485,0.6393386999999999,0.02565118,0.5704936,-2.831059,35.33
4,-1.0,-1.0,-1.0,0.5699255,0.0,0.0,0.0,-25.12534,2.515717,-28.44218,-1.0,0.5953599,0.3753265,0.741831,0.0,0.0,0.0,34.7204,4.478729,-32.97473,-1.0,0.4256407,0.4520465,-0.5769169,1.08252,-0.3625855999999999,0.09489485,0.6393386999999999,0.02565118,0.5704936,-2.831059,35.33
4,-1.0,-1.0,-1.0,0.5699255,0.0,0.0,0.0,-25.12534,2.515717,-28.44218,-1.0,0.5953599,0.3753265,0.741831,0.0,0.0,0.0,34.7204,4.478729,-32.97473,-1.0,0.4256407,0.4520465,-0.5769169,1.08252,-0.3625855999999999,0.09489485,0.6393386999999999,0.02565118,0.5704936,-2.831059,35.33
4,-1.0,-1.0,-1.0,0.5699255,0.0,0.0,0.0,-25.12534,2.515717,-28.44218,-1.0,0.5953599,0.3753265,0.741831,0.0,0.0,0.0,34.7204,4.478729,-32.97473,-1.0,0.4256407,0.4520465,-0.5776834,1.082589,-0.3609622,0.09428582,0.6358921999999999,0.02616878,0.5704936,-2.831059,35.33
4,-1.0,-1.0,-1.0,0.5699255,0.0,0.0,0.0,-25.12534,2.515717,-28.44218,-1.0,0.5953599,0.3753265,0.741831,0.0,0.0,0.0,34.7204,4.478729,-32.97473,-1.0,0.4256407,0.4520465,-0.5776834,1.082589,-0.3609622,0.09428582,0.6358921999999999,0.02616878,0.5704936,-2.831059,35.33
4,-1.0,-1.0,-1.0,0.5699255,0.0,0.0,0.0,-25.12534,2.515717,-28.44218,-1.0,0.5953599,0.3753265,0.741831,0.0,0.0,0.0,34.7204,4.478729,-32.97473,-1.0,0.4256407,0.4520465,-0.5776834,1.082589,-0.3609622,0.09428582,0.6358921999999999,0.02616878,0.5704936,-2.831059,35.33
4,-1.0,-1.0,-1.0,0.5699255,0.0,0.0,0.0,-26.00655,2.415405,-26.92136,-1.0,0.5949385,0.3811522999999999,0.741831,0.0,0.0,0.0,34.70947,4.446716,-33.32193,-1.0,0.4230277,0.4537719,-0.5782980999999999,1.08263,-0.3594714,0.09381447,0.6322646,0.02649249,0.5704936,0.3260136,35.33
4,-1.0,-1.0,-1.0,0.5699255,0.0,0.0,0.0,-26.00655,2.415405,-26.92136,-1.0,0.5949385,0.3811522999999999,0.741831,0.0,0.0,0.0,34.70947,4.446716,-33.32193,-1.0,0.4230277,0.4537719,-0.5782980999999999,1.08263,-0.3594714,0.09381447,0.6322646,0.02649249,0.5704936,0.3260136,35.33
4,-1.0,-1.0,-1.0,0.5699255,0.0,0.0,0.0,-26.00655,2.415405,-26.92136,-1.0,0.5949385,0.3811522999999999,0.741831,0.0,0.0,0.0,34.70947,4.446716,-33.32193,-1.0,0.4230277,0.4537719,-0.5782980999999999,1.08263,-0.3594714,0.09381447,0.6322646,0.02649249,0.5704936,0.3260136,35.33
4,-1.0,-1.0,-1.0,0.5699255,0.0,0.0,0.0,-26.00655,2.415405,-26.92136,-1.0,0.5949385,0.3811522999999999,0.741831,0.0,0.0,0.0,34.70947,4.446716,-33.32193,-1.0,0.4230277,0.4537719,-0.578795,1.082665,-0.358246,0.09401574,0.6298758000000001,0.02759856,0.565368,0.3260136,35.33
4,-1.0,-1.0,-1.0,0.5699255,0.0,0.0,0.0,-26.00655,2.415405,-26.92136,-1.0,0.5949385,0.3811522999999999,0.741831,0.0,0.0,0.0,34.70947,4.446716,-33.32193,-1.0,0.4230277,0.4537719,-0.578795,1.082665,-0.358246,0.09401574,0.6298758000000001,0.02759856,0.565368,0.3260136,35.33
4,-1.0,-1.0,-1.0,0.5699255,0.0,0.0,0.0,-26.00655,2.415405,-26.92136,-1.0,0.5949385,0.3811522999999999,0.741831,0.0,0.0,0.0,34.70947,4.446716,-33.32193,-1.0,0.4230277,0.4537719,-0.578795,1.082665,-0.358246,0.09401574,0.6298758000000001,0.02759856,0.565368,0.3260136,35.33
4,0.01075745,0.1647186,0.9862671,0.7929427,0.0,0.0,0.0,-24.86414,0.1955719,-28.97548,-1.0,0.6048874,0.3840732,0.7964767,0.01075745,0.1647186,0.9862671,34.497209999999995,4.405457,-33.56248,3.910034,0.433381,0.451914,-0.5794336999999999,1.082568,-0.3572279,0.09421381,0.6272583,0.027029,0.565368,0.3260136,35.33
4,0.01075745,0.1647186,0.9862671,0.7929427,0.0,0.0,0.0,-24.86414,0.1955719,-28.97548,-1.0,0.6048874,0.3840732,0.7964767,0.01075745,0.1647186,0.9862671,34.497209999999995,4.405457,-33.56248,3.910034,0.433381,0.451914,-0.5794336999999999,1.082568,-0.3572279,0.09421381,0.6272583,0.027029,0.565368,0.3260136,35.33
4,0.01075745,0.1647186,0.9862671,0.7929427,0.0,0.0,0.0,-24.86414,0.1955719,-28.97548,-1.0,0.6048874,0.3840732,0.7964767,0.01075745,0.1647186,0.9862671,34.497209999999995,4.405457,-33.56248,3.910034,0.433381,0.451914,-0.5794336999999999,1.082568,-0.3572279,0.09421381,0.6272583,0.027029,0.565368,0.3260136,35.33
4,0.0099334719999999,0.1141204999999999,0.9934082,0.7923244,0.0,0.0,0.0,-24.89862,0.2034148999999999,-28.99802,-1.0,0.6082420000000001,0.3894316,0.8015866999999999,0.0099334719999999,0.1141204999999999,0.9934082,34.48232,4.382065,-33.49542,3.948685,0.4339496,0.4583284000000001,-0.5801823,1.082287,-0.3563250999999999,0.09386417,0.6243294,0.02609751,0.565368,0.3260136,35.33
4,0.0099334719999999,0.1141204999999999,0.9934082,0.7923244,0.0,0.0,0.0,-24.89862,0.2034148999999999,-28.99802,-1.0,0.6082420000000001,0.3894316,0.8015866999999999,0.0099334719999999,0.1141204999999999,0.9934082,34.48232,4.382065,-33.49542,3.948685,0.4339496,0.4583284000000001,-0.5801823,1.082287,-0.3563250999999999,0.09386417,0.6243294,0.02609751,0.565368,0.3260136,35.33
4,0.0099334719999999,0.1141204999999999,0.9934082,0.7923244,0.0,0.0,0.0,-24.89862,0.2034148999999999,-28.99802,-1.0,0.6082420000000001,0.3894316,0.8015866999999999,0.0099334719999999,0.1141204999999999,0.9934082,34.48232,4.382065,-33.49542,3.948685,0.4339496,0.4583284000000001,-0.5801823,1.082287,-0.3563250999999999,0.09386417,0.6243294,0.02609751,0.565368,0.3260136,35.33
4,0.0099334719999999,0.1141204999999999,0.9934082,0.7923244,0.0,0.0,0.0,-24.89862,0.2034148999999999,-28.99802,-1.0,0.6082420000000001,0.3894316,0.8015866999999999,0.0099334719999999,0.1141204999999999,0.9934082,34.48232,4.382065,-33.49542,3.948685,0.4339496,0.4583284000000001,-0.5806971,1.082244,-0.3555366,0.09297892,0.6207759,0.02524835,0.565368,0.3260136,35.35
4,0.0099334719999999,0.1141204999999999,0.9934082,0.7923244,0.0,0.0,0.0,-24.89862,0.2034148999999999,-28.99802,-1.0,0.6082420000000001,0.3894316,0.8015866999999999,0.0099334719999999,0.1141204999999999,0.9934082,34.48232,4.382065,-33.49542,3.948685,0.4339496,0.4583284000000001,-0.5806971,1.082244,-0.3555366,0.09297892,0.6207759,0.02524835,0.565368,0.3260136,35.35
4,0.0099334719999999,0.1141204999999999,0.9934082,0.7923244,0.0,0.0,0.0,-24.89862,0.2034148999999999,-28.99802,-1.0,0.6082420000000001,0.3894316,0.8015866999999999,0.0099334719999999,0.1141204999999999,0.9934082,34.48232,4.382065,-33.49542,3.948685,0.4339496,0.4583284000000001,-0.5806971,1.082244,-0.3555366,0.09297892,0.6207759,0.02524835,0.565368,0.3260136,35.35
4,-0.01235962,0.08265686,0.9964905,0.7853864,0.0,0.0,0.0,-24.88361,0.2179107999999999,-29.00117,-1.0,0.6150918000000001,0.3877567,0.8109218,-0.01235962,0.08265686,0.9964905,34.39955,4.390472,-33.40781,3.84903,0.4397302999999999,0.4610848,-0.5810966,1.082314,-0.3550535999999999,0.09158951,0.618598,0.02477456,0.565368,-1.562952,35.35
4,-0.01235962,0.08265686,0.9964905,0.7853864,0.0,0.0,0.0,-24.88361,0.2179107999999999,-29.00117,-1.0,0.6150918000000001,0.3877567,0.8109218,-0.01235962,0.08265686,0.9964905,34.39955,4.390472,-33.40781,3.84903,0.4397302999999999,0.4610848,-0.5810966,1.082314,-0.3550535999999999,0.09158951,0.618598,0.02477456,0.565368,-1.562952,35.35
4,-0.01235962,0.08265686,0.9964905,0.7853864,0.0,0.0,0.0,-24.88361,0.2179107999999999,-29.00117,-1.0,0.6150918000000001,0.3877567,0.8109218,-0.01235962,0.08265686,0.9964905,34.39955,4.390472,-33.40781,3.84903,0.4397302999999999,0.4610848,-0.5810966,1.082314,-0.3550535999999999,0.09158951,0.618598,0.02477456,0.565368,-1.562952,35.35
4,-0.0158844,0.08821106,0.9959717,0.8073198,0.0,0.0,0.0,-24.88361,0.2179107999999999,-29.00117,-1.0,0.6164544,0.3850574,0.8104847,-0.0158844,0.08821106,0.9959717,34.37993,4.40889,-33.50188,3.930832,0.4407004,0.460683,-0.581368,1.082149,-0.3549972,0.09087251,0.6168244,0.02363613,0.565368,-1.562952,35.35
4,-0.0158844,0.08821106,0.9959717,0.8073198,0.0,0.0,0.0,-24.88361,0.2179107999999999,-29.00117,-1.0,0.6164544,0.3850574,0.8104847,-0.0158844,0.08821106,0.9959717,34.37993,4.40889,-33.50188,3.930832,0.4407004,0.460683,-0.581368,1.082149,-0.3549972,0.09087251,0.6168244,0.02363613,0.565368,-1.562952,35.35
4,-0.0158844,0.08821106,0.9959717,0.8073198,0.0,0.0,0.0,-24.88361,0.2179107999999999,-29.00117,-1.0,0.6164544,0.3850574,0.8104847,-0.0158844,0.08821106,0.9959717,34.37993,4.40889,-33.50188,3.930832,0.4407004,0.460683,-0.581368,1.082149,-0.3549972,0.09087251,0.6168244,0.02363613,0.565368,-1.562952,35.35
4,-0.0158844,0.08821106,0.9959717,0.8073198,0.0,0.0,0.0,-24.88361,0.2179107999999999,-29.00117,-1.0,0.6164544,0.3850574,0.8104847,-0.0158844,0.08821106,0.9959717,34.37993,4.40889,-33.50188,3.930832,0.4407004,0.460683,-0.5815609,1.082296,-0.3551337,0.08954471,0.6160078,0.02334704,0.565368,-1.562952,35.35
