Second,eye_comb_direction_x,eye_comb_direction_y,eye_comb_direction_z,eye_r_openness,eye_r_direction_x,eye_r_direction_y,eye_r_direction_z,eye_r_origin_x,eye_r_origin_y,eye_r_origin_z,eye_r_pupil_diameter,eye_r_pupil_position_x,eye_r_pupil_position_y,eye_l_openness,eye_l_direction_x,eye_l_direction_y,eye_l_direction_z,eye_l_origin_x,eye_l_origin_y,eye_l_origin_z,eye_l_pupil_diameter,eye_l_pupil_position_x,eye_l_pupil_position_y,head_position_x,head_position_y,head_position_z,head_rotation_roll,head_rotation_pitch,head_rotation_yaw,EDA,BVP,TMP
0,-0.2275085,-0.0824585,0.9702606,1.0,-0.2649994,-0.09519958,0.9595337,-33.73518,8.896622,-29.50003,3.831314,0.6192926999999999,0.305587,1.0,-0.09677124,-0.03797913,0.9945679,35.10687,6.197495,-31.00764,4.106339,0.4269055,0.3933667999999999,-0.5672096999999999,1.094416,-0.3803743,-0.00849113,0.6013746999999999,-0.04847061,0.43979,0.41291166757741343,34.90534738485558
0,-0.2275085,-0.0824585,0.9702606,1.0,-0.2649994,-0.09519958,0.9595337,-33.73518,8.896622,-29.50003,3.831314,0.6192926999999999,0.305587,1.0,-0.09677124,-0.03797913,0.9945679,35.10687,6.197495,-31.00764,4.106339,0.4269055,0.3933667999999999,-0.5672096999999999,1.094416,-0.3803743,-0.00849113,0.6013746999999999,-0.04847061,0.43979,0.41291166757741343,34.90534738485558
0,-0.2275085,-0.0824585,0.9702606,1.0,-0.2649994,-0.09519958,0.9595337,-33.73518,8.896622,-29.50003,3.831314,0.6192926999999999,0.305587,1.0,-0.09677124,-0.03797913,0.9945679,35.10687,6.197495,-31.00764,4.106339,0.4269055,0.3933667999999999,-0.5672096999999999,1.094416,-0.3803743,-0.00849113,0.6013746999999999,-0.04847061,0.43979,0.41291166757741343,34.90534738485558
0,-0.3128052,-0.1006011999999999,0.944458,1.0,-0.3132172,-0.1008148,0.9443054,-33.99077,8.91124,-29.55392,3.760361,0.6345319,0.3061031,1.0,-0.1863861,-0.03733826,0.9817657,34.80296,6.154449,-30.815,3.552856,0.4490832,0.3937989999999999,-0.5663779,1.093851,-0.3836991,-0.008135324,0.6139054,-0.05092988,0.43979,0.41291166757741343,34.90534738485558
0,-0.3128052,-0.1006011999999999,0.944458,1.0,-0.3132172,-0.1008148,0.9443054,-33.99077,8.91124,-29.55392,3.760361,0.6345319,0.3061031,1.0,-0.1863861,-0.03733826,0.9817657,34.80296,6.154449,-30.815,3.552856,0.4490832,0.3937989999999999,-0.5663779,1.093851,-0.3836991,-0.008135324,0.6139054,-0.05092988,0.43979,0.41291166757741343,34.90534738485558
0,-0.3128052,-0.1006011999999999,0.944458,1.0,-0.3132172,-0.1008148,0.9443054,-33.99077,8.91124,-29.55392,3.760361,0.6345319,0.3061031,1.0,-0.1863861,-0.03733826,0.9817657,34.80296,6.154449,-30.815,3.552856,0.4490832,0.3937989999999999,-0.5663779,1.093851,-0.3836991,-0.008135324,0.6139054,-0.05092988,0.43979,0.41291166757741343,34.90534738485558
0,-0.3762512,-0.09642029,0.9214783,1.0,-0.3777924,-0.09687805,0.9207916,-34.18205,8.92482,-29.62898,3.809326,0.6499156999999999,0.305645,1.0,-0.2276154,-0.05186462,0.9723511,34.549240000000005,6.240067,-30.8734,3.643799,0.4625795,0.3935916,-0.5659776,1.093341,-0.3860870999999999,-0.008406028,0.6224347,-0.05285828,0.43979,0.41291166757741343,34.90534738485558
0,-0.3762512,-0.09642029,0.9214783,1.0,-0.3777924,-0.09687805,0.9207916,-34.18205,8.92482,-29.62898,3.809326,0.6499156999999999,0.305645,1.0,-0.2276154,-0.05186462,0.9723511,34.549240000000005,6.240067,-30.8734,3.643799,0.4625795,0.3935916,-0.5659776,1.093341,-0.3860870999999999,-0.008406028,0.6224347,-0.05285828,0.43979,0.41291166757741343,34.90534738485558
0,-0.3762512,-0.09642029,0.9214783,1.0,-0.3777924,-0.09687805,0.9207916,-34.18205,8.92482,-29.62898,3.809326,0.6499156999999999,0.305645,1.0,-0.2276154,-0.05186462,0.9723511,34.549240000000005,6.240067,-30.8734,3.643799,0.4625795,0.3935916,-0.5659776,1.093341,-0.3860870999999999,-0.008406028,0.6224347,-0.05285828,0.43979,0.41291166757741343,34.90534738485558
0,-0.3564757999999999,-0.1090698,0.9279022,1.0,-0.3601837,-0.1104583999999999,0.9263,-34.08762,8.945022999999999,-29.58406,3.744888,0.6441437,0.3063750999999999,1.0,-0.223053,-0.05899048,0.9730072,34.63612,6.280457,-30.83902,3.836182,0.4587305,0.3927915,-0.5651014,1.092847,-0.3895218,-0.009448038,0.6344571,-0.05618624,0.43979,0.41291166757741343,34.90534738485558
0,-0.3564757999999999,-0.1090698,0.9279022,1.0,-0.3601837,-0.1104583999999999,0.9263,-34.08762,8.945022999999999,-29.58406,3.744888,0.6441437,0.3063750999999999,1.0,-0.223053,-0.05899048,0.9730072,34.63612,6.280457,-30.83902,3.836182,0.4587305,0.3927915,-0.5651014,1.092847,-0.3895218,-0.009448038,0.6344571,-0.05618624,0.43979,0.41291166757741343,34.90534738485558
0,-0.3564757999999999,-0.1090698,0.9279022,1.0,-0.3601837,-0.1104583999999999,0.9263,-34.08762,8.945022999999999,-29.58406,3.744888,0.6441437,0.3063750999999999,1.0,-0.223053,-0.05899048,0.9730072,34.63612,6.280457,-30.83902,3.836182,0.4587305,0.3927915,-0.5651014,1.092847,-0.3895218,-0.009448038,0.6344571,-0.05618624,0.43979,0.41291166757741343,34.90534738485558
0,-0.2454071,-0.03364563,0.9688263,1.0,-0.3387299,-0.06776428,0.9384308,-33.9277,8.976364,-29.55208,3.639114,0.6356645000000001,0.2996158,1.0,-0.1954041,-0.01560974,0.9805908,34.86331,6.223572,-30.826,3.680969,0.4479037999999999,0.3889352,-0.5643208000000001,1.09226,-0.3928563,-0.0104254,0.644861,-0.05936986,0.43979,0.41291166757741343,34.90534738485558
0,-0.2454071,-0.03364563,0.9688263,1.0,-0.3387299,-0.06776428,0.9384308,-33.9277,8.976364,-29.55208,3.639114,0.6356645000000001,0.2996158,1.0,-0.1954041,-0.01560974,0.9805908,34.86331,6.223572,-30.826,3.680969,0.4479037999999999,0.3889352,-0.5643208000000001,1.09226,-0.3928563,-0.0104254,0.644861,-0.05936986,0.43979,0.41291166757741343,34.90534738485558
0,-0.2454071,-0.03364563,0.9688263,1.0,-0.3387299,-0.06776428,0.9384308,-33.9277,8.976364,-29.55208,3.639114,0.6356645000000001,0.2996158,1.0,-0.1954041,-0.01560974,0.9805908,34.86331,6.223572,-30.826,3.680969,0.4479037999999999,0.3889352,-0.5643208000000001,1.09226,-0.3928563,-0.0104254,0.644861,-0.05936986,0.43979,0.41291166757741343,34.90534738485558
0,-0.1957397,-0.05160522,0.9792786,1.0,-0.2926788,-0.08564758,0.9523621,-33.7663,9.026672,-29.48677,3.5283809999999995,0.6238840999999999,0.299634,1.0,-0.1433411,-0.03327942,0.9891052,35.04182,6.223236,-30.8197,3.599106,0.4356345999999999,0.3905511,-0.5639851,1.091777,-0.3949603,-0.01074739,0.6507076999999999,-0.06155255,0.43979,0.41291166757741343,34.90534738485558
0,-0.1957397,-0.05160522,0.9792786,1.0,-0.2926788,-0.08564758,0.9523621,-33.7663,9.026672,-29.48677,3.5283809999999995,0.6238840999999999,0.299634,1.0,-0.1433411,-0.03327942,0.9891052,35.04182,6.223236,-30.8197,3.599106,0.4356345999999999,0.3905511,-0.5639851,1.091777,-0.3949603,-0.01074739,0.6507076999999999,-0.06155255,0.43979,0.41291166757741343,34.90534738485558
0,-0.1957397,-0.05160522,0.9792786,1.0,-0.2926788,-0.08564758,0.9523621,-33.7663,9.026672,-29.48677,3.5283809999999995,0.6238840999999999,0.299634,1.0,-0.1433411,-0.03327942,0.9891052,35.04182,6.223236,-30.8197,3.599106,0.4356345999999999,0.3905511,-0.5639851,1.091777,-0.3949603,-0.01074739,0.6507076999999999,-0.06155255,0.43979,0.41291166757741343,34.90534738485558
0,-0.1847992,-0.05407715,0.9812775,1.0,-0.2514038,-0.08575439,0.9640656,-33.67136,9.050842,-29.45276,3.620804,0.6153135999999999,0.298459,1.0,-0.138916,-0.03237915,0.9897614,35.163270000000004,6.23526,-30.905590000000004,3.778946,0.4305771,0.3906772,-0.5635009,1.091094,-0.3977967,-0.0112142,0.6577217,-0.06500683,0.43979,14.71918,34.90534738485558
0,-0.1847992,-0.05407715,0.9812775,1.0,-0.2514038,-0.08575439,0.9640656,-33.67136,9.050842,-29.45276,3.620804,0.6153135999999999,0.298459,1.0,-0.138916,-0.03237915,0.9897614,35.163270000000004,6.23526,-30.905590000000004,3.778946,0.4305771,0.3906772,-0.5635009,1.091094,-0.3977967,-0.0112142,0.6577217,-0.06500683,0.43979,14.71918,34.90534738485558
0,-0.1847992,-0.05407715,0.9812775,1.0,-0.2514038,-0.08575439,0.9640656,-33.67136,9.050842,-29.45276,3.620804,0.6153135999999999,0.298459,1.0,-0.138916,-0.03237915,0.9897614,35.163270000000004,6.23526,-30.905590000000004,3.778946,0.4305771,0.3906772,-0.5635009,1.091094,-0.3977967,-0.0112142,0.6577217,-0.06500683,0.43979,14.71918,34.90534738485558
0,-0.2692719,-0.0904541,0.9588013,1.0,-0.2692719,-0.0904541,0.9588013,-33.41936,9.090912,-29.42819,3.594818,0.6086513000000001,0.297712,1.0,-0.06536865,-0.01823425,0.9976807,35.22314,6.630524,-32.56131,3.403992,0.4189226,0.387629,-0.562737,1.090585,-0.400043,-0.01148564,0.6628436,-0.06858755,0.43979,14.71918,34.90534738485558
0,-0.2692719,-0.0904541,0.9588013,1.0,-0.2692719,-0.0904541,0.9588013,-33.41936,9.090912,-29.42819,3.594818,0.6086513000000001,0.297712,1.0,-0.06536865,-0.01823425,0.9976807,35.22314,6.630524,-32.56131,3.403992,0.4189226,0.387629,-0.562737,1.090585,-0.400043,-0.01148564,0.6628436,-0.06858755,0.43979,14.71918,34.90534738485558
0,-0.2692719,-0.0904541,0.9588013,1.0,-0.2692719,-0.0904541,0.9588013,-33.41936,9.090912,-29.42819,3.594818,0.6086513000000001,0.297712,1.0,-0.06536865,-0.01823425,0.9976807,35.22314,6.630524,-32.56131,3.403992,0.4189226,0.387629,-0.562737,1.090585,-0.400043,-0.01148564,0.6628436,-0.06858755,0.43979,14.71918,34.90534738485558
0,-0.2493744,-0.06813049,0.9660034,1.0,-0.2493744,-0.06813049,0.9660034,-33.37506,9.115189,-29.56667,3.3417510000000004,0.6046704,0.2949795,1.0,-0.07197571,-0.02111816,0.9971771,35.32962,6.60878,-32.3942,3.639359,0.4157884,0.3874790999999999,-0.5621779,1.089887,-0.4021881,-0.01147623,0.6670986,-0.07217355,0.43979,14.71918,34.90534738485558
0,-0.2493744,-0.06813049,0.9660034,1.0,-0.2493744,-0.06813049,0.9660034,-33.37506,9.115189,-29.56667,3.3417510000000004,0.6046704,0.2949795,1.0,-0.07197571,-0.02111816,0.9971771,35.32962,6.60878,-32.3942,3.639359,0.4157884,0.3874790999999999,-0.5621779,1.089887,-0.4021881,-0.01147623,0.6670986,-0.07217355,0.43979,14.71918,34.90534738485558
0,-0.2493744,-0.06813049,0.9660034,1.0,-0.2493744,-0.06813049,0.9660034,-33.37506,9.115189,-29.56667,3.3417510000000004,0.6046704,0.2949795,1.0,-0.07197571,-0.02111816,0.9971771,35.32962,6.60878,-32.3942,3.639359,0.4157884,0.3874790999999999,-0.5621779,1.089887,-0.4021881,-0.01147623,0.6670986,-0.07217355,0.43979,14.71918,34.90534738485558
0,-0.2205811,-0.06109619,0.9734497,1.0,-0.2205962999999999,-0.06109619,0.9734344,-33.35703,9.17041,-29.76277,3.34819,0.6006823,0.2934396999999999,1.0,-0.05909729,-0.02940369,0.997818,35.366,6.597549000000001,-32.33531,3.4758150000000003,0.4132292,0.3882731,-0.5611854000000001,1.089344,-0.4042034,-0.01195448,0.6698848000000001,-0.07616889,0.43979,14.71918,34.90534738485558
0,-0.2205811,-0.06109619,0.9734497,1.0,-0.2205962999999999,-0.06109619,0.9734344,-33.35703,9.17041,-29.76277,3.34819,0.6006823,0.2934396999999999,1.0,-0.05909729,-0.02940369,0.997818,35.366,6.597549000000001,-32.33531,3.4758150000000003,0.4132292,0.3882731,-0.5611854000000001,1.089344,-0.4042034,-0.01195448,0.6698848000000001,-0.07616889,0.43979,14.71918,34.90534738485558
0,-0.2205811,-0.06109619,0.9734497,1.0,-0.2205962999999999,-0.06109619,0.9734344,-33.35703,9.17041,-29.76277,3.34819,0.6006823,0.2934396999999999,1.0,-0.05909729,-0.02940369,0.997818,35.366,6.597549000000001,-32.33531,3.4758150000000003,0.4132292,0.3882731,-0.5611854000000001,1.089344,-0.4042034,-0.01195448,0.6698848000000001,-0.07616889,0.43979,14.71918,34.90534738485558
0,-0.1764221,-0.05450439,0.9827881,1.0,-0.2008362,-0.05851746,0.9778595,-33.32889,9.205109,-29.8206,3.4100650000000003,0.5973495,0.2922118,1.0,-0.0478363,-0.03308105,0.9983063,35.47905,6.510376,-31.7921,3.487518,0.4083682,0.3873444,-0.5606508000000001,1.0892620000000002,-0.4049587999999999,-0.01264769,0.6706823000000001,-0.07780841,0.43979,14.71918,34.90534738485558
0,-0.1764221,-0.05450439,0.9827881,1.0,-0.2008362,-0.05851746,0.9778595,-33.32889,9.205109,-29.8206,3.4100650000000003,0.5973495,0.2922118,1.0,-0.0478363,-0.03308105,0.9983063,35.47905,6.510376,-31.7921,3.487518,0.4083682,0.3873444,-0.5606508000000001,1.0892620000000002,-0.4049587999999999,-0.01264769,0.6706823000000001,-0.07780841,0.43979,14.71918,34.90534738485558
0,-0.1764221,-0.05450439,0.9827881,1.0,-0.2008362,-0.05851746,0.9778595,-33.32889,9.205109,-29.8206,3.4100650000000003,0.5973495,0.2922118,1.0,-0.0478363,-0.03308105,0.9983063,35.47905,6.510376,-31.7921,3.487518,0.4083682,0.3873444,-0.5606508000000001,1.0892620000000002,-0.4049587999999999,-0.01264769,0.6706823000000001,-0.07780841,0.43979,14.71918,34.90534738485558
0,-0.04440308,-0.02848816,0.9985962,1.0,-0.1686096,-0.04804993,0.9844971,-33.257,9.406036,-30.58347,3.342026,0.5917222,0.2889927,1.0,-0.04434204,-0.0284729,0.9985962,35.49524,6.528839,-31.86324,3.4846190000000004,0.4073257999999999,0.3866718,-0.5601691999999999,1.089129,-0.4056188,-0.0130201,0.671362,-0.0792138999999999,0.43979,14.71918,34.90534738485558
0,-0.04440308,-0.02848816,0.9985962,1.0,-0.1686096,-0.04804993,0.9844971,-33.257,9.406036,-30.58347,3.342026,0.5917222,0.2889927,1.0,-0.04434204,-0.0284729,0.9985962,35.49524,6.528839,-31.86324,3.4846190000000004,0.4073257999999999,0.3866718,-0.5601691999999999,1.089129,-0.4056188,-0.0130201,0.671362,-0.0792138999999999,0.43979,14.71918,34.90534738485558
0,-0.04440308,-0.02848816,0.9985962,1.0,-0.1686096,-0.04804993,0.9844971,-33.257,9.406036,-30.58347,3.342026,0.5917222,0.2889927,1.0,-0.04434204,-0.0284729,0.9985962,35.49524,6.528839,-31.86324,3.4846190000000004,0.4073257999999999,0.3866718,-0.5601691999999999,1.089129,-0.4056188,-0.0130201,0.671362,-0.0792138999999999,0.43979,14.71918,34.90534738485558
0,-0.04278564,-0.03004456,0.9986267,1.0,-0.1649322999999999,-0.05381775,0.9848328000000002,-33.25162,9.413956,-30.61906,3.363815,0.5911135999999999,0.2897075999999999,1.0,-0.04275513,-0.03004456,0.9986267,35.49747,6.5293730000000005,-31.86699,3.4791870000000005,0.4070584,0.3868645,-0.5596675999999999,1.089041,-0.4061082,-0.01306438,0.671542,-0.08039273,0.43979,-88.40887,35.25
0,-0.04278564,-0.03004456,0.9986267,1.0,-0.1649322999999999,-0.05381775,0.9848328000000002,-33.25162,9.413956,-30.61906,3.363815,0.5911135999999999,0.2897075999999999,1.0,-0.04275513,-0.03004456,0.9986267,35.49747,6.5293730000000005,-31.86699,3.4791870000000005,0.4070584,0.3868645,-0.5596675999999999,1.089041,-0.4061082,-0.01306438,0.671542,-0.08039273,0.43979,-88.40887,35.25
0,-0.04278564,-0.03004456,0.9986267,1.0,-0.1649322999999999,-0.05381775,0.9848328000000002,-33.25162,9.413956,-30.61906,3.363815,0.5911135999999999,0.2897075999999999,1.0,-0.04275513,-0.03004456,0.9986267,35.49747,6.5293730000000005,-31.86699,3.4791870000000005,0.4070584,0.3868645,-0.5596675999999999,1.089041,-0.4061082,-0.01306438,0.671542,-0.08039273,0.43979,-88.40887,35.25
0,-0.04301453,-0.03030396,0.9986115,1.0,-0.1573486,-0.0512085,0.9862061,-33.23726,9.417892,-30.64984,3.359909,0.5896932,0.2894441,1.0,-0.0403595,-0.02981567,0.9987335,35.5027,6.526459,-31.84392,3.476593,0.4066087,0.3867385,-0.5586255,1.089085,-0.4067491,-0.01366561,0.6707655,-0.08232098,0.43979,-88.40887,35.25
0,-0.04301453,-0.03030396,0.9986115,1.0,-0.1573486,-0.0512085,0.9862061,-33.23726,9.417892,-30.64984,3.359909,0.5896932,0.2894441,1.0,-0.0403595,-0.02981567,0.9987335,35.5027,6.526459,-31.84392,3.476593,0.4066087,0.3867385,-0.5586255,1.089085,-0.4067491,-0.01366561,0.6707655,-0.08232098,0.43979,-88.40887,35.25
0,-0.04301453,-0.03030396,0.9986115,1.0,-0.1573486,-0.0512085,0.9862061,-33.23726,9.417892,-30.64984,3.359909,0.5896932,0.2894441,1.0,-0.0403595,-0.02981567,0.9987335,35.5027,6.526459,-31.84392,3.476593,0.4066087,0.3867385,-0.5586255,1.089085,-0.4067491,-0.01366561,0.6707655,-0.08232098,0.43979,-88.40887,35.25
0,-0.1430359,0.01705933,0.989563,1.0,-0.1449432,0.01631165,0.9892883,-33.011140000000005,9.536026,-29.61293,3.279938,0.5796053000000001,0.2681129,1.0,-0.02574158,0.06257629,0.9976959,35.65031,6.631287,-31.1601,3.512192,0.4003335999999999,0.3661861,-0.5586255,1.089085,-0.4067491,-0.01366561,0.6707655,-0.08232098,0.43979,-88.40887,35.25
0,-0.1430359,0.01705933,0.989563,1.0,-0.1449432,0.01631165,0.9892883,-33.011140000000005,9.536026,-29.61293,3.279938,0.5796053000000001,0.2681129,1.0,-0.02574158,0.06257629,0.9976959,35.65031,6.631287,-31.1601,3.512192,0.4003335999999999,0.3661861,-0.5586255,1.089085,-0.4067491,-0.01366561,0.6707655,-0.08232098,0.43979,-88.40887,35.25
0,-0.1430359,0.01705933,0.989563,1.0,-0.1449432,0.01631165,0.9892883,-33.011140000000005,9.536026,-29.61293,3.279938,0.5796053000000001,0.2681129,1.0,-0.02574158,0.06257629,0.9976959,35.65031,6.631287,-31.1601,3.512192,0.4003335999999999,0.3661861,-0.5586255,1.089085,-0.4067491,-0.01366561,0.6707655,-0.08232098,0.43979,-88.40887,35.25
0,-0.03422546,0.06340027,0.9973907,1.0,-0.1357727,0.01501465,0.9906158000000002,-33.04755,9.470428,-29.24776,3.3143769999999995,0.5792130999999999,0.2687247,1.0,-0.03422546,0.06340027,0.9973907,35.646770000000004,6.655272999999999,-31.22395,3.581589,0.4013244,0.3658177,-0.5581396,1.0893469999999998,-0.4067008,-0.0139937,0.6697743,-0.08229645,0.43979,-88.40887,35.25
0,-0.03422546,0.06340027,0.9973907,1.0,-0.1357727,0.01501465,0.9906158000000002,-33.04755,9.470428,-29.24776,3.3143769999999995,0.5792130999999999,0.2687247,1.0,-0.03422546,0.06340027,0.9973907,35.646770000000004,6.655272999999999,-31.22395,3.581589,0.4013244,0.3658177,-0.5581396,1.0893469999999998,-0.4067008,-0.0139937,0.6697743,-0.08229645,0.43979,-88.40887,35.25
0,-0.03422546,0.06340027,0.9973907,1.0,-0.1357727,0.01501465,0.9906158000000002,-33.04755,9.470428,-29.24776,3.3143769999999995,0.5792130999999999,0.2687247,1.0,-0.03422546,0.06340027,0.9973907,35.646770000000004,6.655272999999999,-31.22395,3.581589,0.4013244,0.3658177,-0.5581396,1.0893469999999998,-0.4067008,-0.0139937,0.6697743,-0.08229645,0.43979,-88.40887,35.25
0,-0.02828979,0.06811523,0.9972687,1.0,-0.1392822,0.01647949,0.9901123,-33.06534,9.449554,-29.199070000000003,3.328522,0.5801861999999999,0.2690969,1.0,-0.02828979,0.06811523,0.9972687,35.6503,6.625778,-31.1841,3.505295,0.4006298,0.365885,-0.5578797,1.089402,-0.4066389,-0.01356464,0.6691108,-0.08211023,0.43979,-88.40887,35.25
0,-0.02828979,0.06811523,0.9972687,1.0,-0.1392822,0.01647949,0.9901123,-33.06534,9.449554,-29.199070000000003,3.328522,0.5801861999999999,0.2690969,1.0,-0.02828979,0.06811523,0.9972687,35.6503,6.625778,-31.1841,3.505295,0.4006298,0.365885,-0.5578797,1.089402,-0.4066389,-0.01356464,0.6691108,-0.08211023,0.43979,-88.40887,35.25
0,-0.02828979,0.06811523,0.9972687,1.0,-0.1392822,0.01647949,0.9901123,-33.06534,9.449554,-29.199070000000003,3.328522,0.5801861999999999,0.2690969,1.0,-0.02828979,0.06811523,0.9972687,35.6503,6.625778,-31.1841,3.505295,0.4006298,0.365885,-0.5578797,1.089402,-0.4066389,-0.01356464,0.6691108,-0.08211023,0.43979,-88.40887,35.25
0,-0.03974915,0.05278015,0.9978027,1.0,-0.1490326,0.009048462,0.9887848,-33.04903,9.449554,-29.12425,3.292587,0.5806918000000001,0.2695743,1.0,-0.02566528,0.05834961,0.9979553,35.649370000000005,6.612717,-31.17627,3.4779660000000003,0.4003873,0.3674482,-0.5575364,1.0894549999999998,-0.4063179,-0.01282581,0.6684414000000001,-0.08218737,0.43979,-88.40887,35.25
0,-0.03974915,0.05278015,0.9978027,1.0,-0.1490326,0.009048462,0.9887848,-33.04903,9.449554,-29.12425,3.292587,0.5806918000000001,0.2695743,1.0,-0.02566528,0.05834961,0.9979553,35.649370000000005,6.612717,-31.17627,3.4779660000000003,0.4003873,0.3674482,-0.5575364,1.0894549999999998,-0.4063179,-0.01282581,0.6684414000000001,-0.08218737,0.43979,-88.40887,35.25
0,-0.03974915,0.05278015,0.9978027,1.0,-0.1490326,0.009048462,0.9887848,-33.04903,9.449554,-29.12425,3.292587,0.5806918000000001,0.2695743,1.0,-0.02566528,0.05834961,0.9979553,35.649370000000005,6.612717,-31.17627,3.4779660000000003,0.4003873,0.3674482,-0.5575364,1.0894549999999998,-0.4063179,-0.01282581,0.6684414000000001,-0.08218737,0.43979,-88.40887,35.25
0,-0.06942749,0.04112244,0.9967346,1.0,-0.1556854,0.008453369,0.9877625,-33.04903,9.459579,-29.199070000000003,3.248032,0.5815561,0.2698185,1.0,-0.02520752,0.05763245,0.9980164,35.64932,6.604919000000001,-31.17067,3.443512,0.4003873,0.3677442999999999,-0.5571063,1.089557,-0.4057671,-0.01199119,0.6678624,-0.08233789,0.43979,77.27254,35.25
0,-0.06942749,0.04112244,0.9967346,1.0,-0.1556854,0.008453369,0.9877625,-33.04903,9.459579,-29.199070000000003,3.248032,0.5815561,0.2698185,1.0,-0.02520752,0.05763245,0.9980164,35.64932,6.604919000000001,-31.17067,3.443512,0.4003873,0.3677442999999999,-0.5571063,1.089557,-0.4057671,-0.01199119,0.6678624,-0.08233789,0.43979,77.27254,35.25
0,-0.06942749,0.04112244,0.9967346,1.0,-0.1556854,0.008453369,0.9877625,-33.04903,9.459579,-29.199070000000003,3.248032,0.5815561,0.2698185,1.0,-0.02520752,0.05763245,0.9980164,35.64932,6.604919000000001,-31.17067,3.443512,0.4003873,0.3677442999999999,-0.5571063,1.089557,-0.4057671,-0.01199119,0.6678624,-0.08233789,0.43979,77.27254,35.25
0,-0.06240845,0.03979492,0.9972534,1.0,-0.1553192,0.008407593,0.9878235,-33.05287,9.467941,-29.25125,3.239166,0.5816985,0.2698662,1.0,-0.02337646,0.05281067,0.9983215,35.64835,6.592575,-31.16452,3.3902589999999995,0.4002765,0.368682,-0.5570816999999999,1.089435,-0.4054372,-0.01122051,0.6675904,-0.08250301,0.43979,77.27254,35.25
0,-0.06240845,0.03979492,0.9972534,1.0,-0.1553192,0.008407593,0.9878235,-33.05287,9.467941,-29.25125,3.239166,0.5816985,0.2698662,1.0,-0.02337646,0.05281067,0.9983215,35.64835,6.592575,-31.16452,3.3902589999999995,0.4002765,0.368682,-0.5570816999999999,1.089435,-0.4054372,-0.01122051,0.6675904,-0.08250301,0.43979,77.27254,35.25
0,-0.06240845,0.03979492,0.9972534,1.0,-0.1553192,0.008407593,0.9878235,-33.05287,9.467941,-29.25125,3.239166,0.5816985,0.2698662,1.0,-0.02337646,0.05281067,0.9983215,35.64835,6.592575,-31.16452,3.3902589999999995,0.4002765,0.368682,-0.5570816999999999,1.089435,-0.4054372,-0.01122051,0.6675904,-0.08250301,0.43979,77.27254,35.25
1,-0.05882263,0.03959656,0.9974823,1.0,-0.1601257,0.008560181,0.9870453,-33.05463,9.476776,-29.300890000000003,3.209,0.5823813,0.2699028,1.0,-0.02163696,0.05082703,0.9984589,35.64804,6.58403,-31.14891,3.319824,0.4001878,0.3690620999999999,-0.5570835999999999,1.089284,-0.4050485,-0.01012853,0.6673296,-0.0831016,0.43979,77.27254,35.25
1,-0.05882263,0.03959656,0.9974823,1.0,-0.1601257,0.008560181,0.9870453,-33.05463,9.476776,-29.300890000000003,3.209,0.5823813,0.2699028,1.0,-0.02163696,0.05082703,0.9984589,35.64804,6.58403,-31.14891,3.319824,0.4001878,0.3690620999999999,-0.5570835999999999,1.089284,-0.4050485,-0.01012853,0.6673296,-0.0831016,0.43979,77.27254,35.25
1,-0.05882263,0.03959656,0.9974823,1.0,-0.1601257,0.008560181,0.9870453,-33.05463,9.476776,-29.300890000000003,3.209,0.5823813,0.2699028,1.0,-0.02163696,0.05082703,0.9984589,35.64804,6.58403,-31.14891,3.319824,0.4001878,0.3690620999999999,-0.5570835999999999,1.089284,-0.4050485,-0.01012853,0.6673296,-0.0831016,0.43979,77.27254,35.25
1,-0.02882385,0.04034424,0.998764,1.0,-0.1571503,0.007751465,0.9875336,-33.07968,9.522949,-29.64313,3.116409,0.5831844,0.2707012,1.0,-0.01643372,0.04345703,0.9989166,35.63107,6.552536,-31.09795,3.246307,0.4002924,0.3706116,-0.5572956,1.089034,-0.4046276,-0.008830081,0.6669366,-0.08372293,0.43979,77.27254,35.25
1,-0.02882385,0.04034424,0.998764,1.0,-0.1571503,0.007751465,0.9875336,-33.07968,9.522949,-29.64313,3.116409,0.5831844,0.2707012,1.0,-0.01643372,0.04345703,0.9989166,35.63107,6.552536,-31.09795,3.246307,0.4002924,0.3706116,-0.5572956,1.089034,-0.4046276,-0.008830081,0.6669366,-0.08372293,0.43979,77.27254,35.25
1,-0.02882385,0.04034424,0.998764,1.0,-0.1571503,0.007751465,0.9875336,-33.07968,9.522949,-29.64313,3.116409,0.5831844,0.2707012,1.0,-0.01643372,0.04345703,0.9989166,35.63107,6.552536,-31.09795,3.246307,0.4002924,0.3706116,-0.5572956,1.089034,-0.4046276,-0.008830081,0.6669366,-0.08372293,0.43979,77.27254,35.25
1,-0.02055359,0.02722168,0.9994049,1.0,-0.1562194999999999,0.008773804,0.9876709,-33.08409,9.522949,-29.70427,3.09227,0.583277,0.2709567,1.0,-0.01547241,0.02790833,0.9994812,35.62979,6.547333,-31.07918,3.179367,0.4003239999999999,0.3725255,-0.5572224,1.088909,-0.4041035,-0.008089404,0.6662395000000001,-0.08430655,0.43979,77.27254,35.25
1,-0.02055359,0.02722168,0.9994049,1.0,-0.1562194999999999,0.008773804,0.9876709,-33.08409,9.522949,-29.70427,3.09227,0.583277,0.2709567,1.0,-0.01547241,0.02790833,0.9994812,35.62979,6.547333,-31.07918,3.179367,0.4003239999999999,0.3725255,-0.5572224,1.088909,-0.4041035,-0.008089404,0.6662395000000001,-0.08430655,0.43979,77.27254,35.25
1,-0.02055359,0.02722168,0.9994049,1.0,-0.1562194999999999,0.008773804,0.9876709,-33.08409,9.522949,-29.70427,3.09227,0.583277,0.2709567,1.0,-0.01547241,0.02790833,0.9994812,35.62979,6.547333,-31.07918,3.179367,0.4003239999999999,0.3725255,-0.5572224,1.088909,-0.4041035,-0.008089404,0.6662395000000001,-0.08430655,0.43979,77.27254,35.25
1,-0.05830383,0.02349854,0.9980164,1.0,-0.161499,0.002563477,0.9868622,-33.09006,9.520813,-29.7074,3.013458,0.5840698000000001,0.2718772,1.0,-0.02807617,0.02955627,0.9991608,35.62364,6.5396730000000005,-31.08386,3.089996,0.4022027,0.3726337999999999,-0.5575452,1.088735,-0.4037229,-0.0073794509999999,0.6652061,-0.08482749,0.43979,24.06521,35.25
1,-0.05830383,0.02349854,0.9980164,1.0,-0.161499,0.002563477,0.9868622,-33.09006,9.520813,-29.7074,3.013458,0.5840698000000001,0.2718772,1.0,-0.02807617,0.02955627,0.9991608,35.62364,6.5396730000000005,-31.08386,3.089996,0.4022027,0.3726337999999999,-0.5575452,1.088735,-0.4037229,-0.0073794509999999,0.6652061,-0.08482749,0.43979,24.06521,35.25
1,-0.05830383,0.02349854,0.9980164,1.0,-0.161499,0.002563477,0.9868622,-33.09006,9.520813,-29.7074,3.013458,0.5840698000000001,0.2718772,1.0,-0.02807617,0.02955627,0.9991608,35.62364,6.5396730000000005,-31.08386,3.089996,0.4022027,0.3726337999999999,-0.5575452,1.088735,-0.4037229,-0.0073794509999999,0.6652061,-0.08482749,0.43979,24.06521,35.25
1,-0.08825684,0.02128601,0.9958649,1.0,-0.1662445,0.006469727,0.9860535,-33.09077,9.493195,-29.687790000000003,2.974152,0.5846328000000001,0.272252,1.0,-0.03172302,0.03187561,0.9989777,35.61665,6.539169,-31.10327,3.072632,0.4028979,0.3725255,-0.5576409999999999,1.088793,-0.4033239,-0.006966569,0.6644064000000001,-0.08518891,0.4321015,24.06521,35.25
1,-0.08825684,0.02128601,0.9958649,1.0,-0.1662445,0.006469727,0.9860535,-33.09077,9.493195,-29.687790000000003,2.974152,0.5846328000000001,0.272252,1.0,-0.03172302,0.03187561,0.9989777,35.61665,6.539169,-31.10327,3.072632,0.4028979,0.3725255,-0.5576409999999999,1.088793,-0.4033239,-0.006966569,0.6644064000000001,-0.08518891,0.4321015,24.06521,35.25
1,-0.08825684,0.02128601,0.9958649,1.0,-0.1662445,0.006469727,0.9860535,-33.09077,9.493195,-29.687790000000003,2.974152,0.5846328000000001,0.272252,1.0,-0.03172302,0.03187561,0.9989777,35.61665,6.539169,-31.10327,3.072632,0.4028979,0.3725255,-0.5576409999999999,1.088793,-0.4033239,-0.006966569,0.6644064000000001,-0.08518891,0.4321015,24.06521,35.25
1,-0.07978821,0.02305603,0.9965363000000002,1.0,-0.1677246,0.004882813,0.9858093,-33.09581,9.492157,-29.64926,2.933548,0.5849205,0.2722321,1.0,-0.03216553,0.03277588,0.9989319,35.6041,6.54335,-31.11598,3.012833,0.4034597,0.3723479,-0.5576272,1.088928,-0.4029983,-0.007338955,0.6640497,-0.08475404,0.4321015,24.06521,35.25
1,-0.07978821,0.02305603,0.9965363000000002,1.0,-0.1677246,0.004882813,0.9858093,-33.09581,9.492157,-29.64926,2.933548,0.5849205,0.2722321,1.0,-0.03216553,0.03277588,0.9989319,35.6041,6.54335,-31.11598,3.012833,0.4034597,0.3723479,-0.5576272,1.088928,-0.4029983,-0.007338955,0.6640497,-0.08475404,0.4321015,24.06521,35.25
1,-0.07978821,0.02305603,0.9965363000000002,1.0,-0.1677246,0.004882813,0.9858093,-33.09581,9.492157,-29.64926,2.933548,0.5849205,0.2722321,1.0,-0.03216553,0.03277588,0.9989319,35.6041,6.54335,-31.11598,3.012833,0.4034597,0.3723479,-0.5576272,1.088928,-0.4029983,-0.007338955,0.6640497,-0.08475404,0.4321015,24.06521,35.25
1,-0.09243774,0.02243042,0.9954529,1.0,-0.1676788,0.001998901,0.9858246,-33.11595,9.483566,-29.65169,2.864166,0.5855579000000001,0.2729473,1.0,-0.04785156,0.03439331,0.9982605,35.5842,6.5492550000000005,-31.122740000000004,3.008408,0.4060734,0.3720797,-0.557616,1.089047,-0.4028597,-0.0072777869999999,0.6637655,-0.08454737,0.4321015,24.06521,35.25
1,-0.09243774,0.02243042,0.9954529,1.0,-0.1676788,0.001998901,0.9858246,-33.11595,9.483566,-29.65169,2.864166,0.5855579000000001,0.2729473,1.0,-0.04785156,0.03439331,0.9982605,35.5842,6.5492550000000005,-31.122740000000004,3.008408,0.4060734,0.3720797,-0.557616,1.089047,-0.4028597,-0.0072777869999999,0.6637655,-0.08454737,0.4321015,24.06521,35.25
1,-0.09243774,0.02243042,0.9954529,1.0,-0.1676788,0.001998901,0.9858246,-33.11595,9.483566,-29.65169,2.864166,0.5855579000000001,0.2729473,1.0,-0.04785156,0.03439331,0.9982605,35.5842,6.5492550000000005,-31.122740000000004,3.008408,0.4060734,0.3720797,-0.557616,1.089047,-0.4028597,-0.0072777869999999,0.6637655,-0.08454737,0.4321015,24.06521,35.25
1,-0.08528137,0.02183533,0.996109,1.0,-0.1580963,-0.0009460449,0.9874115,-33.16426,9.476913,-29.80893,2.810516,0.5861462,0.2746712,1.0,-0.04814148,0.03335571,0.9982758,35.54802,6.569961999999999,-31.22809,2.993042,0.4072884,0.3723196,-0.557539,1.089064,-0.4026663,-0.006865303,0.6635856,-0.0848256999999999,0.4321015,24.06521,35.25
1,-0.08528137,0.02183533,0.996109,1.0,-0.1580963,-0.0009460449,0.9874115,-33.16426,9.476913,-29.80893,2.810516,0.5861462,0.2746712,1.0,-0.04814148,0.03335571,0.9982758,35.54802,6.569961999999999,-31.22809,2.993042,0.4072884,0.3723196,-0.557539,1.089064,-0.4026663,-0.006865303,0.6635856,-0.0848256999999999,0.4321015,24.06521,35.25
1,-0.08528137,0.02183533,0.996109,1.0,-0.1580963,-0.0009460449,0.9874115,-33.16426,9.476913,-29.80893,2.810516,0.5861462,0.2746712,1.0,-0.04814148,0.03335571,0.9982758,35.54802,6.569961999999999,-31.22809,2.993042,0.4072884,0.3723196,-0.557539,1.089064,-0.4026663,-0.006865303,0.6635856,-0.0848256999999999,0.4321015,24.06521,35.25
1,-0.07304382,0.02464294,0.9970093,1.0,-0.1645966,-0.005569458,0.9863434,-33.16643,9.476913,-29.853,2.782898,0.5870523,0.2755917,1.0,-0.04814148,0.03279114,0.998291,35.53113,6.572525,-31.280590000000004,2.988586,0.4078327,0.372709,-0.5573716,1.089093,-0.4026116,-0.006210009,0.6638921999999999,-0.08528496,0.4321015,44.88208,35.25
1,-0.07304382,0.02464294,0.9970093,1.0,-0.1645966,-0.005569458,0.9863434,-33.16643,9.476913,-29.853,2.782898,0.5870523,0.2755917,1.0,-0.04814148,0.03279114,0.998291,35.53113,6.572525,-31.280590000000004,2.988586,0.4078327,0.372709,-0.5573716,1.089093,-0.4026116,-0.006210009,0.6638921999999999,-0.08528496,0.4321015,44.88208,35.25
1,-0.07304382,0.02464294,0.9970093,1.0,-0.1645966,-0.005569458,0.9863434,-33.16643,9.476913,-29.853,2.782898,0.5870523,0.2755917,1.0,-0.04814148,0.03279114,0.998291,35.53113,6.572525,-31.280590000000004,2.988586,0.4078327,0.372709,-0.5573716,1.089093,-0.4026116,-0.006210009,0.6638921999999999,-0.08528496,0.4321015,44.88208,35.25
1,-0.1085968,0.0074768069999999,0.9940491,1.0,-0.1669464,-0.01190186,0.9858856,-33.17603,9.427689,-29.853,2.800934,0.5876334,0.2782771,1.0,-0.04541016,0.02828979,0.9985657,35.5015,6.568039,-31.38223,2.976089,0.4084457,0.3742217,-0.5572946,1.089151,-0.4027594,-0.005982691,0.6640722,-0.08521558,0.4321015,44.88208,35.25
1,-0.1085968,0.0074768069999999,0.9940491,1.0,-0.1669464,-0.01190186,0.9858856,-33.17603,9.427689,-29.853,2.800934,0.5876334,0.2782771,1.0,-0.04541016,0.02828979,0.9985657,35.5015,6.568039,-31.38223,2.976089,0.4084457,0.3742217,-0.5572946,1.089151,-0.4027594,-0.005982691,0.6640722,-0.08521558,0.4321015,44.88208,35.25
1,-0.1085968,0.0074768069999999,0.9940491,1.0,-0.1669464,-0.01190186,0.9858856,-33.17603,9.427689,-29.853,2.800934,0.5876334,0.2782771,1.0,-0.04541016,0.02828979,0.9985657,35.5015,6.568039,-31.38223,2.976089,0.4084457,0.3742217,-0.5572946,1.089151,-0.4027594,-0.005982691,0.6640722,-0.08521558,0.4321015,44.88208,35.25
1,-0.1033325,0.007385254,0.9946136,1.0,-0.1663208,-0.01499939,0.9859466999999998,-33.18327,9.385071,-29.77304,2.79895,0.5876863,0.279669,1.0,-0.04730225,0.02713013,0.9985046,35.5015,6.552002,-31.38223,2.976669,0.4086767,0.3749244,-0.5570765000000001,1.08909,-0.4028680999999999,-0.0058948709999999,0.6642916999999999,-0.08555048,0.4321015,44.88208,35.25
1,-0.1033325,0.007385254,0.9946136,1.0,-0.1663208,-0.01499939,0.9859466999999998,-33.18327,9.385071,-29.77304,2.79895,0.5876863,0.279669,1.0,-0.04730225,0.02713013,0.9985046,35.5015,6.552002,-31.38223,2.976669,0.4086767,0.3749244,-0.5570765000000001,1.08909,-0.4028680999999999,-0.0058948709999999,0.6642916999999999,-0.08555048,0.4321015,44.88208,35.25
1,-0.1033325,0.007385254,0.9946136,1.0,-0.1663208,-0.01499939,0.9859466999999998,-33.18327,9.385071,-29.77304,2.79895,0.5876863,0.279669,1.0,-0.04730225,0.02713013,0.9985046,35.5015,6.552002,-31.38223,2.976669,0.4086767,0.3749244,-0.5570765000000001,1.08909,-0.4028680999999999,-0.0058948709999999,0.6642916999999999,-0.08555048,0.4321015,44.88208,35.25
1,-0.06033325,0.02354431,0.9978943,1.0,-0.1573944,-0.01086426,0.9874725,-33.188309999999994,9.283463,-29.50293,2.85347,0.5864309,0.2809636,1.0,-0.04769897,0.02798462,0.9984589,35.50883,6.497101,-31.30991,3.0000310000000003,0.4084992,0.3761774,-0.5568821,1.088515,-0.4033565,-0.004863702,0.6645964,-0.08732444,0.4321015,44.88208,35.25
1,-0.06033325,0.02354431,0.9978943,1.0,-0.1573944,-0.01086426,0.9874725,-33.188309999999994,9.283463,-29.50293,2.85347,0.5864309,0.2809636,1.0,-0.04769897,0.02798462,0.9984589,35.50883,6.497101,-31.30991,3.0000310000000003,0.4084992,0.3761774,-0.5568821,1.088515,-0.4033565,-0.004863702,0.6645964,-0.08732444,0.4321015,44.88208,35.25
1,-0.06033325,0.02354431,0.9978943,1.0,-0.1573944,-0.01086426,0.9874725,-33.188309999999994,9.283463,-29.50293,2.85347,0.5864309,0.2809636,1.0,-0.04769897,0.02798462,0.9984589,35.50883,6.497101,-31.30991,3.0000310000000003,0.4084992,0.3761774,-0.5568821,1.088515,-0.4033565,-0.004863702,0.6645964,-0.08732444,0.4321015,44.88208,35.25
1,-0.06781006,0.02122498,0.997467,1.0,-0.1575165,-0.01345825,0.9874115,-33.18788,9.272552,-29.4782,2.841751,0.5863807,0.2815303,1.0,-0.0475769,0.0289917,0.9984436,35.50943,6.474686,-31.2688,3.012039,0.4084824999999999,0.376519,-0.5567877,1.088231,-0.4037916,-0.004338222,0.6647291,-0.08851596,0.4321015,-35.18195,35.25
1,-0.06781006,0.02122498,0.997467,1.0,-0.1575165,-0.01345825,0.9874115,-33.18788,9.272552,-29.4782,2.841751,0.5863807,0.2815303,1.0,-0.0475769,0.0289917,0.9984436,35.50943,6.474686,-31.2688,3.012039,0.4084824999999999,0.376519,-0.5567877,1.088231,-0.4037916,-0.004338222,0.6647291,-0.08851596,0.4321015,-35.18195,35.25
1,-0.06781006,0.02122498,0.997467,1.0,-0.1575165,-0.01345825,0.9874115,-33.18788,9.272552,-29.4782,2.841751,0.5863807,0.2815303,1.0,-0.0475769,0.0289917,0.9984436,35.50943,6.474686,-31.2688,3.012039,0.4084824999999999,0.376519,-0.5567877,1.088231,-0.4037916,-0.004338222,0.6647291,-0.08851596,0.4321015,-35.18195,35.25
1,-0.09228516,0.006378174,0.995697,1.0,-0.1563416,-0.01780701,0.9875336,-33.183609999999994,9.267563,-29.47263,2.837097,0.5860557,0.2822598,1.0,-0.04701233,0.02337646,0.9986115,35.51964,6.46283,-31.25116,3.025269,0.4080534,0.3774947,-0.5565021,1.087897,-0.40407,-0.004008853,0.6649176,-0.09024237,0.4321015,-35.18195,35.25
1,-0.09228516,0.006378174,0.995697,1.0,-0.1563416,-0.01780701,0.9875336,-33.183609999999994,9.267563,-29.47263,2.837097,0.5860557,0.2822598,1.0,-0.04701233,0.02337646,0.9986115,35.51964,6.46283,-31.25116,3.025269,0.4080534,0.3774947,-0.5565021,1.087897,-0.40407,-0.004008853,0.6649176,-0.09024237,0.4321015,-35.18195,35.25
1,-0.09228516,0.006378174,0.995697,1.0,-0.1563416,-0.01780701,0.9875336,-33.183609999999994,9.267563,-29.47263,2.837097,0.5860557,0.2822598,1.0,-0.04701233,0.02337646,0.9986115,35.51964,6.46283,-31.25116,3.025269,0.4080534,0.3774947,-0.5565021,1.087897,-0.40407,-0.004008853,0.6649176,-0.09024237,0.4321015,-35.18195,35.25
1,-0.09005737,0.006637573,0.9959106,1.0,-0.1533813,-0.01901245,0.9879761,-33.18161,9.269409,-29.4608,2.837296,0.5855988,0.2822598,1.0,-0.05018616,0.02270508,0.9984741,35.52756,6.462326,-31.24805,3.024689,0.4081715,0.3775805999999999,-0.5562403,1.087621,-0.4044145999999999,-0.003654982,0.6651563,-0.09167761,0.4321015,-35.18195,35.25
1,-0.09005737,0.006637573,0.9959106,1.0,-0.1533813,-0.01901245,0.9879761,-33.18161,9.269409,-29.4608,2.837296,0.5855988,0.2822598,1.0,-0.05018616,0.02270508,0.9984741,35.52756,6.462326,-31.24805,3.024689,0.4081715,0.3775805999999999,-0.5562403,1.087621,-0.4044145999999999,-0.003654982,0.6651563,-0.09167761,0.4321015,-35.18195,35.25
1,-0.09005737,0.006637573,0.9959106,1.0,-0.1533813,-0.01901245,0.9879761,-33.18161,9.269409,-29.4608,2.837296,0.5855988,0.2822598,1.0,-0.05018616,0.02270508,0.9984741,35.52756,6.462326,-31.24805,3.024689,0.4081715,0.3775805999999999,-0.5562403,1.087621,-0.4044145999999999,-0.003654982,0.6651563,-0.09167761,0.4321015,-35.18195,35.25
1,-0.08662415,0.0071716309999999,0.9962006,1.0,-0.1508178999999999,-0.01844788,0.9883728,-33.17819,9.273697,-29.46317,2.836838,0.5851658000000001,0.2820526,1.0,-0.04568481,0.02342224,0.9986725,35.531890000000004,6.463333,-31.23445,2.993378,0.4075289,0.3773059,-0.5558456999999999,1.087458,-0.4046908,-0.003354158,0.6654380999999999,-0.09275376,0.4321015,-35.18195,35.25
1,-0.08662415,0.0071716309999999,0.9962006,1.0,-0.1508178999999999,-0.01844788,0.9883728,-33.17819,9.273697,-29.46317,2.836838,0.5851658000000001,0.2820526,1.0,-0.04568481,0.02342224,0.9986725,35.531890000000004,6.463333,-31.23445,2.993378,0.4075289,0.3773059,-0.5558456999999999,1.087458,-0.4046908,-0.003354158,0.6654380999999999,-0.09275376,0.4321015,-35.18195,35.25
1,-0.08662415,0.0071716309999999,0.9962006,1.0,-0.1508178999999999,-0.01844788,0.9883728,-33.17819,9.273697,-29.46317,2.836838,0.5851658000000001,0.2820526,1.0,-0.04568481,0.02342224,0.9986725,35.531890000000004,6.463333,-31.23445,2.993378,0.4075289,0.3773059,-0.5558456999999999,1.087458,-0.4046908,-0.003354158,0.6654380999999999,-0.09275376,0.4321015,-35.18195,35.25
1,-0.08457947,0.007507324,0.9963837,1.0,-0.1436462,-0.01971436,0.9894257,-33.17049,9.27562,-29.43121,2.8490450000000003,0.5839723000000001,0.281923,1.0,-0.04696655,0.02474976,0.9985809,35.54117,6.467194,-31.227490000000003,3.014496,0.4073414,0.3769682,-0.555542,1.087277,-0.4049268,-0.003116979,0.6658451,-0.09411328,0.4321015,-35.18195,35.25
1,-0.08457947,0.007507324,0.9963837,1.0,-0.1436462,-0.01971436,0.9894257,-33.17049,9.27562,-29.43121,2.8490450000000003,0.5839723000000001,0.281923,1.0,-0.04696655,0.02474976,0.9985809,35.54117,6.467194,-31.227490000000003,3.014496,0.4073414,0.3769682,-0.555542,1.087277,-0.4049268,-0.003116979,0.6658451,-0.09411328,0.4321015,-35.18195,35.25
1,-0.08457947,0.007507324,0.9963837,1.0,-0.1436462,-0.01971436,0.9894257,-33.17049,9.27562,-29.43121,2.8490450000000003,0.5839723000000001,0.281923,1.0,-0.04696655,0.02474976,0.9985809,35.54117,6.467194,-31.227490000000003,3.014496,0.4073414,0.3769682,-0.555542,1.087277,-0.4049268,-0.003116979,0.6658451,-0.09411328,0.4321015,-35.18195,35.25
1,-0.08000183,0.008468628,0.9967499,1.0,-0.1422729,-0.02124023,0.9895935,-33.16669,9.273697,-29.394070000000003,2.879715,0.5836509,0.281923,1.0,-0.04829407,0.02351379,0.9985504,35.5509,6.472321,-31.23006,3.002853,0.4071801,0.3769555,-0.5551355,1.087263,-0.4050072,-0.00287449,0.6662203,-0.09509736,0.4321015,-35.18195,35.25
1,-0.08000183,0.008468628,0.9967499,1.0,-0.1422729,-0.02124023,0.9895935,-33.16669,9.273697,-29.394070000000003,2.879715,0.5836509,0.281923,1.0,-0.04829407,0.02351379,0.9985504,35.5509,6.472321,-31.23006,3.002853,0.4071801,0.3769555,-0.5551355,1.087263,-0.4050072,-0.00287449,0.6662203,-0.09509736,0.4321015,-35.18195,35.25
1,-0.08000183,0.008468628,0.9967499,1.0,-0.1422729,-0.02124023,0.9895935,-33.16669,9.273697,-29.394070000000003,2.879715,0.5836509,0.281923,1.0,-0.04829407,0.02351379,0.9985504,35.5509,6.472321,-31.23006,3.002853,0.4071801,0.3769555,-0.5551355,1.087263,-0.4050072,-0.00287449,0.6662203,-0.09509736,0.4321015,-35.18195,35.25
1,-0.08642578,0.008331299,0.9962158,1.0,-0.1394042999999999,-0.01283264,0.9901428,-33.1572,9.276794,-29.394070000000003,2.888153,0.5829922,0.2807140999999999,1.0,-0.04756165,0.02377319,0.9985809,35.55707,6.501419,-31.30156,2.966309,0.4068668,0.3764404,-0.5549128000000001,1.0871309999999998,-0.4052875999999999,-0.002772904,0.6665781,-0.09607065,0.4321015,-96.51705,35.25
1,-0.08642578,0.008331299,0.9962158,1.0,-0.1394042999999999,-0.01283264,0.9901428,-33.1572,9.276794,-29.394070000000003,2.888153,0.5829922,0.2807140999999999,1.0,-0.04756165,0.02377319,0.9985809,35.55707,6.501419,-31.30156,2.966309,0.4068668,0.3764404,-0.5549128000000001,1.0871309999999998,-0.4052875999999999,-0.002772904,0.6665781,-0.09607065,0.4321015,-96.51705,35.25
1,-0.08642578,0.008331299,0.9962158,1.0,-0.1394042999999999,-0.01283264,0.9901428,-33.1572,9.276794,-29.394070000000003,2.888153,0.5829922,0.2807140999999999,1.0,-0.04756165,0.02377319,0.9985809,35.55707,6.501419,-31.30156,2.966309,0.4068668,0.3764404,-0.5549128000000001,1.0871309999999998,-0.4052875999999999,-0.002772904,0.6665781,-0.09607065,0.4321015,-96.51705,35.25
1,-0.08921814,0.005752563,0.9959869,1.0,-0.138443,-0.01293945,0.9902802,-33.14597,9.280136,-29.3839,2.88855,0.5824749,0.2805374,1.0,-0.0453186,0.02235413,0.9987183,35.560320000000004,6.5070190000000006,-31.30496,2.9634400000000003,0.4064789,0.3764279,-0.5546277,1.086959,-0.4055043,-0.00247926,0.6670696,-0.09689257,0.4321015,-96.51705,35.25
1,-0.08921814,0.005752563,0.9959869,1.0,-0.138443,-0.01293945,0.9902802,-33.14597,9.280136,-29.3839,2.88855,0.5824749,0.2805374,1.0,-0.0453186,0.02235413,0.9987183,35.560320000000004,6.5070190000000006,-31.30496,2.9634400000000003,0.4064789,0.3764279,-0.5546277,1.086959,-0.4055043,-0.00247926,0.6670696,-0.09689257,0.4321015,-96.51705,35.25
1,-0.08921814,0.005752563,0.9959869,1.0,-0.138443,-0.01293945,0.9902802,-33.14597,9.280136,-29.3839,2.88855,0.5824749,0.2805374,1.0,-0.0453186,0.02235413,0.9987183,35.560320000000004,6.5070190000000006,-31.30496,2.9634400000000003,0.4064789,0.3764279,-0.5546277,1.086959,-0.4055043,-0.00247926,0.6670696,-0.09689257,0.4321015,-96.51705,35.25
1,-0.092453,0.01300049,0.9956207,1.0,-0.1395111,-0.01272583,0.9901276,-33.09175,9.309341,-29.32901,2.855301,0.5806558,0.2790795,1.0,-0.05586243,0.03289795,0.9978943,35.54123,6.619536999999999,-31.47012,2.933823,0.4083446,0.3725372,-0.5539501,1.086372,-0.4059049,-0.001211513,0.6676432,-0.09842346,0.4321015,89.25356,35.25
1,-0.092453,0.01300049,0.9956207,1.0,-0.1395111,-0.01272583,0.9901276,-33.09175,9.309341,-29.32901,2.855301,0.5806558,0.2790795,1.0,-0.05586243,0.03289795,0.9978943,35.54123,6.619536999999999,-31.47012,2.933823,0.4083446,0.3725372,-0.5539501,1.086372,-0.4059049,-0.001211513,0.6676432,-0.09842346,0.4321015,89.25356,35.25
1,-0.092453,0.01300049,0.9956207,1.0,-0.1395111,-0.01272583,0.9901276,-33.09175,9.309341,-29.32901,2.855301,0.5806558,0.2790795,1.0,-0.05586243,0.03289795,0.9978943,35.54123,6.619536999999999,-31.47012,2.933823,0.4083446,0.3725372,-0.5539501,1.086372,-0.4059049,-0.001211513,0.6676432,-0.09842346,0.4321015,89.25356,35.25
1,-0.1027374,0.02719116,0.9943237,1.0,-0.1685944,0.01254272,0.9855957,-33.077729999999995,9.377533,-29.33151,2.8487240000000003,0.5839426999999999,0.2732667,1.0,-0.05078125,0.03857422,0.9979553,35.54045,6.636322,-31.46971,2.92984,0.4077502,0.3712085,-0.5536797,1.085891,-0.406126,-0.000376246,0.6679596999999999,-0.09991964,0.4321015,89.25356,35.25
1,-0.1027374,0.02719116,0.9943237,1.0,-0.1685944,0.01254272,0.9855957,-33.077729999999995,9.377533,-29.33151,2.8487240000000003,0.5839426999999999,0.2732667,1.0,-0.05078125,0.03857422,0.9979553,35.54045,6.636322,-31.46971,2.92984,0.4077502,0.3712085,-0.5536797,1.085891,-0.406126,-0.000376246,0.6679596999999999,-0.09991964,0.4321015,89.25356,35.25
1,-0.1027374,0.02719116,0.9943237,1.0,-0.1685944,0.01254272,0.9855957,-33.077729999999995,9.377533,-29.33151,2.8487240000000003,0.5839426999999999,0.2732667,1.0,-0.05078125,0.03857422,0.9979553,35.54045,6.636322,-31.46971,2.92984,0.4077502,0.3712085,-0.5536797,1.085891,-0.406126,-0.000376246,0.6679596999999999,-0.09991964,0.4321015,89.25356,35.25
1,-0.09448242,0.02947998,0.9950867,1.0,-0.1671906,0.01461792,0.9858093,-33.09381,9.378403,-29.33151,2.836121,0.58433,0.2729502,1.0,-0.05079651,0.0382843,0.9979706,35.54123,6.636917,-31.47012,2.912094,0.4077502,0.3712085,-0.5534747,1.0856629999999998,-0.4061387,0.000211432,0.6681155,-0.1005837,0.4321015,89.25356,35.25
1,-0.09448242,0.02947998,0.9950867,1.0,-0.1671906,0.01461792,0.9858093,-33.09381,9.378403,-29.33151,2.836121,0.58433,0.2729502,1.0,-0.05079651,0.0382843,0.9979706,35.54123,6.636917,-31.47012,2.912094,0.4077502,0.3712085,-0.5534747,1.0856629999999998,-0.4061387,0.000211432,0.6681155,-0.1005837,0.4321015,89.25356,35.25
1,-0.09448242,0.02947998,0.9950867,1.0,-0.1671906,0.01461792,0.9858093,-33.09381,9.378403,-29.33151,2.836121,0.58433,0.2729502,1.0,-0.05079651,0.0382843,0.9979706,35.54123,6.636917,-31.47012,2.912094,0.4077502,0.3712085,-0.5534747,1.0856629999999998,-0.4061387,0.000211432,0.6681155,-0.1005837,0.4321015,89.25356,35.25
1,-0.09268188,0.02972412,0.9952393,1.0,-0.1635895,0.0131072999999999,0.9864349,-33.10966,9.378403,-29.30745,2.814117,0.5843931,0.2729502,1.0,-0.05078125,0.03941345,0.9979248,35.54172,6.637939,-31.471740000000004,2.912506,0.4077305999999999,0.3710439,-0.5534064999999999,1.08553,-0.4062098,0.000395553,0.6680991999999999,-0.1007245,0.4321015,89.25356,35.25
1,-0.09268188,0.02972412,0.9952393,1.0,-0.1635895,0.0131072999999999,0.9864349,-33.10966,9.378403,-29.30745,2.814117,0.5843931,0.2729502,1.0,-0.05078125,0.03941345,0.9979248,35.54172,6.637939,-31.471740000000004,2.912506,0.4077305999999999,0.3710439,-0.5534064999999999,1.08553,-0.4062098,0.000395553,0.6680991999999999,-0.1007245,0.4321015,89.25356,35.25
1,-0.09268188,0.02972412,0.9952393,1.0,-0.1635895,0.0131072999999999,0.9864349,-33.10966,9.378403,-29.30745,2.814117,0.5843931,0.2729502,1.0,-0.05078125,0.03941345,0.9979248,35.54172,6.637939,-31.471740000000004,2.912506,0.4077305999999999,0.3710439,-0.5534064999999999,1.08553,-0.4062098,0.000395553,0.6680991999999999,-0.1007245,0.4321015,89.25356,35.25
1,-0.08537292,0.03294373,0.9957886,1.0,-0.1606293,0.01721191,0.9868622,-33.11722,9.386948,-29.4101,2.805313,0.5843931,0.2728445,1.0,-0.04875183,0.04049683,0.9979858,35.54253,6.639282000000001,-31.4747,2.911896,0.407451,0.3708791999999999,-0.5532265000000001,1.085464,-0.4061522,0.0003343033,0.6681414999999999,-0.1010501999999999,0.4321015,89.25356,35.25
1,-0.08537292,0.03294373,0.9957886,1.0,-0.1606293,0.01721191,0.9868622,-33.11722,9.386948,-29.4101,2.805313,0.5843931,0.2728445,1.0,-0.04875183,0.04049683,0.9979858,35.54253,6.639282000000001,-31.4747,2.911896,0.407451,0.3708791999999999,-0.5532265000000001,1.085464,-0.4061522,0.0003343033,0.6681414999999999,-0.1010501999999999,0.4321015,89.25356,35.25
1,-0.08537292,0.03294373,0.9957886,1.0,-0.1606293,0.01721191,0.9868622,-33.11722,9.386948,-29.4101,2.805313,0.5843931,0.2728445,1.0,-0.04875183,0.04049683,0.9979858,35.54253,6.639282000000001,-31.4747,2.911896,0.407451,0.3708791999999999,-0.5532265000000001,1.085464,-0.4061522,0.0003343033,0.6681414999999999,-0.1010501999999999,0.4321015,89.25356,35.25
2,-0.06809998,0.03741455,0.9969635,1.0,-0.1516112999999999,0.008514404,0.9883881,-33.11722,9.439926,-29.5164,2.741547,0.5833341999999999,0.2727516,1.0,-0.04582214,0.04502869,0.9979248,35.54768,6.660873,-31.54205,2.86087,0.4069253,0.3700259,-0.5529873000000001,1.085351,-0.4060734,0.0006686067,0.6682951,-0.1012603999999999,0.4321015,31.71137,35.25
2,-0.06809998,0.03741455,0.9969635,1.0,-0.1516112999999999,0.008514404,0.9883881,-33.11722,9.439926,-29.5164,2.741547,0.5833341999999999,0.2727516,1.0,-0.04582214,0.04502869,0.9979248,35.54768,6.660873,-31.54205,2.86087,0.4069253,0.3700259,-0.5529873000000001,1.085351,-0.4060734,0.0006686067,0.6682951,-0.1012603999999999,0.4321015,31.71137,35.25
2,-0.06809998,0.03741455,0.9969635,1.0,-0.1516112999999999,0.008514404,0.9883881,-33.11722,9.439926,-29.5164,2.741547,0.5833341999999999,0.2727516,1.0,-0.04582214,0.04502869,0.9979248,35.54768,6.660873,-31.54205,2.86087,0.4069253,0.3700259,-0.5529873000000001,1.085351,-0.4060734,0.0006686067,0.6682951,-0.1012603999999999,0.4321015,31.71137,35.25
2,-0.08708191,0.02989197,0.9957428,1.0,-0.159729,0.003860474,0.9871368,-33.08437,9.455597,-29.5087,2.725739,0.5831861999999999,0.2727516,1.0,-0.04249573,0.04570007,0.9980469,35.54999,6.664992999999999,-31.5428,2.857361,0.4064388,0.3697809999999999,-0.5526986,1.085358,-0.4059834,0.0008097228999999,0.6684392,-0.1019894,0.4321015,31.71137,35.25
2,-0.08708191,0.02989197,0.9957428,1.0,-0.159729,0.003860474,0.9871368,-33.08437,9.455597,-29.5087,2.725739,0.5831861999999999,0.2727516,1.0,-0.04249573,0.04570007,0.9980469,35.54999,6.664992999999999,-31.5428,2.857361,0.4064388,0.3697809999999999,-0.5526986,1.085358,-0.4059834,0.0008097228999999,0.6684392,-0.1019894,0.4321015,31.71137,35.25
2,-0.08708191,0.02989197,0.9957428,1.0,-0.159729,0.003860474,0.9871368,-33.08437,9.455597,-29.5087,2.725739,0.5831861999999999,0.2727516,1.0,-0.04249573,0.04570007,0.9980469,35.54999,6.664992999999999,-31.5428,2.857361,0.4064388,0.3697809999999999,-0.5526986,1.085358,-0.4059834,0.0008097228999999,0.6684392,-0.1019894,0.4321015,31.71137,35.25
2,-0.09028625,0.02915955,0.9954834,1.0,-0.1597595,0.003936768,0.9871368,-33.08437,9.455597,-29.5087,2.725037,0.5831861999999999,0.2727502999999999,1.0,-0.04171753,0.04660034,0.9980316,35.55045,6.664992999999999,-31.5428,2.839005,0.406353,0.3696554999999999,-0.5525994000000001,1.084965,-0.406049,0.001822899,0.6687803000000001,-0.1032198999999999,0.4321015,31.71137,35.25
2,-0.09028625,0.02915955,0.9954834,1.0,-0.1597595,0.003936768,0.9871368,-33.08437,9.455597,-29.5087,2.725037,0.5831861999999999,0.2727502999999999,1.0,-0.04171753,0.04660034,0.9980316,35.55045,6.664992999999999,-31.5428,2.839005,0.406353,0.3696554999999999,-0.5525994000000001,1.084965,-0.406049,0.001822899,0.6687803000000001,-0.1032198999999999,0.4321015,31.71137,35.25
2,-0.09028625,0.02915955,0.9954834,1.0,-0.1597595,0.003936768,0.9871368,-33.08437,9.455597,-29.5087,2.725037,0.5831861999999999,0.2727502999999999,1.0,-0.04171753,0.04660034,0.9980316,35.55045,6.664992999999999,-31.5428,2.839005,0.406353,0.3696554999999999,-0.5525994000000001,1.084965,-0.406049,0.001822899,0.6687803000000001,-0.1032198999999999,0.4321015,31.71137,35.25
2,-0.0877533,0.03109741,0.9956511999999998,1.0,-0.1608124,0.007736206,0.9869385,-33.08437,9.455597,-29.5087,2.724869,0.5833341999999999,0.2722343,1.0,-0.04193115,0.045578,0.9980774,35.55121,6.664992999999999,-31.54205,2.83873,0.406353,0.3697809999999999,-0.552532,1.08479,-0.406146,0.002462676,0.6687841,-0.1034503,0.4321015,31.71137,35.25
2,-0.0877533,0.03109741,0.9956511999999998,1.0,-0.1608124,0.007736206,0.9869385,-33.08437,9.455597,-29.5087,2.724869,0.5833341999999999,0.2722343,1.0,-0.04193115,0.045578,0.9980774,35.55121,6.664992999999999,-31.54205,2.83873,0.406353,0.3697809999999999,-0.552532,1.08479,-0.406146,0.002462676,0.6687841,-0.1034503,0.4321015,31.71137,35.25
2,-0.0877533,0.03109741,0.9956511999999998,1.0,-0.1608124,0.007736206,0.9869385,-33.08437,9.455597,-29.5087,2.724869,0.5833341999999999,0.2722343,1.0,-0.04193115,0.045578,0.9980774,35.55121,6.664992999999999,-31.54205,2.83873,0.406353,0.3697809999999999,-0.552532,1.08479,-0.406146,0.002462676,0.6687841,-0.1034503,0.4321015,31.71137,35.25
2,-0.07887268,0.03382874,0.9963074,1.0,-0.1432953,0.01705933,0.9895325,-33.1234,9.43187,-29.55238,2.727585,0.5825456999999999,0.2721783,1.0,-0.03872681,0.04415894,0.9982605,35.55449,6.655823,-31.48883,2.816071,0.4059257,0.3698271999999999,-0.5523937,1.084726,-0.4061929999999999,0.002244235,0.6688324999999999,-0.1038501999999999,0.4321015,31.71137,35.25
2,-0.07887268,0.03382874,0.9963074,1.0,-0.1432953,0.01705933,0.9895325,-33.1234,9.43187,-29.55238,2.727585,0.5825456999999999,0.2721783,1.0,-0.03872681,0.04415894,0.9982605,35.55449,6.655823,-31.48883,2.816071,0.4059257,0.3698271999999999,-0.5523937,1.084726,-0.4061929999999999,0.002244235,0.6688324999999999,-0.1038501999999999,0.4321015,31.71137,35.25
2,-0.07887268,0.03382874,0.9963074,1.0,-0.1432953,0.01705933,0.9895325,-33.1234,9.43187,-29.55238,2.727585,0.5825456999999999,0.2721783,1.0,-0.03872681,0.04415894,0.9982605,35.55449,6.655823,-31.48883,2.816071,0.4059257,0.3698271999999999,-0.5523937,1.084726,-0.4061929999999999,0.002244235,0.6688324999999999,-0.1038501999999999,0.4321015,31.71137,35.25
2,-0.07783508,0.03547668,0.9963226,1.0,-0.1398315,0.02149963,0.9899292,-33.12599,9.425247,-29.57108,2.72287,0.5822236999999999,0.271965,1.0,-0.03858948,0.04421997,0.9982605,35.56,6.649017,-31.467270000000003,2.786255,0.40578,0.3698665,-0.5521321,1.084653,-0.4062207,0.002363882,0.6689388000000001,-0.1041805,0.4321015,33.39713,35.25
2,-0.07783508,0.03547668,0.9963226,1.0,-0.1398315,0.02149963,0.9899292,-33.12599,9.425247,-29.57108,2.72287,0.5822236999999999,0.271965,1.0,-0.03858948,0.04421997,0.9982605,35.56,6.649017,-31.467270000000003,2.786255,0.40578,0.3698665,-0.5521321,1.084653,-0.4062207,0.002363882,0.6689388000000001,-0.1041805,0.4321015,33.39713,35.25
2,-0.07783508,0.03547668,0.9963226,1.0,-0.1398315,0.02149963,0.9899292,-33.12599,9.425247,-29.57108,2.72287,0.5822236999999999,0.271965,1.0,-0.03858948,0.04421997,0.9982605,35.56,6.649017,-31.467270000000003,2.786255,0.40578,0.3698665,-0.5521321,1.084653,-0.4062207,0.002363882,0.6689388000000001,-0.1041805,0.4321015,33.39713,35.25
2,-0.07945251,0.04005432,0.9960175,1.0,-0.1405029,0.03103638,0.9895782,-33.12637,9.422119,-29.573970000000003,2.726257,0.5823550000000001,0.2708454,1.0,-0.03614807,0.04634094,0.9982605,35.56297,6.646362,-31.45209,2.790482,0.4053825,0.3695635,-0.5521078,1.084547,-0.406364,0.002983864,0.6690392,-0.1045654,0.4321015,33.39713,35.25
2,-0.07945251,0.04005432,0.9960175,1.0,-0.1405029,0.03103638,0.9895782,-33.12637,9.422119,-29.573970000000003,2.726257,0.5823550000000001,0.2708454,1.0,-0.03614807,0.04634094,0.9982605,35.56297,6.646362,-31.45209,2.790482,0.4053825,0.3695635,-0.5521078,1.084547,-0.406364,0.002983864,0.6690392,-0.1045654,0.4321015,33.39713,35.25
2,-0.07945251,0.04005432,0.9960175,1.0,-0.1405029,0.03103638,0.9895782,-33.12637,9.422119,-29.573970000000003,2.726257,0.5823550000000001,0.2708454,1.0,-0.03614807,0.04634094,0.9982605,35.56297,6.646362,-31.45209,2.790482,0.4053825,0.3695635,-0.5521078,1.084547,-0.406364,0.002983864,0.6690392,-0.1045654,0.4321015,33.39713,35.25
2,-0.07939148,0.04234314,0.9959412,1.0,-0.1415862999999999,0.03553772,0.9892731,-33.12535,9.422119,-29.57108,2.747589,0.5824866,0.2702277999999999,1.0,-0.03785706,0.04676819,0.9981842,35.5638,6.646362,-31.44835,2.797699,0.4055592,0.3694977,-0.5520816,1.084516,-0.4065644,0.002835344,0.6692889,-0.1048662,0.4321015,33.39713,35.25
2,-0.07939148,0.04234314,0.9959412,1.0,-0.1415862999999999,0.03553772,0.9892731,-33.12535,9.422119,-29.57108,2.747589,0.5824866,0.2702277999999999,1.0,-0.03785706,0.04676819,0.9981842,35.5638,6.646362,-31.44835,2.797699,0.4055592,0.3694977,-0.5520816,1.084516,-0.4065644,0.002835344,0.6692889,-0.1048662,0.4321015,33.39713,35.25
2,-0.07939148,0.04234314,0.9959412,1.0,-0.1415862999999999,0.03553772,0.9892731,-33.12535,9.422119,-29.57108,2.747589,0.5824866,0.2702277999999999,1.0,-0.03785706,0.04676819,0.9981842,35.5638,6.646362,-31.44835,2.797699,0.4055592,0.3694977,-0.5520816,1.084516,-0.4065644,0.002835344,0.6692889,-0.1048662,0.4321015,33.39713,35.25
2,-0.07963562,0.04266357,0.9958954,1.0,-0.1416473,0.03613281,0.9892426,-33.12469,9.422119,-29.56978,2.766098,0.5824866,0.2701466,1.0,-0.03840637,0.046875,0.9981537,35.56593,6.646362,-31.4411,2.797791,0.4055592,0.3694272999999999,-0.5520351,1.08441,-0.4068244,0.00295627,0.6695348000000001,-0.1058788,0.4321015,33.39713,35.25
2,-0.07963562,0.04266357,0.9958954,1.0,-0.1416473,0.03613281,0.9892426,-33.12469,9.422119,-29.56978,2.766098,0.5824866,0.2701466,1.0,-0.03840637,0.046875,0.9981537,35.56593,6.646362,-31.4411,2.797791,0.4055592,0.3694272999999999,-0.5520351,1.08441,-0.4068244,0.00295627,0.6695348000000001,-0.1058788,0.4321015,33.39713,35.25
2,-0.07963562,0.04266357,0.9958954,1.0,-0.1416473,0.03613281,0.9892426,-33.12469,9.422119,-29.56978,2.766098,0.5824866,0.2701466,1.0,-0.03840637,0.046875,0.9981537,35.56593,6.646362,-31.4411,2.797791,0.4055592,0.3694272999999999,-0.5520351,1.08441,-0.4068244,0.00295627,0.6695348000000001,-0.1058788,0.4321015,33.39713,35.25
2,-0.08666992,0.04495239,0.9952087,1.0,-0.1412201,0.0395813,0.9891815,-33.12093,9.44072,-29.573970000000003,2.805099,0.5823639,0.2690265999999999,1.0,-0.03981018,0.04943848,0.9979706,35.57265,6.648071000000001,-31.39047,2.790283,0.4055592,0.3686538,-0.5521491,1.084249,-0.4071606,0.002996323,0.6698023,-0.1063758,0.4321015,-24.45692,35.25
2,-0.08666992,0.04495239,0.9952087,1.0,-0.1412201,0.0395813,0.9891815,-33.12093,9.44072,-29.573970000000003,2.805099,0.5823639,0.2690265999999999,1.0,-0.03981018,0.04943848,0.9979706,35.57265,6.648071000000001,-31.39047,2.790283,0.4055592,0.3686538,-0.5521491,1.084249,-0.4071606,0.002996323,0.6698023,-0.1063758,0.4321015,-24.45692,35.25
2,-0.08666992,0.04495239,0.9952087,1.0,-0.1412201,0.0395813,0.9891815,-33.12093,9.44072,-29.573970000000003,2.805099,0.5823639,0.2690265999999999,1.0,-0.03981018,0.04943848,0.9979706,35.57265,6.648071000000001,-31.39047,2.790283,0.4055592,0.3686538,-0.5521491,1.084249,-0.4071606,0.002996323,0.6698023,-0.1063758,0.4321015,-24.45692,35.25
2,-0.08262634,0.04980469,0.9953308,1.0,-0.1414642,0.04167175,0.9890594,-33.11723,9.451569,-29.58339,2.80928,0.5822919,0.2684223,1.0,-0.03938293,0.0556488,0.9976654,35.57397,6.650864,-31.38762,2.785141,0.4054732,0.3677515,-0.5521038,1.084166,-0.4074131,0.002754032,0.6701784000000001,-0.10659,0.4321015,-24.45692,35.25
2,-0.08262634,0.04980469,0.9953308,1.0,-0.1414642,0.04167175,0.9890594,-33.11723,9.451569,-29.58339,2.80928,0.5822919,0.2684223,1.0,-0.03938293,0.0556488,0.9976654,35.57397,6.650864,-31.38762,2.785141,0.4054732,0.3677515,-0.5521038,1.084166,-0.4074131,0.002754032,0.6701784000000001,-0.10659,0.4321015,-24.45692,35.25
2,-0.08262634,0.04980469,0.9953308,1.0,-0.1414642,0.04167175,0.9890594,-33.11723,9.451569,-29.58339,2.80928,0.5822919,0.2684223,1.0,-0.03938293,0.0556488,0.9976654,35.57397,6.650864,-31.38762,2.785141,0.4054732,0.3677515,-0.5521038,1.084166,-0.4074131,0.002754032,0.6701784000000001,-0.10659,0.4321015,-24.45692,35.25
2,-0.07260132,0.05245972,0.9959717,1.0,-0.1383667,0.04559326,0.9893188,-33.110490000000006,9.468597,-29.60588,2.827545,0.5817328,0.2674278,1.0,-0.03323364,0.05644226,0.9978485,35.57788,6.65712,-31.38123,2.779037,0.4045907,0.3673499,-0.5521028,1.08402,-0.4077147,0.002673033,0.6705523,-0.1071109,0.4321015,-24.45692,35.25
2,-0.07260132,0.05245972,0.9959717,1.0,-0.1383667,0.04559326,0.9893188,-33.110490000000006,9.468597,-29.60588,2.827545,0.5817328,0.2674278,1.0,-0.03323364,0.05644226,0.9978485,35.57788,6.65712,-31.38123,2.779037,0.4045907,0.3673499,-0.5521028,1.08402,-0.4077147,0.002673033,0.6705523,-0.1071109,0.4321015,-24.45692,35.25
2,-0.07260132,0.05245972,0.9959717,1.0,-0.1383667,0.04559326,0.9893188,-33.110490000000006,9.468597,-29.60588,2.827545,0.5817328,0.2674278,1.0,-0.03323364,0.05644226,0.9978485,35.57788,6.65712,-31.38123,2.779037,0.4045907,0.3673499,-0.5521028,1.08402,-0.4077147,0.002673033,0.6705523,-0.1071109,0.4321015,-24.45692,35.25
2,-0.0743103,0.05615234,0.9956511999999998,1.0,-0.1389312999999999,0.04551697,0.9892426,-33.09729,9.513763,-29.59367,2.915451,0.5814449,0.2656695,1.0,-0.03466797,0.06253052,0.9974365,35.59085,6.676971000000001,-31.38641,2.786148,0.4043059,0.3659388,-0.5518889,1.083916,-0.4078645999999999,0.003080915,0.6707526999999999,-0.1075245,0.4321015,-24.45692,35.25
2,-0.0743103,0.05615234,0.9956511999999998,1.0,-0.1389312999999999,0.04551697,0.9892426,-33.09729,9.513763,-29.59367,2.915451,0.5814449,0.2656695,1.0,-0.03466797,0.06253052,0.9974365,35.59085,6.676971000000001,-31.38641,2.786148,0.4043059,0.3659388,-0.5518889,1.083916,-0.4078645999999999,0.003080915,0.6707526999999999,-0.1075245,0.4321015,-24.45692,35.25
2,-0.0743103,0.05615234,0.9956511999999998,1.0,-0.1389312999999999,0.04551697,0.9892426,-33.09729,9.513763,-29.59367,2.915451,0.5814449,0.2656695,1.0,-0.03466797,0.06253052,0.9974365,35.59085,6.676971000000001,-31.38641,2.786148,0.4043059,0.3659388,-0.5518889,1.083916,-0.4078645999999999,0.003080915,0.6707526999999999,-0.1075245,0.4321015,-24.45692,35.25
2,-0.07556152,0.05657959,0.9955292,1.0,-0.1408844,0.0461731,0.9889374,-33.086009999999995,9.516373,-29.606340000000003,2.91539,0.5813056999999999,0.2655962999999999,1.0,-0.03512573,0.06286621,0.9973907,35.59245,6.677155,-31.38641,2.786713,0.4043059,0.3658949,-0.551657,1.083825,-0.4079402,0.003082124,0.6709081,-0.1082798,0.4321015,-24.45692,35.25
2,-0.07556152,0.05657959,0.9955292,1.0,-0.1408844,0.0461731,0.9889374,-33.086009999999995,9.516373,-29.606340000000003,2.91539,0.5813056999999999,0.2655962999999999,1.0,-0.03512573,0.06286621,0.9973907,35.59245,6.677155,-31.38641,2.786713,0.4043059,0.3658949,-0.551657,1.083825,-0.4079402,0.003082124,0.6709081,-0.1082798,0.4321015,-24.45692,35.25
2,-0.07556152,0.05657959,0.9955292,1.0,-0.1408844,0.0461731,0.9889374,-33.086009999999995,9.516373,-29.606340000000003,2.91539,0.5813056999999999,0.2655962999999999,1.0,-0.03512573,0.06286621,0.9973907,35.59245,6.677155,-31.38641,2.786713,0.4043059,0.3658949,-0.551657,1.083825,-0.4079402,0.003082124,0.6709081,-0.1082798,0.4321015,-24.45692,35.25
2,-0.07606506,0.06117249,0.995224,1.0,-0.143692,0.04693604,0.9884949,-33.065490000000004,9.556061,-29.646590000000003,2.91185,0.5810147,0.2642868,1.0,-0.0377655,0.06906128,0.9968872,35.60378,6.700027,-31.41447,2.858032,0.4041125,0.3645974,-0.5514252,1.0837290000000002,-0.4079773,0.0031502659999999,0.6710744000000001,-0.1090795,0.4321015,-73.46038,35.25
2,-0.07606506,0.06117249,0.995224,1.0,-0.143692,0.04693604,0.9884949,-33.065490000000004,9.556061,-29.646590000000003,2.91185,0.5810147,0.2642868,1.0,-0.0377655,0.06906128,0.9968872,35.60378,6.700027,-31.41447,2.858032,0.4041125,0.3645974,-0.5514252,1.0837290000000002,-0.4079773,0.0031502659999999,0.6710744000000001,-0.1090795,0.4321015,-73.46038,35.25
2,-0.07606506,0.06117249,0.995224,1.0,-0.143692,0.04693604,0.9884949,-33.065490000000004,9.556061,-29.646590000000003,2.91185,0.5810147,0.2642868,1.0,-0.0377655,0.06906128,0.9968872,35.60378,6.700027,-31.41447,2.858032,0.4041125,0.3645974,-0.5514252,1.0837290000000002,-0.4079773,0.0031502659999999,0.6710744000000001,-0.1090795,0.4321015,-73.46038,35.25
2,-0.06565857,0.07124329,0.995285,1.0,-0.142868,0.05029297,0.9884491,-33.05423,9.582901,-29.61143,2.958344,0.5805514,0.2626057,1.0,-0.03041077,0.08061218,0.9962769,35.611540000000005,6.723511,-31.42439,2.950241,0.4027943,0.3624382,-0.5512769000000001,1.083577,-0.4081291999999999,0.003722644,0.6710778000000001,-0.1092657,0.4321015,-73.46038,35.25
2,-0.06565857,0.07124329,0.995285,1.0,-0.142868,0.05029297,0.9884491,-33.05423,9.582901,-29.61143,2.958344,0.5805514,0.2626057,1.0,-0.03041077,0.08061218,0.9962769,35.611540000000005,6.723511,-31.42439,2.950241,0.4027943,0.3624382,-0.5512769000000001,1.083577,-0.4081291999999999,0.003722644,0.6710778000000001,-0.1092657,0.4321015,-73.46038,35.25
2,-0.06565857,0.07124329,0.995285,1.0,-0.142868,0.05029297,0.9884491,-33.05423,9.582901,-29.61143,2.958344,0.5805514,0.2626057,1.0,-0.03041077,0.08061218,0.9962769,35.611540000000005,6.723511,-31.42439,2.950241,0.4027943,0.3624382,-0.5512769000000001,1.083577,-0.4081291999999999,0.003722644,0.6710778000000001,-0.1092657,0.4321015,-73.46038,35.25
2,-0.06941223,0.0763092,0.9946594,1.0,-0.1488495,0.0488739,0.9876404,-33.01807,9.619415,-29.58733,2.966721,0.5800486,0.2612526,1.0,-0.02679443,0.09072876,0.9954987,35.618559999999995,6.7317350000000005,-31.379,3.009552,0.4020627999999999,0.3605659,-0.5509641,1.083577,-0.4080938,0.003720642,0.6710919,-0.1093674,0.4321015,-73.46038,35.25
2,-0.06941223,0.0763092,0.9946594,1.0,-0.1488495,0.0488739,0.9876404,-33.01807,9.619415,-29.58733,2.966721,0.5800486,0.2612526,1.0,-0.02679443,0.09072876,0.9954987,35.618559999999995,6.7317350000000005,-31.379,3.009552,0.4020627999999999,0.3605659,-0.5509641,1.083577,-0.4080938,0.003720642,0.6710919,-0.1093674,0.4321015,-73.46038,35.25
2,-0.06941223,0.0763092,0.9946594,1.0,-0.1488495,0.0488739,0.9876404,-33.01807,9.619415,-29.58733,2.966721,0.5800486,0.2612526,1.0,-0.02679443,0.09072876,0.9954987,35.618559999999995,6.7317350000000005,-31.379,3.009552,0.4020627999999999,0.3605659,-0.5509641,1.083577,-0.4080938,0.003720642,0.6710919,-0.1093674,0.4321015,-73.46038,35.25
2,-0.07702637,0.07305908,0.994339,1.0,-0.1473541,0.04109192,0.9882202,-33.006159999999994,9.653152,-29.56606,2.996658,0.5794536,0.2608591,1.0,-0.02626038,0.09573364,0.9950562,35.62248,6.73526,-31.35681,3.018875,0.4018672,0.3596603,-0.5507934,1.083495,-0.4080599,0.003879455,0.6709379,-0.1098825,0.4321015,-73.46038,35.25
2,-0.07702637,0.07305908,0.994339,1.0,-0.1473541,0.04109192,0.9882202,-33.006159999999994,9.653152,-29.56606,2.996658,0.5794536,0.2608591,1.0,-0.02626038,0.09573364,0.9950562,35.62248,6.73526,-31.35681,3.018875,0.4018672,0.3596603,-0.5507934,1.083495,-0.4080599,0.003879455,0.6709379,-0.1098825,0.4321015,-73.46038,35.25
2,-0.07702637,0.07305908,0.994339,1.0,-0.1473541,0.04109192,0.9882202,-33.006159999999994,9.653152,-29.56606,2.996658,0.5794536,0.2608591,1.0,-0.02626038,0.09573364,0.9950562,35.62248,6.73526,-31.35681,3.018875,0.4018672,0.3596603,-0.5507934,1.083495,-0.4080599,0.003879455,0.6709379,-0.1098825,0.4321015,-73.46038,35.25
2,-0.07026672,0.1013947,0.9923553,1.0,-0.1447296,0.06765747,0.9871521,-32.9971,9.666794,-29.57803,3.07663,0.5789869000000001,0.256926,1.0,-0.02328491,0.1222382,0.992218,35.62825,6.769485,-31.34303,3.175339,0.401092,0.3551768,-0.5508783,1.083379,-0.4080624,0.003826276,0.6703553000000001,-0.1100906,0.4321015,-73.46038,35.25
2,-0.07026672,0.1013947,0.9923553,1.0,-0.1447296,0.06765747,0.9871521,-32.9971,9.666794,-29.57803,3.07663,0.5789869000000001,0.256926,1.0,-0.02328491,0.1222382,0.992218,35.62825,6.769485,-31.34303,3.175339,0.401092,0.3551768,-0.5508783,1.083379,-0.4080624,0.003826276,0.6703553000000001,-0.1100906,0.4321015,-73.46038,35.25
2,-0.07026672,0.1013947,0.9923553,1.0,-0.1447296,0.06765747,0.9871521,-32.9971,9.666794,-29.57803,3.07663,0.5789869000000001,0.256926,1.0,-0.02328491,0.1222382,0.992218,35.62825,6.769485,-31.34303,3.175339,0.401092,0.3551768,-0.5508783,1.083379,-0.4080624,0.003826276,0.6703553000000001,-0.1100906,0.4321015,-73.46038,35.25
2,-0.1624756,0.02813721,0.9862976,1.0,-0.1702727999999999,0.02563477,0.9850616,-32.9836,9.538437,-29.7926,3.1289830000000003,0.5816669,0.2688920999999999,1.0,-0.05548096,0.06202698,0.996521,35.39563,6.754836999999999,-31.94421,3.203461,0.4125553,0.3681359,-0.55109,1.0832190000000002,-0.4081727,0.003923378,0.6700763000000001,-0.1103365999999999,0.4321015,55.46754,35.25
2,-0.1624756,0.02813721,0.9862976,1.0,-0.1702727999999999,0.02563477,0.9850616,-32.9836,9.538437,-29.7926,3.1289830000000003,0.5816669,0.2688920999999999,1.0,-0.05548096,0.06202698,0.996521,35.39563,6.754836999999999,-31.94421,3.203461,0.4125553,0.3681359,-0.55109,1.0832190000000002,-0.4081727,0.003923378,0.6700763000000001,-0.1103365999999999,0.4321015,55.46754,35.25
2,-0.1624756,0.02813721,0.9862976,1.0,-0.1702727999999999,0.02563477,0.9850616,-32.9836,9.538437,-29.7926,3.1289830000000003,0.5816669,0.2688920999999999,1.0,-0.05548096,0.06202698,0.996521,35.39563,6.754836999999999,-31.94421,3.203461,0.4125553,0.3681359,-0.55109,1.0832190000000002,-0.4081727,0.003923378,0.6700763000000001,-0.1103365999999999,0.4321015,55.46754,35.25
2,-0.1887207,-0.01585388,0.9818878,1.0,-0.1939545,-0.01773071,0.980835,-33.03297,9.463806,-30.14993,3.166428,0.5865354,0.2799829,1.0,-0.06285095,0.02836609,0.9976044,35.31538,6.657181,-32.12721,3.117996,0.4162075,0.377217,-0.551122,1.083201,-0.4082298,0.004187029,0.670013,-0.1105752999999999,0.4321015,55.46754,35.25
2,-0.1887207,-0.01585388,0.9818878,1.0,-0.1939545,-0.01773071,0.980835,-33.03297,9.463806,-30.14993,3.166428,0.5865354,0.2799829,1.0,-0.06285095,0.02836609,0.9976044,35.31538,6.657181,-32.12721,3.117996,0.4162075,0.377217,-0.551122,1.083201,-0.4082298,0.004187029,0.670013,-0.1105752999999999,0.4321015,55.46754,35.25
2,-0.1887207,-0.01585388,0.9818878,1.0,-0.1939545,-0.01773071,0.980835,-33.03297,9.463806,-30.14993,3.166428,0.5865354,0.2799829,1.0,-0.06285095,0.02836609,0.9976044,35.31538,6.657181,-32.12721,3.117996,0.4162075,0.377217,-0.551122,1.083201,-0.4082298,0.004187029,0.670013,-0.1105752999999999,0.4321015,55.46754,35.25
2,-0.06817627,0.03033447,0.9972076,1.0,-0.1610565,-0.00970459,0.9868927,-33.16829,9.604706,-31.07814,3.213257,0.5882350000000001,0.2804331,1.0,-0.06816101,0.03033447,0.9972076,35.37311,6.600647,-31.84044,3.226715,0.4149267,0.3767489,-0.5511805999999999,1.08316,-0.4083968,0.003877534,0.6700437,-0.1102163999999999,0.4321015,55.46754,35.25
2,-0.06817627,0.03033447,0.9972076,1.0,-0.1610565,-0.00970459,0.9868927,-33.16829,9.604706,-31.07814,3.213257,0.5882350000000001,0.2804331,1.0,-0.06816101,0.03033447,0.9972076,35.37311,6.600647,-31.84044,3.226715,0.4149267,0.3767489,-0.5511805999999999,1.08316,-0.4083968,0.003877534,0.6700437,-0.1102163999999999,0.4321015,55.46754,35.25
2,-0.06817627,0.03033447,0.9972076,1.0,-0.1610565,-0.00970459,0.9868927,-33.16829,9.604706,-31.07814,3.213257,0.5882350000000001,0.2804331,1.0,-0.06816101,0.03033447,0.9972076,35.37311,6.600647,-31.84044,3.226715,0.4149267,0.3767489,-0.5511805999999999,1.08316,-0.4083968,0.003877534,0.6700437,-0.1102163999999999,0.4321015,55.46754,35.25
2,-0.06797791,0.02980042,0.9972382,1.0,-0.1632843,-0.01231384,0.986496,-33.1691,9.489853,-30.552670000000003,3.230835,0.5881050999999999,0.2806664,1.0,-0.06797791,0.02980042,0.9972382,35.37546,6.599335000000001,-31.83444,3.192932,0.4148774999999999,0.3767958,-0.5510906999999999,1.083178,-0.4084486,0.003834057,0.6701015,-0.1101768,0.4321015,68.0675,35.23
2,-0.06797791,0.02980042,0.9972382,1.0,-0.1632843,-0.01231384,0.986496,-33.1691,9.489853,-30.552670000000003,3.230835,0.5881050999999999,0.2806664,1.0,-0.06797791,0.02980042,0.9972382,35.37546,6.599335000000001,-31.83444,3.192932,0.4148774999999999,0.3767958,-0.5510906999999999,1.083178,-0.4084486,0.003834057,0.6701015,-0.1101768,0.4321015,-1.750525,35.23
2,-0.06797791,0.02980042,0.9972382,1.0,-0.1632843,-0.01231384,0.986496,-33.1691,9.489853,-30.552670000000003,3.230835,0.5881050999999999,0.2806664,1.0,-0.06797791,0.02980042,0.9972382,35.37546,6.599335000000001,-31.83444,3.192932,0.4148774999999999,0.3767958,-0.5510906999999999,1.083178,-0.4084486,0.003834057,0.6701015,-0.1101768,0.4321015,-1.750525,35.23
2,-0.06108093,0.02879333,0.9977112,1.0,-0.169632,0.001937866,0.9855042,-33.17451,9.367523,-29.96878,3.27179,0.5883742,0.2794832,1.0,-0.06108093,0.02879333,0.9977112,35.39433,6.590088000000001,-31.73235,3.250153,0.4133794,0.3764219,-0.5513998999999999,1.082963,-0.4086404,0.003696534,0.6701590000000001,-0.1112705,0.4321015,-1.750525,35.23
2,-0.06108093,0.02879333,0.9977112,1.0,-0.169632,0.001937866,0.9855042,-33.17451,9.367523,-29.96878,3.27179,0.5883742,0.2794832,1.0,-0.06108093,0.02879333,0.9977112,35.39433,6.590088000000001,-31.73235,3.250153,0.4133794,0.3764219,-0.5513998999999999,1.082963,-0.4086404,0.003696534,0.6701590000000001,-0.1112705,0.4321015,-1.750525,35.23
2,-0.06108093,0.02879333,0.9977112,1.0,-0.169632,0.001937866,0.9855042,-33.17451,9.367523,-29.96878,3.27179,0.5883742,0.2794832,1.0,-0.06108093,0.02879333,0.9977112,35.39433,6.590088000000001,-31.73235,3.250153,0.4133794,0.3764219,-0.5513998999999999,1.082963,-0.4086404,0.003696534,0.6701590000000001,-0.1112705,0.4321015,-1.750525,35.23
2,-0.06436157,0.03042603,0.9974518,1.0,-0.1682434,-0.0005645752,0.985733,-33.18095,9.377731,-29.90533,3.27655,0.5883742,0.2789559,1.0,-0.06430054,0.03045654,0.9974518,35.406009999999995,6.585189999999999,-31.70161,3.259857,0.4133794,0.3761639,-0.5514798000000001,1.082915,-0.4087343,0.003845699,0.6701635,-0.1107668,0.4321015,-1.750525,35.23
2,-0.06436157,0.03042603,0.9974518,1.0,-0.1682434,-0.0005645752,0.985733,-33.18095,9.377731,-29.90533,3.27655,0.5883742,0.2789559,1.0,-0.06430054,0.03045654,0.9974518,35.406009999999995,6.585189999999999,-31.70161,3.259857,0.4133794,0.3761639,-0.5514798000000001,1.082915,-0.4087343,0.003845699,0.6701635,-0.1107668,0.4321015,-1.750525,35.23
2,-0.06436157,0.03042603,0.9974518,1.0,-0.1682434,-0.0005645752,0.985733,-33.18095,9.377731,-29.90533,3.27655,0.5883742,0.2789559,1.0,-0.06430054,0.03045654,0.9974518,35.406009999999995,6.585189999999999,-31.70161,3.259857,0.4133794,0.3761639,-0.5514798000000001,1.082915,-0.4087343,0.003845699,0.6701635,-0.1107668,0.4321015,-1.750525,35.23
2,-0.1015015,0.02424622,0.9945374,1.0,-0.1682129,-0.00138855,0.985733,-33.18951,9.377716,-29.87897,3.277908,0.5886428000000001,0.2788812,1.0,-0.06463623,0.0382843,0.9971619,35.4285,6.575363,-31.67207,3.256668,0.4126723,0.3752995,-0.5516043,1.082834,-0.4087743,0.003880415,0.6702140000000001,-0.110891,0.4321015,-1.750525,35.23
2,-0.1015015,0.02424622,0.9945374,1.0,-0.1682129,-0.00138855,0.985733,-33.18951,9.377716,-29.87897,3.277908,0.5886428000000001,0.2788812,1.0,-0.06463623,0.0382843,0.9971619,35.4285,6.575363,-31.67207,3.256668,0.4126723,0.3752995,-0.5516043,1.082834,-0.4087743,0.003880415,0.6702140000000001,-0.110891,0.4321015,-1.750525,35.23
2,-0.1015015,0.02424622,0.9945374,1.0,-0.1682129,-0.00138855,0.985733,-33.18951,9.377716,-29.87897,3.277908,0.5886428000000001,0.2788812,1.0,-0.06463623,0.0382843,0.9971619,35.4285,6.575363,-31.67207,3.256668,0.4126723,0.3752995,-0.5516043,1.082834,-0.4087743,0.003880415,0.6702140000000001,-0.110891,0.4321015,-1.750525,35.23
3,-0.1085204999999999,0.02259827,0.9938354,1.0,-0.1667328,-0.000579834,0.9859924,-33.1917,9.377716,-29.8786,3.294952,0.5885505,0.2787594,1.0,-0.06083679,0.04141235,0.9972839,35.442029999999995,6.575363,-31.626620000000003,3.286407,0.4117358,0.3745432,-0.5519607,1.082965,-0.4089003,0.003467742,0.6702361,-0.1106323999999999,0.4321015,-1.750525,35.23
3,-0.1085204999999999,0.02259827,0.9938354,1.0,-0.1667328,-0.000579834,0.9859924,-33.1917,9.377716,-29.8786,3.294952,0.5885505,0.2787594,1.0,-0.06083679,0.04141235,0.9972839,35.442029999999995,6.575363,-31.626620000000003,3.286407,0.4117358,0.3745432,-0.5519607,1.082965,-0.4089003,0.003467742,0.6702361,-0.1106323999999999,0.4321015,-1.750525,35.23
3,-0.1085204999999999,0.02259827,0.9938354,1.0,-0.1667328,-0.000579834,0.9859924,-33.1917,9.377716,-29.8786,3.294952,0.5885505,0.2787594,1.0,-0.06083679,0.04141235,0.9972839,35.442029999999995,6.575363,-31.626620000000003,3.286407,0.4117358,0.3745432,-0.5519607,1.082965,-0.4089003,0.003467742,0.6702361,-0.1106323999999999,0.4321015,-1.750525,35.23
3,-0.1044464,0.02288818,0.9942627,1.0,-0.1681671,0.002670288,0.9857483,-33.19231,9.369232,-29.862640000000003,3.302017,0.5887425000000001,0.2785407,1.0,-0.05929565,0.0370635999999999,0.9975433,35.44727,6.577438000000001,-31.61284,3.273666,0.4113928,0.3748785,-0.5520126999999999,1.083117,-0.4089837999999999,0.003387314,0.6703286,-0.1102023999999999,0.4321015,23.66901,35.23
3,-0.1044464,0.02288818,0.9942627,1.0,-0.1681671,0.002670288,0.9857483,-33.19231,9.369232,-29.862640000000003,3.302017,0.5887425000000001,0.2785407,1.0,-0.05929565,0.0370635999999999,0.9975433,35.44727,6.577438000000001,-31.61284,3.273666,0.4113928,0.3748785,-0.5520126999999999,1.083117,-0.4089837999999999,0.003387314,0.6703286,-0.1102023999999999,0.4321015,23.66901,35.23
3,-0.1044464,0.02288818,0.9942627,1.0,-0.1681671,0.002670288,0.9857483,-33.19231,9.369232,-29.862640000000003,3.302017,0.5887425000000001,0.2785407,1.0,-0.05929565,0.0370635999999999,0.9975433,35.44727,6.577438000000001,-31.61284,3.273666,0.4113928,0.3748785,-0.5520126999999999,1.083117,-0.4089837999999999,0.003387314,0.6703286,-0.1102023999999999,0.4321015,23.66901,35.23
3,-0.09983826,0.02862549,0.9945831,1.0,-0.1679535,0.007522583,0.9857635,-33.19405,9.371597,-29.83202,3.273682,0.5887425000000001,0.2775945999999999,1.0,-0.06259155,0.04003906,0.9972229,35.45561,6.583252000000001,-31.61351,3.278214,0.4114997999999999,0.3743315,-0.5520427,1.083336,-0.4089975,0.002787643,0.6704791,-0.1101578999999999,0.4321015,23.66901,35.23
3,-0.09983826,0.02862549,0.9945831,1.0,-0.1679535,0.007522583,0.9857635,-33.19405,9.371597,-29.83202,3.273682,0.5887425000000001,0.2775945999999999,1.0,-0.06259155,0.04003906,0.9972229,35.45561,6.583252000000001,-31.61351,3.278214,0.4114997999999999,0.3743315,-0.5520427,1.083336,-0.4089975,0.002787643,0.6704791,-0.1101578999999999,0.4321015,23.66901,35.23
3,-0.09983826,0.02862549,0.9945831,1.0,-0.1679535,0.007522583,0.9857635,-33.19405,9.371597,-29.83202,3.273682,0.5887425000000001,0.2775945999999999,1.0,-0.06259155,0.04003906,0.9972229,35.45561,6.583252000000001,-31.61351,3.278214,0.4114997999999999,0.3743315,-0.5520427,1.083336,-0.4089975,0.002787643,0.6704791,-0.1101578999999999,0.4321015,23.66901,35.23
3,-0.108963,0.02833557,0.9936371,1.0,-0.1692047,0.01300049,0.9854889,-33.194309999999994,9.375015,-29.83321,3.219727,0.5888876000000001,0.2767667,1.0,-0.06578064,0.03919983,0.9970551,35.4572,6.596786,-31.64211,3.230316,0.4118823,0.3741735,-0.5521598000000001,1.08352,-0.4090927,0.0022409129999999,0.6707119,-0.1099425,0.4321015,23.66901,35.23
3,-0.108963,0.02833557,0.9936371,1.0,-0.1692047,0.01300049,0.9854889,-33.194309999999994,9.375015,-29.83321,3.219727,0.5888876000000001,0.2767667,1.0,-0.06578064,0.03919983,0.9970551,35.4572,6.596786,-31.64211,3.230316,0.4118823,0.3741735,-0.5521598000000001,1.08352,-0.4090927,0.0022409129999999,0.6707119,-0.1099425,0.4321015,23.66901,35.23
3,-0.108963,0.02833557,0.9936371,1.0,-0.1692047,0.01300049,0.9854889,-33.194309999999994,9.375015,-29.83321,3.219727,0.5888876000000001,0.2767667,1.0,-0.06578064,0.03919983,0.9970551,35.4572,6.596786,-31.64211,3.230316,0.4118823,0.3741735,-0.5521598000000001,1.08352,-0.4090927,0.0022409129999999,0.6707119,-0.1099425,0.4321015,23.66901,35.23
3,-0.1054688,0.02903748,0.993988,1.0,-0.1716614,0.0135497999999999,0.9850464,-33.19429,9.389542,-29.88393,3.135361,0.5891957,0.2765455999999999,1.0,-0.06477356,0.03843689,0.9971466,35.4593,6.604355,-31.66539,3.181396,0.4117385,0.3741447,-0.5519497,1.083979,-0.4091642,0.001541666,0.6712164,-0.1091254,0.4321015,23.66901,35.23
3,-0.1054688,0.02903748,0.993988,1.0,-0.1716614,0.0135497999999999,0.9850464,-33.19429,9.389542,-29.88393,3.135361,0.5891957,0.2765455999999999,1.0,-0.06477356,0.03843689,0.9971466,35.4593,6.604355,-31.66539,3.181396,0.4117385,0.3741447,-0.5519497,1.083979,-0.4091642,0.001541666,0.6712164,-0.1091254,0.4321015,23.66901,35.23
3,-0.1054688,0.02903748,0.993988,1.0,-0.1716614,0.0135497999999999,0.9850464,-33.19429,9.389542,-29.88393,3.135361,0.5891957,0.2765455999999999,1.0,-0.06477356,0.03843689,0.9971466,35.4593,6.604355,-31.66539,3.181396,0.4117385,0.3741447,-0.5519497,1.083979,-0.4091642,0.001541666,0.6712164,-0.1091254,0.4321015,23.66901,35.23
3,-0.1004791,0.03112793,0.9944458,1.0,-0.1708832,0.01330566,0.985199,-33.19429,9.398483,-29.92831,3.10527,0.5891301999999999,0.2765442,1.0,-0.06658936,0.03959656,0.9969788,35.46268,6.604935,-31.6711,3.146042,0.4118926999999999,0.3740124,-0.5517824,1.084295,-0.4092215999999999,0.0007117861999999,0.6715238,-0.1086721,0.4321015,-45.10848,35.23
3,-0.1004791,0.03112793,0.9944458,1.0,-0.1708832,0.01330566,0.985199,-33.19429,9.398483,-29.92831,3.10527,0.5891301999999999,0.2765442,1.0,-0.06658936,0.03959656,0.9969788,35.46268,6.604935,-31.6711,3.146042,0.4118926999999999,0.3740124,-0.5517824,1.084295,-0.4092215999999999,0.0007117861999999,0.6715238,-0.1086721,0.4321015,-45.10848,35.23
3,-0.1004791,0.03112793,0.9944458,1.0,-0.1708832,0.01330566,0.985199,-33.19429,9.398483,-29.92831,3.10527,0.5891301999999999,0.2765442,1.0,-0.06658936,0.03959656,0.9969788,35.46268,6.604935,-31.6711,3.146042,0.4118926999999999,0.3740124,-0.5517824,1.084295,-0.4092215999999999,0.0007117861999999,0.6715238,-0.1086721,0.4321015,-45.10848,35.23
3,-0.09986877,0.02938843,0.9945526,1.0,-0.1691742,0.01002502,0.9855194,-33.19341,9.407532000000002,-30.007690000000004,3.095001,0.5889517,0.2772117,1.0,-0.06581116,0.03878784,0.9970703000000002,35.472559999999994,6.600967,-31.65715,3.1181490000000003,0.4115069999999999,0.3741127999999999,-0.5519121,1.084706,-0.4092989999999999,-0.000422864,0.6718955,-0.1082694,0.4321015,-45.10848,35.23
3,-0.09986877,0.02938843,0.9945526,1.0,-0.1691742,0.01002502,0.9855194,-33.19341,9.407532000000002,-30.007690000000004,3.095001,0.5889517,0.2772117,1.0,-0.06581116,0.03878784,0.9970703000000002,35.472559999999994,6.600967,-31.65715,3.1181490000000003,0.4115069999999999,0.3741127999999999,-0.5519121,1.084706,-0.4092989999999999,-0.000422864,0.6718955,-0.1082694,0.4321015,-45.10848,35.23
3,-0.09986877,0.02938843,0.9945526,1.0,-0.1691742,0.01002502,0.9855194,-33.19341,9.407532000000002,-30.007690000000004,3.095001,0.5889517,0.2772117,1.0,-0.06581116,0.03878784,0.9970703000000002,35.472559999999994,6.600967,-31.65715,3.1181490000000003,0.4115069999999999,0.3741127999999999,-0.5519121,1.084706,-0.4092989999999999,-0.000422864,0.6718955,-0.1082694,0.4321015,-45.10848,35.23
3,-0.1007843,0.02565002,0.9945679,1.0,-0.1672821,0.005752563,0.9858856,-33.1927,9.407532000000002,-30.01819,3.06163,0.588662,0.2778415,1.0,-0.06434631,0.03643799,0.9972534,35.481640000000006,6.573074,-31.62498,3.101547,0.4110615999999999,0.3751018,-0.5519536,1.084883,-0.4093507999999999,-0.001238878,0.6720874,-0.1077481,0.4321015,-45.10848,35.23
3,-0.1007843,0.02565002,0.9945679,1.0,-0.1672821,0.005752563,0.9858856,-33.1927,9.407532000000002,-30.01819,3.06163,0.588662,0.2778415,1.0,-0.06434631,0.03643799,0.9972534,35.481640000000006,6.573074,-31.62498,3.101547,0.4110615999999999,0.3751018,-0.5519536,1.084883,-0.4093507999999999,-0.001238878,0.6720874,-0.1077481,0.4321015,-45.10848,35.23
3,-0.1007843,0.02565002,0.9945679,1.0,-0.1672821,0.005752563,0.9858856,-33.1927,9.407532000000002,-30.01819,3.06163,0.588662,0.2778415,1.0,-0.06434631,0.03643799,0.9972534,35.481640000000006,6.573074,-31.62498,3.101547,0.4110615999999999,0.3751018,-0.5519536,1.084883,-0.4093507999999999,-0.001238878,0.6720874,-0.1077481,0.4321015,-45.10848,35.23
3,-0.09957886,0.02761841,0.9946442,1.0,-0.1722565,0.01556396,0.9849243,-33.17645,9.328384,-29.83562,3.046402,0.5885081999999999,0.2781126,1.0,-0.06118774,0.03387451,0.9975433,35.488820000000004,6.5656740000000005,-31.601440000000004,3.076706,0.4104811,0.3754635,-0.5519717,1.085252,-0.4093492999999999,-0.002368605,0.6722175,-0.1066059,0.4321015,-45.10848,35.23
3,-0.09957886,0.02761841,0.9946442,1.0,-0.1722565,0.01556396,0.9849243,-33.17645,9.328384,-29.83562,3.046402,0.5885081999999999,0.2781126,1.0,-0.06118774,0.03387451,0.9975433,35.488820000000004,6.5656740000000005,-31.601440000000004,3.076706,0.4104811,0.3754635,-0.5519717,1.085252,-0.4093492999999999,-0.002368605,0.6722175,-0.1066059,0.4321015,-45.10848,35.23
3,-0.09957886,0.02761841,0.9946442,1.0,-0.1722565,0.01556396,0.9849243,-33.17645,9.328384,-29.83562,3.046402,0.5885081999999999,0.2781126,1.0,-0.06118774,0.03387451,0.9975433,35.488820000000004,6.5656740000000005,-31.601440000000004,3.076706,0.4104811,0.3754635,-0.5519717,1.085252,-0.4093492999999999,-0.002368605,0.6722175,-0.1066059,0.4321015,-45.10848,35.23
3,-0.07182312,0.03269958,0.9968719,1.0,-0.1709595,0.01315308,0.9851837,-33.176190000000005,9.293076,-29.73358,3.010529,0.5881384,0.2791103,1.0,-0.06071472,0.03486633,0.9975433,35.49698,6.517105,-31.48351,3.048157,0.4102861,0.3760870999999999,-0.5518813,1.085698,-0.4093214,-0.003524219,0.6723003000000001,-0.1052307,0.4321015,-45.10848,35.23
3,-0.07182312,0.03269958,0.9968719,1.0,-0.1709595,0.01315308,0.9851837,-33.176190000000005,9.293076,-29.73358,3.010529,0.5881384,0.2791103,1.0,-0.06071472,0.03486633,0.9975433,35.49698,6.517105,-31.48351,3.048157,0.4102861,0.3760870999999999,-0.5518813,1.085698,-0.4093214,-0.003524219,0.6723003000000001,-0.1052307,0.4321015,-74.65198,35.23
3,-0.07182312,0.03269958,0.9968719,1.0,-0.1709595,0.01315308,0.9851837,-33.176190000000005,9.293076,-29.73358,3.010529,0.5881384,0.2791103,1.0,-0.06071472,0.03486633,0.9975433,35.49698,6.517105,-31.48351,3.048157,0.4102861,0.3760870999999999,-0.5518813,1.085698,-0.4093214,-0.003524219,0.6723003000000001,-0.1052307,0.4321015,-72.15424,35.23
3,-0.08586121,0.02529907,0.9959717,1.0,-0.1688843,0.002624512,0.9856262,-33.176190000000005,9.291382,-29.71141,2.999374,0.5878088,0.2803995999999999,1.0,-0.06134033,0.03193665,0.9976044,35.4996,6.513701999999999,-31.46558,3.048096,0.4102861,0.3764310999999999,-0.5519516,1.086132,-0.4093835999999999,-0.004986987,0.6727276,-0.1038607999999999,0.4321015,-72.15424,35.23
3,-0.08586121,0.02529907,0.9959717,1.0,-0.1688843,0.002624512,0.9856262,-33.176190000000005,9.291382,-29.71141,2.999374,0.5878088,0.2803995999999999,1.0,-0.06134033,0.03193665,0.9976044,35.4996,6.513701999999999,-31.46558,3.048096,0.4102861,0.3764310999999999,-0.5519516,1.086132,-0.4093835999999999,-0.004986987,0.6727276,-0.1038607999999999,0.4321015,-72.15424,35.23
3,-0.08586121,0.02529907,0.9959717,1.0,-0.1688843,0.002624512,0.9856262,-33.176190000000005,9.291382,-29.71141,2.999374,0.5878088,0.2803995999999999,1.0,-0.06134033,0.03193665,0.9976044,35.4996,6.513701999999999,-31.46558,3.048096,0.4102861,0.3764310999999999,-0.5519516,1.086132,-0.4093835999999999,-0.004986987,0.6727276,-0.1038607999999999,0.4321015,-72.15424,35.23
3,-0.1020813,0.01020813,0.9947205,1.0,-0.1674194,-0.004180908,0.9858704,-33.18355,9.280869,-29.67731,2.947784,0.5877813000000001,0.2814424,1.0,-0.06115723,0.01914978,0.9979401,35.4996,6.497574,-31.43596,3.045044,0.4102861,0.3783495999999999,-0.5520318000000001,1.086933,-0.4094653,-0.007140331,0.6731746999999999,-0.1011375,0.4321015,-72.15424,35.23
3,-0.1020813,0.01020813,0.9947205,1.0,-0.1674194,-0.004180908,0.9858704,-33.18355,9.280869,-29.67731,2.947784,0.5877813000000001,0.2814424,1.0,-0.06115723,0.01914978,0.9979401,35.4996,6.497574,-31.43596,3.045044,0.4102861,0.3783495999999999,-0.5520318000000001,1.086933,-0.4094653,-0.007140331,0.6731746999999999,-0.1011375,0.4321015,-72.15424,35.23
3,-0.1020813,0.01020813,0.9947205,1.0,-0.1674194,-0.004180908,0.9858704,-33.18355,9.280869,-29.67731,2.947784,0.5877813000000001,0.2814424,1.0,-0.06115723,0.01914978,0.9979401,35.4996,6.497574,-31.43596,3.045044,0.4102861,0.3783495999999999,-0.5520318000000001,1.086933,-0.4094653,-0.007140331,0.6731746999999999,-0.1011375,0.4321015,-72.15424,35.23
3,-0.1002655,0.002731323,0.9949493,1.0,-0.1618042,-0.02079773,0.9865875,-33.19186,9.277405,-29.66624,2.940613,0.5872968000000001,0.2836699,1.0,-0.06201172,0.01727295,0.9979248,35.49889,6.4686580000000005,-31.41177,3.041702,0.4104394,0.3793965,-0.5519821999999999,1.087678,-0.4094554,-0.0089182369999999,0.6736397,-0.09868586,0.4321015,-72.15424,35.23
3,-0.1002655,0.002731323,0.9949493,1.0,-0.1618042,-0.02079773,0.9865875,-33.19186,9.277405,-29.66624,2.940613,0.5872968000000001,0.2836699,1.0,-0.06201172,0.01727295,0.9979248,35.49889,6.4686580000000005,-31.41177,3.041702,0.4104394,0.3793965,-0.5519821999999999,1.087678,-0.4094554,-0.0089182369999999,0.6736397,-0.09868586,0.4321015,-72.15424,35.23
3,-0.1002655,0.002731323,0.9949493,1.0,-0.1618042,-0.02079773,0.9865875,-33.19186,9.277405,-29.66624,2.940613,0.5872968000000001,0.2836699,1.0,-0.06201172,0.01727295,0.9979248,35.49889,6.4686580000000005,-31.41177,3.041702,0.4104394,0.3793965,-0.5519821999999999,1.087678,-0.4094554,-0.0089182369999999,0.6736397,-0.09868586,0.4321015,-72.15424,35.23
3,-0.06303406,0.009048462,0.9979553,1.0,-0.1458282,-0.001739502,0.9893036,-33.218090000000004,9.418015,-30.84306,2.92421,0.5873441,0.2850268,1.0,-0.06278992,0.009078979,0.9979706,35.494890000000005,6.443115,-31.4155,2.924057,0.4108385999999999,0.3812754,-0.5522974,1.088371,-0.4095775,-0.01077266,0.6742636,-0.09626171,0.4321015,-72.15424,35.23
3,-0.06303406,0.009048462,0.9979553,1.0,-0.1458282,-0.001739502,0.9893036,-33.218090000000004,9.418015,-30.84306,2.92421,0.5873441,0.2850268,1.0,-0.06278992,0.009078979,0.9979706,35.494890000000005,6.443115,-31.4155,2.924057,0.4108385999999999,0.3812754,-0.5522974,1.088371,-0.4095775,-0.01077266,0.6742636,-0.09626171,0.4321015,-72.15424,35.23
3,-0.06303406,0.009048462,0.9979553,1.0,-0.1458282,-0.001739502,0.9893036,-33.218090000000004,9.418015,-30.84306,2.92421,0.5873441,0.2850268,1.0,-0.06278992,0.009078979,0.9979706,35.494890000000005,6.443115,-31.4155,2.924057,0.4108385999999999,0.3812754,-0.5522974,1.088371,-0.4095775,-0.01077266,0.6742636,-0.09626171,0.4321015,-72.15424,35.23
3,-0.0428009,0.02409363,0.9987793,1.0,-0.1812134,0.0007019042999999,0.983429,-33.0287,9.556778,-29.49712,3.066559,0.5845735,0.2681921,1.0,-0.0428009,0.02409363,0.9987793,35.4328,6.852844,-31.84087,2.918411,0.4101974,0.3683602,-0.5525555999999999,1.089337,-0.4098085999999999,-0.01411853,0.6748276999999999,-0.09240901,0.4321015,-72.15424,35.23
3,-0.0428009,0.02409363,0.9987793,1.0,-0.1812134,0.0007019042999999,0.983429,-33.0287,9.556778,-29.49712,3.066559,0.5845735,0.2681921,1.0,-0.0428009,0.02409363,0.9987793,35.4328,6.852844,-31.84087,2.918411,0.4101974,0.3683602,-0.5525555999999999,1.089337,-0.4098085999999999,-0.01411853,0.6748276999999999,-0.09240901,0.4321015,-72.15424,35.23
3,-0.0428009,0.02409363,0.9987793,1.0,-0.1812134,0.0007019042999999,0.983429,-33.0287,9.556778,-29.49712,3.066559,0.5845735,0.2681921,1.0,-0.0428009,0.02409363,0.9987793,35.4328,6.852844,-31.84087,2.918411,0.4101974,0.3683602,-0.5525555999999999,1.089337,-0.4098085999999999,-0.01411853,0.6748276999999999,-0.09240901,0.4321015,-72.15424,35.23
3,-1.0,-1.0,-1.0,1.0,0.0,0.0,0.0,-32.79922,10.46397,-30.38499,-1.0,0.5762268,0.2156054,1.0,0.0,0.0,0.0,35.45583,7.557724,-31.7485,-1.0,0.4080459,0.3138139,-0.5529227,1.09035,-0.4099427,-0.01731936,0.675395,-0.08900424,0.4321015,52.49319,35.23
3,-1.0,-1.0,-1.0,1.0,0.0,0.0,0.0,-32.79922,10.46397,-30.38499,-1.0,0.5762268,0.2156054,1.0,0.0,0.0,0.0,35.45583,7.557724,-31.7485,-1.0,0.4080459,0.3138139,-0.5529227,1.09035,-0.4099427,-0.01731936,0.675395,-0.08900424,0.4321015,52.49319,35.23
3,-1.0,-1.0,-1.0,1.0,0.0,0.0,0.0,-32.79922,10.46397,-30.38499,-1.0,0.5762268,0.2156054,1.0,0.0,0.0,0.0,35.45583,7.557724,-31.7485,-1.0,0.4080459,0.3138139,-0.5529227,1.09035,-0.4099427,-0.01731936,0.675395,-0.08900424,0.4321015,52.49319,35.23
3,-0.02850342,0.2288817999999999,0.9730225,1.0,-0.1322632,0.1903687,0.9727478,-32.9281,10.36256,-30.363570000000003,3.090164,0.5771066999999999,0.2183172,1.0,-0.02801514,0.2290649,0.9730072,35.50447,7.45787,-31.71074,3.298111,0.4053292,0.3204242,-0.5530565,1.0914780000000002,-0.4100178,-0.02076577,0.6762158,-0.08562566,0.4321015,52.49319,35.23
3,-0.02850342,0.2288817999999999,0.9730225,1.0,-0.1322632,0.1903687,0.9727478,-32.9281,10.36256,-30.363570000000003,3.090164,0.5771066999999999,0.2183172,1.0,-0.02801514,0.2290649,0.9730072,35.50447,7.45787,-31.71074,3.298111,0.4053292,0.3204242,-0.5530565,1.0914780000000002,-0.4100178,-0.02076577,0.6762158,-0.08562566,0.4321015,52.49319,35.23
3,-0.02850342,0.2288817999999999,0.9730225,1.0,-0.1322632,0.1903687,0.9727478,-32.9281,10.36256,-30.363570000000003,3.090164,0.5771066999999999,0.2183172,1.0,-0.02801514,0.2290649,0.9730072,35.50447,7.45787,-31.71074,3.298111,0.4053292,0.3204242,-0.5530565,1.0914780000000002,-0.4100178,-0.02076577,0.6762158,-0.08562566,0.4321015,52.49319,35.23
3,-0.05592346,0.2164764,0.9746704,1.0,-0.1379547,0.2144927999999999,0.9669189,-32.97035,10.30946,-30.40114,3.171631,0.5795045,0.2174106,1.0,-0.04208374,0.2166748,0.9753265,35.53175,7.374771000000001,-31.69749,3.289078,0.4061717999999999,0.324907,-0.5532312,1.092789,-0.4101840999999999,-0.02467421,0.6770357,-0.08201227,0.4321015,52.49319,35.23
3,-0.05592346,0.2164764,0.9746704,1.0,-0.1379547,0.2144927999999999,0.9669189,-32.97035,10.30946,-30.40114,3.171631,0.5795045,0.2174106,1.0,-0.04208374,0.2166748,0.9753265,35.53175,7.374771000000001,-31.69749,3.289078,0.4061717999999999,0.324907,-0.5532312,1.092789,-0.4101840999999999,-0.02467421,0.6770357,-0.08201227,0.4321015,52.49319,35.23
3,-0.05592346,0.2164764,0.9746704,1.0,-0.1379547,0.2144927999999999,0.9669189,-32.97035,10.30946,-30.40114,3.171631,0.5795045,0.2174106,1.0,-0.04208374,0.2166748,0.9753265,35.53175,7.374771000000001,-31.69749,3.289078,0.4061717999999999,0.324907,-0.5532312,1.092789,-0.4101840999999999,-0.02467421,0.6770357,-0.08201227,0.4321015,52.49319,35.23
3,-0.07034302,0.2204742,0.9728394,1.0,-0.1216736,0.2140045,0.969223,-33.01047,10.17609,-30.3952,3.164505,0.5786725,0.2228472,1.0,-0.03919983,0.2241058,0.9737701,35.5508,7.276642,-31.69928,3.291946,0.4051575999999999,0.3274855,-0.5537465,1.093658,-0.4104007999999999,-0.02752151,0.6778321999999999,-0.07836282,0.4321015,52.49319,35.23
3,-0.07034302,0.2204742,0.9728394,1.0,-0.1216736,0.2140045,0.969223,-33.01047,10.17609,-30.3952,3.164505,0.5786725,0.2228472,1.0,-0.03919983,0.2241058,0.9737701,35.5508,7.276642,-31.69928,3.291946,0.4051575999999999,0.3274855,-0.5537465,1.093658,-0.4104007999999999,-0.02752151,0.6778321999999999,-0.07836282,0.4321015,52.49319,35.23
3,-0.07034302,0.2204742,0.9728394,1.0,-0.1216736,0.2140045,0.969223,-33.01047,10.17609,-30.3952,3.164505,0.5786725,0.2228472,1.0,-0.03919983,0.2241058,0.9737701,35.5508,7.276642,-31.69928,3.291946,0.4051575999999999,0.3274855,-0.5537465,1.093658,-0.4104007999999999,-0.02752151,0.6778321999999999,-0.07836282,0.4321015,52.49319,35.23
3,-0.05651855,0.2048492,0.9771576,1.0,-0.1231537,0.1694946,0.9777985,-33.03838,10.02275,-30.312040000000003,2.998825,0.579199,0.2344597,1.0,-0.02774048,0.2197112999999999,0.9751587,35.58238,7.101334,-31.67142,3.212555,0.4028091,0.3339412,-0.5543089,1.0945200000000002,-0.4105433,-0.03011787,0.678562,-0.07504738,0.4321015,52.49319,35.23
3,-0.05651855,0.2048492,0.9771576,1.0,-0.1231537,0.1694946,0.9777985,-33.03838,10.02275,-30.312040000000003,2.998825,0.579199,0.2344597,1.0,-0.02774048,0.2197112999999999,0.9751587,35.58238,7.101334,-31.67142,3.212555,0.4028091,0.3339412,-0.5543089,1.0945200000000002,-0.4105433,-0.03011787,0.678562,-0.07504738,0.4321015,52.49319,35.23
3,-0.05651855,0.2048492,0.9771576,1.0,-0.1231537,0.1694946,0.9777985,-33.03838,10.02275,-30.312040000000003,2.998825,0.579199,0.2344597,1.0,-0.02774048,0.2197112999999999,0.9751587,35.58238,7.101334,-31.67142,3.212555,0.4028091,0.3339412,-0.5543089,1.0945200000000002,-0.4105433,-0.03011787,0.678562,-0.07504738,0.4321015,52.49319,35.23
3,-0.05137634,0.189209,0.9805908,1.0,-0.1175079,0.1833191,0.9759979,-33.06763,9.913223,-30.30307,3.000641,0.5794477,0.2368478,1.0,-0.01928711,0.1917572,0.9812469,35.60985,7.057236,-31.64603,3.111282,0.4009864,0.338625,-0.554801,1.095379,-0.4106229,-0.03255057,0.6791416,-0.07255471,0.4321015,37.38824,35.23
3,-0.05137634,0.189209,0.9805908,1.0,-0.1175079,0.1833191,0.9759979,-33.06763,9.913223,-30.30307,3.000641,0.5794477,0.2368478,1.0,-0.01928711,0.1917572,0.9812469,35.60985,7.057236,-31.64603,3.111282,0.4009864,0.338625,-0.554801,1.095379,-0.4106229,-0.03255057,0.6791416,-0.07255471,0.4321015,37.38824,35.23
3,-0.05137634,0.189209,0.9805908,1.0,-0.1175079,0.1833191,0.9759979,-33.06763,9.913223,-30.30307,3.000641,0.5794477,0.2368478,1.0,-0.01928711,0.1917572,0.9812469,35.60985,7.057236,-31.64603,3.111282,0.4009864,0.338625,-0.554801,1.095379,-0.4106229,-0.03255057,0.6791416,-0.07255471,0.4321015,37.38824,35.23
3,-0.05455017,0.1819305,0.9817963,1.0,-0.1055298,0.1759032999999999,0.9787292,-33.07355,9.844513,-30.23558,3.088715,0.5780486,0.2401188,1.0,-0.02589417,0.1850891,0.9823761,35.62096,6.987274,-31.63901,3.1428830000000003,0.4013947,0.3419425,-0.5555274,1.095887,-0.4107657999999999,-0.03465346,0.6795022,-0.07037177,0.4321015,37.38824,35.23
3,-0.05455017,0.1819305,0.9817963,1.0,-0.1055298,0.1759032999999999,0.9787292,-33.07355,9.844513,-30.23558,3.088715,0.5780486,0.2401188,1.0,-0.02589417,0.1850891,0.9823761,35.62096,6.987274,-31.63901,3.1428830000000003,0.4013947,0.3419425,-0.5555274,1.095887,-0.4107657999999999,-0.03465346,0.6795022,-0.07037177,0.4321015,37.38824,35.23
3,-0.05455017,0.1819305,0.9817963,1.0,-0.1055298,0.1759032999999999,0.9787292,-33.07355,9.844513,-30.23558,3.088715,0.5780486,0.2401188,1.0,-0.02589417,0.1850891,0.9823761,35.62096,6.987274,-31.63901,3.1428830000000003,0.4013947,0.3419425,-0.5555274,1.095887,-0.4107657999999999,-0.03465346,0.6795022,-0.07037177,0.4321015,37.38824,35.23
3,-0.03631592,0.1831665,0.9824066,1.0,-0.1273193,0.167923,0.9775391,-32.99222,9.747025,-30.0717,3.1066740000000004,0.5776076,0.2439387,1.0,-0.02110291,0.1855621,0.9823914,35.62729,6.937180000000001,-31.63986,3.23201,0.4004585,0.3437186,-0.5559561,1.096633,-0.4108213,-0.03672379,0.6796036,-0.06775205,0.4321015,37.38824,35.23
3,-0.03631592,0.1831665,0.9824066,1.0,-0.1273193,0.167923,0.9775391,-32.99222,9.747025,-30.0717,3.1066740000000004,0.5776076,0.2439387,1.0,-0.02110291,0.1855621,0.9823914,35.62729,6.937180000000001,-31.63986,3.23201,0.4004585,0.3437186,-0.5559561,1.096633,-0.4108213,-0.03672379,0.6796036,-0.06775205,0.4321015,37.38824,35.23
3,-0.03631592,0.1831665,0.9824066,1.0,-0.1273193,0.167923,0.9775391,-32.99222,9.747025,-30.0717,3.1066740000000004,0.5776076,0.2439387,1.0,-0.02110291,0.1855621,0.9823914,35.62729,6.937180000000001,-31.63986,3.23201,0.4004585,0.3437186,-0.5559561,1.096633,-0.4108213,-0.03672379,0.6796036,-0.06775205,0.4321015,37.38824,35.23
3,-0.0521697999999999,0.1770935,0.9828033000000002,1.0,-0.1257477,0.1621857,0.9786987,-32.993190000000006,9.755463,-30.08397,3.087051,0.577422,0.2444631,1.0,-0.0231780999999999,0.1826782,0.9828949,35.62952,6.927002000000001,-31.6382,3.284378,0.4005652999999999,0.3444862999999999,-0.5567025999999999,1.097244,-0.4109369,-0.03900161,0.6796751999999999,-0.06562719,0.4321015,37.38824,35.23
3,-0.0521697999999999,0.1770935,0.9828033000000002,1.0,-0.1257477,0.1621857,0.9786987,-32.993190000000006,9.755463,-30.08397,3.087051,0.577422,0.2444631,1.0,-0.0231780999999999,0.1826782,0.9828949,35.62952,6.927002000000001,-31.6382,3.284378,0.4005652999999999,0.3444862999999999,-0.5567025999999999,1.097244,-0.4109369,-0.03900161,0.6796751999999999,-0.06562719,0.4321015,37.38824,35.23
3,-0.0521697999999999,0.1770935,0.9828033000000002,1.0,-0.1257477,0.1621857,0.9786987,-32.993190000000006,9.755463,-30.08397,3.087051,0.577422,0.2444631,1.0,-0.0231780999999999,0.1826782,0.9828949,35.62952,6.927002000000001,-31.6382,3.284378,0.4005652999999999,0.3444862999999999,-0.5567025999999999,1.097244,-0.4109369,-0.03900161,0.6796751999999999,-0.06562719,0.4321015,37.38824,35.23
3,-0.06488037,0.1698761,0.9833221,1.0,-0.1269530999999999,0.1607971,0.978775,-32.993190000000006,9.748566,-30.07729,3.0874330000000003,0.5775543000000001,0.2448659999999999,1.0,-0.0259552,0.1752167,0.9841766,35.62868,6.925964,-31.63983,3.272995,0.4009562,0.3454535999999999,-0.557157,1.097978,-0.4109314,-0.04096428,0.679634,-0.06326994,0.4321015,37.38824,35.23
3,-0.06488037,0.1698761,0.9833221,1.0,-0.1269530999999999,0.1607971,0.978775,-32.993190000000006,9.748566,-30.07729,3.0874330000000003,0.5775543000000001,0.2448659999999999,1.0,-0.0259552,0.1752167,0.9841766,35.62868,6.925964,-31.63983,3.272995,0.4009562,0.3454535999999999,-0.557157,1.097978,-0.4109314,-0.04096428,0.679634,-0.06326994,0.4321015,37.38824,35.23
3,-0.06488037,0.1698761,0.9833221,1.0,-0.1269530999999999,0.1607971,0.978775,-32.993190000000006,9.748566,-30.07729,3.0874330000000003,0.5775543000000001,0.2448659999999999,1.0,-0.0259552,0.1752167,0.9841766,35.62868,6.925964,-31.63983,3.272995,0.4009562,0.3454535999999999,-0.557157,1.097978,-0.4109314,-0.04096428,0.679634,-0.06326994,0.4321015,37.38824,35.23
3,-0.06202698,0.1641234999999999,0.9844818,1.0,-0.1211853,0.1484832999999999,0.9814453000000002,-33.01761,9.718948,-30.02353,3.078323,0.5775521,0.2472724999999999,1.0,-0.02752686,0.1729279,0.9845428,35.62868,6.850418,-31.6963,3.274002,0.4011071,0.3488614,-0.5575778,1.09888,-0.4109069999999999,-0.04413943,0.6795539,-0.0601702,0.4321015,-18.24964,35.23
3,-0.06202698,0.1641234999999999,0.9844818,1.0,-0.1211853,0.1484832999999999,0.9814453000000002,-33.01761,9.718948,-30.02353,3.078323,0.5775521,0.2472724999999999,1.0,-0.02752686,0.1729279,0.9845428,35.62868,6.850418,-31.6963,3.274002,0.4011071,0.3488614,-0.5575778,1.09888,-0.4109069999999999,-0.04413943,0.6795539,-0.0601702,0.4321015,-18.24964,35.23
3,-0.06202698,0.1641234999999999,0.9844818,1.0,-0.1211853,0.1484832999999999,0.9814453000000002,-33.01761,9.718948,-30.02353,3.078323,0.5775521,0.2472724999999999,1.0,-0.02752686,0.1729279,0.9845428,35.62868,6.850418,-31.6963,3.274002,0.4011071,0.3488614,-0.5575778,1.09888,-0.4109069999999999,-0.04413943,0.6795539,-0.0601702,0.4321015,-18.24964,35.23
3,-0.06005859,0.1549835,0.986084,1.0,-0.1247864,0.1317443999999999,0.9833832,-33.019040000000004,9.674408,-29.982090000000003,3.091248,0.5779065999999999,0.2509525999999999,1.0,-0.02210999,0.1682281,0.9854889,35.605270000000004,6.830429,-31.697540000000004,3.254547,0.4012825999999999,0.3501308,-0.5581024,1.099834,-0.4110725999999999,-0.0473743,0.6798251999999999,-0.0573824,0.4321015,-18.24964,35.23
3,-0.06005859,0.1549835,0.986084,1.0,-0.1247864,0.1317443999999999,0.9833832,-33.019040000000004,9.674408,-29.982090000000003,3.091248,0.5779065999999999,0.2509525999999999,1.0,-0.02210999,0.1682281,0.9854889,35.605270000000004,6.830429,-31.697540000000004,3.254547,0.4012825999999999,0.3501308,-0.5581024,1.099834,-0.4110725999999999,-0.0473743,0.6798251999999999,-0.0573824,0.4321015,-18.24964,35.23
3,-0.06005859,0.1549835,0.986084,1.0,-0.1247864,0.1317443999999999,0.9833832,-33.019040000000004,9.674408,-29.982090000000003,3.091248,0.5779065999999999,0.2509525999999999,1.0,-0.02210999,0.1682281,0.9854889,35.605270000000004,6.830429,-31.697540000000004,3.254547,0.4012825999999999,0.3501308,-0.5581024,1.099834,-0.4110725999999999,-0.0473743,0.6798251999999999,-0.0573824,0.4321015,-18.24964,35.23
3,-0.0607605,0.1431427,0.9878235,1.0,-0.1273956,0.1163025,0.9850006,-33.01761,9.645966,-29.95917,3.101074,0.5780818,0.2539232999999999,1.0,-0.02279663,0.1580505,0.9871521,35.604859999999995,6.825850999999999,-31.70058,3.2419740000000004,0.4013983,0.3515647999999999,-0.5585631999999999,1.100823,-0.4112532999999999,-0.05087748,0.6803716,-0.0538861999999999,0.4321015,-18.24964,35.23
3,-0.0607605,0.1431427,0.9878235,1.0,-0.1273956,0.1163025,0.9850006,-33.01761,9.645966,-29.95917,3.101074,0.5780818,0.2539232999999999,1.0,-0.02279663,0.1580505,0.9871521,35.604859999999995,6.825850999999999,-31.70058,3.2419740000000004,0.4013983,0.3515647999999999,-0.5585631999999999,1.100823,-0.4112532999999999,-0.05087748,0.6803716,-0.0538861999999999,0.4321015,-18.24964,35.23
3,-0.0607605,0.1431427,0.9878235,1.0,-0.1273956,0.1163025,0.9850006,-33.01761,9.645966,-29.95917,3.101074,0.5780818,0.2539232999999999,1.0,-0.02279663,0.1580505,0.9871521,35.604859999999995,6.825850999999999,-31.70058,3.2419740000000004,0.4013983,0.3515647999999999,-0.5585631999999999,1.100823,-0.4112532999999999,-0.05087748,0.6803716,-0.0538861999999999,0.4321015,-18.24964,35.23
4,-0.02433777,0.1481934,0.9886475,1.0,-0.1334076,0.1281433,0.9827271,-33.018159999999995,9.293091,-28.8277,3.176743,0.5775792,0.2578751,1.0,-0.02433777,0.1481934,0.9886475,35.60564,6.807693,-31.70058,3.246796,0.4015582,0.3534319,-0.5589066,1.102033,-0.4113999,-0.05485095,0.6807976,-0.0503276999999999,0.4321015,-18.24964,35.23
4,-0.02433777,0.1481934,0.9886475,1.0,-0.1334076,0.1281433,0.9827271,-33.018159999999995,9.293091,-28.8277,3.176743,0.5775792,0.2578751,1.0,-0.02433777,0.1481934,0.9886475,35.60564,6.807693,-31.70058,3.246796,0.4015582,0.3534319,-0.5589066,1.102033,-0.4113999,-0.05485095,0.6807976,-0.0503276999999999,0.4321015,-18.24964,35.23
4,-0.02433777,0.1481934,0.9886475,1.0,-0.1334076,0.1281433,0.9827271,-33.018159999999995,9.293091,-28.8277,3.176743,0.5775792,0.2578751,1.0,-0.02433777,0.1481934,0.9886475,35.60564,6.807693,-31.70058,3.246796,0.4015582,0.3534319,-0.5589066,1.102033,-0.4113999,-0.05485095,0.6807976,-0.0503276999999999,0.4321015,-18.24964,35.23
4,-0.03311157,0.1690369,0.9850464,1.0,-0.1293488,0.1199036,0.984314,-33.02043,9.208603,-28.72539,3.168457,0.5769369000000001,0.2614412,1.0,-0.03311157,0.1690369,0.9850464,35.63939,6.624924000000001,-31.58192,3.264053,0.4015582,0.3564184999999999,-0.5592401,1.103145,-0.4115730999999999,-0.05875242,0.6816521,-0.04676337,0.4321015,-18.24964,35.23
4,-0.03311157,0.1690369,0.9850464,1.0,-0.1293488,0.1199036,0.984314,-33.02043,9.208603,-28.72539,3.168457,0.5769369000000001,0.2614412,1.0,-0.03311157,0.1690369,0.9850464,35.63939,6.624924000000001,-31.58192,3.264053,0.4015582,0.3564184999999999,-0.5592401,1.103145,-0.4115730999999999,-0.05875242,0.6816521,-0.04676337,0.4321015,-18.24964,35.23
4,-0.03311157,0.1690369,0.9850464,1.0,-0.1293488,0.1199036,0.984314,-33.02043,9.208603,-28.72539,3.168457,0.5769369000000001,0.2614412,1.0,-0.03311157,0.1690369,0.9850464,35.63939,6.624924000000001,-31.58192,3.264053,0.4015582,0.3564184999999999,-0.5592401,1.103145,-0.4115730999999999,-0.05875242,0.6816521,-0.04676337,0.4321015,-18.24964,35.23
4,-0.1410217,0.09640503,0.9852905,1.0,-0.1410522,0.09640503,0.9852905,-33.02028,9.183502,-29.09116,3.109116,0.5785549,0.2679646,1.0,-0.008407593,0.09837341,0.9951019,35.5657,6.818892999999999,-32.54611,3.2949980000000005,0.4000936,0.3657345999999999,-0.5595057,1.104217,-0.4116984999999999,-0.0627899,0.6823145,-0.04342487,0.4321015,-92.82557,35.23
4,-0.1410217,0.09640503,0.9852905,1.0,-0.1410522,0.09640503,0.9852905,-33.02028,9.183502,-29.09116,3.109116,0.5785549,0.2679646,1.0,-0.008407593,0.09837341,0.9951019,35.5657,6.818892999999999,-32.54611,3.2949980000000005,0.4000936,0.3657345999999999,-0.5595057,1.104217,-0.4116984999999999,-0.0627899,0.6823145,-0.04342487,0.4321015,-92.82557,35.23
4,-0.1410217,0.09640503,0.9852905,1.0,-0.1410522,0.09640503,0.9852905,-33.02028,9.183502,-29.09116,3.109116,0.5785549,0.2679646,1.0,-0.008407593,0.09837341,0.9951019,35.5657,6.818892999999999,-32.54611,3.2949980000000005,0.4000936,0.3657345999999999,-0.5595057,1.104217,-0.4116984999999999,-0.0627899,0.6823145,-0.04342487,0.4321015,-92.82557,35.23
4,-0.1082001,0.08753967,0.9902649,1.0,-0.1320343,0.0868988,0.9874268,-33.0164,9.162598,-29.09116,3.068848,0.5772181,0.2699609,1.0,-0.00994873,0.08963013,0.9959106,35.572590000000005,6.775391,-32.52965,3.272354,0.4000936,0.3682239,-0.5595806,1.10525,-0.4117239,-0.06610014,0.6830956,-0.0404832,0.4321015,-92.82557,35.23
4,-0.1082001,0.08753967,0.9902649,1.0,-0.1320343,0.0868988,0.9874268,-33.0164,9.162598,-29.09116,3.068848,0.5772181,0.2699609,1.0,-0.00994873,0.08963013,0.9959106,35.572590000000005,6.775391,-32.52965,3.272354,0.4000936,0.3682239,-0.5595806,1.10525,-0.4117239,-0.06610014,0.6830956,-0.0404832,0.4321015,-92.82557,35.23
4,-0.1082001,0.08753967,0.9902649,1.0,-0.1320343,0.0868988,0.9874268,-33.0164,9.162598,-29.09116,3.068848,0.5772181,0.2699609,1.0,-0.00994873,0.08963013,0.9959106,35.572590000000005,6.775391,-32.52965,3.272354,0.4000936,0.3682239,-0.5595806,1.10525,-0.4117239,-0.06610014,0.6830956,-0.0404832,0.4321015,-92.82557,35.23
4,-0.03930664,0.06874084,0.9968567,1.0,-0.1179047,0.0660553,0.9908142,-33.026959999999995,9.10463,-29.28348,3.027771,0.5758800999999999,0.2760689,1.0,-0.01194763,0.06956482,0.9974976,35.59398,6.621231,-32.25853,3.167908,0.4000055999999999,0.3739595,-0.5598104,1.106187,-0.4118085999999999,-0.06912134,0.6835941,-0.03712062,0.4321015,-92.82557,35.23
4,-0.03930664,0.06874084,0.9968567,1.0,-0.1179047,0.0660553,0.9908142,-33.026959999999995,9.10463,-29.28348,3.027771,0.5758800999999999,0.2760689,1.0,-0.01194763,0.06956482,0.9974976,35.59398,6.621231,-32.25853,3.167908,0.4000055999999999,0.3739595,-0.5598104,1.106187,-0.4118085999999999,-0.06912134,0.6835941,-0.03712062,0.4321015,-92.82557,35.23
4,-0.03930664,0.06874084,0.9968567,1.0,-0.1179047,0.0660553,0.9908142,-33.026959999999995,9.10463,-29.28348,3.027771,0.5758800999999999,0.2760689,1.0,-0.01194763,0.06956482,0.9974976,35.59398,6.621231,-32.25853,3.167908,0.4000055999999999,0.3739595,-0.5598104,1.106187,-0.4118085999999999,-0.06912134,0.6835941,-0.03712062,0.4321015,-92.82557,35.23
4,-0.04975891,0.05577087,0.9971924,1.0,-0.1128998,0.06581116,0.9914093,-33.02602,9.061691,-29.14287,2.998062,0.5750071,0.2768055,1.0,-0.01858521,0.05073547,0.9985351999999998,35.60298,6.666351,-32.36649,3.184357,0.4003831,0.3756054,-0.5600801,1.107146,-0.4118196,-0.0722186,0.6838031999999999,-0.03442816,0.4359457,-92.82557,35.23
4,-0.04975891,0.05577087,0.9971924,1.0,-0.1128998,0.06581116,0.9914093,-33.02602,9.061691,-29.14287,2.998062,0.5750071,0.2768055,1.0,-0.01858521,0.05073547,0.9985351999999998,35.60298,6.666351,-32.36649,3.184357,0.4003831,0.3756054,-0.5600801,1.107146,-0.4118196,-0.0722186,0.6838031999999999,-0.03442816,0.4359457,-92.82557,35.23
4,-0.04975891,0.05577087,0.9971924,1.0,-0.1128998,0.06581116,0.9914093,-33.02602,9.061691,-29.14287,2.998062,0.5750071,0.2768055,1.0,-0.01858521,0.05073547,0.9985351999999998,35.60298,6.666351,-32.36649,3.184357,0.4003831,0.3756054,-0.5600801,1.107146,-0.4118196,-0.0722186,0.6838031999999999,-0.03442816,0.4359457,-92.82557,35.23
4,-0.06210327,0.1941832999999999,0.9789886,1.0,-0.1061706999999999,0.2028961,0.9734192,-32.72408,9.662369,-29.36035,3.171967,0.5648978,0.2381587,1.0,-0.003677368,0.1820678999999999,0.9832764,35.6727,7.122787,-32.09389,3.235504,0.3962166,0.3408672,-0.5602942,1.107939,-0.4118844,-0.07512335,0.6840638000000001,-0.03196611,0.4359457,-92.82557,35.23
4,-0.06210327,0.1941832999999999,0.9789886,1.0,-0.1061706999999999,0.2028961,0.9734192,-32.72408,9.662369,-29.36035,3.171967,0.5648978,0.2381587,1.0,-0.003677368,0.1820678999999999,0.9832764,35.6727,7.122787,-32.09389,3.235504,0.3962166,0.3408672,-0.5602942,1.107939,-0.4118844,-0.07512335,0.6840638000000001,-0.03196611,0.4359457,-92.82557,35.23
4,-0.06210327,0.1941832999999999,0.9789886,1.0,-0.1061706999999999,0.2028961,0.9734192,-32.72408,9.662369,-29.36035,3.171967,0.5648978,0.2381587,1.0,-0.003677368,0.1820678999999999,0.9832764,35.6727,7.122787,-32.09389,3.235504,0.3962166,0.3408672,-0.5602942,1.107939,-0.4118844,-0.07512335,0.6840638000000001,-0.03196611,0.4359457,-92.82557,35.23
4,-0.04710388,0.1948547,0.9796906,1.0,-0.09059143,0.2189331,0.9715118,-32.75594,9.689285,-29.3933,3.110519,0.5641813,0.234988,1.0,0.0004119873,0.1680297999999999,0.9857788,35.697340000000004,7.196274000000001,-32.102709999999995,3.091751,0.3950212999999999,0.3398863,-0.5605166,1.108793,-0.4118840999999999,-0.07844093,0.6841092,-0.02925272,0.4359457,68.58386,35.23
4,-0.04710388,0.1948547,0.9796906,1.0,-0.09059143,0.2189331,0.9715118,-32.75594,9.689285,-29.3933,3.110519,0.5641813,0.234988,1.0,0.0004119873,0.1680297999999999,0.9857788,35.697340000000004,7.196274000000001,-32.102709999999995,3.091751,0.3950212999999999,0.3398863,-0.5605166,1.108793,-0.4118840999999999,-0.07844093,0.6841092,-0.02925272,0.4359457,68.58386,35.23
4,-0.04710388,0.1948547,0.9796906,1.0,-0.09059143,0.2189331,0.9715118,-32.75594,9.689285,-29.3933,3.110519,0.5641813,0.234988,1.0,0.0004119873,0.1680297999999999,0.9857788,35.697340000000004,7.196274000000001,-32.102709999999995,3.091751,0.3950212999999999,0.3398863,-0.5605166,1.108793,-0.4118840999999999,-0.07844093,0.6841092,-0.02925272,0.4359457,68.58386,35.23
4,-0.01596069,0.1574097,0.9873962,1.0,-0.09031677,0.1783905,0.9797974,-32.78604,9.599564,-29.30341,2.800995,0.5646045,0.2430442,1.0,0.01797485,0.147522,0.9888916,35.7323,7.132842999999999,-32.08923,3.077026,0.3916562,0.3444922,-0.5609335999999999,1.109387,-0.412026,-0.08147479,0.6839888000000001,-0.02731431,0.4359457,68.58386,35.23
4,-0.01596069,0.1574097,0.9873962,1.0,-0.09031677,0.1783905,0.9797974,-32.78604,9.599564,-29.30341,2.800995,0.5646045,0.2430442,1.0,0.01797485,0.147522,0.9888916,35.7323,7.132842999999999,-32.08923,3.077026,0.3916562,0.3444922,-0.5609335999999999,1.109387,-0.412026,-0.08147479,0.6839888000000001,-0.02731431,0.4359457,68.58386,35.23
4,-0.01596069,0.1574097,0.9873962,1.0,-0.09031677,0.1783905,0.9797974,-32.78604,9.599564,-29.30341,2.800995,0.5646045,0.2430442,1.0,0.01797485,0.147522,0.9888916,35.7323,7.132842999999999,-32.08923,3.077026,0.3916562,0.3444922,-0.5609335999999999,1.109387,-0.412026,-0.08147479,0.6839888000000001,-0.02731431,0.4359457,68.58386,35.23
4,-0.03388977,0.1685333,0.9851074,1.0,-0.09896851,0.1841736,0.97789,-32.7841,9.539581,-29.27444,2.846146,0.5656005999999999,0.2444066,1.0,-0.003204346,0.1609039,0.9869537,35.78595,6.964339999999999,-31.93713,3.027771,0.3926579,0.3476450999999999,-0.5610583,1.110051,-0.4119272,-0.08441217,0.6840056,-0.02482308,0.4359457,68.58386,35.23
4,-0.03388977,0.1685333,0.9851074,1.0,-0.09896851,0.1841736,0.97789,-32.7841,9.539581,-29.27444,2.846146,0.5656005999999999,0.2444066,1.0,-0.003204346,0.1609039,0.9869537,35.78595,6.964339999999999,-31.93713,3.027771,0.3926579,0.3476450999999999,-0.5610583,1.110051,-0.4119272,-0.08441217,0.6840056,-0.02482308,0.4359457,68.58386,35.23
4,-0.03388977,0.1685333,0.9851074,1.0,-0.09896851,0.1841736,0.97789,-32.7841,9.539581,-29.27444,2.846146,0.5656005999999999,0.2444066,1.0,-0.003204346,0.1609039,0.9869537,35.78595,6.964339999999999,-31.93713,3.027771,0.3926579,0.3476450999999999,-0.5610583,1.110051,-0.4119272,-0.08441217,0.6840056,-0.02482308,0.4359457,68.58386,35.23
4,-0.04838562,0.1644897,0.9851837,1.0,-0.09199524,0.16745,0.9815674,-32.80069,9.477142,-29.21153,2.923752,0.5652134,0.2485906,1.0,0.0110321,0.1599426,0.9870605,35.75151,6.936615,-32.096309999999995,2.986252,0.3919914,0.349914,-0.561326,1.111024,-0.4118575,-0.08770091,0.6837655,-0.02208343,0.4359457,68.58386,35.23
4,-0.04838562,0.1644897,0.9851837,1.0,-0.09199524,0.16745,0.9815674,-32.80069,9.477142,-29.21153,2.923752,0.5652134,0.2485906,1.0,0.0110321,0.1599426,0.9870605,35.75151,6.936615,-32.096309999999995,2.986252,0.3919914,0.349914,-0.561326,1.111024,-0.4118575,-0.08770091,0.6837655,-0.02208343,0.4359457,68.58386,35.23
4,-0.04838562,0.1644897,0.9851837,1.0,-0.09199524,0.16745,0.9815674,-32.80069,9.477142,-29.21153,2.923752,0.5652134,0.2485906,1.0,0.0110321,0.1599426,0.9870605,35.75151,6.936615,-32.096309999999995,2.986252,0.3919914,0.349914,-0.561326,1.111024,-0.4118575,-0.08770091,0.6837655,-0.02208343,0.4359457,68.58386,35.23
4,-0.03094482,0.1468047999999999,0.988678,1.0,-0.09220886,0.1544495,0.9836731,-32.82326,9.360352,-28.96558,2.992722,0.5657604,0.2529666,1.0,0.01235962,0.1410828,0.9899139,35.76552,6.8208470000000005,-31.90898,2.960312,0.3915909999999999,0.3548959,-0.5616028000000001,1.1117290000000002,-0.4117725,-0.09035821,0.6834585,-0.02031527,0.4359457,68.58386,35.23
4,-0.03094482,0.1468047999999999,0.988678,1.0,-0.09220886,0.1544495,0.9836731,-32.82326,9.360352,-28.96558,2.992722,0.5657604,0.2529666,1.0,0.01235962,0.1410828,0.9899139,35.76552,6.8208470000000005,-31.90898,2.960312,0.3915909999999999,0.3548959,-0.5616028000000001,1.1117290000000002,-0.4117725,-0.09035821,0.6834585,-0.02031527,0.4359457,68.58386,35.23
4,-0.03094482,0.1468047999999999,0.988678,1.0,-0.09220886,0.1544495,0.9836731,-32.82326,9.360352,-28.96558,2.992722,0.5657604,0.2529666,1.0,0.01235962,0.1410828,0.9899139,35.76552,6.8208470000000005,-31.90898,2.960312,0.3915909999999999,0.3548959,-0.5616028000000001,1.1117290000000002,-0.4117725,-0.09035821,0.6834585,-0.02031527,0.4359457,68.58386,35.23
4,-0.1046448,0.1470032,0.9835815,1.0,-0.1046448,0.1470032,0.9835815,-32.83507,9.227768,-28.60196,2.870148,0.5671563000000001,0.2563981,1.0,-0.006317139,0.1741027999999999,0.9846954,35.86252,6.284668,-30.43494,3.033234,0.3920152,0.3584655,-0.5618116999999999,1.112475,-0.4115351,-0.09279364,0.6830510999999999,-0.01819073,0.4359457,68.58386,35.23
4,-0.1046448,0.1470032,0.9835815,1.0,-0.1046448,0.1470032,0.9835815,-32.83507,9.227768,-28.60196,2.870148,0.5671563000000001,0.2563981,1.0,-0.006317139,0.1741027999999999,0.9846954,35.86252,6.284668,-30.43494,3.033234,0.3920152,0.3584655,-0.5618116999999999,1.112475,-0.4115351,-0.09279364,0.6830510999999999,-0.01819073,0.4359457,68.58386,35.23
4,-0.1046448,0.1470032,0.9835815,1.0,-0.1046448,0.1470032,0.9835815,-32.83507,9.227768,-28.60196,2.870148,0.5671563000000001,0.2563981,1.0,-0.006317139,0.1741027999999999,0.9846954,35.86252,6.284668,-30.43494,3.033234,0.3920152,0.3584655,-0.5618116999999999,1.112475,-0.4115351,-0.09279364,0.6830510999999999,-0.01819073,0.4359457,68.58386,35.23
4,-0.1084136999999999,0.1289215,0.9857025,1.0,-0.108429,0.1289215,0.9857025,-32.85541,9.038147,-27.99648,2.794388,0.5676157,0.2612938999999999,1.0,-0.008255005,0.1706848,0.9852753,35.859120000000004,6.297165000000001,-30.5463,3.064407,0.3922144,0.3593374,-0.5621088000000001,1.113045,-0.4113659,-0.09463807,0.6824838000000001,-0.01674923,0.4359457,14.80418,35.23
4,-0.1084136999999999,0.1289215,0.9857025,1.0,-0.108429,0.1289215,0.9857025,-32.85541,9.038147,-27.99648,2.794388,0.5676157,0.2612938999999999,1.0,-0.008255005,0.1706848,0.9852753,35.859120000000004,6.297165000000001,-30.5463,3.064407,0.3922144,0.3593374,-0.5621088000000001,1.113045,-0.4113659,-0.09463807,0.6824838000000001,-0.01674923,0.4359457,14.80418,35.23
4,-0.1084136999999999,0.1289215,0.9857025,1.0,-0.108429,0.1289215,0.9857025,-32.85541,9.038147,-27.99648,2.794388,0.5676157,0.2612938999999999,1.0,-0.008255005,0.1706848,0.9852753,35.859120000000004,6.297165000000001,-30.5463,3.064407,0.3922144,0.3593374,-0.5621088000000001,1.113045,-0.4113659,-0.09463807,0.6824838000000001,-0.01674923,0.4359457,14.80418,35.23
4,-0.09881592,0.09890747,0.9901733,1.0,-0.09881592,0.09890747,0.9901733,-32.88953,9.079041,-28.38538,2.884338,0.5678046999999999,0.2669703,1.0,-7.629395000000001e-05,0.1063538,0.9943237,35.70578,6.795807000000001,-32.56456,3.016632,0.3945081,0.3653567,-0.5621514,1.11326,-0.4111709,-0.09533601,0.6819397,-0.01603007,0.4359457,14.80418,35.23
4,-0.09881592,0.09890747,0.9901733,1.0,-0.09881592,0.09890747,0.9901733,-32.88953,9.079041,-28.38538,2.884338,0.5678046999999999,0.2669703,1.0,-7.629395000000001e-05,0.1063538,0.9943237,35.70578,6.795807000000001,-32.56456,3.016632,0.3945081,0.3653567,-0.5621514,1.11326,-0.4111709,-0.09533601,0.6819397,-0.01603007,0.4359457,14.80418,35.23
4,-0.09881592,0.09890747,0.9901733,1.0,-0.09881592,0.09890747,0.9901733,-32.88953,9.079041,-28.38538,2.884338,0.5678046999999999,0.2669703,1.0,-7.629395000000001e-05,0.1063538,0.9943237,35.70578,6.795807000000001,-32.56456,3.016632,0.3945081,0.3653567,-0.5621514,1.11326,-0.4111709,-0.09533601,0.6819397,-0.01603007,0.4359457,14.80418,35.23
4,-0.1006317,0.09259033,0.9906006,1.0,-0.1006317,0.09259033,0.9906006,-32.92174,9.101624,-28.72556,2.747803,0.5693901,0.2689032,1.0,-0.00100708,0.1073151,0.9942169,35.70462,6.750717,-32.51778,3.018478,0.3947037,0.3664514,-0.562135,1.113599,-0.4108797,-0.09613965,0.6812953,-0.0152827,0.4359457,14.80418,35.23
4,-0.1006317,0.09259033,0.9906006,1.0,-0.1006317,0.09259033,0.9906006,-32.92174,9.101624,-28.72556,2.747803,0.5693901,0.2689032,1.0,-0.00100708,0.1073151,0.9942169,35.70462,6.750717,-32.51778,3.018478,0.3947037,0.3664514,-0.562135,1.113599,-0.4108797,-0.09613965,0.6812953,-0.0152827,0.4359457,14.80418,35.23
4,-0.1006317,0.09259033,0.9906006,1.0,-0.1006317,0.09259033,0.9906006,-32.92174,9.101624,-28.72556,2.747803,0.5693901,0.2689032,1.0,-0.00100708,0.1073151,0.9942169,35.70462,6.750717,-32.51778,3.018478,0.3947037,0.3664514,-0.562135,1.113599,-0.4108797,-0.09613965,0.6812953,-0.0152827,0.4359457,14.80418,35.23
4,-0.0048370359999999,0.09875488,0.9950867,1.0,-0.09593201,0.09182739,0.9911346,-32.92589,9.109818,-28.78978,2.81282,0.5690767,0.2691408,1.0,-0.004440308,0.0987854,0.9950867,35.70462,6.749603,-32.51778,2.978455,0.3951899,0.3675461,-0.5619338,1.113867,-0.410493,-0.09627096,0.6807389,-0.0152067,0.4359457,14.80418,35.23
4,-0.0048370359999999,0.09875488,0.9950867,1.0,-0.09593201,0.09182739,0.9911346,-32.92589,9.109818,-28.78978,2.81282,0.5690767,0.2691408,1.0,-0.004440308,0.0987854,0.9950867,35.70462,6.749603,-32.51778,2.978455,0.3951899,0.3675461,-0.5619338,1.113867,-0.410493,-0.09627096,0.6807389,-0.0152067,0.4359457,14.80418,35.23
