Second,eye_comb_direction_x,eye_comb_direction_y,eye_comb_direction_z,eye_r_openness,eye_r_direction_x,eye_r_direction_y,eye_r_direction_z,eye_r_origin_x,eye_r_origin_y,eye_r_origin_z,eye_r_pupil_diameter,eye_r_pupil_position_x,eye_r_pupil_position_y,eye_l_openness,eye_l_direction_x,eye_l_direction_y,eye_l_direction_z,eye_l_origin_x,eye_l_origin_y,eye_l_origin_z,eye_l_pupil_diameter,eye_l_pupil_position_x,eye_l_pupil_position_y,head_position_x,head_position_y,head_position_z,head_rotation_roll,head_rotation_pitch,head_rotation_yaw,EDA,BVP,TMP
0,-0.3214874,-0.02938843,0.9464417,1.0,-0.3544617,-0.04931641,0.9337616,-33.12912,2.982468,-27.46425,3.394714,0.6045456,0.4895261999999999,1.0,-0.303009,-0.01834106,0.9528046,35.59708,3.08345,-30.51064,3.805679,0.4348318,0.4950889,-0.6363211,1.052438,-0.3110393,0.03963001,0.6005338000000001,-0.0420955,2.231765,0.16803841234567887,33.912438271604934
0,-0.3214874,-0.02938843,0.9464417,1.0,-0.3544617,-0.04931641,0.9337616,-33.12912,2.982468,-27.46425,3.394714,0.6045456,0.4895261999999999,1.0,-0.303009,-0.01834106,0.9528046,35.59708,3.08345,-30.51064,3.805679,0.4348318,0.4950889,-0.6363211,1.052438,-0.3110393,0.03963001,0.6005338000000001,-0.0420955,2.231765,0.16803841234567887,33.912438271604934
0,-0.3214874,-0.02938843,0.9464417,1.0,-0.3544617,-0.04931641,0.9337616,-33.12912,2.982468,-27.46425,3.394714,0.6045456,0.4895261999999999,1.0,-0.303009,-0.01834106,0.9528046,35.59708,3.08345,-30.51064,3.805679,0.4348318,0.4950889,-0.6363211,1.052438,-0.3110393,0.03963001,0.6005338000000001,-0.0420955,2.231765,0.16803841234567887,33.912438271604934
0,-0.317337,-0.02745056,0.9479065,1.0,-0.3544159,-0.05554199,0.9334259,-33.075759999999995,3.004532,-27.45464,3.352325,0.6027178000000001,0.4894024,1.0,-0.2935027999999999,-0.009643555,0.9559021,35.62659,3.092194,-30.50597,3.69165,0.4329074,0.4934924,-0.6358094,1.052506,-0.3119643,0.03902138,0.6033185999999999,-0.04312686,2.231765,0.16803841234567887,33.912438271604934
0,-0.317337,-0.02745056,0.9479065,1.0,-0.3544159,-0.05554199,0.9334259,-33.075759999999995,3.004532,-27.45464,3.352325,0.6027178000000001,0.4894024,1.0,-0.2935027999999999,-0.009643555,0.9559021,35.62659,3.092194,-30.50597,3.69165,0.4329074,0.4934924,-0.6358094,1.052506,-0.3119643,0.03902138,0.6033185999999999,-0.04312686,2.231765,0.16803841234567887,33.912438271604934
0,-0.317337,-0.02745056,0.9479065,1.0,-0.3544159,-0.05554199,0.9334259,-33.075759999999995,3.004532,-27.45464,3.352325,0.6027178000000001,0.4894024,1.0,-0.2935027999999999,-0.009643555,0.9559021,35.62659,3.092194,-30.50597,3.69165,0.4329074,0.4934924,-0.6358094,1.052506,-0.3119643,0.03902138,0.6033185999999999,-0.04312686,2.231765,0.16803841234567887,33.912438271604934
1,-0.3094635,-0.02508545,0.9505615,1.0,-0.3478088,-0.05979919,0.9356384,-33.06393,3.012085,-27.447940000000003,3.349594,0.6014848,0.4895422,1.0,-0.2872619999999999,-0.005310059,0.9578247,35.65059,3.110321,-30.5016,3.651321,0.4314225,0.4921940999999999,-0.6352866,1.0525,-0.3134654,0.03775349,0.6079211999999999,-0.04443393,2.231765,0.16803841234567887,33.912438271604934
1,-0.3094635,-0.02508545,0.9505615,1.0,-0.3478088,-0.05979919,0.9356384,-33.06393,3.012085,-27.447940000000003,3.349594,0.6014848,0.4895422,1.0,-0.2872619999999999,-0.005310059,0.9578247,35.65059,3.110321,-30.5016,3.651321,0.4314225,0.4921940999999999,-0.6352866,1.0525,-0.3134654,0.03775349,0.6079211999999999,-0.04443393,2.231765,0.16803841234567887,33.912438271604934
1,-0.3094635,-0.02508545,0.9505615,1.0,-0.3478088,-0.05979919,0.9356384,-33.06393,3.012085,-27.447940000000003,3.349594,0.6014848,0.4895422,1.0,-0.2872619999999999,-0.005310059,0.9578247,35.65059,3.110321,-30.5016,3.651321,0.4314225,0.4921940999999999,-0.6352866,1.0525,-0.3134654,0.03775349,0.6079211999999999,-0.04443393,2.231765,0.16803841234567887,33.912438271604934
1,-0.2891998,-0.01998901,0.9570465,1.0,-0.3279114,-0.04960632,0.9433899,-33.0175,3.012085,-27.43314,3.189545,0.5974067,0.4878902,1.0,-0.2642212,-0.001159668,0.964447,35.65958,3.111313,-30.49919,3.549149,0.4285364,0.4913093,-0.6350161999999999,1.052203,-0.3153405999999999,0.03749665,0.6134394,-0.04562279,2.231765,0.16803841234567887,33.912438271604934
1,-0.2891998,-0.01998901,0.9570465,1.0,-0.3279114,-0.04960632,0.9433899,-33.0175,3.012085,-27.43314,3.189545,0.5974067,0.4878902,1.0,-0.2642212,-0.001159668,0.964447,35.65958,3.111313,-30.49919,3.549149,0.4285364,0.4913093,-0.6350161999999999,1.052203,-0.3153405999999999,0.03749665,0.6134394,-0.04562279,2.231765,0.16803841234567887,33.912438271604934
1,-0.2891998,-0.01998901,0.9570465,1.0,-0.3279114,-0.04960632,0.9433899,-33.0175,3.012085,-27.43314,3.189545,0.5974067,0.4878902,1.0,-0.2642212,-0.001159668,0.964447,35.65958,3.111313,-30.49919,3.549149,0.4285364,0.4913093,-0.6350161999999999,1.052203,-0.3153405999999999,0.03749665,0.6134394,-0.04562279,2.231765,0.16803841234567887,33.912438271604934
1,-0.2811584,-0.01878357,0.9594726999999998,1.0,-0.3165741,-0.05114746,0.9471741,-32.95238,3.019867,-27.409640000000003,3.149063,0.5937584,0.4874819999999999,1.0,-0.260437,-0.0001068115,0.9654846,35.72006,3.110321,-30.498890000000003,3.5209050000000004,0.4260555,0.4911271,-0.6350119000000001,1.051964,-0.3168501999999999,0.03728854,0.6179846999999999,-0.04663078,2.231765,0.16803841234567887,33.912438271604934
1,-0.2811584,-0.01878357,0.9594726999999998,1.0,-0.3165741,-0.05114746,0.9471741,-32.95238,3.019867,-27.409640000000003,3.149063,0.5937584,0.4874819999999999,1.0,-0.260437,-0.0001068115,0.9654846,35.72006,3.110321,-30.498890000000003,3.5209050000000004,0.4260555,0.4911271,-0.6350119000000001,1.051964,-0.3168501999999999,0.03728854,0.6179846999999999,-0.04663078,2.231765,0.16803841234567887,33.912438271604934
1,-0.2811584,-0.01878357,0.9594726999999998,1.0,-0.3165741,-0.05114746,0.9471741,-32.95238,3.019867,-27.409640000000003,3.149063,0.5937584,0.4874819999999999,1.0,-0.260437,-0.0001068115,0.9654846,35.72006,3.110321,-30.498890000000003,3.5209050000000004,0.4260555,0.4911271,-0.6350119000000001,1.051964,-0.3168501999999999,0.03728854,0.6179846999999999,-0.04663078,2.231765,0.16803841234567887,33.912438271604934
1,-0.2643738,-0.01747131,0.9642487,1.0,-0.30336,-0.0526885999999999,0.9514008,-32.93098,3.035416,-27.39278,3.2638700000000003,0.5913885999999999,0.4869745,1.0,-0.2427521,0.001754761,0.9700775,35.72894,3.107727,-30.498890000000003,3.507339,0.4236469,0.4908056999999999,-0.6349592,1.05174,-0.3185202,0.03725995,0.6229020000000001,-0.047605,2.231765,0.16803841234567887,33.912438271604934
1,-0.2643738,-0.01747131,0.9642487,1.0,-0.30336,-0.0526885999999999,0.9514008,-32.93098,3.035416,-27.39278,3.2638700000000003,0.5913885999999999,0.4869745,1.0,-0.2427521,0.001754761,0.9700775,35.72894,3.107727,-30.498890000000003,3.507339,0.4236469,0.4908056999999999,-0.6349592,1.05174,-0.3185202,0.03725995,0.6229020000000001,-0.047605,2.231765,0.16803841234567887,33.912438271604934
1,-0.2643738,-0.01747131,0.9642487,1.0,-0.30336,-0.0526885999999999,0.9514008,-32.93098,3.035416,-27.39278,3.2638700000000003,0.5913885999999999,0.4869745,1.0,-0.2427521,0.001754761,0.9700775,35.72894,3.107727,-30.498890000000003,3.507339,0.4236469,0.4908056999999999,-0.6349592,1.05174,-0.3185202,0.03725995,0.6229020000000001,-0.047605,2.231765,0.16803841234567887,33.912438271604934
1,-0.250061,-0.0153656,0.9680939,1.0,-0.2963409,-0.05050659,0.9537354,-32.85175,3.038712,-27.36418,3.230331,0.5877985,0.4862619999999999,1.0,-0.2245941,0.003692627,0.9744415,35.74065,3.107727,-30.49245,3.4868620000000004,0.4211039000000001,0.4903224,-0.6348583999999999,1.051417,-0.3201941,0.03759954,0.6277901,-0.04852207,2.231765,40.03029,33.912438271604934
1,-0.250061,-0.0153656,0.9680939,1.0,-0.2963409,-0.05050659,0.9537354,-32.85175,3.038712,-27.36418,3.230331,0.5877985,0.4862619999999999,1.0,-0.2245941,0.003692627,0.9744415,35.74065,3.107727,-30.49245,3.4868620000000004,0.4211039000000001,0.4903224,-0.6348583999999999,1.051417,-0.3201941,0.03759954,0.6277901,-0.04852207,2.231765,40.03029,33.912438271604934
1,-0.250061,-0.0153656,0.9680939,1.0,-0.2963409,-0.05050659,0.9537354,-32.85175,3.038712,-27.36418,3.230331,0.5877985,0.4862619999999999,1.0,-0.2245941,0.003692627,0.9744415,35.74065,3.107727,-30.49245,3.4868620000000004,0.4211039000000001,0.4903224,-0.6348583999999999,1.051417,-0.3201941,0.03759954,0.6277901,-0.04852207,2.231765,40.03029,33.912438271604934
1,-0.2383422999999999,-0.01556396,0.9710388,1.0,-0.2897339,-0.05540466,0.9554901,-32.8316,3.045639,-27.35722,3.170578,0.5862879,0.4864717,1.0,-0.2085724,0.0071716309999999,0.9779663,35.74861,3.104858,-30.48996,3.457764,0.4189587,0.4898157999999999,-0.6347239,1.051304,-0.3224656,0.03725125,0.6347775,-0.04985702,2.231765,40.03029,33.912438271604934
1,-0.2383422999999999,-0.01556396,0.9710388,1.0,-0.2897339,-0.05540466,0.9554901,-32.8316,3.045639,-27.35722,3.170578,0.5862879,0.4864717,1.0,-0.2085724,0.0071716309999999,0.9779663,35.74861,3.104858,-30.48996,3.457764,0.4189587,0.4898157999999999,-0.6347239,1.051304,-0.3224656,0.03725125,0.6347775,-0.04985702,2.231765,40.03029,33.912438271604934
1,-0.2383422999999999,-0.01556396,0.9710388,1.0,-0.2897339,-0.05540466,0.9554901,-32.8316,3.045639,-27.35722,3.170578,0.5862879,0.4864717,1.0,-0.2085724,0.0071716309999999,0.9779663,35.74861,3.104858,-30.48996,3.457764,0.4189587,0.4898157999999999,-0.6347239,1.051304,-0.3224656,0.03725125,0.6347775,-0.04985702,2.231765,40.03029,33.912438271604934
1,-0.2383422999999999,-0.01556396,0.9710388,1.0,-0.2897339,-0.05540466,0.9554901,-32.8316,3.045639,-27.35722,3.170578,0.5862879,0.4864717,1.0,-0.2085724,0.0071716309999999,0.9779663,35.74861,3.104858,-30.48996,3.457764,0.4189587,0.4898157999999999,-0.6347022,1.051257,-0.3236535,0.03694871,0.6383529,-0.05044747,2.231765,40.03029,33.912438271604934
1,-0.2383422999999999,-0.01556396,0.9710388,1.0,-0.2897339,-0.05540466,0.9554901,-32.8316,3.045639,-27.35722,3.170578,0.5862879,0.4864717,1.0,-0.2085724,0.0071716309999999,0.9779663,35.74861,3.104858,-30.48996,3.457764,0.4189587,0.4898157999999999,-0.6347022,1.051257,-0.3236535,0.03694871,0.6383529,-0.05044747,2.231765,40.03029,33.912438271604934
1,-0.2383422999999999,-0.01556396,0.9710388,1.0,-0.2897339,-0.05540466,0.9554901,-32.8316,3.045639,-27.35722,3.170578,0.5862879,0.4864717,1.0,-0.2085724,0.0071716309999999,0.9779663,35.74861,3.104858,-30.48996,3.457764,0.4189587,0.4898157999999999,-0.6347022,1.051257,-0.3236535,0.03694871,0.6383529,-0.05044747,2.231765,40.03029,33.912438271604934
1,-0.2336578,-0.01422119,0.9721985,1.0,-0.2850037,-0.05158997,0.9571228,-32.81252,3.052597,-27.3502,3.065277,0.5850369000000001,0.4856032,1.0,-0.2032928,0.0075531009999999,0.9790802,35.7504,3.104523,-30.48993,3.4501800000000005,0.4182772,0.4897225,-0.6344924,1.051282,-0.3247239,0.03666593,0.6417224,-0.05120198,2.231765,40.03029,33.912438271604934
1,-0.2336578,-0.01422119,0.9721985,1.0,-0.2850037,-0.05158997,0.9571228,-32.81252,3.052597,-27.3502,3.065277,0.5850369000000001,0.4856032,1.0,-0.2032928,0.0075531009999999,0.9790802,35.7504,3.104523,-30.48993,3.4501800000000005,0.4182772,0.4897225,-0.6344924,1.051282,-0.3247239,0.03666593,0.6417224,-0.05120198,2.231765,40.03029,33.912438271604934
1,-0.2336578,-0.01422119,0.9721985,1.0,-0.2850037,-0.05158997,0.9571228,-32.81252,3.052597,-27.3502,3.065277,0.5850369000000001,0.4856032,1.0,-0.2032928,0.0075531009999999,0.9790802,35.7504,3.104523,-30.48993,3.4501800000000005,0.4182772,0.4897225,-0.6344924,1.051282,-0.3247239,0.03666593,0.6417224,-0.05120198,2.231765,40.03029,33.912438271604934
1,-0.2336578,-0.01422119,0.9721985,1.0,-0.2850037,-0.05158997,0.9571228,-32.81252,3.052597,-27.3502,3.065277,0.5850369000000001,0.4856032,1.0,-0.2032928,0.0075531009999999,0.9790802,35.7504,3.104523,-30.48993,3.4501800000000005,0.4182772,0.4897225,-0.6340901999999999,1.05145,-0.3266930999999999,0.03565195,0.6474965,-0.05228408,2.231765,40.03029,33.912438271604934
1,-0.2336578,-0.01422119,0.9721985,1.0,-0.2850037,-0.05158997,0.9571228,-32.81252,3.052597,-27.3502,3.065277,0.5850369000000001,0.4856032,1.0,-0.2032928,0.0075531009999999,0.9790802,35.7504,3.104523,-30.48993,3.4501800000000005,0.4182772,0.4897225,-0.6340901999999999,1.05145,-0.3266930999999999,0.03565195,0.6474965,-0.05228408,2.231765,40.03029,33.912438271604934
1,-0.2336578,-0.01422119,0.9721985,1.0,-0.2850037,-0.05158997,0.9571228,-32.81252,3.052597,-27.3502,3.065277,0.5850369000000001,0.4856032,1.0,-0.2032928,0.0075531009999999,0.9790802,35.7504,3.104523,-30.48993,3.4501800000000005,0.4182772,0.4897225,-0.6340901999999999,1.05145,-0.3266930999999999,0.03565195,0.6474965,-0.05228408,2.231765,40.03029,33.912438271604934
1,-0.1660614,-0.01112366,0.9860382,1.0,-0.2247925,-0.04780579,0.9732208,-32.53995,3.181671,-27.33969,3.011551,0.5683935999999999,0.4802542,1.0,-0.1046906,0.02670288,0.9941406,36.09013,3.115326,-30.35153,3.16629,0.3953435,0.4847480999999999,-0.6337769,1.051553,-0.3280643,0.03489685,0.6512214,-0.05273572,2.231765,40.03029,33.912438271604934
1,-0.1660614,-0.01112366,0.9860382,1.0,-0.2247925,-0.04780579,0.9732208,-32.53995,3.181671,-27.33969,3.011551,0.5683935999999999,0.4802542,1.0,-0.1046906,0.02670288,0.9941406,36.09013,3.115326,-30.35153,3.16629,0.3953435,0.4847480999999999,-0.6337769,1.051553,-0.3280643,0.03489685,0.6512214,-0.05273572,2.231765,40.03029,33.912438271604934
1,-0.1660614,-0.01112366,0.9860382,1.0,-0.2247925,-0.04780579,0.9732208,-32.53995,3.181671,-27.33969,3.011551,0.5683935999999999,0.4802542,1.0,-0.1046906,0.02670288,0.9941406,36.09013,3.115326,-30.35153,3.16629,0.3953435,0.4847480999999999,-0.6337769,1.051553,-0.3280643,0.03489685,0.6512214,-0.05273572,2.231765,40.03029,33.912438271604934
1,-0.1296081999999999,0.1378326,0.9819336,1.0,-0.1988983,0.1113281,0.9736633,-32.3042,3.740082,-27.27548,3.120239,0.5574372,0.4419944999999999,1.0,-0.1267853,0.1388855,0.9821472,36.2097,3.758438,-30.4297,3.127579,0.3942584,0.4499539000000001,-0.6334175999999999,1.051899,-0.3291345999999999,0.03376949,0.6543314,-0.05302554,2.231765,-39.94951,33.912438271604934
1,-0.1296081999999999,0.1378326,0.9819336,1.0,-0.1988983,0.1113281,0.9736633,-32.3042,3.740082,-27.27548,3.120239,0.5574372,0.4419944999999999,1.0,-0.1267853,0.1388855,0.9821472,36.2097,3.758438,-30.4297,3.127579,0.3942584,0.4499539000000001,-0.6334175999999999,1.051899,-0.3291345999999999,0.03376949,0.6543314,-0.05302554,2.231765,-39.94951,33.912438271604934
1,-0.1296081999999999,0.1378326,0.9819336,1.0,-0.1988983,0.1113281,0.9736633,-32.3042,3.740082,-27.27548,3.120239,0.5574372,0.4419944999999999,1.0,-0.1267853,0.1388855,0.9821472,36.2097,3.758438,-30.4297,3.127579,0.3942584,0.4499539000000001,-0.6334175999999999,1.051899,-0.3291345999999999,0.03376949,0.6543314,-0.05302554,2.231765,-39.94951,33.912438271604934
1,-0.1326904,0.123642,0.9833984,1.0,-0.1903076,0.1030273,0.9762878,-32.284440000000004,3.725769,-27.27588,2.931686,0.5556408,0.4432054,1.0,-0.1304474,0.1244354,0.9836121,36.26526,3.735001,-30.40771,3.040436,0.3929302,0.4522122999999999,-0.6330743000000001,1.052229,-0.3301324,0.03186304,0.6568076999999999,-0.05354749,2.231765,-39.94951,33.912438271604934
1,-0.1326904,0.123642,0.9833984,1.0,-0.1903076,0.1030273,0.9762878,-32.284440000000004,3.725769,-27.27588,2.931686,0.5556408,0.4432054,1.0,-0.1304474,0.1244354,0.9836121,36.26526,3.735001,-30.40771,3.040436,0.3929302,0.4522122999999999,-0.6330743000000001,1.052229,-0.3301324,0.03186304,0.6568076999999999,-0.05354749,2.231765,-39.94951,33.912438271604934
1,-0.1326904,0.123642,0.9833984,1.0,-0.1903076,0.1030273,0.9762878,-32.284440000000004,3.725769,-27.27588,2.931686,0.5556408,0.4432054,1.0,-0.1304474,0.1244354,0.9836121,36.26526,3.735001,-30.40771,3.040436,0.3929302,0.4522122999999999,-0.6330743000000001,1.052229,-0.3301324,0.03186304,0.6568076999999999,-0.05354749,2.231765,-39.94951,33.912438271604934
1,-0.1242371,0.129303,0.9837799,1.0,-0.1815642999999999,0.1005402,0.9782104,-32.2733,3.701675,-27.245240000000003,2.90596,0.5541615,0.4439842,1.0,-0.1217803999999999,0.1305084,0.9839325,36.34395,3.71759,-30.40771,3.025284,0.3892001,0.4519624,-0.6330743000000001,1.052229,-0.3301324,0.03186304,0.6568076999999999,-0.05354749,2.231765,-39.94951,33.912438271604934
1,-0.1242371,0.129303,0.9837799,1.0,-0.1815642999999999,0.1005402,0.9782104,-32.2733,3.701675,-27.245240000000003,2.90596,0.5541615,0.4439842,1.0,-0.1217803999999999,0.1305084,0.9839325,36.34395,3.71759,-30.40771,3.025284,0.3892001,0.4519624,-0.6330743000000001,1.052229,-0.3301324,0.03186304,0.6568076999999999,-0.05354749,2.231765,-39.94951,33.912438271604934
1,-0.1242371,0.129303,0.9837799,1.0,-0.1815642999999999,0.1005402,0.9782104,-32.2733,3.701675,-27.245240000000003,2.90596,0.5541615,0.4439842,1.0,-0.1217803999999999,0.1305084,0.9839325,36.34395,3.71759,-30.40771,3.025284,0.3892001,0.4519624,-0.6330743000000001,1.052229,-0.3301324,0.03186304,0.6568076999999999,-0.05354749,2.231765,-39.94951,33.912438271604934
1,-0.1398772999999999,0.1153563999999999,0.9834136999999998,1.0,-0.1801757999999999,0.09823608,0.978714,-32.25992,3.696152,-27.23973,2.900986,0.5535324,0.4443831,1.0,-0.1109466999999999,0.1274414,0.985611,36.370740000000005,3.709274,-30.41286,3.083221,0.3868557,0.4526448,-0.633013,1.052299,-0.3310183,0.03087293,0.65876,-0.05437297,2.231765,-39.94951,33.912438271604934
1,-0.1398772999999999,0.1153563999999999,0.9834136999999998,1.0,-0.1801757999999999,0.09823608,0.978714,-32.25992,3.696152,-27.23973,2.900986,0.5535324,0.4443831,1.0,-0.1109466999999999,0.1274414,0.985611,36.370740000000005,3.709274,-30.41286,3.083221,0.3868557,0.4526448,-0.633013,1.052299,-0.3310183,0.03087293,0.65876,-0.05437297,2.231765,-39.94951,33.912438271604934
1,-0.1398772999999999,0.1153563999999999,0.9834136999999998,1.0,-0.1801757999999999,0.09823608,0.978714,-32.25992,3.696152,-27.23973,2.900986,0.5535324,0.4443831,1.0,-0.1109466999999999,0.1274414,0.985611,36.370740000000005,3.709274,-30.41286,3.083221,0.3868557,0.4526448,-0.633013,1.052299,-0.3310183,0.03087293,0.65876,-0.05437297,2.231765,-39.94951,33.912438271604934
1,-0.1379395,0.1141663,0.9838257,1.0,-0.1799927,0.09771729,0.9787903,-32.255390000000006,3.692719,-27.23955,2.905975,0.5533595,0.4445644,1.0,-0.1083069,0.1255493,0.986145,36.370740000000005,3.715088,-30.41119,3.0818790000000003,0.3865382,0.4526448,-0.6327994,1.052447,-0.3317613,0.02999914,0.6603941999999999,-0.05502373,2.231765,-39.94951,33.912438271604934
1,-0.1379395,0.1141663,0.9838257,1.0,-0.1799927,0.09771729,0.9787903,-32.255390000000006,3.692719,-27.23955,2.905975,0.5533595,0.4445644,1.0,-0.1083069,0.1255493,0.986145,36.370740000000005,3.715088,-30.41119,3.0818790000000003,0.3865382,0.4526448,-0.6327994,1.052447,-0.3317613,0.02999914,0.6603941999999999,-0.05502373,2.231765,-39.94951,33.912438271604934
1,-0.1379395,0.1141663,0.9838257,1.0,-0.1799927,0.09771729,0.9787903,-32.255390000000006,3.692719,-27.23955,2.905975,0.5533595,0.4445644,1.0,-0.1083069,0.1255493,0.986145,36.370740000000005,3.715088,-30.41119,3.0818790000000003,0.3865382,0.4526448,-0.6327994,1.052447,-0.3317613,0.02999914,0.6603941999999999,-0.05502373,2.231765,-39.94951,33.912438271604934
1,-0.1237183,0.112442,0.9859161,1.0,-0.1717987,0.0927886999999999,0.9807434000000002,-32.25253,3.69429,-27.24039,2.920868,0.5522695,0.4450853,1.0,-0.09095764,0.1255798,0.9878998,36.36058,3.706696,-30.40686,3.086548,0.384773,0.4528044,-0.6326058000000001,1.052569,-0.3324446,0.02883767,0.6617244000000001,-0.05568193,2.231765,-39.94951,33.912438271604934
1,-0.1237183,0.112442,0.9859161,1.0,-0.1717987,0.0927886999999999,0.9807434000000002,-32.25253,3.69429,-27.24039,2.920868,0.5522695,0.4450853,1.0,-0.09095764,0.1255798,0.9878998,36.36058,3.706696,-30.40686,3.086548,0.384773,0.4528044,-0.6326058000000001,1.052569,-0.3324446,0.02883767,0.6617244000000001,-0.05568193,2.231765,-39.94951,33.912438271604934
1,-0.1237183,0.112442,0.9859161,1.0,-0.1717987,0.0927886999999999,0.9807434000000002,-32.25253,3.69429,-27.24039,2.920868,0.5522695,0.4450853,1.0,-0.09095764,0.1255798,0.9878998,36.36058,3.706696,-30.40686,3.086548,0.384773,0.4528044,-0.6326058000000001,1.052569,-0.3324446,0.02883767,0.6617244000000001,-0.05568193,2.231765,-39.94951,33.912438271604934
1,-0.1182556,0.1129303,0.9865265,1.0,-0.1690979,0.08937073,0.9815216,-32.25244,3.697998,-27.24731,2.919388,0.5519415,0.4454079999999999,1.0,-0.08389282,0.1285706,0.9881439,36.3501,3.701645,-30.39191,3.086487,0.3842919,0.4524624,-0.6325505,1.052554,-0.3331406,0.02808732,0.663086,-0.05662168,2.231765,-154.4418,33.912438271604934
1,-0.1182556,0.1129303,0.9865265,1.0,-0.1690979,0.08937073,0.9815216,-32.25244,3.697998,-27.24731,2.919388,0.5519415,0.4454079999999999,1.0,-0.08389282,0.1285706,0.9881439,36.3501,3.701645,-30.39191,3.086487,0.3842919,0.4524624,-0.6325505,1.052554,-0.3331406,0.02808732,0.663086,-0.05662168,2.231765,-154.4418,33.912438271604934
1,-0.1182556,0.1129303,0.9865265,1.0,-0.1690979,0.08937073,0.9815216,-32.25244,3.697998,-27.24731,2.919388,0.5519415,0.4454079999999999,1.0,-0.08389282,0.1285706,0.9881439,36.3501,3.701645,-30.39191,3.086487,0.3842919,0.4524624,-0.6325505,1.052554,-0.3331406,0.02808732,0.663086,-0.05662168,2.231765,-154.4418,33.912438271604934
1,-0.1055756,0.1158447,0.9876251,1.0,-0.1645507999999999,0.08860779,0.9823761,-32.23175,3.698822,-27.26637,2.939835,0.5507118000000001,0.445629,1.0,-0.06291199,0.1351166,0.9888153,36.33524,3.665634,-30.371920000000003,3.094467,0.3822605,0.4526448,-0.6322491,1.052867,-0.3337825999999999,0.02704581,0.6650716999999999,-0.05713771,2.231765,-154.4418,33.912438271604934
1,-0.1055756,0.1158447,0.9876251,1.0,-0.1645507999999999,0.08860779,0.9823761,-32.23175,3.698822,-27.26637,2.939835,0.5507118000000001,0.445629,1.0,-0.06291199,0.1351166,0.9888153,36.33524,3.665634,-30.371920000000003,3.094467,0.3822605,0.4526448,-0.6322491,1.052867,-0.3337825999999999,0.02704581,0.6650716999999999,-0.05713771,2.231765,-154.4418,33.912438271604934
1,-0.1055756,0.1158447,0.9876251,1.0,-0.1645507999999999,0.08860779,0.9823761,-32.23175,3.698822,-27.26637,2.939835,0.5507118000000001,0.445629,1.0,-0.06291199,0.1351166,0.9888153,36.33524,3.665634,-30.371920000000003,3.094467,0.3822605,0.4526448,-0.6322491,1.052867,-0.3337825999999999,0.02704581,0.6650716999999999,-0.05713771,2.231765,-154.4418,33.912438271604934
1,-0.0821228,0.1318359,0.987854,1.0,-0.1498871,0.08808899,0.9847565,-32.226409999999994,3.711014,-27.32375,2.953445,0.548802,0.4457239999999999,1.0,-0.04682922,0.1541443,0.9869232,36.33524,3.611069,-30.36087,3.099457,0.3803136,0.4520715,-0.6321564000000001,1.052889,-0.334657,0.02712311,0.6674945999999999,-0.05744605,2.227921,-154.4418,33.912438271604934
1,-0.0821228,0.1318359,0.987854,1.0,-0.1498871,0.08808899,0.9847565,-32.226409999999994,3.711014,-27.32375,2.953445,0.548802,0.4457239999999999,1.0,-0.04682922,0.1541443,0.9869232,36.33524,3.611069,-30.36087,3.099457,0.3803136,0.4520715,-0.6321564000000001,1.052889,-0.334657,0.02712311,0.6674945999999999,-0.05744605,2.227921,-154.4418,33.912438271604934
1,-0.0821228,0.1318359,0.987854,1.0,-0.1498871,0.08808899,0.9847565,-32.226409999999994,3.711014,-27.32375,2.953445,0.548802,0.4457239999999999,1.0,-0.04682922,0.1541443,0.9869232,36.33524,3.611069,-30.36087,3.099457,0.3803136,0.4520715,-0.6321564000000001,1.052889,-0.334657,0.02712311,0.6674945999999999,-0.05744605,2.227921,-154.4418,33.912438271604934
1,-0.04043579,0.1548462,0.9871063,1.0,-0.1216736,0.08320618,0.9890594,-32.26265,4.225327,-29.388990000000003,2.888626,0.547978,0.4458838,1.0,-0.04043579,0.1548462,0.9871063,36.34065,3.606857,-30.35576,3.082367,0.3793785999999999,0.452033,-0.6321621000000001,1.052884,-0.3356275999999999,0.02718964,0.6704336,-0.05758925,2.227921,-154.4418,33.912438271604934
1,-0.04043579,0.1548462,0.9871063,1.0,-0.1216736,0.08320618,0.9890594,-32.26265,4.225327,-29.388990000000003,2.888626,0.547978,0.4458838,1.0,-0.04043579,0.1548462,0.9871063,36.34065,3.606857,-30.35576,3.082367,0.3793785999999999,0.452033,-0.6321621000000001,1.052884,-0.3356275999999999,0.02718964,0.6704336,-0.05758925,2.227921,-154.4418,33.912438271604934
1,-0.04043579,0.1548462,0.9871063,1.0,-0.1216736,0.08320618,0.9890594,-32.26265,4.225327,-29.388990000000003,2.888626,0.547978,0.4458838,1.0,-0.04043579,0.1548462,0.9871063,36.34065,3.606857,-30.35576,3.082367,0.3793785999999999,0.452033,-0.6321621000000001,1.052884,-0.3356275999999999,0.02718964,0.6704336,-0.05758925,2.227921,-154.4418,33.912438271604934
1,-0.07637024,0.1418915,0.9869232,1.0,-0.1070557,0.06645203,0.9920197,-32.281009999999995,4.578293,-30.60925,2.853592,0.5476089,0.4460608,1.0,-0.07637024,0.1418915,0.9869232,36.47746,3.684601,-30.41367,3.107559,0.37895,0.4515465999999999,-0.6321225,1.053009,-0.3366735999999999,0.02703134,0.6740851999999999,-0.05743716,2.227921,-154.4418,33.912438271604934
1,-0.07637024,0.1418915,0.9869232,1.0,-0.1070557,0.06645203,0.9920197,-32.281009999999995,4.578293,-30.60925,2.853592,0.5476089,0.4460608,1.0,-0.07637024,0.1418915,0.9869232,36.47746,3.684601,-30.41367,3.107559,0.37895,0.4515465999999999,-0.6321225,1.053009,-0.3366735999999999,0.02703134,0.6740851999999999,-0.05743716,2.227921,-154.4418,33.912438271604934
1,-0.07637024,0.1418915,0.9869232,1.0,-0.1070557,0.06645203,0.9920197,-32.281009999999995,4.578293,-30.60925,2.853592,0.5476089,0.4460608,1.0,-0.07637024,0.1418915,0.9869232,36.47746,3.684601,-30.41367,3.107559,0.37895,0.4515465999999999,-0.6321225,1.053009,-0.3366735999999999,0.02703134,0.6740851999999999,-0.05743716,2.227921,-154.4418,33.912438271604934
1,-0.07418823,0.1447906,0.9866638,1.0,-0.08535767,0.06781006,0.9940338,-32.281009999999995,4.632233,-30.80263,2.849487,0.5450528,0.4456393,1.0,-0.07418823,0.1448059,0.9866638,36.51436,3.696976,-30.439190000000004,3.111496,0.3773829999999999,0.4509613,-0.6321998000000001,1.052956,-0.3378857,0.02735397,0.6780624,-0.05712949,2.227921,109.2428,33.912438271604934
1,-0.07418823,0.1447906,0.9866638,1.0,-0.08535767,0.06781006,0.9940338,-32.281009999999995,4.632233,-30.80263,2.849487,0.5450528,0.4456393,1.0,-0.07418823,0.1448059,0.9866638,36.51436,3.696976,-30.439190000000004,3.111496,0.3773829999999999,0.4509613,-0.6321998000000001,1.052956,-0.3378857,0.02735397,0.6780624,-0.05712949,2.227921,109.2428,33.912438271604934
1,-0.07418823,0.1447906,0.9866638,1.0,-0.08535767,0.06781006,0.9940338,-32.281009999999995,4.632233,-30.80263,2.849487,0.5450528,0.4456393,1.0,-0.07418823,0.1448059,0.9866638,36.51436,3.696976,-30.439190000000004,3.111496,0.3773829999999999,0.4509613,-0.6321998000000001,1.052956,-0.3378857,0.02735397,0.6780624,-0.05712949,2.227921,109.2428,33.912438271604934
1,-0.06538391,0.1226348999999999,0.9902802,1.0,-0.08033752,0.06829834,0.9944153,-32.25716,4.645308999999999,-30.836240000000004,2.849121,0.5436273,0.4454041,1.0,-0.05905151,0.1452942,0.9876099,36.52617,3.744553,-30.45018,3.136475,0.3750941,0.4493190999999999,-0.6322854,1.053053,-0.339227,0.02730503,0.6824577,-0.05742497,2.227921,109.2428,33.912438271604934
1,-0.06538391,0.1226348999999999,0.9902802,1.0,-0.08033752,0.06829834,0.9944153,-32.25716,4.645308999999999,-30.836240000000004,2.849121,0.5436273,0.4454041,1.0,-0.05905151,0.1452942,0.9876099,36.52617,3.744553,-30.45018,3.136475,0.3750941,0.4493190999999999,-0.6322854,1.053053,-0.339227,0.02730503,0.6824577,-0.05742497,2.227921,109.2428,33.912438271604934
1,-0.06538391,0.1226348999999999,0.9902802,1.0,-0.08033752,0.06829834,0.9944153,-32.25716,4.645308999999999,-30.836240000000004,2.849121,0.5436273,0.4454041,1.0,-0.05905151,0.1452942,0.9876099,36.52617,3.744553,-30.45018,3.136475,0.3750941,0.4493190999999999,-0.6322854,1.053053,-0.339227,0.02730503,0.6824577,-0.05742497,2.227921,109.2428,33.912438271604934
1,-0.04336548,0.146637,0.9882355,1.0,-0.114563,0.09947205,0.9884186,-32.02571,3.68605,-27.32834,2.849106,0.5376899,0.4451228,1.0,-0.04336548,0.146637,0.9882355,36.53111,3.745148,-30.45564,3.132782,0.3730099,0.4491017,-0.6323907,1.053017,-0.3405944,0.02751961,0.686742,-0.0573609,2.227921,109.2428,33.912438271604934
1,-0.04336548,0.146637,0.9882355,1.0,-0.114563,0.09947205,0.9884186,-32.02571,3.68605,-27.32834,2.849106,0.5376899,0.4451228,1.0,-0.04336548,0.146637,0.9882355,36.53111,3.745148,-30.45564,3.132782,0.3730099,0.4491017,-0.6323907,1.053017,-0.3405944,0.02751961,0.686742,-0.0573609,2.227921,109.2428,33.912438271604934
1,-0.04336548,0.146637,0.9882355,1.0,-0.114563,0.09947205,0.9884186,-32.02571,3.68605,-27.32834,2.849106,0.5376899,0.4451228,1.0,-0.04336548,0.146637,0.9882355,36.53111,3.745148,-30.45564,3.132782,0.3730099,0.4491017,-0.6323907,1.053017,-0.3405944,0.02751961,0.686742,-0.0573609,2.227921,109.2428,33.912438271604934
1,-0.0320282,0.1469727,0.9886169,1.0,-0.09321594,0.1058807,0.9899902,-31.97583,3.669357,-27.26302,2.932083,0.533475,0.4443275,1.0,-0.0320282,0.1469727,0.9886169,36.56837,3.752197,-30.48033,3.0925290000000003,0.3703661,0.4489144,-0.6324179,1.053085,-0.3418137,0.02749442,0.6905245,-0.05696009,2.227921,109.2428,33.912438271604934
1,-0.0320282,0.1469727,0.9886169,1.0,-0.09321594,0.1058807,0.9899902,-31.97583,3.669357,-27.26302,2.932083,0.533475,0.4443275,1.0,-0.0320282,0.1469727,0.9886169,36.56837,3.752197,-30.48033,3.0925290000000003,0.3703661,0.4489144,-0.6324179,1.053085,-0.3418137,0.02749442,0.6905245,-0.05696009,2.227921,109.2428,33.912438271604934
1,-0.0320282,0.1469727,0.9886169,1.0,-0.09321594,0.1058807,0.9899902,-31.97583,3.669357,-27.26302,2.932083,0.533475,0.4443275,1.0,-0.0320282,0.1469727,0.9886169,36.56837,3.752197,-30.48033,3.0925290000000003,0.3703661,0.4489144,-0.6324179,1.053085,-0.3418137,0.02749442,0.6905245,-0.05696009,2.227921,109.2428,33.912438271604934
1,-0.05258179,0.125885,0.9906464,1.0,-0.09008789,0.1064148,0.9902191,-31.94022,3.675980000000001,-27.2697,2.914413,0.5318908,0.444079,1.0,-0.02734375,0.1388245,0.9899292,36.65749,3.78299,-30.480970000000003,3.067703,0.3667509,0.4487485,-0.6323357,1.053284,-0.3428813,0.02697491,0.6941096999999999,-0.05646916,2.227921,109.2428,33.912438271604934
1,-0.05258179,0.125885,0.9906464,1.0,-0.09008789,0.1064148,0.9902191,-31.94022,3.675980000000001,-27.2697,2.914413,0.5318908,0.444079,1.0,-0.02734375,0.1388245,0.9899292,36.65749,3.78299,-30.480970000000003,3.067703,0.3667509,0.4487485,-0.6323357,1.053284,-0.3428813,0.02697491,0.6941096999999999,-0.05646916,2.227921,109.2428,33.912438271604934
1,-0.05258179,0.125885,0.9906464,1.0,-0.09008789,0.1064148,0.9902191,-31.94022,3.675980000000001,-27.2697,2.914413,0.5318908,0.444079,1.0,-0.02734375,0.1388245,0.9899292,36.65749,3.78299,-30.480970000000003,3.067703,0.3667509,0.4487485,-0.6323357,1.053284,-0.3428813,0.02697491,0.6941096999999999,-0.05646916,2.227921,109.2428,33.912438271604934
1,-0.03570557,0.134201,0.9902954,1.0,-0.07833862,0.1178741,0.9899292,-31.79916,3.596375,-26.91518,2.883514,0.5255303000000001,0.4424079999999999,1.0,-0.02584839,0.1379395,0.990097,36.7112,3.784958,-30.480970000000003,3.066345,0.3647145,0.4487485,-0.6323633000000001,1.053404,-0.3438040999999999,0.02635404,0.6972036,-0.05639576,2.227921,57.18967,33.912438271604934
1,-0.03570557,0.134201,0.9902954,1.0,-0.07833862,0.1178741,0.9899292,-31.79916,3.596375,-26.91518,2.883514,0.5255303000000001,0.4424079999999999,1.0,-0.02584839,0.1379395,0.990097,36.7112,3.784958,-30.480970000000003,3.066345,0.3647145,0.4487485,-0.6323633000000001,1.053404,-0.3438040999999999,0.02635404,0.6972036,-0.05639576,2.227921,57.18967,33.912438271604934
1,-0.03570557,0.134201,0.9902954,1.0,-0.07833862,0.1178741,0.9899292,-31.79916,3.596375,-26.91518,2.883514,0.5255303000000001,0.4424079999999999,1.0,-0.02584839,0.1379395,0.990097,36.7112,3.784958,-30.480970000000003,3.066345,0.3647145,0.4487485,-0.6323633000000001,1.053404,-0.3438040999999999,0.02635404,0.6972036,-0.05639576,2.227921,57.18967,33.912438271604934
1,0.02345276,0.06393433,0.9976654,1.0,-0.07165527,0.1116028,0.9911652,-31.75941,3.593704,-26.90567,2.918564,0.5234103,0.4431733,1.0,0.02488708,0.0632019,0.9976807,36.86565,3.970795,-30.33594,3.213364,0.3531207,0.4501018,-0.6323633000000001,1.053711,-0.3446413,0.02553809,0.6993901,-0.05556788,2.227921,57.18967,33.912438271604934
1,0.02345276,0.06393433,0.9976654,1.0,-0.07165527,0.1116028,0.9911652,-31.75941,3.593704,-26.90567,2.918564,0.5234103,0.4431733,1.0,0.02488708,0.0632019,0.9976807,36.86565,3.970795,-30.33594,3.213364,0.3531207,0.4501018,-0.6323633000000001,1.053711,-0.3446413,0.02553809,0.6993901,-0.05556788,2.227921,57.18967,33.912438271604934
1,0.02345276,0.06393433,0.9976654,1.0,-0.07165527,0.1116028,0.9911652,-31.75941,3.593704,-26.90567,2.918564,0.5234103,0.4431733,1.0,0.02488708,0.0632019,0.9976807,36.86565,3.970795,-30.33594,3.213364,0.3531207,0.4501018,-0.6323633000000001,1.053711,-0.3446413,0.02553809,0.6993901,-0.05556788,2.227921,57.18967,33.912438271604934
1,-0.06477356,0.1170196999999999,0.9910126,1.0,-0.06477356,0.1170196999999999,0.9910126,-31.732570000000003,3.604935,-26.95926,2.915161,0.5217122999999999,0.4425883,1.0,0.02084351,0.1065979,0.9940796,36.90608,4.130814,-31.36595,3.22052,0.3508189,0.4478787,-0.6324432,1.053979,-0.3454157,0.02489935,0.701242,-0.05509335,2.227921,57.18967,33.912438271604934
1,-0.06477356,0.1170196999999999,0.9910126,1.0,-0.06477356,0.1170196999999999,0.9910126,-31.732570000000003,3.604935,-26.95926,2.915161,0.5217122999999999,0.4425883,1.0,0.02084351,0.1065979,0.9940796,36.90608,4.130814,-31.36595,3.22052,0.3508189,0.4478787,-0.6324432,1.053979,-0.3454157,0.02489935,0.701242,-0.05509335,2.227921,57.18967,33.912438271604934
1,-0.06477356,0.1170196999999999,0.9910126,1.0,-0.06477356,0.1170196999999999,0.9910126,-31.732570000000003,3.604935,-26.95926,2.915161,0.5217122999999999,0.4425883,1.0,0.02084351,0.1065979,0.9940796,36.90608,4.130814,-31.36595,3.22052,0.3508189,0.4478787,-0.6324432,1.053979,-0.3454157,0.02489935,0.701242,-0.05509335,2.227921,57.18967,33.912438271604934
1,-0.05891418,0.1044922,0.9927673,1.0,-0.06111145,0.1044006,0.9926453000000002,-31.69354,3.663528,-26.99933,2.908051,0.5199724,0.442407,1.0,0.02566528,0.1073761,0.9938812,36.9247,4.112717,-31.317490000000003,3.17128,0.3497037,0.447929,-0.6324575,1.054316,-0.3461828,0.02375609,0.7032201,-0.05498411,2.227921,57.18967,33.912438271604934
1,-0.05891418,0.1044922,0.9927673,1.0,-0.06111145,0.1044006,0.9926453000000002,-31.69354,3.663528,-26.99933,2.908051,0.5199724,0.442407,1.0,0.02566528,0.1073761,0.9938812,36.9247,4.112717,-31.317490000000003,3.17128,0.3497037,0.447929,-0.6324575,1.054316,-0.3461828,0.02375609,0.7032201,-0.05498411,2.227921,57.18967,33.912438271604934
1,-0.05891418,0.1044922,0.9927673,1.0,-0.06111145,0.1044006,0.9926453000000002,-31.69354,3.663528,-26.99933,2.908051,0.5199724,0.442407,1.0,0.02566528,0.1073761,0.9938812,36.9247,4.112717,-31.317490000000003,3.17128,0.3497037,0.447929,-0.6324575,1.054316,-0.3461828,0.02375609,0.7032201,-0.05498411,2.227921,57.18967,33.912438271604934
1,-0.01353455,0.0901947,0.9958190999999998,1.0,-0.05143738,0.07385254,0.9959259,-31.7343,3.69104,-26.97435,2.939896,0.5201817,0.4449135,1.0,0.01655579,0.1030426,0.9945374,36.87952,4.091095,-31.21481,3.20047,0.3525056,0.4484342,-0.632199,1.054805,-0.3470623,0.02225466,0.7054971,-0.05386538,2.227921,57.18967,33.912438271604934
1,-0.01353455,0.0901947,0.9958190999999998,1.0,-0.05143738,0.07385254,0.9959259,-31.7343,3.69104,-26.97435,2.939896,0.5201817,0.4449135,1.0,0.01655579,0.1030426,0.9945374,36.87952,4.091095,-31.21481,3.20047,0.3525056,0.4484342,-0.632199,1.054805,-0.3470623,0.02225466,0.7054971,-0.05386538,2.227921,57.18967,33.912438271604934
1,-0.01353455,0.0901947,0.9958190999999998,1.0,-0.05143738,0.07385254,0.9959259,-31.7343,3.69104,-26.97435,2.939896,0.5201817,0.4449135,1.0,0.01655579,0.1030426,0.9945374,36.87952,4.091095,-31.21481,3.20047,0.3525056,0.4484342,-0.632199,1.054805,-0.3470623,0.02225466,0.7054971,-0.05386538,2.227921,57.18967,33.912438271604934
2,-0.1320496,0.1088715,0.9852295,1.0,-0.201004,0.05799866,0.9778595,-32.53236,3.955429,-27.83498,2.96315,0.5657557,0.4455194999999999,1.0,-0.1317902,0.1090546,0.9852448,36.03896,4.052338,-30.95168,3.058304,0.4003627999999999,0.4478662999999999,-0.6320188,1.055141,-0.3481705999999999,0.02170433,0.7087581999999999,-0.05283325,2.227921,0.864563,33.912438271604934
2,-0.1320496,0.1088715,0.9852295,1.0,-0.201004,0.05799866,0.9778595,-32.53236,3.955429,-27.83498,2.96315,0.5657557,0.4455194999999999,1.0,-0.1317902,0.1090546,0.9852448,36.03896,4.052338,-30.95168,3.058304,0.4003627999999999,0.4478662999999999,-0.6320188,1.055141,-0.3481705999999999,0.02170433,0.7087581999999999,-0.05283325,2.227921,0.864563,33.912438271604934
2,-0.1320496,0.1088715,0.9852295,1.0,-0.201004,0.05799866,0.9778595,-32.53236,3.955429,-27.83498,2.96315,0.5657557,0.4455194999999999,1.0,-0.1317902,0.1090546,0.9852448,36.03896,4.052338,-30.95168,3.058304,0.4003627999999999,0.4478662999999999,-0.6320188,1.055141,-0.3481705999999999,0.02170433,0.7087581999999999,-0.05283325,2.227921,0.864563,33.912438271604934
2,-0.1372223,0.1006317,0.9854126,1.0,-0.2085876,0.07089233,0.9754181,-32.4846,3.874863,-27.71777,2.958176,0.5649685999999999,0.4457562,1.0,-0.1328582999999999,0.102417,0.9858246,36.04945,4.064529,-30.93918,3.09906,0.4000707,0.4481984,-0.6318688,1.055289,-0.3492649,0.02123743,0.7120833000000001,-0.05260536,2.227921,0.864563,33.912438271604934
2,-0.1372223,0.1006317,0.9854126,1.0,-0.2085876,0.07089233,0.9754181,-32.4846,3.874863,-27.71777,2.958176,0.5649685999999999,0.4457562,1.0,-0.1328582999999999,0.102417,0.9858246,36.04945,4.064529,-30.93918,3.09906,0.4000707,0.4481984,-0.6318688,1.055289,-0.3492649,0.02123743,0.7120833000000001,-0.05260536,2.227921,0.864563,33.912438271604934
2,-0.1372223,0.1006317,0.9854126,1.0,-0.2085876,0.07089233,0.9754181,-32.4846,3.874863,-27.71777,2.958176,0.5649685999999999,0.4457562,1.0,-0.1328582999999999,0.102417,0.9858246,36.04945,4.064529,-30.93918,3.09906,0.4000707,0.4481984,-0.6318688,1.055289,-0.3492649,0.02123743,0.7120833000000001,-0.05260536,2.227921,0.864563,33.912438271604934
2,-0.1525879,0.08546448,0.9845734,1.0,-0.1999817,0.06434631,0.9776764,-32.485209999999995,3.890564,-27.73164,2.9220580000000003,0.5639305,0.4460409999999999,1.0,-0.1307983,0.095047,0.9868317,36.067890000000006,4.0552980000000005,-30.93732,3.095398,0.3991777999999999,0.4493707999999999,-0.6317821,1.055432,-0.3499365,0.02119001,0.7141913000000001,-0.0523098,2.227921,0.864563,33.912438271604934
2,-0.1525879,0.08546448,0.9845734,1.0,-0.1999817,0.06434631,0.9776764,-32.485209999999995,3.890564,-27.73164,2.9220580000000003,0.5639305,0.4460409999999999,1.0,-0.1307983,0.095047,0.9868317,36.067890000000006,4.0552980000000005,-30.93732,3.095398,0.3991777999999999,0.4493707999999999,-0.6317821,1.055432,-0.3499365,0.02119001,0.7141913000000001,-0.0523098,2.227921,0.864563,33.912438271604934
2,-0.1525879,0.08546448,0.9845734,1.0,-0.1999817,0.06434631,0.9776764,-32.485209999999995,3.890564,-27.73164,2.9220580000000003,0.5639305,0.4460409999999999,1.0,-0.1307983,0.095047,0.9868317,36.067890000000006,4.0552980000000005,-30.93732,3.095398,0.3991777999999999,0.4493707999999999,-0.6317821,1.055432,-0.3499365,0.02119001,0.7141913000000001,-0.0523098,2.227921,0.864563,33.912438271604934
2,-0.1226654,0.09315491,0.9880524,1.0,-0.1914062999999999,0.07841492,0.978363,-32.48502,3.898056,-28.0144,2.9100650000000003,0.5630978,0.4464164,1.0,-0.1189575,0.09393311,0.9884338,36.08183,4.0552980000000005,-30.93423,3.091461,0.3972631,0.4493858,-0.6316423000000001,1.055673,-0.3514723,0.02075554,0.7189045000000001,-0.0517221,2.227921,0.864563,33.912438271604934
2,-0.1226654,0.09315491,0.9880524,1.0,-0.1914062999999999,0.07841492,0.978363,-32.48502,3.898056,-28.0144,2.9100650000000003,0.5630978,0.4464164,1.0,-0.1189575,0.09393311,0.9884338,36.08183,4.0552980000000005,-30.93423,3.091461,0.3972631,0.4493858,-0.6316423000000001,1.055673,-0.3514723,0.02075554,0.7189045000000001,-0.0517221,2.227921,0.864563,33.912438271604934
2,-0.1226654,0.09315491,0.9880524,1.0,-0.1914062999999999,0.07841492,0.978363,-32.48502,3.898056,-28.0144,2.9100650000000003,0.5630978,0.4464164,1.0,-0.1189575,0.09393311,0.9884338,36.08183,4.0552980000000005,-30.93423,3.091461,0.3972631,0.4493858,-0.6316423000000001,1.055673,-0.3514723,0.02075554,0.7189045000000001,-0.0517221,2.227921,0.864563,33.912438271604934
2,-0.1126862,0.09205627,0.9893494,1.0,-0.1815186,0.07543945,0.980484,-32.48215,3.919128,-28.03763,2.902496,0.5618043,0.4461997,1.0,-0.106781,0.09344482,0.9898682,36.07973,4.054428,-30.93231,3.087082,0.3958597,0.4493858,-0.6347761,1.0536450000000002,-0.35415,0.02012439,0.722945,-0.05138297,2.227921,0.864563,33.912438271604934
2,-0.1126862,0.09205627,0.9893494,1.0,-0.1815186,0.07543945,0.980484,-32.48215,3.919128,-28.03763,2.902496,0.5618043,0.4461997,1.0,-0.106781,0.09344482,0.9898682,36.07973,4.054428,-30.93231,3.087082,0.3958597,0.4493858,-0.6347761,1.0536450000000002,-0.35415,0.02012439,0.722945,-0.05138297,2.227921,0.864563,33.912438271604934
2,-0.1126862,0.09205627,0.9893494,1.0,-0.1815186,0.07543945,0.980484,-32.48215,3.919128,-28.03763,2.902496,0.5618043,0.4461997,1.0,-0.106781,0.09344482,0.9898682,36.07973,4.054428,-30.93231,3.087082,0.3958597,0.4493858,-0.6347761,1.0536450000000002,-0.35415,0.02012439,0.722945,-0.05138297,2.227921,0.864563,33.912438271604934
2,-0.1192168999999999,0.1069489,0.9870758,1.0,-0.1720886,0.07635498,0.9821014,-32.47752,3.929459,-28.09718,2.89566,0.560537,0.4461997,1.0,-0.09481812,0.1208344,0.9881287,36.07356,3.955261,-30.93047,3.085464,0.39463,0.4493858,-0.6347505999999999,1.0536299999999998,-0.3549623,0.02003181,0.7254318000000001,-0.05137681,2.227921,-108.907,33.912438271604934
2,-0.1192168999999999,0.1069489,0.9870758,1.0,-0.1720886,0.07635498,0.9821014,-32.47752,3.929459,-28.09718,2.89566,0.560537,0.4461997,1.0,-0.09481812,0.1208344,0.9881287,36.07356,3.955261,-30.93047,3.085464,0.39463,0.4493858,-0.6347505999999999,1.0536299999999998,-0.3549623,0.02003181,0.7254318000000001,-0.05137681,2.227921,-108.907,33.912438271604934
2,-0.1192168999999999,0.1069489,0.9870758,1.0,-0.1720886,0.07635498,0.9821014,-32.47752,3.929459,-28.09718,2.89566,0.560537,0.4461997,1.0,-0.09481812,0.1208344,0.9881287,36.07356,3.955261,-30.93047,3.085464,0.39463,0.4493858,-0.6347505999999999,1.0536299999999998,-0.3549623,0.02003181,0.7254318000000001,-0.05137681,2.227921,-108.907,33.912438271604934
2,-0.1192168999999999,0.1069489,0.9870758,1.0,-0.1720886,0.07635498,0.9821014,-32.47752,3.929459,-28.09718,2.89566,0.560537,0.4461997,1.0,-0.09481812,0.1208344,0.9881287,36.07356,3.955261,-30.93047,3.085464,0.39463,0.4493858,-0.6347446,1.053627,-0.355875,0.02003683,0.7282175000000001,-0.0513232,2.227921,-108.907,33.912438271604934
2,-0.1192168999999999,0.1069489,0.9870758,1.0,-0.1720886,0.07635498,0.9821014,-32.47752,3.929459,-28.09718,2.89566,0.560537,0.4461997,1.0,-0.09481812,0.1208344,0.9881287,36.07356,3.955261,-30.93047,3.085464,0.39463,0.4493858,-0.6347446,1.053627,-0.355875,0.02003683,0.7282175000000001,-0.0513232,2.227921,-108.907,33.912438271604934
2,-0.1192168999999999,0.1069489,0.9870758,1.0,-0.1720886,0.07635498,0.9821014,-32.47752,3.929459,-28.09718,2.89566,0.560537,0.4461997,1.0,-0.09481812,0.1208344,0.9881287,36.07356,3.955261,-30.93047,3.085464,0.39463,0.4493858,-0.6347446,1.053627,-0.355875,0.02003683,0.7282175000000001,-0.0513232,2.227921,-108.907,33.912438271604934
2,-0.08886719,0.111618,0.9897614,1.0,-0.09977722,0.06057739,0.9931488000000002,-32.42928,4.605835,-30.62932,2.867142,0.5518648,0.446007,1.0,-0.08886719,0.111618,0.9897614,36.38654,3.960175,-31.00494,3.09935,0.3829735999999999,0.4507806,-0.6347136,1.0536299999999998,-0.3581617,0.02023589,0.7347842,-0.05078264,2.227921,-108.907,33.912438271604934
2,-0.08886719,0.111618,0.9897614,1.0,-0.09977722,0.06057739,0.9931488000000002,-32.42928,4.605835,-30.62932,2.867142,0.5518648,0.446007,1.0,-0.08886719,0.111618,0.9897614,36.38654,3.960175,-31.00494,3.09935,0.3829735999999999,0.4507806,-0.6347136,1.0536299999999998,-0.3581617,0.02023589,0.7347842,-0.05078264,2.227921,-108.907,33.912438271604934
2,-0.08886719,0.111618,0.9897614,1.0,-0.09977722,0.06057739,0.9931488000000002,-32.42928,4.605835,-30.62932,2.867142,0.5518648,0.446007,1.0,-0.08886719,0.111618,0.9897614,36.38654,3.960175,-31.00494,3.09935,0.3829735999999999,0.4507806,-0.6347136,1.0536299999999998,-0.3581617,0.02023589,0.7347842,-0.05078264,2.227921,-108.907,33.912438271604934
2,-0.08886719,0.111618,0.9897614,1.0,-0.09977722,0.06057739,0.9931488000000002,-32.42928,4.605835,-30.62932,2.867142,0.5518648,0.446007,1.0,-0.08886719,0.111618,0.9897614,36.38654,3.960175,-31.00494,3.09935,0.3829735999999999,0.4507806,-0.6331069,1.054634,-0.3595478,0.02073507,0.7402354999999999,-0.05020861,2.227921,-108.907,33.912438271604934
2,-0.08886719,0.111618,0.9897614,1.0,-0.09977722,0.06057739,0.9931488000000002,-32.42928,4.605835,-30.62932,2.867142,0.5518648,0.446007,1.0,-0.08886719,0.111618,0.9897614,36.38654,3.960175,-31.00494,3.09935,0.3829735999999999,0.4507806,-0.6331069,1.054634,-0.3595478,0.02073507,0.7402354999999999,-0.05020861,2.227921,-108.907,33.912438271604934
2,-0.08886719,0.111618,0.9897614,1.0,-0.09977722,0.06057739,0.9931488000000002,-32.42928,4.605835,-30.62932,2.867142,0.5518648,0.446007,1.0,-0.08886719,0.111618,0.9897614,36.38654,3.960175,-31.00494,3.09935,0.3829735999999999,0.4507806,-0.6331069,1.054634,-0.3595478,0.02073507,0.7402354999999999,-0.05020861,2.227921,-108.907,33.912438271604934
2,-0.08886719,0.111618,0.9897614,1.0,-0.09977722,0.06057739,0.9931488000000002,-32.42928,4.605835,-30.62932,2.867142,0.5518648,0.446007,1.0,-0.08886719,0.111618,0.9897614,36.38654,3.960175,-31.00494,3.09935,0.3829735999999999,0.4507806,-0.6338706000000001,1.054256,-0.3618135,0.02081916,0.746726,-0.05016013,2.227921,-108.907,33.912438271604934
2,-0.08886719,0.111618,0.9897614,1.0,-0.09977722,0.06057739,0.9931488000000002,-32.42928,4.605835,-30.62932,2.867142,0.5518648,0.446007,1.0,-0.08886719,0.111618,0.9897614,36.38654,3.960175,-31.00494,3.09935,0.3829735999999999,0.4507806,-0.6338706000000001,1.054256,-0.3618135,0.02081916,0.746726,-0.05016013,2.227921,-108.907,33.912438271604934
2,-0.08886719,0.111618,0.9897614,1.0,-0.09977722,0.06057739,0.9931488000000002,-32.42928,4.605835,-30.62932,2.867142,0.5518648,0.446007,1.0,-0.08886719,0.111618,0.9897614,36.38654,3.960175,-31.00494,3.09935,0.3829735999999999,0.4507806,-0.6338706000000001,1.054256,-0.3618135,0.02081916,0.746726,-0.05016013,2.227921,-108.907,33.912438271604934
2,0.07272339,0.111969,0.9910431,1.0,-0.050354,0.05319214,0.9972992,-32.44243,4.675903,-30.926040000000004,2.837402,0.5463844,0.4469268,1.0,0.07272339,0.111969,0.9910431,35.99403,3.613281,-29.4807,3.032623,0.3784947,0.4494854,-0.6347151,1.054108,-0.3662606,0.02156313,0.7603681999999999,-0.04874971,2.227921,-108.907,33.912438271604934
2,0.07272339,0.111969,0.9910431,1.0,-0.050354,0.05319214,0.9972992,-32.44243,4.675903,-30.926040000000004,2.837402,0.5463844,0.4469268,1.0,0.07272339,0.111969,0.9910431,35.99403,3.613281,-29.4807,3.032623,0.3784947,0.4494854,-0.6347151,1.054108,-0.3662606,0.02156313,0.7603681999999999,-0.04874971,2.227921,-108.907,33.912438271604934
2,0.07272339,0.111969,0.9910431,1.0,-0.050354,0.05319214,0.9972992,-32.44243,4.675903,-30.926040000000004,2.837402,0.5463844,0.4469268,1.0,0.07272339,0.111969,0.9910431,35.99403,3.613281,-29.4807,3.032623,0.3784947,0.4494854,-0.6347151,1.054108,-0.3662606,0.02156313,0.7603681999999999,-0.04874971,2.227921,-108.907,33.912438271604934
2,-0.02490234,0.1032257,0.994339,1.0,-0.07569885,0.06213379,0.9951782,-32.12051,3.628006,-26.78163,2.808075,0.5358565,0.4467662999999999,1.0,-0.02488708,0.103241,0.994339,36.55182,4.181168,-31.46436,2.977463,0.3691245999999999,0.4475355,-0.6354601,1.053855,-0.3688701,0.02167822,0.767388,-0.04726289,2.227921,102.6853,33.912438271604934
2,-0.02490234,0.1032257,0.994339,1.0,-0.07569885,0.06213379,0.9951782,-32.12051,3.628006,-26.78163,2.808075,0.5358565,0.4467662999999999,1.0,-0.02488708,0.103241,0.994339,36.55182,4.181168,-31.46436,2.977463,0.3691245999999999,0.4475355,-0.6354601,1.053855,-0.3688701,0.02167822,0.767388,-0.04726289,2.227921,102.6853,33.912438271604934
2,-0.02490234,0.1032257,0.994339,1.0,-0.07569885,0.06213379,0.9951782,-32.12051,3.628006,-26.78163,2.808075,0.5358565,0.4467662999999999,1.0,-0.02488708,0.103241,0.994339,36.55182,4.181168,-31.46436,2.977463,0.3691245999999999,0.4475355,-0.6354601,1.053855,-0.3688701,0.02167822,0.767388,-0.04726289,2.227921,102.6853,33.912438271604934
2,-0.01463318,0.06361389,0.9978638,1.0,-0.01463318,0.06361389,0.9978638,-31.772340000000003,3.717361,-27.19481,2.981567,0.5171918,0.4470681999999999,1.0,0.04820251,0.1125336,0.9924622,36.83162,4.233719000000001,-31.82356,3.226257,0.3493865,0.4473832,-0.6364746,1.053623,-0.3736574,0.02270475,0.78055,-0.04583004,2.227921,102.6853,33.912438271604934
2,-0.01463318,0.06361389,0.9978638,1.0,-0.01463318,0.06361389,0.9978638,-31.772340000000003,3.717361,-27.19481,2.981567,0.5171918,0.4470681999999999,1.0,0.04820251,0.1125336,0.9924622,36.83162,4.233719000000001,-31.82356,3.226257,0.3493865,0.4473832,-0.6364746,1.053623,-0.3736574,0.02270475,0.78055,-0.04583004,2.227921,102.6853,33.912438271604934
2,-0.01463318,0.06361389,0.9978638,1.0,-0.01463318,0.06361389,0.9978638,-31.772340000000003,3.717361,-27.19481,2.981567,0.5171918,0.4470681999999999,1.0,0.04820251,0.1125336,0.9924622,36.83162,4.233719000000001,-31.82356,3.226257,0.3493865,0.4473832,-0.6364746,1.053623,-0.3736574,0.02270475,0.78055,-0.04583004,2.227921,102.6853,33.912438271604934
2,-0.004669189,0.06541443,0.9978333,1.0,-0.004669189,0.06541443,0.9978333,-31.673340000000003,3.825241000000001,-27.47411,2.923019,0.5127317,0.4454745,1.0,0.03063965,0.09640503,0.9948578,36.95422,5.024780000000001,-34.78694,2.9627380000000003,0.3434674,0.4464434,-0.6374123,1.053641,-0.3779388,0.02164021,0.7912584,-0.04587457,2.227921,102.6853,33.912438271604934
2,-0.004669189,0.06541443,0.9978333,1.0,-0.004669189,0.06541443,0.9978333,-31.673340000000003,3.825241000000001,-27.47411,2.923019,0.5127317,0.4454745,1.0,0.03063965,0.09640503,0.9948578,36.95422,5.024780000000001,-34.78694,2.9627380000000003,0.3434674,0.4464434,-0.6374123,1.053641,-0.3779388,0.02164021,0.7912584,-0.04587457,2.227921,102.6853,33.912438271604934
2,-0.004669189,0.06541443,0.9978333,1.0,-0.004669189,0.06541443,0.9978333,-31.673340000000003,3.825241000000001,-27.47411,2.923019,0.5127317,0.4454745,1.0,0.03063965,0.09640503,0.9948578,36.95422,5.024780000000001,-34.78694,2.9627380000000003,0.3434674,0.4464434,-0.6374123,1.053641,-0.3779388,0.02164021,0.7912584,-0.04587457,2.227921,102.6853,33.912438271604934
2,0.02883911,0.06486511,0.997467,1.0,0.02883911,0.06486511,0.997467,-31.50525,3.712677,-27.03419,2.923141,0.5028959,0.4456738,1.0,0.03218079,0.09063721,0.9953613,37.14948,5.644394,-37.28333,3.133453,0.3320553,0.4465699000000001,-0.6377649000000001,1.053533,-0.3798289999999999,0.02142621,0.7953946999999999,-0.04616575,2.227921,102.6853,33.912438271604934
2,0.02883911,0.06486511,0.997467,1.0,0.02883911,0.06486511,0.997467,-31.50525,3.712677,-27.03419,2.923141,0.5028959,0.4456738,1.0,0.03218079,0.09063721,0.9953613,37.14948,5.644394,-37.28333,3.133453,0.3320553,0.4465699000000001,-0.6377649000000001,1.053533,-0.3798289999999999,0.02142621,0.7953946999999999,-0.04616575,2.227921,102.6853,33.912438271604934
2,0.02883911,0.06486511,0.997467,1.0,0.02883911,0.06486511,0.997467,-31.50525,3.712677,-27.03419,2.923141,0.5028959,0.4456738,1.0,0.03218079,0.09063721,0.9953613,37.14948,5.644394,-37.28333,3.133453,0.3320553,0.4465699000000001,-0.6377649000000001,1.053533,-0.3798289999999999,0.02142621,0.7953946999999999,-0.04616575,2.227921,102.6853,33.912438271604934
2,0.0537261999999999,0.06584167,0.9963684000000002,1.0,0.0537261999999999,0.06584167,0.9963684000000002,-31.283890000000003,3.767273,-27.218000000000004,2.929489,0.4925388,0.4452347,1.0,0.03546143,0.08569336,0.9956818,37.33615,5.537445,-36.99129,2.988998,0.3253960999999999,0.4482105999999999,-0.6385343000000001,1.053341,-0.3827366,0.01962506,0.8007626999999999,-0.04773707,2.227921,102.6853,33.912438271604934
2,0.0537261999999999,0.06584167,0.9963684000000002,1.0,0.0537261999999999,0.06584167,0.9963684000000002,-31.283890000000003,3.767273,-27.218000000000004,2.929489,0.4925388,0.4452347,1.0,0.03546143,0.08569336,0.9956818,37.33615,5.537445,-36.99129,2.988998,0.3253960999999999,0.4482105999999999,-0.6385343000000001,1.053341,-0.3827366,0.01962506,0.8007626999999999,-0.04773707,2.227921,102.6853,33.912438271604934
2,0.0537261999999999,0.06584167,0.9963684000000002,1.0,0.0537261999999999,0.06584167,0.9963684000000002,-31.283890000000003,3.767273,-27.218000000000004,2.929489,0.4925388,0.4452347,1.0,0.03546143,0.08569336,0.9956818,37.33615,5.537445,-36.99129,2.988998,0.3253960999999999,0.4482105999999999,-0.6385343000000001,1.053341,-0.3827366,0.01962506,0.8007626999999999,-0.04773707,2.227921,102.6853,33.912438271604934
2,0.07055664,0.0546875,0.9960022,1.0,0.07055664,0.0546875,0.9960022,-31.15771,3.87352,-27.46077,2.96312,0.4863704,0.4450175,1.0,0.1643372,0.08097839,0.9830627,37.36235,4.559998,-32.87811,3.029007,0.3143399,0.4479102,-0.6388199000000001,1.053198,-0.3837944,0.01847985,0.8016764000000001,-0.04857171,2.227921,32.60101,33.912438271604934
2,0.07055664,0.0546875,0.9960022,1.0,0.07055664,0.0546875,0.9960022,-31.15771,3.87352,-27.46077,2.96312,0.4863704,0.4450175,1.0,0.1643372,0.08097839,0.9830627,37.36235,4.559998,-32.87811,3.029007,0.3143399,0.4479102,-0.6388199000000001,1.053198,-0.3837944,0.01847985,0.8016764000000001,-0.04857171,2.227921,32.60101,33.912438271604934
2,0.07055664,0.0546875,0.9960022,1.0,0.07055664,0.0546875,0.9960022,-31.15771,3.87352,-27.46077,2.96312,0.4863704,0.4450175,1.0,0.1643372,0.08097839,0.9830627,37.36235,4.559998,-32.87811,3.029007,0.3143399,0.4479102,-0.6388199000000001,1.053198,-0.3837944,0.01847985,0.8016764000000001,-0.04857171,2.227921,32.60101,33.912438271604934
2,0.08734131,0.05010986,0.9949036,1.0,0.08734131,0.05010986,0.9949036,-31.01927,4.051987,-27.93457,2.849533,0.4796393,0.4433602,1.0,0.1886292,0.05793762,0.9803314,37.57314,4.251175,-31.29446,3.195709,0.3061719,0.4481350999999999,-0.6392631999999999,1.052583,-0.385318,0.01708549,0.8015032,-0.05161886,2.227921,32.60101,33.912438271604934
2,0.08734131,0.05010986,0.9949036,1.0,0.08734131,0.05010986,0.9949036,-31.01927,4.051987,-27.93457,2.849533,0.4796393,0.4433602,1.0,0.1886292,0.05793762,0.9803314,37.57314,4.251175,-31.29446,3.195709,0.3061719,0.4481350999999999,-0.6392631999999999,1.052583,-0.385318,0.01708549,0.8015032,-0.05161886,2.227921,32.60101,33.912438271604934
2,0.08734131,0.05010986,0.9949036,1.0,0.08734131,0.05010986,0.9949036,-31.01927,4.051987,-27.93457,2.849533,0.4796393,0.4433602,1.0,0.1886292,0.05793762,0.9803314,37.57314,4.251175,-31.29446,3.195709,0.3061719,0.4481350999999999,-0.6392631999999999,1.052583,-0.385318,0.01708549,0.8015032,-0.05161886,2.227921,32.60101,33.912438271604934
2,0.09533691,0.05119324,0.9941254,0.8050571999999999,0.09533691,0.05119324,0.9941254,-30.9765,4.107285,-27.88092,2.880966,0.4772747,0.4409623,0.9692667,0.2011719,-0.01100159,0.9794769,37.73511,3.853683,-28.2254,3.29155,0.3046447,0.4450670999999999,-0.6391215,1.0522280000000002,-0.3856947,0.01412169,0.7986504,-0.05563769,2.227921,32.60101,33.912438271604934
2,0.09533691,0.05119324,0.9941254,0.8050571999999999,0.09533691,0.05119324,0.9941254,-30.9765,4.107285,-27.88092,2.880966,0.4772747,0.4409623,0.9692667,0.2011719,-0.01100159,0.9794769,37.73511,3.853683,-28.2254,3.29155,0.3046447,0.4450670999999999,-0.6391215,1.0522280000000002,-0.3856947,0.01412169,0.7986504,-0.05563769,2.227921,32.60101,33.912438271604934
2,0.09533691,0.05119324,0.9941254,0.8050571999999999,0.09533691,0.05119324,0.9941254,-30.9765,4.107285,-27.88092,2.880966,0.4772747,0.4409623,0.9692667,0.2011719,-0.01100159,0.9794769,37.73511,3.853683,-28.2254,3.29155,0.3046447,0.4450670999999999,-0.6391215,1.0522280000000002,-0.3856947,0.01412169,0.7986504,-0.05563769,2.227921,32.60101,33.912438271604934
2,0.1015015,0.02957153,0.9943848,0.7555221,0.1015015,0.02957153,0.9943848,-30.881840000000004,4.015105999999999,-27.81917,2.823608,0.4732191,0.4460859,0.9386693000000002,0.2035674999999999,0.05735779,0.9773712,37.69925,3.810562,-29.45438,3.270752,0.3035305,0.4484056999999999,-0.6393223000000001,1.051865,-0.3854886,0.01353798,0.7961254,-0.05801288,2.227921,32.60101,33.912438271604934
2,0.1015015,0.02957153,0.9943848,0.7555221,0.1015015,0.02957153,0.9943848,-30.881840000000004,4.015105999999999,-27.81917,2.823608,0.4732191,0.4460859,0.9386693000000002,0.2035674999999999,0.05735779,0.9773712,37.69925,3.810562,-29.45438,3.270752,0.3035305,0.4484056999999999,-0.6393223000000001,1.051865,-0.3854886,0.01353798,0.7961254,-0.05801288,2.227921,32.60101,33.912438271604934
2,0.1015015,0.02957153,0.9943848,0.7555221,0.1015015,0.02957153,0.9943848,-30.881840000000004,4.015105999999999,-27.81917,2.823608,0.4732191,0.4460859,0.9386693000000002,0.2035674999999999,0.05735779,0.9773712,37.69925,3.810562,-29.45438,3.270752,0.3035305,0.4484056999999999,-0.6393223000000001,1.051865,-0.3854886,0.01353798,0.7961254,-0.05801288,2.227921,32.60101,33.912438271604934
2,0.1610718,-0.0322876,0.9864044,0.6859109,0.1610718,-0.0322876,0.9864044,-30.70526,3.759064,-27.77988,2.874695,0.460022,0.4620286,0.9301041,0.210083,0.04417419,0.9766693,37.66452,4.320526,-32.96162,3.260895,0.2970282999999999,0.4615991,-0.6390784,1.050978,-0.3849607,0.01349664,0.7900693,-0.06325969,2.227921,32.60101,33.912438271604934
2,0.1610718,-0.0322876,0.9864044,0.6859109,0.1610718,-0.0322876,0.9864044,-30.70526,3.759064,-27.77988,2.874695,0.460022,0.4620286,0.9301041,0.210083,0.04417419,0.9766693,37.66452,4.320526,-32.96162,3.260895,0.2970282999999999,0.4615991,-0.6390784,1.050978,-0.3849607,0.01349664,0.7900693,-0.06325969,2.227921,32.60101,33.912438271604934
2,0.1610718,-0.0322876,0.9864044,0.6859109,0.1610718,-0.0322876,0.9864044,-30.70526,3.759064,-27.77988,2.874695,0.460022,0.4620286,0.9301041,0.210083,0.04417419,0.9766693,37.66452,4.320526,-32.96162,3.260895,0.2970282999999999,0.4615991,-0.6390784,1.050978,-0.3849607,0.01349664,0.7900693,-0.06325969,2.227921,32.60101,33.912438271604934
2,0.1610718,-0.0322876,0.9864044,0.6859109,0.1610718,-0.0322876,0.9864044,-30.70526,3.759064,-27.77988,2.874695,0.460022,0.4620286,0.9301041,0.210083,0.04417419,0.9766693,37.66452,4.320526,-32.96162,3.260895,0.2970282999999999,0.4615991,-0.6388783,1.050333,-0.3845363,0.01391602,0.7872585999999999,-0.06548046,2.227921,42.29669,35.39
2,0.1610718,-0.0322876,0.9864044,0.6859109,0.1610718,-0.0322876,0.9864044,-30.70526,3.759064,-27.77988,2.874695,0.460022,0.4620286,0.9301041,0.210083,0.04417419,0.9766693,37.66452,4.320526,-32.96162,3.260895,0.2970282999999999,0.4615991,-0.6388783,1.050333,-0.3845363,0.01391602,0.7872585999999999,-0.06548046,2.227921,42.29669,35.39
2,0.1610718,-0.0322876,0.9864044,0.6859109,0.1610718,-0.0322876,0.9864044,-30.70526,3.759064,-27.77988,2.874695,0.460022,0.4620286,0.9301041,0.210083,0.04417419,0.9766693,37.66452,4.320526,-32.96162,3.260895,0.2970282999999999,0.4615991,-0.6388783,1.050333,-0.3845363,0.01391602,0.7872585999999999,-0.06548046,2.227921,42.29669,35.39
2,0.1325684,-0.07302856,0.9884644,0.7436291,0.1325684,-0.07302856,0.9884644,-30.90013,3.713425,-27.8633,2.809982,0.4699212,0.4691234,0.9596695,0.2463684,-0.01963806,0.9689636,37.69284,3.335938,-28.951490000000003,3.377197,0.298878,0.4697574,-0.6388078,1.049723,-0.3840265,0.01514066,0.7846671,-0.06818826,2.227921,42.29669,35.39
2,0.1325684,-0.07302856,0.9884644,0.7436291,0.1325684,-0.07302856,0.9884644,-30.90013,3.713425,-27.8633,2.809982,0.4699212,0.4691234,0.9596695,0.2463684,-0.01963806,0.9689636,37.69284,3.335938,-28.951490000000003,3.377197,0.298878,0.4697574,-0.6388078,1.049723,-0.3840265,0.01514066,0.7846671,-0.06818826,2.227921,42.29669,35.39
2,0.1325684,-0.07302856,0.9884644,0.7436291,0.1325684,-0.07302856,0.9884644,-30.90013,3.713425,-27.8633,2.809982,0.4699212,0.4691234,0.9596695,0.2463684,-0.01963806,0.9689636,37.69284,3.335938,-28.951490000000003,3.377197,0.298878,0.4697574,-0.6388078,1.049723,-0.3840265,0.01514066,0.7846671,-0.06818826,2.227921,42.29669,35.39
2,0.1216583,-0.06010437,0.9907379,0.7904169,0.1216583,-0.06010437,0.9907379,-30.98474,3.867279,-28.25783,2.906494,0.4743073,0.4657108,0.9718569,0.2385559,0.001480103,0.9711151,37.3627,4.506042,-33.61446,3.299667,0.3035811,0.466656,-0.6381021,1.047994,-0.3828433,0.01881468,0.7786436999999999,-0.07349079,2.227921,42.29669,35.39
2,0.1216583,-0.06010437,0.9907379,0.7904169,0.1216583,-0.06010437,0.9907379,-30.98474,3.867279,-28.25783,2.906494,0.4743073,0.4657108,0.9718569,0.2385559,0.001480103,0.9711151,37.3627,4.506042,-33.61446,3.299667,0.3035811,0.466656,-0.6381021,1.047994,-0.3828433,0.01881468,0.7786436999999999,-0.07349079,2.227921,42.29669,35.39
2,0.1216583,-0.06010437,0.9907379,0.7904169,0.1216583,-0.06010437,0.9907379,-30.98474,3.867279,-28.25783,2.906494,0.4743073,0.4657108,0.9718569,0.2385559,0.001480103,0.9711151,37.3627,4.506042,-33.61446,3.299667,0.3035811,0.466656,-0.6381021,1.047994,-0.3828433,0.01881468,0.7786436999999999,-0.07349079,2.227921,42.29669,35.39
2,0.1277924,-0.2185822,0.9674072,0.7501784,0.1277924,-0.2185822,0.9674072,-30.80438,3.40036,-27.79565,2.943787,0.467167,0.4971779999999999,0.8372973,0.2253571,-0.177948,0.9578705,37.4256,3.264374,-30.02771,3.315262,0.3085539,0.5010095999999999,-0.6371486,1.0466540000000002,-0.3815485999999999,0.02266682,0.7730421999999999,-0.07755246,2.227921,42.29669,35.39
2,0.1277924,-0.2185822,0.9674072,0.7501784,0.1277924,-0.2185822,0.9674072,-30.80438,3.40036,-27.79565,2.943787,0.467167,0.4971779999999999,0.8372973,0.2253571,-0.177948,0.9578705,37.4256,3.264374,-30.02771,3.315262,0.3085539,0.5010095999999999,-0.6371486,1.0466540000000002,-0.3815485999999999,0.02266682,0.7730421999999999,-0.07755246,2.227921,42.29669,35.39
2,0.1277924,-0.2185822,0.9674072,0.7501784,0.1277924,-0.2185822,0.9674072,-30.80438,3.40036,-27.79565,2.943787,0.467167,0.4971779999999999,0.8372973,0.2253571,-0.177948,0.9578705,37.4256,3.264374,-30.02771,3.315262,0.3085539,0.5010095999999999,-0.6371486,1.0466540000000002,-0.3815485999999999,0.02266682,0.7730421999999999,-0.07755246,2.227921,42.29669,35.39
2,0.1277924,-0.2185822,0.9674072,0.6208574,0.1277924,-0.2185822,0.9674072,-30.80438,3.40036,-27.79565,2.943787,0.467167,0.4971779999999999,0.8578328000000002,0.2253571,-0.177948,0.9578705,37.4256,3.264374,-30.02771,3.315262,0.3085539,0.5010095999999999,-0.6359406,1.045053,-0.3797092999999999,0.02583021,0.7668514,-0.08277313,2.227921,42.29669,35.39
2,0.1277924,-0.2185822,0.9674072,0.6208574,0.1277924,-0.2185822,0.9674072,-30.80438,3.40036,-27.79565,2.943787,0.467167,0.4971779999999999,0.8578328000000002,0.2253571,-0.177948,0.9578705,37.4256,3.264374,-30.02771,3.315262,0.3085539,0.5010095999999999,-0.6359406,1.045053,-0.3797092999999999,0.02583021,0.7668514,-0.08277313,2.227921,42.29669,35.39
2,0.1277924,-0.2185822,0.9674072,0.6208574,0.1277924,-0.2185822,0.9674072,-30.80438,3.40036,-27.79565,2.943787,0.467167,0.4971779999999999,0.8578328000000002,0.2253571,-0.177948,0.9578705,37.4256,3.264374,-30.02771,3.315262,0.3085539,0.5010095999999999,-0.6359406,1.045053,-0.3797092999999999,0.02583021,0.7668514,-0.08277313,2.227921,42.29669,35.39
2,0.1277924,-0.2185822,0.9674072,0.6208574,0.1277924,-0.2185822,0.9674072,-30.80438,3.40036,-27.79565,2.943787,0.467167,0.4971779999999999,0.8578328000000002,0.2253571,-0.177948,0.9578705,37.4256,3.264374,-30.02771,3.315262,0.3085539,0.5010095999999999,-0.6344911999999999,1.044024,-0.3780127,0.02686975,0.7611925,-0.08607615,2.227921,-59.85617,35.39
2,0.1277924,-0.2185822,0.9674072,0.6208574,0.1277924,-0.2185822,0.9674072,-30.80438,3.40036,-27.79565,2.943787,0.467167,0.4971779999999999,0.8578328000000002,0.2253571,-0.177948,0.9578705,37.4256,3.264374,-30.02771,3.315262,0.3085539,0.5010095999999999,-0.6344911999999999,1.044024,-0.3780127,0.02686975,0.7611925,-0.08607615,2.227921,-59.85617,35.39
2,0.1277924,-0.2185822,0.9674072,0.6208574,0.1277924,-0.2185822,0.9674072,-30.80438,3.40036,-27.79565,2.943787,0.467167,0.4971779999999999,0.8578328000000002,0.2253571,-0.177948,0.9578705,37.4256,3.264374,-30.02771,3.315262,0.3085539,0.5010095999999999,-0.6344911999999999,1.044024,-0.3780127,0.02686975,0.7611925,-0.08607615,2.227921,-59.85617,35.39
2,0.1116943,-0.2073059,0.9718628,0.6138153000000001,0.1116943,-0.2073059,0.9718628,-30.88806,3.347198,-27.66287,2.969467,0.4719831,0.4963575,0.8540494000000001,0.2172393999999999,-0.1535187,0.9639587,37.45291,3.136002,-29.50696,3.4546050000000004,0.309514,0.4978564,-0.6330788,1.043133,-0.3764133,0.02878583,0.7564436999999999,-0.08846098,2.227921,-59.85617,35.39
2,0.1116943,-0.2073059,0.9718628,0.6138153000000001,0.1116943,-0.2073059,0.9718628,-30.88806,3.347198,-27.66287,2.969467,0.4719831,0.4963575,0.8540494000000001,0.2172393999999999,-0.1535187,0.9639587,37.45291,3.136002,-29.50696,3.4546050000000004,0.309514,0.4978564,-0.6330788,1.043133,-0.3764133,0.02878583,0.7564436999999999,-0.08846098,2.227921,-59.85617,35.39
2,0.1116943,-0.2073059,0.9718628,0.6138153000000001,0.1116943,-0.2073059,0.9718628,-30.88806,3.347198,-27.66287,2.969467,0.4719831,0.4963575,0.8540494000000001,0.2172393999999999,-0.1535187,0.9639587,37.45291,3.136002,-29.50696,3.4546050000000004,0.309514,0.4978564,-0.6330788,1.043133,-0.3764133,0.02878583,0.7564436999999999,-0.08846098,2.227921,-59.85617,35.39
2,0.06278992,-0.1634369,0.9845428,0.6588328,0.06278992,-0.1634369,0.9845428,-31.3027,3.449234,-27.28098,3.129486,0.4920951,0.4841635,0.917659,0.1224518,-0.1444243999999999,0.9819031,37.32007,3.738907,-31.1873,3.290085,0.3234708,0.4905145999999999,-0.631423,1.04241,-0.3746597,0.03029755,0.7508689000000001,-0.09122238,2.227921,-59.85617,35.39
2,0.06278992,-0.1634369,0.9845428,0.6588328,0.06278992,-0.1634369,0.9845428,-31.3027,3.449234,-27.28098,3.129486,0.4920951,0.4841635,0.917659,0.1224518,-0.1444243999999999,0.9819031,37.32007,3.738907,-31.1873,3.290085,0.3234708,0.4905145999999999,-0.631423,1.04241,-0.3746597,0.03029755,0.7508689000000001,-0.09122238,2.227921,-59.85617,35.39
2,0.06278992,-0.1634369,0.9845428,0.6588328,0.06278992,-0.1634369,0.9845428,-31.3027,3.449234,-27.28098,3.129486,0.4920951,0.4841635,0.917659,0.1224518,-0.1444243999999999,0.9819031,37.32007,3.738907,-31.1873,3.290085,0.3234708,0.4905145999999999,-0.631423,1.04241,-0.3746597,0.03029755,0.7508689000000001,-0.09122238,2.227921,-59.85617,35.39
3,0.03620911,-0.1525573999999999,0.9876251,0.6456488,0.03620911,-0.1525573999999999,0.9876251,-31.39513,3.538498,-27.27464,3.155151,0.4984376,0.4797595,0.9138818,0.08854675,-0.1111298,0.9898376,37.24362,4.067856,-32.24333,3.419312,0.3285781,0.4841942,-0.6297414000000001,1.042126,-0.3728417999999999,0.03155441,0.7464324999999999,-0.09209953,2.227921,-59.85617,35.39
3,0.03620911,-0.1525573999999999,0.9876251,0.6456488,0.03620911,-0.1525573999999999,0.9876251,-31.39513,3.538498,-27.27464,3.155151,0.4984376,0.4797595,0.9138818,0.08854675,-0.1111298,0.9898376,37.24362,4.067856,-32.24333,3.419312,0.3285781,0.4841942,-0.6297414000000001,1.042126,-0.3728417999999999,0.03155441,0.7464324999999999,-0.09209953,2.227921,-59.85617,35.39
3,0.03620911,-0.1525573999999999,0.9876251,0.6456488,0.03620911,-0.1525573999999999,0.9876251,-31.39513,3.538498,-27.27464,3.155151,0.4984376,0.4797595,0.9138818,0.08854675,-0.1111298,0.9898376,37.24362,4.067856,-32.24333,3.419312,0.3285781,0.4841942,-0.6297414000000001,1.042126,-0.3728417999999999,0.03155441,0.7464324999999999,-0.09209953,2.227921,-59.85617,35.39
3,-1.0,-1.0,-1.0,0.4084242,0.0,0.0,0.0,-31.33629,4.390518,-27.714,-1.0,0.5002932,0.4396429,0.8424632,0.0,0.0,0.0,36.73842,5.040466,-32.55042,-1.0,0.3341126,0.4459856,-0.6268215,1.042373,-0.369803,0.03120861,0.7387831,-0.09115943,2.227921,-43.03041,35.39
3,-1.0,-1.0,-1.0,0.4084242,0.0,0.0,0.0,-31.33629,4.390518,-27.714,-1.0,0.5002932,0.4396429,0.8424632,0.0,0.0,0.0,36.73842,5.040466,-32.55042,-1.0,0.3341126,0.4459856,-0.6268215,1.042373,-0.369803,0.03120861,0.7387831,-0.09115943,2.227921,-43.03041,35.39
3,-1.0,-1.0,-1.0,0.4084242,0.0,0.0,0.0,-31.33629,4.390518,-27.714,-1.0,0.5002932,0.4396429,0.8424632,0.0,0.0,0.0,36.73842,5.040466,-32.55042,-1.0,0.3341126,0.4459856,-0.6268215,1.042373,-0.369803,0.03120861,0.7387831,-0.09115943,2.227921,-43.03041,35.39
3,-1.0,-1.0,-1.0,0.2088567,0.0,0.0,0.0,-31.24117,5.035278,-27.663120000000003,-1.0,0.4978049,0.3944066,0.8150214,0.0,0.0,0.0,37.06432,4.888947,-29.79973,-1.0,0.3377599,0.4109825,-0.625685,1.042453,-0.3685312,0.03255092,0.7357739999999999,-0.09012941,2.238172,-43.03041,35.39
3,-1.0,-1.0,-1.0,0.2088567,0.0,0.0,0.0,-31.24117,5.035278,-27.663120000000003,-1.0,0.4978049,0.3944066,0.8150214,0.0,0.0,0.0,37.06432,4.888947,-29.79973,-1.0,0.3377599,0.4109825,-0.625685,1.042453,-0.3685312,0.03255092,0.7357739999999999,-0.09012941,2.238172,-43.03041,35.39
3,-1.0,-1.0,-1.0,0.2088567,0.0,0.0,0.0,-31.24117,5.035278,-27.663120000000003,-1.0,0.4978049,0.3944066,0.8150214,0.0,0.0,0.0,37.06432,4.888947,-29.79973,-1.0,0.3377599,0.4109825,-0.625685,1.042453,-0.3685312,0.03255092,0.7357739999999999,-0.09012941,2.238172,-43.03041,35.39
3,0.01785278,0.1827087,0.9830017,0.5029262999999999,0.01785278,0.1827087,0.9830017,-31.34175,4.789078,-27.65495,3.273636,0.4995053,0.4010579999999999,1.0,0.1191406,0.1737671,0.9775391,37.06871,4.823486,-30.08322,3.692963,0.3343798,0.4056285999999999,-0.6245704000000001,1.04245,-0.3672647,0.03395892,0.7328342,-0.08975227,2.238172,-43.03041,35.39
3,0.01785278,0.1827087,0.9830017,0.5029262999999999,0.01785278,0.1827087,0.9830017,-31.34175,4.789078,-27.65495,3.273636,0.4995053,0.4010579999999999,1.0,0.1191406,0.1737671,0.9775391,37.06871,4.823486,-30.08322,3.692963,0.3343798,0.4056285999999999,-0.6245704000000001,1.04245,-0.3672647,0.03395892,0.7328342,-0.08975227,2.238172,-43.03041,35.39
3,0.01785278,0.1827087,0.9830017,0.5029262999999999,0.01785278,0.1827087,0.9830017,-31.34175,4.789078,-27.65495,3.273636,0.4995053,0.4010579999999999,1.0,0.1191406,0.1737671,0.9775391,37.06871,4.823486,-30.08322,3.692963,0.3343798,0.4056285999999999,-0.6245704000000001,1.04245,-0.3672647,0.03395892,0.7328342,-0.08975227,2.238172,-43.03041,35.39
3,0.002456665,0.2079468,0.9781341999999998,1.0,0.002456665,0.2079468,0.9781341999999998,-31.45015,4.625061,-27.43205,3.536179,0.5051687,0.4022423,1.0,0.08335876,0.2107697,0.9739685,37.05577,4.823151,-30.9753,3.721359,0.337798,0.4083989999999999,-0.6234130999999999,1.042564,-0.366096,0.03483327,0.7303132,-0.08930367,2.238172,-43.03041,35.39
3,0.002456665,0.2079468,0.9781341999999998,1.0,0.002456665,0.2079468,0.9781341999999998,-31.45015,4.625061,-27.43205,3.536179,0.5051687,0.4022423,1.0,0.08335876,0.2107697,0.9739685,37.05577,4.823151,-30.9753,3.721359,0.337798,0.4083989999999999,-0.6234130999999999,1.042564,-0.366096,0.03483327,0.7303132,-0.08930367,2.238172,-43.03041,35.39
3,0.002456665,0.2079468,0.9781341999999998,1.0,0.002456665,0.2079468,0.9781341999999998,-31.45015,4.625061,-27.43205,3.536179,0.5051687,0.4022423,1.0,0.08335876,0.2107697,0.9739685,37.05577,4.823151,-30.9753,3.721359,0.337798,0.4083989999999999,-0.6234130999999999,1.042564,-0.366096,0.03483327,0.7303132,-0.08930367,2.238172,-43.03041,35.39
3,-0.005477905,0.2043304,0.9788818,1.0,-0.005477905,0.2043304,0.9788818,-31.46698,4.616409,-27.40598,3.534454,0.5066628,0.4027501,1.0,0.0526885999999999,0.253891,0.9657898,37.08258,4.875015,-31.7567,3.749924,0.3393204999999999,0.4076755999999999,-0.6234130999999999,1.042564,-0.366096,0.03483327,0.7303132,-0.08930367,2.238172,-43.03041,35.39
3,-0.005477905,0.2043304,0.9788818,1.0,-0.005477905,0.2043304,0.9788818,-31.46698,4.616409,-27.40598,3.534454,0.5066628,0.4027501,1.0,0.0526885999999999,0.253891,0.9657898,37.08258,4.875015,-31.7567,3.749924,0.3393204999999999,0.4076755999999999,-0.6234130999999999,1.042564,-0.366096,0.03483327,0.7303132,-0.08930367,2.238172,-43.03041,35.39
3,-0.005477905,0.2043304,0.9788818,1.0,-0.005477905,0.2043304,0.9788818,-31.46698,4.616409,-27.40598,3.534454,0.5066628,0.4027501,1.0,0.0526885999999999,0.253891,0.9657898,37.08258,4.875015,-31.7567,3.749924,0.3393204999999999,0.4076755999999999,-0.6234130999999999,1.042564,-0.366096,0.03483327,0.7303132,-0.08930367,2.238172,-43.03041,35.39
3,-0.0081024169999999,0.2020111,0.9793396,1.0,-0.0081024169999999,0.2020111,0.9793396,-31.52312,4.562622,-27.38701,3.521027,0.5088368,0.4046732,1.0,0.04154968,0.2331696,0.9715424,37.02687,4.842102,-31.77829,3.811371,0.3426735999999999,0.4117609,-0.6216075,1.042227,-0.363682,0.03668167,0.7254331,-0.09019699,2.238172,-43.03041,35.39
3,-0.0081024169999999,0.2020111,0.9793396,1.0,-0.0081024169999999,0.2020111,0.9793396,-31.52312,4.562622,-27.38701,3.521027,0.5088368,0.4046732,1.0,0.04154968,0.2331696,0.9715424,37.02687,4.842102,-31.77829,3.811371,0.3426735999999999,0.4117609,-0.6216075,1.042227,-0.363682,0.03668167,0.7254331,-0.09019699,2.238172,-43.03041,35.39
3,-0.0081024169999999,0.2020111,0.9793396,1.0,-0.0081024169999999,0.2020111,0.9793396,-31.52312,4.562622,-27.38701,3.521027,0.5088368,0.4046732,1.0,0.04154968,0.2331696,0.9715424,37.02687,4.842102,-31.77829,3.811371,0.3426735999999999,0.4117609,-0.6216075,1.042227,-0.363682,0.03668167,0.7254331,-0.09019699,2.238172,-43.03041,35.39
3,-0.009231567,0.206665,0.978363,1.0,-0.009231567,0.206665,0.978363,-31.55399,4.538727,-27.41023,3.5148010000000003,0.5100152,0.4051248,1.0,0.02955627,0.2372589,0.970993,37.01013,4.842361,-31.78125,3.856125,0.3446905,0.4114007999999999,-0.620945,1.041925,-0.3625897,0.03764717,0.7229111999999999,-0.09059443,2.238172,32.41524,35.39
3,-0.009231567,0.206665,0.978363,1.0,-0.009231567,0.206665,0.978363,-31.55399,4.538727,-27.41023,3.5148010000000003,0.5100152,0.4051248,1.0,0.02955627,0.2372589,0.970993,37.01013,4.842361,-31.78125,3.856125,0.3446905,0.4114007999999999,-0.620945,1.041925,-0.3625897,0.03764717,0.7229111999999999,-0.09059443,2.238172,32.41524,35.39
3,-0.009231567,0.206665,0.978363,1.0,-0.009231567,0.206665,0.978363,-31.55399,4.538727,-27.41023,3.5148010000000003,0.5100152,0.4051248,1.0,0.02955627,0.2372589,0.970993,37.01013,4.842361,-31.78125,3.856125,0.3446905,0.4114007999999999,-0.620945,1.041925,-0.3625897,0.03764717,0.7229111999999999,-0.09059443,2.238172,32.41524,35.39
3,-0.006591797,0.2109527999999999,0.9774628,1.0,-0.01333618,0.2069702,0.978241,-31.56689,4.534698000000001,-27.42068,3.514526,0.5109392,0.4053099,1.0,0.03662109,0.2360687,0.9710388,36.96434,4.816025,-31.79102,3.921158,0.3453284,0.4126329000000001,-0.6205347,1.041633,-0.3615930999999999,0.03880598,0.7203074,-0.09034329,2.238172,32.41524,35.39
3,-0.006591797,0.2109527999999999,0.9774628,1.0,-0.01333618,0.2069702,0.978241,-31.56689,4.534698000000001,-27.42068,3.514526,0.5109392,0.4053099,1.0,0.03662109,0.2360687,0.9710388,36.96434,4.816025,-31.79102,3.921158,0.3453284,0.4126329000000001,-0.6205347,1.041633,-0.3615930999999999,0.03880598,0.7203074,-0.09034329,2.238172,32.41524,35.39
3,-0.006591797,0.2109527999999999,0.9774628,1.0,-0.01333618,0.2069702,0.978241,-31.56689,4.534698000000001,-27.42068,3.514526,0.5109392,0.4053099,1.0,0.03662109,0.2360687,0.9710388,36.96434,4.816025,-31.79102,3.921158,0.3453284,0.4126329000000001,-0.6205347,1.041633,-0.3615930999999999,0.03880598,0.7203074,-0.09034329,2.238172,32.41524,35.39
3,-0.006591797,0.2109527999999999,0.9774628,1.0,-0.01333618,0.2069702,0.978241,-31.56689,4.534698000000001,-27.42068,3.514526,0.5109392,0.4053099,1.0,0.03662109,0.2360687,0.9710388,36.96434,4.816025,-31.79102,3.921158,0.3453284,0.4126329000000001,-0.6202116,1.041543,-0.3606544,0.03958957,0.7180065,-0.09009352,2.238172,32.41524,35.39
3,-0.006591797,0.2109527999999999,0.9774628,1.0,-0.01333618,0.2069702,0.978241,-31.56689,4.534698000000001,-27.42068,3.514526,0.5109392,0.4053099,1.0,0.03662109,0.2360687,0.9710388,36.96434,4.816025,-31.79102,3.921158,0.3453284,0.4126329000000001,-0.6202116,1.041543,-0.3606544,0.03958957,0.7180065,-0.09009352,2.238172,32.41524,35.39
3,-0.006591797,0.2109527999999999,0.9774628,1.0,-0.01333618,0.2069702,0.978241,-31.56689,4.534698000000001,-27.42068,3.514526,0.5109392,0.4053099,1.0,0.03662109,0.2360687,0.9710388,36.96434,4.816025,-31.79102,3.921158,0.3453284,0.4126329000000001,-0.6202116,1.041543,-0.3606544,0.03958957,0.7180065,-0.09009352,2.238172,32.41524,35.39
3,0.01966858,0.2178192,0.9757843,1.0,-0.01182556,0.2072449,0.9782104,-31.58891,4.529617,-27.42686,3.489777,0.511484,0.4054677,1.0,0.03846741,0.2240143,0.9738159,36.9334,4.848694,-31.777690000000003,3.770081,0.3464282999999999,0.4126835,-0.6202455,1.041332,-0.3598242,0.04029689,0.7159208,-0.09022392,2.238172,32.41524,35.39
3,0.01966858,0.2178192,0.9757843,1.0,-0.01182556,0.2072449,0.9782104,-31.58891,4.529617,-27.42686,3.489777,0.511484,0.4054677,1.0,0.03846741,0.2240143,0.9738159,36.9334,4.848694,-31.777690000000003,3.770081,0.3464282999999999,0.4126835,-0.6202455,1.041332,-0.3598242,0.04029689,0.7159208,-0.09022392,2.238172,32.41524,35.39
3,0.01966858,0.2178192,0.9757843,1.0,-0.01182556,0.2072449,0.9782104,-31.58891,4.529617,-27.42686,3.489777,0.511484,0.4054677,1.0,0.03846741,0.2240143,0.9738159,36.9334,4.848694,-31.777690000000003,3.770081,0.3464282999999999,0.4126835,-0.6202455,1.041332,-0.3598242,0.04029689,0.7159208,-0.09022392,2.238172,32.41524,35.39
3,0.01966858,0.2178192,0.9757843,1.0,-0.01182556,0.2072449,0.9782104,-31.58891,4.529617,-27.42686,3.489777,0.511484,0.4054677,1.0,0.03846741,0.2240143,0.9738159,36.9334,4.848694,-31.777690000000003,3.770081,0.3464282999999999,0.4126835,-0.620265,1.041357,-0.3591284,0.04027839,0.7141937,-0.08965796,2.238172,51.80197,35.39
3,0.01966858,0.2178192,0.9757843,1.0,-0.01182556,0.2072449,0.9782104,-31.58891,4.529617,-27.42686,3.489777,0.511484,0.4054677,1.0,0.03846741,0.2240143,0.9738159,36.9334,4.848694,-31.777690000000003,3.770081,0.3464282999999999,0.4126835,-0.620265,1.041357,-0.3591284,0.04027839,0.7141937,-0.08965796,2.238172,51.80197,35.39
3,0.01966858,0.2178192,0.9757843,1.0,-0.01182556,0.2072449,0.9782104,-31.58891,4.529617,-27.42686,3.489777,0.511484,0.4054677,1.0,0.03846741,0.2240143,0.9738159,36.9334,4.848694,-31.777690000000003,3.770081,0.3464282999999999,0.4126835,-0.620265,1.041357,-0.3591284,0.04027839,0.7141937,-0.08965796,2.238172,51.80197,35.39
3,-0.01457214,0.2142334,0.9766693,1.0,-0.05895996,0.2063599,0.9766846,-31.82748,4.517471,-27.4211,3.405945,0.5250581999999999,0.4058868,1.0,0.01194763,0.2187347,0.975708,36.7915,4.893143,-31.77756,3.672638,0.3548649,0.4118742,-0.6203026999999999,1.041559,-0.3586023,0.04018024,0.7127760000000001,-0.08894764,2.238172,51.80197,35.39
3,-0.01457214,0.2142334,0.9766693,1.0,-0.05895996,0.2063599,0.9766846,-31.82748,4.517471,-27.4211,3.405945,0.5250581999999999,0.4058868,1.0,0.01194763,0.2187347,0.975708,36.7915,4.893143,-31.77756,3.672638,0.3548649,0.4118742,-0.6203026999999999,1.041559,-0.3586023,0.04018024,0.7127760000000001,-0.08894764,2.238172,51.80197,35.39
3,-0.01457214,0.2142334,0.9766693,1.0,-0.05895996,0.2063599,0.9766846,-31.82748,4.517471,-27.4211,3.405945,0.5250581999999999,0.4058868,1.0,0.01194763,0.2187347,0.975708,36.7915,4.893143,-31.77756,3.672638,0.3548649,0.4118742,-0.6203026999999999,1.041559,-0.3586023,0.04018024,0.7127760000000001,-0.08894764,2.238172,51.80197,35.39
3,-0.02198792,0.2115478999999999,0.9771118,1.0,-0.06678772,0.1968688999999999,0.9781494,-31.84848,4.512436,-27.4211,3.480942,0.526745,0.4072702,1.0,0.005187988,0.2202300999999999,0.9754181,36.76758,4.881668,-31.7795,3.684113,0.3565264,0.4121744,-0.6204932,1.041815,-0.3582095999999999,0.03944232,0.7117385,-0.08867541,2.238172,51.80197,35.39
3,-0.02198792,0.2115478999999999,0.9771118,1.0,-0.06678772,0.1968688999999999,0.9781494,-31.84848,4.512436,-27.4211,3.480942,0.526745,0.4072702,1.0,0.005187988,0.2202300999999999,0.9754181,36.76758,4.881668,-31.7795,3.684113,0.3565264,0.4121744,-0.6204932,1.041815,-0.3582095999999999,0.03944232,0.7117385,-0.08867541,2.238172,51.80197,35.39
3,-0.02198792,0.2115478999999999,0.9771118,1.0,-0.06678772,0.1968688999999999,0.9781494,-31.84848,4.512436,-27.4211,3.480942,0.526745,0.4072702,1.0,0.005187988,0.2202300999999999,0.9754181,36.76758,4.881668,-31.7795,3.684113,0.3565264,0.4121744,-0.6204932,1.041815,-0.3582095999999999,0.03944232,0.7117385,-0.08867541,2.238172,51.80197,35.39
3,-0.02735901,0.2111969,0.9770508,1.0,-0.07623291,0.1964264,0.9775391,-31.86275,4.517608999999999,-27.41794,3.44165,0.5283190999999999,0.4070876,1.0,0.00491333,0.2206421,0.9753265,36.74474,4.892715,-31.77887,3.67189,0.3573835999999999,0.4117409999999999,-0.6207078,1.042504,-0.357967,0.03733446,0.7111995,-0.08711507,2.238172,51.80197,35.39
3,-0.02735901,0.2111969,0.9770508,1.0,-0.07623291,0.1964264,0.9775391,-31.86275,4.517608999999999,-27.41794,3.44165,0.5283190999999999,0.4070876,1.0,0.00491333,0.2206421,0.9753265,36.74474,4.892715,-31.77887,3.67189,0.3573835999999999,0.4117409999999999,-0.6207078,1.042504,-0.357967,0.03733446,0.7111995,-0.08711507,2.238172,51.80197,35.39
3,-0.02735901,0.2111969,0.9770508,1.0,-0.07623291,0.1964264,0.9775391,-31.86275,4.517608999999999,-27.41794,3.44165,0.5283190999999999,0.4070876,1.0,0.00491333,0.2206421,0.9753265,36.74474,4.892715,-31.77887,3.67189,0.3573835999999999,0.4117409999999999,-0.6207078,1.042504,-0.357967,0.03733446,0.7111995,-0.08711507,2.238172,51.80197,35.39
3,-0.04255676,0.2065887,0.9774933,1.0,-0.08378601,0.1898956,0.9782104,-31.87953,4.535507,-27.41878,3.459213,0.5297925,0.4072754,1.0,-0.01545715,0.2173308999999999,0.9759674,36.73512,4.903487999999999,-31.77908,3.657578,0.3602618,0.4118449999999999,-0.6210189,1.043131,-0.3577909999999999,0.03537081,0.7107011999999999,-0.08507806,2.238172,51.80197,35.39
3,-0.04255676,0.2065887,0.9774933,1.0,-0.08378601,0.1898956,0.9782104,-31.87953,4.535507,-27.41878,3.459213,0.5297925,0.4072754,1.0,-0.01545715,0.2173308999999999,0.9759674,36.73512,4.903487999999999,-31.77908,3.657578,0.3602618,0.4118449999999999,-0.6210189,1.043131,-0.3577909999999999,0.03537081,0.7107011999999999,-0.08507806,2.238172,51.80197,35.39
3,-0.04255676,0.2065887,0.9774933,1.0,-0.08378601,0.1898956,0.9782104,-31.87953,4.535507,-27.41878,3.459213,0.5297925,0.4072754,1.0,-0.01545715,0.2173308999999999,0.9759674,36.73512,4.903487999999999,-31.77908,3.657578,0.3602618,0.4118449999999999,-0.6210189,1.043131,-0.3577909999999999,0.03537081,0.7107011999999999,-0.08507806,2.238172,51.80197,35.39
3,-0.04547119,0.2033997,0.9780273000000002,1.0,-0.08943176,0.1852722,0.9786072,-31.89932,4.554382,-27.41382,3.432297,0.5311100000000001,0.407115,1.0,-0.01733398,0.2147369,0.9765015,36.71471,4.911682,-31.78165,3.603012,0.3612893,0.4118449999999999,-0.6214715999999999,1.044375,-0.3576478,0.0309657,0.7106751,-0.08129745,2.238172,-50.93263,35.39
3,-0.04547119,0.2033997,0.9780273000000002,1.0,-0.08943176,0.1852722,0.9786072,-31.89932,4.554382,-27.41382,3.432297,0.5311100000000001,0.407115,1.0,-0.01733398,0.2147369,0.9765015,36.71471,4.911682,-31.78165,3.603012,0.3612893,0.4118449999999999,-0.6214715999999999,1.044375,-0.3576478,0.0309657,0.7106751,-0.08129745,2.238172,-50.93263,35.39
3,-0.04547119,0.2033997,0.9780273000000002,1.0,-0.08943176,0.1852722,0.9786072,-31.89932,4.554382,-27.41382,3.432297,0.5311100000000001,0.407115,1.0,-0.01733398,0.2147369,0.9765015,36.71471,4.911682,-31.78165,3.603012,0.3612893,0.4118449999999999,-0.6214715999999999,1.044375,-0.3576478,0.0309657,0.7106751,-0.08129745,2.238172,-50.93263,35.39
3,-0.05148315,0.1962279999999999,0.9792023,1.0,-0.08990479,0.183136,0.9789581,-31.91103,4.568329,-27.413090000000004,3.42099,0.5315543,0.4068718,1.0,-0.02687073,0.2044373,0.9785004,36.70319,4.93013,-31.78777,3.560287,0.3629259,0.4124962,-0.6218621999999999,1.045993,-0.3575421,0.02689816,0.7106019,-0.07664675,2.238172,-50.93263,35.39
3,-0.05148315,0.1962279999999999,0.9792023,1.0,-0.08990479,0.183136,0.9789581,-31.91103,4.568329,-27.413090000000004,3.42099,0.5315543,0.4068718,1.0,-0.02687073,0.2044373,0.9785004,36.70319,4.93013,-31.78777,3.560287,0.3629259,0.4124962,-0.6218621999999999,1.045993,-0.3575421,0.02689816,0.7106019,-0.07664675,2.238172,-50.93263,35.39
3,-0.05148315,0.1962279999999999,0.9792023,1.0,-0.08990479,0.183136,0.9789581,-31.91103,4.568329,-27.413090000000004,3.42099,0.5315543,0.4068718,1.0,-0.02687073,0.2044373,0.9785004,36.70319,4.93013,-31.78777,3.560287,0.3629259,0.4124962,-0.6218621999999999,1.045993,-0.3575421,0.02689816,0.7106019,-0.07664675,2.238172,-50.93263,35.39
3,-0.046875,0.1837463,0.981842,1.0,-0.09254456,0.1564941,0.9833221,-31.92212,4.413086,-27.3356,3.2784120000000003,0.5320434,0.4144076,1.0,-0.02656555,0.1956787,0.9803009,36.71846,4.77121,-31.77878,3.555603,0.3623548,0.4190064,-0.6228826,1.048756,-0.357145,0.01954803,0.7102265,-0.06947763,2.238172,-50.93263,35.39
3,-0.046875,0.1837463,0.981842,1.0,-0.09254456,0.1564941,0.9833221,-31.92212,4.413086,-27.3356,3.2784120000000003,0.5320434,0.4144076,1.0,-0.02656555,0.1956787,0.9803009,36.71846,4.77121,-31.77878,3.555603,0.3623548,0.4190064,-0.6228826,1.048756,-0.357145,0.01954803,0.7102265,-0.06947763,2.238172,-50.93263,35.39
3,-0.046875,0.1837463,0.981842,1.0,-0.09254456,0.1564941,0.9833221,-31.92212,4.413086,-27.3356,3.2784120000000003,0.5320434,0.4144076,1.0,-0.02656555,0.1956787,0.9803009,36.71846,4.77121,-31.77878,3.555603,0.3623548,0.4190064,-0.6228826,1.048756,-0.357145,0.01954803,0.7102265,-0.06947763,2.238172,-50.93263,35.39
3,-0.05366516,0.1813965,0.9819336,1.0,-0.09646606,0.1559906,0.9830322,-31.92326,4.400848000000001,-27.314120000000003,3.263992,0.5325251,0.4147050999999999,1.0,-0.03265381,0.1936797999999999,0.9805145,36.71875,4.7777400000000005,-31.778270000000003,3.5571589999999995,0.3630941,0.4190439999999999,-0.6228826,1.048756,-0.357145,0.01954803,0.7102265,-0.06947763,2.238172,-50.93263,35.39
3,-0.05366516,0.1813965,0.9819336,1.0,-0.09646606,0.1559906,0.9830322,-31.92326,4.400848000000001,-27.314120000000003,3.263992,0.5325251,0.4147050999999999,1.0,-0.03265381,0.1936797999999999,0.9805145,36.71875,4.7777400000000005,-31.778270000000003,3.5571589999999995,0.3630941,0.4190439999999999,-0.6228826,1.048756,-0.357145,0.01954803,0.7102265,-0.06947763,2.238172,-50.93263,35.39
3,-0.05366516,0.1813965,0.9819336,1.0,-0.09646606,0.1559906,0.9830322,-31.92326,4.400848000000001,-27.314120000000003,3.263992,0.5325251,0.4147050999999999,1.0,-0.03265381,0.1936797999999999,0.9805145,36.71875,4.7777400000000005,-31.778270000000003,3.5571589999999995,0.3630941,0.4190439999999999,-0.6228826,1.048756,-0.357145,0.01954803,0.7102265,-0.06947763,2.238172,-50.93263,35.39
3,0.07351685,0.1578063999999999,0.984726,1.0,0.0632781999999999,0.1432037,0.9876556,-31.20497,4.4199980000000005,-27.39131,3.209351,0.4892607,0.415936,1.0,0.1004944,0.1962279999999999,0.9753876,37.44897,4.685104,-32.01788,3.5456540000000003,0.3202587999999999,0.4227925,-0.6245427,1.051481,-0.3569031,0.01244339,0.7097941,-0.06176891,2.238172,-50.93263,35.39
3,0.07351685,0.1578063999999999,0.984726,1.0,0.0632781999999999,0.1432037,0.9876556,-31.20497,4.4199980000000005,-27.39131,3.209351,0.4892607,0.415936,1.0,0.1004944,0.1962279999999999,0.9753876,37.44897,4.685104,-32.01788,3.5456540000000003,0.3202587999999999,0.4227925,-0.6245427,1.051481,-0.3569031,0.01244339,0.7097941,-0.06176891,2.238172,-50.93263,35.39
3,0.07351685,0.1578063999999999,0.984726,1.0,0.0632781999999999,0.1432037,0.9876556,-31.20497,4.4199980000000005,-27.39131,3.209351,0.4892607,0.415936,1.0,0.1004944,0.1962279999999999,0.9753876,37.44897,4.685104,-32.01788,3.5456540000000003,0.3202587999999999,0.4227925,-0.6245427,1.051481,-0.3569031,0.01244339,0.7097941,-0.06176891,2.238172,-50.93263,35.39
3,0.0785675,0.1635437,0.9833984,1.0,0.06573486,0.1375122,0.9883118,-31.22702,4.408081,-27.39401,3.193649,0.489691,0.4170148,1.0,0.0897521999999999,0.1861877,0.9783936,37.46353,4.67514,-32.13812,3.573532,0.320871,0.425403,-0.6255329000000001,1.052831,-0.3566864,0.008730374,0.7095100000000001,-0.05834744,2.238172,-97.73557,35.39
3,0.0785675,0.1635437,0.9833984,1.0,0.06573486,0.1375122,0.9883118,-31.22702,4.408081,-27.39401,3.193649,0.489691,0.4170148,1.0,0.0897521999999999,0.1861877,0.9783936,37.46353,4.67514,-32.13812,3.573532,0.320871,0.425403,-0.6255329000000001,1.052831,-0.3566864,0.008730374,0.7095100000000001,-0.05834744,2.238172,-97.73557,35.39
3,0.0785675,0.1635437,0.9833984,1.0,0.06573486,0.1375122,0.9883118,-31.22702,4.408081,-27.39401,3.193649,0.489691,0.4170148,1.0,0.0897521999999999,0.1861877,0.9783936,37.46353,4.67514,-32.13812,3.573532,0.320871,0.425403,-0.6255329000000001,1.052831,-0.3566864,0.008730374,0.7095100000000001,-0.05834744,2.238172,-97.73557,35.39
3,0.05682373,0.1221466,0.9908752,1.0,0.05680847,0.1221466,0.9908752,-31.23123,4.381332,-27.39484,3.190384,0.4908757,0.4197014,1.0,0.111969,0.1451721,0.9830475,37.37691,4.956848,-33.17236,3.531281,0.319457,0.429027,-0.6279335,1.054835,-0.3560718,0.002892577,0.708604,-0.05313755,2.238172,-97.73557,35.39
3,0.05682373,0.1221466,0.9908752,1.0,0.05680847,0.1221466,0.9908752,-31.23123,4.381332,-27.39484,3.190384,0.4908757,0.4197014,1.0,0.111969,0.1451721,0.9830475,37.37691,4.956848,-33.17236,3.531281,0.319457,0.429027,-0.6279335,1.054835,-0.3560718,0.002892577,0.708604,-0.05313755,2.238172,-97.73557,35.39
3,0.05682373,0.1221466,0.9908752,1.0,0.05680847,0.1221466,0.9908752,-31.23123,4.381332,-27.39484,3.190384,0.4908757,0.4197014,1.0,0.111969,0.1451721,0.9830475,37.37691,4.956848,-33.17236,3.531281,0.319457,0.429027,-0.6279335,1.054835,-0.3560718,0.002892577,0.708604,-0.05313755,2.238172,-97.73557,35.39
3,0.05653381,0.1228638,0.990799,1.0,0.05653381,0.1228638,0.990799,-31.23251,4.329224,-27.39796,3.232361,0.4909903,0.4214524,1.0,0.08700562,0.1468506,0.985321,37.45351,4.976837000000001,-33.306340000000006,3.5073550000000004,0.3196999,0.4292099,-0.6291871,1.055957,-0.3556445,0.0001726334999999,0.7079357,-0.0503370999999999,2.238172,-97.73557,35.39
3,0.05653381,0.1228638,0.990799,1.0,0.05653381,0.1228638,0.990799,-31.23251,4.329224,-27.39796,3.232361,0.4909903,0.4214524,1.0,0.08700562,0.1468506,0.985321,37.45351,4.976837000000001,-33.306340000000006,3.5073550000000004,0.3196999,0.4292099,-0.6291871,1.055957,-0.3556445,0.0001726334999999,0.7079357,-0.0503370999999999,2.238172,-97.73557,35.39
3,0.05653381,0.1228638,0.990799,1.0,0.05653381,0.1228638,0.990799,-31.23251,4.329224,-27.39796,3.232361,0.4909903,0.4214524,1.0,0.08700562,0.1468506,0.985321,37.45351,4.976837000000001,-33.306340000000006,3.5073550000000004,0.3196999,0.4292099,-0.6291871,1.055957,-0.3556445,0.0001726334999999,0.7079357,-0.0503370999999999,2.238172,-97.73557,35.39
3,0.05314636,0.1118164,0.9922943,1.0,0.05314636,0.1118164,0.9922943,-31.236390000000004,4.299484,-27.398640000000004,3.255447,0.4915352,0.4237656,1.0,0.05908203,0.1247711,0.9904175,37.412690000000005,5.70369,-36.33411,3.3269040000000003,0.3200517,0.4316308,-0.6291871,1.055957,-0.3556445,0.0001726334999999,0.7079357,-0.0503370999999999,2.238172,-97.73557,35.39
3,0.05314636,0.1118164,0.9922943,1.0,0.05314636,0.1118164,0.9922943,-31.236390000000004,4.299484,-27.398640000000004,3.255447,0.4915352,0.4237656,1.0,0.05908203,0.1247711,0.9904175,37.412690000000005,5.70369,-36.33411,3.3269040000000003,0.3200517,0.4316308,-0.6291871,1.055957,-0.3556445,0.0001726334999999,0.7079357,-0.0503370999999999,2.238172,-97.73557,35.39
3,0.05314636,0.1118164,0.9922943,1.0,0.05314636,0.1118164,0.9922943,-31.236390000000004,4.299484,-27.398640000000004,3.255447,0.4915352,0.4237656,1.0,0.05908203,0.1247711,0.9904175,37.412690000000005,5.70369,-36.33411,3.3269040000000003,0.3200517,0.4316308,-0.6291871,1.055957,-0.3556445,0.0001726334999999,0.7079357,-0.0503370999999999,2.238172,-97.73557,35.39
3,0.05014038,0.10849,0.9928284,1.0,0.05014038,0.10849,0.9928284,-31.24223,4.298889,-27.398640000000004,3.25827,0.4920901,0.424172,1.0,0.06266785,0.1167145,0.9911804,37.41681,5.611115,-36.13255,3.39827,0.3196599,0.4343245,-0.6295092,1.057306,-0.3552619,-0.001372952,0.7069947,-0.04809687,2.238172,89.84537,35.39
3,0.05014038,0.10849,0.9928284,1.0,0.05014038,0.10849,0.9928284,-31.24223,4.298889,-27.398640000000004,3.25827,0.4920901,0.424172,1.0,0.06266785,0.1167145,0.9911804,37.41681,5.611115,-36.13255,3.39827,0.3196599,0.4343245,-0.6295092,1.057306,-0.3552619,-0.001372952,0.7069947,-0.04809687,2.238172,89.84537,35.39
3,0.05014038,0.10849,0.9928284,1.0,0.05014038,0.10849,0.9928284,-31.24223,4.298889,-27.398640000000004,3.25827,0.4920901,0.424172,1.0,0.06266785,0.1167145,0.9911804,37.41681,5.611115,-36.13255,3.39827,0.3196599,0.4343245,-0.6295092,1.057306,-0.3552619,-0.001372952,0.7069947,-0.04809687,2.238172,89.84537,35.39
3,0.05014038,0.10849,0.9928284,1.0,0.05014038,0.10849,0.9928284,-31.24223,4.298889,-27.398640000000004,3.25827,0.4920901,0.424172,1.0,0.06266785,0.1167145,0.9911804,37.41681,5.611115,-36.13255,3.39827,0.3196599,0.4343245,-0.6305673,1.058356,-0.3548172,-0.004260237,0.706371,-0.04542033,2.238172,89.84537,35.39
3,0.05014038,0.10849,0.9928284,1.0,0.05014038,0.10849,0.9928284,-31.24223,4.298889,-27.398640000000004,3.25827,0.4920901,0.424172,1.0,0.06266785,0.1167145,0.9911804,37.41681,5.611115,-36.13255,3.39827,0.3196599,0.4343245,-0.6305673,1.058356,-0.3548172,-0.004260237,0.706371,-0.04542033,2.238172,89.84537,35.39
3,0.05014038,0.10849,0.9928284,1.0,0.05014038,0.10849,0.9928284,-31.24223,4.298889,-27.398640000000004,3.25827,0.4920901,0.424172,1.0,0.06266785,0.1167145,0.9911804,37.41681,5.611115,-36.13255,3.39827,0.3196599,0.4343245,-0.6305673,1.058356,-0.3548172,-0.004260237,0.706371,-0.04542033,2.238172,89.84537,35.39
3,0.04960632,0.1059265,0.9931335,1.0,0.04960632,0.1059265,0.9931335,-31.25598,4.236098999999999,-27.33797,3.258789,0.492591,0.4260997,1.0,0.02903748,0.1086578,0.9936523000000002,37.3882,5.719971,-36.5157,3.2952730000000003,0.3246458,0.4347774,-0.6324444,1.058546,-0.3548545,-0.0067823219999999,0.7056948000000001,-0.04289395,2.238172,89.84537,35.39
3,0.04960632,0.1059265,0.9931335,1.0,0.04960632,0.1059265,0.9931335,-31.25598,4.236098999999999,-27.33797,3.258789,0.492591,0.4260997,1.0,0.02903748,0.1086578,0.9936523000000002,37.3882,5.719971,-36.5157,3.2952730000000003,0.3246458,0.4347774,-0.6324444,1.058546,-0.3548545,-0.0067823219999999,0.7056948000000001,-0.04289395,2.238172,89.84537,35.39
3,0.04960632,0.1059265,0.9931335,1.0,0.04960632,0.1059265,0.9931335,-31.25598,4.236098999999999,-27.33797,3.258789,0.492591,0.4260997,1.0,0.02903748,0.1086578,0.9936523000000002,37.3882,5.719971,-36.5157,3.2952730000000003,0.3246458,0.4347774,-0.6324444,1.058546,-0.3548545,-0.0067823219999999,0.7056948000000001,-0.04289395,2.238172,89.84537,35.39
4,0.04321289,0.09130859,0.994873,1.0,0.04580688,0.08982849,0.9948883,-31.25758,4.19696,-27.29317,3.250641,0.4930598,0.4289168,1.0,0.02772522,0.1001128999999999,0.9945831,37.39017,5.68541,-36.45561,3.260712,0.3248958,0.4365792999999999,-0.633841,1.059053,-0.3544144,-0.009210446,0.7049546,-0.04132022,2.238172,89.84537,35.39
4,0.04321289,0.09130859,0.994873,1.0,0.04580688,0.08982849,0.9948883,-31.25758,4.19696,-27.29317,3.250641,0.4930598,0.4289168,1.0,0.02772522,0.1001128999999999,0.9945831,37.39017,5.68541,-36.45561,3.260712,0.3248958,0.4365792999999999,-0.633841,1.059053,-0.3544144,-0.009210446,0.7049546,-0.04132022,2.238172,89.84537,35.39
4,0.04321289,0.09130859,0.994873,1.0,0.04580688,0.08982849,0.9948883,-31.25758,4.19696,-27.29317,3.250641,0.4930598,0.4289168,1.0,0.02772522,0.1001128999999999,0.9945831,37.39017,5.68541,-36.45561,3.260712,0.3248958,0.4365792999999999,-0.633841,1.059053,-0.3544144,-0.009210446,0.7049546,-0.04132022,2.238172,89.84537,35.39
4,0.03161621,0.08978271,0.9954529,1.0,0.0348053,0.08050537,0.9961395,-31.28946,4.175446,-27.280590000000004,3.224396,0.4953975,0.4306045999999999,1.0,0.02890015,0.09767151,0.9947968,37.3873,5.68541,-36.47575,3.276962,0.3247875999999999,0.4370773,-0.6351278,1.059578,-0.3540395,-0.01143493,0.7043528,-0.03993304,2.238172,89.84537,35.39
4,0.03161621,0.08978271,0.9954529,1.0,0.0348053,0.08050537,0.9961395,-31.28946,4.175446,-27.280590000000004,3.224396,0.4953975,0.4306045999999999,1.0,0.02890015,0.09767151,0.9947968,37.3873,5.68541,-36.47575,3.276962,0.3247875999999999,0.4370773,-0.6351278,1.059578,-0.3540395,-0.01143493,0.7043528,-0.03993304,2.238172,89.84537,35.39
4,0.03161621,0.08978271,0.9954529,1.0,0.0348053,0.08050537,0.9961395,-31.28946,4.175446,-27.280590000000004,3.224396,0.4953975,0.4306045999999999,1.0,0.02890015,0.09767151,0.9947968,37.3873,5.68541,-36.47575,3.276962,0.3247875999999999,0.4370773,-0.6351278,1.059578,-0.3540395,-0.01143493,0.7043528,-0.03993304,2.238172,89.84537,35.39
4,0.03161621,0.08978271,0.9954529,1.0,0.0348053,0.08050537,0.9961395,-31.28946,4.175446,-27.280590000000004,3.224396,0.4953975,0.4306045999999999,1.0,0.02890015,0.09767151,0.9947968,37.3873,5.68541,-36.47575,3.276962,0.3247875999999999,0.4370773,-0.636883,1.060678,-0.3531368,-0.01413778,0.7027524,-0.03634714,2.238172,89.84537,35.39
4,0.03161621,0.08978271,0.9954529,1.0,0.0348053,0.08050537,0.9961395,-31.28946,4.175446,-27.280590000000004,3.224396,0.4953975,0.4306045999999999,1.0,0.02890015,0.09767151,0.9947968,37.3873,5.68541,-36.47575,3.276962,0.3247875999999999,0.4370773,-0.636883,1.060678,-0.3531368,-0.01413778,0.7027524,-0.03634714,2.238172,89.84537,35.39
4,0.03161621,0.08978271,0.9954529,1.0,0.0348053,0.08050537,0.9961395,-31.28946,4.175446,-27.280590000000004,3.224396,0.4953975,0.4306045999999999,1.0,0.02890015,0.09767151,0.9947968,37.3873,5.68541,-36.47575,3.276962,0.3247875999999999,0.4370773,-0.636883,1.060678,-0.3531368,-0.01413778,0.7027524,-0.03634714,2.238172,89.84537,35.39
4,0.03373718,0.03318787,0.9988708,1.0,0.03375244,0.03312683,0.9988708,-31.38327,4.146515,-27.00143,3.193085,0.4985463,0.4348482,1.0,0.0213623,0.09111023,0.9956055,37.34122,5.819092,-37.18144,3.167404,0.3265032,0.4391675999999999,-0.6375828,1.061148,-0.3526289,-0.01511899,0.7019816,-0.03447617,2.238172,55.2571,35.39
4,0.03373718,0.03318787,0.9988708,1.0,0.03375244,0.03312683,0.9988708,-31.38327,4.146515,-27.00143,3.193085,0.4985463,0.4348482,1.0,0.0213623,0.09111023,0.9956055,37.34122,5.819092,-37.18144,3.167404,0.3265032,0.4391675999999999,-0.6375828,1.061148,-0.3526289,-0.01511899,0.7019816,-0.03447617,2.238172,55.2571,35.39
4,0.03373718,0.03318787,0.9988708,1.0,0.03375244,0.03312683,0.9988708,-31.38327,4.146515,-27.00143,3.193085,0.4985463,0.4348482,1.0,0.0213623,0.09111023,0.9956055,37.34122,5.819092,-37.18144,3.167404,0.3265032,0.4391675999999999,-0.6375828,1.061148,-0.3526289,-0.01511899,0.7019816,-0.03447617,2.238172,55.2571,35.39
4,0.03373718,0.03318787,0.9988708,1.0,0.03375244,0.03312683,0.9988708,-31.38327,4.146515,-27.00143,3.193085,0.4985463,0.4348482,1.0,0.0213623,0.09111023,0.9956055,37.34122,5.819092,-37.18144,3.167404,0.3265032,0.4391675999999999,-0.6381743000000001,1.061606,-0.3521557,-0.01559541,0.7010679,-0.03316316,2.238172,55.2571,35.39
4,0.03373718,0.03318787,0.9988708,1.0,0.03375244,0.03312683,0.9988708,-31.38327,4.146515,-27.00143,3.193085,0.4985463,0.4348482,1.0,0.0213623,0.09111023,0.9956055,37.34122,5.819092,-37.18144,3.167404,0.3265032,0.4391675999999999,-0.6381743000000001,1.061606,-0.3521557,-0.01559541,0.7010679,-0.03316316,2.238172,55.2571,35.39
4,0.03373718,0.03318787,0.9988708,1.0,0.03375244,0.03312683,0.9988708,-31.38327,4.146515,-27.00143,3.193085,0.4985463,0.4348482,1.0,0.0213623,0.09111023,0.9956055,37.34122,5.819092,-37.18144,3.167404,0.3265032,0.4391675999999999,-0.6381743000000001,1.061606,-0.3521557,-0.01559541,0.7010679,-0.03316316,2.238172,55.2571,35.39
4,0.03373718,0.03318787,0.9988708,1.0,0.03375244,0.03312683,0.9988708,-31.38327,4.146515,-27.00143,3.193085,0.4985463,0.4348482,1.0,0.0213623,0.09111023,0.9956055,37.34122,5.819092,-37.18144,3.167404,0.3265032,0.4391675999999999,-0.6385975,1.062251,-0.3516982,-0.01637722,0.700229,-0.0312505999999999,2.238172,55.2571,35.39
4,0.03373718,0.03318787,0.9988708,1.0,0.03375244,0.03312683,0.9988708,-31.38327,4.146515,-27.00143,3.193085,0.4985463,0.4348482,1.0,0.0213623,0.09111023,0.9956055,37.34122,5.819092,-37.18144,3.167404,0.3265032,0.4391675999999999,-0.6385975,1.062251,-0.3516982,-0.01637722,0.700229,-0.0312505999999999,2.238172,55.2571,35.39
4,0.03373718,0.03318787,0.9988708,1.0,0.03375244,0.03312683,0.9988708,-31.38327,4.146515,-27.00143,3.193085,0.4985463,0.4348482,1.0,0.0213623,0.09111023,0.9956055,37.34122,5.819092,-37.18144,3.167404,0.3265032,0.4391675999999999,-0.6385975,1.062251,-0.3516982,-0.01637722,0.700229,-0.0312505999999999,2.238172,55.2571,35.39
4,0.008468628,-0.06860352,0.9976044,0.2659349,0.008468628,-0.06860352,0.9976044,-31.43407,4.692474,-27.5598,2.879898,0.503139,0.4329755,0.6572816999999999,0.07542419,-0.1945647999999999,0.9779816,37.341640000000005,4.256805,-28.73636,2.084335,0.3339252,0.4582018,-0.6389564999999999,1.062729,-0.3512695,-0.01661816,0.6995096,-0.03027516,2.238172,-34.64803,35.39
4,0.008468628,-0.06860352,0.9976044,0.2659349,0.008468628,-0.06860352,0.9976044,-31.43407,4.692474,-27.5598,2.879898,0.503139,0.4329755,0.6572816999999999,0.07542419,-0.1945647999999999,0.9779816,37.341640000000005,4.256805,-28.73636,2.084335,0.3339252,0.4582018,-0.6389564999999999,1.062729,-0.3512695,-0.01661816,0.6995096,-0.03027516,2.238172,-34.64803,35.39
4,0.008468628,-0.06860352,0.9976044,0.2659349,0.008468628,-0.06860352,0.9976044,-31.43407,4.692474,-27.5598,2.879898,0.503139,0.4329755,0.6572816999999999,0.07542419,-0.1945647999999999,0.9779816,37.341640000000005,4.256805,-28.73636,2.084335,0.3339252,0.4582018,-0.6389564999999999,1.062729,-0.3512695,-0.01661816,0.6995096,-0.03027516,2.238172,-34.64803,35.39
4,0.005569458,-0.1038208,0.9945679,0.0,0.005569458,-0.1038208,0.9945679,-31.49875,4.504211,-26.965290000000003,2.552261,0.5051018,0.4385877999999999,0.3185755,0.05366516,-0.3493042,0.9354706,37.21181,4.507553,-30.185640000000003,2.508621,0.3380200999999999,0.4823473,-0.6392306999999999,1.063184,-0.3508032,-0.01722403,0.6988562,-0.02894611,2.238172,-34.64803,35.39
4,0.005569458,-0.1038208,0.9945679,0.0,0.005569458,-0.1038208,0.9945679,-31.49875,4.504211,-26.965290000000003,2.552261,0.5051018,0.4385877999999999,0.3185755,0.05366516,-0.3493042,0.9354706,37.21181,4.507553,-30.185640000000003,2.508621,0.3380200999999999,0.4823473,-0.6392306999999999,1.063184,-0.3508032,-0.01722403,0.6988562,-0.02894611,2.238172,-34.64803,35.39
4,0.005569458,-0.1038208,0.9945679,0.0,0.005569458,-0.1038208,0.9945679,-31.49875,4.504211,-26.965290000000003,2.552261,0.5051018,0.4385877999999999,0.3185755,0.05366516,-0.3493042,0.9354706,37.21181,4.507553,-30.185640000000003,2.508621,0.3380200999999999,0.4823473,-0.6392306999999999,1.063184,-0.3508032,-0.01722403,0.6988562,-0.02894611,2.238172,-34.64803,35.39
4,0.01713562,0.02963257,0.9994049,0.2644389,0.01713562,0.02963257,0.9994049,-31.53613,4.314743,-26.61905,2.998184,0.5053702999999999,0.4263787999999999,0.7052593,0.120636,0.05445862,0.9911957,37.26683,4.38028,-29.37828,3.462387,0.3286922,0.4290920999999999,-0.6406795999999999,1.063227,-0.3503720999999999,-0.01816204,0.697742,-0.0275602,2.238172,-34.64803,35.39
4,0.01713562,0.02963257,0.9994049,0.2644389,0.01713562,0.02963257,0.9994049,-31.53613,4.314743,-26.61905,2.998184,0.5053702999999999,0.4263787999999999,0.7052593,0.120636,0.05445862,0.9911957,37.26683,4.38028,-29.37828,3.462387,0.3286922,0.4290920999999999,-0.6406795999999999,1.063227,-0.3503720999999999,-0.01816204,0.697742,-0.0275602,2.238172,-34.64803,35.39
4,0.01713562,0.02963257,0.9994049,0.2644389,0.01713562,0.02963257,0.9994049,-31.53613,4.314743,-26.61905,2.998184,0.5053702999999999,0.4263787999999999,0.7052593,0.120636,0.05445862,0.9911957,37.26683,4.38028,-29.37828,3.462387,0.3286922,0.4290920999999999,-0.6406795999999999,1.063227,-0.3503720999999999,-0.01816204,0.697742,-0.0275602,2.238172,-34.64803,35.39
4,0.01713562,0.02963257,0.9994049,0.2597583,0.01713562,0.02963257,0.9994049,-31.53613,4.314743,-26.61905,2.998184,0.5053702999999999,0.4263787999999999,0.7892089,0.120636,0.05445862,0.9911957,37.26683,4.38028,-29.37828,3.462387,0.3286922,0.4290920999999999,-0.6408851,1.0633549999999998,-0.3499532,-0.01807156,0.6972425999999999,-0.0273289,2.238172,-34.64803,35.39
4,0.01713562,0.02963257,0.9994049,0.2597583,0.01713562,0.02963257,0.9994049,-31.53613,4.314743,-26.61905,2.998184,0.5053702999999999,0.4263787999999999,0.7892089,0.120636,0.05445862,0.9911957,37.26683,4.38028,-29.37828,3.462387,0.3286922,0.4290920999999999,-0.6408851,1.0633549999999998,-0.3499532,-0.01807156,0.6972425999999999,-0.0273289,2.238172,-34.64803,35.39
4,0.01713562,0.02963257,0.9994049,0.2597583,0.01713562,0.02963257,0.9994049,-31.53613,4.314743,-26.61905,2.998184,0.5053702999999999,0.4263787999999999,0.7892089,0.120636,0.05445862,0.9911957,37.26683,4.38028,-29.37828,3.462387,0.3286922,0.4290920999999999,-0.6408851,1.0633549999999998,-0.3499532,-0.01807156,0.6972425999999999,-0.0273289,2.238172,-34.64803,35.39
4,-0.0002746582,0.03530884,0.9993744,0.2597583,-0.0002746582,0.03530884,0.9993744,-31.48805,4.343842,-26.77882,3.083572,0.5059665,0.4260693,0.7892089,0.1220093,0.09918213,0.9875488,37.28035,4.331985,-29.58498,3.4515230000000003,0.3277704,0.427054,-0.6412346,1.063171,-0.3497229,-0.01752655,0.6967671999999999,-0.0271555,2.238172,-34.64803,35.39
4,-0.0002746582,0.03530884,0.9993744,0.2597583,-0.0002746582,0.03530884,0.9993744,-31.48805,4.343842,-26.77882,3.083572,0.5059665,0.4260693,0.7892089,0.1220093,0.09918213,0.9875488,37.28035,4.331985,-29.58498,3.4515230000000003,0.3277704,0.427054,-0.6412346,1.063171,-0.3497229,-0.01752655,0.6967671999999999,-0.0271555,2.238172,-34.64803,35.39
4,-0.0002746582,0.03530884,0.9993744,0.2597583,-0.0002746582,0.03530884,0.9993744,-31.48805,4.343842,-26.77882,3.083572,0.5059665,0.4260693,0.7892089,0.1220093,0.09918213,0.9875488,37.28035,4.331985,-29.58498,3.4515230000000003,0.3277704,0.427054,-0.6412346,1.063171,-0.3497229,-0.01752655,0.6967671999999999,-0.0271555,2.238172,-34.64803,35.39
4,0.0765686,0.09024048,0.9929657,1.0,0.02938843,0.05088806,0.9982605,-31.55647,4.100754,-26.62685,3.084702,0.5046669,0.4311678,1.0,0.07743835,0.09095764,0.9928284,37.26273,4.726852,-32.10326,3.426163,0.3298599,0.4349715,-0.6413814999999999,1.063044,-0.3494304,-0.01707,0.6963291,-0.02735723,2.238172,-134.5529,35.39
4,0.0765686,0.09024048,0.9929657,1.0,0.02938843,0.05088806,0.9982605,-31.55647,4.100754,-26.62685,3.084702,0.5046669,0.4311678,1.0,0.07743835,0.09095764,0.9928284,37.26273,4.726852,-32.10326,3.426163,0.3298599,0.4349715,-0.6413814999999999,1.063044,-0.3494304,-0.01707,0.6963291,-0.02735723,2.238172,-134.5529,35.39
4,0.0765686,0.09024048,0.9929657,1.0,0.02938843,0.05088806,0.9982605,-31.55647,4.100754,-26.62685,3.084702,0.5046669,0.4311678,1.0,0.07743835,0.09095764,0.9928284,37.26273,4.726852,-32.10326,3.426163,0.3298599,0.4349715,-0.6413814999999999,1.063044,-0.3494304,-0.01707,0.6963291,-0.02735723,2.238172,-134.5529,35.39
4,-0.06472778,-0.08085632,0.9946136,1.0,-0.06472778,-0.08085632,0.9946136,-31.78644,3.679138,-26.67648,3.083923,0.5234074000000001,0.4613612,1.0,0.005661011,-0.04371643,0.9990234,36.78462,3.898315,-30.35313,3.243973,0.3580583,0.4658797,-0.6415319,1.062878,-0.3493085999999999,-0.01646999,0.6959895,-0.02728319,2.238172,-134.5529,35.39
4,-0.06472778,-0.08085632,0.9946136,1.0,-0.06472778,-0.08085632,0.9946136,-31.78644,3.679138,-26.67648,3.083923,0.5234074000000001,0.4613612,1.0,0.005661011,-0.04371643,0.9990234,36.78462,3.898315,-30.35313,3.243973,0.3580583,0.4658797,-0.6415319,1.062878,-0.3493085999999999,-0.01646999,0.6959895,-0.02728319,2.238172,-134.5529,35.39
4,-0.06472778,-0.08085632,0.9946136,1.0,-0.06472778,-0.08085632,0.9946136,-31.78644,3.679138,-26.67648,3.083923,0.5234074000000001,0.4613612,1.0,0.005661011,-0.04371643,0.9990234,36.78462,3.898315,-30.35313,3.243973,0.3580583,0.4658797,-0.6415319,1.062878,-0.3493085999999999,-0.01646999,0.6959895,-0.02728319,2.238172,-134.5529,35.39
4,-0.06047058,-0.08609009,0.9944458,1.0,-0.06054688,-0.08615112,0.9944305,-31.81276,3.703674,-26.69197,3.125153,0.5238355,0.4613317,1.0,0.005706787,-0.04013062,0.999176,36.79695,3.878067,-30.28716,3.2235720000000003,0.3577529,0.4655622,-0.641454,1.062701,-0.3491083,-0.01587008,0.6957131999999999,-0.02732521,2.238172,-134.5529,35.39
4,-0.06047058,-0.08609009,0.9944458,1.0,-0.06054688,-0.08615112,0.9944305,-31.81276,3.703674,-26.69197,3.125153,0.5238355,0.4613317,1.0,0.005706787,-0.04013062,0.999176,36.79695,3.878067,-30.28716,3.2235720000000003,0.3577529,0.4655622,-0.641454,1.062701,-0.3491083,-0.01587008,0.6957131999999999,-0.02732521,2.238172,-134.5529,35.39
4,-0.06047058,-0.08609009,0.9944458,1.0,-0.06054688,-0.08615112,0.9944305,-31.81276,3.703674,-26.69197,3.125153,0.5238355,0.4613317,1.0,0.005706787,-0.04013062,0.999176,36.79695,3.878067,-30.28716,3.2235720000000003,0.3577529,0.4655622,-0.641454,1.062701,-0.3491083,-0.01587008,0.6957131999999999,-0.02732521,2.238172,-134.5529,35.39
4,-0.0536499,-0.08421326,0.9949951,1.0,-0.06079102,-0.08929443,0.9941406,-31.8333,3.718079,-26.69061,3.107651,0.5245407,0.4612135,1.0,0.005462646,-0.04197693,0.9990997,36.79947,3.884506,-30.2523,3.24649,0.3577108,0.465287,-0.6415071,1.062701,-0.3488800999999999,-0.016031,0.6954639,-0.02736976,2.238172,-134.5529,35.39
4,-0.0536499,-0.08421326,0.9949951,1.0,-0.06079102,-0.08929443,0.9941406,-31.8333,3.718079,-26.69061,3.107651,0.5245407,0.4612135,1.0,0.005462646,-0.04197693,0.9990997,36.79947,3.884506,-30.2523,3.24649,0.3577108,0.465287,-0.6415071,1.062701,-0.3488800999999999,-0.016031,0.6954639,-0.02736976,2.238172,-134.5529,35.39
4,-0.0536499,-0.08421326,0.9949951,1.0,-0.06079102,-0.08929443,0.9941406,-31.8333,3.718079,-26.69061,3.107651,0.5245407,0.4612135,1.0,0.005462646,-0.04197693,0.9990997,36.79947,3.884506,-30.2523,3.24649,0.3577108,0.465287,-0.6415071,1.062701,-0.3488800999999999,-0.016031,0.6954639,-0.02736976,2.238172,-134.5529,35.39
4,-0.02383423,-0.06254578,0.9977417,1.0,-0.05813599,-0.08399963,0.9947662,-31.8582,3.723877,-26.69301,3.151154,0.5251004,0.4604195,1.0,0.0040588379999999,-0.04502869,0.9989624,36.80768,3.898254,-30.21568,3.2638700000000003,0.357625,0.4648994999999999,-0.6415169,1.062624,-0.3486895,-0.0156331,0.6952534,-0.02763835,2.203574,-134.5529,35.39
4,-0.02383423,-0.06254578,0.9977417,1.0,-0.05813599,-0.08399963,0.9947662,-31.8582,3.723877,-26.69301,3.151154,0.5251004,0.4604195,1.0,0.0040588379999999,-0.04502869,0.9989624,36.80768,3.898254,-30.21568,3.2638700000000003,0.357625,0.4648994999999999,-0.6415169,1.062624,-0.3486895,-0.0156331,0.6952534,-0.02763835,2.203574,-134.5529,35.39
4,-0.02383423,-0.06254578,0.9977417,1.0,-0.05813599,-0.08399963,0.9947662,-31.8582,3.723877,-26.69301,3.151154,0.5251004,0.4604195,1.0,0.0040588379999999,-0.04502869,0.9989624,36.80768,3.898254,-30.21568,3.2638700000000003,0.357625,0.4648994999999999,-0.6415169,1.062624,-0.3486895,-0.0156331,0.6952534,-0.02763835,2.203574,-134.5529,35.39
4,-0.02639771,-0.06216431,0.9977112,1.0,-0.0634613,-0.08097839,0.9946899,-31.87163,3.726807,-26.69583,3.176025,0.5262063,0.4600198,1.0,0.006240845,-0.04550171,0.9989319,36.81233,3.898193,-30.21097,3.274338,0.3571917999999999,0.4649192,-0.6415384,1.06259,-0.3484955,-0.01531824,0.6950519000000001,-0.02769867,2.203574,97.58475,35.39
4,-0.02639771,-0.06216431,0.9977112,1.0,-0.0634613,-0.08097839,0.9946899,-31.87163,3.726807,-26.69583,3.176025,0.5262063,0.4600198,1.0,0.006240845,-0.04550171,0.9989319,36.81233,3.898193,-30.21097,3.274338,0.3571917999999999,0.4649192,-0.6415384,1.06259,-0.3484955,-0.01531824,0.6950519000000001,-0.02769867,2.203574,97.58475,35.39
4,-0.02639771,-0.06216431,0.9977112,1.0,-0.0634613,-0.08097839,0.9946899,-31.87163,3.726807,-26.69583,3.176025,0.5262063,0.4600198,1.0,0.006240845,-0.04550171,0.9989319,36.81233,3.898193,-30.21097,3.274338,0.3571917999999999,0.4649192,-0.6415384,1.06259,-0.3484955,-0.01531824,0.6950519000000001,-0.02769867,2.203574,97.58475,35.39
4,-0.06129456,-0.193512,0.9791718,1.0,-0.06245422,-0.1943054,0.9789429,-31.70172,3.3300019999999995,-26.52208,3.2768550000000003,0.5202760999999999,0.4855567,1.0,-0.01113892,-0.1590729,0.9871979,36.59534,3.4967650000000003,-29.80954,3.557831,0.3666164,0.4895085,-0.6414685,1.06267,-0.3483909,-0.01513967,0.6948601,-0.02778863,2.203574,97.58475,35.39
4,-0.06129456,-0.193512,0.9791718,1.0,-0.06245422,-0.1943054,0.9789429,-31.70172,3.3300019999999995,-26.52208,3.2768550000000003,0.5202760999999999,0.4855567,1.0,-0.01113892,-0.1590729,0.9871979,36.59534,3.4967650000000003,-29.80954,3.557831,0.3666164,0.4895085,-0.6414685,1.06267,-0.3483909,-0.01513967,0.6948601,-0.02778863,2.203574,97.58475,35.39
4,-0.06129456,-0.193512,0.9791718,1.0,-0.06245422,-0.1943054,0.9789429,-31.70172,3.3300019999999995,-26.52208,3.2768550000000003,0.5202760999999999,0.4855567,1.0,-0.01113892,-0.1590729,0.9871979,36.59534,3.4967650000000003,-29.80954,3.557831,0.3666164,0.4895085,-0.6414685,1.06267,-0.3483909,-0.01513967,0.6948601,-0.02778863,2.203574,97.58475,35.39
4,-0.06663513,-0.2554169,0.9645233,1.0,-0.0688324,-0.2577362,0.9637451,-31.71608,3.131821,-26.51665,3.233398,0.5214439000000001,0.4999962,1.0,-0.02604675,-0.2124175999999999,0.9768219,36.59348,3.428757,-30.364690000000003,3.430054,0.3678175999999999,0.5033598,-0.6414714,1.062501,-0.3481789,-0.01429657,0.6947936,-0.02801707,2.203574,97.58475,35.39
4,-0.06663513,-0.2554169,0.9645233,1.0,-0.0688324,-0.2577362,0.9637451,-31.71608,3.131821,-26.51665,3.233398,0.5214439000000001,0.4999962,1.0,-0.02604675,-0.2124175999999999,0.9768219,36.59348,3.428757,-30.364690000000003,3.430054,0.3678175999999999,0.5033598,-0.6414714,1.062501,-0.3481789,-0.01429657,0.6947936,-0.02801707,2.203574,97.58475,35.39
4,-0.06663513,-0.2554169,0.9645233,1.0,-0.0688324,-0.2577362,0.9637451,-31.71608,3.131821,-26.51665,3.233398,0.5214439000000001,0.4999962,1.0,-0.02604675,-0.2124175999999999,0.9768219,36.59348,3.428757,-30.364690000000003,3.430054,0.3678175999999999,0.5033598,-0.6414714,1.062501,-0.3481789,-0.01429657,0.6947936,-0.02801707,2.203574,97.58475,35.39
4,-0.07698059,-0.2581787,0.9630127,1.0,-0.07791138,-0.2590332,0.9627075,-31.76666,3.129608,-26.47,3.270462,0.5242332000000001,0.4998682,1.0,-0.02159119,-0.2063599,0.9782257,36.63902,3.406357,-30.0731,3.4046480000000003,0.3661213,0.5007751,-0.6416109,1.062252,-0.3482520999999999,-0.01426265,0.6947126,-0.02822874,2.203574,97.58475,35.37
4,-0.07698059,-0.2581787,0.9630127,1.0,-0.07791138,-0.2590332,0.9627075,-31.76666,3.129608,-26.47,3.270462,0.5242332000000001,0.4998682,1.0,-0.02159119,-0.2063599,0.9782257,36.63902,3.406357,-30.0731,3.4046480000000003,0.3661213,0.5007751,-0.6416109,1.062252,-0.3482520999999999,-0.01426265,0.6947126,-0.02822874,2.203574,97.58475,35.37
4,-0.07698059,-0.2581787,0.9630127,1.0,-0.07791138,-0.2590332,0.9627075,-31.76666,3.129608,-26.47,3.270462,0.5242332000000001,0.4998682,1.0,-0.02159119,-0.2063599,0.9782257,36.63902,3.406357,-30.0731,3.4046480000000003,0.3661213,0.5007751,-0.6416109,1.062252,-0.3482520999999999,-0.01426265,0.6947126,-0.02822874,2.203574,97.58475,35.37
4,-0.0736083999999999,-0.2496489999999999,0.9655304,1.0,-0.07678223,-0.2513123,0.9648438,-31.79843,3.134033,-26.48166,3.250748,0.5251573,0.4988534,1.0,-0.005493164,-0.2132416,0.9769745,36.66068,3.427124,-30.17465,3.395782,0.3633034,0.5017401,-0.6414802,1.062131,-0.3481827,-0.01360085,0.6946223000000001,-0.02840962,2.203574,97.58475,35.37
4,-0.0736083999999999,-0.2496489999999999,0.9655304,1.0,-0.07678223,-0.2513123,0.9648438,-31.79843,3.134033,-26.48166,3.250748,0.5251573,0.4988534,1.0,-0.005493164,-0.2132416,0.9769745,36.66068,3.427124,-30.17465,3.395782,0.3633034,0.5017401,-0.6414802,1.062131,-0.3481827,-0.01360085,0.6946223000000001,-0.02840962,2.203574,97.58475,35.37
4,-0.0736083999999999,-0.2496489999999999,0.9655304,1.0,-0.07678223,-0.2513123,0.9648438,-31.79843,3.134033,-26.48166,3.250748,0.5251573,0.4988534,1.0,-0.005493164,-0.2132416,0.9769745,36.66068,3.427124,-30.17465,3.395782,0.3633034,0.5017401,-0.6414802,1.062131,-0.3481827,-0.01360085,0.6946223000000001,-0.02840962,2.203574,97.58475,35.37
4,-0.05560303,-0.2388611,0.9694519,1.0,-0.0776825,-0.2476349,0.9657288,-31.83443,3.152206,-26.4819,3.244659,0.526471,0.4977995,1.0,-0.008392334,-0.2196655,0.9755249,36.71039,3.477066,-30.27396,3.430389,0.3617627,0.5017153,-0.6414118000000001,1.061784,-0.3481067,-0.01241702,0.6947739,-0.02978741,2.203574,97.58475,35.37
4,-0.05560303,-0.2388611,0.9694519,1.0,-0.0776825,-0.2476349,0.9657288,-31.83443,3.152206,-26.4819,3.244659,0.526471,0.4977995,1.0,-0.008392334,-0.2196655,0.9755249,36.71039,3.477066,-30.27396,3.430389,0.3617627,0.5017153,-0.6414118000000001,1.061784,-0.3481067,-0.01241702,0.6947739,-0.02978741,2.203574,97.58475,35.37
4,-0.05560303,-0.2388611,0.9694519,1.0,-0.0776825,-0.2476349,0.9657288,-31.83443,3.152206,-26.4819,3.244659,0.526471,0.4977995,1.0,-0.008392334,-0.2196655,0.9755249,36.71039,3.477066,-30.27396,3.430389,0.3617627,0.5017153,-0.6414118000000001,1.061784,-0.3481067,-0.01241702,0.6947739,-0.02978741,2.203574,97.58475,35.37
4,-0.05142212,-0.2371367999999999,0.970108,1.0,-0.07530212,-0.2467041,0.966156,-31.84695,3.156372,-26.48166,3.24762,0.5266116999999999,0.4975395,1.0,-0.01235962,-0.2211609,0.9751434,36.71022,3.503159,-30.28568,3.41008,0.3622695999999999,0.501128,-0.6413340999999999,1.061619,-0.3481188,-0.01191546,0.6947061,-0.03033932,2.203574,38.02802,35.37
4,-0.05142212,-0.2371367999999999,0.970108,1.0,-0.07530212,-0.2467041,0.966156,-31.84695,3.156372,-26.48166,3.24762,0.5266116999999999,0.4975395,1.0,-0.01235962,-0.2211609,0.9751434,36.71022,3.503159,-30.28568,3.41008,0.3622695999999999,0.501128,-0.6413340999999999,1.061619,-0.3481188,-0.01191546,0.6947061,-0.03033932,2.203574,38.02802,35.37
4,-0.05142212,-0.2371367999999999,0.970108,1.0,-0.07530212,-0.2467041,0.966156,-31.84695,3.156372,-26.48166,3.24762,0.5266116999999999,0.4975395,1.0,-0.01235962,-0.2211609,0.9751434,36.71022,3.503159,-30.28568,3.41008,0.3622695999999999,0.501128,-0.6413340999999999,1.061619,-0.3481188,-0.01191546,0.6947061,-0.03033932,2.203574,38.02802,35.37
4,-0.05104065,-0.234375,0.9707947,1.0,-0.07650757,-0.2432708999999999,0.9669189,-31.88026,3.166718,-26.4744,3.248367,0.5278728,0.496716,1.0,-0.01179504,-0.2203522,0.9753418,36.73218,3.52681,-30.14986,3.418961,0.3616248,0.4990305,-0.6412313000000001,1.061443,-0.3480642,-0.01167193,0.6947892,-0.03053161,2.203574,38.02802,35.37
4,-0.05104065,-0.234375,0.9707947,1.0,-0.07650757,-0.2432708999999999,0.9669189,-31.88026,3.166718,-26.4744,3.248367,0.5278728,0.496716,1.0,-0.01179504,-0.2203522,0.9753418,36.73218,3.52681,-30.14986,3.418961,0.3616248,0.4990305,-0.6412313000000001,1.061443,-0.3480642,-0.01167193,0.6947892,-0.03053161,2.203574,38.02802,35.37
4,-0.05104065,-0.234375,0.9707947,1.0,-0.07650757,-0.2432708999999999,0.9669189,-31.88026,3.166718,-26.4744,3.248367,0.5278728,0.496716,1.0,-0.01179504,-0.2203522,0.9753418,36.73218,3.52681,-30.14986,3.418961,0.3616248,0.4990305,-0.6412313000000001,1.061443,-0.3480642,-0.01167193,0.6947892,-0.03053161,2.203574,38.02802,35.37
4,-0.03944397,-0.2223206,0.9741669,1.0,-0.0814208999999999,-0.2319031,0.9693146,-31.88414,3.207138,-26.45186,3.240067,0.5285764000000001,0.4937644,1.0,-0.01231384,-0.2159119,0.9763184,36.74022,3.526108,-30.13905,3.4194949999999995,0.3614297,0.4983975999999999,-0.6410971,1.0612629999999998,-0.3480218,-0.01119159,0.6947142,-0.03152689,2.203574,38.02802,35.37
4,-0.03944397,-0.2223206,0.9741669,1.0,-0.0814208999999999,-0.2319031,0.9693146,-31.88414,3.207138,-26.45186,3.240067,0.5285764000000001,0.4937644,1.0,-0.01231384,-0.2159119,0.9763184,36.74022,3.526108,-30.13905,3.4194949999999995,0.3614297,0.4983975999999999,-0.6410971,1.0612629999999998,-0.3480218,-0.01119159,0.6947142,-0.03152689,2.203574,38.02802,35.37
4,-0.03944397,-0.2223206,0.9741669,1.0,-0.0814208999999999,-0.2319031,0.9693146,-31.88414,3.207138,-26.45186,3.240067,0.5285764000000001,0.4937644,1.0,-0.01231384,-0.2159119,0.9763184,36.74022,3.526108,-30.13905,3.4194949999999995,0.3614297,0.4983975999999999,-0.6410971,1.0612629999999998,-0.3480218,-0.01119159,0.6947142,-0.03152689,2.203574,38.02802,35.37
4,-0.03952026,-0.2201232999999999,0.9746552,1.0,-0.08335876,-0.2297667999999999,0.9696655,-31.89459,3.213165,-26.43047,3.252045,0.529158,0.4931184,1.0,-0.01409912,-0.2143402,0.9766541,36.7438,3.527832,-30.13737,3.412857,0.361539,0.4981260999999999,-0.6411748,1.06097,-0.3481091,-0.01096664,0.6946196,-0.03182338,2.203574,38.02802,35.37
