Second,eye_comb_direction_x,eye_comb_direction_y,eye_comb_direction_z,eye_r_openness,eye_r_direction_x,eye_r_direction_y,eye_r_direction_z,eye_r_origin_x,eye_r_origin_y,eye_r_origin_z,eye_r_pupil_diameter,eye_r_pupil_position_x,eye_r_pupil_position_y,eye_l_openness,eye_l_direction_x,eye_l_direction_y,eye_l_direction_z,eye_l_origin_x,eye_l_origin_y,eye_l_origin_z,eye_l_pupil_diameter,eye_l_pupil_position_x,eye_l_pupil_position_y,head_position_x,head_position_y,head_position_z,head_rotation_roll,head_rotation_pitch,head_rotation_yaw,EDA,BVP,TMP
0,-0.2082672,0.02035522,0.9778442,1.0,-0.2966460999999999,0.0075531009999999,0.9549561,-33.083690000000004,4.459198000000001,-26.37517,3.855789,0.5950065,0.4238792,1.0,-0.1730804,0.02534485,0.9845734,35.59323,5.357071,-31.293440000000004,4.126983999999999,0.4188543999999999,0.4173337,-0.6520534,1.048486,-0.3080193,0.04595814,0.6335447,-0.03047311,2.19973,0.7071522601767678,33.931901515151516
0,-0.2082672,0.02035522,0.9778442,1.0,-0.2966460999999999,0.0075531009999999,0.9549561,-33.083690000000004,4.459198000000001,-26.37517,3.855789,0.5950065,0.4238792,1.0,-0.1730804,0.02534485,0.9845734,35.59323,5.357071,-31.293440000000004,4.126983999999999,0.4188543999999999,0.4173337,-0.6520534,1.048486,-0.3080193,0.04595814,0.6335447,-0.03047311,2.19973,0.7071522601767678,33.931901515151516
0,-0.2082672,0.02035522,0.9778442,1.0,-0.2966460999999999,0.0075531009999999,0.9549561,-33.083690000000004,4.459198000000001,-26.37517,3.855789,0.5950065,0.4238792,1.0,-0.1730804,0.02534485,0.9845734,35.59323,5.357071,-31.293440000000004,4.126983999999999,0.4188543999999999,0.4173337,-0.6520534,1.048486,-0.3080193,0.04595814,0.6335447,-0.03047311,2.19973,0.7071522601767678,33.931901515151516
0,-0.2119751,0.01747131,0.9771118,1.0,-0.3049622,0.01075745,0.9522858,-32.96588,4.422806,-26.33829,3.924484,0.5920088000000001,0.4245395999999999,1.0,-0.1455078,0.02209473,0.9891052,35.81577,5.266495,-31.20921,3.915466,0.4082454,0.4197227,-0.6517354999999999,1.048468,-0.3095486,0.04579362,0.6380631,-0.03114372,2.19973,0.7071522601767678,33.931901515151516
0,-0.2119751,0.01747131,0.9771118,1.0,-0.3049622,0.01075745,0.9522858,-32.96588,4.422806,-26.33829,3.924484,0.5920088000000001,0.4245395999999999,1.0,-0.1455078,0.02209473,0.9891052,35.81577,5.266495,-31.20921,3.915466,0.4082454,0.4197227,-0.6517354999999999,1.048468,-0.3095486,0.04579362,0.6380631,-0.03114372,2.19973,0.7071522601767678,33.931901515151516
0,-0.2119751,0.01747131,0.9771118,1.0,-0.3049622,0.01075745,0.9522858,-32.96588,4.422806,-26.33829,3.924484,0.5920088000000001,0.4245395999999999,1.0,-0.1455078,0.02209473,0.9891052,35.81577,5.266495,-31.20921,3.915466,0.4082454,0.4197227,-0.6517354999999999,1.048468,-0.3095486,0.04579362,0.6380631,-0.03114372,2.19973,0.7071522601767678,33.931901515151516
0,-0.1963043,0.02638245,0.9801788,1.0,-0.2657776,0.01757813,0.9638671999999998,-33.015229999999995,4.448273,-26.38263,3.932159,0.5890213000000001,0.4230127999999999,1.0,-0.1286774,0.03469849,0.9910736,35.8499,5.263901000000001,-31.20921,3.953049,0.4049969,0.4181827999999999,-0.6514709,1.048489,-0.3105322,0.04567282,0.6407654,-0.03151223,2.19973,0.7071522601767678,33.931901515151516
0,-0.1963043,0.02638245,0.9801788,1.0,-0.2657776,0.01757813,0.9638671999999998,-33.015229999999995,4.448273,-26.38263,3.932159,0.5890213000000001,0.4230127999999999,1.0,-0.1286774,0.03469849,0.9910736,35.8499,5.263901000000001,-31.20921,3.953049,0.4049969,0.4181827999999999,-0.6514709,1.048489,-0.3105322,0.04567282,0.6407654,-0.03151223,2.19973,0.7071522601767678,33.931901515151516
0,-0.1963043,0.02638245,0.9801788,1.0,-0.2657776,0.01757813,0.9638671999999998,-33.015229999999995,4.448273,-26.38263,3.932159,0.5890213000000001,0.4230127999999999,1.0,-0.1286774,0.03469849,0.9910736,35.8499,5.263901000000001,-31.20921,3.953049,0.4049969,0.4181827999999999,-0.6514709,1.048489,-0.3105322,0.04567282,0.6407654,-0.03151223,2.19973,0.7071522601767678,33.931901515151516
0,-0.1903533999999999,0.02810669,0.981308,1.0,-0.262085,0.02243042,0.9647675,-33.01103,4.447083,-26.38257,3.932053,0.5884423000000001,0.4224704000000001,1.0,-0.1270752,0.03292847,0.991333,35.85732,5.26236,-31.20808,3.946457,0.4045564,0.4184254,-0.6511943,1.048451,-0.3119317,0.04560425,0.6443654000000001,-0.03212015,2.19973,0.7071522601767678,33.931901515151516
0,-0.1903533999999999,0.02810669,0.981308,1.0,-0.262085,0.02243042,0.9647675,-33.01103,4.447083,-26.38257,3.932053,0.5884423000000001,0.4224704000000001,1.0,-0.1270752,0.03292847,0.991333,35.85732,5.26236,-31.20808,3.946457,0.4045564,0.4184254,-0.6511943,1.048451,-0.3119317,0.04560425,0.6443654000000001,-0.03212015,2.19973,0.7071522601767678,33.931901515151516
0,-0.1903533999999999,0.02810669,0.981308,1.0,-0.262085,0.02243042,0.9647675,-33.01103,4.447083,-26.38257,3.932053,0.5884423000000001,0.4224704000000001,1.0,-0.1270752,0.03292847,0.991333,35.85732,5.26236,-31.20808,3.946457,0.4045564,0.4184254,-0.6511943,1.048451,-0.3119317,0.04560425,0.6443654000000001,-0.03212015,2.19973,0.7071522601767678,33.931901515151516
0,-0.1765289,0.03001404,0.9838257,1.0,-0.2580109,0.0247345,0.9658203000000002,-32.9286,4.455185,-26.38547,3.823975,0.5851516,0.4218524,1.0,-0.1257781999999999,0.03315735,0.9915009,35.889070000000004,5.258209,-31.19724,3.954437,0.4032967,0.4184254,-0.6510736999999999,1.048383,-0.3132175,0.04506982,0.6473701999999999,-0.03274319,2.19973,0.7071522601767678,33.931901515151516
0,-0.1765289,0.03001404,0.9838257,1.0,-0.2580109,0.0247345,0.9658203000000002,-32.9286,4.455185,-26.38547,3.823975,0.5851516,0.4218524,1.0,-0.1257781999999999,0.03315735,0.9915009,35.889070000000004,5.258209,-31.19724,3.954437,0.4032967,0.4184254,-0.6510736999999999,1.048383,-0.3132175,0.04506982,0.6473701999999999,-0.03274319,2.19973,0.7071522601767678,33.931901515151516
0,-0.1765289,0.03001404,0.9838257,1.0,-0.2580109,0.0247345,0.9658203000000002,-32.9286,4.455185,-26.38547,3.823975,0.5851516,0.4218524,1.0,-0.1257781999999999,0.03315735,0.9915009,35.889070000000004,5.258209,-31.19724,3.954437,0.4032967,0.4184254,-0.6510736999999999,1.048383,-0.3132175,0.04506982,0.6473701999999999,-0.03274319,2.19973,0.7071522601767678,33.931901515151516
1,-0.189209,0.02304077,0.9816589,1.0,-0.2391204999999999,0.02639771,0.9706268,-32.91199,4.466843,-26.39966,3.754715,0.5823286999999999,0.4212259,1.0,-0.1260376,0.01876831,0.9918365,36.06279,5.227478,-31.06444,3.801132,0.3976656,0.419962,-0.6509597,1.048337,-0.3139489,0.04485881,0.648971,-0.03304387,2.19973,0.7071522601767678,33.931901515151516
1,-0.189209,0.02304077,0.9816589,1.0,-0.2391204999999999,0.02639771,0.9706268,-32.91199,4.466843,-26.39966,3.754715,0.5823286999999999,0.4212259,1.0,-0.1260376,0.01876831,0.9918365,36.06279,5.227478,-31.06444,3.801132,0.3976656,0.419962,-0.6509597,1.048337,-0.3139489,0.04485881,0.648971,-0.03304387,2.19973,0.7071522601767678,33.931901515151516
1,-0.189209,0.02304077,0.9816589,1.0,-0.2391204999999999,0.02639771,0.9706268,-32.91199,4.466843,-26.39966,3.754715,0.5823286999999999,0.4212259,1.0,-0.1260376,0.01876831,0.9918365,36.06279,5.227478,-31.06444,3.801132,0.3976656,0.419962,-0.6509597,1.048337,-0.3139489,0.04485881,0.648971,-0.03304387,2.19973,0.7071522601767678,33.931901515151516
1,-0.1956482,0.02224731,0.9804077,1.0,-0.2320557,0.02415466,0.9723969,-32.87531,4.480789,-26.4034,3.763428,0.5802571999999999,0.4210199,1.0,-0.1266632,0.01858521,0.9917603000000002,36.09,5.21106,-31.01332,3.820862,0.3968163,0.4201344,-0.6507909000000001,1.048272,-0.3149384,0.04463778,0.6508449000000001,-0.03364881,2.19973,0.7071522601767678,33.931901515151516
1,-0.1956482,0.02224731,0.9804077,1.0,-0.2320557,0.02415466,0.9723969,-32.87531,4.480789,-26.4034,3.763428,0.5802571999999999,0.4210199,1.0,-0.1266632,0.01858521,0.9917603000000002,36.09,5.21106,-31.01332,3.820862,0.3968163,0.4201344,-0.6507909000000001,1.048272,-0.3149384,0.04463778,0.6508449000000001,-0.03364881,2.19973,0.7071522601767678,33.931901515151516
1,-0.1956482,0.02224731,0.9804077,1.0,-0.2320557,0.02415466,0.9723969,-32.87531,4.480789,-26.4034,3.763428,0.5802571999999999,0.4210199,1.0,-0.1266632,0.01858521,0.9917603000000002,36.09,5.21106,-31.01332,3.820862,0.3968163,0.4201344,-0.6507909000000001,1.048272,-0.3149384,0.04463778,0.6508449000000001,-0.03364881,2.19973,0.7071522601767678,33.931901515151516
1,-0.1722107,0.02484131,0.9847412,1.0,-0.2320557,0.02175903,0.9724426,-32.84645,4.482986,-26.40414,3.767014,0.579287,0.4212324,1.0,-0.1188507,0.02748108,0.9925232,36.12033,5.194321,-30.9789,3.808426,0.3948888,0.4192795,-0.6508881999999999,1.048264,-0.315874,0.04413733,0.6523103,-0.03408561,2.19973,0.7071522601767678,33.931901515151516
1,-0.1722107,0.02484131,0.9847412,1.0,-0.2320557,0.02175903,0.9724426,-32.84645,4.482986,-26.40414,3.767014,0.579287,0.4212324,1.0,-0.1188507,0.02748108,0.9925232,36.12033,5.194321,-30.9789,3.808426,0.3948888,0.4192795,-0.6508881999999999,1.048264,-0.315874,0.04413733,0.6523103,-0.03408561,2.19973,0.7071522601767678,33.931901515151516
1,-0.1722107,0.02484131,0.9847412,1.0,-0.2320557,0.02175903,0.9724426,-32.84645,4.482986,-26.40414,3.767014,0.579287,0.4212324,1.0,-0.1188507,0.02748108,0.9925232,36.12033,5.194321,-30.9789,3.808426,0.3948888,0.4192795,-0.6508881999999999,1.048264,-0.315874,0.04413733,0.6523103,-0.03408561,2.19973,0.7071522601767678,33.931901515151516
1,-0.1626892,0.02786255,0.9862671,1.0,-0.2221222,0.02053833,0.9747925,-32.83133,4.503006,-26.39963,3.763367,0.5775909,0.4206223,1.0,-0.1197662,0.03305054,0.9922485,36.14743,5.202637,-30.97333,3.780197,0.3941194,0.4182448,-0.65083,1.0483790000000002,-0.3168755,0.04303087,0.6539249,-0.03527378,2.19973,0.7071522601767678,33.931901515151516
1,-0.1626892,0.02786255,0.9862671,1.0,-0.2221222,0.02053833,0.9747925,-32.83133,4.503006,-26.39963,3.763367,0.5775909,0.4206223,1.0,-0.1197662,0.03305054,0.9922485,36.14743,5.202637,-30.97333,3.780197,0.3941194,0.4182448,-0.65083,1.0483790000000002,-0.3168755,0.04303087,0.6539249,-0.03527378,2.19973,0.7071522601767678,33.931901515151516
1,-0.1626892,0.02786255,0.9862671,1.0,-0.2221222,0.02053833,0.9747925,-32.83133,4.503006,-26.39963,3.763367,0.5775909,0.4206223,1.0,-0.1197662,0.03305054,0.9922485,36.14743,5.202637,-30.97333,3.780197,0.3941194,0.4182448,-0.65083,1.0483790000000002,-0.3168755,0.04303087,0.6539249,-0.03527378,2.19973,0.7071522601767678,33.931901515151516
1,-0.1539307,0.02890015,0.9876556,1.0,-0.2329712,0.01570129,0.9723511,-32.76807,4.503006,-26.33122,3.745178,0.5766844,0.4206710999999999,1.0,-0.114212,0.03540039,0.9928131,36.15598,5.202637,-30.968770000000003,3.73378,0.3932388,0.4178513,-0.6507236999999999,1.048502,-0.3175757999999999,0.04222477,0.6549799,-0.03618752,2.19973,55.4774,33.931901515151516
1,-0.1539307,0.02890015,0.9876556,1.0,-0.2329712,0.01570129,0.9723511,-32.76807,4.503006,-26.33122,3.745178,0.5766844,0.4206710999999999,1.0,-0.114212,0.03540039,0.9928131,36.15598,5.202637,-30.968770000000003,3.73378,0.3932388,0.4178513,-0.6507236999999999,1.048502,-0.3175757999999999,0.04222477,0.6549799,-0.03618752,2.19973,55.4774,33.931901515151516
1,-0.1539307,0.02890015,0.9876556,1.0,-0.2329712,0.01570129,0.9723511,-32.76807,4.503006,-26.33122,3.745178,0.5766844,0.4206710999999999,1.0,-0.114212,0.03540039,0.9928131,36.15598,5.202637,-30.968770000000003,3.73378,0.3932388,0.4178513,-0.6507236999999999,1.048502,-0.3175757999999999,0.04222477,0.6549799,-0.03618752,2.19973,55.4774,33.931901515151516
1,-0.1450348,0.02897644,0.9889984,1.0,-0.2266235,0.01428223,0.9738617,-32.7525,4.503006,-26.31436,3.738480000000001,0.575389,0.4206710999999999,1.0,-0.1101531999999999,0.03514099,0.9932861,36.163070000000005,5.205658000000001,-30.96646,3.716415,0.3925337,0.4177219,-0.6502446999999999,1.048877,-0.3181883,0.04107816,0.6561292,-0.03708357,2.19973,55.4774,33.931901515151516
1,-0.1450348,0.02897644,0.9889984,1.0,-0.2266235,0.01428223,0.9738617,-32.7525,4.503006,-26.31436,3.738480000000001,0.575389,0.4206710999999999,1.0,-0.1101531999999999,0.03514099,0.9932861,36.163070000000005,5.205658000000001,-30.96646,3.716415,0.3925337,0.4177219,-0.6502446999999999,1.048877,-0.3181883,0.04107816,0.6561292,-0.03708357,2.19973,55.4774,33.931901515151516
1,-0.1450348,0.02897644,0.9889984,1.0,-0.2266235,0.01428223,0.9738617,-32.7525,4.503006,-26.31436,3.738480000000001,0.575389,0.4206710999999999,1.0,-0.1101531999999999,0.03514099,0.9932861,36.163070000000005,5.205658000000001,-30.96646,3.716415,0.3925337,0.4177219,-0.6502446999999999,1.048877,-0.3181883,0.04107816,0.6561292,-0.03708357,2.19973,55.4774,33.931901515151516
1,-0.1386108,0.01460266,0.9902344,1.0,-0.2190247,0.01300049,0.9756317,-32.73894,4.497116,-26.26236,3.674515,0.5739586,0.4205196,1.0,-0.09838867,0.0153656,0.9950256,36.17203,5.263718,-30.96208,3.616074,0.3909579,0.4179426999999999,-0.6501911,1.049032,-0.3185179,0.04046101,0.6568901999999999,-0.03758547,2.19973,55.4774,33.931901515151516
1,-0.1386108,0.01460266,0.9902344,1.0,-0.2190247,0.01300049,0.9756317,-32.73894,4.497116,-26.26236,3.674515,0.5739586,0.4205196,1.0,-0.09838867,0.0153656,0.9950256,36.17203,5.263718,-30.96208,3.616074,0.3909579,0.4179426999999999,-0.6501911,1.049032,-0.3185179,0.04046101,0.6568901999999999,-0.03758547,2.19973,55.4774,33.931901515151516
1,-0.1386108,0.01460266,0.9902344,1.0,-0.2190247,0.01300049,0.9756317,-32.73894,4.497116,-26.26236,3.674515,0.5739586,0.4205196,1.0,-0.09838867,0.0153656,0.9950256,36.17203,5.263718,-30.96208,3.616074,0.3909579,0.4179426999999999,-0.6501911,1.049032,-0.3185179,0.04046101,0.6568901999999999,-0.03758547,2.19973,55.4774,33.931901515151516
1,-0.1436309999999999,0.01342773,0.9895325,1.0,-0.2078704999999999,0.01417542,0.9780426,-32.72186,4.49263,-26.21394,3.655533,0.5720115,0.4200795,1.0,-0.08969116,0.01277161,0.9958801,36.18849,5.235397,-30.819000000000003,3.56842,0.3895604,0.4179792999999999,-0.6501188,1.04912,-0.3188785,0.0397149,0.6576079,-0.03798035,2.19973,55.4774,33.931901515151516
1,-0.1436309999999999,0.01342773,0.9895325,1.0,-0.2078704999999999,0.01417542,0.9780426,-32.72186,4.49263,-26.21394,3.655533,0.5720115,0.4200795,1.0,-0.08969116,0.01277161,0.9958801,36.18849,5.235397,-30.819000000000003,3.56842,0.3895604,0.4179792999999999,-0.6501188,1.04912,-0.3188785,0.0397149,0.6576079,-0.03798035,2.19973,55.4774,33.931901515151516
1,-0.1436309999999999,0.01342773,0.9895325,1.0,-0.2078704999999999,0.01417542,0.9780426,-32.72186,4.49263,-26.21394,3.655533,0.5720115,0.4200795,1.0,-0.08969116,0.01277161,0.9958801,36.18849,5.235397,-30.819000000000003,3.56842,0.3895604,0.4179792999999999,-0.6501188,1.04912,-0.3188785,0.0397149,0.6576079,-0.03798035,2.19973,55.4774,33.931901515151516
1,-0.149231,0.01359558,0.9886932,1.0,-0.2031402999999999,0.01399231,0.9790344,-32.72101,4.49263,-26.21394,3.652908,0.571419,0.4200795,1.0,-0.08921814,0.0131072999999999,0.9959106,36.19235,5.227295,-30.79016,3.5692440000000003,0.3893987,0.4179792999999999,-0.650126,1.049192,-0.3192373,0.0393629,0.6585496999999999,-0.03856707,2.19973,55.4774,33.931901515151516
1,-0.149231,0.01359558,0.9886932,1.0,-0.2031402999999999,0.01399231,0.9790344,-32.72101,4.49263,-26.21394,3.652908,0.571419,0.4200795,1.0,-0.08921814,0.0131072999999999,0.9959106,36.19235,5.227295,-30.79016,3.5692440000000003,0.3893987,0.4179792999999999,-0.650126,1.049192,-0.3192373,0.0393629,0.6585496999999999,-0.03856707,2.19973,55.4774,33.931901515151516
1,-0.149231,0.01359558,0.9886932,1.0,-0.2031402999999999,0.01399231,0.9790344,-32.72101,4.49263,-26.21394,3.652908,0.571419,0.4200795,1.0,-0.08921814,0.0131072999999999,0.9959106,36.19235,5.227295,-30.79016,3.5692440000000003,0.3893987,0.4179792999999999,-0.650126,1.049192,-0.3192373,0.0393629,0.6585496999999999,-0.03856707,2.19973,55.4774,33.931901515151516
1,-0.149231,0.01359558,0.9886932,1.0,-0.2031402999999999,0.01399231,0.9790344,-32.72101,4.49263,-26.21394,3.652908,0.571419,0.4200795,1.0,-0.08921814,0.0131072999999999,0.9959106,36.19235,5.227295,-30.79016,3.5692440000000003,0.3893987,0.4179792999999999,-0.6502609,1.049105,-0.3196992,0.03936801,0.6594228,-0.03905945,2.19973,-32.89899,33.931901515151516
1,-0.149231,0.01359558,0.9886932,1.0,-0.2031402999999999,0.01399231,0.9790344,-32.72101,4.49263,-26.21394,3.652908,0.571419,0.4200795,1.0,-0.08921814,0.0131072999999999,0.9959106,36.19235,5.227295,-30.79016,3.5692440000000003,0.3893987,0.4179792999999999,-0.6502609,1.049105,-0.3196992,0.03936801,0.6594228,-0.03905945,2.19973,-32.89899,33.931901515151516
1,-0.149231,0.01359558,0.9886932,1.0,-0.2031402999999999,0.01399231,0.9790344,-32.72101,4.49263,-26.21394,3.652908,0.571419,0.4200795,1.0,-0.08921814,0.0131072999999999,0.9959106,36.19235,5.227295,-30.79016,3.5692440000000003,0.3893987,0.4179792999999999,-0.6502609,1.049105,-0.3196992,0.03936801,0.6594228,-0.03905945,2.19973,-32.89899,33.931901515151516
1,-0.149231,0.01359558,0.9886932,1.0,-0.2031402999999999,0.01399231,0.9790344,-32.72101,4.49263,-26.21394,3.652908,0.571419,0.4200795,1.0,-0.08921814,0.0131072999999999,0.9959106,36.19235,5.227295,-30.79016,3.5692440000000003,0.3893987,0.4179792999999999,-0.6503141,1.048699,-0.3207801,0.04008602,0.661956,-0.04120077,2.19973,-32.89899,33.931901515151516
1,-0.149231,0.01359558,0.9886932,1.0,-0.2031402999999999,0.01399231,0.9790344,-32.72101,4.49263,-26.21394,3.652908,0.571419,0.4200795,1.0,-0.08921814,0.0131072999999999,0.9959106,36.19235,5.227295,-30.79016,3.5692440000000003,0.3893987,0.4179792999999999,-0.6503141,1.048699,-0.3207801,0.04008602,0.661956,-0.04120077,2.19973,-32.89899,33.931901515151516
1,-0.149231,0.01359558,0.9886932,1.0,-0.2031402999999999,0.01399231,0.9790344,-32.72101,4.49263,-26.21394,3.652908,0.571419,0.4200795,1.0,-0.08921814,0.0131072999999999,0.9959106,36.19235,5.227295,-30.79016,3.5692440000000003,0.3893987,0.4179792999999999,-0.6503141,1.048699,-0.3207801,0.04008602,0.661956,-0.04120077,2.19973,-32.89899,33.931901515151516
1,-0.1394653,-0.2083435,0.9680481,1.0,-0.2062531,-0.2085114,0.9560089,-32.48038,3.632004,-26.37633,3.488693,0.5636607,0.4766253,1.0,-0.1342621,-0.2082824999999999,0.9687958,35.72429,4.362762,-30.89127,3.545135,0.4104438,0.4764383,-0.6501985,1.04824,-0.3214329,0.04127547,0.6640024999999999,-0.04316925,2.19973,-32.89899,33.931901515151516
1,-0.1394653,-0.2083435,0.9680481,1.0,-0.2062531,-0.2085114,0.9560089,-32.48038,3.632004,-26.37633,3.488693,0.5636607,0.4766253,1.0,-0.1342621,-0.2082824999999999,0.9687958,35.72429,4.362762,-30.89127,3.545135,0.4104438,0.4764383,-0.6501985,1.04824,-0.3214329,0.04127547,0.6640024999999999,-0.04316925,2.19973,-32.89899,33.931901515151516
1,-0.1394653,-0.2083435,0.9680481,1.0,-0.2062531,-0.2085114,0.9560089,-32.48038,3.632004,-26.37633,3.488693,0.5636607,0.4766253,1.0,-0.1342621,-0.2082824999999999,0.9687958,35.72429,4.362762,-30.89127,3.545135,0.4104438,0.4764383,-0.6501985,1.04824,-0.3214329,0.04127547,0.6640024999999999,-0.04316925,2.19973,-32.89899,33.931901515151516
1,-0.1393738,-0.2380676,0.9611816,1.0,-0.2021942,-0.2757416,0.9397125,-32.55965,3.589462,-26.32967,3.52681,0.5658767,0.4859906,1.0,-0.1313324,-0.2331848,0.9635162,35.81143,4.290649,-30.87553,3.552811,0.4070321,0.4819004,-0.6501985,1.04824,-0.3214329,0.04127547,0.6640024999999999,-0.04316925,2.19973,-32.89899,33.931901515151516
1,-0.1393738,-0.2380676,0.9611816,1.0,-0.2021942,-0.2757416,0.9397125,-32.55965,3.589462,-26.32967,3.52681,0.5658767,0.4859906,1.0,-0.1313324,-0.2331848,0.9635162,35.81143,4.290649,-30.87553,3.552811,0.4070321,0.4819004,-0.6501985,1.04824,-0.3214329,0.04127547,0.6640024999999999,-0.04316925,2.19973,-32.89899,33.931901515151516
1,-0.1393738,-0.2380676,0.9611816,1.0,-0.2021942,-0.2757416,0.9397125,-32.55965,3.589462,-26.32967,3.52681,0.5658767,0.4859906,1.0,-0.1313324,-0.2331848,0.9635162,35.81143,4.290649,-30.87553,3.552811,0.4070321,0.4819004,-0.6501985,1.04824,-0.3214329,0.04127547,0.6640024999999999,-0.04316925,2.19973,-32.89899,33.931901515151516
1,-0.134491,-0.2492676,0.9590454,1.0,-0.2098236,-0.282959,0.9358826,-32.59088,3.5961760000000003,-26.32422,3.459335,0.5678248,0.4866824,1.0,-0.1127625,-0.2392882999999999,0.9643707,35.897659999999995,4.302124,-30.84348,3.604965,0.4017655,0.4818422,-0.6500106,1.046973,-0.3231109,0.04390045,0.6686704000000001,-0.04750755,2.19973,-32.89899,33.931901515151516
1,-0.134491,-0.2492676,0.9590454,1.0,-0.2098236,-0.282959,0.9358826,-32.59088,3.5961760000000003,-26.32422,3.459335,0.5678248,0.4866824,1.0,-0.1127625,-0.2392882999999999,0.9643707,35.897659999999995,4.302124,-30.84348,3.604965,0.4017655,0.4818422,-0.6500106,1.046973,-0.3231109,0.04390045,0.6686704000000001,-0.04750755,2.19973,-32.89899,33.931901515151516
1,-0.134491,-0.2492676,0.9590454,1.0,-0.2098236,-0.282959,0.9358826,-32.59088,3.5961760000000003,-26.32422,3.459335,0.5678248,0.4866824,1.0,-0.1127625,-0.2392882999999999,0.9643707,35.897659999999995,4.302124,-30.84348,3.604965,0.4017655,0.4818422,-0.6500106,1.046973,-0.3231109,0.04390045,0.6686704000000001,-0.04750755,2.19973,-32.89899,33.931901515151516
1,-0.1495361,-0.249588,0.9567261,1.0,-0.2071837999999999,-0.2721863,0.9396667,-32.60155,3.598221,-26.32419,3.5196080000000003,0.5678757,0.485245,1.0,-0.1105652,-0.2338715,0.9659576,35.91293,4.302094,-30.83945,3.605484,0.4009833,0.4810978,-0.6500106,1.046973,-0.3231109,0.04390045,0.6686704000000001,-0.04750755,2.19973,-32.89899,33.931901515151516
1,-0.1495361,-0.249588,0.9567261,1.0,-0.2071837999999999,-0.2721863,0.9396667,-32.60155,3.598221,-26.32419,3.5196080000000003,0.5678757,0.485245,1.0,-0.1105652,-0.2338715,0.9659576,35.91293,4.302094,-30.83945,3.605484,0.4009833,0.4810978,-0.6500106,1.046973,-0.3231109,0.04390045,0.6686704000000001,-0.04750755,2.19973,-32.89899,33.931901515151516
1,-0.1495361,-0.249588,0.9567261,1.0,-0.2071837999999999,-0.2721863,0.9396667,-32.60155,3.598221,-26.32419,3.5196080000000003,0.5678757,0.485245,1.0,-0.1105652,-0.2338715,0.9659576,35.91293,4.302094,-30.83945,3.605484,0.4009833,0.4810978,-0.6500106,1.046973,-0.3231109,0.04390045,0.6686704000000001,-0.04750755,2.19973,-32.89899,33.931901515151516
1,-0.1495361,-0.249588,0.9567261,1.0,-0.2071837999999999,-0.2721863,0.9396667,-32.60155,3.598221,-26.32419,3.5196080000000003,0.5678757,0.485245,1.0,-0.1105652,-0.2338715,0.9659576,35.91293,4.302094,-30.83945,3.605484,0.4009833,0.4810978,-0.6488376,1.045806,-0.3252848,0.04607277,0.6743164,-0.05302912,2.19973,-98.80124,33.931901515151516
1,-0.1495361,-0.249588,0.9567261,1.0,-0.2071837999999999,-0.2721863,0.9396667,-32.60155,3.598221,-26.32419,3.5196080000000003,0.5678757,0.485245,1.0,-0.1105652,-0.2338715,0.9659576,35.91293,4.302094,-30.83945,3.605484,0.4009833,0.4810978,-0.6488376,1.045806,-0.3252848,0.04607277,0.6743164,-0.05302912,2.19973,-98.80124,33.931901515151516
1,-0.1495361,-0.249588,0.9567261,1.0,-0.2071837999999999,-0.2721863,0.9396667,-32.60155,3.598221,-26.32419,3.5196080000000003,0.5678757,0.485245,1.0,-0.1105652,-0.2338715,0.9659576,35.91293,4.302094,-30.83945,3.605484,0.4009833,0.4810978,-0.6488376,1.045806,-0.3252848,0.04607277,0.6743164,-0.05302912,2.19973,-98.80124,33.931901515151516
1,-0.1402435,-0.2320709,0.9625244,1.0,-0.1888275,-0.2444762999999999,0.9510803,-32.63773,3.618469,-26.3217,3.619186,0.5669042,0.4809991,1.0,-0.109024,-0.2238159,0.9685059,36.046490000000006,4.316269,-30.81198,3.631805,0.3961915,0.4790282,-0.6482584,1.045074,-0.3265832,0.0475895,0.6772130000000001,-0.05588934,2.19973,-98.80124,33.931901515151516
1,-0.1402435,-0.2320709,0.9625244,1.0,-0.1888275,-0.2444762999999999,0.9510803,-32.63773,3.618469,-26.3217,3.619186,0.5669042,0.4809991,1.0,-0.109024,-0.2238159,0.9685059,36.046490000000006,4.316269,-30.81198,3.631805,0.3961915,0.4790282,-0.6482584,1.045074,-0.3265832,0.0475895,0.6772130000000001,-0.05588934,2.19973,-98.80124,33.931901515151516
1,-0.1402435,-0.2320709,0.9625244,1.0,-0.1888275,-0.2444762999999999,0.9510803,-32.63773,3.618469,-26.3217,3.619186,0.5669042,0.4809991,1.0,-0.109024,-0.2238159,0.9685059,36.046490000000006,4.316269,-30.81198,3.631805,0.3961915,0.4790282,-0.6482584,1.045074,-0.3265832,0.0475895,0.6772130000000001,-0.05588934,2.19973,-98.80124,33.931901515151516
1,-0.1407622999999999,-0.2307587,0.9627686,1.0,-0.1887207,-0.2399902,0.95224,-32.63792,3.61821,-26.32347,3.640396,0.5669042,0.4804715,1.0,-0.1092833999999999,-0.2244415,0.9683228000000002,36.04987,4.313537999999999,-30.81181,3.685822,0.3960216,0.4792054,-0.6473036,1.044592,-0.3279658,0.04813488,0.6800454,-0.05836378,2.19973,-98.80124,33.931901515151516
1,-0.1407622999999999,-0.2307587,0.9627686,1.0,-0.1887207,-0.2399902,0.95224,-32.63792,3.61821,-26.32347,3.640396,0.5669042,0.4804715,1.0,-0.1092833999999999,-0.2244415,0.9683228000000002,36.04987,4.313537999999999,-30.81181,3.685822,0.3960216,0.4792054,-0.6473036,1.044592,-0.3279658,0.04813488,0.6800454,-0.05836378,2.19973,-98.80124,33.931901515151516
1,-0.1407622999999999,-0.2307587,0.9627686,1.0,-0.1887207,-0.2399902,0.95224,-32.63792,3.61821,-26.32347,3.640396,0.5669042,0.4804715,1.0,-0.1092833999999999,-0.2244415,0.9683228000000002,36.04987,4.313537999999999,-30.81181,3.685822,0.3960216,0.4792054,-0.6473036,1.044592,-0.3279658,0.04813488,0.6800454,-0.05836378,2.19973,-98.80124,33.931901515151516
1,-0.1407622999999999,-0.2307587,0.9627686,1.0,-0.1887207,-0.2399902,0.95224,-32.63792,3.61821,-26.32347,3.640396,0.5669042,0.4804715,1.0,-0.1092833999999999,-0.2244415,0.9683228000000002,36.04987,4.313537999999999,-30.81181,3.685822,0.3960216,0.4792054,-0.6462364,1.04408,-0.329372,0.04914964,0.6830194,-0.06151811,2.19973,-98.80124,33.931901515151516
1,-0.1407622999999999,-0.2307587,0.9627686,1.0,-0.1887207,-0.2399902,0.95224,-32.63792,3.61821,-26.32347,3.640396,0.5669042,0.4804715,1.0,-0.1092833999999999,-0.2244415,0.9683228000000002,36.04987,4.313537999999999,-30.81181,3.685822,0.3960216,0.4792054,-0.6462364,1.04408,-0.329372,0.04914964,0.6830194,-0.06151811,2.19973,-98.80124,33.931901515151516
1,-0.1407622999999999,-0.2307587,0.9627686,1.0,-0.1887207,-0.2399902,0.95224,-32.63792,3.61821,-26.32347,3.640396,0.5669042,0.4804715,1.0,-0.1092833999999999,-0.2244415,0.9683228000000002,36.04987,4.313537999999999,-30.81181,3.685822,0.3960216,0.4792054,-0.6462364,1.04408,-0.329372,0.04914964,0.6830194,-0.06151811,2.19973,-98.80124,33.931901515151516
1,-0.1361847,-0.2275391,0.9641876,1.0,-0.1902007999999999,-0.2381439,0.9524231,-32.63727,3.61821,-26.32443,3.643875,0.5670574,0.4802460999999999,1.0,-0.1017303,-0.2204437,0.9700775,36.052890000000005,4.313431,-30.81143,3.680481,0.395025,0.4786429,-0.6452591,1.043264,-0.3309585,0.0497898,0.6864311,-0.06588987,2.19973,-98.80124,33.931901515151516
1,-0.1361847,-0.2275391,0.9641876,1.0,-0.1902007999999999,-0.2381439,0.9524231,-32.63727,3.61821,-26.32443,3.643875,0.5670574,0.4802460999999999,1.0,-0.1017303,-0.2204437,0.9700775,36.052890000000005,4.313431,-30.81143,3.680481,0.395025,0.4786429,-0.6452591,1.043264,-0.3309585,0.0497898,0.6864311,-0.06588987,2.19973,-98.80124,33.931901515151516
1,-0.1361847,-0.2275391,0.9641876,1.0,-0.1902007999999999,-0.2381439,0.9524231,-32.63727,3.61821,-26.32443,3.643875,0.5670574,0.4802460999999999,1.0,-0.1017303,-0.2204437,0.9700775,36.052890000000005,4.313431,-30.81143,3.680481,0.395025,0.4786429,-0.6452591,1.043264,-0.3309585,0.0497898,0.6864311,-0.06588987,2.19973,-98.80124,33.931901515151516
1,-0.1361847,-0.2275391,0.9641876,1.0,-0.1902007999999999,-0.2381439,0.9524231,-32.63727,3.61821,-26.32443,3.643875,0.5670574,0.4802460999999999,1.0,-0.1017303,-0.2204437,0.9700775,36.052890000000005,4.313431,-30.81143,3.680481,0.395025,0.4786429,-0.6463149,1.041026,-0.3333902,0.05061835,0.6897731,-0.07014238,2.19973,-85.49017,33.931901515151516
1,-0.1361847,-0.2275391,0.9641876,1.0,-0.1902007999999999,-0.2381439,0.9524231,-32.63727,3.61821,-26.32443,3.643875,0.5670574,0.4802460999999999,1.0,-0.1017303,-0.2204437,0.9700775,36.052890000000005,4.313431,-30.81143,3.680481,0.395025,0.4786429,-0.6463149,1.041026,-0.3333902,0.05061835,0.6897731,-0.07014238,2.19973,-85.49017,33.931901515151516
1,-0.1361847,-0.2275391,0.9641876,1.0,-0.1902007999999999,-0.2381439,0.9524231,-32.63727,3.61821,-26.32443,3.643875,0.5670574,0.4802460999999999,1.0,-0.1017303,-0.2204437,0.9700775,36.052890000000005,4.313431,-30.81143,3.680481,0.395025,0.4786429,-0.6463149,1.041026,-0.3333902,0.05061835,0.6897731,-0.07014238,2.19973,-85.49017,33.931901515151516
1,-0.1230469,-0.2867584,0.950058,1.0,-0.1791534,-0.2997894,0.9370117,-32.52469,3.351807,-26.36804,3.856613,0.5621035,0.4971322,1.0,-0.09579468,-0.2801055999999999,0.9551697,35.94357,4.127655,-30.84364,3.868881,0.3976289,0.4929409,-0.6453962,1.039647,-0.3353407,0.052943,0.6933419,-0.07462267,2.19973,74.51186,33.931901515151516
1,-0.1230469,-0.2867584,0.950058,1.0,-0.1791534,-0.2997894,0.9370117,-32.52469,3.351807,-26.36804,3.856613,0.5621035,0.4971322,1.0,-0.09579468,-0.2801055999999999,0.9551697,35.94357,4.127655,-30.84364,3.868881,0.3976289,0.4929409,-0.6453962,1.039647,-0.3353407,0.052943,0.6933419,-0.07462267,2.19973,74.51186,33.931901515151516
1,-0.1230469,-0.2867584,0.950058,1.0,-0.1791534,-0.2997894,0.9370117,-32.52469,3.351807,-26.36804,3.856613,0.5621035,0.4971322,1.0,-0.09579468,-0.2801055999999999,0.9551697,35.94357,4.127655,-30.84364,3.868881,0.3976289,0.4929409,-0.6453962,1.039647,-0.3353407,0.052943,0.6933419,-0.07462267,2.19973,74.51186,33.931901515151516
1,-0.1031493999999999,-0.2763214,0.9555054,1.0,-0.1735535,-0.3077698,0.9354858,-32.5336,3.3564300000000005,-26.36838,3.773209,0.5617058000000001,0.4979654,1.0,-0.06784058,-0.2599945,0.9632111,36.05472,4.079865,-30.816640000000003,4.043411,0.3902308,0.4915412,-0.6443431,1.038315,-0.3372465,0.05483539,0.6969022,-0.07961465,2.19973,74.51186,33.931901515151516
1,-0.1031493999999999,-0.2763214,0.9555054,1.0,-0.1735535,-0.3077698,0.9354858,-32.5336,3.3564300000000005,-26.36838,3.773209,0.5617058000000001,0.4979654,1.0,-0.06784058,-0.2599945,0.9632111,36.05472,4.079865,-30.816640000000003,4.043411,0.3902308,0.4915412,-0.6443431,1.038315,-0.3372465,0.05483539,0.6969022,-0.07961465,2.19973,74.51186,33.931901515151516
1,-0.1031493999999999,-0.2763214,0.9555054,1.0,-0.1735535,-0.3077698,0.9354858,-32.5336,3.3564300000000005,-26.36838,3.773209,0.5617058000000001,0.4979654,1.0,-0.06784058,-0.2599945,0.9632111,36.05472,4.079865,-30.816640000000003,4.043411,0.3902308,0.4915412,-0.6443431,1.038315,-0.3372465,0.05483539,0.6969022,-0.07961465,2.19973,74.51186,33.931901515151516
1,-0.1031493999999999,-0.2763214,0.9555054,1.0,-0.1735535,-0.3077698,0.9354858,-32.5336,3.3564300000000005,-26.36838,3.773209,0.5617058000000001,0.4979654,1.0,-0.06784058,-0.2599945,0.9632111,36.05472,4.079865,-30.816640000000003,4.043411,0.3902308,0.4915412,-0.6432989,1.036912,-0.3389997,0.05696258,0.7001128000000001,-0.08473593,2.19973,74.51186,33.931901515151516
1,-0.1031493999999999,-0.2763214,0.9555054,1.0,-0.1735535,-0.3077698,0.9354858,-32.5336,3.3564300000000005,-26.36838,3.773209,0.5617058000000001,0.4979654,1.0,-0.06784058,-0.2599945,0.9632111,36.05472,4.079865,-30.816640000000003,4.043411,0.3902308,0.4915412,-0.6432989,1.036912,-0.3389997,0.05696258,0.7001128000000001,-0.08473593,2.19973,74.51186,33.931901515151516
1,-0.1031493999999999,-0.2763214,0.9555054,1.0,-0.1735535,-0.3077698,0.9354858,-32.5336,3.3564300000000005,-26.36838,3.773209,0.5617058000000001,0.4979654,1.0,-0.06784058,-0.2599945,0.9632111,36.05472,4.079865,-30.816640000000003,4.043411,0.3902308,0.4915412,-0.6432989,1.036912,-0.3389997,0.05696258,0.7001128000000001,-0.08473593,2.19973,74.51186,33.931901515151516
1,-0.0814208999999999,-0.2471007999999999,0.9655609,1.0,-0.1483154,-0.2534637,0.9559021,-32.43529,3.494965,-26.321590000000004,4.099518,0.5555154999999999,0.4860431999999999,1.0,-0.03778076,-0.2423553,0.9694366,36.274640000000005,4.178375,-30.73933,4.057297,0.3791441,0.4849944,-0.6423814,1.035618,-0.3408092,0.05894524,0.7028983,-0.08862855,2.19973,74.51186,33.931901515151516
1,-0.0814208999999999,-0.2471007999999999,0.9655609,1.0,-0.1483154,-0.2534637,0.9559021,-32.43529,3.494965,-26.321590000000004,4.099518,0.5555154999999999,0.4860431999999999,1.0,-0.03778076,-0.2423553,0.9694366,36.274640000000005,4.178375,-30.73933,4.057297,0.3791441,0.4849944,-0.6423814,1.035618,-0.3408092,0.05894524,0.7028983,-0.08862855,2.19973,74.51186,33.931901515151516
1,-0.0814208999999999,-0.2471007999999999,0.9655609,1.0,-0.1483154,-0.2534637,0.9559021,-32.43529,3.494965,-26.321590000000004,4.099518,0.5555154999999999,0.4860431999999999,1.0,-0.03778076,-0.2423553,0.9694366,36.274640000000005,4.178375,-30.73933,4.057297,0.3791441,0.4849944,-0.6423814,1.035618,-0.3408092,0.05894524,0.7028983,-0.08862855,2.19973,74.51186,33.931901515151516
1,-0.08111572,-0.2497406,0.9649048,1.0,-0.1484984999999999,-0.2598724,0.9541473,-32.43208,3.504303,-26.31844,4.090561,0.5554286,0.486488,1.0,-0.03570557,-0.2422638,0.9695435,36.28293,4.200317,-30.72681,4.086716,0.3785906,0.4841116,-0.6410939999999999,1.034383,-0.3424979,0.06075276,0.7050149,-0.09226352,2.19973,32.46426,33.931901515151516
1,-0.08111572,-0.2497406,0.9649048,1.0,-0.1484984999999999,-0.2598724,0.9541473,-32.43208,3.504303,-26.31844,4.090561,0.5554286,0.486488,1.0,-0.03570557,-0.2422638,0.9695435,36.28293,4.200317,-30.72681,4.086716,0.3785906,0.4841116,-0.6410939999999999,1.034383,-0.3424979,0.06075276,0.7050149,-0.09226352,2.19973,32.46426,33.931901515151516
1,-0.08111572,-0.2497406,0.9649048,1.0,-0.1484984999999999,-0.2598724,0.9541473,-32.43208,3.504303,-26.31844,4.090561,0.5554286,0.486488,1.0,-0.03570557,-0.2422638,0.9695435,36.28293,4.200317,-30.72681,4.086716,0.3785906,0.4841116,-0.6410939999999999,1.034383,-0.3424979,0.06075276,0.7050149,-0.09226352,2.19973,32.46426,33.931901515151516
1,-0.07713318,-0.2282715,0.97052,1.0,-0.1500092,-0.2512207,0.9562225,-32.406620000000004,3.5486150000000003,-26.30397,4.10231,0.5547455,0.4838270999999999,1.0,-0.03097534,-0.2131042,0.976532,36.35741,4.205154,-30.69191,4.177078,0.3754078,0.4799348,-0.6399696,1.033043,-0.343909,0.06264532,0.7071884,-0.09726894,2.19973,32.46426,33.931901515151516
1,-0.07713318,-0.2282715,0.97052,1.0,-0.1500092,-0.2512207,0.9562225,-32.406620000000004,3.5486150000000003,-26.30397,4.10231,0.5547455,0.4838270999999999,1.0,-0.03097534,-0.2131042,0.976532,36.35741,4.205154,-30.69191,4.177078,0.3754078,0.4799348,-0.6399696,1.033043,-0.343909,0.06264532,0.7071884,-0.09726894,2.19973,32.46426,33.931901515151516
1,-0.07713318,-0.2282715,0.97052,1.0,-0.1500092,-0.2512207,0.9562225,-32.406620000000004,3.5486150000000003,-26.30397,4.10231,0.5547455,0.4838270999999999,1.0,-0.03097534,-0.2131042,0.976532,36.35741,4.205154,-30.69191,4.177078,0.3754078,0.4799348,-0.6399696,1.033043,-0.343909,0.06264532,0.7071884,-0.09726894,2.19973,32.46426,33.931901515151516
1,-0.07713318,-0.2282715,0.97052,1.0,-0.1500092,-0.2512207,0.9562225,-32.406620000000004,3.5486150000000003,-26.30397,4.10231,0.5547455,0.4838270999999999,1.0,-0.03097534,-0.2131042,0.976532,36.35741,4.205154,-30.69191,4.177078,0.3754078,0.4799348,-0.6387415,1.031864,-0.3453502999999999,0.06448121,0.7088267,-0.1019845,2.19973,32.46426,33.931901515151516
1,-0.07713318,-0.2282715,0.97052,1.0,-0.1500092,-0.2512207,0.9562225,-32.406620000000004,3.5486150000000003,-26.30397,4.10231,0.5547455,0.4838270999999999,1.0,-0.03097534,-0.2131042,0.976532,36.35741,4.205154,-30.69191,4.177078,0.3754078,0.4799348,-0.6387415,1.031864,-0.3453502999999999,0.06448121,0.7088267,-0.1019845,2.19973,32.46426,33.931901515151516
1,-0.07713318,-0.2282715,0.97052,1.0,-0.1500092,-0.2512207,0.9562225,-32.406620000000004,3.5486150000000003,-26.30397,4.10231,0.5547455,0.4838270999999999,1.0,-0.03097534,-0.2131042,0.976532,36.35741,4.205154,-30.69191,4.177078,0.3754078,0.4799348,-0.6387415,1.031864,-0.3453502999999999,0.06448121,0.7088267,-0.1019845,2.19973,32.46426,33.931901515151516
1,-0.09559631,-0.2133788999999999,0.9722748,1.0,-0.128479,-0.2239837999999999,0.9660797,-32.27245,3.622559,-26.283690000000004,4.159286,0.5477218,0.4777805999999999,1.0,-0.006347656,-0.1834564,0.9830017,36.48059,4.180786,-30.47351,4.326233,0.368307,0.4750903,-0.6359649,1.028621,-0.3479417999999999,0.06924599,0.7115411,-0.1125186999999999,2.19973,32.46426,33.931901515151516
1,-0.09559631,-0.2133788999999999,0.9722748,1.0,-0.128479,-0.2239837999999999,0.9660797,-32.27245,3.622559,-26.283690000000004,4.159286,0.5477218,0.4777805999999999,1.0,-0.006347656,-0.1834564,0.9830017,36.48059,4.180786,-30.47351,4.326233,0.368307,0.4750903,-0.6359649,1.028621,-0.3479417999999999,0.06924599,0.7115411,-0.1125186999999999,2.19973,32.46426,33.931901515151516
1,-0.09559631,-0.2133788999999999,0.9722748,1.0,-0.128479,-0.2239837999999999,0.9660797,-32.27245,3.622559,-26.283690000000004,4.159286,0.5477218,0.4777805999999999,1.0,-0.006347656,-0.1834564,0.9830017,36.48059,4.180786,-30.47351,4.326233,0.368307,0.4750903,-0.6359649,1.028621,-0.3479417999999999,0.06924599,0.7115411,-0.1125186999999999,2.19973,32.46426,33.931901515151516
2,-0.1090546,-0.2177887,0.9698792,1.0,-0.1240845,-0.2229004,0.9669037,-32.25456,3.626678,-26.283140000000003,4.146362,0.5465984,0.4774843,1.0,-0.01448059,-0.1846313,0.9826965,36.53677,4.178558,-30.20641,4.2342830000000005,0.3677964,0.4730234,-0.6343171999999999,1.026751,-0.3490188,0.07173551,0.7126275,-0.1182772,2.19973,32.46426,33.931901515151516
2,-0.1090546,-0.2177887,0.9698792,1.0,-0.1240845,-0.2229004,0.9669037,-32.25456,3.626678,-26.283140000000003,4.146362,0.5465984,0.4774843,1.0,-0.01448059,-0.1846313,0.9826965,36.53677,4.178558,-30.20641,4.2342830000000005,0.3677964,0.4730234,-0.6343171999999999,1.026751,-0.3490188,0.07173551,0.7126275,-0.1182772,2.19973,32.46426,33.931901515151516
2,-0.1090546,-0.2177887,0.9698792,1.0,-0.1240845,-0.2229004,0.9669037,-32.25456,3.626678,-26.283140000000003,4.146362,0.5465984,0.4774843,1.0,-0.01448059,-0.1846313,0.9826965,36.53677,4.178558,-30.20641,4.2342830000000005,0.3677964,0.4730234,-0.6343171999999999,1.026751,-0.3490188,0.07173551,0.7126275,-0.1182772,2.19973,32.46426,33.931901515151516
2,-0.1119994999999999,-0.2132262999999999,0.9705505,1.0,-0.124649,-0.2166594999999999,0.9682465,-32.23613,3.649429,-26.28009,4.131943,0.546035,0.4759398,1.0,-0.00604248,-0.1831055,0.9830627,36.55896,4.156998000000001,-30.09435,4.295685,0.3660864,0.4725957999999999,-0.6327958,1.02428,-0.3500630999999999,0.07650547,0.7132621,-0.1255773999999999,2.19973,-38.99348,33.931901515151516
2,-0.1119994999999999,-0.2132262999999999,0.9705505,1.0,-0.124649,-0.2166594999999999,0.9682465,-32.23613,3.649429,-26.28009,4.131943,0.546035,0.4759398,1.0,-0.00604248,-0.1831055,0.9830627,36.55896,4.156998000000001,-30.09435,4.295685,0.3660864,0.4725957999999999,-0.6327958,1.02428,-0.3500630999999999,0.07650547,0.7132621,-0.1255773999999999,2.19973,-38.99348,33.931901515151516
2,-0.1119994999999999,-0.2132262999999999,0.9705505,1.0,-0.124649,-0.2166594999999999,0.9682465,-32.23613,3.649429,-26.28009,4.131943,0.546035,0.4759398,1.0,-0.00604248,-0.1831055,0.9830627,36.55896,4.156998000000001,-30.09435,4.295685,0.3660864,0.4725957999999999,-0.6327958,1.02428,-0.3500630999999999,0.07650547,0.7132621,-0.1255773999999999,2.19973,-38.99348,33.931901515151516
2,-0.120163,-0.2036591,0.9716339,1.0,-0.1201935,-0.2036743,0.9716187,-32.23296,3.668045,-26.28223,4.148727,0.5454183000000001,0.4737649999999999,1.0,-0.002151489,-0.1724701,0.9850006,36.63667,3.949448,-29.30046,4.352051,0.3638810999999999,0.4716437,-0.6312146,1.021634,-0.3510301,0.08103805,0.7136376999999999,-0.1342702,2.183071,-38.99348,33.931901515151516
2,-0.120163,-0.2036591,0.9716339,1.0,-0.1201935,-0.2036743,0.9716187,-32.23296,3.668045,-26.28223,4.148727,0.5454183000000001,0.4737649999999999,1.0,-0.002151489,-0.1724701,0.9850006,36.63667,3.949448,-29.30046,4.352051,0.3638810999999999,0.4716437,-0.6312146,1.021634,-0.3510301,0.08103805,0.7136376999999999,-0.1342702,2.183071,-38.99348,33.931901515151516
2,-0.120163,-0.2036591,0.9716339,1.0,-0.1201935,-0.2036743,0.9716187,-32.23296,3.668045,-26.28223,4.148727,0.5454183000000001,0.4737649999999999,1.0,-0.002151489,-0.1724701,0.9850006,36.63667,3.949448,-29.30046,4.352051,0.3638810999999999,0.4716437,-0.6312146,1.021634,-0.3510301,0.08103805,0.7136376999999999,-0.1342702,2.183071,-38.99348,33.931901515151516
2,-0.120163,-0.2036591,0.9716339,1.0,-0.1201935,-0.2036743,0.9716187,-32.23296,3.668045,-26.28223,4.148727,0.5454183000000001,0.4737649999999999,1.0,-0.002151489,-0.1724701,0.9850006,36.63667,3.949448,-29.30046,4.352051,0.3638810999999999,0.4716437,-0.6294335999999999,1.018448,-0.3520660999999999,0.08669111,0.7138331,-0.143353,2.183071,-38.99348,33.931901515151516
2,-0.120163,-0.2036591,0.9716339,1.0,-0.1201935,-0.2036743,0.9716187,-32.23296,3.668045,-26.28223,4.148727,0.5454183000000001,0.4737649999999999,1.0,-0.002151489,-0.1724701,0.9850006,36.63667,3.949448,-29.30046,4.352051,0.3638810999999999,0.4716437,-0.6294335999999999,1.018448,-0.3520660999999999,0.08669111,0.7138331,-0.143353,2.183071,-38.99348,33.931901515151516
2,-0.120163,-0.2036591,0.9716339,1.0,-0.1201935,-0.2036743,0.9716187,-32.23296,3.668045,-26.28223,4.148727,0.5454183000000001,0.4737649999999999,1.0,-0.002151489,-0.1724701,0.9850006,36.63667,3.949448,-29.30046,4.352051,0.3638810999999999,0.4716437,-0.6294335999999999,1.018448,-0.3520660999999999,0.08669111,0.7138331,-0.143353,2.183071,-38.99348,33.931901515151516
2,-0.108429,-0.4910430999999999,0.8643494,0.5641074,-0.1084442,-0.4910582999999999,0.8643341,-31.88678,3.043015,-26.4579,3.765732,0.5323453,0.5327151,0.9695722,0.003753662,-0.3847198,0.9230194,36.3634,3.608826,-30.43036,4.206176999999999,0.3707639,0.5199696,-0.6278130999999999,1.014829,-0.3529640999999999,0.09361997,0.7140042,-0.154047,2.183071,-38.99348,33.931901515151516
2,-0.108429,-0.4910430999999999,0.8643494,0.5641074,-0.1084442,-0.4910582999999999,0.8643341,-31.88678,3.043015,-26.4579,3.765732,0.5323453,0.5327151,0.9695722,0.003753662,-0.3847198,0.9230194,36.3634,3.608826,-30.43036,4.206176999999999,0.3707639,0.5199696,-0.6278130999999999,1.014829,-0.3529640999999999,0.09361997,0.7140042,-0.154047,2.183071,-38.99348,33.931901515151516
2,-0.108429,-0.4910430999999999,0.8643494,0.5641074,-0.1084442,-0.4910582999999999,0.8643341,-31.88678,3.043015,-26.4579,3.765732,0.5323453,0.5327151,0.9695722,0.003753662,-0.3847198,0.9230194,36.3634,3.608826,-30.43036,4.206176999999999,0.3707639,0.5199696,-0.6278130999999999,1.014829,-0.3529640999999999,0.09361997,0.7140042,-0.154047,2.183071,-38.99348,33.931901515151516
2,-0.1057739,-0.4544372999999999,0.8844603999999999,0.5347479,-0.1057739,-0.4544372999999999,0.8844603999999999,-31.8884,3.056213,-26.44684,3.928223000000001,0.5321355999999999,0.5271372,0.9511481,-0.01426697,-0.3850708,0.92276,36.45525,3.674133,-30.40511,4.119324,0.3699119999999999,0.5176247,-0.6259177,1.011031,-0.3540667,0.09975759,0.7139484,-0.1635527,2.183071,-38.99348,33.931901515151516
2,-0.1057739,-0.4544372999999999,0.8844603999999999,0.5347479,-0.1057739,-0.4544372999999999,0.8844603999999999,-31.8884,3.056213,-26.44684,3.928223000000001,0.5321355999999999,0.5271372,0.9511481,-0.01426697,-0.3850708,0.92276,36.45525,3.674133,-30.40511,4.119324,0.3699119999999999,0.5176247,-0.6259177,1.011031,-0.3540667,0.09975759,0.7139484,-0.1635527,2.183071,-38.99348,33.931901515151516
2,-0.1057739,-0.4544372999999999,0.8844603999999999,0.5347479,-0.1057739,-0.4544372999999999,0.8844603999999999,-31.8884,3.056213,-26.44684,3.928223000000001,0.5321355999999999,0.5271372,0.9511481,-0.01426697,-0.3850708,0.92276,36.45525,3.674133,-30.40511,4.119324,0.3699119999999999,0.5176247,-0.6259177,1.011031,-0.3540667,0.09975759,0.7139484,-0.1635527,2.183071,-38.99348,33.931901515151516
2,-0.04486084,-0.4089508,0.911438,0.6510684,-0.1009827,-0.4681702,0.8778381,-31.91426,3.097977,-26.43436,3.762192,0.5323453,0.5275465,0.9242924,-0.02220154,-0.3842468,0.9229431,36.49025,3.749985,-30.37827,3.965256,0.3699215,0.5147550999999999,-0.6239834,1.007686,-0.3550517,0.1072331999999999,0.7138547,-0.1732365,2.183071,-124.6362,33.931901515151516
2,-0.04486084,-0.4089508,0.911438,0.6510684,-0.1009827,-0.4681702,0.8778381,-31.91426,3.097977,-26.43436,3.762192,0.5323453,0.5275465,0.9242924,-0.02220154,-0.3842468,0.9229431,36.49025,3.749985,-30.37827,3.965256,0.3699215,0.5147550999999999,-0.6239834,1.007686,-0.3550517,0.1072331999999999,0.7138547,-0.1732365,2.183071,-124.6362,33.931901515151516
2,-0.04486084,-0.4089508,0.911438,0.6510684,-0.1009827,-0.4681702,0.8778381,-31.91426,3.097977,-26.43436,3.762192,0.5323453,0.5275465,0.9242924,-0.02220154,-0.3842468,0.9229431,36.49025,3.749985,-30.37827,3.965256,0.3699215,0.5147550999999999,-0.6239834,1.007686,-0.3550517,0.1072331999999999,0.7138547,-0.1732365,2.183071,-124.6362,33.931901515151516
2,0.008728027,-0.3279724,0.9446411,0.6724136,-0.0697937,-0.4167479999999999,0.9063263,-31.95242,3.238892,-26.38434,3.93074,0.5300018,0.515414,0.9095722,0.03941345,-0.2918396,0.9556427,36.53831,3.820313,-30.315690000000004,4.493484,0.3605390999999999,0.4994649999999999,-0.6219880999999999,1.004784,-0.3560715,0.1123688999999999,0.7139472,-0.1802999,2.183071,-124.6362,33.931901515151516
2,0.008728027,-0.3279724,0.9446411,0.6724136,-0.0697937,-0.4167479999999999,0.9063263,-31.95242,3.238892,-26.38434,3.93074,0.5300018,0.515414,0.9095722,0.03941345,-0.2918396,0.9556427,36.53831,3.820313,-30.315690000000004,4.493484,0.3605390999999999,0.4994649999999999,-0.6219880999999999,1.004784,-0.3560715,0.1123688999999999,0.7139472,-0.1802999,2.183071,-124.6362,33.931901515151516
2,0.008728027,-0.3279724,0.9446411,0.6724136,-0.0697937,-0.4167479999999999,0.9063263,-31.95242,3.238892,-26.38434,3.93074,0.5300018,0.515414,0.9095722,0.03941345,-0.2918396,0.9556427,36.53831,3.820313,-30.315690000000004,4.493484,0.3605390999999999,0.4994649999999999,-0.6219880999999999,1.004784,-0.3560715,0.1123688999999999,0.7139472,-0.1802999,2.183071,-124.6362,33.931901515151516
2,-0.03042603,-0.2942505,0.9552307,0.7178671,-0.08036804,-0.3122864,0.9465637,-31.96262,3.33165,-26.34853,4.267639,0.5317838,0.4986822,0.9352132,0.005249023,-0.2808685,0.9597168,36.62,3.894882,-30.28813,4.266280999999999,0.362159,0.4953605,-0.6200094,1.001844,-0.3569579,0.1172787,0.7138302,-0.1868452,2.183071,-124.6362,33.931901515151516
2,-0.03042603,-0.2942505,0.9552307,0.7178671,-0.08036804,-0.3122864,0.9465637,-31.96262,3.33165,-26.34853,4.267639,0.5317838,0.4986822,0.9352132,0.005249023,-0.2808685,0.9597168,36.62,3.894882,-30.28813,4.266280999999999,0.362159,0.4953605,-0.6200094,1.001844,-0.3569579,0.1172787,0.7138302,-0.1868452,2.183071,-124.6362,33.931901515151516
2,-0.03042603,-0.2942505,0.9552307,0.7178671,-0.08036804,-0.3122864,0.9465637,-31.96262,3.33165,-26.34853,4.267639,0.5317838,0.4986822,0.9352132,0.005249023,-0.2808685,0.9597168,36.62,3.894882,-30.28813,4.266280999999999,0.362159,0.4953605,-0.6200094,1.001844,-0.3569579,0.1172787,0.7138302,-0.1868452,2.183071,-124.6362,33.931901515151516
2,-0.02426147,-0.2962341,0.9548035,0.6613166,-0.08248901,-0.3164215,0.9450226,-31.95952,3.332214,-26.34805,4.261185,0.5319210999999999,0.4991802999999999,0.952341,0.01481628,-0.2820587,0.9592743,36.62366,3.89212,-30.29141,4.179214,0.3609914,0.4955984,-0.6181821999999999,0.9994917,-0.3577585,0.1216974999999999,0.7139128,-0.1927598,2.183071,-124.6362,33.931901515151516
2,-0.02426147,-0.2962341,0.9548035,0.6613166,-0.08248901,-0.3164215,0.9450226,-31.95952,3.332214,-26.34805,4.261185,0.5319210999999999,0.4991802999999999,0.952341,0.01481628,-0.2820587,0.9592743,36.62366,3.89212,-30.29141,4.179214,0.3609914,0.4955984,-0.6181821999999999,0.9994917,-0.3577585,0.1216974999999999,0.7139128,-0.1927598,2.183071,-124.6362,33.931901515151516
2,-0.02426147,-0.2962341,0.9548035,0.6613166,-0.08248901,-0.3164215,0.9450226,-31.95952,3.332214,-26.34805,4.261185,0.5319210999999999,0.4991802999999999,0.952341,0.01481628,-0.2820587,0.9592743,36.62366,3.89212,-30.29141,4.179214,0.3609914,0.4955984,-0.6181821999999999,0.9994917,-0.3577585,0.1216974999999999,0.7139128,-0.1927598,2.183071,-124.6362,33.931901515151516
2,-0.04199219,-0.2774963,0.9597931,0.7903996,-0.08415222,-0.2285614,0.9698792,-31.92598,3.431198,-26.3371,4.383698000000001,0.5310673,0.4850483,0.9430227,-0.00213623,-0.322464,0.9465637,36.80901,4.170502,-30.11852,4.427139,0.3564902,0.4896702999999999,-0.6163441999999999,0.9970524,-0.35864,0.1255198,0.7139036,-0.1977217999999999,2.183071,-124.6362,33.931901515151516
2,-0.04199219,-0.2774963,0.9597931,0.7903996,-0.08415222,-0.2285614,0.9698792,-31.92598,3.431198,-26.3371,4.383698000000001,0.5310673,0.4850483,0.9430227,-0.00213623,-0.322464,0.9465637,36.80901,4.170502,-30.11852,4.427139,0.3564902,0.4896702999999999,-0.6163441999999999,0.9970524,-0.35864,0.1255198,0.7139036,-0.1977217999999999,2.183071,-124.6362,33.931901515151516
2,-0.04199219,-0.2774963,0.9597931,0.7903996,-0.08415222,-0.2285614,0.9698792,-31.92598,3.431198,-26.3371,4.383698000000001,0.5310673,0.4850483,0.9430227,-0.00213623,-0.322464,0.9465637,36.80901,4.170502,-30.11852,4.427139,0.3564902,0.4896702999999999,-0.6163441999999999,0.9970524,-0.35864,0.1255198,0.7139036,-0.1977217999999999,2.183071,-124.6362,33.931901515151516
2,-0.05047607,-0.2314911,0.9715118,0.8287919,-0.09829712,-0.2165527,0.9712982,-31.88686,3.37532,-26.35957,4.38736,0.5313923,0.4856949,0.9086381,0.009429932,-0.2493286,0.9683685,36.70369,3.950455,-30.24721,4.323348999999999,0.3588179,0.4890715999999999,-0.6149974,0.9950092,-0.3595203,0.1301255,0.7139166,-0.2032187999999999,2.183071,88.6591,33.931901515151516
2,-0.05047607,-0.2314911,0.9715118,0.8287919,-0.09829712,-0.2165527,0.9712982,-31.88686,3.37532,-26.35957,4.38736,0.5313923,0.4856949,0.9086381,0.009429932,-0.2493286,0.9683685,36.70369,3.950455,-30.24721,4.323348999999999,0.3588179,0.4890715999999999,-0.6149974,0.9950092,-0.3595203,0.1301255,0.7139166,-0.2032187999999999,2.183071,88.6591,33.931901515151516
2,-0.05047607,-0.2314911,0.9715118,0.8287919,-0.09829712,-0.2165527,0.9712982,-31.88686,3.37532,-26.35957,4.38736,0.5313923,0.4856949,0.9086381,0.009429932,-0.2493286,0.9683685,36.70369,3.950455,-30.24721,4.323348999999999,0.3588179,0.4890715999999999,-0.6149974,0.9950092,-0.3595203,0.1301255,0.7139166,-0.2032187999999999,2.183071,88.6591,33.931901515151516
2,-0.03779602,-0.2192382999999999,0.9749298,0.8089194000000001,-0.09155273,-0.2117003999999999,0.9730225,-31.88858,3.467407,-26.40793,4.56311,0.5308231,0.4824670999999999,0.933008,0.01643372,-0.2261658,0.973938,36.73508,3.985031,-30.21072,4.483124,0.3567832,0.484666,-0.6133804,0.9936949,-0.3603986,0.1318585,0.7146,-0.2072332,2.183071,88.6591,33.931901515151516
2,-0.03779602,-0.2192382999999999,0.9749298,0.8089194000000001,-0.09155273,-0.2117003999999999,0.9730225,-31.88858,3.467407,-26.40793,4.56311,0.5308231,0.4824670999999999,0.933008,0.01643372,-0.2261658,0.973938,36.73508,3.985031,-30.21072,4.483124,0.3567832,0.484666,-0.6133804,0.9936949,-0.3603986,0.1318585,0.7146,-0.2072332,2.183071,88.6591,33.931901515151516
2,-0.03779602,-0.2192382999999999,0.9749298,0.8089194000000001,-0.09155273,-0.2117003999999999,0.9730225,-31.88858,3.467407,-26.40793,4.56311,0.5308231,0.4824670999999999,0.933008,0.01643372,-0.2261658,0.973938,36.73508,3.985031,-30.21072,4.483124,0.3567832,0.484666,-0.6133804,0.9936949,-0.3603986,0.1318585,0.7146,-0.2072332,2.183071,88.6591,33.931901515151516
2,0.01625061,-0.2044525,0.9787292,0.8016071,-0.08114624,-0.19487,0.9774628,-31.86256,3.578033,-26.6217,4.482895,0.5288177,0.4785293,0.9637471,0.02815247,-0.2054900999999999,0.978241,36.76285,4.022507,-30.15572,4.551773000000001,0.3544575,0.480305,-0.6122072,0.9926084,-0.3612558,0.1333202,0.7152562,-0.2099101,2.183071,88.6591,33.931901515151516
2,0.01625061,-0.2044525,0.9787292,0.8016071,-0.08114624,-0.19487,0.9774628,-31.86256,3.578033,-26.6217,4.482895,0.5288177,0.4785293,0.9637471,0.02815247,-0.2054900999999999,0.978241,36.76285,4.022507,-30.15572,4.551773000000001,0.3544575,0.480305,-0.6122072,0.9926084,-0.3612558,0.1333202,0.7152562,-0.2099101,2.183071,88.6591,33.931901515151516
2,0.01625061,-0.2044525,0.9787292,0.8016071,-0.08114624,-0.19487,0.9774628,-31.86256,3.578033,-26.6217,4.482895,0.5288177,0.4785293,0.9637471,0.02815247,-0.2054900999999999,0.978241,36.76285,4.022507,-30.15572,4.551773000000001,0.3544575,0.480305,-0.6122072,0.9926084,-0.3612558,0.1333202,0.7152562,-0.2099101,2.183071,88.6591,33.931901515151516
2,0.01622009,-0.1978607,0.9800873,0.7946572,-0.07952881,-0.1914825,0.9782562,-31.85953,3.581085,-26.68158,4.493713,0.528567,0.4785292,0.9204391,0.04272461,-0.1993103,0.9789886,36.76808,4.020096,-30.13284,4.583771,0.3525450999999999,0.4793975,-0.6112223000000001,0.9923015,-0.3620012,0.1337025,0.7157408000000001,-0.2101453,2.183071,88.6591,33.931901515151516
2,0.01622009,-0.1978607,0.9800873,0.7946572,-0.07952881,-0.1914825,0.9782562,-31.85953,3.581085,-26.68158,4.493713,0.528567,0.4785292,0.9204391,0.04272461,-0.1993103,0.9789886,36.76808,4.020096,-30.13284,4.583771,0.3525450999999999,0.4793975,-0.6112223000000001,0.9923015,-0.3620012,0.1337025,0.7157408000000001,-0.2101453,2.183071,88.6591,33.931901515151516
2,0.01622009,-0.1978607,0.9800873,0.7946572,-0.07952881,-0.1914825,0.9782562,-31.85953,3.581085,-26.68158,4.493713,0.528567,0.4785292,0.9204391,0.04272461,-0.1993103,0.9789886,36.76808,4.020096,-30.13284,4.583771,0.3525450999999999,0.4793975,-0.6112223000000001,0.9923015,-0.3620012,0.1337025,0.7157408000000001,-0.2101453,2.183071,88.6591,33.931901515151516
2,0.01622009,-0.1978607,0.9800873,0.7946572,-0.07952881,-0.1914825,0.9782562,-31.85953,3.581085,-26.68158,4.493713,0.528567,0.4785292,0.9204391,0.04272461,-0.1993103,0.9789886,36.76808,4.020096,-30.13284,4.583771,0.3525450999999999,0.4793975,-0.6106143,0.9923123,-0.3625705999999999,0.1335431,0.7160025999999999,-0.2093876999999999,2.183071,50.54276,33.931901515151516
2,0.01622009,-0.1978607,0.9800873,0.7946572,-0.07952881,-0.1914825,0.9782562,-31.85953,3.581085,-26.68158,4.493713,0.528567,0.4785292,0.9204391,0.04272461,-0.1993103,0.9789886,36.76808,4.020096,-30.13284,4.583771,0.3525450999999999,0.4793975,-0.6106143,0.9923123,-0.3625705999999999,0.1335431,0.7160025999999999,-0.2093876999999999,2.183071,50.54276,33.931901515151516
2,0.01622009,-0.1978607,0.9800873,0.7946572,-0.07952881,-0.1914825,0.9782562,-31.85953,3.581085,-26.68158,4.493713,0.528567,0.4785292,0.9204391,0.04272461,-0.1993103,0.9789886,36.76808,4.020096,-30.13284,4.583771,0.3525450999999999,0.4793975,-0.6106143,0.9923123,-0.3625705999999999,0.1335431,0.7160025999999999,-0.2093876999999999,2.183071,50.54276,33.931901515151516
2,0.01622009,-0.1978607,0.9800873,0.7946572,-0.07952881,-0.1914825,0.9782562,-31.85953,3.581085,-26.68158,4.493713,0.528567,0.4785292,0.9204391,0.04272461,-0.1993103,0.9789886,36.76808,4.020096,-30.13284,4.583771,0.3525450999999999,0.4793975,-0.610409,0.9926406,-0.3629055999999999,0.1325933,0.7163579999999999,-0.2089077,2.183071,50.54276,33.931901515151516
2,0.01622009,-0.1978607,0.9800873,0.7946572,-0.07952881,-0.1914825,0.9782562,-31.85953,3.581085,-26.68158,4.493713,0.528567,0.4785292,0.9204391,0.04272461,-0.1993103,0.9789886,36.76808,4.020096,-30.13284,4.583771,0.3525450999999999,0.4793975,-0.610409,0.9926406,-0.3629055999999999,0.1325933,0.7163579999999999,-0.2089077,2.183071,50.54276,33.931901515151516
2,0.01622009,-0.1978607,0.9800873,0.7946572,-0.07952881,-0.1914825,0.9782562,-31.85953,3.581085,-26.68158,4.493713,0.528567,0.4785292,0.9204391,0.04272461,-0.1993103,0.9789886,36.76808,4.020096,-30.13284,4.583771,0.3525450999999999,0.4793975,-0.610409,0.9926406,-0.3629055999999999,0.1325933,0.7163579999999999,-0.2089077,2.183071,50.54276,33.931901515151516
2,-0.003173828,-0.1605835,0.9870148,0.773339,-0.05174255,-0.161911,0.9854431,-31.82158,3.908127,-28.01939,4.511368,0.5247866,0.4753391999999999,0.9067305,0.05369568,-0.1585541,0.9858856,36.96451,3.665573,-28.70242,4.905365,0.346113,0.4744022,-0.6105056,0.9930851,-0.363081,0.1311842999999999,0.7163248999999999,-0.2080797,2.183071,50.54276,33.931901515151516
2,-0.003173828,-0.1605835,0.9870148,0.773339,-0.05174255,-0.161911,0.9854431,-31.82158,3.908127,-28.01939,4.511368,0.5247866,0.4753391999999999,0.9067305,0.05369568,-0.1585541,0.9858856,36.96451,3.665573,-28.70242,4.905365,0.346113,0.4744022,-0.6105056,0.9930851,-0.363081,0.1311842999999999,0.7163248999999999,-0.2080797,2.183071,50.54276,33.931901515151516
2,-0.003173828,-0.1605835,0.9870148,0.773339,-0.05174255,-0.161911,0.9854431,-31.82158,3.908127,-28.01939,4.511368,0.5247866,0.4753391999999999,0.9067305,0.05369568,-0.1585541,0.9858856,36.96451,3.665573,-28.70242,4.905365,0.346113,0.4744022,-0.6105056,0.9930851,-0.363081,0.1311842999999999,0.7163248999999999,-0.2080797,2.183071,50.54276,33.931901515151516
2,0.05885315,-0.1422882,0.9880676,0.7859877,-0.05397034,-0.1727904999999999,0.9834747,-31.82158,3.889236,-27.99315,4.50975,0.525026,0.4770568,0.9420522,0.06463623,-0.1406707999999999,0.9879303,36.9174,3.665573,-28.96407,4.905121,0.346113,0.4744846,-0.6109359000000001,0.9935802,-0.3631551,0.1297063999999999,0.7162573,-0.2067946,2.183071,50.54276,33.931901515151516
2,0.05885315,-0.1422882,0.9880676,0.7859877,-0.05397034,-0.1727904999999999,0.9834747,-31.82158,3.889236,-27.99315,4.50975,0.525026,0.4770568,0.9420522,0.06463623,-0.1406707999999999,0.9879303,36.9174,3.665573,-28.96407,4.905121,0.346113,0.4744846,-0.6109359000000001,0.9935802,-0.3631551,0.1297063999999999,0.7162573,-0.2067946,2.183071,50.54276,33.931901515151516
2,0.05885315,-0.1422882,0.9880676,0.7859877,-0.05397034,-0.1727904999999999,0.9834747,-31.82158,3.889236,-27.99315,4.50975,0.525026,0.4770568,0.9420522,0.06463623,-0.1406707999999999,0.9879303,36.9174,3.665573,-28.96407,4.905121,0.346113,0.4744846,-0.6109359000000001,0.9935802,-0.3631551,0.1297063999999999,0.7162573,-0.2067946,2.183071,50.54276,33.931901515151516
2,-0.05018616,-0.1713104,0.9839325,0.8168943000000001,-0.05575562,-0.172821,0.9833679,-31.818890000000003,3.86969,-27.98346,4.526657,0.5251455,0.4776437,0.9275548,0.06578064,-0.1386108,0.9881439,36.93555,3.55751,-28.65068,4.930099,0.3457744,0.4752778,-0.6115149999999999,0.994405,-0.3631836,0.1275877,0.7165334,-0.2051927999999999,2.183071,50.54276,33.931901515151516
2,-0.05018616,-0.1713104,0.9839325,0.8168943000000001,-0.05575562,-0.172821,0.9833679,-31.818890000000003,3.86969,-27.98346,4.526657,0.5251455,0.4776437,0.9275548,0.06578064,-0.1386108,0.9881439,36.93555,3.55751,-28.65068,4.930099,0.3457744,0.4752778,-0.6115149999999999,0.994405,-0.3631836,0.1275877,0.7165334,-0.2051927999999999,2.183071,50.54276,33.931901515151516
2,-0.05018616,-0.1713104,0.9839325,0.8168943000000001,-0.05575562,-0.172821,0.9833679,-31.818890000000003,3.86969,-27.98346,4.526657,0.5251455,0.4776437,0.9275548,0.06578064,-0.1386108,0.9881439,36.93555,3.55751,-28.65068,4.930099,0.3457744,0.4752778,-0.6115149999999999,0.994405,-0.3631836,0.1275877,0.7165334,-0.2051927999999999,2.183071,50.54276,33.931901515151516
2,-0.03741455,-0.1688537999999999,0.9849243,0.8339332,-0.05517578,-0.1738280999999999,0.9832153,-31.82158,3.869614,-27.98715,4.526855,0.5251718000000001,0.4778032,0.9223868,0.06704712,-0.138504,0.9880829,36.93927,3.529968,-28.54066,4.937926999999999,0.345656,0.4752789,-0.6114533000000001,0.9958771,-0.3624933,0.1255398999999999,0.7168939000000001,-0.203028,2.183071,50.54276,33.931901515151516
2,-0.03741455,-0.1688537999999999,0.9849243,0.8339332,-0.05517578,-0.1738280999999999,0.9832153,-31.82158,3.869614,-27.98715,4.526855,0.5251718000000001,0.4778032,0.9223868,0.06704712,-0.138504,0.9880829,36.93927,3.529968,-28.54066,4.937926999999999,0.345656,0.4752789,-0.6114533000000001,0.9958771,-0.3624933,0.1255398999999999,0.7168939000000001,-0.203028,2.183071,50.54276,33.931901515151516
2,-0.03741455,-0.1688537999999999,0.9849243,0.8339332,-0.05517578,-0.1738280999999999,0.9832153,-31.82158,3.869614,-27.98715,4.526855,0.5251718000000001,0.4778032,0.9223868,0.06704712,-0.138504,0.9880829,36.93927,3.529968,-28.54066,4.937926999999999,0.345656,0.4752789,-0.6114533000000001,0.9958771,-0.3624933,0.1255398999999999,0.7168939000000001,-0.203028,2.183071,50.54276,33.931901515151516
2,0.007736206,-0.1638184,0.9864502,0.8378359000000001,-0.05796814,-0.1868744,0.9806671,-31.823490000000003,3.856644,-27.94995,4.551575,0.5255572,0.479497,0.9176931,0.07115173,-0.1408081,0.9874725,36.93181,3.512207,-28.54066,4.931244,0.3454307,0.4761361,-0.6123364,0.9967154,-0.3623012,0.1233606,0.7170936,-0.2007165,2.183071,-17.94054,35.39
2,0.007736206,-0.1638184,0.9864502,0.8378359000000001,-0.05796814,-0.1868744,0.9806671,-31.823490000000003,3.856644,-27.94995,4.551575,0.5255572,0.479497,0.9176931,0.07115173,-0.1408081,0.9874725,36.93181,3.512207,-28.54066,4.931244,0.3454307,0.4761361,-0.6123364,0.9967154,-0.3623012,0.1233606,0.7170936,-0.2007165,2.183071,-17.94054,35.39
2,0.007736206,-0.1638184,0.9864502,0.8378359000000001,-0.05796814,-0.1868744,0.9806671,-31.823490000000003,3.856644,-27.94995,4.551575,0.5255572,0.479497,0.9176931,0.07115173,-0.1408081,0.9874725,36.93181,3.512207,-28.54066,4.931244,0.3454307,0.4761361,-0.6123364,0.9967154,-0.3623012,0.1233606,0.7170936,-0.2007165,2.183071,-17.94054,35.39
2,0.01512146,-0.1692047,0.9854584,0.8334323,-0.06011963,-0.1852417,0.9808502,-31.82587,3.825241000000001,-27.87843,4.557723999999999,0.5258531,0.4797512,0.9465212,0.07130432,-0.1565552,0.9850769,36.92165,3.529861,-28.62346,4.899765,0.345656,0.4781064999999999,-0.6132451999999999,0.9978901,-0.3619767,0.1209862,0.7176325,-0.1974372,2.183071,-17.94054,35.39
2,0.01512146,-0.1692047,0.9854584,0.8334323,-0.06011963,-0.1852417,0.9808502,-31.82587,3.825241000000001,-27.87843,4.557723999999999,0.5258531,0.4797512,0.9465212,0.07130432,-0.1565552,0.9850769,36.92165,3.529861,-28.62346,4.899765,0.345656,0.4781064999999999,-0.6132451999999999,0.9978901,-0.3619767,0.1209862,0.7176325,-0.1974372,2.183071,-17.94054,35.39
2,0.01512146,-0.1692047,0.9854584,0.8334323,-0.06011963,-0.1852417,0.9808502,-31.82587,3.825241000000001,-27.87843,4.557723999999999,0.5258531,0.4797512,0.9465212,0.07130432,-0.1565552,0.9850769,36.92165,3.529861,-28.62346,4.899765,0.345656,0.4781064999999999,-0.6132451999999999,0.9978901,-0.3619767,0.1209862,0.7176325,-0.1974372,2.183071,-17.94054,35.39
2,0.02685547,-0.1750183,0.9841919,0.8633903,-0.06124878,-0.1930084,0.9792786,-31.82736,3.790909,-27.792820000000003,4.572601000000001,0.5259971999999999,0.4811150999999999,0.9470775,0.07055664,-0.1655579,0.9836578,36.91879,3.527847,-28.678790000000003,4.911163,0.3457278,0.4797162999999999,-0.6145701,0.9989872,-0.3616617,0.1189351999999999,0.7180238,-0.1947441,2.183071,-17.94054,35.39
2,0.02685547,-0.1750183,0.9841919,0.8633903,-0.06124878,-0.1930084,0.9792786,-31.82736,3.790909,-27.792820000000003,4.572601000000001,0.5259971999999999,0.4811150999999999,0.9470775,0.07055664,-0.1655579,0.9836578,36.91879,3.527847,-28.678790000000003,4.911163,0.3457278,0.4797162999999999,-0.6145701,0.9989872,-0.3616617,0.1189351999999999,0.7180238,-0.1947441,2.183071,-17.94054,35.39
2,0.02685547,-0.1750183,0.9841919,0.8633903,-0.06124878,-0.1930084,0.9792786,-31.82736,3.790909,-27.792820000000003,4.572601000000001,0.5259971999999999,0.4811150999999999,0.9470775,0.07055664,-0.1655579,0.9836578,36.91879,3.527847,-28.678790000000003,4.911163,0.3457278,0.4797162999999999,-0.6145701,0.9989872,-0.3616617,0.1189351999999999,0.7180238,-0.1947441,2.183071,-17.94054,35.39
2,0.02503967,-0.1789093,0.9835358,0.8836574,-0.06242371,-0.2002716,0.9777374,-31.8349,3.779358,-27.774520000000003,4.57196,0.5263762,0.4822212,0.9251996,0.0670929,-0.1681061,0.9834747,36.91687,3.526535,-28.678790000000003,4.92923,0.3461695,0.48008,-0.6157789,1.000261,-0.3613761,0.1162956999999999,0.7186114,-0.1915496,2.183071,-17.94054,35.39
2,0.02503967,-0.1789093,0.9835358,0.8836574,-0.06242371,-0.2002716,0.9777374,-31.8349,3.779358,-27.774520000000003,4.57196,0.5263762,0.4822212,0.9251996,0.0670929,-0.1681061,0.9834747,36.91687,3.526535,-28.678790000000003,4.92923,0.3461695,0.48008,-0.6157789,1.000261,-0.3613761,0.1162956999999999,0.7186114,-0.1915496,2.183071,-17.94054,35.39
2,0.02503967,-0.1789093,0.9835358,0.8836574,-0.06242371,-0.2002716,0.9777374,-31.8349,3.779358,-27.774520000000003,4.57196,0.5263762,0.4822212,0.9251996,0.0670929,-0.1681061,0.9834747,36.91687,3.526535,-28.678790000000003,4.92923,0.3461695,0.48008,-0.6157789,1.000261,-0.3613761,0.1162956999999999,0.7186114,-0.1915496,2.183071,-17.94054,35.39
2,0.01615906,-0.1826934999999999,0.9830322,0.8403318000000001,-0.06262207,-0.2054900999999999,0.9766388,-31.83536,3.773514,-27.75621,4.579619999999999,0.5264109,0.4828911,0.9407422,0.06314087,-0.1685027999999999,0.9836731,36.91687,3.507965,-28.66447,4.947693,0.3466243,0.4806448,-0.6167822,1.001889,-0.3609168,0.1135041,0.7193096,-0.1877547999999999,2.183071,-17.94054,35.39
2,0.01615906,-0.1826934999999999,0.9830322,0.8403318000000001,-0.06262207,-0.2054900999999999,0.9766388,-31.83536,3.773514,-27.75621,4.579619999999999,0.5264109,0.4828911,0.9407422,0.06314087,-0.1685027999999999,0.9836731,36.91687,3.507965,-28.66447,4.947693,0.3466243,0.4806448,-0.6167822,1.001889,-0.3609168,0.1135041,0.7193096,-0.1877547999999999,2.183071,-17.94054,35.39
2,0.01615906,-0.1826934999999999,0.9830322,0.8403318000000001,-0.06262207,-0.2054900999999999,0.9766388,-31.83536,3.773514,-27.75621,4.579619999999999,0.5264109,0.4828911,0.9407422,0.06314087,-0.1685027999999999,0.9836731,36.91687,3.507965,-28.66447,4.947693,0.3466243,0.4806448,-0.6167822,1.001889,-0.3609168,0.1135041,0.7193096,-0.1877547999999999,2.183071,-17.94054,35.39
2,0.01615906,-0.1826934999999999,0.9830322,0.8403318000000001,-0.06262207,-0.2054900999999999,0.9766388,-31.83536,3.773514,-27.75621,4.579619999999999,0.5264109,0.4828911,0.9407422,0.06314087,-0.1685027999999999,0.9836731,36.91687,3.507965,-28.66447,4.947693,0.3466243,0.4806448,-0.6179812,1.003601,-0.3605377,0.1099887,0.7200094,-0.1837368,2.183071,-119.2886,35.39
2,0.01615906,-0.1826934999999999,0.9830322,0.8403318000000001,-0.06262207,-0.2054900999999999,0.9766388,-31.83536,3.773514,-27.75621,4.579619999999999,0.5264109,0.4828911,0.9407422,0.06314087,-0.1685027999999999,0.9836731,36.91687,3.507965,-28.66447,4.947693,0.3466243,0.4806448,-0.6179812,1.003601,-0.3605377,0.1099887,0.7200094,-0.1837368,2.183071,-119.2886,35.39
2,0.01615906,-0.1826934999999999,0.9830322,0.8403318000000001,-0.06262207,-0.2054900999999999,0.9766388,-31.83536,3.773514,-27.75621,4.579619999999999,0.5264109,0.4828911,0.9407422,0.06314087,-0.1685027999999999,0.9836731,36.91687,3.507965,-28.66447,4.947693,0.3466243,0.4806448,-0.6179812,1.003601,-0.3605377,0.1099887,0.7200094,-0.1837368,2.183071,-119.2886,35.39
2,-0.05476379,-0.04127502,0.9976349,0.4495699000000001,-0.1092682,-0.03160095,0.9934998,-32.062090000000005,4.406967,-26.48648,4.768097,0.5390759,0.4308112,0.8950444,-0.005187988,-0.04994202,0.9987335,36.55652,4.613846,-29.62074,4.765961,0.3663048,0.4371649,-0.6192477,1.005459,-0.3601284999999999,0.1065018,0.7208937,-0.1793407,2.183071,-119.2886,35.39
2,-0.05476379,-0.04127502,0.9976349,0.4495699000000001,-0.1092682,-0.03160095,0.9934998,-32.062090000000005,4.406967,-26.48648,4.768097,0.5390759,0.4308112,0.8950444,-0.005187988,-0.04994202,0.9987335,36.55652,4.613846,-29.62074,4.765961,0.3663048,0.4371649,-0.6192477,1.005459,-0.3601284999999999,0.1065018,0.7208937,-0.1793407,2.183071,-119.2886,35.39
2,-0.05476379,-0.04127502,0.9976349,0.4495699000000001,-0.1092682,-0.03160095,0.9934998,-32.062090000000005,4.406967,-26.48648,4.768097,0.5390759,0.4308112,0.8950444,-0.005187988,-0.04994202,0.9987335,36.55652,4.613846,-29.62074,4.765961,0.3663048,0.4371649,-0.6192477,1.005459,-0.3601284999999999,0.1065018,0.7208937,-0.1793407,2.183071,-119.2886,35.39
2,-0.07356262,-0.0226593,0.9970245,0.617634,-0.1264648,-0.04174805,0.9910889,-32.11674,4.314011,-26.51501,4.6320190000000006,0.5427928000000001,0.4352917,0.9452549,0.004638672,0.0055236819999999,0.9999695,36.60117,4.48941,-29.44873,4.910324,0.3636574,0.433492,-0.6205137,1.007334,-0.359732,0.1030823999999999,0.7213801999999999,-0.1746936,2.183071,-119.2886,35.39
2,-0.07356262,-0.0226593,0.9970245,0.617634,-0.1264648,-0.04174805,0.9910889,-32.11674,4.314011,-26.51501,4.6320190000000006,0.5427928000000001,0.4352917,0.9452549,0.004638672,0.0055236819999999,0.9999695,36.60117,4.48941,-29.44873,4.910324,0.3636574,0.433492,-0.6205137,1.007334,-0.359732,0.1030823999999999,0.7213801999999999,-0.1746936,2.183071,-119.2886,35.39
2,-0.07356262,-0.0226593,0.9970245,0.617634,-0.1264648,-0.04174805,0.9910889,-32.11674,4.314011,-26.51501,4.6320190000000006,0.5427928000000001,0.4352917,0.9452549,0.004638672,0.0055236819999999,0.9999695,36.60117,4.48941,-29.44873,4.910324,0.3636574,0.433492,-0.6205137,1.007334,-0.359732,0.1030823999999999,0.7213801999999999,-0.1746936,2.183071,-119.2886,35.39
2,-0.03762817,0.01850891,0.999115,1.0,-0.1063385,-0.0234375,0.9940491,-32.145109999999995,4.213364,-26.59236,4.633469,0.5414758000000001,0.4371589,1.0,-0.01786804,0.0305480999999999,0.9993591,36.62314,4.424362,-29.93979,5.0173190000000005,0.3647783,0.4369510999999999,-0.6217786999999999,1.009213,-0.3593237999999999,0.0999956999999999,0.7217196,-0.1704612999999999,2.183071,-119.2886,35.39
2,-0.03762817,0.01850891,0.999115,1.0,-0.1063385,-0.0234375,0.9940491,-32.145109999999995,4.213364,-26.59236,4.633469,0.5414758000000001,0.4371589,1.0,-0.01786804,0.0305480999999999,0.9993591,36.62314,4.424362,-29.93979,5.0173190000000005,0.3647783,0.4369510999999999,-0.6217786999999999,1.009213,-0.3593237999999999,0.0999956999999999,0.7217196,-0.1704612999999999,2.183071,-119.2886,35.39
2,-0.03762817,0.01850891,0.999115,1.0,-0.1063385,-0.0234375,0.9940491,-32.145109999999995,4.213364,-26.59236,4.633469,0.5414758000000001,0.4371589,1.0,-0.01786804,0.0305480999999999,0.9993591,36.62314,4.424362,-29.93979,5.0173190000000005,0.3647783,0.4369510999999999,-0.6217786999999999,1.009213,-0.3593237999999999,0.0999956999999999,0.7217196,-0.1704612999999999,2.183071,-119.2886,35.39
3,-0.01208496,0.01495361,0.9998016,1.0,-0.09506226,-0.02885437,0.9950409,-32.17682,4.278061,-27.25638,4.649445,0.5416588000000001,0.4410414000000001,1.0,0.005569458,0.02426147,0.9996796,36.62762,4.406067,-29.92632,5.034882,0.3618568,0.4381357,-0.6230533,1.010923,-0.3588579,0.09695539,0.7220095,-0.166617,2.183071,90.78286,35.39
3,-0.01208496,0.01495361,0.9998016,1.0,-0.09506226,-0.02885437,0.9950409,-32.17682,4.278061,-27.25638,4.649445,0.5416588000000001,0.4410414000000001,1.0,0.005569458,0.02426147,0.9996796,36.62762,4.406067,-29.92632,5.034882,0.3618568,0.4381357,-0.6230533,1.010923,-0.3588579,0.09695539,0.7220095,-0.166617,2.183071,90.78286,35.39
3,-0.01208496,0.01495361,0.9998016,1.0,-0.09506226,-0.02885437,0.9950409,-32.17682,4.278061,-27.25638,4.649445,0.5416588000000001,0.4410414000000001,1.0,0.005569458,0.02426147,0.9996796,36.62762,4.406067,-29.92632,5.034882,0.3618568,0.4381357,-0.6230533,1.010923,-0.3588579,0.09695539,0.7220095,-0.166617,2.183071,90.78286,35.39
3,0.0067901609999999,-0.01144409,0.9999084,1.0,-0.09214783,-0.01029968,0.9956818,-32.18953,4.252716,-27.25815,4.639542,0.5417605999999999,0.4397590999999999,1.0,0.007339478,-0.01144409,0.9998932,36.62296,4.439758,-30.12268,4.868195,0.3617613,0.4426849,-0.625807,1.013335,-0.3582498,0.09168562,0.7221159,-0.1599655999999999,2.183071,90.78286,35.39
3,0.0067901609999999,-0.01144409,0.9999084,1.0,-0.09214783,-0.01029968,0.9956818,-32.18953,4.252716,-27.25815,4.639542,0.5417605999999999,0.4397590999999999,1.0,0.007339478,-0.01144409,0.9998932,36.62296,4.439758,-30.12268,4.868195,0.3617613,0.4426849,-0.625807,1.013335,-0.3582498,0.09168562,0.7221159,-0.1599655999999999,2.183071,90.78286,35.39
3,0.0067901609999999,-0.01144409,0.9999084,1.0,-0.09214783,-0.01029968,0.9956818,-32.18953,4.252716,-27.25815,4.639542,0.5417605999999999,0.4397590999999999,1.0,0.007339478,-0.01144409,0.9998932,36.62296,4.439758,-30.12268,4.868195,0.3617613,0.4426849,-0.625807,1.013335,-0.3582498,0.09168562,0.7221159,-0.1599655999999999,2.183071,90.78286,35.39
3,-0.02511597,-0.04049683,0.9988556,1.0,-0.09606934,-0.05444336,0.9938812,-32.21797,4.145386,-27.193040000000003,4.653839,0.5430991999999999,0.4479465999999999,1.0,-0.0111084,-0.03771973,0.9992218,36.61543,4.333908,-30.0556,4.875229,0.3642163,0.4489292,-0.6268764,1.01444,-0.3579237,0.08966378,0.7220502,-0.1572323,2.183071,90.78286,35.39
3,-0.02511597,-0.04049683,0.9988556,1.0,-0.09606934,-0.05444336,0.9938812,-32.21797,4.145386,-27.193040000000003,4.653839,0.5430991999999999,0.4479465999999999,1.0,-0.0111084,-0.03771973,0.9992218,36.61543,4.333908,-30.0556,4.875229,0.3642163,0.4489292,-0.6268764,1.01444,-0.3579237,0.08966378,0.7220502,-0.1572323,2.183071,90.78286,35.39
3,-0.02511597,-0.04049683,0.9988556,1.0,-0.09606934,-0.05444336,0.9938812,-32.21797,4.145386,-27.193040000000003,4.653839,0.5430991999999999,0.4479465999999999,1.0,-0.0111084,-0.03771973,0.9992218,36.61543,4.333908,-30.0556,4.875229,0.3642163,0.4489292,-0.6268764,1.01444,-0.3579237,0.08966378,0.7220502,-0.1572323,2.183071,90.78286,35.39
3,-0.04393005,-0.05076599,0.9977417,1.0,-0.101059,-0.0609436,0.9929962,-32.230709999999995,4.134811,-27.18269,4.682907,0.544113,0.4490017,1.0,-0.01045227,-0.04473877,0.9989319,36.6105,4.33609,-30.06827,4.871078,0.3642922999999999,0.4497854,-0.6271963,1.01539,-0.3576257,0.0874029,0.7221456999999999,-0.1541751,2.183071,90.78286,35.39
3,-0.04393005,-0.05076599,0.9977417,1.0,-0.101059,-0.0609436,0.9929962,-32.230709999999995,4.134811,-27.18269,4.682907,0.544113,0.4490017,1.0,-0.01045227,-0.04473877,0.9989319,36.6105,4.33609,-30.06827,4.871078,0.3642922999999999,0.4497854,-0.6271963,1.01539,-0.3576257,0.0874029,0.7221456999999999,-0.1541751,2.183071,90.78286,35.39
3,-0.04393005,-0.05076599,0.9977417,1.0,-0.101059,-0.0609436,0.9929962,-32.230709999999995,4.134811,-27.18269,4.682907,0.544113,0.4490017,1.0,-0.01045227,-0.04473877,0.9989319,36.6105,4.33609,-30.06827,4.871078,0.3642922999999999,0.4497854,-0.6271963,1.01539,-0.3576257,0.0874029,0.7221456999999999,-0.1541751,2.183071,90.78286,35.39
3,-0.04393005,-0.05076599,0.9977417,1.0,-0.101059,-0.0609436,0.9929962,-32.230709999999995,4.134811,-27.18269,4.682907,0.544113,0.4490017,1.0,-0.01045227,-0.04473877,0.9989319,36.6105,4.33609,-30.06827,4.871078,0.3642922999999999,0.4497854,-0.6280161999999999,1.016265,-0.3572949,0.08568314,0.7221871999999999,-0.1519165,2.183071,90.78286,35.39
3,-0.04393005,-0.05076599,0.9977417,1.0,-0.101059,-0.0609436,0.9929962,-32.230709999999995,4.134811,-27.18269,4.682907,0.544113,0.4490017,1.0,-0.01045227,-0.04473877,0.9989319,36.6105,4.33609,-30.06827,4.871078,0.3642922999999999,0.4497854,-0.6280161999999999,1.016265,-0.3572949,0.08568314,0.7221871999999999,-0.1519165,2.183071,90.78286,35.39
3,-0.04393005,-0.05076599,0.9977417,1.0,-0.101059,-0.0609436,0.9929962,-32.230709999999995,4.134811,-27.18269,4.682907,0.544113,0.4490017,1.0,-0.01045227,-0.04473877,0.9989319,36.6105,4.33609,-30.06827,4.871078,0.3642922999999999,0.4497854,-0.6280161999999999,1.016265,-0.3572949,0.08568314,0.7221871999999999,-0.1519165,2.183071,90.78286,35.39
3,-0.04393005,-0.05076599,0.9977417,1.0,-0.101059,-0.0609436,0.9929962,-32.230709999999995,4.134811,-27.18269,4.682907,0.544113,0.4490017,1.0,-0.01045227,-0.04473877,0.9989319,36.6105,4.33609,-30.06827,4.871078,0.3642922999999999,0.4497854,-0.6287749,1.01721,-0.3570486,0.08399112,0.7223558000000001,-0.150063,2.183071,37.06903,35.39
3,-0.04393005,-0.05076599,0.9977417,1.0,-0.101059,-0.0609436,0.9929962,-32.230709999999995,4.134811,-27.18269,4.682907,0.544113,0.4490017,1.0,-0.01045227,-0.04473877,0.9989319,36.6105,4.33609,-30.06827,4.871078,0.3642922999999999,0.4497854,-0.6287749,1.01721,-0.3570486,0.08399112,0.7223558000000001,-0.150063,2.183071,37.06903,35.39
3,-0.04393005,-0.05076599,0.9977417,1.0,-0.101059,-0.0609436,0.9929962,-32.230709999999995,4.134811,-27.18269,4.682907,0.544113,0.4490017,1.0,-0.01045227,-0.04473877,0.9989319,36.6105,4.33609,-30.06827,4.871078,0.3642922999999999,0.4497854,-0.6287749,1.01721,-0.3570486,0.08399112,0.7223558000000001,-0.150063,2.183071,37.06903,35.39
3,-0.06639099,-0.07173157,0.9952087,1.0,-0.09750366,-0.06607056,0.9930267,-32.27339,4.055344,-27.19046,4.766830000000001,0.5451919,0.4523818,1.0,-0.009353638,-0.08187866,0.9965973,36.60237,4.244705000000001,-29.88165,4.888153,0.3646072999999999,0.4557835,-0.6294634,1.018071,-0.3568524,0.08278438,0.7225463000000001,-0.1480382,2.183071,37.06903,35.39
3,-0.06639099,-0.07173157,0.9952087,1.0,-0.09750366,-0.06607056,0.9930267,-32.27339,4.055344,-27.19046,4.766830000000001,0.5451919,0.4523818,1.0,-0.009353638,-0.08187866,0.9965973,36.60237,4.244705000000001,-29.88165,4.888153,0.3646072999999999,0.4557835,-0.6294634,1.018071,-0.3568524,0.08278438,0.7225463000000001,-0.1480382,2.183071,37.06903,35.39
3,-0.06639099,-0.07173157,0.9952087,1.0,-0.09750366,-0.06607056,0.9930267,-32.27339,4.055344,-27.19046,4.766830000000001,0.5451919,0.4523818,1.0,-0.009353638,-0.08187866,0.9965973,36.60237,4.244705000000001,-29.88165,4.888153,0.3646072999999999,0.4557835,-0.6294634,1.018071,-0.3568524,0.08278438,0.7225463000000001,-0.1480382,2.183071,37.06903,35.39
3,-0.05278015,-0.07966614,0.9954224,1.0,-0.09465027,-0.07463074,0.9927063,-32.27435,4.023758,-27.10876,4.762665,0.5448346,0.4537505,1.0,-0.01126099,-0.08450317,0.9963531,36.60513,4.234543,-29.90375,4.933289,0.3646402,0.4566497999999999,-0.6299613000000001,1.019,-0.3567334,0.08103207,0.7227661999999999,-0.1457356,2.183071,37.06903,35.39
3,-0.05278015,-0.07966614,0.9954224,1.0,-0.09465027,-0.07463074,0.9927063,-32.27435,4.023758,-27.10876,4.762665,0.5448346,0.4537505,1.0,-0.01126099,-0.08450317,0.9963531,36.60513,4.234543,-29.90375,4.933289,0.3646402,0.4566497999999999,-0.6299613000000001,1.019,-0.3567334,0.08103207,0.7227661999999999,-0.1457356,2.183071,37.06903,35.39
3,-0.05278015,-0.07966614,0.9954224,1.0,-0.09465027,-0.07463074,0.9927063,-32.27435,4.023758,-27.10876,4.762665,0.5448346,0.4537505,1.0,-0.01126099,-0.08450317,0.9963531,36.60513,4.234543,-29.90375,4.933289,0.3646402,0.4566497999999999,-0.6299613000000001,1.019,-0.3567334,0.08103207,0.7227661999999999,-0.1457356,2.183071,37.06903,35.39
3,-0.04051208,-0.07931519,0.9960175,1.0,-0.09440613,-0.0749054,0.9927063,-32.27467,4.018539,-27.08405,4.759064,0.5447991,0.4537524,1.0,-0.01347351,-0.0814208999999999,0.996582,36.60571,4.230988,-29.88812,4.933014,0.364901,0.4562875,-0.6303549,1.02011,-0.3565815,0.07876113,0.7233896,-0.1429739,2.183071,37.06903,35.39
3,-0.04051208,-0.07931519,0.9960175,1.0,-0.09440613,-0.0749054,0.9927063,-32.27467,4.018539,-27.08405,4.759064,0.5447991,0.4537524,1.0,-0.01347351,-0.0814208999999999,0.996582,36.60571,4.230988,-29.88812,4.933014,0.364901,0.4562875,-0.6303549,1.02011,-0.3565815,0.07876113,0.7233896,-0.1429739,2.183071,37.06903,35.39
3,-0.04051208,-0.07931519,0.9960175,1.0,-0.09440613,-0.0749054,0.9927063,-32.27467,4.018539,-27.08405,4.759064,0.5447991,0.4537524,1.0,-0.01347351,-0.0814208999999999,0.996582,36.60571,4.230988,-29.88812,4.933014,0.364901,0.4562875,-0.6303549,1.02011,-0.3565815,0.07876113,0.7233896,-0.1429739,2.183071,37.06903,35.39
3,-0.0461731,-0.08058167,0.9956665,1.0,-0.09686279,-0.07487488,0.9924622,-32.27516,4.011475,-27.06871,4.755051,0.5450838000000001,0.4538549,1.0,-0.01470947,-0.08401489,0.9963531,36.60565,4.233307,-29.90375,4.934219000000001,0.3650239999999999,0.4566497999999999,-0.6308663000000001,1.021143,-0.3563864,0.07699531,0.7237619000000001,-0.1408247999999999,2.183071,37.06903,35.39
3,-0.0461731,-0.08058167,0.9956665,1.0,-0.09686279,-0.07487488,0.9924622,-32.27516,4.011475,-27.06871,4.755051,0.5450838000000001,0.4538549,1.0,-0.01470947,-0.08401489,0.9963531,36.60565,4.233307,-29.90375,4.934219000000001,0.3650239999999999,0.4566497999999999,-0.6308663000000001,1.021143,-0.3563864,0.07699531,0.7237619000000001,-0.1408247999999999,2.183071,37.06903,35.39
3,-0.0461731,-0.08058167,0.9956665,1.0,-0.09686279,-0.07487488,0.9924622,-32.27516,4.011475,-27.06871,4.755051,0.5450838000000001,0.4538549,1.0,-0.01470947,-0.08401489,0.9963531,36.60565,4.233307,-29.90375,4.934219000000001,0.3650239999999999,0.4566497999999999,-0.6308663000000001,1.021143,-0.3563864,0.07699531,0.7237619000000001,-0.1408247999999999,2.183071,37.06903,35.39
3,-0.05374146,-0.08166504,0.9952087,1.0,-0.09616089,-0.08041382,0.9921112,-32.27798,4.001358,-27.04939,4.753876,0.5450811,0.4546835,1.0,-0.01579285,-0.0826416,0.9964447,36.60565,4.234543,-30.00301,4.930801,0.3650255,0.4572755,-0.6311996,1.022504,-0.3563363,0.07474781,0.7243086999999999,-0.137573,2.183071,27.37006,35.39
3,-0.05374146,-0.08166504,0.9952087,1.0,-0.09616089,-0.08041382,0.9921112,-32.27798,4.001358,-27.04939,4.753876,0.5450811,0.4546835,1.0,-0.01579285,-0.0826416,0.9964447,36.60565,4.234543,-30.00301,4.930801,0.3650255,0.4572755,-0.6311996,1.022504,-0.3563363,0.07474781,0.7243086999999999,-0.137573,2.183071,27.37006,35.39
3,-0.05374146,-0.08166504,0.9952087,1.0,-0.09616089,-0.08041382,0.9921112,-32.27798,4.001358,-27.04939,4.753876,0.5450811,0.4546835,1.0,-0.01579285,-0.0826416,0.9964447,36.60565,4.234543,-30.00301,4.930801,0.3650255,0.4572755,-0.6311996,1.022504,-0.3563363,0.07474781,0.7243086999999999,-0.137573,2.183071,27.37006,35.39
3,-1.0,-1.0,-1.0,1.0,0.0,0.0,0.0,-32.17758,4.729828,-27.06667,-1.0,0.5505739000000001,0.4147600999999999,1.0,0.0,0.0,0.0,36.29457,5.061646,-30.63597,-1.0,0.3837386,0.4197455,-0.6314328,1.023925,-0.3562946,0.07198982,0.7249021999999999,-0.1345864,2.183071,27.37006,35.39
3,-1.0,-1.0,-1.0,1.0,0.0,0.0,0.0,-32.17758,4.729828,-27.06667,-1.0,0.5505739000000001,0.4147600999999999,1.0,0.0,0.0,0.0,36.29457,5.061646,-30.63597,-1.0,0.3837386,0.4197455,-0.6314328,1.023925,-0.3562946,0.07198982,0.7249021999999999,-0.1345864,2.183071,27.37006,35.39
3,-1.0,-1.0,-1.0,1.0,0.0,0.0,0.0,-32.17758,4.729828,-27.06667,-1.0,0.5505739000000001,0.4147600999999999,1.0,0.0,0.0,0.0,36.29457,5.061646,-30.63597,-1.0,0.3837386,0.4197455,-0.6314328,1.023925,-0.3562946,0.07198982,0.7249021999999999,-0.1345864,2.183071,27.37006,35.39
3,-1.0,-1.0,-1.0,0.5165801999999999,0.0,0.0,0.0,-32.16937,5.108795,-27.09334,-1.0,0.5498198000000001,0.3942156,1.0,0.0,0.0,0.0,36.33286,5.290955,-30.449720000000003,-1.0,0.3780698,0.4027563,-0.6317368,1.025183,-0.3562313,0.06928471,0.7255271,-0.1322167,2.183071,27.37006,35.39
3,-1.0,-1.0,-1.0,0.5165801999999999,0.0,0.0,0.0,-32.16937,5.108795,-27.09334,-1.0,0.5498198000000001,0.3942156,1.0,0.0,0.0,0.0,36.33286,5.290955,-30.449720000000003,-1.0,0.3780698,0.4027563,-0.6317368,1.025183,-0.3562313,0.06928471,0.7255271,-0.1322167,2.183071,27.37006,35.39
3,-1.0,-1.0,-1.0,0.5165801999999999,0.0,0.0,0.0,-32.16937,5.108795,-27.09334,-1.0,0.5498198000000001,0.3942156,1.0,0.0,0.0,0.0,36.33286,5.290955,-30.449720000000003,-1.0,0.3780698,0.4027563,-0.6317368,1.025183,-0.3562313,0.06928471,0.7255271,-0.1322167,2.183071,27.37006,35.39
3,-0.1353302,0.1055603,0.9851532,1.0,-0.1357422,0.1053466999999999,0.9851227,-32.25848,4.904877,-27.35712,4.642975,0.5494477,0.4053474,1.0,-0.05862427,0.1461792,0.9875031,36.383,5.281676999999999,-31.08751,4.932663,0.3767914,0.4032583,-0.6320732,1.026499,-0.356205,0.06683581,0.7260714,-0.1297010999999999,2.183071,27.37006,35.39
3,-0.1353302,0.1055603,0.9851532,1.0,-0.1357422,0.1053466999999999,0.9851227,-32.25848,4.904877,-27.35712,4.642975,0.5494477,0.4053474,1.0,-0.05862427,0.1461792,0.9875031,36.383,5.281676999999999,-31.08751,4.932663,0.3767914,0.4032583,-0.6320732,1.026499,-0.356205,0.06683581,0.7260714,-0.1297010999999999,2.183071,27.37006,35.39
3,-0.1353302,0.1055603,0.9851532,1.0,-0.1357422,0.1053466999999999,0.9851227,-32.25848,4.904877,-27.35712,4.642975,0.5494477,0.4053474,1.0,-0.05862427,0.1461792,0.9875031,36.383,5.281676999999999,-31.08751,4.932663,0.3767914,0.4032583,-0.6320732,1.026499,-0.356205,0.06683581,0.7260714,-0.1297010999999999,2.183071,27.37006,35.39
3,-0.1306458,0.09466553,0.9868927,1.0,-0.1328582999999999,0.0929718,0.9867554,-32.27168,4.776108,-27.27434,4.573364,0.5494127,0.4104085,1.0,-0.06304932,0.1459961,0.9872589,36.41681,5.109772,-30.63829,4.849228,0.3767914,0.4056047,-0.6326742,1.028703,-0.3559895999999999,0.06203664,0.7270713000000001,-0.1253293,2.183071,27.37006,35.39
3,-0.1306458,0.09466553,0.9868927,1.0,-0.1328582999999999,0.0929718,0.9867554,-32.27168,4.776108,-27.27434,4.573364,0.5494127,0.4104085,1.0,-0.06304932,0.1459961,0.9872589,36.41681,5.109772,-30.63829,4.849228,0.3767914,0.4056047,-0.6326742,1.028703,-0.3559895999999999,0.06203664,0.7270713000000001,-0.1253293,2.183071,27.37006,35.39
3,-0.1306458,0.09466553,0.9868927,1.0,-0.1328582999999999,0.0929718,0.9867554,-32.27168,4.776108,-27.27434,4.573364,0.5494127,0.4104085,1.0,-0.06304932,0.1459961,0.9872589,36.41681,5.109772,-30.63829,4.849228,0.3767914,0.4056047,-0.6326742,1.028703,-0.3559895999999999,0.06203664,0.7270713000000001,-0.1253293,2.183071,27.37006,35.39
3,-0.1053313999999999,0.1114043999999999,0.9881744,1.0,-0.1278992,0.09295654,0.9874115,-32.27812,4.776108,-27.27434,4.577469000000001,0.5490583,0.4104085,1.0,-0.05949402,0.1483612,0.9871368,36.41689,5.100784,-30.63538,4.84996,0.3763756,0.4056047,-0.6326742,1.028703,-0.3559895999999999,0.06203664,0.7270713000000001,-0.1253293,2.170257,-59.24762,35.39
3,-0.1053313999999999,0.1114043999999999,0.9881744,1.0,-0.1278992,0.09295654,0.9874115,-32.27812,4.776108,-27.27434,4.577469000000001,0.5490583,0.4104085,1.0,-0.05949402,0.1483612,0.9871368,36.41689,5.100784,-30.63538,4.84996,0.3763756,0.4056047,-0.6326742,1.028703,-0.3559895999999999,0.06203664,0.7270713000000001,-0.1253293,2.170257,-59.24762,35.39
3,-0.1053313999999999,0.1114043999999999,0.9881744,1.0,-0.1278992,0.09295654,0.9874115,-32.27812,4.776108,-27.27434,4.577469000000001,0.5490583,0.4104085,1.0,-0.05949402,0.1483612,0.9871368,36.41689,5.100784,-30.63538,4.84996,0.3763756,0.4056047,-0.6326742,1.028703,-0.3559895999999999,0.06203664,0.7270713000000001,-0.1253293,2.170257,-59.24762,35.39
3,-0.1077881,0.1008301,0.9890442,1.0,-0.1241454999999999,0.0914917,0.9880219,-32.28632,4.759857,-27.26244,4.555038,0.5488743,0.4110039000000001,1.0,-0.05383301,0.1311951,0.9898834,36.41759,5.0974580000000005,-30.61696,4.830032,0.375719,0.4075518,-0.6330154,1.0297690000000002,-0.3558653,0.06016549,0.7275956,-0.1232494,2.170257,-59.24762,35.39
3,-0.1077881,0.1008301,0.9890442,1.0,-0.1241454999999999,0.0914917,0.9880219,-32.28632,4.759857,-27.26244,4.555038,0.5488743,0.4110039000000001,1.0,-0.05383301,0.1311951,0.9898834,36.41759,5.0974580000000005,-30.61696,4.830032,0.375719,0.4075518,-0.6330154,1.0297690000000002,-0.3558653,0.06016549,0.7275956,-0.1232494,2.170257,-59.24762,35.39
3,-0.1077881,0.1008301,0.9890442,1.0,-0.1241454999999999,0.0914917,0.9880219,-32.28632,4.759857,-27.26244,4.555038,0.5488743,0.4110039000000001,1.0,-0.05383301,0.1311951,0.9898834,36.41759,5.0974580000000005,-30.61696,4.830032,0.375719,0.4075518,-0.6330154,1.0297690000000002,-0.3558653,0.06016549,0.7275956,-0.1232494,2.170257,-59.24762,35.39
3,-0.06057739,0.1046448,0.9926605,1.0,-0.1271057,0.08442688,0.9882813,-32.27983,4.733643,-27.27417,4.539093,0.5489818000000001,0.4127835,1.0,-0.01464844,0.1182556,0.9928589,36.42987,5.065308,-30.62244,4.782867,0.3706892,0.4100208999999999,-0.6337054,1.031598,-0.3555654,0.05684199,0.7282496,-0.1202658999999999,2.170257,-59.24762,35.39
3,-0.06057739,0.1046448,0.9926605,1.0,-0.1271057,0.08442688,0.9882813,-32.27983,4.733643,-27.27417,4.539093,0.5489818000000001,0.4127835,1.0,-0.01464844,0.1182556,0.9928589,36.42987,5.065308,-30.62244,4.782867,0.3706892,0.4100208999999999,-0.6337054,1.031598,-0.3555654,0.05684199,0.7282496,-0.1202658999999999,2.170257,-59.24762,35.39
3,-0.06057739,0.1046448,0.9926605,1.0,-0.1271057,0.08442688,0.9882813,-32.27983,4.733643,-27.27417,4.539093,0.5489818000000001,0.4127835,1.0,-0.01464844,0.1182556,0.9928589,36.42987,5.065308,-30.62244,4.782867,0.3706892,0.4100208999999999,-0.6337054,1.031598,-0.3555654,0.05684199,0.7282496,-0.1202658999999999,2.170257,-59.24762,35.39
3,-0.05123901,0.09454346,0.9941864,1.0,-0.1291046,0.0796051,0.9884186,-32.27412,4.723557,-27.38132,4.5383,0.5490801,0.4145497,1.0,-0.01091003,0.1020203,0.9947205,36.4445,5.0481110000000005,-30.64851,4.771957,0.369707,0.412701,-0.6337054,1.031598,-0.3555654,0.05684199,0.7282496,-0.1202658999999999,2.170257,-59.24762,35.39
3,-0.05123901,0.09454346,0.9941864,1.0,-0.1291046,0.0796051,0.9884186,-32.27412,4.723557,-27.38132,4.5383,0.5490801,0.4145497,1.0,-0.01091003,0.1020203,0.9947205,36.4445,5.0481110000000005,-30.64851,4.771957,0.369707,0.412701,-0.6337054,1.031598,-0.3555654,0.05684199,0.7282496,-0.1202658999999999,2.170257,-59.24762,35.39
3,-0.05123901,0.09454346,0.9941864,1.0,-0.1291046,0.0796051,0.9884186,-32.27412,4.723557,-27.38132,4.5383,0.5490801,0.4145497,1.0,-0.01091003,0.1020203,0.9947205,36.4445,5.0481110000000005,-30.64851,4.771957,0.369707,0.412701,-0.6337054,1.031598,-0.3555654,0.05684199,0.7282496,-0.1202658999999999,2.170257,-59.24762,35.39
3,-0.03582764,0.0957489,0.994751,1.0,-0.1309967,0.07258606,0.9887085,-32.26761,4.719742,-27.448290000000004,4.522919,0.5491049,0.4160013,1.0,-0.0116272,0.1014708999999999,0.9947662,36.46269,5.0345,-30.64882,4.763397,0.3691695,0.4132255999999999,-0.633949,1.032329,-0.3554452,0.0554208,0.7283884,-0.1189542,2.170257,-59.24762,35.39
3,-0.03582764,0.0957489,0.994751,1.0,-0.1309967,0.07258606,0.9887085,-32.26761,4.719742,-27.448290000000004,4.522919,0.5491049,0.4160013,1.0,-0.0116272,0.1014708999999999,0.9947662,36.46269,5.0345,-30.64882,4.763397,0.3691695,0.4132255999999999,-0.633949,1.032329,-0.3554452,0.0554208,0.7283884,-0.1189542,2.170257,-59.24762,35.39
3,-0.03582764,0.0957489,0.994751,1.0,-0.1309967,0.07258606,0.9887085,-32.26761,4.719742,-27.448290000000004,4.522919,0.5491049,0.4160013,1.0,-0.0116272,0.1014708999999999,0.9947662,36.46269,5.0345,-30.64882,4.763397,0.3691695,0.4132255999999999,-0.633949,1.032329,-0.3554452,0.0554208,0.7283884,-0.1189542,2.170257,-59.24762,35.39
3,-0.03439331,0.08808899,0.9955139,1.0,-0.1321106,0.06842041,0.9888611,-32.26404,4.715439,-27.462940000000003,4.503464,0.5491049,0.4167295,1.0,-0.01316833,0.09223938,0.995636,36.47305,5.012131,-30.64882,4.7494510000000005,0.3690054,0.4150774,-0.6381843,1.030708,-0.3571268,0.05403373,0.7283222,-0.117752,2.170257,-55.83858,35.39
3,-0.03439331,0.08808899,0.9955139,1.0,-0.1321106,0.06842041,0.9888611,-32.26404,4.715439,-27.462940000000003,4.503464,0.5491049,0.4167295,1.0,-0.01316833,0.09223938,0.995636,36.47305,5.012131,-30.64882,4.7494510000000005,0.3690054,0.4150774,-0.6381843,1.030708,-0.3571268,0.05403373,0.7283222,-0.117752,2.170257,-55.83858,35.39
3,-0.03439331,0.08808899,0.9955139,1.0,-0.1321106,0.06842041,0.9888611,-32.26404,4.715439,-27.462940000000003,4.503464,0.5491049,0.4167295,1.0,-0.01316833,0.09223938,0.995636,36.47305,5.012131,-30.64882,4.7494510000000005,0.3690054,0.4150774,-0.6381843,1.030708,-0.3571268,0.05403373,0.7283222,-0.117752,2.170257,-55.83858,35.39
3,-0.03439331,0.08808899,0.9955139,1.0,-0.1321106,0.06842041,0.9888611,-32.26404,4.715439,-27.462940000000003,4.503464,0.5491049,0.4167295,1.0,-0.01316833,0.09223938,0.995636,36.47305,5.012131,-30.64882,4.7494510000000005,0.3690054,0.4150774,-0.6387119000000001,1.03142,-0.3571909,0.05217389,0.7284814000000001,-0.1160583999999999,2.170257,-55.83858,35.39
3,-0.03439331,0.08808899,0.9955139,1.0,-0.1321106,0.06842041,0.9888611,-32.26404,4.715439,-27.462940000000003,4.503464,0.5491049,0.4167295,1.0,-0.01316833,0.09223938,0.995636,36.47305,5.012131,-30.64882,4.7494510000000005,0.3690054,0.4150774,-0.6387119000000001,1.03142,-0.3571909,0.05217389,0.7284814000000001,-0.1160583999999999,2.170257,-55.83858,35.39
3,-0.03439331,0.08808899,0.9955139,1.0,-0.1321106,0.06842041,0.9888611,-32.26404,4.715439,-27.462940000000003,4.503464,0.5491049,0.4167295,1.0,-0.01316833,0.09223938,0.995636,36.47305,5.012131,-30.64882,4.7494510000000005,0.3690054,0.4150774,-0.6387119000000001,1.03142,-0.3571909,0.05217389,0.7284814000000001,-0.1160583999999999,2.170257,-55.83858,35.39
3,-0.07922363,0.06044006,0.9950104,1.0,-0.1201476999999999,0.0486145,0.9915619,-32.26108,4.599151999999999,-27.4003,4.557373,0.5475653,0.4224545,1.0,-0.01092529,0.07981873,0.9967346,36.52769,4.809021,-30.42838,4.684036,0.3671959,0.4216997999999999,-0.6395299,1.032053,-0.3573232,0.05008417,0.728788,-0.1140947,2.170257,-55.83858,35.39
3,-0.07922363,0.06044006,0.9950104,1.0,-0.1201476999999999,0.0486145,0.9915619,-32.26108,4.599151999999999,-27.4003,4.557373,0.5475653,0.4224545,1.0,-0.01092529,0.07981873,0.9967346,36.52769,4.809021,-30.42838,4.684036,0.3671959,0.4216997999999999,-0.6395299,1.032053,-0.3573232,0.05008417,0.728788,-0.1140947,2.170257,-55.83858,35.39
3,-0.07922363,0.06044006,0.9950104,1.0,-0.1201476999999999,0.0486145,0.9915619,-32.26108,4.599151999999999,-27.4003,4.557373,0.5475653,0.4224545,1.0,-0.01092529,0.07981873,0.9967346,36.52769,4.809021,-30.42838,4.684036,0.3671959,0.4216997999999999,-0.6395299,1.032053,-0.3573232,0.05008417,0.728788,-0.1140947,2.170257,-55.83858,35.39
3,-0.09205627,0.03843689,0.9950104,1.0,-0.1220245,0.03076172,0.9920349,-32.26047,4.601456,-27.4747,4.500107,0.5477586,0.4249858,1.0,-0.01290894,0.05841064,0.9981995,36.5302,4.791763,-30.42352,4.666351000000001,0.3673539,0.4247679,-0.6399667,1.032953,-0.3572822,0.04824156,0.7290291999999999,-0.1118853,2.170257,-55.83858,35.39
3,-0.09205627,0.03843689,0.9950104,1.0,-0.1220245,0.03076172,0.9920349,-32.26047,4.601456,-27.4747,4.500107,0.5477586,0.4249858,1.0,-0.01290894,0.05841064,0.9981995,36.5302,4.791763,-30.42352,4.666351000000001,0.3673539,0.4247679,-0.6399667,1.032953,-0.3572822,0.04824156,0.7290291999999999,-0.1118853,2.170257,-55.83858,35.39
3,-0.09205627,0.03843689,0.9950104,1.0,-0.1220245,0.03076172,0.9920349,-32.26047,4.601456,-27.4747,4.500107,0.5477586,0.4249858,1.0,-0.01290894,0.05841064,0.9981995,36.5302,4.791763,-30.42352,4.666351000000001,0.3673539,0.4247679,-0.6399667,1.032953,-0.3572822,0.04824156,0.7290291999999999,-0.1118853,2.170257,-55.83858,35.39
3,-0.09205627,0.03843689,0.9950104,1.0,-0.1220245,0.03076172,0.9920349,-32.26047,4.601456,-27.4747,4.500107,0.5477586,0.4249858,1.0,-0.01290894,0.05841064,0.9981995,36.5302,4.791763,-30.42352,4.666351000000001,0.3673539,0.4247679,-0.6405823,1.033809,-0.3574432,0.04622066,0.7293141,-0.1097033999999999,2.170257,-55.83858,35.39
3,-0.09205627,0.03843689,0.9950104,1.0,-0.1220245,0.03076172,0.9920349,-32.26047,4.601456,-27.4747,4.500107,0.5477586,0.4249858,1.0,-0.01290894,0.05841064,0.9981995,36.5302,4.791763,-30.42352,4.666351000000001,0.3673539,0.4247679,-0.6405823,1.033809,-0.3574432,0.04622066,0.7293141,-0.1097033999999999,2.170257,-55.83858,35.39
3,-0.09205627,0.03843689,0.9950104,1.0,-0.1220245,0.03076172,0.9920349,-32.26047,4.601456,-27.4747,4.500107,0.5477586,0.4249858,1.0,-0.01290894,0.05841064,0.9981995,36.5302,4.791763,-30.42352,4.666351000000001,0.3673539,0.4247679,-0.6405823,1.033809,-0.3574432,0.04622066,0.7293141,-0.1097033999999999,2.170257,-55.83858,35.39
3,-0.09205627,0.03843689,0.9950104,1.0,-0.1220245,0.03076172,0.9920349,-32.26047,4.601456,-27.4747,4.500107,0.5477586,0.4249858,1.0,-0.01290894,0.05841064,0.9981995,36.5302,4.791763,-30.42352,4.666351000000001,0.3673539,0.4247679,-0.6417301,1.035617,-0.3575833,0.04134617,0.7297636,-0.104451,2.170257,57.14643,35.39
3,-0.09205627,0.03843689,0.9950104,1.0,-0.1220245,0.03076172,0.9920349,-32.26047,4.601456,-27.4747,4.500107,0.5477586,0.4249858,1.0,-0.01290894,0.05841064,0.9981995,36.5302,4.791763,-30.42352,4.666351000000001,0.3673539,0.4247679,-0.6417301,1.035617,-0.3575833,0.04134617,0.7297636,-0.104451,2.170257,57.14643,35.39
3,-0.09205627,0.03843689,0.9950104,1.0,-0.1220245,0.03076172,0.9920349,-32.26047,4.601456,-27.4747,4.500107,0.5477586,0.4249858,1.0,-0.01290894,0.05841064,0.9981995,36.5302,4.791763,-30.42352,4.666351000000001,0.3673539,0.4247679,-0.6417301,1.035617,-0.3575833,0.04134617,0.7297636,-0.104451,2.170257,57.14643,35.39
3,-0.02963257,0.01795959,0.9993896,1.0,-0.126709,-0.01693726,0.9917908,-32.24654,4.4688870000000005,-27.11206,4.310806,0.5474196,0.4318992,1.0,-0.02185059,0.02075195,0.9995421999999998,36.55157,4.678879,-30.2372,4.544586,0.3680390999999999,0.4315406,-0.6421895000000001,1.036845,-0.3574489,0.03827338,0.7300944,-0.1014972,2.170257,57.14643,35.39
3,-0.02963257,0.01795959,0.9993896,1.0,-0.126709,-0.01693726,0.9917908,-32.24654,4.4688870000000005,-27.11206,4.310806,0.5474196,0.4318992,1.0,-0.02185059,0.02075195,0.9995421999999998,36.55157,4.678879,-30.2372,4.544586,0.3680390999999999,0.4315406,-0.6421895000000001,1.036845,-0.3574489,0.03827338,0.7300944,-0.1014972,2.170257,57.14643,35.39
3,-0.02963257,0.01795959,0.9993896,1.0,-0.126709,-0.01693726,0.9917908,-32.24654,4.4688870000000005,-27.11206,4.310806,0.5474196,0.4318992,1.0,-0.02185059,0.02075195,0.9995421999999998,36.55157,4.678879,-30.2372,4.544586,0.3680390999999999,0.4315406,-0.6421895000000001,1.036845,-0.3574489,0.03827338,0.7300944,-0.1014972,2.170257,57.14643,35.39
3,-1.0,-1.0,-1.0,1.0,0.0,0.0,0.0,-31.79465,5.275162,-27.34978,-1.0,0.5296633000000001,0.3879762,1.0,0.0,0.0,0.0,36.63698,5.467361,-30.60075,-1.0,0.3609295999999999,0.3936158,-0.6426585,1.038209,-0.3573777,0.03490251,0.7304248000000001,-0.09733751,2.170257,57.14643,35.39
3,-1.0,-1.0,-1.0,1.0,0.0,0.0,0.0,-31.79465,5.275162,-27.34978,-1.0,0.5296633000000001,0.3879762,1.0,0.0,0.0,0.0,36.63698,5.467361,-30.60075,-1.0,0.3609295999999999,0.3936158,-0.6426585,1.038209,-0.3573777,0.03490251,0.7304248000000001,-0.09733751,2.170257,57.14643,35.39
3,-1.0,-1.0,-1.0,1.0,0.0,0.0,0.0,-31.79465,5.275162,-27.34978,-1.0,0.5296633000000001,0.3879762,1.0,0.0,0.0,0.0,36.63698,5.467361,-30.60075,-1.0,0.3609295999999999,0.3936158,-0.6426585,1.038209,-0.3573777,0.03490251,0.7304248000000001,-0.09733751,2.170257,57.14643,35.39
4,-1.0,-1.0,-1.0,1.0,0.0,0.0,0.0,-31.252440000000004,5.853226,-27.6423,-1.0,0.4985688,0.3470665999999999,1.0,0.0,0.0,0.0,37.0526,5.864548,-30.693890000000003,-1.0,0.3277058,0.3564242999999999,-0.6433045999999999,1.039323,-0.3573009,0.03242375,0.7303284999999999,-0.09367292,2.170257,57.14643,35.39
4,-1.0,-1.0,-1.0,1.0,0.0,0.0,0.0,-31.252440000000004,5.853226,-27.6423,-1.0,0.4985688,0.3470665999999999,1.0,0.0,0.0,0.0,37.0526,5.864548,-30.693890000000003,-1.0,0.3277058,0.3564242999999999,-0.6433045999999999,1.039323,-0.3573009,0.03242375,0.7303284999999999,-0.09367292,2.170257,57.14643,35.39
4,-1.0,-1.0,-1.0,1.0,0.0,0.0,0.0,-31.252440000000004,5.853226,-27.6423,-1.0,0.4985688,0.3470665999999999,1.0,0.0,0.0,0.0,37.0526,5.864548,-30.693890000000003,-1.0,0.3277058,0.3564242999999999,-0.6433045999999999,1.039323,-0.3573009,0.03242375,0.7303284999999999,-0.09367292,2.170257,57.14643,35.39
4,0.1325531,0.3635100999999999,0.9221039,1.0,0.08590698,0.3237152,0.9422302,-31.20221,5.516037,-27.57512,4.117645,0.4878045,0.3604516,1.0,0.1667632999999999,0.3920135,0.9047089,37.46634,5.676804,-30.780690000000003,4.563614,0.3111913,0.3550821,-0.6449265000000001,1.041044,-0.3568439,0.02792757,0.7299100000000001,-0.08921699,2.170257,71.5545,35.39
4,0.1325531,0.3635100999999999,0.9221039,1.0,0.08590698,0.3237152,0.9422302,-31.20221,5.516037,-27.57512,4.117645,0.4878045,0.3604516,1.0,0.1667632999999999,0.3920135,0.9047089,37.46634,5.676804,-30.780690000000003,4.563614,0.3111913,0.3550821,-0.6449265000000001,1.041044,-0.3568439,0.02792757,0.7299100000000001,-0.08921699,2.170257,71.5545,35.39
4,0.1325531,0.3635100999999999,0.9221039,1.0,0.08590698,0.3237152,0.9422302,-31.20221,5.516037,-27.57512,4.117645,0.4878045,0.3604516,1.0,0.1667632999999999,0.3920135,0.9047089,37.46634,5.676804,-30.780690000000003,4.563614,0.3111913,0.3550821,-0.6449265000000001,1.041044,-0.3568439,0.02792757,0.7299100000000001,-0.08921699,2.170257,71.5545,35.39
4,0.1150665,0.3580475,0.9265747,1.0,0.07452393,0.3022614,0.9503021,-31.21477,5.454773,-27.53857,4.136458999999999,0.4895666,0.3647598,1.0,0.1329041,0.3822632,0.9144287,37.54697,5.457642,-30.75201,4.4776,0.312945,0.3637654,-0.6457188,1.041867,-0.3566599,0.02620534,0.7294574,-0.08672054,2.170257,71.5545,35.39
4,0.1150665,0.3580475,0.9265747,1.0,0.07452393,0.3022614,0.9503021,-31.21477,5.454773,-27.53857,4.136458999999999,0.4895666,0.3647598,1.0,0.1329041,0.3822632,0.9144287,37.54697,5.457642,-30.75201,4.4776,0.312945,0.3637654,-0.6457188,1.041867,-0.3566599,0.02620534,0.7294574,-0.08672054,2.170257,71.5545,35.39
4,0.1150665,0.3580475,0.9265747,1.0,0.07452393,0.3022614,0.9503021,-31.21477,5.454773,-27.53857,4.136458999999999,0.4895666,0.3647598,1.0,0.1329041,0.3822632,0.9144287,37.54697,5.457642,-30.75201,4.4776,0.312945,0.3637654,-0.6457188,1.041867,-0.3566599,0.02620534,0.7294574,-0.08672054,2.170257,71.5545,35.39
4,0.1200561999999999,0.3403168,0.9326019,1.0,0.0750885,0.2986298,0.9514008,-31.21437,5.453247,-27.53786,4.138626,0.4894885999999999,0.3652324,1.0,0.1435852,0.3617554,0.9211426,37.55151,5.434219000000001,-30.72874,4.328003,0.3117664,0.3667341,-0.6457188,1.041867,-0.3566599,0.02620534,0.7294574,-0.08672054,2.170257,71.5545,35.39
4,0.1200561999999999,0.3403168,0.9326019,1.0,0.0750885,0.2986298,0.9514008,-31.21437,5.453247,-27.53786,4.138626,0.4894885999999999,0.3652324,1.0,0.1435852,0.3617554,0.9211426,37.55151,5.434219000000001,-30.72874,4.328003,0.3117664,0.3667341,-0.6457188,1.041867,-0.3566599,0.02620534,0.7294574,-0.08672054,2.170257,71.5545,35.39
4,0.1200561999999999,0.3403168,0.9326019,1.0,0.0750885,0.2986298,0.9514008,-31.21437,5.453247,-27.53786,4.138626,0.4894885999999999,0.3652324,1.0,0.1435852,0.3617554,0.9211426,37.55151,5.434219000000001,-30.72874,4.328003,0.3117664,0.3667341,-0.6457188,1.041867,-0.3566599,0.02620534,0.7294574,-0.08672054,2.170257,71.5545,35.39
4,0.113739,0.3383789,0.9340973,1.0,0.07421875,0.2947998,0.9526671999999998,-31.21396,5.451706,-27.53716,4.129913,0.4895666,0.365705,1.0,0.1374969,0.364151,0.9211273,37.55087,5.4278260000000005,-30.72995,4.391846,0.3124741,0.3667715,-0.6472585,1.043269,-0.3562235,0.02216745,0.7288796999999999,-0.08264016,2.170257,71.5545,35.39
4,0.113739,0.3383789,0.9340973,1.0,0.07421875,0.2947998,0.9526671999999998,-31.21396,5.451706,-27.53716,4.129913,0.4895666,0.365705,1.0,0.1374969,0.364151,0.9211273,37.55087,5.4278260000000005,-30.72995,4.391846,0.3124741,0.3667715,-0.6472585,1.043269,-0.3562235,0.02216745,0.7288796999999999,-0.08264016,2.170257,71.5545,35.39
4,0.113739,0.3383789,0.9340973,1.0,0.07421875,0.2947998,0.9526671999999998,-31.21396,5.451706,-27.53716,4.129913,0.4895666,0.365705,1.0,0.1374969,0.364151,0.9211273,37.55087,5.4278260000000005,-30.72995,4.391846,0.3124741,0.3667715,-0.6472585,1.043269,-0.3562235,0.02216745,0.7288796999999999,-0.08264016,2.170257,71.5545,35.39
4,0.1217803999999999,0.3285369999999999,0.9365997,1.0,0.06855774,0.2595673,0.9632874,-31.21722,5.371246,-27.48236,4.01355,0.4901818,0.3719432,1.0,0.1535339,0.368988,0.9166565,37.54019,5.384506,-30.73177,4.452667,0.3107357,0.3677675,-0.6479621,1.043933,-0.3561581,0.02027929,0.7286701999999999,-0.0805928,2.170257,71.5545,35.39
4,0.1217803999999999,0.3285369999999999,0.9365997,1.0,0.06855774,0.2595673,0.9632874,-31.21722,5.371246,-27.48236,4.01355,0.4901818,0.3719432,1.0,0.1535339,0.368988,0.9166565,37.54019,5.384506,-30.73177,4.452667,0.3107357,0.3677675,-0.6479621,1.043933,-0.3561581,0.02027929,0.7286701999999999,-0.0805928,2.170257,71.5545,35.39
4,0.1217803999999999,0.3285369999999999,0.9365997,1.0,0.06855774,0.2595673,0.9632874,-31.21722,5.371246,-27.48236,4.01355,0.4901818,0.3719432,1.0,0.1535339,0.368988,0.9166565,37.54019,5.384506,-30.73177,4.452667,0.3107357,0.3677675,-0.6479621,1.043933,-0.3561581,0.02027929,0.7286701999999999,-0.0805928,2.170257,71.5545,35.39
4,0.1153412,0.2969513,0.9478912,1.0,0.06044006,0.2458038,0.9674225,-31.23871,5.317413,-27.47945,3.951065,0.4917808,0.3752733,1.0,0.1526031,0.3310089,0.9311981,37.529140000000005,5.293747,-30.68376,4.259079,0.3117744,0.3750491,-0.6485283000000001,1.044537,-0.3559386,0.01880022,0.7284951999999999,-0.07898567,2.170257,-10.22453,35.39
4,0.1153412,0.2969513,0.9478912,1.0,0.06044006,0.2458038,0.9674225,-31.23871,5.317413,-27.47945,3.951065,0.4917808,0.3752733,1.0,0.1526031,0.3310089,0.9311981,37.529140000000005,5.293747,-30.68376,4.259079,0.3117744,0.3750491,-0.6485283000000001,1.044537,-0.3559386,0.01880022,0.7284951999999999,-0.07898567,2.170257,-10.22453,35.39
4,0.1153412,0.2969513,0.9478912,1.0,0.06044006,0.2458038,0.9674225,-31.23871,5.317413,-27.47945,3.951065,0.4917808,0.3752733,1.0,0.1526031,0.3310089,0.9311981,37.529140000000005,5.293747,-30.68376,4.259079,0.3117744,0.3750491,-0.6485283000000001,1.044537,-0.3559386,0.01880022,0.7284951999999999,-0.07898567,2.170257,-10.22453,35.39
4,0.1127014,0.2977599999999999,0.9479523,1.0,0.06037903,0.2408295,0.9686737,-31.24435,5.287766,-27.477970000000003,3.914551,0.4919314,0.3768006,1.0,0.1483154,0.3358612,0.9301453000000002,37.52838,5.2762150000000005,-30.68971,4.194443,0.3124187,0.3750752,-0.6494534000000001,1.045607,-0.3556559999999999,0.01578157,0.7283679,-0.0758977,2.170257,-10.22453,35.39
4,0.1127014,0.2977599999999999,0.9479523,1.0,0.06037903,0.2408295,0.9686737,-31.24435,5.287766,-27.477970000000003,3.914551,0.4919314,0.3768006,1.0,0.1483154,0.3358612,0.9301453000000002,37.52838,5.2762150000000005,-30.68971,4.194443,0.3124187,0.3750752,-0.6494534000000001,1.045607,-0.3556559999999999,0.01578157,0.7283679,-0.0758977,2.170257,-10.22453,35.39
4,0.1127014,0.2977599999999999,0.9479523,1.0,0.06037903,0.2408295,0.9686737,-31.24435,5.287766,-27.477970000000003,3.914551,0.4919314,0.3768006,1.0,0.1483154,0.3358612,0.9301453000000002,37.52838,5.2762150000000005,-30.68971,4.194443,0.3124187,0.3750752,-0.6494534000000001,1.045607,-0.3556559999999999,0.01578157,0.7283679,-0.0758977,2.170257,-10.22453,35.39
4,0.1145019999999999,0.287796,0.9508057,1.0,0.0586853,0.2217102,0.9733429,-31.26132,5.240814,-27.46303,3.793976,0.4925576,0.3803415999999999,1.0,0.1514893,0.3308716,0.931427,37.51622,5.265334999999999,-30.6945,4.187576,0.3124714,0.3761004,-0.6494534000000001,1.045607,-0.3556559999999999,0.01578157,0.7283679,-0.0758977,2.170257,-10.22453,35.39
4,0.1145019999999999,0.287796,0.9508057,1.0,0.0586853,0.2217102,0.9733429,-31.26132,5.240814,-27.46303,3.793976,0.4925576,0.3803415999999999,1.0,0.1514893,0.3308716,0.931427,37.51622,5.265334999999999,-30.6945,4.187576,0.3124714,0.3761004,-0.6494534000000001,1.045607,-0.3556559999999999,0.01578157,0.7283679,-0.0758977,2.170257,-10.22453,35.39
4,0.1145019999999999,0.287796,0.9508057,1.0,0.0586853,0.2217102,0.9733429,-31.26132,5.240814,-27.46303,3.793976,0.4925576,0.3803415999999999,1.0,0.1514893,0.3308716,0.931427,37.51622,5.265334999999999,-30.6945,4.187576,0.3124714,0.3761004,-0.6494534000000001,1.045607,-0.3556559999999999,0.01578157,0.7283679,-0.0758977,2.170257,-10.22453,35.39
4,0.1145019999999999,0.287796,0.9508057,1.0,0.0586853,0.2217102,0.9733429,-31.26132,5.240814,-27.46303,3.793976,0.4925576,0.3803415999999999,1.0,0.1514893,0.3308716,0.931427,37.51622,5.265334999999999,-30.6945,4.187576,0.3124714,0.3761004,-0.6491764,1.047127,-0.3550618,0.01344077,0.7284086,-0.07335588,2.170257,-10.22453,35.39
4,0.1145019999999999,0.287796,0.9508057,1.0,0.0586853,0.2217102,0.9733429,-31.26132,5.240814,-27.46303,3.793976,0.4925576,0.3803415999999999,1.0,0.1514893,0.3308716,0.931427,37.51622,5.265334999999999,-30.6945,4.187576,0.3124714,0.3761004,-0.6491764,1.047127,-0.3550618,0.01344077,0.7284086,-0.07335588,2.170257,-10.22453,35.39
4,0.1145019999999999,0.287796,0.9508057,1.0,0.0586853,0.2217102,0.9733429,-31.26132,5.240814,-27.46303,3.793976,0.4925576,0.3803415999999999,1.0,0.1514893,0.3308716,0.931427,37.51622,5.265334999999999,-30.6945,4.187576,0.3124714,0.3761004,-0.6491764,1.047127,-0.3550618,0.01344077,0.7284086,-0.07335588,2.170257,-10.22453,35.39
4,0.1145019999999999,0.287796,0.9508057,1.0,0.0586853,0.2217102,0.9733429,-31.26132,5.240814,-27.46303,3.793976,0.4925576,0.3803415999999999,1.0,0.1514893,0.3308716,0.931427,37.51622,5.265334999999999,-30.6945,4.187576,0.3124714,0.3761004,-0.6491764,1.047127,-0.3550618,0.01344077,0.7284086,-0.07335588,2.170257,-71.81746,35.39
4,0.1145019999999999,0.287796,0.9508057,1.0,0.0586853,0.2217102,0.9733429,-31.26132,5.240814,-27.46303,3.793976,0.4925576,0.3803415999999999,1.0,0.1514893,0.3308716,0.931427,37.51622,5.265334999999999,-30.6945,4.187576,0.3124714,0.3761004,-0.6491764,1.047127,-0.3550618,0.01344077,0.7284086,-0.07335588,2.170257,-71.81746,35.39
4,0.1145019999999999,0.287796,0.9508057,1.0,0.0586853,0.2217102,0.9733429,-31.26132,5.240814,-27.46303,3.793976,0.4925576,0.3803415999999999,1.0,0.1514893,0.3308716,0.931427,37.51622,5.265334999999999,-30.6945,4.187576,0.3124714,0.3761004,-0.6491764,1.047127,-0.3550618,0.01344077,0.7284086,-0.07335588,2.170257,-71.81746,35.39
4,0.1112213,0.2512665,0.9615021,1.0,0.06010437,0.2135772999999999,0.9750671,-31.308090000000004,5.15715,-27.4404,3.741135,0.4938901,0.3838964,1.0,0.1515503,0.2805023,0.9477997,37.51228,5.126587000000001,-30.617890000000003,4.021164,0.3131554,0.3862975,-0.6497829,1.04758,-0.3557391,0.01154484,0.7283145000000001,-0.07148106,2.170257,-71.81746,35.39
4,0.1112213,0.2512665,0.9615021,1.0,0.06010437,0.2135772999999999,0.9750671,-31.308090000000004,5.15715,-27.4404,3.741135,0.4938901,0.3838964,1.0,0.1515503,0.2805023,0.9477997,37.51228,5.126587000000001,-30.617890000000003,4.021164,0.3131554,0.3862975,-0.6497829,1.04758,-0.3557391,0.01154484,0.7283145000000001,-0.07148106,2.170257,-71.81746,35.39
4,0.1112213,0.2512665,0.9615021,1.0,0.06010437,0.2135772999999999,0.9750671,-31.308090000000004,5.15715,-27.4404,3.741135,0.4938901,0.3838964,1.0,0.1515503,0.2805023,0.9477997,37.51228,5.126587000000001,-30.617890000000003,4.021164,0.3131554,0.3862975,-0.6497829,1.04758,-0.3557391,0.01154484,0.7283145000000001,-0.07148106,2.170257,-71.81746,35.39
4,0.1057434,0.2409821,0.9647369,1.0,0.05705261,0.2110900999999999,0.9757843,-31.30869,5.116683999999999,-27.43286,3.664825,0.4941774999999999,0.3854063,1.0,0.1488342,0.2669525,0.9521332,37.51494,5.116562,-30.61063,3.921143,0.3135792999999999,0.3881216,-0.6497829,1.04758,-0.3557391,0.01154484,0.7283145000000001,-0.07148106,2.170257,-71.81746,35.39
4,0.1057434,0.2409821,0.9647369,1.0,0.05705261,0.2110900999999999,0.9757843,-31.30869,5.116683999999999,-27.43286,3.664825,0.4941774999999999,0.3854063,1.0,0.1488342,0.2669525,0.9521332,37.51494,5.116562,-30.61063,3.921143,0.3135792999999999,0.3881216,-0.6497829,1.04758,-0.3557391,0.01154484,0.7283145000000001,-0.07148106,2.170257,-71.81746,35.39
4,0.1057434,0.2409821,0.9647369,1.0,0.05705261,0.2110900999999999,0.9757843,-31.30869,5.116683999999999,-27.43286,3.664825,0.4941774999999999,0.3854063,1.0,0.1488342,0.2669525,0.9521332,37.51494,5.116562,-30.61063,3.921143,0.3135792999999999,0.3881216,-0.6497829,1.04758,-0.3557391,0.01154484,0.7283145000000001,-0.07148106,2.170257,-71.81746,35.39
4,0.09735107,0.2206572999999999,0.9704742,1.0,0.05307007,0.1905518,0.9802246,-31.30765,5.075699,-27.41342,3.611084,0.4945314999999999,0.3889492,1.0,0.1282043,0.2413635,0.9619141,37.50887,5.06778,-30.581390000000003,3.750153,0.3167365,0.3925464,-0.6505806,1.047765,-0.35593,0.00999114,0.7285064,-0.06991582,2.170257,-71.81746,35.39
4,0.09735107,0.2206572999999999,0.9704742,1.0,0.05307007,0.1905518,0.9802246,-31.30765,5.075699,-27.41342,3.611084,0.4945314999999999,0.3889492,1.0,0.1282043,0.2413635,0.9619141,37.50887,5.06778,-30.581390000000003,3.750153,0.3167365,0.3925464,-0.6505806,1.047765,-0.35593,0.00999114,0.7285064,-0.06991582,2.170257,-71.81746,35.39
4,0.09735107,0.2206572999999999,0.9704742,1.0,0.05307007,0.1905518,0.9802246,-31.30765,5.075699,-27.41342,3.611084,0.4945314999999999,0.3889492,1.0,0.1282043,0.2413635,0.9619141,37.50887,5.06778,-30.581390000000003,3.750153,0.3167365,0.3925464,-0.6505806,1.047765,-0.35593,0.00999114,0.7285064,-0.06991582,2.170257,-71.81746,35.39
4,0.09089661,0.2205353,0.9711304,1.0,0.05119324,0.1899414,0.9804535,-31.30765,5.064896,-27.40108,3.541733,0.4946736,0.3892083,1.0,0.1179047,0.2411498999999999,0.9632874,37.50551,5.053452,-30.58162,3.692261,0.3182355,0.3930524,-0.6505806,1.047765,-0.35593,0.00999114,0.7285064,-0.06991582,2.170257,-71.81746,35.39
4,0.09089661,0.2205353,0.9711304,1.0,0.05119324,0.1899414,0.9804535,-31.30765,5.064896,-27.40108,3.541733,0.4946736,0.3892083,1.0,0.1179047,0.2411498999999999,0.9632874,37.50551,5.053452,-30.58162,3.692261,0.3182355,0.3930524,-0.6505806,1.047765,-0.35593,0.00999114,0.7285064,-0.06991582,2.170257,-71.81746,35.39
4,0.09089661,0.2205353,0.9711304,1.0,0.05119324,0.1899414,0.9804535,-31.30765,5.064896,-27.40108,3.541733,0.4946736,0.3892083,1.0,0.1179047,0.2411498999999999,0.9632874,37.50551,5.053452,-30.58162,3.692261,0.3182355,0.3930524,-0.6505806,1.047765,-0.35593,0.00999114,0.7285064,-0.06991582,2.170257,-71.81746,35.39
4,0.09718323,0.1975097999999999,0.9754639,1.0,0.04252625,0.1519927999999999,0.9874573,-31.33318,4.971069,-27.31912,3.477982,0.4964335,0.396065,1.0,0.125946,0.2212219,0.967041,37.4312,5.043671,-30.56743,3.687164,0.319918,0.3957295,-0.6506369000000001,1.048017,-0.3559806,0.009351734,0.7286473000000001,-0.06914064,2.170257,-71.81746,35.39
4,0.09718323,0.1975097999999999,0.9754639,1.0,0.04252625,0.1519927999999999,0.9874573,-31.33318,4.971069,-27.31912,3.477982,0.4964335,0.396065,1.0,0.125946,0.2212219,0.967041,37.4312,5.043671,-30.56743,3.687164,0.319918,0.3957295,-0.6506369000000001,1.048017,-0.3559806,0.009351734,0.7286473000000001,-0.06914064,2.170257,-71.81746,35.39
4,0.09718323,0.1975097999999999,0.9754639,1.0,0.04252625,0.1519927999999999,0.9874573,-31.33318,4.971069,-27.31912,3.477982,0.4964335,0.396065,1.0,0.125946,0.2212219,0.967041,37.4312,5.043671,-30.56743,3.687164,0.319918,0.3957295,-0.6506369000000001,1.048017,-0.3559806,0.009351734,0.7286473000000001,-0.06914064,2.170257,-71.81746,35.39
4,0.09718323,0.1975097999999999,0.9754639,1.0,0.04252625,0.1519927999999999,0.9874573,-31.33318,4.971069,-27.31912,3.477982,0.4964335,0.396065,1.0,0.125946,0.2212219,0.967041,37.4312,5.043671,-30.56743,3.687164,0.319918,0.3957295,-0.6509588000000001,1.047965,-0.3561055999999999,0.009135314,0.7287340999999999,-0.06880648,2.170257,39.94521,35.39
4,0.09718323,0.1975097999999999,0.9754639,1.0,0.04252625,0.1519927999999999,0.9874573,-31.33318,4.971069,-27.31912,3.477982,0.4964335,0.396065,1.0,0.125946,0.2212219,0.967041,37.4312,5.043671,-30.56743,3.687164,0.319918,0.3957295,-0.6509588000000001,1.047965,-0.3561055999999999,0.009135314,0.7287340999999999,-0.06880648,2.170257,39.94521,35.39
4,0.09718323,0.1975097999999999,0.9754639,1.0,0.04252625,0.1519927999999999,0.9874573,-31.33318,4.971069,-27.31912,3.477982,0.4964335,0.396065,1.0,0.125946,0.2212219,0.967041,37.4312,5.043671,-30.56743,3.687164,0.319918,0.3957295,-0.6509588000000001,1.047965,-0.3561055999999999,0.009135314,0.7287340999999999,-0.06880648,2.170257,39.94521,35.39
4,0.09718323,0.1975097999999999,0.9754639,1.0,0.04252625,0.1519927999999999,0.9874573,-31.33318,4.971069,-27.31912,3.477982,0.4964335,0.396065,1.0,0.125946,0.2212219,0.967041,37.4312,5.043671,-30.56743,3.687164,0.319918,0.3957295,-0.6513321,1.047949,-0.3563724,0.008189635,0.7290831,-0.0678903,2.170257,39.94521,35.39
4,0.09718323,0.1975097999999999,0.9754639,1.0,0.04252625,0.1519927999999999,0.9874573,-31.33318,4.971069,-27.31912,3.477982,0.4964335,0.396065,1.0,0.125946,0.2212219,0.967041,37.4312,5.043671,-30.56743,3.687164,0.319918,0.3957295,-0.6513321,1.047949,-0.3563724,0.008189635,0.7290831,-0.0678903,2.170257,39.94521,35.39
4,0.09718323,0.1975097999999999,0.9754639,1.0,0.04252625,0.1519927999999999,0.9874573,-31.33318,4.971069,-27.31912,3.477982,0.4964335,0.396065,1.0,0.125946,0.2212219,0.967041,37.4312,5.043671,-30.56743,3.687164,0.319918,0.3957295,-0.6513321,1.047949,-0.3563724,0.008189635,0.7290831,-0.0678903,2.170257,39.94521,35.39
4,-0.03092957,0.1276245,0.991333,1.0,-0.1216431,0.07791138,0.989502,-32.15401,4.719405999999999,-27.29945,3.4258269999999995,0.5433955,0.4132034,1.0,-0.02954102,0.1283722,0.991272,36.53314,4.931442,-30.54208,3.718506,0.3705151,0.4118925,-0.6513321,1.047949,-0.3563724,0.008189635,0.7290831,-0.0678903,2.170257,39.94521,35.39
4,-0.03092957,0.1276245,0.991333,1.0,-0.1216431,0.07791138,0.989502,-32.15401,4.719405999999999,-27.29945,3.4258269999999995,0.5433955,0.4132034,1.0,-0.02954102,0.1283722,0.991272,36.53314,4.931442,-30.54208,3.718506,0.3705151,0.4118925,-0.6513321,1.047949,-0.3563724,0.008189635,0.7290831,-0.0678903,2.170257,39.94521,35.39
4,-0.03092957,0.1276245,0.991333,1.0,-0.1216431,0.07791138,0.989502,-32.15401,4.719405999999999,-27.29945,3.4258269999999995,0.5433955,0.4132034,1.0,-0.02954102,0.1283722,0.991272,36.53314,4.931442,-30.54208,3.718506,0.3705151,0.4118925,-0.6513321,1.047949,-0.3563724,0.008189635,0.7290831,-0.0678903,2.170257,39.94521,35.39
4,-0.04467773,0.1237488,0.9913025,1.0,-0.1214446999999999,0.0703125,0.990097,-32.16672,4.719635,-27.30406,3.431915,0.5438015,0.4141202,1.0,-0.03295898,0.1317749,0.9907226999999998,36.54599,4.912033,-30.56628,3.771347,0.3703759,0.4124054,-0.65136,1.047879,-0.3565522,0.007844383,0.7290699,-0.06883819,2.170257,39.94521,35.39
4,-0.04467773,0.1237488,0.9913025,1.0,-0.1214446999999999,0.0703125,0.990097,-32.16672,4.719635,-27.30406,3.431915,0.5438015,0.4141202,1.0,-0.03295898,0.1317749,0.9907226999999998,36.54599,4.912033,-30.56628,3.771347,0.3703759,0.4124054,-0.65136,1.047879,-0.3565522,0.007844383,0.7290699,-0.06883819,2.170257,39.94521,35.39
4,-0.04467773,0.1237488,0.9913025,1.0,-0.1214446999999999,0.0703125,0.990097,-32.16672,4.719635,-27.30406,3.431915,0.5438015,0.4141202,1.0,-0.03295898,0.1317749,0.9907226999999998,36.54599,4.912033,-30.56628,3.771347,0.3703759,0.4124054,-0.65136,1.047879,-0.3565522,0.007844383,0.7290699,-0.06883819,2.170257,39.94521,35.39
4,-0.06625366,0.1096344,0.9917603000000002,1.0,-0.1188048999999999,0.07000732,0.9904327,-32.17447,4.720581,-27.39534,3.430756,0.5438015,0.4148492999999999,1.0,-0.03453064,0.1332092,0.9904785,36.55063,4.904739,-30.57896,3.772171,0.3703886,0.4125842,-0.6514244,1.048,-0.3566518,0.007617911,0.7291728,-0.06869354,2.170257,39.94521,35.39
4,-0.06625366,0.1096344,0.9917603000000002,1.0,-0.1188048999999999,0.07000732,0.9904327,-32.17447,4.720581,-27.39534,3.430756,0.5438015,0.4148492999999999,1.0,-0.03453064,0.1332092,0.9904785,36.55063,4.904739,-30.57896,3.772171,0.3703886,0.4125842,-0.6514244,1.048,-0.3566518,0.007617911,0.7291728,-0.06869354,2.170257,39.94521,35.39
4,-0.06625366,0.1096344,0.9917603000000002,1.0,-0.1188048999999999,0.07000732,0.9904327,-32.17447,4.720581,-27.39534,3.430756,0.5438015,0.4148492999999999,1.0,-0.03453064,0.1332092,0.9904785,36.55063,4.904739,-30.57896,3.772171,0.3703886,0.4125842,-0.6514244,1.048,-0.3566518,0.007617911,0.7291728,-0.06869354,2.170257,39.94521,35.39
4,-0.05793762,0.1122741999999999,0.9919739,1.0,-0.1186829,0.06538391,0.9907684,-32.1915,4.719879,-27.40941,3.4280699999999995,0.5443661,0.4155312,1.0,-0.03640747,0.1286621,0.9910126,36.5556,4.907394,-30.60739,3.780441,0.3703926,0.4132832,-0.6514316,1.048101,-0.3567323,0.007396091,0.7291835,-0.06808011,2.170257,-3.26194,35.39
4,-0.05793762,0.1122741999999999,0.9919739,1.0,-0.1186829,0.06538391,0.9907684,-32.1915,4.719879,-27.40941,3.4280699999999995,0.5443661,0.4155312,1.0,-0.03640747,0.1286621,0.9910126,36.5556,4.907394,-30.60739,3.780441,0.3703926,0.4132832,-0.6514316,1.048101,-0.3567323,0.007396091,0.7291835,-0.06808011,2.170257,-3.26194,35.39
4,-0.05793762,0.1122741999999999,0.9919739,1.0,-0.1186829,0.06538391,0.9907684,-32.1915,4.719879,-27.40941,3.4280699999999995,0.5443661,0.4155312,1.0,-0.03640747,0.1286621,0.9910126,36.5556,4.907394,-30.60739,3.780441,0.3703926,0.4132832,-0.6514316,1.048101,-0.3567323,0.007396091,0.7291835,-0.06808011,2.170257,-3.26194,35.39
4,-0.05793762,0.1122741999999999,0.9919739,1.0,-0.1186829,0.06538391,0.9907684,-32.1915,4.719879,-27.40941,3.4280699999999995,0.5443661,0.4155312,1.0,-0.03640747,0.1286621,0.9910126,36.5556,4.907394,-30.60739,3.780441,0.3703926,0.4132832,-0.6514656999999999,1.048006,-0.3567967,0.007460783,0.7292479000000001,-0.06842087,2.170257,-3.26194,35.39
4,-0.05793762,0.1122741999999999,0.9919739,1.0,-0.1186829,0.06538391,0.9907684,-32.1915,4.719879,-27.40941,3.4280699999999995,0.5443661,0.4155312,1.0,-0.03640747,0.1286621,0.9910126,36.5556,4.907394,-30.60739,3.780441,0.3703926,0.4132832,-0.6514656999999999,1.048006,-0.3567967,0.007460783,0.7292479000000001,-0.06842087,2.170257,-3.26194,35.39
