Second,eye_comb_direction_x,eye_comb_direction_y,eye_comb_direction_z,eye_r_openness,eye_r_direction_x,eye_r_direction_y,eye_r_direction_z,eye_r_origin_x,eye_r_origin_y,eye_r_origin_z,eye_r_pupil_diameter,eye_r_pupil_position_x,eye_r_pupil_position_y,eye_l_openness,eye_l_direction_x,eye_l_direction_y,eye_l_direction_z,eye_l_origin_x,eye_l_origin_y,eye_l_origin_z,eye_l_pupil_diameter,eye_l_pupil_position_x,eye_l_pupil_position_y,head_position_x,head_position_y,head_position_z,head_rotation_roll,head_rotation_pitch,head_rotation_yaw,EDA,BVP,TMP
0,-0.02153015,0.1182708999999999,0.9927368,1.0,-0.05085754,0.1055908,0.993103,-34.4821,1.818176,-26.16165,4.310715,0.6129665,0.4989848,1.0,0.0401001,0.144516,0.988678,34.49646,-2.1914830000000003,-26.01503,4.552048,0.4327869000000001,0.6124545,-0.5534356,1.050377,-0.02958763,0.01133382,0.5948454000000001,-0.1030017,4.2322458634847315,0.8727273836284322,34.75083910700539
0,-0.02153015,0.1182708999999999,0.9927368,1.0,-0.05085754,0.1055908,0.993103,-34.4821,1.818176,-26.16165,4.310715,0.6129665,0.4989848,1.0,0.0401001,0.144516,0.988678,34.49646,-2.1914830000000003,-26.01503,4.552048,0.4327869000000001,0.6124545,-0.5534356,1.050377,-0.02958763,0.01133382,0.5948454000000001,-0.1030017,4.2322458634847315,0.8727273836284322,34.75083910700539
0,-0.02153015,0.1182708999999999,0.9927368,1.0,-0.05085754,0.1055908,0.993103,-34.4821,1.818176,-26.16165,4.310715,0.6129665,0.4989848,1.0,0.0401001,0.144516,0.988678,34.49646,-2.1914830000000003,-26.01503,4.552048,0.4327869000000001,0.6124545,-0.5534356,1.050377,-0.02958763,0.01133382,0.5948454000000001,-0.1030017,4.2322458634847315,0.8727273836284322,34.75083910700539
0,0.001907349,0.1175232,0.9930573,1.0,-0.05378723,0.1003418,0.9934845,-34.466570000000004,1.808304,-26.17349,4.271255,0.6127551999999999,0.4999759,1.0,0.04171753,0.1295471,0.9906921,34.500370000000004,-2.185486,-26.03929,4.508545,0.4324777,0.6141222,-0.5536544,1.050414,-0.02986944,0.01041218,0.5950884,-0.1029096,4.2322458634847315,0.8727273836284322,34.75083910700539
0,0.001907349,0.1175232,0.9930573,1.0,-0.05378723,0.1003418,0.9934845,-34.466570000000004,1.808304,-26.17349,4.271255,0.6127551999999999,0.4999759,1.0,0.04171753,0.1295471,0.9906921,34.500370000000004,-2.185486,-26.03929,4.508545,0.4324777,0.6141222,-0.5536544,1.050414,-0.02986944,0.01041218,0.5950884,-0.1029096,4.2322458634847315,0.8727273836284322,34.75083910700539
0,0.001907349,0.1175232,0.9930573,1.0,-0.05378723,0.1003418,0.9934845,-34.466570000000004,1.808304,-26.17349,4.271255,0.6127551999999999,0.4999759,1.0,0.04171753,0.1295471,0.9906921,34.500370000000004,-2.185486,-26.03929,4.508545,0.4324777,0.6141222,-0.5536544,1.050414,-0.02986944,0.01041218,0.5950884,-0.1029096,4.2322458634847315,0.8727273836284322,34.75083910700539
0,-0.03244019,0.1160889,0.9927063,1.0,-0.05551147,0.09950256,0.9934845,-34.46086,1.793396,-26.17978,4.256027,0.6127551999999999,0.5006121,1.0,0.03886414,0.1666717999999999,0.9852295,34.50127,-2.184631,-26.49594,4.518997,0.4324777,0.6141727,-0.5536969,1.050468,-0.0299359,0.01021933,0.5951484,-0.1028549,4.2322458634847315,0.8727273836284322,34.75083910700539
0,-0.03244019,0.1160889,0.9927063,1.0,-0.05551147,0.09950256,0.9934845,-34.46086,1.793396,-26.17978,4.256027,0.6127551999999999,0.5006121,1.0,0.03886414,0.1666717999999999,0.9852295,34.50127,-2.184631,-26.49594,4.518997,0.4324777,0.6141727,-0.5536969,1.050468,-0.0299359,0.01021933,0.5951484,-0.1028549,4.2322458634847315,0.8727273836284322,34.75083910700539
0,-0.03244019,0.1160889,0.9927063,1.0,-0.05551147,0.09950256,0.9934845,-34.46086,1.793396,-26.17978,4.256027,0.6127551999999999,0.5006121,1.0,0.03886414,0.1666717999999999,0.9852295,34.50127,-2.184631,-26.49594,4.518997,0.4324777,0.6141727,-0.5536969,1.050468,-0.0299359,0.01021933,0.5951484,-0.1028549,4.2322458634847315,0.8727273836284322,34.75083910700539
0,-0.0546875,0.1007996,0.9933929,1.0,-0.05497742,0.1006317,0.9933929,-34.457370000000004,1.791718,-26.23267,4.214294000000001,0.6125977,0.5009372999999999,1.0,0.03985596,0.1541138,0.9872437,34.50227,-2.180374,-26.51854,4.483978,0.4323207,0.6156444000000001,-0.5537906,1.050583,-0.03012633,0.009868462,0.5953166999999999,-0.1027322,4.2322458634847315,38.20818,34.75083910700539
0,-0.0546875,0.1007996,0.9933929,1.0,-0.05497742,0.1006317,0.9933929,-34.457370000000004,1.791718,-26.23267,4.214294000000001,0.6125977,0.5009372999999999,1.0,0.03985596,0.1541138,0.9872437,34.50227,-2.180374,-26.51854,4.483978,0.4323207,0.6156444000000001,-0.5537906,1.050583,-0.03012633,0.009868462,0.5953166999999999,-0.1027322,4.2322458634847315,38.20818,34.75083910700539
0,-0.0546875,0.1007996,0.9933929,1.0,-0.05497742,0.1006317,0.9933929,-34.457370000000004,1.791718,-26.23267,4.214294000000001,0.6125977,0.5009372999999999,1.0,0.03985596,0.1541138,0.9872437,34.50227,-2.180374,-26.51854,4.483978,0.4323207,0.6156444000000001,-0.5537906,1.050583,-0.03012633,0.009868462,0.5953166999999999,-0.1027322,4.2322458634847315,38.20818,34.75083910700539
0,-0.05393982,0.1007996,0.9934387,1.0,-0.05435181,0.1005554,0.9934387,-34.45671,1.790878,-26.23517,4.212097,0.612504,0.5009949,1.0,0.03970337,0.1531219,0.9873962,34.50227,-2.180374,-26.51854,4.472198000000001,0.4323488,0.6157416,-0.5538654000000001,1.050775,-0.0303297,0.009146317,0.5955589,-0.102476,4.2322458634847315,38.20818,34.75083910700539
0,-0.05393982,0.1007996,0.9934387,1.0,-0.05435181,0.1005554,0.9934387,-34.45671,1.790878,-26.23517,4.212097,0.612504,0.5009949,1.0,0.03970337,0.1531219,0.9873962,34.50227,-2.180374,-26.51854,4.472198000000001,0.4323488,0.6157416,-0.5538654000000001,1.050775,-0.0303297,0.009146317,0.5955589,-0.102476,4.2322458634847315,38.20818,34.75083910700539
0,-0.05393982,0.1007996,0.9934387,1.0,-0.05435181,0.1005554,0.9934387,-34.45671,1.790878,-26.23517,4.212097,0.612504,0.5009949,1.0,0.03970337,0.1531219,0.9873962,34.50227,-2.180374,-26.51854,4.472198000000001,0.4323488,0.6157416,-0.5538654000000001,1.050775,-0.0303297,0.009146317,0.5955589,-0.102476,4.2322458634847315,38.20818,34.75083910700539
1,-0.05393982,0.1007996,0.9934387,1.0,-0.05435181,0.1005554,0.9934387,-34.45671,1.790878,-26.23517,4.212097,0.612504,0.5009949,1.0,0.03970337,0.1531219,0.9873962,34.50227,-2.180374,-26.51854,4.472198000000001,0.4323488,0.6157416,-0.5540010999999999,1.050928,-0.03063017,0.00827381,0.595949,-0.1023763,4.2322458634847315,38.20818,34.75083910700539
1,-0.05393982,0.1007996,0.9934387,1.0,-0.05435181,0.1005554,0.9934387,-34.45671,1.790878,-26.23517,4.212097,0.612504,0.5009949,1.0,0.03970337,0.1531219,0.9873962,34.50227,-2.180374,-26.51854,4.472198000000001,0.4323488,0.6157416,-0.5540010999999999,1.050928,-0.03063017,0.00827381,0.595949,-0.1023763,4.2322458634847315,38.20818,34.75083910700539
1,-0.05393982,0.1007996,0.9934387,1.0,-0.05435181,0.1005554,0.9934387,-34.45671,1.790878,-26.23517,4.212097,0.612504,0.5009949,1.0,0.03970337,0.1531219,0.9873962,34.50227,-2.180374,-26.51854,4.472198000000001,0.4323488,0.6157416,-0.5540010999999999,1.050928,-0.03063017,0.00827381,0.595949,-0.1023763,4.2322458634847315,38.20818,34.75083910700539
1,-0.04910278,0.1027831999999999,0.9934845,1.0,-0.05406189,0.1000366,0.9934998,-34.4548,1.790131,-26.237340000000003,4.206085,0.6124034,0.5010904,1.0,0.04104614,0.151886,0.9875336,34.50125,-2.180374,-26.51854,4.465332,0.4322324999999999,0.6158663000000001,-0.5540252,1.051064,-0.03080964,0.007987915,0.5962,-0.1023677,4.2322458634847315,38.20818,34.75083910700539
1,-0.04910278,0.1027831999999999,0.9934845,1.0,-0.05406189,0.1000366,0.9934998,-34.4548,1.790131,-26.237340000000003,4.206085,0.6124034,0.5010904,1.0,0.04104614,0.151886,0.9875336,34.50125,-2.180374,-26.51854,4.465332,0.4322324999999999,0.6158663000000001,-0.5540252,1.051064,-0.03080964,0.007987915,0.5962,-0.1023677,4.2322458634847315,38.20818,34.75083910700539
1,-0.04910278,0.1027831999999999,0.9934845,1.0,-0.05406189,0.1000366,0.9934998,-34.4548,1.790131,-26.237340000000003,4.206085,0.6124034,0.5010904,1.0,0.04104614,0.151886,0.9875336,34.50125,-2.180374,-26.51854,4.465332,0.4322324999999999,0.6158663000000001,-0.5540252,1.051064,-0.03080964,0.007987915,0.5962,-0.1023677,4.2322458634847315,38.20818,34.75083910700539
1,0.002975464,0.1296234,0.9915466,1.0,-0.05024719,0.09724426,0.993988,-34.44728,1.790878,-26.25198,4.187729,0.6117035,0.5014890000000001,1.0,0.04129028,0.1526184,0.9874115,34.502559999999995,-2.212997,-26.46045,4.434067,0.4322218,0.6162711,-0.5541701,1.0512290000000002,-0.0310685,0.007413699,0.5967340999999999,-0.1021678,4.2322458634847315,38.20818,34.75083910700539
1,0.002975464,0.1296234,0.9915466,1.0,-0.05024719,0.09724426,0.993988,-34.44728,1.790878,-26.25198,4.187729,0.6117035,0.5014890000000001,1.0,0.04129028,0.1526184,0.9874115,34.502559999999995,-2.212997,-26.46045,4.434067,0.4322218,0.6162711,-0.5541701,1.0512290000000002,-0.0310685,0.007413699,0.5967340999999999,-0.1021678,4.2322458634847315,38.20818,34.75083910700539
1,0.002975464,0.1296234,0.9915466,1.0,-0.05024719,0.09724426,0.993988,-34.44728,1.790878,-26.25198,4.187729,0.6117035,0.5014890000000001,1.0,0.04129028,0.1526184,0.9874115,34.502559999999995,-2.212997,-26.46045,4.434067,0.4322218,0.6162711,-0.5541701,1.0512290000000002,-0.0310685,0.007413699,0.5967340999999999,-0.1021678,4.2322458634847315,38.20818,34.75083910700539
1,0.0003967285,0.1267853,0.9919281,1.0,-0.0496521,0.0965271,0.9940796,-34.44624,1.790878,-26.26048,4.177017,0.6115965999999999,0.5016224,1.0,0.04177856,0.151474,0.9875641,34.502559999999995,-2.215698,-26.450470000000003,4.406998000000001,0.4321944,0.6163635000000001,-0.5543056,1.051287,-0.03126729,0.006866387,0.5971251999999999,-0.1019213,4.2322458634847315,38.20818,34.75083910700539
1,0.0003967285,0.1267853,0.9919281,1.0,-0.0496521,0.0965271,0.9940796,-34.44624,1.790878,-26.26048,4.177017,0.6115965999999999,0.5016224,1.0,0.04177856,0.151474,0.9875641,34.502559999999995,-2.215698,-26.450470000000003,4.406998000000001,0.4321944,0.6163635000000001,-0.5543056,1.051287,-0.03126729,0.006866387,0.5971251999999999,-0.1019213,4.2322458634847315,38.20818,34.75083910700539
1,0.0003967285,0.1267853,0.9919281,1.0,-0.0496521,0.0965271,0.9940796,-34.44624,1.790878,-26.26048,4.177017,0.6115965999999999,0.5016224,1.0,0.04177856,0.151474,0.9875641,34.502559999999995,-2.215698,-26.450470000000003,4.406998000000001,0.4321944,0.6163635000000001,-0.5543056,1.051287,-0.03126729,0.006866387,0.5971251999999999,-0.1019213,4.2322458634847315,38.20818,34.75083910700539
1,0.0003967285,0.1267853,0.9919281,1.0,-0.0496521,0.0965271,0.9940796,-34.44624,1.790878,-26.26048,4.177017,0.6115965999999999,0.5016224,1.0,0.04177856,0.151474,0.9875641,34.502559999999995,-2.215698,-26.450470000000003,4.406998000000001,0.4321944,0.6163635000000001,-0.5544133000000001,1.051358,-0.03150892,0.006521914,0.5977184,-0.1017764999999999,4.2322458634847315,44.42836,34.75083910700539
1,0.0003967285,0.1267853,0.9919281,1.0,-0.0496521,0.0965271,0.9940796,-34.44624,1.790878,-26.26048,4.177017,0.6115965999999999,0.5016224,1.0,0.04177856,0.151474,0.9875641,34.502559999999995,-2.215698,-26.450470000000003,4.406998000000001,0.4321944,0.6163635000000001,-0.5544133000000001,1.051358,-0.03150892,0.006521914,0.5977184,-0.1017764999999999,4.2322458634847315,4.754791,34.75083910700539
1,0.0003967285,0.1267853,0.9919281,1.0,-0.0496521,0.0965271,0.9940796,-34.44624,1.790878,-26.26048,4.177017,0.6115965999999999,0.5016224,1.0,0.04177856,0.151474,0.9875641,34.502559999999995,-2.215698,-26.450470000000003,4.406998000000001,0.4321944,0.6163635000000001,-0.5544133000000001,1.051358,-0.03150892,0.006521914,0.5977184,-0.1017764999999999,4.2322458634847315,4.754791,34.75083910700539
1,0.0008392333999999,0.1243286,0.9922333,1.0,-0.04943848,0.09692383,0.9940491,-34.44498,1.791718,-26.28094,4.172073,0.61155,0.5017257,1.0,0.04267883,0.1468047999999999,0.9882355,34.50226,-2.216782,-26.44084,4.403656,0.4321058,0.6168388000000001,-0.5545041999999999,1.051418,-0.03164077,0.006274462,0.5981783,-0.1016936,4.2322458634847315,4.754791,34.75083910700539
1,0.0008392333999999,0.1243286,0.9922333,1.0,-0.04943848,0.09692383,0.9940491,-34.44498,1.791718,-26.28094,4.172073,0.61155,0.5017257,1.0,0.04267883,0.1468047999999999,0.9882355,34.50226,-2.216782,-26.44084,4.403656,0.4321058,0.6168388000000001,-0.5545041999999999,1.051418,-0.03164077,0.006274462,0.5981783,-0.1016936,4.2322458634847315,4.754791,34.75083910700539
1,0.0008392333999999,0.1243286,0.9922333,1.0,-0.04943848,0.09692383,0.9940491,-34.44498,1.791718,-26.28094,4.172073,0.61155,0.5017257,1.0,0.04267883,0.1468047999999999,0.9882355,34.50226,-2.216782,-26.44084,4.403656,0.4321058,0.6168388000000001,-0.5545041999999999,1.051418,-0.03164077,0.006274462,0.5981783,-0.1016936,4.2322458634847315,4.754791,34.75083910700539
1,0.00112915,0.1208801,0.9926605,1.0,-0.05032349,0.09159851,0.9945068,-34.44211,1.790131,-26.28094,4.168808,0.61155,0.5023810000000001,1.0,0.04370117,0.1447754,0.9884949,34.50125,-2.219589,-26.42027,4.402771,0.4320337,0.6169647,-0.5545161,1.051696,-0.03190267,0.005478905,0.5990691999999999,-0.1013011,4.2322458634847315,4.754791,34.75083910700539
1,0.00112915,0.1208801,0.9926605,1.0,-0.05032349,0.09159851,0.9945068,-34.44211,1.790131,-26.28094,4.168808,0.61155,0.5023810000000001,1.0,0.04370117,0.1447754,0.9884949,34.50125,-2.219589,-26.42027,4.402771,0.4320337,0.6169647,-0.5545161,1.051696,-0.03190267,0.005478905,0.5990691999999999,-0.1013011,4.2322458634847315,4.754791,34.75083910700539
1,0.00112915,0.1208801,0.9926605,1.0,-0.05032349,0.09159851,0.9945068,-34.44211,1.790131,-26.28094,4.168808,0.61155,0.5023810000000001,1.0,0.04370117,0.1447754,0.9884949,34.50125,-2.219589,-26.42027,4.402771,0.4320337,0.6169647,-0.5545161,1.051696,-0.03190267,0.005478905,0.5990691999999999,-0.1013011,4.2322458634847315,4.754791,34.75083910700539
1,0.00112915,0.1208801,0.9926605,1.0,-0.05032349,0.09159851,0.9945068,-34.44211,1.790131,-26.28094,4.168808,0.61155,0.5023810000000001,1.0,0.04370117,0.1447754,0.9884949,34.50125,-2.219589,-26.42027,4.402771,0.4320337,0.6169647,-0.5545878000000001,1.052001,-0.03229797,0.004616131,0.6006523,-0.1004245,4.2322458634847315,4.754791,34.75083910700539
1,0.00112915,0.1208801,0.9926605,1.0,-0.05032349,0.09159851,0.9945068,-34.44211,1.790131,-26.28094,4.168808,0.61155,0.5023810000000001,1.0,0.04370117,0.1447754,0.9884949,34.50125,-2.219589,-26.42027,4.402771,0.4320337,0.6169647,-0.5545878000000001,1.052001,-0.03229797,0.004616131,0.6006523,-0.1004245,4.2322458634847315,4.754791,34.75083910700539
1,0.00112915,0.1208801,0.9926605,1.0,-0.05032349,0.09159851,0.9945068,-34.44211,1.790131,-26.28094,4.168808,0.61155,0.5023810000000001,1.0,0.04370117,0.1447754,0.9884949,34.50125,-2.219589,-26.42027,4.402771,0.4320337,0.6169647,-0.5545878000000001,1.052001,-0.03229797,0.004616131,0.6006523,-0.1004245,4.2322458634847315,4.754791,34.75083910700539
1,0.01062012,0.1261292,0.9919434,1.0,-0.05148315,0.09744263,0.9938965,-34.41466,1.727829,-26.16882,4.155869,0.6106126000000001,0.5028186,1.0,0.04708862,0.1427155,0.9886322,34.50125,-2.219589,-26.42027,4.401108,0.4316424,0.6171951,-0.5545857,1.052316,-0.03271204,0.003918629,0.6024116999999999,-0.09932695,4.2322458634847315,4.754791,34.75083910700539
1,0.01062012,0.1261292,0.9919434,1.0,-0.05148315,0.09744263,0.9938965,-34.41466,1.727829,-26.16882,4.155869,0.6106126000000001,0.5028186,1.0,0.04708862,0.1427155,0.9886322,34.50125,-2.219589,-26.42027,4.401108,0.4316424,0.6171951,-0.5545857,1.052316,-0.03271204,0.003918629,0.6024116999999999,-0.09932695,4.2322458634847315,4.754791,34.75083910700539
1,0.01062012,0.1261292,0.9919434,1.0,-0.05148315,0.09744263,0.9938965,-34.41466,1.727829,-26.16882,4.155869,0.6106126000000001,0.5028186,1.0,0.04708862,0.1427155,0.9886322,34.50125,-2.219589,-26.42027,4.401108,0.4316424,0.6171951,-0.5545857,1.052316,-0.03271204,0.003918629,0.6024116999999999,-0.09932695,4.2322458634847315,4.754791,34.75083910700539
1,-0.3642882999999999,0.1796875,0.9137726,1.0,-0.4126434,0.1830444,0.8923035,-36.00352,2.132584,-26.63206,3.948532,0.7096392,0.4847822,1.0,-0.3004913,0.1746367999999999,0.9376526,32.77641,-1.544174,-26.80173,4.041046,0.5303995,0.5964111,-0.5546119,1.052835,-0.03364074,0.002212472,0.6061641999999999,-0.09659515,4.2322458634847315,4.754791,34.75083910700539
1,-0.3642882999999999,0.1796875,0.9137726,1.0,-0.4126434,0.1830444,0.8923035,-36.00352,2.132584,-26.63206,3.948532,0.7096392,0.4847822,1.0,-0.3004913,0.1746367999999999,0.9376526,32.77641,-1.544174,-26.80173,4.041046,0.5303995,0.5964111,-0.5546119,1.052835,-0.03364074,0.002212472,0.6061641999999999,-0.09659515,4.2322458634847315,4.754791,34.75083910700539
1,-0.3642882999999999,0.1796875,0.9137726,1.0,-0.4126434,0.1830444,0.8923035,-36.00352,2.132584,-26.63206,3.948532,0.7096392,0.4847822,1.0,-0.3004913,0.1746367999999999,0.9376526,32.77641,-1.544174,-26.80173,4.041046,0.5303995,0.5964111,-0.5546119,1.052835,-0.03364074,0.002212472,0.6061641999999999,-0.09659515,4.2322458634847315,4.754791,34.75083910700539
1,-0.3642882999999999,0.1796875,0.9137726,1.0,-0.4126434,0.1830444,0.8923035,-36.00352,2.132584,-26.63206,3.948532,0.7096392,0.4847822,1.0,-0.3004913,0.1746367999999999,0.9376526,32.77641,-1.544174,-26.80173,4.041046,0.5303995,0.5964111,-0.5545812,1.053348,-0.03465706,0.001291871,0.6105424,-0.0936821,4.2322458634847315,4.754791,34.75083910700539
1,-0.3642882999999999,0.1796875,0.9137726,1.0,-0.4126434,0.1830444,0.8923035,-36.00352,2.132584,-26.63206,3.948532,0.7096392,0.4847822,1.0,-0.3004913,0.1746367999999999,0.9376526,32.77641,-1.544174,-26.80173,4.041046,0.5303995,0.5964111,-0.5545812,1.053348,-0.03465706,0.001291871,0.6105424,-0.0936821,4.2322458634847315,4.754791,34.75083910700539
1,-0.3642882999999999,0.1796875,0.9137726,1.0,-0.4126434,0.1830444,0.8923035,-36.00352,2.132584,-26.63206,3.948532,0.7096392,0.4847822,1.0,-0.3004913,0.1746367999999999,0.9376526,32.77641,-1.544174,-26.80173,4.041046,0.5303995,0.5964111,-0.5545812,1.053348,-0.03465706,0.001291871,0.6105424,-0.0936821,4.2322458634847315,4.754791,34.75083910700539
1,-0.3642882999999999,0.1796875,0.9137726,1.0,-0.4126434,0.1830444,0.8923035,-36.00352,2.132584,-26.63206,3.948532,0.7096392,0.4847822,1.0,-0.3004913,0.1746367999999999,0.9376526,32.77641,-1.544174,-26.80173,4.041046,0.5303995,0.5964111,-0.5545076999999999,1.053901,-0.0359446999999999,0.0005179005,0.6164461999999999,-0.09044793,4.2322458634847315,-88.34549,34.75083910700539
1,-0.3642882999999999,0.1796875,0.9137726,1.0,-0.4126434,0.1830444,0.8923035,-36.00352,2.132584,-26.63206,3.948532,0.7096392,0.4847822,1.0,-0.3004913,0.1746367999999999,0.9376526,32.77641,-1.544174,-26.80173,4.041046,0.5303995,0.5964111,-0.5545076999999999,1.053901,-0.0359446999999999,0.0005179005,0.6164461999999999,-0.09044793,4.2322458634847315,-88.34549,34.75083910700539
1,-0.3642882999999999,0.1796875,0.9137726,1.0,-0.4126434,0.1830444,0.8923035,-36.00352,2.132584,-26.63206,3.948532,0.7096392,0.4847822,1.0,-0.3004913,0.1746367999999999,0.9376526,32.77641,-1.544174,-26.80173,4.041046,0.5303995,0.5964111,-0.5545076999999999,1.053901,-0.0359446999999999,0.0005179005,0.6164461999999999,-0.09044793,4.2322458634847315,-88.34549,34.75083910700539
1,-0.3252105999999999,0.1699982,0.9302216,1.0,-0.3910065,0.1809387,0.90242,-36.0184,2.137085,-26.61572,3.972626,0.7073373000000001,0.4845742999999999,1.0,-0.3020782,0.1660309,0.9387054,32.83826,-1.561264,-26.76976,3.967819,0.5286046999999999,0.5975909,-0.5542004,1.054918,-0.03847522,-0.0016354689999999,0.6273655,-0.08412305,4.2322458634847315,-88.34549,34.75083910700539
1,-0.3252105999999999,0.1699982,0.9302216,1.0,-0.3910065,0.1809387,0.90242,-36.0184,2.137085,-26.61572,3.972626,0.7073373000000001,0.4845742999999999,1.0,-0.3020782,0.1660309,0.9387054,32.83826,-1.561264,-26.76976,3.967819,0.5286046999999999,0.5975909,-0.5542004,1.054918,-0.03847522,-0.0016354689999999,0.6273655,-0.08412305,4.2322458634847315,-88.34549,34.75083910700539
1,-0.3252105999999999,0.1699982,0.9302216,1.0,-0.3910065,0.1809387,0.90242,-36.0184,2.137085,-26.61572,3.972626,0.7073373000000001,0.4845742999999999,1.0,-0.3020782,0.1660309,0.9387054,32.83826,-1.561264,-26.76976,3.967819,0.5286046999999999,0.5975909,-0.5542004,1.054918,-0.03847522,-0.0016354689999999,0.6273655,-0.08412305,4.2322458634847315,-88.34549,34.75083910700539
1,-0.2898102,0.1626434,0.943161,1.0,-0.3131256,0.1441498,0.9386902,-35.96545,2.024277,-26.51006,3.437622,0.6950856,0.4905635,1.0,-0.2749176,0.1742553999999999,0.9455261,32.96759,-1.736649,-26.7122,3.681946,0.5215062,0.6012947,-0.5540936,1.055919,-0.0408196999999999,-0.003416879,0.6373433000000001,-0.07841234,4.2322458634847315,-88.34549,34.75083910700539
1,-0.2898102,0.1626434,0.943161,1.0,-0.3131256,0.1441498,0.9386902,-35.96545,2.024277,-26.51006,3.437622,0.6950856,0.4905635,1.0,-0.2749176,0.1742553999999999,0.9455261,32.96759,-1.736649,-26.7122,3.681946,0.5215062,0.6012947,-0.5540936,1.055919,-0.0408196999999999,-0.003416879,0.6373433000000001,-0.07841234,4.2322458634847315,-88.34549,34.75083910700539
1,-0.2898102,0.1626434,0.943161,1.0,-0.3131256,0.1441498,0.9386902,-35.96545,2.024277,-26.51006,3.437622,0.6950856,0.4905635,1.0,-0.2749176,0.1742553999999999,0.9455261,32.96759,-1.736649,-26.7122,3.681946,0.5215062,0.6012947,-0.5540936,1.055919,-0.0408196999999999,-0.003416879,0.6373433000000001,-0.07841234,4.2322458634847315,-88.34549,34.75083910700539
1,-0.2898102,0.1626434,0.943161,1.0,-0.3131256,0.1441498,0.9386902,-35.96545,2.024277,-26.51006,3.437622,0.6950856,0.4905635,1.0,-0.2749176,0.1742553999999999,0.9455261,32.96759,-1.736649,-26.7122,3.681946,0.5215062,0.6012947,-0.553417,1.057889,-0.04521036,-0.006282175,0.6558371000000001,-0.06942265,4.2322458634847315,-88.34549,34.75083910700539
1,-0.2898102,0.1626434,0.943161,1.0,-0.3131256,0.1441498,0.9386902,-35.96545,2.024277,-26.51006,3.437622,0.6950856,0.4905635,1.0,-0.2749176,0.1742553999999999,0.9455261,32.96759,-1.736649,-26.7122,3.681946,0.5215062,0.6012947,-0.553417,1.057889,-0.04521036,-0.006282175,0.6558371000000001,-0.06942265,4.2322458634847315,-88.34549,34.75083910700539
1,-0.2898102,0.1626434,0.943161,1.0,-0.3131256,0.1441498,0.9386902,-35.96545,2.024277,-26.51006,3.437622,0.6950856,0.4905635,1.0,-0.2749176,0.1742553999999999,0.9455261,32.96759,-1.736649,-26.7122,3.681946,0.5215062,0.6012947,-0.553417,1.057889,-0.04521036,-0.006282175,0.6558371000000001,-0.06942265,4.2322458634847315,-88.34549,34.75083910700539
1,-0.2898102,0.1626434,0.943161,1.0,-0.3131256,0.1441498,0.9386902,-35.96545,2.024277,-26.51006,3.437622,0.6950856,0.4905635,1.0,-0.2749176,0.1742553999999999,0.9455261,32.96759,-1.736649,-26.7122,3.681946,0.5215062,0.6012947,-0.553581,1.058944,-0.04888815,-0.008875527,0.6704502,-0.06259333,4.2322458634847315,45.66705,34.75083910700539
1,-0.2898102,0.1626434,0.943161,1.0,-0.3131256,0.1441498,0.9386902,-35.96545,2.024277,-26.51006,3.437622,0.6950856,0.4905635,1.0,-0.2749176,0.1742553999999999,0.9455261,32.96759,-1.736649,-26.7122,3.681946,0.5215062,0.6012947,-0.553581,1.058944,-0.04888815,-0.008875527,0.6704502,-0.06259333,3.853844,73.86147,34.75083910700539
1,-0.2898102,0.1626434,0.943161,1.0,-0.3131256,0.1441498,0.9386902,-35.96545,2.024277,-26.51006,3.437622,0.6950856,0.4905635,1.0,-0.2749176,0.1742553999999999,0.9455261,32.96759,-1.736649,-26.7122,3.681946,0.5215062,0.6012947,-0.553581,1.058944,-0.04888815,-0.008875527,0.6704502,-0.06259333,3.853844,73.86147,34.75083910700539
1,-0.2416992,0.1729889,0.9547882,1.0,-0.2730712999999999,0.1218567,0.9542389,-35.85425,1.799957,-26.44633,3.217346,0.6859472,0.4996741,1.0,-0.227478,0.1955109,0.953949,33.05511,-1.838287,-26.6597,3.3798220000000003,0.5134572000000001,0.6008539,-0.555423,1.062552,-0.06288201,-0.0178857,0.720974,-0.04163117,3.757739,73.86147,34.75083910700539
1,-0.2416992,0.1729889,0.9547882,1.0,-0.2730712999999999,0.1218567,0.9542389,-35.85425,1.799957,-26.44633,3.217346,0.6859472,0.4996741,1.0,-0.227478,0.1955109,0.953949,33.05511,-1.838287,-26.6597,3.3798220000000003,0.5134572000000001,0.6008539,-0.555423,1.062552,-0.06288201,-0.0178857,0.720974,-0.04163117,3.757739,73.86147,34.75083910700539
1,-0.2416992,0.1729889,0.9547882,1.0,-0.2730712999999999,0.1218567,0.9542389,-35.85425,1.799957,-26.44633,3.217346,0.6859472,0.4996741,1.0,-0.227478,0.1955109,0.953949,33.05511,-1.838287,-26.6597,3.3798220000000003,0.5134572000000001,0.6008539,-0.555423,1.062552,-0.06288201,-0.0178857,0.720974,-0.04163117,3.757739,73.86147,34.75083910700539
1,-0.3238373,0.1871642999999999,0.9273987,1.0,-0.3719177,0.1690826,0.9127197,-36.13507,1.853622,-26.617420000000003,3.249054,0.7086776,0.4945242,1.0,-0.2684325999999999,0.206955,0.9407959,32.65521,-1.6873470000000002,-26.81691,3.271255,0.5319731,0.5962626,-0.5573232,1.06416,-0.07026404,-0.02205287,0.7449526999999999,-0.03309232,3.757739,73.86147,34.75083910700539
1,-0.3238373,0.1871642999999999,0.9273987,1.0,-0.3719177,0.1690826,0.9127197,-36.13507,1.853622,-26.617420000000003,3.249054,0.7086776,0.4945242,1.0,-0.2684325999999999,0.206955,0.9407959,32.65521,-1.6873470000000002,-26.81691,3.271255,0.5319731,0.5962626,-0.5573232,1.06416,-0.07026404,-0.02205287,0.7449526999999999,-0.03309232,3.757739,73.86147,34.75083910700539
1,-0.3238373,0.1871642999999999,0.9273987,1.0,-0.3719177,0.1690826,0.9127197,-36.13507,1.853622,-26.617420000000003,3.249054,0.7086776,0.4945242,1.0,-0.2684325999999999,0.206955,0.9407959,32.65521,-1.6873470000000002,-26.81691,3.271255,0.5319731,0.5962626,-0.5573232,1.06416,-0.07026404,-0.02205287,0.7449526999999999,-0.03309232,3.757739,73.86147,34.75083910700539
1,-0.2502899,0.1629486,0.9543457,1.0,-0.2817383,0.1364594,0.9497223,-35.56804,1.7148439999999998,-26.41245,3.085083,0.6771361,0.5004130999999999,1.0,-0.2272339,0.1819762999999999,0.9566803,33.27469,-2.051422,-26.60126,3.2724,0.5061858,0.6088015999999999,-0.5596983,1.065546,-0.07701987,-0.0260269,0.7644284,-0.02642547,3.757739,73.86147,34.75083910700539
1,-0.2502899,0.1629486,0.9543457,1.0,-0.2817383,0.1364594,0.9497223,-35.56804,1.7148439999999998,-26.41245,3.085083,0.6771361,0.5004130999999999,1.0,-0.2272339,0.1819762999999999,0.9566803,33.27469,-2.051422,-26.60126,3.2724,0.5061858,0.6088015999999999,-0.5596983,1.065546,-0.07701987,-0.0260269,0.7644284,-0.02642547,3.757739,73.86147,34.75083910700539
1,-0.2502899,0.1629486,0.9543457,1.0,-0.2817383,0.1364594,0.9497223,-35.56804,1.7148439999999998,-26.41245,3.085083,0.6771361,0.5004130999999999,1.0,-0.2272339,0.1819762999999999,0.9566803,33.27469,-2.051422,-26.60126,3.2724,0.5061858,0.6088015999999999,-0.5596983,1.065546,-0.07701987,-0.0260269,0.7644284,-0.02642547,3.757739,73.86147,34.75083910700539
1,-0.09915161,0.1511536,0.9835205,1.0,-0.155365,0.1269684,0.9796448,-35.03719,1.711823,-26.97447,3.04924,0.6442386,0.5058329,1.0,-0.0854187,0.1569672,0.983902,33.705890000000004,-2.2398830000000003,-26.46544,3.219193,0.4749751,0.6155768,-0.5632873,1.067252,-0.08464712,-0.03258089,0.7828251,-0.01957888,3.757739,73.86147,34.75083910700539
1,-0.09915161,0.1511536,0.9835205,1.0,-0.155365,0.1269684,0.9796448,-35.03719,1.711823,-26.97447,3.04924,0.6442386,0.5058329,1.0,-0.0854187,0.1569672,0.983902,33.705890000000004,-2.2398830000000003,-26.46544,3.219193,0.4749751,0.6155768,-0.5632873,1.067252,-0.08464712,-0.03258089,0.7828251,-0.01957888,3.757739,73.86147,34.75083910700539
1,-0.09915161,0.1511536,0.9835205,1.0,-0.155365,0.1269684,0.9796448,-35.03719,1.711823,-26.97447,3.04924,0.6442386,0.5058329,1.0,-0.0854187,0.1569672,0.983902,33.705890000000004,-2.2398830000000003,-26.46544,3.219193,0.4749751,0.6155768,-0.5632873,1.067252,-0.08464712,-0.03258089,0.7828251,-0.01957888,3.757739,73.86147,34.75083910700539
1,-0.04319763,0.1228027,0.9914856,1.0,-0.111145,0.08285522,0.9903412,-34.610690000000005,1.621429,-26.30159,3.017273,0.6235291000000001,0.5079874,1.0,-0.04319763,0.1228027,0.9914856,34.06282,-2.191879,-26.34996,2.993225,0.4583464,0.6162704000000001,-0.5648568,1.068349,-0.08772033,-0.03727425,0.7893666,-0.01651292,3.757739,73.86147,35.41
1,-0.04319763,0.1228027,0.9914856,1.0,-0.111145,0.08285522,0.9903412,-34.610690000000005,1.621429,-26.30159,3.017273,0.6235291000000001,0.5079874,1.0,-0.04319763,0.1228027,0.9914856,34.06282,-2.191879,-26.34996,2.993225,0.4583464,0.6162704000000001,-0.5648568,1.068349,-0.08772033,-0.03727425,0.7893666,-0.01651292,3.757739,73.86147,35.41
1,-0.04319763,0.1228027,0.9914856,1.0,-0.111145,0.08285522,0.9903412,-34.610690000000005,1.621429,-26.30159,3.017273,0.6235291000000001,0.5079874,1.0,-0.04319763,0.1228027,0.9914856,34.06282,-2.191879,-26.34996,2.993225,0.4583464,0.6162704000000001,-0.5648568,1.068349,-0.08772033,-0.03727425,0.7893666,-0.01651292,3.757739,73.86147,35.41
1,0.01725769,0.1197205,0.9926453000000002,1.0,-0.01008606,0.0539856,0.9984894,-34.46245,2.529678,-29.75111,2.975128,0.6102955,0.5108005,1.0,0.01725769,0.1197205,0.9926453000000002,34.248059999999995,-2.142517,-27.00923,3.043045,0.4445187,0.6210299,-0.5677953,1.070336,-0.09303296,-0.04616461,0.7987388000000001,-0.01135549,3.757739,1.499054,35.41
1,0.01725769,0.1197205,0.9926453000000002,1.0,-0.01008606,0.0539856,0.9984894,-34.46245,2.529678,-29.75111,2.975128,0.6102955,0.5108005,1.0,0.01725769,0.1197205,0.9926453000000002,34.248059999999995,-2.142517,-27.00923,3.043045,0.4445187,0.6210299,-0.5677953,1.070336,-0.09303296,-0.04616461,0.7987388000000001,-0.01135549,3.757739,1.499054,35.41
1,0.01725769,0.1197205,0.9926453000000002,1.0,-0.01008606,0.0539856,0.9984894,-34.46245,2.529678,-29.75111,2.975128,0.6102955,0.5108005,1.0,0.01725769,0.1197205,0.9926453000000002,34.248059999999995,-2.142517,-27.00923,3.043045,0.4445187,0.6210299,-0.5677953,1.070336,-0.09303296,-0.04616461,0.7987388000000001,-0.01135549,3.757739,1.499054,35.41
1,0.04107666,0.07752991,0.9961395,1.0,-0.0316925,0.08169556,0.9961395,-34.28622,1.404938,-25.93137,3.147003,0.602712,0.5121684,1.0,0.04107666,0.07752991,0.9961395,34.39308,-2.423141,-25.94484,3.161728,0.4373004,0.6253642,-0.5691936,1.071806,-0.09532768,-0.05110338,0.8022138000000001,-0.007522444,3.757739,1.499054,35.41
1,0.04107666,0.07752991,0.9961395,1.0,-0.0316925,0.08169556,0.9961395,-34.28622,1.404938,-25.93137,3.147003,0.602712,0.5121684,1.0,0.04107666,0.07752991,0.9961395,34.39308,-2.423141,-25.94484,3.161728,0.4373004,0.6253642,-0.5691936,1.071806,-0.09532768,-0.05110338,0.8022138000000001,-0.007522444,3.757739,1.499054,35.41
1,0.04107666,0.07752991,0.9961395,1.0,-0.0316925,0.08169556,0.9961395,-34.28622,1.404938,-25.93137,3.147003,0.602712,0.5121684,1.0,0.04107666,0.07752991,0.9961395,34.39308,-2.423141,-25.94484,3.161728,0.4373004,0.6253642,-0.5691936,1.071806,-0.09532768,-0.05110338,0.8022138000000001,-0.007522444,3.757739,1.499054,35.41
1,0.06971741,0.09211731,0.9933014,1.0,0.002990723,0.05570984,0.9984283000000002,-34.1427,1.543549,-26.3307,3.129837,0.5941616,0.5139973,1.0,0.06971741,0.09211731,0.9933014,34.4718,-2.348892,-26.5602,3.153107,0.430874,0.6269305000000001,-0.5714109,1.073459,-0.09857541,-0.05741699,0.8070792,-0.003332989,3.757739,1.499054,35.41
1,0.06971741,0.09211731,0.9933014,1.0,0.002990723,0.05570984,0.9984283000000002,-34.1427,1.543549,-26.3307,3.129837,0.5941616,0.5139973,1.0,0.06971741,0.09211731,0.9933014,34.4718,-2.348892,-26.5602,3.153107,0.430874,0.6269305000000001,-0.5714109,1.073459,-0.09857541,-0.05741699,0.8070792,-0.003332989,3.757739,1.499054,35.41
1,0.06971741,0.09211731,0.9933014,1.0,0.002990723,0.05570984,0.9984283000000002,-34.1427,1.543549,-26.3307,3.129837,0.5941616,0.5139973,1.0,0.06971741,0.09211731,0.9933014,34.4718,-2.348892,-26.5602,3.153107,0.430874,0.6269305000000001,-0.5714109,1.073459,-0.09857541,-0.05741699,0.8070792,-0.003332989,3.757739,1.499054,35.41
1,0.01965332,0.04859924,0.9986115,1.0,0.01315308,0.04193115,0.9990234,-34.02811,1.632782,-26.94856,3.098846,0.5896698,0.5179956,1.0,0.073349,0.1036223999999999,0.9918976,34.602740000000004,-2.231384,-27.440340000000003,3.1287990000000003,0.4254507,0.6299442,-0.5748006999999999,1.075752,-0.1026862,-0.06689337,0.8125011999999999,0.005168204,3.757739,1.499054,35.41
1,0.01965332,0.04859924,0.9986115,1.0,0.01315308,0.04193115,0.9990234,-34.02811,1.632782,-26.94856,3.098846,0.5896698,0.5179956,1.0,0.073349,0.1036223999999999,0.9918976,34.602740000000004,-2.231384,-27.440340000000003,3.1287990000000003,0.4254507,0.6299442,-0.5748006999999999,1.075752,-0.1026862,-0.06689337,0.8125011999999999,0.005168204,3.757739,1.499054,35.41
1,0.01965332,0.04859924,0.9986115,1.0,0.01315308,0.04193115,0.9990234,-34.02811,1.632782,-26.94856,3.098846,0.5896698,0.5179956,1.0,0.073349,0.1036223999999999,0.9918976,34.602740000000004,-2.231384,-27.440340000000003,3.1287990000000003,0.4254507,0.6299442,-0.5748006999999999,1.075752,-0.1026862,-0.06689337,0.8125011999999999,0.005168204,3.757739,1.499054,35.41
1,0.04484558,0.01548767,0.9988708,1.0,0.04483032,0.01547241,0.9988708,-33.99149,1.697632,-26.87987,3.177185,0.5846806,0.5184522,1.0,0.1091003,0.08232117,0.9906006,34.642070000000004,-2.175171,-27.08665,3.233963,0.4200242,0.6273264000000001,-0.5789149,1.079512,-0.1069117,-0.08056622,0.8191586999999999,0.0173545999999999,3.757739,1.499054,35.41
1,0.04484558,0.01548767,0.9988708,1.0,0.04483032,0.01547241,0.9988708,-33.99149,1.697632,-26.87987,3.177185,0.5846806,0.5184522,1.0,0.1091003,0.08232117,0.9906006,34.642070000000004,-2.175171,-27.08665,3.233963,0.4200242,0.6273264000000001,-0.5789149,1.079512,-0.1069117,-0.08056622,0.8191586999999999,0.0173545999999999,3.757739,1.499054,35.41
1,0.04484558,0.01548767,0.9988708,1.0,0.04483032,0.01547241,0.9988708,-33.99149,1.697632,-26.87987,3.177185,0.5846806,0.5184522,1.0,0.1091003,0.08232117,0.9906006,34.642070000000004,-2.175171,-27.08665,3.233963,0.4200242,0.6273264000000001,-0.5789149,1.079512,-0.1069117,-0.08056622,0.8191586999999999,0.0173545999999999,3.757739,1.499054,35.41
1,-0.02030945,0.08139038,0.99646,1.0,-0.02030945,0.08139038,0.99646,-34.36497,1.621048,-25.78297,3.335617,0.6040566999999999,0.5039408,1.0,0.07937622,0.1485901,0.9857025,34.1904,-1.979446,-26.77332,3.370529,0.4390022,0.6103014,-0.581146,1.081421,-0.1090203,-0.08642393,0.8227454,0.0246647,3.757739,28.50909,35.41
1,-0.02030945,0.08139038,0.99646,1.0,-0.02030945,0.08139038,0.99646,-34.36497,1.621048,-25.78297,3.335617,0.6040566999999999,0.5039408,1.0,0.07937622,0.1485901,0.9857025,34.1904,-1.979446,-26.77332,3.370529,0.4390022,0.6103014,-0.581146,1.081421,-0.1090203,-0.08642393,0.8227454,0.0246647,3.757739,28.50909,35.41
1,-0.02030945,0.08139038,0.99646,1.0,-0.02030945,0.08139038,0.99646,-34.36497,1.621048,-25.78297,3.335617,0.6040566999999999,0.5039408,1.0,0.07937622,0.1485901,0.9857025,34.1904,-1.979446,-26.77332,3.370529,0.4390022,0.6103014,-0.581146,1.081421,-0.1090203,-0.08642393,0.8227454,0.0246647,3.757739,28.50909,35.41
1,-0.08700562,0.1664581,0.982193,1.0,-0.08700562,0.1664581,0.982193,-34.73505,2.458908,-26.844590000000004,3.3197940000000004,0.6258303000000001,0.4751718,1.0,-0.02088928,0.2213287,0.9749603,33.71457,-1.459122,-26.640320000000003,3.348099,0.4671177999999999,0.5835705,-0.5840951999999999,1.083458,-0.1112131,-0.09273291,0.8261940999999999,0.03339789,3.757739,28.50909,35.41
1,-0.08700562,0.1664581,0.982193,1.0,-0.08700562,0.1664581,0.982193,-34.73505,2.458908,-26.844590000000004,3.3197940000000004,0.6258303000000001,0.4751718,1.0,-0.02088928,0.2213287,0.9749603,33.71457,-1.459122,-26.640320000000003,3.348099,0.4671177999999999,0.5835705,-0.5840951999999999,1.083458,-0.1112131,-0.09273291,0.8261940999999999,0.03339789,3.757739,28.50909,35.41
1,-0.08700562,0.1664581,0.982193,1.0,-0.08700562,0.1664581,0.982193,-34.73505,2.458908,-26.844590000000004,3.3197940000000004,0.6258303000000001,0.4751718,1.0,-0.02088928,0.2213287,0.9749603,33.71457,-1.459122,-26.640320000000003,3.348099,0.4671177999999999,0.5835705,-0.5840951999999999,1.083458,-0.1112131,-0.09273291,0.8261940999999999,0.03339789,3.757739,28.50909,35.41
1,-0.1499481,0.2113037,0.9658356,1.0,-0.1499481,0.2113037,0.9658356,-34.757220000000004,2.446411,-26.86647,3.320374,0.6342686,0.470714,1.0,-0.06237793,0.2443542,0.9676666,33.61464,-1.4021,-26.693790000000003,3.408936,0.4753263,0.5797814,-0.5878181,1.086352,-0.1142045,-0.1015058,0.8312562,0.04394777,3.757739,28.50909,35.41
1,-0.1499481,0.2113037,0.9658356,1.0,-0.1499481,0.2113037,0.9658356,-34.757220000000004,2.446411,-26.86647,3.320374,0.6342686,0.470714,1.0,-0.06237793,0.2443542,0.9676666,33.61464,-1.4021,-26.693790000000003,3.408936,0.4753263,0.5797814,-0.5878181,1.086352,-0.1142045,-0.1015058,0.8312562,0.04394777,3.757739,28.50909,35.41
1,-0.1499481,0.2113037,0.9658356,1.0,-0.1499481,0.2113037,0.9658356,-34.757220000000004,2.446411,-26.86647,3.320374,0.6342686,0.470714,1.0,-0.06237793,0.2443542,0.9676666,33.61464,-1.4021,-26.693790000000003,3.408936,0.4753263,0.5797814,-0.5878181,1.086352,-0.1142045,-0.1015058,0.8312562,0.04394777,3.757739,28.50909,35.41
1,-0.1499481,0.2113037,0.9658356,1.0,-0.1499481,0.2113037,0.9658356,-34.757220000000004,2.446411,-26.86647,3.320374,0.6342686,0.470714,1.0,-0.06237793,0.2443542,0.9676666,33.61464,-1.4021,-26.693790000000003,3.408936,0.4753263,0.5797814,-0.5916104,1.088225,-0.1167581999999999,-0.1081686999999999,0.8360544,0.05298259,3.757739,28.50909,35.41
1,-0.1499481,0.2113037,0.9658356,1.0,-0.1499481,0.2113037,0.9658356,-34.757220000000004,2.446411,-26.86647,3.320374,0.6342686,0.470714,1.0,-0.06237793,0.2443542,0.9676666,33.61464,-1.4021,-26.693790000000003,3.408936,0.4753263,0.5797814,-0.5916104,1.088225,-0.1167581999999999,-0.1081686999999999,0.8360544,0.05298259,3.757739,28.50909,35.41
1,-0.1499481,0.2113037,0.9658356,1.0,-0.1499481,0.2113037,0.9658356,-34.757220000000004,2.446411,-26.86647,3.320374,0.6342686,0.470714,1.0,-0.06237793,0.2443542,0.9676666,33.61464,-1.4021,-26.693790000000003,3.408936,0.4753263,0.5797814,-0.5916104,1.088225,-0.1167581999999999,-0.1081686999999999,0.8360544,0.05298259,3.757739,28.50909,35.41
1,0.009429932,0.183075,0.9830475,1.0,-0.04846191,0.1232299999999999,0.9911804,-34.6032,1.848495,-26.29631,3.39888,0.6160759,0.4960273,1.0,0.009521484,0.1831512,0.9830322,33.98402,-1.981247,-26.57933,3.623825,0.4540751,0.6051298,-0.5962098000000001,1.09016,-0.1192454,-0.1137911,0.8411219000000001,0.06266679,3.757739,28.50909,35.41
1,0.009429932,0.183075,0.9830475,1.0,-0.04846191,0.1232299999999999,0.9911804,-34.6032,1.848495,-26.29631,3.39888,0.6160759,0.4960273,1.0,0.009521484,0.1831512,0.9830322,33.98402,-1.981247,-26.57933,3.623825,0.4540751,0.6051298,-0.5962098000000001,1.09016,-0.1192454,-0.1137911,0.8411219000000001,0.06266679,3.757739,28.50909,35.41
1,0.009429932,0.183075,0.9830475,1.0,-0.04846191,0.1232299999999999,0.9911804,-34.6032,1.848495,-26.29631,3.39888,0.6160759,0.4960273,1.0,0.009521484,0.1831512,0.9830322,33.98402,-1.981247,-26.57933,3.623825,0.4540751,0.6051298,-0.5962098000000001,1.09016,-0.1192454,-0.1137911,0.8411219000000001,0.06266679,3.757739,28.50909,35.41
2,0.0405426,0.131424,0.9904938,1.0,-0.04197693,0.1081238,0.9932404,-34.44405,1.594162,-26.45097,3.516617,0.6102018,0.5077494,1.0,0.05697632,0.1359558,0.9890594,34.19403,-2.271011,-26.446990000000003,3.63121,0.4414051999999999,0.6188884,-0.6000962,1.091474,-0.1213046,-0.1198066,0.8464733,0.06959678,3.757739,-75.46341,35.41
2,0.0405426,0.131424,0.9904938,1.0,-0.04197693,0.1081238,0.9932404,-34.44405,1.594162,-26.45097,3.516617,0.6102018,0.5077494,1.0,0.05697632,0.1359558,0.9890594,34.19403,-2.271011,-26.446990000000003,3.63121,0.4414051999999999,0.6188884,-0.6000962,1.091474,-0.1213046,-0.1198066,0.8464733,0.06959678,3.757739,-75.46341,35.41
2,0.0405426,0.131424,0.9904938,1.0,-0.04197693,0.1081238,0.9932404,-34.44405,1.594162,-26.45097,3.516617,0.6102018,0.5077494,1.0,0.05697632,0.1359558,0.9890594,34.19403,-2.271011,-26.446990000000003,3.63121,0.4414051999999999,0.6188884,-0.6000962,1.091474,-0.1213046,-0.1198066,0.8464733,0.06959678,3.757739,-75.46341,35.41
2,0.06472778,0.1239319,0.9901733,1.0,-0.01177979,0.09141541,0.9957428,-34.3587,1.475601,-26.30125,3.55632,0.6036149000000001,0.5123832,1.0,0.06755066,0.1251221,0.9898224,34.27086,-2.338242,-26.48351,3.56929,0.4375840999999999,0.6226292,-0.604346,1.092065,-0.1234711,-0.1231099,0.8522434000000001,0.07473724,3.757739,-75.46341,35.41
2,0.06472778,0.1239319,0.9901733,1.0,-0.01177979,0.09141541,0.9957428,-34.3587,1.475601,-26.30125,3.55632,0.6036149000000001,0.5123832,1.0,0.06755066,0.1251221,0.9898224,34.27086,-2.338242,-26.48351,3.56929,0.4375840999999999,0.6226292,-0.604346,1.092065,-0.1234711,-0.1231099,0.8522434000000001,0.07473724,3.757739,-75.46341,35.41
2,0.06472778,0.1239319,0.9901733,1.0,-0.01177979,0.09141541,0.9957428,-34.3587,1.475601,-26.30125,3.55632,0.6036149000000001,0.5123832,1.0,0.06755066,0.1251221,0.9898224,34.27086,-2.338242,-26.48351,3.56929,0.4375840999999999,0.6226292,-0.604346,1.092065,-0.1234711,-0.1231099,0.8522434000000001,0.07473724,3.757739,-75.46341,35.41
2,0.02381897,0.0763092,0.9967957,1.0,-0.004425049,0.06333923,0.9979706,-34.26846,1.447876,-26.26221,3.676163,0.5997838000000001,0.5163369999999999,1.0,0.07408142,0.09919739,0.9922943,34.38147,-2.555832,-25.536,3.747208,0.4335499,0.6241564000000001,-0.6077704,1.093403,-0.1252325,-0.1279392,0.8580124,0.08148196,3.757739,-75.46341,35.41
2,0.02381897,0.0763092,0.9967957,1.0,-0.004425049,0.06333923,0.9979706,-34.26846,1.447876,-26.26221,3.676163,0.5997838000000001,0.5163369999999999,1.0,0.07408142,0.09919739,0.9922943,34.38147,-2.555832,-25.536,3.747208,0.4335499,0.6241564000000001,-0.6077704,1.093403,-0.1252325,-0.1279392,0.8580124,0.08148196,3.757739,-75.46341,35.41
2,0.02381897,0.0763092,0.9967957,1.0,-0.004425049,0.06333923,0.9979706,-34.26846,1.447876,-26.26221,3.676163,0.5997838000000001,0.5163369999999999,1.0,0.07408142,0.09919739,0.9922943,34.38147,-2.555832,-25.536,3.747208,0.4335499,0.6241564000000001,-0.6077704,1.093403,-0.1252325,-0.1279392,0.8580124,0.08148196,3.757739,-75.46341,35.41
2,0.02934265,0.08334351,0.9960785,1.0,0.005813599,0.06645203,0.9977722,-34.212740000000004,1.4431459999999998,-26.30153,3.593674,0.5966566,0.5163833999999999,1.0,0.09637451,0.1312102999999999,0.9866486,34.39197,-2.424408,-26.38222,3.686951,0.4301077,0.6239294,-0.6116109000000001,1.095653,-0.1271246,-0.1347779,0.8636655999999999,0.09223421,3.757739,-75.46341,35.41
2,0.02934265,0.08334351,0.9960785,1.0,0.005813599,0.06645203,0.9977722,-34.212740000000004,1.4431459999999998,-26.30153,3.593674,0.5966566,0.5163833999999999,1.0,0.09637451,0.1312102999999999,0.9866486,34.39197,-2.424408,-26.38222,3.686951,0.4301077,0.6239294,-0.6116109000000001,1.095653,-0.1271246,-0.1347779,0.8636655999999999,0.09223421,3.757739,-75.46341,35.41
2,0.02934265,0.08334351,0.9960785,1.0,0.005813599,0.06645203,0.9977722,-34.212740000000004,1.4431459999999998,-26.30153,3.593674,0.5966566,0.5163833999999999,1.0,0.09637451,0.1312102999999999,0.9866486,34.39197,-2.424408,-26.38222,3.686951,0.4301077,0.6239294,-0.6116109000000001,1.095653,-0.1271246,-0.1347779,0.8636655999999999,0.09223421,3.757739,-75.46341,35.41
2,-0.274826,0.1914062999999999,0.9422302,1.0,-0.295105,0.1802672999999999,0.9382935,-35.49341,2.09082,-26.71535,3.782837,0.6771640999999999,0.4862139,1.0,-0.1813965,0.240387,0.9535675,33.035709999999995,-1.574295,-26.75926,3.870331,0.5080752000000001,0.5881133000000001,-0.6157083999999999,1.097941,-0.1291421,-0.1403189,0.8701985000000001,0.1038976,3.757739,-75.46341,35.41
2,-0.274826,0.1914062999999999,0.9422302,1.0,-0.295105,0.1802672999999999,0.9382935,-35.49341,2.09082,-26.71535,3.782837,0.6771640999999999,0.4862139,1.0,-0.1813965,0.240387,0.9535675,33.035709999999995,-1.574295,-26.75926,3.870331,0.5080752000000001,0.5881133000000001,-0.6157083999999999,1.097941,-0.1291421,-0.1403189,0.8701985000000001,0.1038976,3.757739,-75.46341,35.41
2,-0.274826,0.1914062999999999,0.9422302,1.0,-0.295105,0.1802672999999999,0.9382935,-35.49341,2.09082,-26.71535,3.782837,0.6771640999999999,0.4862139,1.0,-0.1813965,0.240387,0.9535675,33.035709999999995,-1.574295,-26.75926,3.870331,0.5080752000000001,0.5881133000000001,-0.6157083999999999,1.097941,-0.1291421,-0.1403189,0.8701985000000001,0.1038976,3.757739,-75.46341,35.41
2,-0.274826,0.1914062999999999,0.9422302,1.0,-0.295105,0.1802672999999999,0.9382935,-35.49341,2.09082,-26.71535,3.782837,0.6771640999999999,0.4862139,1.0,-0.1813965,0.240387,0.9535675,33.035709999999995,-1.574295,-26.75926,3.870331,0.5080752000000001,0.5881133000000001,-0.6229979999999999,1.100513,-0.1317181,-0.1478222,0.8799693999999999,0.1210474,3.757739,67.67902,35.41
2,-0.274826,0.1914062999999999,0.9422302,1.0,-0.295105,0.1802672999999999,0.9382935,-35.49341,2.09082,-26.71535,3.782837,0.6771640999999999,0.4862139,1.0,-0.1813965,0.240387,0.9535675,33.035709999999995,-1.574295,-26.75926,3.870331,0.5080752000000001,0.5881133000000001,-0.6229979999999999,1.100513,-0.1317181,-0.1478222,0.8799693999999999,0.1210474,3.757739,67.67902,35.41
2,-0.274826,0.1914062999999999,0.9422302,1.0,-0.295105,0.1802672999999999,0.9382935,-35.49341,2.09082,-26.71535,3.782837,0.6771640999999999,0.4862139,1.0,-0.1813965,0.240387,0.9535675,33.035709999999995,-1.574295,-26.75926,3.870331,0.5080752000000001,0.5881133000000001,-0.6229979999999999,1.100513,-0.1317181,-0.1478222,0.8799693999999999,0.1210474,3.757739,67.67902,35.41
2,-0.2391815,0.1374969,0.9611816,1.0,-0.2435607999999999,0.1351624,0.9604034,-35.15341,1.427216,-26.404390000000003,3.864059,0.6585972,0.5108963,1.0,-0.1605377,0.1781921,0.9707947,33.49612,-2.2666470000000003,-26.56415,4.026886,0.4897479,0.6165893,-0.6229979999999999,1.100513,-0.1317181,-0.1478222,0.8799693999999999,0.1210474,3.757739,67.67902,35.41
2,-0.2391815,0.1374969,0.9611816,1.0,-0.2435607999999999,0.1351624,0.9604034,-35.15341,1.427216,-26.404390000000003,3.864059,0.6585972,0.5108963,1.0,-0.1605377,0.1781921,0.9707947,33.49612,-2.2666470000000003,-26.56415,4.026886,0.4897479,0.6165893,-0.6229979999999999,1.100513,-0.1317181,-0.1478222,0.8799693999999999,0.1210474,3.757739,67.67902,35.41
2,-0.2391815,0.1374969,0.9611816,1.0,-0.2435607999999999,0.1351624,0.9604034,-35.15341,1.427216,-26.404390000000003,3.864059,0.6585972,0.5108963,1.0,-0.1605377,0.1781921,0.9707947,33.49612,-2.2666470000000003,-26.56415,4.026886,0.4897479,0.6165893,-0.6229979999999999,1.100513,-0.1317181,-0.1478222,0.8799693999999999,0.1210474,3.757739,67.67902,35.41
2,-0.1167908,0.147995,0.9820557,1.0,-0.1630707,0.0990448,0.9816284,-35.14018,1.625961,-27.3409,3.785477,0.6497189,0.5161567,1.0,-0.1132965,0.1516266,0.9819183,33.60585,-2.375305,-26.51425,4.015121,0.4805185999999999,0.6225016,-0.6259996999999999,1.101527,-0.1326892,-0.1531664,0.883697,0.1283388999999999,3.757739,67.67902,35.41
2,-0.1167908,0.147995,0.9820557,1.0,-0.1630707,0.0990448,0.9816284,-35.14018,1.625961,-27.3409,3.785477,0.6497189,0.5161567,1.0,-0.1132965,0.1516266,0.9819183,33.60585,-2.375305,-26.51425,4.015121,0.4805185999999999,0.6225016,-0.6259996999999999,1.101527,-0.1326892,-0.1531664,0.883697,0.1283388999999999,3.757739,67.67902,35.41
2,-0.1167908,0.147995,0.9820557,1.0,-0.1630707,0.0990448,0.9816284,-35.14018,1.625961,-27.3409,3.785477,0.6497189,0.5161567,1.0,-0.1132965,0.1516266,0.9819183,33.60585,-2.375305,-26.51425,4.015121,0.4805185999999999,0.6225016,-0.6259996999999999,1.101527,-0.1326892,-0.1531664,0.883697,0.1283388999999999,3.757739,67.67902,35.41
2,-0.07391357,0.1109466999999999,0.9910583,1.0,-0.1019896999999999,0.06495667,0.9926605,-34.9838,2.004471,-28.87598,3.820587,0.639308,0.5207356,1.0,-0.07391357,0.1109466999999999,0.9910583,33.7524,-2.467865,-26.50487,4.028793,0.4709282999999999,0.6300005,-0.6291044,1.101886,-0.1334327,-0.1571395,0.8867744000000001,0.1344688999999999,3.757739,67.67902,35.41
2,-0.07391357,0.1109466999999999,0.9910583,1.0,-0.1019896999999999,0.06495667,0.9926605,-34.9838,2.004471,-28.87598,3.820587,0.639308,0.5207356,1.0,-0.07391357,0.1109466999999999,0.9910583,33.7524,-2.467865,-26.50487,4.028793,0.4709282999999999,0.6300005,-0.6291044,1.101886,-0.1334327,-0.1571395,0.8867744000000001,0.1344688999999999,3.757739,67.67902,35.41
2,-0.07391357,0.1109466999999999,0.9910583,1.0,-0.1019896999999999,0.06495667,0.9926605,-34.9838,2.004471,-28.87598,3.820587,0.639308,0.5207356,1.0,-0.07391357,0.1109466999999999,0.9910583,33.7524,-2.467865,-26.50487,4.028793,0.4709282999999999,0.6300005,-0.6291044,1.101886,-0.1334327,-0.1571395,0.8867744000000001,0.1344688999999999,3.757739,67.67902,35.41
2,-0.04533386,0.084198,0.9954071,1.0,-0.07568359,0.03967285,0.9963379,-34.875820000000004,1.918808,-28.85341,3.88269,0.6324,0.5264724000000001,1.0,-0.04533386,0.084198,0.9954071,33.8923,-2.584747,-26.34476,4.218933,0.4627209,0.635576,-0.6316397,1.102356,-0.1338677,-0.1609934,0.8896263000000001,0.1391479,3.757739,67.67902,35.41
2,-0.04533386,0.084198,0.9954071,1.0,-0.07568359,0.03967285,0.9963379,-34.875820000000004,1.918808,-28.85341,3.88269,0.6324,0.5264724000000001,1.0,-0.04533386,0.084198,0.9954071,33.8923,-2.584747,-26.34476,4.218933,0.4627209,0.635576,-0.6316397,1.102356,-0.1338677,-0.1609934,0.8896263000000001,0.1391479,3.757739,67.67902,35.41
2,-0.04533386,0.084198,0.9954071,1.0,-0.07568359,0.03967285,0.9963379,-34.875820000000004,1.918808,-28.85341,3.88269,0.6324,0.5264724000000001,1.0,-0.04533386,0.084198,0.9954071,33.8923,-2.584747,-26.34476,4.218933,0.4627209,0.635576,-0.6316397,1.102356,-0.1338677,-0.1609934,0.8896263000000001,0.1391479,3.757739,67.67902,35.41
2,-0.01565552,0.0947876,0.9953613,1.0,-0.06390381,0.02043152,0.9977417,-34.759890000000006,1.799805,-28.50446,3.78772,0.6264033,0.5295581,1.0,-0.01565552,0.0947876,0.9953613,33.98921,-2.677536,-26.274490000000004,4.231598,0.4560652,0.6366779,-0.6340191,1.102701,-0.1341,-0.1643187,0.8916879000000001,0.1446137,3.757739,12.82217,35.41
2,-0.01565552,0.0947876,0.9953613,1.0,-0.06390381,0.02043152,0.9977417,-34.759890000000006,1.799805,-28.50446,3.78772,0.6264033,0.5295581,1.0,-0.01565552,0.0947876,0.9953613,33.98921,-2.677536,-26.274490000000004,4.231598,0.4560652,0.6366779,-0.6340191,1.102701,-0.1341,-0.1643187,0.8916879000000001,0.1446137,3.757739,12.82217,35.41
2,-0.01565552,0.0947876,0.9953613,1.0,-0.06390381,0.02043152,0.9977417,-34.759890000000006,1.799805,-28.50446,3.78772,0.6264033,0.5295581,1.0,-0.01565552,0.0947876,0.9953613,33.98921,-2.677536,-26.274490000000004,4.231598,0.4560652,0.6366779,-0.6340191,1.102701,-0.1341,-0.1643187,0.8916879000000001,0.1446137,3.757739,12.82217,35.41
2,-0.09965515,0.1517792,0.9833679,1.0,-0.1868134,0.1211548,0.974884,-35.01425,1.130722,-25.49948,4.173706,0.6457890000000001,0.5146946,1.0,-0.09965515,0.1517792,0.9833679,33.62477,-2.362259,-26.47961,4.357925,0.4778917,0.6221159,-0.6361539,1.102811,-0.1342049,-0.1655772,0.8936741,0.1491417,3.757739,12.82217,35.41
2,-0.09965515,0.1517792,0.9833679,1.0,-0.1868134,0.1211548,0.974884,-35.01425,1.130722,-25.49948,4.173706,0.6457890000000001,0.5146946,1.0,-0.09965515,0.1517792,0.9833679,33.62477,-2.362259,-26.47961,4.357925,0.4778917,0.6221159,-0.6361539,1.102811,-0.1342049,-0.1655772,0.8936741,0.1491417,3.757739,12.82217,35.41
2,-0.09965515,0.1517792,0.9833679,1.0,-0.1868134,0.1211548,0.974884,-35.01425,1.130722,-25.49948,4.173706,0.6457890000000001,0.5146946,1.0,-0.09965515,0.1517792,0.9833679,33.62477,-2.362259,-26.47961,4.357925,0.4778917,0.6221159,-0.6361539,1.102811,-0.1342049,-0.1655772,0.8936741,0.1491417,3.757739,12.82217,35.41
2,-0.07653809,0.110321,0.9909363,1.0,-0.1654205,0.1067047,0.980423,-34.95023,1.082001,-25.34726,4.22197,0.6409566,0.5165945,1.0,-0.07653809,0.110321,0.9909363,33.73508,-2.389648,-26.43774,4.348984,0.4714800999999999,0.6272515999999999,-0.6398585,1.104974,-0.134088,-0.1700765,0.8962421999999999,0.1641291,3.757739,12.82217,35.41
2,-0.07653809,0.110321,0.9909363,1.0,-0.1654205,0.1067047,0.980423,-34.95023,1.082001,-25.34726,4.22197,0.6409566,0.5165945,1.0,-0.07653809,0.110321,0.9909363,33.73508,-2.389648,-26.43774,4.348984,0.4714800999999999,0.6272515999999999,-0.6398585,1.104974,-0.134088,-0.1700765,0.8962421999999999,0.1641291,3.757739,12.82217,35.41
2,-0.07653809,0.110321,0.9909363,1.0,-0.1654205,0.1067047,0.980423,-34.95023,1.082001,-25.34726,4.22197,0.6409566,0.5165945,1.0,-0.07653809,0.110321,0.9909363,33.73508,-2.389648,-26.43774,4.348984,0.4714800999999999,0.6272515999999999,-0.6398585,1.104974,-0.134088,-0.1700765,0.8962421999999999,0.1641291,3.757739,12.82217,35.41
2,-0.06307983,0.09771729,0.9932098,1.0,-0.1638793999999999,0.07322693,0.9837494,-34.879909999999995,1.088486,-25.60266,4.302383,0.6387691999999999,0.5224970999999999,1.0,-0.06045532,0.09832764,0.9933014,33.81194,-2.594971,-26.233220000000003,4.305313,0.4671230999999999,0.6334145,-0.6414771,1.106017,-0.1337362999999999,-0.1713842,0.8964779,0.1732042999999999,3.757739,12.82217,35.41
2,-0.06307983,0.09771729,0.9932098,1.0,-0.1638793999999999,0.07322693,0.9837494,-34.879909999999995,1.088486,-25.60266,4.302383,0.6387691999999999,0.5224970999999999,1.0,-0.06045532,0.09832764,0.9933014,33.81194,-2.594971,-26.233220000000003,4.305313,0.4671230999999999,0.6334145,-0.6414771,1.106017,-0.1337362999999999,-0.1713842,0.8964779,0.1732042999999999,3.757739,12.82217,35.41
2,-0.06307983,0.09771729,0.9932098,1.0,-0.1638793999999999,0.07322693,0.9837494,-34.879909999999995,1.088486,-25.60266,4.302383,0.6387691999999999,0.5224970999999999,1.0,-0.06045532,0.09832764,0.9933014,33.81194,-2.594971,-26.233220000000003,4.305313,0.4671230999999999,0.6334145,-0.6414771,1.106017,-0.1337362999999999,-0.1713842,0.8964779,0.1732042999999999,3.757739,12.82217,35.41
2,-0.1004486,0.08885193,0.9909515,1.0,-0.1421661,0.08152771,0.9864655,-34.88219,1.054596,-25.70839,4.222519,0.6364005,0.5234517,1.0,-0.05210876,0.09710693,0.9938965,33.84491,-2.6582790000000003,-26.07521,4.414429,0.4649939999999999,0.6342511,-0.6429117,1.107446,-0.13332,-0.1733132,0.8966004999999999,0.1827773999999999,3.757739,12.82217,35.41
2,-0.1004486,0.08885193,0.9909515,1.0,-0.1421661,0.08152771,0.9864655,-34.88219,1.054596,-25.70839,4.222519,0.6364005,0.5234517,1.0,-0.05210876,0.09710693,0.9938965,33.84491,-2.6582790000000003,-26.07521,4.414429,0.4649939999999999,0.6342511,-0.6429117,1.107446,-0.13332,-0.1733132,0.8966004999999999,0.1827773999999999,3.757739,12.82217,35.41
2,-0.1004486,0.08885193,0.9909515,1.0,-0.1421661,0.08152771,0.9864655,-34.88219,1.054596,-25.70839,4.222519,0.6364005,0.5234517,1.0,-0.05210876,0.09710693,0.9938965,33.84491,-2.6582790000000003,-26.07521,4.414429,0.4649939999999999,0.6342511,-0.6429117,1.107446,-0.13332,-0.1733132,0.8966004999999999,0.1827773999999999,3.757739,12.82217,35.41
2,-0.04624939,0.06524658,0.9967957,1.0,-0.1231994999999999,0.05528259,0.9908295,-34.8707,0.9378357,-25.94386,4.249709999999999,0.63413,0.5324114999999999,1.0,-0.0316925,0.06707764,0.9972382,33.93365,-2.865814,-26.01433,4.538223,0.4594854999999999,0.6441234,-0.6440541999999999,1.108387,-0.1328371,-0.1747043999999999,0.8967625,0.1902479,3.757739,32.83179,35.41
2,-0.04624939,0.06524658,0.9967957,1.0,-0.1231994999999999,0.05528259,0.9908295,-34.8707,0.9378357,-25.94386,4.249709999999999,0.63413,0.5324114999999999,1.0,-0.0316925,0.06707764,0.9972382,33.93365,-2.865814,-26.01433,4.538223,0.4594854999999999,0.6441234,-0.6440541999999999,1.108387,-0.1328371,-0.1747043999999999,0.8967625,0.1902479,3.757739,32.83179,35.41
2,-0.04624939,0.06524658,0.9967957,1.0,-0.1231994999999999,0.05528259,0.9908295,-34.8707,0.9378357,-25.94386,4.249709999999999,0.63413,0.5324114999999999,1.0,-0.0316925,0.06707764,0.9972382,33.93365,-2.865814,-26.01433,4.538223,0.4594854999999999,0.6441234,-0.6440541999999999,1.108387,-0.1328371,-0.1747043999999999,0.8967625,0.1902479,3.757739,32.83179,35.41
2,-0.03227234,0.05805969,0.9977875,1.0,-0.119278,0.01292419,0.9927673,-34.84964,0.7733002,-25.40768,4.181091,0.6321853000000001,0.5379425999999999,1.0,-0.02862549,0.05993652,0.9977875,33.96411,-2.919724,-25.98337,4.504944,0.4581424,0.6463956,-0.6452014,1.109423,-0.1321312,-0.1758433999999999,0.8966860999999999,0.198179,3.757739,32.83179,35.41
2,-0.03227234,0.05805969,0.9977875,1.0,-0.119278,0.01292419,0.9927673,-34.84964,0.7733002,-25.40768,4.181091,0.6321853000000001,0.5379425999999999,1.0,-0.02862549,0.05993652,0.9977875,33.96411,-2.919724,-25.98337,4.504944,0.4581424,0.6463956,-0.6452014,1.109423,-0.1321312,-0.1758433999999999,0.8966860999999999,0.198179,3.757739,32.83179,35.41
2,-0.03227234,0.05805969,0.9977875,1.0,-0.119278,0.01292419,0.9927673,-34.84964,0.7733002,-25.40768,4.181091,0.6321853000000001,0.5379425999999999,1.0,-0.02862549,0.05993652,0.9977875,33.96411,-2.919724,-25.98337,4.504944,0.4581424,0.6463956,-0.6452014,1.109423,-0.1321312,-0.1758433999999999,0.8966860999999999,0.198179,3.757739,32.83179,35.41
2,-0.03048706,0.05593872,0.9979553,1.0,-0.1275024,0.01275635,0.991745,-34.85437,0.7299805,-25.51492,4.212189,0.6334371,0.5404119000000001,1.0,-0.02987671,0.05621338,0.9979706,33.97258,-2.929169,-25.94411,4.483139,0.458038,0.6467314000000001,-0.6467611999999999,1.111407,-0.1300505,-0.1771802999999999,0.8950896999999999,0.2144184999999999,3.757739,32.83179,35.41
2,-0.03048706,0.05593872,0.9979553,1.0,-0.1275024,0.01275635,0.991745,-34.85437,0.7299805,-25.51492,4.212189,0.6334371,0.5404119000000001,1.0,-0.02987671,0.05621338,0.9979706,33.97258,-2.929169,-25.94411,4.483139,0.458038,0.6467314000000001,-0.6467611999999999,1.111407,-0.1300505,-0.1771802999999999,0.8950896999999999,0.2144184999999999,3.757739,32.83179,35.41
2,-0.03048706,0.05593872,0.9979553,1.0,-0.1275024,0.01275635,0.991745,-34.85437,0.7299805,-25.51492,4.212189,0.6334371,0.5404119000000001,1.0,-0.02987671,0.05621338,0.9979706,33.97258,-2.929169,-25.94411,4.483139,0.458038,0.6467314000000001,-0.6467611999999999,1.111407,-0.1300505,-0.1771802999999999,0.8950896999999999,0.2144184999999999,3.757739,32.83179,35.41
2,-0.03048706,0.05593872,0.9979553,1.0,-0.1275024,0.01275635,0.991745,-34.85437,0.7299805,-25.51492,4.212189,0.6334371,0.5404119000000001,1.0,-0.02987671,0.05621338,0.9979706,33.97258,-2.929169,-25.94411,4.483139,0.458038,0.6467314000000001,-0.6471781999999999,1.112108,-0.128602,-0.1769027999999999,0.8946458,0.220568,3.757739,32.83179,35.41
2,-0.03048706,0.05593872,0.9979553,1.0,-0.1275024,0.01275635,0.991745,-34.85437,0.7299805,-25.51492,4.212189,0.6334371,0.5404119000000001,1.0,-0.02987671,0.05621338,0.9979706,33.97258,-2.929169,-25.94411,4.483139,0.458038,0.6467314000000001,-0.6471781999999999,1.112108,-0.128602,-0.1769027999999999,0.8946458,0.220568,3.757739,32.83179,35.41
2,-0.03048706,0.05593872,0.9979553,1.0,-0.1275024,0.01275635,0.991745,-34.85437,0.7299805,-25.51492,4.212189,0.6334371,0.5404119000000001,1.0,-0.02987671,0.05621338,0.9979706,33.97258,-2.929169,-25.94411,4.483139,0.458038,0.6467314000000001,-0.6471781999999999,1.112108,-0.128602,-0.1769027999999999,0.8946458,0.220568,3.757739,32.83179,35.41
2,-0.04545593,0.02133179,0.9987335,1.0,-0.1199493,-0.003829956,0.9927673,-34.846270000000004,0.6787262,-25.50322,4.156418,0.6322297,0.5438569000000001,1.0,-0.0388031,0.02355957,0.9989624,34.04671,-3.167831,-25.55844,4.455643,0.4567069,0.654704,-0.6471781999999999,1.112108,-0.128602,-0.1769027999999999,0.8946458,0.220568,3.757739,32.83179,35.41
2,-0.04545593,0.02133179,0.9987335,1.0,-0.1199493,-0.003829956,0.9927673,-34.846270000000004,0.6787262,-25.50322,4.156418,0.6322297,0.5438569000000001,1.0,-0.0388031,0.02355957,0.9989624,34.04671,-3.167831,-25.55844,4.455643,0.4567069,0.654704,-0.6471781999999999,1.112108,-0.128602,-0.1769027999999999,0.8946458,0.220568,3.757739,32.83179,35.41
2,-0.04545593,0.02133179,0.9987335,1.0,-0.1199493,-0.003829956,0.9927673,-34.846270000000004,0.6787262,-25.50322,4.156418,0.6322297,0.5438569000000001,1.0,-0.0388031,0.02355957,0.9989624,34.04671,-3.167831,-25.55844,4.455643,0.4567069,0.654704,-0.6471781999999999,1.112108,-0.128602,-0.1769027999999999,0.8946458,0.220568,3.757739,32.83179,35.41
2,0.1141051999999999,0.1429901,0.9831085,0.74512,0.01805115,0.1225739,0.9922943,-34.01749,1.3936309999999998,-26.308000000000003,4.142624,0.589267,0.5122745,0.986937,0.114151,0.1429901,0.9831085,34.66493,-2.752502,-25.27666,4.379791,0.4191934,0.6240029,-0.6470486999999999,1.113026,-0.1256974,-0.1730573,0.8934259,0.2299681,3.757739,-68.46658,35.41
2,0.1141051999999999,0.1429901,0.9831085,0.74512,0.01805115,0.1225739,0.9922943,-34.01749,1.3936309999999998,-26.308000000000003,4.142624,0.589267,0.5122745,0.986937,0.114151,0.1429901,0.9831085,34.66493,-2.752502,-25.27666,4.379791,0.4191934,0.6240029,-0.6470486999999999,1.113026,-0.1256974,-0.1730573,0.8934259,0.2299681,3.757739,-68.46658,35.41
2,0.1141051999999999,0.1429901,0.9831085,0.74512,0.01805115,0.1225739,0.9922943,-34.01749,1.3936309999999998,-26.308000000000003,4.142624,0.589267,0.5122745,0.986937,0.114151,0.1429901,0.9831085,34.66493,-2.752502,-25.27666,4.379791,0.4191934,0.6240029,-0.6470486999999999,1.113026,-0.1256974,-0.1730573,0.8934259,0.2299681,3.757739,-68.46658,35.41
2,0.117691,0.139328,0.9832153,1.0,0.02275085,0.1247711,0.9919128,-34.0881,1.182312,-25.87354,4.184158,0.5907001000000001,0.5153717999999999,1.0,0.1190338,0.1395264,0.9830322,34.67474,-2.816986,-25.32458,4.248794999999999,0.4183365,0.6267902,-0.6470486999999999,1.113026,-0.1256974,-0.1730573,0.8934259,0.2299681,3.757739,-68.46658,35.41
2,0.117691,0.139328,0.9832153,1.0,0.02275085,0.1247711,0.9919128,-34.0881,1.182312,-25.87354,4.184158,0.5907001000000001,0.5153717999999999,1.0,0.1190338,0.1395264,0.9830322,34.67474,-2.816986,-25.32458,4.248794999999999,0.4183365,0.6267902,-0.6470486999999999,1.113026,-0.1256974,-0.1730573,0.8934259,0.2299681,3.757739,-68.46658,35.41
2,0.117691,0.139328,0.9832153,1.0,0.02275085,0.1247711,0.9919128,-34.0881,1.182312,-25.87354,4.184158,0.5907001000000001,0.5153717999999999,1.0,0.1190338,0.1395264,0.9830322,34.67474,-2.816986,-25.32458,4.248794999999999,0.4183365,0.6267902,-0.6470486999999999,1.113026,-0.1256974,-0.1730573,0.8934259,0.2299681,3.757739,-68.46658,35.41
2,0.1158295,0.1410522,0.9832001,1.0,0.02694702,0.1162261999999999,0.9928436,-34.12271,1.071198,-25.65776,4.1561580000000005,0.5911225999999999,0.5181411,1.0,0.1207123,0.142395,0.9824066,34.683440000000004,-2.90213,-25.21977,4.281769000000001,0.4178943,0.6283424,-0.645829,1.112981,-0.1227821,-0.1696354,0.8919528,0.2331161,3.757739,-68.46658,35.41
2,0.1158295,0.1410522,0.9832001,1.0,0.02694702,0.1162261999999999,0.9928436,-34.12271,1.071198,-25.65776,4.1561580000000005,0.5911225999999999,0.5181411,1.0,0.1207123,0.142395,0.9824066,34.683440000000004,-2.90213,-25.21977,4.281769000000001,0.4178943,0.6283424,-0.645829,1.112981,-0.1227821,-0.1696354,0.8919528,0.2331161,3.757739,-68.46658,35.41
2,0.1158295,0.1410522,0.9832001,1.0,0.02694702,0.1162261999999999,0.9928436,-34.12271,1.071198,-25.65776,4.1561580000000005,0.5911225999999999,0.5181411,1.0,0.1207123,0.142395,0.9824066,34.683440000000004,-2.90213,-25.21977,4.281769000000001,0.4178943,0.6283424,-0.645829,1.112981,-0.1227821,-0.1696354,0.8919528,0.2331161,3.757739,-68.46658,35.41
2,0.1096497,0.134613,0.9848021999999998,1.0,0.04003906,0.1311951,0.9905396,-34.1868,0.9011688,-25.49796,4.166962,0.5916061,0.5207459,1.0,0.1112976,0.1346892999999999,0.9846039,34.69016,-2.90213,-25.21977,4.275681,0.4187554,0.6292089,-0.645829,1.112981,-0.1227821,-0.1696354,0.8919528,0.2331161,3.757739,-68.46658,35.41
2,0.1096497,0.134613,0.9848021999999998,1.0,0.04003906,0.1311951,0.9905396,-34.1868,0.9011688,-25.49796,4.166962,0.5916061,0.5207459,1.0,0.1112976,0.1346892999999999,0.9846039,34.69016,-2.90213,-25.21977,4.275681,0.4187554,0.6292089,-0.645829,1.112981,-0.1227821,-0.1696354,0.8919528,0.2331161,3.757739,-68.46658,35.41
2,0.1096497,0.134613,0.9848021999999998,1.0,0.04003906,0.1311951,0.9905396,-34.1868,0.9011688,-25.49796,4.166962,0.5916061,0.5207459,1.0,0.1112976,0.1346892999999999,0.9846039,34.69016,-2.90213,-25.21977,4.275681,0.4187554,0.6292089,-0.645829,1.112981,-0.1227821,-0.1696354,0.8919528,0.2331161,3.757739,-68.46658,35.41
2,0.08399963,0.1316223,0.9877319,1.0,0.02268982,0.1218567,0.9922791,-34.1946,0.8849030000000001,-25.514470000000003,4.126114,0.593835,0.5224390999999999,1.0,0.1131134,0.1361084,0.9842072,34.683440000000004,-2.982681,-25.14622,4.2789150000000005,0.4188028,0.6310338000000001,-0.6441634,1.112846,-0.1203601,-0.1698627999999999,0.8899421999999999,0.233461,3.757739,-68.46658,35.41
2,0.08399963,0.1316223,0.9877319,1.0,0.02268982,0.1218567,0.9922791,-34.1946,0.8849030000000001,-25.514470000000003,4.126114,0.593835,0.5224390999999999,1.0,0.1131134,0.1361084,0.9842072,34.683440000000004,-2.982681,-25.14622,4.2789150000000005,0.4188028,0.6310338000000001,-0.6441634,1.112846,-0.1203601,-0.1698627999999999,0.8899421999999999,0.233461,3.757739,-68.46658,35.41
2,0.08399963,0.1316223,0.9877319,1.0,0.02268982,0.1218567,0.9922791,-34.1946,0.8849030000000001,-25.514470000000003,4.126114,0.593835,0.5224390999999999,1.0,0.1131134,0.1361084,0.9842072,34.683440000000004,-2.982681,-25.14622,4.2789150000000005,0.4188028,0.6310338000000001,-0.6441634,1.112846,-0.1203601,-0.1698627999999999,0.8899421999999999,0.233461,3.757739,-68.46658,35.41
2,0.06140137,0.1222076,0.9906006,1.0,0.01876831,0.1076202,0.9940033,-34.23172,0.8796691999999999,-25.49796,4.086487,0.5954670999999999,0.5240336,1.0,0.1017914,0.1358184999999999,0.9854889,34.67203,-3.011093,-25.12546,4.247864,0.4205223,0.6317646,-0.6430433000000001,1.112849,-0.1193131,-0.1678952,0.8889158000000001,0.233138,3.757739,1.799774,35.41
2,0.06140137,0.1222076,0.9906006,1.0,0.01876831,0.1076202,0.9940033,-34.23172,0.8796691999999999,-25.49796,4.086487,0.5954670999999999,0.5240336,1.0,0.1017914,0.1358184999999999,0.9854889,34.67203,-3.011093,-25.12546,4.247864,0.4205223,0.6317646,-0.6430433000000001,1.112849,-0.1193131,-0.1678952,0.8889158000000001,0.233138,3.757739,1.799774,35.41
2,0.06140137,0.1222076,0.9906006,1.0,0.01876831,0.1076202,0.9940033,-34.23172,0.8796691999999999,-25.49796,4.086487,0.5954670999999999,0.5240336,1.0,0.1017914,0.1358184999999999,0.9854889,34.67203,-3.011093,-25.12546,4.247864,0.4205223,0.6317646,-0.6430433000000001,1.112849,-0.1193131,-0.1678952,0.8889158000000001,0.233138,3.757739,1.799774,35.41
2,0.06140137,0.1222076,0.9906006,1.0,0.01876831,0.1076202,0.9940033,-34.23172,0.8796691999999999,-25.49796,4.086487,0.5954670999999999,0.5240336,1.0,0.1017914,0.1358184999999999,0.9854889,34.67203,-3.011093,-25.12546,4.247864,0.4205223,0.6317646,-0.641582,1.112391,-0.1183057,-0.1672214,0.887942,0.2301494,3.757739,1.799774,35.41
2,0.06140137,0.1222076,0.9906006,1.0,0.01876831,0.1076202,0.9940033,-34.23172,0.8796691999999999,-25.49796,4.086487,0.5954670999999999,0.5240336,1.0,0.1017914,0.1358184999999999,0.9854889,34.67203,-3.011093,-25.12546,4.247864,0.4205223,0.6317646,-0.641582,1.112391,-0.1183057,-0.1672214,0.887942,0.2301494,3.757739,1.799774,35.41
2,0.06140137,0.1222076,0.9906006,1.0,0.01876831,0.1076202,0.9940033,-34.23172,0.8796691999999999,-25.49796,4.086487,0.5954670999999999,0.5240336,1.0,0.1017914,0.1358184999999999,0.9854889,34.67203,-3.011093,-25.12546,4.247864,0.4205223,0.6317646,-0.641582,1.112391,-0.1183057,-0.1672214,0.887942,0.2301494,3.757739,1.799774,35.41
2,0.1253051999999999,-0.1459198,0.9813232,1.0,0.1253051999999999,-0.1459198,0.9813232,-33.71141,0.1821747,-25.89961,3.769669,0.5655349000000001,0.5803676,1.0,0.2132111,-0.08047485,0.9736786,34.94038,-4.4970550000000005,-23.40416,4.0452580000000005,0.3997317,0.6889416,-0.6378424,1.111237,-0.1164569999999999,-0.1640197,0.8851205,0.2231074,4.097312,1.799774,35.41
2,0.1253051999999999,-0.1459198,0.9813232,1.0,0.1253051999999999,-0.1459198,0.9813232,-33.71141,0.1821747,-25.89961,3.769669,0.5655349000000001,0.5803676,1.0,0.2132111,-0.08047485,0.9736786,34.94038,-4.4970550000000005,-23.40416,4.0452580000000005,0.3997317,0.6889416,-0.6378424,1.111237,-0.1164569999999999,-0.1640197,0.8851205,0.2231074,4.097312,1.799774,35.41
2,0.1253051999999999,-0.1459198,0.9813232,1.0,0.1253051999999999,-0.1459198,0.9813232,-33.71141,0.1821747,-25.89961,3.769669,0.5655349000000001,0.5803676,1.0,0.2132111,-0.08047485,0.9736786,34.94038,-4.4970550000000005,-23.40416,4.0452580000000005,0.3997317,0.6889416,-0.6378424,1.111237,-0.1164569999999999,-0.1640197,0.8851205,0.2231074,4.097312,1.799774,35.41
3,0.1207123,-0.1483765,0.9815216,1.0,0.1207123,-0.1483765,0.9815216,-33.76466,0.1398468,-25.66885,3.744263,0.5676332,0.5799267,1.0,0.1806183,-0.08229065,0.9801025,35.033840000000005,-4.297683999999999,-24.05586,4.037598,0.3998797999999999,0.6889006999999999,-0.635483,1.110328,-0.1155787,-0.1616322,0.8836056000000001,0.2171767,4.097312,31.13676,35.41
3,0.1207123,-0.1483765,0.9815216,1.0,0.1207123,-0.1483765,0.9815216,-33.76466,0.1398468,-25.66885,3.744263,0.5676332,0.5799267,1.0,0.1806183,-0.08229065,0.9801025,35.033840000000005,-4.297683999999999,-24.05586,4.037598,0.3998797999999999,0.6889006999999999,-0.635483,1.110328,-0.1155787,-0.1616322,0.8836056000000001,0.2171767,4.097312,31.13676,35.41
3,0.1207123,-0.1483765,0.9815216,1.0,0.1207123,-0.1483765,0.9815216,-33.76466,0.1398468,-25.66885,3.744263,0.5676332,0.5799267,1.0,0.1806183,-0.08229065,0.9801025,35.033840000000005,-4.297683999999999,-24.05586,4.037598,0.3998797999999999,0.6889006999999999,-0.635483,1.110328,-0.1155787,-0.1616322,0.8836056000000001,0.2171767,4.097312,31.13676,35.41
3,0.1080322,-0.1413116,0.9840393,1.0,0.1080322,-0.1413116,0.9840393,-33.7748,0.3208313,-26.41277,3.814880000000001,0.5701916,0.5798686,1.0,0.2071991,-0.08424377,0.9746552,34.95299,-4.434235,-23.55206,4.043762,0.3998797999999999,0.6887667,-0.632664,1.1091,-0.1147136,-0.1575688999999999,0.8819183,0.2084779,4.097312,31.13676,35.41
3,0.1080322,-0.1413116,0.9840393,1.0,0.1080322,-0.1413116,0.9840393,-33.7748,0.3208313,-26.41277,3.814880000000001,0.5701916,0.5798686,1.0,0.2071991,-0.08424377,0.9746552,34.95299,-4.434235,-23.55206,4.043762,0.3998797999999999,0.6887667,-0.632664,1.1091,-0.1147136,-0.1575688999999999,0.8819183,0.2084779,4.097312,31.13676,35.41
3,0.1080322,-0.1413116,0.9840393,1.0,0.1080322,-0.1413116,0.9840393,-33.7748,0.3208313,-26.41277,3.814880000000001,0.5701916,0.5798686,1.0,0.2071991,-0.08424377,0.9746552,34.95299,-4.434235,-23.55206,4.043762,0.3998797999999999,0.6887667,-0.632664,1.1091,-0.1147136,-0.1575688999999999,0.8819183,0.2084779,4.097312,31.13676,35.41
3,0.1126708999999999,-0.1139068999999999,0.9870758,1.0,0.1024627999999999,-0.1199493,0.9874725,-33.90753,0.2418671,-26.02814,3.845642,0.5750304,0.5764394,1.0,0.1775665,-0.07489014,0.9812469,34.93385,-4.300888,-23.82733,3.94603,0.4037179,0.6859495,-0.6295948,1.107512,-0.1137652,-0.152096,0.8794293,0.197865,4.097312,31.13676,35.41
3,0.1126708999999999,-0.1139068999999999,0.9870758,1.0,0.1024627999999999,-0.1199493,0.9874725,-33.90753,0.2418671,-26.02814,3.845642,0.5750304,0.5764394,1.0,0.1775665,-0.07489014,0.9812469,34.93385,-4.300888,-23.82733,3.94603,0.4037179,0.6859495,-0.6295948,1.107512,-0.1137652,-0.152096,0.8794293,0.197865,4.097312,31.13676,35.41
3,0.1126708999999999,-0.1139068999999999,0.9870758,1.0,0.1024627999999999,-0.1199493,0.9874725,-33.90753,0.2418671,-26.02814,3.845642,0.5750304,0.5764394,1.0,0.1775665,-0.07489014,0.9812469,34.93385,-4.300888,-23.82733,3.94603,0.4037179,0.6859495,-0.6295948,1.107512,-0.1137652,-0.152096,0.8794293,0.197865,4.097312,31.13676,35.41
3,0.05950928,-0.09310913,0.993866,1.0,0.05577087,-0.09559631,0.9938507,-33.9659,0.5453186,-26.29843,3.909897,0.5827944,0.5657854999999999,1.0,0.1478729,-0.03356934,0.9884338,34.84618,-3.89502,-24.4409,3.822464,0.4098319,0.6734513000000001,-0.6216433000000001,1.103159,-0.1107321,-0.137221,0.8703386000000001,0.1655071,4.097312,31.13676,35.41
3,0.05950928,-0.09310913,0.993866,1.0,0.05577087,-0.09559631,0.9938507,-33.9659,0.5453186,-26.29843,3.909897,0.5827944,0.5657854999999999,1.0,0.1478729,-0.03356934,0.9884338,34.84618,-3.89502,-24.4409,3.822464,0.4098319,0.6734513000000001,-0.6216433000000001,1.103159,-0.1107321,-0.137221,0.8703386000000001,0.1655071,4.097312,31.13676,35.41
3,0.05950928,-0.09310913,0.993866,1.0,0.05577087,-0.09559631,0.9938507,-33.9659,0.5453186,-26.29843,3.909897,0.5827944,0.5657854999999999,1.0,0.1478729,-0.03356934,0.9884338,34.84618,-3.89502,-24.4409,3.822464,0.4098319,0.6734513000000001,-0.6216433000000001,1.103159,-0.1107321,-0.137221,0.8703386000000001,0.1655071,4.097312,31.13676,35.41
3,0.1114807,-0.01467896,0.9936523000000002,1.0,0.02549744,-0.06910706,0.9972687,-34.04842,0.5593262,-25.562520000000003,3.899338,0.5883621,0.5554613,1.0,0.1139068999999999,-0.01312256,0.9933929,34.73662,-3.732559,-24.53859,3.994202,0.4172642,0.6668265999999999,-0.6216433000000001,1.103159,-0.1107321,-0.137221,0.8703386000000001,0.1655071,4.097312,31.13676,35.41
3,0.1114807,-0.01467896,0.9936523000000002,1.0,0.02549744,-0.06910706,0.9972687,-34.04842,0.5593262,-25.562520000000003,3.899338,0.5883621,0.5554613,1.0,0.1139068999999999,-0.01312256,0.9933929,34.73662,-3.732559,-24.53859,3.994202,0.4172642,0.6668265999999999,-0.6216433000000001,1.103159,-0.1107321,-0.137221,0.8703386000000001,0.1655071,4.097312,31.13676,35.41
3,0.1114807,-0.01467896,0.9936523000000002,1.0,0.02549744,-0.06910706,0.9972687,-34.04842,0.5593262,-25.562520000000003,3.899338,0.5883621,0.5554613,1.0,0.1139068999999999,-0.01312256,0.9933929,34.73662,-3.732559,-24.53859,3.994202,0.4172642,0.6668265999999999,-0.6216433000000001,1.103159,-0.1107321,-0.137221,0.8703386000000001,0.1655071,4.097312,31.13676,35.41
3,0.09326172,0.01071167,0.995575,0.8132596,0.01168823,-0.01104736,0.9998627,-34.15311,0.6865845,-25.53679,3.950089,0.593504,0.5442670000000001,0.8990341000000001,0.09327698,0.01071167,0.995575,34.60768,-3.484192,-24.828000000000003,3.985977,0.4237978,0.6586446,-0.6167693000000001,1.100405,-0.1084004,-0.1259806,0.8620992000000001,0.146448,4.097312,46.47902,35.41
3,0.09326172,0.01071167,0.995575,0.8132596,0.01168823,-0.01104736,0.9998627,-34.15311,0.6865845,-25.53679,3.950089,0.593504,0.5442670000000001,0.8990341000000001,0.09327698,0.01071167,0.995575,34.60768,-3.484192,-24.828000000000003,3.985977,0.4237978,0.6586446,-0.6167693000000001,1.100405,-0.1084004,-0.1259806,0.8620992000000001,0.146448,4.097312,46.47902,35.41
3,0.09326172,0.01071167,0.995575,0.8132596,0.01168823,-0.01104736,0.9998627,-34.15311,0.6865845,-25.53679,3.950089,0.593504,0.5442670000000001,0.8990341000000001,0.09327698,0.01071167,0.995575,34.60768,-3.484192,-24.828000000000003,3.985977,0.4237978,0.6586446,-0.6167693000000001,1.100405,-0.1084004,-0.1259806,0.8620992000000001,0.146448,4.097312,46.47902,35.41
3,0.2176361,-0.01858521,0.9758453,0.7509756999999999,0.1187897,-0.06640625,0.9906921,-33.56416,0.7805786,-26.54881,3.837738,0.5620076999999999,0.556687,0.8751211,0.2181244,-0.01835632,0.9757385,34.90181,-3.754166000000001,-24.27641,4.103119,0.3998627999999999,0.6658351,-0.6064579000000001,1.094232,-0.1016806,-0.09639587,0.8374603,0.1069266,4.097312,46.47902,35.41
3,0.2176361,-0.01858521,0.9758453,0.7509756999999999,0.1187897,-0.06640625,0.9906921,-33.56416,0.7805786,-26.54881,3.837738,0.5620076999999999,0.556687,0.8751211,0.2181244,-0.01835632,0.9757385,34.90181,-3.754166000000001,-24.27641,4.103119,0.3998627999999999,0.6658351,-0.6064579000000001,1.094232,-0.1016806,-0.09639587,0.8374603,0.1069266,4.097312,46.47902,35.41
3,0.2176361,-0.01858521,0.9758453,0.7509756999999999,0.1187897,-0.06640625,0.9906921,-33.56416,0.7805786,-26.54881,3.837738,0.5620076999999999,0.556687,0.8751211,0.2181244,-0.01835632,0.9757385,34.90181,-3.754166000000001,-24.27641,4.103119,0.3998627999999999,0.6658351,-0.6064579000000001,1.094232,-0.1016806,-0.09639587,0.8374603,0.1069266,4.097312,46.47902,35.41
3,0.2723236,-0.1060486,0.9563293,0.8394995000000001,0.2723236,-0.1060486,0.9563293,-33.02124,0.702774,-25.96696,3.986084,0.5255516,0.5595464,0.7362326,0.2831116,-0.04702759,0.9579315,35.44429,-4.063522,-24.62157,3.532196,0.3742011,0.6819765999999999,-0.6014735999999999,1.0917629999999998,-0.09766012,-0.08412053,0.8221654,0.09206238,4.097312,46.47902,35.41
3,0.2723236,-0.1060486,0.9563293,0.8394995000000001,0.2723236,-0.1060486,0.9563293,-33.02124,0.702774,-25.96696,3.986084,0.5255516,0.5595464,0.7362326,0.2831116,-0.04702759,0.9579315,35.44429,-4.063522,-24.62157,3.532196,0.3742011,0.6819765999999999,-0.6014735999999999,1.0917629999999998,-0.09766012,-0.08412053,0.8221654,0.09206238,4.097312,46.47902,35.41
3,0.2723236,-0.1060486,0.9563293,0.8394995000000001,0.2723236,-0.1060486,0.9563293,-33.02124,0.702774,-25.96696,3.986084,0.5255516,0.5595464,0.7362326,0.2831116,-0.04702759,0.9579315,35.44429,-4.063522,-24.62157,3.532196,0.3742011,0.6819765999999999,-0.6014735999999999,1.0917629999999998,-0.09766012,-0.08412053,0.8221654,0.09206238,4.097312,46.47902,35.41
3,0.240921,-0.06755066,0.9681854,0.8174608,0.240921,-0.06755066,0.9681854,-33.18687,0.9177094,-25.91924,4.012466000000001,0.534884,0.5471581999999999,0.7367003000000001,0.2989349,-0.1121216,0.9476471,35.47379,-3.490021,-23.93372,3.855103,0.3718413,0.6647879,-0.5979011,1.090323,-0.09402156,-0.0778557,0.8075168,0.08535666,4.097312,46.47902,35.41
3,0.240921,-0.06755066,0.9681854,0.8174608,0.240921,-0.06755066,0.9681854,-33.18687,0.9177094,-25.91924,4.012466000000001,0.534884,0.5471581999999999,0.7367003000000001,0.2989349,-0.1121216,0.9476471,35.47379,-3.490021,-23.93372,3.855103,0.3718413,0.6647879,-0.5979011,1.090323,-0.09402156,-0.0778557,0.8075168,0.08535666,4.097312,46.47902,35.41
3,0.240921,-0.06755066,0.9681854,0.8174608,0.240921,-0.06755066,0.9681854,-33.18687,0.9177094,-25.91924,4.012466000000001,0.534884,0.5471581999999999,0.7367003000000001,0.2989349,-0.1121216,0.9476471,35.47379,-3.490021,-23.93372,3.855103,0.3718413,0.6647879,-0.5979011,1.090323,-0.09402156,-0.0778557,0.8075168,0.08535666,4.097312,46.47902,35.41
3,0.1533051,-0.02392578,0.9878845,0.7353818,0.1533051,-0.02392578,0.9878845,-33.67711,1.532639,-26.70602,3.922394,0.562102,0.527995,0.864767,0.2218627999999999,0.0030059809999999,0.9750671,34.92194,-2.571243,-25.740070000000003,4.064377,0.3978246,0.6380818,-0.5946646,1.089038,-0.09049183,-0.07214928,0.7963098000000001,0.0777621,4.097312,46.47902,35.41
3,0.1533051,-0.02392578,0.9878845,0.7353818,0.1533051,-0.02392578,0.9878845,-33.67711,1.532639,-26.70602,3.922394,0.562102,0.527995,0.864767,0.2218627999999999,0.0030059809999999,0.9750671,34.92194,-2.571243,-25.740070000000003,4.064377,0.3978246,0.6380818,-0.5946646,1.089038,-0.09049183,-0.07214928,0.7963098000000001,0.0777621,4.097312,46.47902,35.41
3,0.1533051,-0.02392578,0.9878845,0.7353818,0.1533051,-0.02392578,0.9878845,-33.67711,1.532639,-26.70602,3.922394,0.562102,0.527995,0.864767,0.2218627999999999,0.0030059809999999,0.9750671,34.92194,-2.571243,-25.740070000000003,4.064377,0.3978246,0.6380818,-0.5946646,1.089038,-0.09049183,-0.07214928,0.7963098000000001,0.0777621,4.097312,46.47902,35.41
3,0.08659363,0.00428772,0.9962311,0.6726464,0.08659363,0.00428772,0.9962311,-33.96565,1.638931,-26.91664,4.046631,0.5800076999999999,0.522963,0.8895119,0.1947327,0.06013489,0.9790039,34.57225,-2.644638,-25.17812,4.132675,0.4131420999999999,0.6286965999999999,-0.5946646,1.089038,-0.09049183,-0.07214928,0.7963098000000001,0.0777621,4.097312,-56.76675,35.41
3,0.08659363,0.00428772,0.9962311,0.6726464,0.08659363,0.00428772,0.9962311,-33.96565,1.638931,-26.91664,4.046631,0.5800076999999999,0.522963,0.8895119,0.1947327,0.06013489,0.9790039,34.57225,-2.644638,-25.17812,4.132675,0.4131420999999999,0.6286965999999999,-0.5946646,1.089038,-0.09049183,-0.07214928,0.7963098000000001,0.0777621,4.097312,-56.76675,35.41
3,0.08659363,0.00428772,0.9962311,0.6726464,0.08659363,0.00428772,0.9962311,-33.96565,1.638931,-26.91664,4.046631,0.5800076999999999,0.522963,0.8895119,0.1947327,0.06013489,0.9790039,34.57225,-2.644638,-25.17812,4.132675,0.4131420999999999,0.6286965999999999,-0.5946646,1.089038,-0.09049183,-0.07214928,0.7963098000000001,0.0777621,4.097312,-56.76675,35.41
3,0.06401062,0.01834106,0.9977722,0.6741826,0.06401062,0.01834106,0.9977722,-34.07564,1.52916,-26.4917,4.028931,0.5859304,0.5212317,0.8901965000000001,0.1654358,0.04832458,0.9850311,34.495,-2.61908,-25.37967,4.072433,0.4189726,0.6310284,-0.5895743,1.08536,-0.08309019,-0.04913592,0.7724791,0.06500132,4.097312,-56.76675,35.41
3,0.06401062,0.01834106,0.9977722,0.6741826,0.06401062,0.01834106,0.9977722,-34.07564,1.52916,-26.4917,4.028931,0.5859304,0.5212317,0.8901965000000001,0.1654358,0.04832458,0.9850311,34.495,-2.61908,-25.37967,4.072433,0.4189726,0.6310284,-0.5895743,1.08536,-0.08309019,-0.04913592,0.7724791,0.06500132,4.097312,-56.76675,35.41
3,0.06401062,0.01834106,0.9977722,0.6741826,0.06401062,0.01834106,0.9977722,-34.07564,1.52916,-26.4917,4.028931,0.5859304,0.5212317,0.8901965000000001,0.1654358,0.04832458,0.9850311,34.495,-2.61908,-25.37967,4.072433,0.4189726,0.6310284,-0.5895743,1.08536,-0.08309019,-0.04913592,0.7724791,0.06500132,4.097312,-56.76675,35.41
3,0.03678894,0.08306885,0.9958496,0.6443393,-0.0125885,0.07325745,0.9972229,-34.44116,1.632614,-26.3064,4.141983,0.6071145,0.5099345999999999,0.942917,0.0717926,0.08988953,0.9933472,34.086209999999994,-2.354645,-25.67952,4.065857,0.4433303,0.6203823,-0.5874507,1.083382,-0.07947123,-0.03826247,0.7611011,0.05993534,4.097312,-56.76675,35.41
3,0.03678894,0.08306885,0.9958496,0.6443393,-0.0125885,0.07325745,0.9972229,-34.44116,1.632614,-26.3064,4.141983,0.6071145,0.5099345999999999,0.942917,0.0717926,0.08988953,0.9933472,34.086209999999994,-2.354645,-25.67952,4.065857,0.4433303,0.6203823,-0.5874507,1.083382,-0.07947123,-0.03826247,0.7611011,0.05993534,4.097312,-56.76675,35.41
3,0.03678894,0.08306885,0.9958496,0.6443393,-0.0125885,0.07325745,0.9972229,-34.44116,1.632614,-26.3064,4.141983,0.6071145,0.5099345999999999,0.942917,0.0717926,0.08988953,0.9933472,34.086209999999994,-2.354645,-25.67952,4.065857,0.4433303,0.6203823,-0.5874507,1.083382,-0.07947123,-0.03826247,0.7611011,0.05993534,4.097312,-56.76675,35.41
3,0.1937408,-0.04098511,0.9801940999999998,0.7641661999999999,0.1591948999999999,-0.06578064,0.9850464,-33.4814,1.411926,-26.43127,4.036041,0.5547505,0.5346083,0.8731469999999999,0.2425995,-0.005340576,0.970108,34.70619,-2.949158,-25.32414,3.976669,0.4028064,0.6477038,-0.5856955,1.082698,-0.0757972,-0.03313405,0.7507812,0.05965174,4.097312,-56.76675,35.41
3,0.1937408,-0.04098511,0.9801940999999998,0.7641661999999999,0.1591948999999999,-0.06578064,0.9850464,-33.4814,1.411926,-26.43127,4.036041,0.5547505,0.5346083,0.8731469999999999,0.2425995,-0.005340576,0.970108,34.70619,-2.949158,-25.32414,3.976669,0.4028064,0.6477038,-0.5856955,1.082698,-0.0757972,-0.03313405,0.7507812,0.05965174,4.097312,-56.76675,35.41
3,0.1937408,-0.04098511,0.9801940999999998,0.7641661999999999,0.1591948999999999,-0.06578064,0.9850464,-33.4814,1.411926,-26.43127,4.036041,0.5547505,0.5346083,0.8731469999999999,0.2425995,-0.005340576,0.970108,34.70619,-2.949158,-25.32414,3.976669,0.4028064,0.6477038,-0.5856955,1.082698,-0.0757972,-0.03313405,0.7507812,0.05965174,4.097312,-56.76675,35.41
3,0.2058867999999999,-0.002990723,0.9785614,1.0,0.1300049,-0.09893799,0.986557,-33.71135,1.409729,-26.60138,4.14473,0.5661791,0.5401205,1.0,0.2065582,-0.00213623,0.9784241,34.70003,-3.031662,-25.05521,4.20578,0.4073822,0.6476553,-0.5842593,1.082271,-0.07219315,-0.0302169,0.7415028,0.05897089,4.097312,-111.2162,35.41
3,0.2058867999999999,-0.002990723,0.9785614,1.0,0.1300049,-0.09893799,0.986557,-33.71135,1.409729,-26.60138,4.14473,0.5661791,0.5401205,1.0,0.2065582,-0.00213623,0.9784241,34.70003,-3.031662,-25.05521,4.20578,0.4073822,0.6476553,-0.5842593,1.082271,-0.07219315,-0.0302169,0.7415028,0.05897089,4.097312,-111.2162,35.41
3,0.2058867999999999,-0.002990723,0.9785614,1.0,0.1300049,-0.09893799,0.986557,-33.71135,1.409729,-26.60138,4.14473,0.5661791,0.5401205,1.0,0.2065582,-0.00213623,0.9784241,34.70003,-3.031662,-25.05521,4.20578,0.4073822,0.6476553,-0.5842593,1.082271,-0.07219315,-0.0302169,0.7415028,0.05897089,4.097312,-111.2162,35.41
3,0.2033386,-0.01226807,0.9790192,0.9119064,0.1030426,-0.08958435,0.9906311,-33.82205,1.373474,-26.513890000000004,4.092636,0.5729065999999999,0.5393547,0.9378579,0.2035828,-0.01208496,0.9789734,34.62627,-3.063202,-25.06587,4.114929,0.4101955,0.6498643,-0.5828378000000001,1.081327,-0.06860119,-0.02458694,0.7325041,0.0582363,4.097312,-111.2162,35.41
3,0.2033386,-0.01226807,0.9790192,0.9119064,0.1030426,-0.08958435,0.9906311,-33.82205,1.373474,-26.513890000000004,4.092636,0.5729065999999999,0.5393547,0.9378579,0.2035828,-0.01208496,0.9789734,34.62627,-3.063202,-25.06587,4.114929,0.4101955,0.6498643,-0.5828378000000001,1.081327,-0.06860119,-0.02458694,0.7325041,0.0582363,4.097312,-111.2162,35.41
3,0.2033386,-0.01226807,0.9790192,0.9119064,0.1030426,-0.08958435,0.9906311,-33.82205,1.373474,-26.513890000000004,4.092636,0.5729065999999999,0.5393547,0.9378579,0.2035828,-0.01208496,0.9789734,34.62627,-3.063202,-25.06587,4.114929,0.4101955,0.6498643,-0.5828378000000001,1.081327,-0.06860119,-0.02458694,0.7325041,0.0582363,4.097312,-111.2162,35.41
3,0.1496887,-0.03695679,0.9880371,0.9650879,0.07562256,-0.08857727,0.9931793,-33.94853,1.244202,-26.04121,4.19632,0.5800533,0.5393806999999999,0.9433889,0.1497802999999999,-0.03689575,0.9880219,34.53676,-3.13884,-24.88904,4.1100010000000005,0.4195253,0.6535131999999999,-0.5812943,1.079747,-0.06381029,-0.01233303,0.7206991999999999,0.05709871,4.097312,-111.2162,35.41
3,0.1496887,-0.03695679,0.9880371,0.9650879,0.07562256,-0.08857727,0.9931793,-33.94853,1.244202,-26.04121,4.19632,0.5800533,0.5393806999999999,0.9433889,0.1497802999999999,-0.03689575,0.9880219,34.53676,-3.13884,-24.88904,4.1100010000000005,0.4195253,0.6535131999999999,-0.5812943,1.079747,-0.06381029,-0.01233303,0.7206991999999999,0.05709871,4.097312,-111.2162,35.41
3,0.1496887,-0.03695679,0.9880371,0.9650879,0.07562256,-0.08857727,0.9931793,-33.94853,1.244202,-26.04121,4.19632,0.5800533,0.5393806999999999,0.9433889,0.1497802999999999,-0.03689575,0.9880219,34.53676,-3.13884,-24.88904,4.1100010000000005,0.4195253,0.6535131999999999,-0.5812943,1.079747,-0.06381029,-0.01233303,0.7206991999999999,0.05709871,4.097312,-111.2162,35.41
3,0.1282806,-0.03338623,0.9911652,0.9073187,0.05273438,-0.08398438,0.9950562,-34.07359,1.202026,-26.04729,4.180603,0.5868899999999999,0.5402920999999999,0.936592,0.1300354,-0.03219604,0.9909821,34.44186,-3.094376,-25.07954,4.129959,0.4248061999999999,0.6533502,-0.5802045,1.078186,-0.05991614,-0.002214155,0.7118189,0.05557391,4.097312,-111.2162,35.41
3,0.1282806,-0.03338623,0.9911652,0.9073187,0.05273438,-0.08398438,0.9950562,-34.07359,1.202026,-26.04729,4.180603,0.5868899999999999,0.5402920999999999,0.936592,0.1300354,-0.03219604,0.9909821,34.44186,-3.094376,-25.07954,4.129959,0.4248061999999999,0.6533502,-0.5802045,1.078186,-0.05991614,-0.002214155,0.7118189,0.05557391,4.097312,-111.2162,35.41
3,0.1282806,-0.03338623,0.9911652,0.9073187,0.05273438,-0.08398438,0.9950562,-34.07359,1.202026,-26.04729,4.180603,0.5868899999999999,0.5402920999999999,0.936592,0.1300354,-0.03219604,0.9909821,34.44186,-3.094376,-25.07954,4.129959,0.4248061999999999,0.6533502,-0.5802045,1.078186,-0.05991614,-0.002214155,0.7118189,0.05557391,4.097312,-111.2162,35.41
3,0.07292175,-0.04359436,0.9963837,0.9942677,0.02281189,-0.0785675,0.9966431,-34.22623,1.110321,-25.62177,4.265808,0.5951406,0.5389921999999999,0.9528332,0.09922791,-0.02508545,0.9947357,34.30219,-3.099075,-24.87643,4.219069999999999,0.433083,0.6508458,-0.5791210999999999,1.07655,-0.05585676,0.007727639,0.702814,0.05430119,4.097312,-111.2162,35.41
3,0.07292175,-0.04359436,0.9963837,0.9942677,0.02281189,-0.0785675,0.9966431,-34.22623,1.110321,-25.62177,4.265808,0.5951406,0.5389921999999999,0.9528332,0.09922791,-0.02508545,0.9947357,34.30219,-3.099075,-24.87643,4.219069999999999,0.433083,0.6508458,-0.5791210999999999,1.07655,-0.05585676,0.007727639,0.702814,0.05430119,4.097312,-111.2162,35.41
3,0.07292175,-0.04359436,0.9963837,0.9942677,0.02281189,-0.0785675,0.9966431,-34.22623,1.110321,-25.62177,4.265808,0.5951406,0.5389921999999999,0.9528332,0.09922791,-0.02508545,0.9947357,34.30219,-3.099075,-24.87643,4.219069999999999,0.433083,0.6508458,-0.5791210999999999,1.07655,-0.05585676,0.007727639,0.702814,0.05430119,4.097312,-111.2162,35.41
3,0.07081604,-0.02108765,0.9972534,1.0,0.01286316,-0.05699158,0.998291,-34.28734,1.1694639999999998,-25.94499,4.242599,0.5986486999999999,0.537366,1.0,0.07643127,-0.01759338,0.9969177,34.23891,-3.009048,-25.01633,4.304779,0.4376635,0.64845,-0.5780941999999999,1.074631,-0.05189741,0.01640404,0.6931510000000001,0.05368007,4.097312,94.75723,35.41
3,0.07081604,-0.02108765,0.9972534,1.0,0.01286316,-0.05699158,0.998291,-34.28734,1.1694639999999998,-25.94499,4.242599,0.5986486999999999,0.537366,1.0,0.07643127,-0.01759338,0.9969177,34.23891,-3.009048,-25.01633,4.304779,0.4376635,0.64845,-0.5780941999999999,1.074631,-0.05189741,0.01640404,0.6931510000000001,0.05368007,4.097312,94.75723,35.41
3,0.07081604,-0.02108765,0.9972534,1.0,0.01286316,-0.05699158,0.998291,-34.28734,1.1694639999999998,-25.94499,4.242599,0.5986486999999999,0.537366,1.0,0.07643127,-0.01759338,0.9969177,34.23891,-3.009048,-25.01633,4.304779,0.4376635,0.64845,-0.5780941999999999,1.074631,-0.05189741,0.01640404,0.6931510000000001,0.05368007,4.097312,94.75723,35.41
3,0.03887939,-0.03063965,0.998764,0.8972639000000001,-0.03721619,-0.07653809,0.9963684000000002,-34.53001,1.016174,-25.23073,4.083008,0.6116199000000001,0.5383526,0.95221,0.04759216,-0.02534485,0.9985351999999998,34.050259999999994,-2.890488,-25.02435,4.175339,0.4473366,0.6454414,-0.5766504,1.07248,-0.04352748,0.02590294,0.6733892,0.05240223,4.097312,94.75723,35.41
3,0.03887939,-0.03063965,0.998764,0.8972639000000001,-0.03721619,-0.07653809,0.9963684000000002,-34.53001,1.016174,-25.23073,4.083008,0.6116199000000001,0.5383526,0.95221,0.04759216,-0.02534485,0.9985351999999998,34.050259999999994,-2.890488,-25.02435,4.175339,0.4473366,0.6454414,-0.5766504,1.07248,-0.04352748,0.02590294,0.6733892,0.05240223,4.097312,94.75723,35.41
3,0.03887939,-0.03063965,0.998764,0.8972639000000001,-0.03721619,-0.07653809,0.9963684000000002,-34.53001,1.016174,-25.23073,4.083008,0.6116199000000001,0.5383526,0.95221,0.04759216,-0.02534485,0.9985351999999998,34.050259999999994,-2.890488,-25.02435,4.175339,0.4473366,0.6454414,-0.5766504,1.07248,-0.04352748,0.02590294,0.6733892,0.05240223,4.097312,94.75723,35.41
3,0.02932739,-0.0463561999999999,0.9984894,0.9834876,-0.05603027,-0.06906128,0.9960327,-34.65442,0.9751129,-25.27403,4.1271510000000005,0.6180464,0.5393097,0.9551197,0.03129578,-0.0458374,0.9984436,33.95309,-2.826645,-25.40172,4.071152,0.4522860999999999,0.6493007,-0.5759003,1.071345,-0.03942174,0.0304779999999999,0.6633791,0.05181652,4.097312,94.75723,35.41
3,0.02932739,-0.0463561999999999,0.9984894,0.9834876,-0.05603027,-0.06906128,0.9960327,-34.65442,0.9751129,-25.27403,4.1271510000000005,0.6180464,0.5393097,0.9551197,0.03129578,-0.0458374,0.9984436,33.95309,-2.826645,-25.40172,4.071152,0.4522860999999999,0.6493007,-0.5759003,1.071345,-0.03942174,0.0304779999999999,0.6633791,0.05181652,4.097312,94.75723,35.41
3,0.02932739,-0.0463561999999999,0.9984894,0.9834876,-0.05603027,-0.06906128,0.9960327,-34.65442,0.9751129,-25.27403,4.1271510000000005,0.6180464,0.5393097,0.9551197,0.03129578,-0.0458374,0.9984436,33.95309,-2.826645,-25.40172,4.071152,0.4522860999999999,0.6493007,-0.5759003,1.071345,-0.03942174,0.0304779999999999,0.6633791,0.05181652,4.097312,94.75723,35.41
3,0.02932739,-0.0463561999999999,0.9984894,0.9834876,-0.05603027,-0.06906128,0.9960327,-34.65442,0.9751129,-25.27403,4.1271510000000005,0.6180464,0.5393097,0.9551197,0.03129578,-0.0458374,0.9984436,33.95309,-2.826645,-25.40172,4.071152,0.4522860999999999,0.6493007,-0.5752056,1.070608,-0.03540093,0.03373572,0.6535963,0.05139922,4.097312,94.75723,35.41
3,0.02932739,-0.0463561999999999,0.9984894,0.9834876,-0.05603027,-0.06906128,0.9960327,-34.65442,0.9751129,-25.27403,4.1271510000000005,0.6180464,0.5393097,0.9551197,0.03129578,-0.0458374,0.9984436,33.95309,-2.826645,-25.40172,4.071152,0.4522860999999999,0.6493007,-0.5752056,1.070608,-0.03540093,0.03373572,0.6535963,0.05139922,4.097312,94.75723,35.41
3,0.02932739,-0.0463561999999999,0.9984894,0.9834876,-0.05603027,-0.06906128,0.9960327,-34.65442,0.9751129,-25.27403,4.1271510000000005,0.6180464,0.5393097,0.9551197,0.03129578,-0.0458374,0.9984436,33.95309,-2.826645,-25.40172,4.071152,0.4522860999999999,0.6493007,-0.5752056,1.070608,-0.03540093,0.03373572,0.6535963,0.05139922,4.097312,94.75723,35.41
3,0.02932739,-0.0463561999999999,0.9984894,0.9834876,-0.05603027,-0.06906128,0.9960327,-34.65442,0.9751129,-25.27403,4.1271510000000005,0.6180464,0.5393097,0.9551197,0.03129578,-0.0458374,0.9984436,33.95309,-2.826645,-25.40172,4.071152,0.4522860999999999,0.6493007,-0.57477,1.069487,-0.03174484,0.03755215,0.6447319,0.05015226,4.097312,94.75723,35.41
3,0.02932739,-0.0463561999999999,0.9984894,0.9834876,-0.05603027,-0.06906128,0.9960327,-34.65442,0.9751129,-25.27403,4.1271510000000005,0.6180464,0.5393097,0.9551197,0.03129578,-0.0458374,0.9984436,33.95309,-2.826645,-25.40172,4.071152,0.4522860999999999,0.6493007,-0.57477,1.069487,-0.03174484,0.03755215,0.6447319,0.05015226,4.097312,94.75723,35.41
3,0.02932739,-0.0463561999999999,0.9984894,0.9834876,-0.05603027,-0.06906128,0.9960327,-34.65442,0.9751129,-25.27403,4.1271510000000005,0.6180464,0.5393097,0.9551197,0.03129578,-0.0458374,0.9984436,33.95309,-2.826645,-25.40172,4.071152,0.4522860999999999,0.6493007,-0.57477,1.069487,-0.03174484,0.03755215,0.6447319,0.05015226,4.097312,94.75723,35.41
3,-0.02722168,-0.06355286,0.9976044,0.8968311999999999,-0.1119232,-0.08447266,0.9901123,-34.92883,0.9382629,-25.6391,3.938599,0.6341274,0.545599,0.9720044,-0.02441406,-0.06285095,0.9977112,33.680440000000004,-2.936905,-24.96101,4.007294,0.4679494999999999,0.6508590999999999,-0.5744435999999999,1.068829,-0.0285086,0.03832338,0.6367655,0.04920183,4.097312,36.87144,35.41
3,-0.02722168,-0.06355286,0.9976044,0.8968311999999999,-0.1119232,-0.08447266,0.9901123,-34.92883,0.9382629,-25.6391,3.938599,0.6341274,0.545599,0.9720044,-0.02441406,-0.06285095,0.9977112,33.680440000000004,-2.936905,-24.96101,4.007294,0.4679494999999999,0.6508590999999999,-0.5744435999999999,1.068829,-0.0285086,0.03832338,0.6367655,0.04920183,4.097312,36.87144,35.41
3,-0.02722168,-0.06355286,0.9976044,0.8968311999999999,-0.1119232,-0.08447266,0.9901123,-34.92883,0.9382629,-25.6391,3.938599,0.6341274,0.545599,0.9720044,-0.02441406,-0.06285095,0.9977112,33.680440000000004,-2.936905,-24.96101,4.007294,0.4679494999999999,0.6508590999999999,-0.5744435999999999,1.068829,-0.0285086,0.03832338,0.6367655,0.04920183,4.097312,36.87144,35.41
3,-0.02722168,-0.06355286,0.9976044,0.9136416,-0.1119232,-0.08447266,0.9901123,-34.92883,0.9382629,-25.6391,3.938599,0.6341274,0.545599,0.9755158000000002,-0.02441406,-0.06285095,0.9977112,33.680440000000004,-2.936905,-24.96101,4.007294,0.4679494999999999,0.6508590999999999,-0.5740685000000001,1.068152,-0.02554095,0.03956774,0.6296636,0.04817526,4.097312,36.87144,35.41
3,-0.02722168,-0.06355286,0.9976044,0.9136416,-0.1119232,-0.08447266,0.9901123,-34.92883,0.9382629,-25.6391,3.938599,0.6341274,0.545599,0.9755158000000002,-0.02441406,-0.06285095,0.9977112,33.680440000000004,-2.936905,-24.96101,4.007294,0.4679494999999999,0.6508590999999999,-0.5740685000000001,1.068152,-0.02554095,0.03956774,0.6296636,0.04817526,4.097312,36.87144,35.41
3,-0.02722168,-0.06355286,0.9976044,0.9136416,-0.1119232,-0.08447266,0.9901123,-34.92883,0.9382629,-25.6391,3.938599,0.6341274,0.545599,0.9755158000000002,-0.02441406,-0.06285095,0.9977112,33.680440000000004,-2.936905,-24.96101,4.007294,0.4679494999999999,0.6508590999999999,-0.5740685000000001,1.068152,-0.02554095,0.03956774,0.6296636,0.04817526,4.097312,36.87144,35.41
3,-0.02722168,-0.06355286,0.9976044,0.9136416,-0.1119232,-0.08447266,0.9901123,-34.92883,0.9382629,-25.6391,3.938599,0.6341274,0.545599,0.9755158000000002,-0.02441406,-0.06285095,0.9977112,33.680440000000004,-2.936905,-24.96101,4.007294,0.4679494999999999,0.6508590999999999,-0.573503,1.06759,-0.02311075,0.04094263,0.6233304000000001,0.04744179,4.097312,36.87144,35.41
3,-0.02722168,-0.06355286,0.9976044,0.9136416,-0.1119232,-0.08447266,0.9901123,-34.92883,0.9382629,-25.6391,3.938599,0.6341274,0.545599,0.9755158000000002,-0.02441406,-0.06285095,0.9977112,33.680440000000004,-2.936905,-24.96101,4.007294,0.4679494999999999,0.6508590999999999,-0.573503,1.06759,-0.02311075,0.04094263,0.6233304000000001,0.04744179,4.097312,36.87144,35.41
3,-0.02722168,-0.06355286,0.9976044,0.9136416,-0.1119232,-0.08447266,0.9901123,-34.92883,0.9382629,-25.6391,3.938599,0.6341274,0.545599,0.9755158000000002,-0.02441406,-0.06285095,0.9977112,33.680440000000004,-2.936905,-24.96101,4.007294,0.4679494999999999,0.6508590999999999,-0.573503,1.06759,-0.02311075,0.04094263,0.6233304000000001,0.04744179,4.097312,36.87144,35.41
3,-0.06958008,-0.06817627,0.9952393,0.8938398000000001,-0.1471863,-0.09014893,0.9849854,-35.121190000000006,0.7519684,-25.384870000000003,3.84819,0.6443331,0.5502984999999999,0.9564891,-0.06887817,-0.06797791,0.9953003,33.50755,-2.992722,-24.92021,3.828491000000001,0.4789642,0.6530049,-0.5732235999999999,1.067252,-0.02091056,0.04088918,0.6180929000000001,0.04708577,4.097312,36.87144,35.41
3,-0.06958008,-0.06817627,0.9952393,0.8938398000000001,-0.1471863,-0.09014893,0.9849854,-35.121190000000006,0.7519684,-25.384870000000003,3.84819,0.6443331,0.5502984999999999,0.9564891,-0.06887817,-0.06797791,0.9953003,33.50755,-2.992722,-24.92021,3.828491000000001,0.4789642,0.6530049,-0.5732235999999999,1.067252,-0.02091056,0.04088918,0.6180929000000001,0.04708577,4.097312,36.87144,35.41
3,-0.06958008,-0.06817627,0.9952393,0.8938398000000001,-0.1471863,-0.09014893,0.9849854,-35.121190000000006,0.7519684,-25.384870000000003,3.84819,0.6443331,0.5502984999999999,0.9564891,-0.06887817,-0.06797791,0.9953003,33.50755,-2.992722,-24.92021,3.828491000000001,0.4789642,0.6530049,-0.5732235999999999,1.067252,-0.02091056,0.04088918,0.6180929000000001,0.04708577,4.097312,36.87144,35.41
4,-0.0644989,-0.0716095,0.9953308,0.9007492,-0.1679077,-0.1154022,0.9790192,-35.19197,0.8810576999999999,-25.86172,3.819122,0.6499111999999999,0.5533401,0.9488539,-0.06387329,-0.07133484,0.9953918,33.47668,-2.982666,-24.99278,3.8172,0.4793967,0.6537539000000001,-0.5730259,1.066691,-0.01908141,0.0424402,0.6135122,0.04628083,4.097312,36.87144,35.41
4,-0.0644989,-0.0716095,0.9953308,0.9007492,-0.1679077,-0.1154022,0.9790192,-35.19197,0.8810576999999999,-25.86172,3.819122,0.6499111999999999,0.5533401,0.9488539,-0.06387329,-0.07133484,0.9953918,33.47668,-2.982666,-24.99278,3.8172,0.4793967,0.6537539000000001,-0.5730259,1.066691,-0.01908141,0.0424402,0.6135122,0.04628083,4.097312,36.87144,35.41
4,-0.0644989,-0.0716095,0.9953308,0.9007492,-0.1679077,-0.1154022,0.9790192,-35.19197,0.8810576999999999,-25.86172,3.819122,0.6499111999999999,0.5533401,0.9488539,-0.06387329,-0.07133484,0.9953918,33.47668,-2.982666,-24.99278,3.8172,0.4793967,0.6537539000000001,-0.5730259,1.066691,-0.01908141,0.0424402,0.6135122,0.04628083,4.097312,36.87144,35.41
4,-0.06887817,-0.08636475,0.993866,0.8089881999999999,-0.1825256,-0.1087494,0.9771576,-35.21053,0.5404663000000001,-24.82071,3.877762,0.6507062,0.5546724000000001,0.954627,-0.06887817,-0.08636475,0.993866,33.461240000000004,-2.972595,-24.99879,3.806717,0.4804799,0.6552836999999999,-0.5727939999999999,1.066391,-0.01764208,0.04193306,0.6099326,0.0456636,4.097312,-24.37,35.41
4,-0.06887817,-0.08636475,0.993866,0.8089881999999999,-0.1825256,-0.1087494,0.9771576,-35.21053,0.5404663000000001,-24.82071,3.877762,0.6507062,0.5546724000000001,0.954627,-0.06887817,-0.08636475,0.993866,33.461240000000004,-2.972595,-24.99879,3.806717,0.4804799,0.6552836999999999,-0.5727939999999999,1.066391,-0.01764208,0.04193306,0.6099326,0.0456636,4.097312,-24.37,35.41
4,-0.06887817,-0.08636475,0.993866,0.8089881999999999,-0.1825256,-0.1087494,0.9771576,-35.21053,0.5404663000000001,-24.82071,3.877762,0.6507062,0.5546724000000001,0.954627,-0.06887817,-0.08636475,0.993866,33.461240000000004,-2.972595,-24.99879,3.806717,0.4804799,0.6552836999999999,-0.5727939999999999,1.066391,-0.01764208,0.04193306,0.6099326,0.0456636,4.097312,-24.37,35.41
4,-0.08146667,-0.08444214,0.9930878,0.7564825,-0.1849212999999999,-0.1161194,0.9758606,-35.25783,0.5377196999999999,-24.88605,3.846649,0.6526696999999999,0.5562147,0.9402228,-0.07955933,-0.0838623,0.9932861,33.3811,-2.946121,-25.4126,3.780838,0.4842777,0.6581795,-0.5724254,1.066181,-0.01633644,0.04139012,0.606583,0.04505122,4.097312,-24.37,35.41
4,-0.08146667,-0.08444214,0.9930878,0.7564825,-0.1849212999999999,-0.1161194,0.9758606,-35.25783,0.5377196999999999,-24.88605,3.846649,0.6526696999999999,0.5562147,0.9402228,-0.07955933,-0.0838623,0.9932861,33.3811,-2.946121,-25.4126,3.780838,0.4842777,0.6581795,-0.5724254,1.066181,-0.01633644,0.04139012,0.606583,0.04505122,4.097312,-24.37,35.41
4,-0.08146667,-0.08444214,0.9930878,0.7564825,-0.1849212999999999,-0.1161194,0.9758606,-35.25783,0.5377196999999999,-24.88605,3.846649,0.6526696999999999,0.5562147,0.9402228,-0.07955933,-0.0838623,0.9932861,33.3811,-2.946121,-25.4126,3.780838,0.4842777,0.6581795,-0.5724254,1.066181,-0.01633644,0.04139012,0.606583,0.04505122,4.097312,-24.37,35.41
4,-0.09011841,-0.1061096,0.9902496,0.8022183,-0.1928558,-0.107254,0.9753418,-35.25697,0.4991912999999999,-24.92574,3.806335,0.6537328,0.55681,0.9412175,-0.08494568,-0.1060333,0.9907226999999998,33.37787,-3.004227,-25.3158,3.692261,0.4851107,0.6617985,-0.5720960999999999,1.065875,-0.01499969,0.04259423,0.6035433000000001,0.04404667,4.097312,-24.37,35.41
4,-0.09011841,-0.1061096,0.9902496,0.8022183,-0.1928558,-0.107254,0.9753418,-35.25697,0.4991912999999999,-24.92574,3.806335,0.6537328,0.55681,0.9412175,-0.08494568,-0.1060333,0.9907226999999998,33.37787,-3.004227,-25.3158,3.692261,0.4851107,0.6617985,-0.5720960999999999,1.065875,-0.01499969,0.04259423,0.6035433000000001,0.04404667,4.097312,-24.37,35.41
4,-0.09011841,-0.1061096,0.9902496,0.8022183,-0.1928558,-0.107254,0.9753418,-35.25697,0.4991912999999999,-24.92574,3.806335,0.6537328,0.55681,0.9412175,-0.08494568,-0.1060333,0.9907226999999998,33.37787,-3.004227,-25.3158,3.692261,0.4851107,0.6617985,-0.5720960999999999,1.065875,-0.01499969,0.04259423,0.6035433000000001,0.04404667,4.097312,-24.37,35.41
4,-0.09205627,-0.1061401,0.9900665,0.9825251,-0.1758422999999999,-0.1206512,0.9769896999999998,-35.32213,0.828598,-26.09134,3.762756,0.6556014,0.5578339,0.9280213,-0.09205627,-0.1061401,0.9900665,33.36995,-3.031479,-25.2972,3.68544,0.4862042,0.6625714,-0.5716324,1.065783,-0.01382768,0.04178524,0.6008025,0.04297976,4.097312,-24.37,35.41
4,-0.09205627,-0.1061401,0.9900665,0.9825251,-0.1758422999999999,-0.1206512,0.9769896999999998,-35.32213,0.828598,-26.09134,3.762756,0.6556014,0.5578339,0.9280213,-0.09205627,-0.1061401,0.9900665,33.36995,-3.031479,-25.2972,3.68544,0.4862042,0.6625714,-0.5716324,1.065783,-0.01382768,0.04178524,0.6008025,0.04297976,4.097312,-24.37,35.41
4,-0.09205627,-0.1061401,0.9900665,0.9825251,-0.1758422999999999,-0.1206512,0.9769896999999998,-35.32213,0.828598,-26.09134,3.762756,0.6556014,0.5578339,0.9280213,-0.09205627,-0.1061401,0.9900665,33.36995,-3.031479,-25.2972,3.68544,0.4862042,0.6625714,-0.5716324,1.065783,-0.01382768,0.04178524,0.6008025,0.04297976,4.097312,-24.37,35.41
4,-0.09744263,-0.1125031,0.9888458,1.0,-0.1773682,-0.1168518,0.9771729,-35.33879,0.8460540999999999,-26.09143,3.74498,0.6563475999999999,0.5567835,1.0,-0.09744263,-0.1125031,0.9888458,33.361999999999995,-3.036377,-25.24115,3.661118,0.487133,0.662972,-0.5714191999999999,1.065456,-0.01309633,0.04181394,0.5984941,0.04158398,4.097312,-24.37,35.41
4,-0.09744263,-0.1125031,0.9888458,1.0,-0.1773682,-0.1168518,0.9771729,-35.33879,0.8460540999999999,-26.09143,3.74498,0.6563475999999999,0.5567835,1.0,-0.09744263,-0.1125031,0.9888458,33.361999999999995,-3.036377,-25.24115,3.661118,0.487133,0.662972,-0.5714191999999999,1.065456,-0.01309633,0.04181394,0.5984941,0.04158398,4.097312,-24.37,35.41
4,-0.09744263,-0.1125031,0.9888458,1.0,-0.1773682,-0.1168518,0.9771729,-35.33879,0.8460540999999999,-26.09143,3.74498,0.6563475999999999,0.5567835,1.0,-0.09744263,-0.1125031,0.9888458,33.361999999999995,-3.036377,-25.24115,3.661118,0.487133,0.662972,-0.5714191999999999,1.065456,-0.01309633,0.04181394,0.5984941,0.04158398,4.097312,-24.37,35.41
4,-0.1150513,-0.1091156,0.9873352,0.9441795,-0.1864929,-0.1090088,0.9763794,-35.35223,0.7803955,-25.94727,3.734467,0.6576516,0.5567835,0.932763,-0.100296,-0.1090698,0.9889526,33.35001,-3.053543,-25.24115,3.646622,0.4878779,0.6631363,-0.5706804,1.065599,-0.01223183,0.04013933,0.5963596999999999,0.03972606,4.097312,-114.1219,35.41
4,-0.1150513,-0.1091156,0.9873352,0.9441795,-0.1864929,-0.1090088,0.9763794,-35.35223,0.7803955,-25.94727,3.734467,0.6576516,0.5567835,0.932763,-0.100296,-0.1090698,0.9889526,33.35001,-3.053543,-25.24115,3.646622,0.4878779,0.6631363,-0.5706804,1.065599,-0.01223183,0.04013933,0.5963596999999999,0.03972606,4.097312,-114.1219,35.41
4,-0.1150513,-0.1091156,0.9873352,0.9441795,-0.1864929,-0.1090088,0.9763794,-35.35223,0.7803955,-25.94727,3.734467,0.6576516,0.5567835,0.932763,-0.100296,-0.1090698,0.9889526,33.35001,-3.053543,-25.24115,3.646622,0.4878779,0.6631363,-0.5706804,1.065599,-0.01223183,0.04013933,0.5963596999999999,0.03972606,4.097312,-114.1219,35.41
4,-0.1256256,-0.1096039,0.9859924,0.9346588,-0.1891174,-0.1052856,0.9762878,-35.38286,0.7485809,-25.89288,3.708725,0.6589047,0.5569114000000001,0.9318815,-0.1048583999999999,-0.1109161,0.988266,33.32542,-3.044998,-25.24455,3.605896,0.4892755999999999,0.6631165,-0.5703921,1.065568,-0.01166224,0.03713055,0.5938708,0.03737715,4.097312,-114.1219,35.41
4,-0.1256256,-0.1096039,0.9859924,0.9346588,-0.1891174,-0.1052856,0.9762878,-35.38286,0.7485809,-25.89288,3.708725,0.6589047,0.5569114000000001,0.9318815,-0.1048583999999999,-0.1109161,0.988266,33.32542,-3.044998,-25.24455,3.605896,0.4892755999999999,0.6631165,-0.5703921,1.065568,-0.01166224,0.03713055,0.5938708,0.03737715,4.097312,-114.1219,35.41
4,-0.1256256,-0.1096039,0.9859924,0.9346588,-0.1891174,-0.1052856,0.9762878,-35.38286,0.7485809,-25.89288,3.708725,0.6589047,0.5569114000000001,0.9318815,-0.1048583999999999,-0.1109161,0.988266,33.32542,-3.044998,-25.24455,3.605896,0.4892755999999999,0.6631165,-0.5703921,1.065568,-0.01166224,0.03713055,0.5938708,0.03737715,4.097312,-114.1219,35.41
4,-0.1377411,-0.1101837,0.984314,0.8251877000000001,-0.1912689,-0.1019592,0.9762115,-35.386140000000005,0.7246399,-25.8459,3.711136,0.6591985,0.5569114000000001,0.929874,-0.1139831999999999,-0.1136932,0.9869385,33.32031,-3.036377,-25.24623,3.587814,0.4905260999999999,0.6632358,-0.5698316,1.065509,-0.01145089,0.03628189,0.591116,0.03486245,4.097312,-114.1219,35.41
4,-0.1377411,-0.1101837,0.984314,0.8251877000000001,-0.1912689,-0.1019592,0.9762115,-35.386140000000005,0.7246399,-25.8459,3.711136,0.6591985,0.5569114000000001,0.929874,-0.1139831999999999,-0.1136932,0.9869385,33.32031,-3.036377,-25.24623,3.587814,0.4905260999999999,0.6632358,-0.5698316,1.065509,-0.01145089,0.03628189,0.591116,0.03486245,4.097312,-114.1219,35.41
4,-0.1377411,-0.1101837,0.984314,0.8251877000000001,-0.1912689,-0.1019592,0.9762115,-35.386140000000005,0.7246399,-25.8459,3.711136,0.6591985,0.5569114000000001,0.929874,-0.1139831999999999,-0.1136932,0.9869385,33.32031,-3.036377,-25.24623,3.587814,0.4905260999999999,0.6632358,-0.5698316,1.065509,-0.01145089,0.03628189,0.591116,0.03486245,4.097312,-114.1219,35.41
4,-0.1465912,-0.05770874,0.9875031,0.4332884,-0.2403564,-0.04841614,0.9694672,-35.358290000000004,0.8252258,-25.59177,3.681641,0.6636418000000001,0.5451414000000001,0.91519,-0.1459656,-0.05776978,0.9875946,33.1434,-2.759537,-25.29091,3.638702,0.5001344,0.6480414000000001,-0.5691822,1.06608,-0.01108593,0.03288294,0.5898646,0.03239903,4.097312,-114.1219,35.41
4,-0.1465912,-0.05770874,0.9875031,0.4332884,-0.2403564,-0.04841614,0.9694672,-35.358290000000004,0.8252258,-25.59177,3.681641,0.6636418000000001,0.5451414000000001,0.91519,-0.1459656,-0.05776978,0.9875946,33.1434,-2.759537,-25.29091,3.638702,0.5001344,0.6480414000000001,-0.5691822,1.06608,-0.01108593,0.03288294,0.5898646,0.03239903,4.097312,-114.1219,35.41
4,-0.1465912,-0.05770874,0.9875031,0.4332884,-0.2403564,-0.04841614,0.9694672,-35.358290000000004,0.8252258,-25.59177,3.681641,0.6636418000000001,0.5451414000000001,0.91519,-0.1459656,-0.05776978,0.9875946,33.1434,-2.759537,-25.29091,3.638702,0.5001344,0.6480414000000001,-0.5691822,1.06608,-0.01108593,0.03288294,0.5898646,0.03239903,4.097312,-114.1219,35.41
4,-0.1666565,-0.02365112,0.9857178,0.3583748,-0.2585602,-0.04647827,0.964859,-35.41788,0.9968414,-25.42068,3.621185,0.6675890999999999,0.5377166999999999,0.8943822,-0.1666412,-0.02365112,0.985733,33.15428,-2.617996,-25.27907,3.630341000000001,0.5022491,0.6393221,-0.568933,1.066547,-0.01141584,0.02850401,0.5896640999999999,0.03034509,4.097312,-114.1219,35.41
4,-0.1666565,-0.02365112,0.9857178,0.3583748,-0.2585602,-0.04647827,0.964859,-35.41788,0.9968414,-25.42068,3.621185,0.6675890999999999,0.5377166999999999,0.8943822,-0.1666412,-0.02365112,0.985733,33.15428,-2.617996,-25.27907,3.630341000000001,0.5022491,0.6393221,-0.568933,1.066547,-0.01141584,0.02850401,0.5896640999999999,0.03034509,4.097312,-114.1219,35.41
4,-0.1666565,-0.02365112,0.9857178,0.3583748,-0.2585602,-0.04647827,0.964859,-35.41788,0.9968414,-25.42068,3.621185,0.6675890999999999,0.5377166999999999,0.8943822,-0.1666412,-0.02365112,0.985733,33.15428,-2.617996,-25.27907,3.630341000000001,0.5022491,0.6393221,-0.568933,1.066547,-0.01141584,0.02850401,0.5896640999999999,0.03034509,4.097312,-114.1219,35.41
4,-0.1758422999999999,-0.0007171631,0.9844055,0.5574914000000001,-0.2527313,-0.04820251,0.9663239,-35.45882,0.9865265,-25.42928,3.681793,0.6683180000000001,0.538354,0.9148656,-0.175766,-0.0006713867,0.9844208,33.158809999999995,-2.642303,-25.29349,3.715607,0.5030551999999999,0.6377010999999999,-0.5684655,1.066771,-0.01219606,0.02577534,0.5905815,0.02858609,4.097312,119.9074,35.41
4,-0.1758422999999999,-0.0007171631,0.9844055,0.5574914000000001,-0.2527313,-0.04820251,0.9663239,-35.45882,0.9865265,-25.42928,3.681793,0.6683180000000001,0.538354,0.9148656,-0.175766,-0.0006713867,0.9844208,33.158809999999995,-2.642303,-25.29349,3.715607,0.5030551999999999,0.6377010999999999,-0.5684655,1.066771,-0.01219606,0.02577534,0.5905815,0.02858609,4.097312,119.9074,35.41
4,-0.1758422999999999,-0.0007171631,0.9844055,0.5574914000000001,-0.2527313,-0.04820251,0.9663239,-35.45882,0.9865265,-25.42928,3.681793,0.6683180000000001,0.538354,0.9148656,-0.175766,-0.0006713867,0.9844208,33.158809999999995,-2.642303,-25.29349,3.715607,0.5030551999999999,0.6377010999999999,-0.5684655,1.066771,-0.01219606,0.02577534,0.5905815,0.02858609,4.097312,119.9074,35.41
4,-0.1745605,-0.02526855,0.984314,0.5574914000000001,-0.2366027999999999,-0.04457092,0.9705811,-35.54788,1.038757,-25.60547,3.675735,0.6696562,0.5376545,0.9148656,-0.1744842999999999,-0.02523804,0.9843292,33.158809999999995,-2.659927,-25.28944,3.5826260000000003,0.5030677,0.6410136,-0.5682590000000001,1.067341,-0.01344258,0.02112927,0.5929897,0.02757479,4.097312,119.9074,35.41
4,-0.1745605,-0.02526855,0.984314,0.5574914000000001,-0.2366027999999999,-0.04457092,0.9705811,-35.54788,1.038757,-25.60547,3.675735,0.6696562,0.5376545,0.9148656,-0.1744842999999999,-0.02523804,0.9843292,33.158809999999995,-2.659927,-25.28944,3.5826260000000003,0.5030677,0.6410136,-0.5682590000000001,1.067341,-0.01344258,0.02112927,0.5929897,0.02757479,4.097312,119.9074,35.41
4,-0.1745605,-0.02526855,0.984314,0.5574914000000001,-0.2366027999999999,-0.04457092,0.9705811,-35.54788,1.038757,-25.60547,3.675735,0.6696562,0.5376545,0.9148656,-0.1744842999999999,-0.02523804,0.9843292,33.158809999999995,-2.659927,-25.28944,3.5826260000000003,0.5030677,0.6410136,-0.5682590000000001,1.067341,-0.01344258,0.02112927,0.5929897,0.02757479,4.097312,119.9074,35.41
4,-0.1957397,-0.02619934,0.9803009,0.6070279000000001,-0.249527,-0.03012085,0.9678955,-35.5925,0.9955597,-25.52654,3.71521,0.6726359000000001,0.5367993000000001,0.9134934,-0.1846924,-0.02539063,0.9824524,33.1396,-2.6698,-25.28815,3.595657,0.5048712000000001,0.6414574000000001,-0.5679812,1.067901,-0.01516229,0.01793333,0.5966898,0.02643985,4.550062,119.9074,35.41
4,-0.1957397,-0.02619934,0.9803009,0.6070279000000001,-0.249527,-0.03012085,0.9678955,-35.5925,0.9955597,-25.52654,3.71521,0.6726359000000001,0.5367993000000001,0.9134934,-0.1846924,-0.02539063,0.9824524,33.1396,-2.6698,-25.28815,3.595657,0.5048712000000001,0.6414574000000001,-0.5679812,1.067901,-0.01516229,0.01793333,0.5966898,0.02643985,4.550062,119.9074,35.41
4,-0.1957397,-0.02619934,0.9803009,0.6070279000000001,-0.249527,-0.03012085,0.9678955,-35.5925,0.9955597,-25.52654,3.71521,0.6726359000000001,0.5367993000000001,0.9134934,-0.1846924,-0.02539063,0.9824524,33.1396,-2.6698,-25.28815,3.595657,0.5048712000000001,0.6414574000000001,-0.5679812,1.067901,-0.01516229,0.01793333,0.5966898,0.02643985,4.550062,119.9074,35.41
4,-0.2046204,-0.03355408,0.9782562,0.6560060000000001,-0.2483672999999999,-0.02653503,0.9682921999999998,-35.59149,0.953064,-25.52997,3.725266,0.6724751,0.5378421999999999,0.9572079,-0.1838989,-0.03683472,0.9822388,33.1671,-2.743881,-25.27676,3.5887910000000005,0.5038511,0.6451376,-0.5678565999999999,1.0683280000000002,-0.01708263,0.01519028,0.6010295,0.0256792,4.550062,119.9074,35.41
4,-0.2046204,-0.03355408,0.9782562,0.6560060000000001,-0.2483672999999999,-0.02653503,0.9682921999999998,-35.59149,0.953064,-25.52997,3.725266,0.6724751,0.5378421999999999,0.9572079,-0.1838989,-0.03683472,0.9822388,33.1671,-2.743881,-25.27676,3.5887910000000005,0.5038511,0.6451376,-0.5678565999999999,1.0683280000000002,-0.01708263,0.01519028,0.6010295,0.0256792,4.550062,119.9074,35.41
4,-0.2046204,-0.03355408,0.9782562,0.6560060000000001,-0.2483672999999999,-0.02653503,0.9682921999999998,-35.59149,0.953064,-25.52997,3.725266,0.6724751,0.5378421999999999,0.9572079,-0.1838989,-0.03683472,0.9822388,33.1671,-2.743881,-25.27676,3.5887910000000005,0.5038511,0.6451376,-0.5678565999999999,1.0683280000000002,-0.01708263,0.01519028,0.6010295,0.0256792,4.550062,119.9074,35.41
4,-0.2030944999999999,-0.03205872,0.9786224,0.6509315,-0.2530365,-0.02505493,0.9671173,-35.48183,0.8959808000000001,-25.54445,3.692932,0.6693234,0.5396857,0.9699093,-0.1688385,-0.03677368,0.9849548,33.18887,-2.750809,-25.26868,3.5608370000000003,0.5014195,0.6451376,-0.5679846,1.068761,-0.01917171,0.01144535,0.6062453000000001,0.02530215,4.550062,119.9074,35.41
4,-0.2030944999999999,-0.03205872,0.9786224,0.6509315,-0.2530365,-0.02505493,0.9671173,-35.48183,0.8959808000000001,-25.54445,3.692932,0.6693234,0.5396857,0.9699093,-0.1688385,-0.03677368,0.9849548,33.18887,-2.750809,-25.26868,3.5608370000000003,0.5014195,0.6451376,-0.5679846,1.068761,-0.01917171,0.01144535,0.6062453000000001,0.02530215,4.550062,119.9074,35.41
4,-0.2030944999999999,-0.03205872,0.9786224,0.6509315,-0.2530365,-0.02505493,0.9671173,-35.48183,0.8959808000000001,-25.54445,3.692932,0.6693234,0.5396857,0.9699093,-0.1688385,-0.03677368,0.9849548,33.18887,-2.750809,-25.26868,3.5608370000000003,0.5014195,0.6451376,-0.5679846,1.068761,-0.01917171,0.01144535,0.6062453000000001,0.02530215,4.550062,119.9074,35.41
4,-0.1770172,-0.0508728,0.9828796,0.6964543000000001,-0.2234192,-0.07754517,0.9716187,-35.51563,0.9721985,-25.52457,3.658356,0.6668434,0.5429676999999999,0.9680149,-0.1573486,-0.03959656,0.9867401,33.20032,-2.751678,-25.27193,3.57312,0.499683,0.6454489000000001,-0.5678766,1.069244,-0.02139747,0.008977772,0.6112555000000001,0.02521602,4.550062,119.9074,35.41
4,-0.1770172,-0.0508728,0.9828796,0.6964543000000001,-0.2234192,-0.07754517,0.9716187,-35.51563,0.9721985,-25.52457,3.658356,0.6668434,0.5429676999999999,0.9680149,-0.1573486,-0.03959656,0.9867401,33.20032,-2.751678,-25.27193,3.57312,0.499683,0.6454489000000001,-0.5678766,1.069244,-0.02139747,0.008977772,0.6112555000000001,0.02521602,4.550062,119.9074,35.41
4,-0.1770172,-0.0508728,0.9828796,0.6964543000000001,-0.2234192,-0.07754517,0.9716187,-35.51563,0.9721985,-25.52457,3.658356,0.6668434,0.5429676999999999,0.9680149,-0.1573486,-0.03959656,0.9867401,33.20032,-2.751678,-25.27193,3.57312,0.499683,0.6454489000000001,-0.5678766,1.069244,-0.02139747,0.008977772,0.6112555000000001,0.02521602,4.550062,119.9074,35.41
4,-0.1770172,-0.0508728,0.9828796,0.6964543000000001,-0.2234192,-0.07754517,0.9716187,-35.51563,0.9721985,-25.52457,3.658356,0.6668434,0.5429676999999999,0.9680149,-0.1573486,-0.03959656,0.9867401,33.20032,-2.751678,-25.27193,3.57312,0.499683,0.6454489000000001,-0.5678935,1.069949,-0.02356225,0.005583966,0.6164111,0.02580495,4.550062,12.67858,35.41
4,-0.1770172,-0.0508728,0.9828796,0.6964543000000001,-0.2234192,-0.07754517,0.9716187,-35.51563,0.9721985,-25.52457,3.658356,0.6668434,0.5429676999999999,0.9680149,-0.1573486,-0.03959656,0.9867401,33.20032,-2.751678,-25.27193,3.57312,0.499683,0.6454489000000001,-0.5678935,1.069949,-0.02356225,0.005583966,0.6164111,0.02580495,4.550062,12.67858,35.41
4,-0.1770172,-0.0508728,0.9828796,0.6964543000000001,-0.2234192,-0.07754517,0.9716187,-35.51563,0.9721985,-25.52457,3.658356,0.6668434,0.5429676999999999,0.9680149,-0.1573486,-0.03959656,0.9867401,33.20032,-2.751678,-25.27193,3.57312,0.499683,0.6454489000000001,-0.5678935,1.069949,-0.02356225,0.005583966,0.6164111,0.02580495,4.550062,12.67858,35.41
4,-0.1770172,-0.0508728,0.9828796,0.6964543000000001,-0.2234192,-0.07754517,0.9716187,-35.51563,0.9721985,-25.52457,3.658356,0.6668434,0.5429676999999999,0.9680149,-0.1573486,-0.03959656,0.9867401,33.20032,-2.751678,-25.27193,3.57312,0.499683,0.6454489000000001,-0.5679104,1.070777,-0.02573144,0.001454636,0.6216486999999999,0.02672922,4.550062,12.67858,35.41
4,-0.1770172,-0.0508728,0.9828796,0.6964543000000001,-0.2234192,-0.07754517,0.9716187,-35.51563,0.9721985,-25.52457,3.658356,0.6668434,0.5429676999999999,0.9680149,-0.1573486,-0.03959656,0.9867401,33.20032,-2.751678,-25.27193,3.57312,0.499683,0.6454489000000001,-0.5679104,1.070777,-0.02573144,0.001454636,0.6216486999999999,0.02672922,4.550062,12.67858,35.41
4,-0.1770172,-0.0508728,0.9828796,0.6964543000000001,-0.2234192,-0.07754517,0.9716187,-35.51563,0.9721985,-25.52457,3.658356,0.6668434,0.5429676999999999,0.9680149,-0.1573486,-0.03959656,0.9867401,33.20032,-2.751678,-25.27193,3.57312,0.499683,0.6454489000000001,-0.5679104,1.070777,-0.02573144,0.001454636,0.6216486999999999,0.02672922,4.550062,12.67858,35.41
4,-0.1256714,-0.03887939,0.9913025,0.8187885,-0.2230682,-0.1040955,0.969223,-35.31918,0.7156066999999999,-24.29919,3.711273,0.6582777,0.5437774000000001,0.9753651,-0.1256561,-0.03886414,0.9913025,33.38547,-2.8142240000000003,-25.30913,3.677261,0.489704,0.6476225,-0.5681024,1.072181,-0.02805609,-0.004899569,0.6269096,0.02950493,4.550062,12.67858,35.41
4,-0.1256714,-0.03887939,0.9913025,0.8187885,-0.2230682,-0.1040955,0.969223,-35.31918,0.7156066999999999,-24.29919,3.711273,0.6582777,0.5437774000000001,0.9753651,-0.1256561,-0.03886414,0.9913025,33.38547,-2.8142240000000003,-25.30913,3.677261,0.489704,0.6476225,-0.5681024,1.072181,-0.02805609,-0.004899569,0.6269096,0.02950493,4.550062,12.67858,35.41
4,-0.1256714,-0.03887939,0.9913025,0.8187885,-0.2230682,-0.1040955,0.969223,-35.31918,0.7156066999999999,-24.29919,3.711273,0.6582777,0.5437774000000001,0.9753651,-0.1256561,-0.03886414,0.9913025,33.38547,-2.8142240000000003,-25.30913,3.677261,0.489704,0.6476225,-0.5681024,1.072181,-0.02805609,-0.004899569,0.6269096,0.02950493,4.550062,12.67858,35.41
4,-0.3795166,0.06832886,0.9226532,0.6826134,-0.4598999,0.04881287,0.8866119,-36.28706,1.448273,-25.72435,3.91275,0.7232615,0.5162209,0.9869591,-0.3795166,0.06832886,0.9226532,32.32861,-2.170898,-25.66429,3.916321,0.5543945,0.6200581000000001,-0.5681529000000001,1.0737450000000002,-0.03041422,-0.01065304,0.6326019,0.03197357,4.550062,12.67858,35.41
4,-0.3795166,0.06832886,0.9226532,0.6826134,-0.4598999,0.04881287,0.8866119,-36.28706,1.448273,-25.72435,3.91275,0.7232615,0.5162209,0.9869591,-0.3795166,0.06832886,0.9226532,32.32861,-2.170898,-25.66429,3.916321,0.5543945,0.6200581000000001,-0.5681529000000001,1.0737450000000002,-0.03041422,-0.01065304,0.6326019,0.03197357,4.550062,12.67858,35.41
