Second,eye_comb_direction_x,eye_comb_direction_y,eye_comb_direction_z,eye_r_openness,eye_r_direction_x,eye_r_direction_y,eye_r_direction_z,eye_r_origin_x,eye_r_origin_y,eye_r_origin_z,eye_r_pupil_diameter,eye_r_pupil_position_x,eye_r_pupil_position_y,eye_l_openness,eye_l_direction_x,eye_l_direction_y,eye_l_direction_z,eye_l_origin_x,eye_l_origin_y,eye_l_origin_z,eye_l_pupil_diameter,eye_l_pupil_position_x,eye_l_pupil_position_y,head_position_x,head_position_y,head_position_z,head_rotation_roll,head_rotation_pitch,head_rotation_yaw,EDA,BVP,TMP
0,0.0,0.0,0.0,0.0,0.0,0.0,0.0,0.0,0.0,0.0,0.0,0.0,0.0,0.0,0.0,0.0,0.0,0.0,0.0,0.0,0.0,0.0,0.0,0.0,0.0,0.0,0.0,0.0,0.0,0.3068935029652845,-0.21532428895853423,30.352610896817744
0,0.002090454,-0.1752777,0.9845123,1.0,0.002426147,-0.1577454,0.9874725,-30.0152,0.8413696,-27.27341,5.094437,0.4382117,0.5691891,1.0,0.001754761,-0.1924438,0.9812927,32.07614,1.783066,-27.34509,5.259109,0.5199562,0.5440295,0.0386436,1.201959,-0.09952503,-0.04236896,-0.0181729,0.008677303,0.3068935029652845,-0.21532428895853423,30.352610896817744
0,0.002212524,-0.1752014,0.9845276,1.0,0.002212524,-0.1580811,0.9874115,-30.0239,0.8447876,-27.2702,5.094421,0.4385403,0.5691052,1.0,0.002197266,-0.1918945,0.9813995,32.08141,1.783066,-27.3484,5.273987,0.519704,0.5439624,0.03793097,1.2022,-0.09905308,-0.0435567,-0.01813638,0.009585435,0.3113073,-0.21532428895853423,30.352610896817744
0,0.002212524,-0.1752014,0.9845276,1.0,0.002212524,-0.1580811,0.9874115,-30.0239,0.8447876,-27.2702,5.094421,0.4385403,0.5691052,1.0,0.002197266,-0.1918945,0.9813995,32.08141,1.783066,-27.3484,5.273987,0.519704,0.5439624,0.03793097,1.2022,-0.09905308,-0.0435567,-0.01813638,0.009585435,0.3113073,-0.21532428895853423,30.352610896817744
0,0.002212524,-0.1752014,0.9845276,1.0,0.002212524,-0.1580811,0.9874115,-30.0239,0.8447876,-27.2702,5.094421,0.4385403,0.5691052,1.0,0.002197266,-0.1918945,0.9813995,32.08141,1.783066,-27.3484,5.273987,0.519704,0.5439624,0.03793097,1.2022,-0.09905308,-0.0435567,-0.01813638,0.009585435,0.3113073,-0.21532428895853423,30.352610896817744
0,0.002212524,-0.1752014,0.9845276,1.0,0.002212524,-0.1580811,0.9874115,-30.0239,0.8447876,-27.2702,5.094421,0.4385403,0.5691052,1.0,0.002197266,-0.1918945,0.9813995,32.08141,1.783066,-27.3484,5.273987,0.519704,0.5439624,0.03793097,1.2022,-0.09905308,-0.0435567,-0.01813638,0.009585435,0.3113073,-0.21532428895853423,30.352610896817744
0,0.002212524,-0.1752014,0.9845276,1.0,0.002212524,-0.1580811,0.9874115,-30.0239,0.8447876,-27.2702,5.094421,0.4385403,0.5691052,1.0,0.002197266,-0.1918945,0.9813995,32.08141,1.783066,-27.3484,5.273987,0.519704,0.5439624,0.03793097,1.2022,-0.09905308,-0.0435567,-0.01813638,0.009585435,0.3113073,-0.21532428895853423,30.352610896817744
0,0.002212524,-0.1752014,0.9845276,1.0,0.002212524,-0.1580811,0.9874115,-30.0239,0.8447876,-27.2702,5.094421,0.4385403,0.5691052,1.0,0.002197266,-0.1918945,0.9813995,32.08141,1.783066,-27.3484,5.273987,0.519704,0.5439624,0.03793097,1.2022,-0.09905308,-0.0435567,-0.01813638,0.009585435,0.3113073,-0.21532428895853423,30.352610896817744
0,0.002212524,-0.1752014,0.9845276,1.0,0.002212524,-0.1580811,0.9874115,-30.0239,0.8447876,-27.2702,5.094421,0.4385403,0.5691052,1.0,0.002197266,-0.1918945,0.9813995,32.08141,1.783066,-27.3484,5.273987,0.519704,0.5439624,0.03793097,1.2022,-0.09905308,-0.0435567,-0.01813638,0.009585435,0.3113073,-0.21532428895853423,30.352610896817744
0,0.002212524,-0.1752014,0.9845276,1.0,0.002212524,-0.1580811,0.9874115,-30.0239,0.8447876,-27.2702,5.094421,0.4385403,0.5691052,1.0,0.002197266,-0.1918945,0.9813995,32.08141,1.783066,-27.3484,5.273987,0.519704,0.5439624,0.03793097,1.2022,-0.09905308,-0.0435567,-0.01813638,0.009585435,0.3113073,-0.21532428895853423,30.352610896817744
0,0.002212524,-0.1752014,0.9845276,1.0,0.002212524,-0.1580811,0.9874115,-30.0239,0.8447876,-27.2702,5.094421,0.4385403,0.5691052,1.0,0.002197266,-0.1918945,0.9813995,32.08141,1.783066,-27.3484,5.273987,0.519704,0.5439624,0.03793097,1.2022,-0.09905308,-0.0435567,-0.01813638,0.009585435,0.3113073,-0.21532428895853423,30.352610896817744
1,-0.1645355,-0.1667633,0.9721527,1.0,-0.1956024,-0.1614075,0.9673004,-31.36255,1.067474,-27.44395,5.313828,0.5155728,0.5652726,1.0,-0.1617889,-0.1672363,0.9725342,30.96947,2.055313,-27.76018,5.575333,0.5851492,0.5354038,0.03888118,1.202847,-0.1004385,-0.04585459,-0.01461891,0.007697208,0.3113073,-0.21532428895853423,30.352610896817744
1,-0.1645355,-0.1667633,0.9721527,1.0,-0.1956024,-0.1614075,0.9673004,-31.36255,1.067474,-27.44395,5.313828,0.5155728,0.5652726,1.0,-0.1617889,-0.1672363,0.9725342,30.96947,2.055313,-27.76018,5.575333,0.5851492,0.5354038,0.03888118,1.202847,-0.1004385,-0.04585459,-0.01461891,0.007697208,0.3113073,-0.21532428895853423,30.352610896817744
1,-0.1645355,-0.1667633,0.9721527,1.0,-0.1956024,-0.1614075,0.9673004,-31.36255,1.067474,-27.44395,5.313828,0.5155728,0.5652726,1.0,-0.1617889,-0.1672363,0.9725342,30.96947,2.055313,-27.76018,5.575333,0.5851492,0.5354038,0.03888118,1.202847,-0.1004385,-0.04585459,-0.01461891,0.007697208,0.3113073,-0.21532428895853423,30.352610896817744
1,-0.1645355,-0.1667633,0.9721527,1.0,-0.1956024,-0.1614075,0.9673004,-31.36255,1.067474,-27.44395,5.313828,0.5155728,0.5652726,1.0,-0.1617889,-0.1672363,0.9725342,30.96947,2.055313,-27.76018,5.575333,0.5851492,0.5354038,0.03888118,1.202847,-0.1004385,-0.04585459,-0.01461891,0.007697208,0.3113073,-0.21532428895853423,30.352610896817744
1,-0.1645355,-0.1667633,0.9721527,1.0,-0.1956024,-0.1614075,0.9673004,-31.36255,1.067474,-27.44395,5.313828,0.5155728,0.5652726,1.0,-0.1617889,-0.1672363,0.9725342,30.96947,2.055313,-27.76018,5.575333,0.5851492,0.5354038,0.03888118,1.202847,-0.1004385,-0.04585459,-0.01461891,0.007697208,0.3113073,-0.21532428895853423,30.352610896817744
1,-0.1645355,-0.1667633,0.9721527,1.0,-0.1956024,-0.1614075,0.9673004,-31.36255,1.067474,-27.44395,5.313828,0.5155728,0.5652726,1.0,-0.1617889,-0.1672363,0.9725342,30.96947,2.055313,-27.76018,5.575333,0.5851492,0.5354038,0.03888118,1.202847,-0.1004385,-0.04585459,-0.01461891,0.007697208,0.3113073,-0.21532428895853423,30.352610896817744
1,-0.1645355,-0.1667633,0.9721527,1.0,-0.1956024,-0.1614075,0.9673004,-31.36255,1.067474,-27.44395,5.313828,0.5155728,0.5652726,1.0,-0.1617889,-0.1672363,0.9725342,30.96947,2.055313,-27.76018,5.575333,0.5851492,0.5354038,0.03888118,1.202847,-0.1004385,-0.04585459,-0.01461891,0.007697208,0.3113073,-0.21532428895853423,30.352610896817744
1,-0.1735992,-0.168869,0.9702148,1.0,-0.1845551,-0.1707458,0.967865,-31.36914,1.061676,-27.44395,5.242813,0.5140034,0.566938,1.0,-0.1631927,-0.1670685,0.9723358,31.00348,2.046768,-27.76091,5.488235,0.58424,0.5356494,0.03873551,1.202911,-0.1005328,-0.04624258,-0.01480024,0.007991645,0.3113073,-0.21532428895853423,30.352610896817744
1,-0.1735992,-0.168869,0.9702148,1.0,-0.1845551,-0.1707458,0.967865,-31.36914,1.061676,-27.44395,5.242813,0.5140034,0.566938,1.0,-0.1631927,-0.1670685,0.9723358,31.00348,2.046768,-27.76091,5.488235,0.58424,0.5356494,0.03873551,1.202911,-0.1005328,-0.04624258,-0.01480024,0.007991645,0.3113073,-0.21532428895853423,30.352610896817744
1,-0.1747284,-0.1687317,0.970047,1.0,-0.1850739,-0.1712494,0.9676819,-31.35812,1.059494,-27.44128,5.231598,0.513721,0.567066,1.0,-0.1647491,-0.166275,0.9722137,31.00954,2.04364,-27.7648,5.439117,0.5843102,0.5356508,0.03872836,1.202919,-0.100575,-0.04624274,-0.01497589,0.008048314,0.3113073,-0.21532428895853423,30.352610896817744
1,-0.1747284,-0.1687317,0.970047,1.0,-0.1850739,-0.1712494,0.9676819,-31.35812,1.059494,-27.44128,5.231598,0.513721,0.567066,1.0,-0.1647491,-0.166275,0.9722137,31.00954,2.04364,-27.7648,5.439117,0.5843102,0.5356508,0.03872836,1.202919,-0.100575,-0.04624274,-0.01497589,0.008048314,0.3113073,-0.21532428895853423,30.352610896817744
1,-0.1754608,-0.1732178,0.9691162,1.0,-0.1852722,-0.1763763,0.9667206,-31.35249,1.057831,-27.4212,5.210648,0.5135602,0.5678027,1.0,-0.165863,-0.1701202,0.9713593,31.01544,2.042786,-27.76852,5.389709,0.5843102,0.5363746,0.03867412,1.202921,-0.1006178,-0.04630972,-0.01504637,0.008092627,0.3113073,-0.21532428895853423,30.352610896817744
1,-0.1750336,-0.1754761,0.9687805,1.0,-0.184906,-0.1785431,0.9663849,-31.35187,1.057358,-27.42084,5.160095,0.513501,0.5681731,1.0,-0.1657257,-0.1725769,0.9709473,31.01974,2.040771,-27.77226,5.368195,0.584145,0.5368994,0.03866601,1.202947,-0.1006798,-0.04636905,-0.01520841,0.008104586,0.3113073,-0.21532428895853423,30.352610896817744
1,-0.1750336,-0.1754761,0.9687805,1.0,-0.184906,-0.1785431,0.9663849,-31.35187,1.057358,-27.42084,5.160095,0.513501,0.5681731,1.0,-0.1657257,-0.1725769,0.9709473,31.01974,2.040771,-27.77226,5.368195,0.584145,0.5368994,0.03866601,1.202947,-0.1006798,-0.04636905,-0.01520841,0.008104586,0.3113073,-0.21532428895853423,30.352610896817744
1,-0.1759644,-0.1761932,0.9684906,1.0,-0.1853943,-0.1789551,0.966217,-31.35101,1.055313,-27.42084,5.1409,0.5135602,0.5683079,1.0,-0.1671448,-0.1736145,0.97052,31.02231,2.039703,-27.77513,5.323822,0.5843102,0.5371399,0.03864539,1.202956,-0.1007015,-0.04649902,-0.01526709,0.008006547,0.3113073,-0.21532428895853423,30.352610896817744
1,-0.1432953,-0.1569977,0.9771423,1.0,-0.1569977,-0.1473236,0.976532,-31.16141,1.111877,-27.37906,4.79921,0.5027283,0.5601607,1.0,-0.1301422,-0.166214,0.9774475,31.19257,2.144363,-27.74673,5.125458,0.572336,0.5316367,0.03858435,1.203033,-0.1006844,-0.04676695,-0.01542005,0.007780965,0.3113073,-0.21532428895853423,30.352610896817744
1,-0.05664063,-0.1126862,0.9920044,1.0,-0.08900452,-0.09065247,0.9918823,-30.58167,1.388123,-27.21547,4.817734,0.4722899,0.5392646,1.0,-0.04011536,-0.1238403,0.9914856,31.6796,2.528564,-27.78928,4.960434,0.5407988,0.5110928,0.03869331,1.203129,-0.100653,-0.04701102,-0.01553078,0.007767548,0.3113073,-0.21532428895853423,30.352610896817744
1,-0.05026245,-0.07234192,0.996109,1.0,-0.0569458,-0.06996155,0.9959106,-30.29584,1.679916,-27.60754,4.971146,0.4574989,0.5296057,1.0,-0.01553345,-0.08457947,0.9962921,31.93459,2.943863,-28.46516,4.859589,0.5283721,0.4962899,0.03866851,1.203214,-0.1006447,-0.04723979,-0.01555044,0.007774259,0.3113073,-0.21532428895853423,30.352610896817744
1,-0.05026245,-0.07234192,0.996109,1.0,-0.0569458,-0.06996155,0.9959106,-30.29584,1.679916,-27.60754,4.971146,0.4574989,0.5296057,1.0,-0.01553345,-0.08457947,0.9962921,31.93459,2.943863,-28.46516,4.859589,0.5283721,0.4962899,0.03866851,1.203214,-0.1006447,-0.04723979,-0.01555044,0.007774259,0.3113073,-0.21532428895853423,30.352610896817744
1,-7.629395e-05,-1.525879e-05,1.0,1.0,-7.629395e-05,-1.525879e-05,1.0,-29.75117,2.131485,-28.13972,4.905792,0.4299359,0.5074642,1.0,0.01708984,-0.02046204,0.9996338,32.44136,3.693512,-29.97496,4.860596,0.5060405,0.4732848,0.03864062,1.203266,-0.1006337,-0.04760085,-0.01570585,0.007772342,0.3113073,-0.21532428895853423,30.352610896817744
1,0.0456543,0.05627441,0.9973602,1.0,0.0456543,0.05627441,0.9973602,-29.29698,2.039413,-27.69035,4.811279,0.4073583,0.4968771,1.0,0.070755,0.01539612,0.9973602,32.79973,3.973206,-30.50734,4.78331,0.4845499,0.4621738,0.03857124,1.203383,-0.1005659,-0.04809415,-0.01585129,0.007670057,0.3113073,-0.21532428895853423,30.352610896817744
1,0.05171204,0.06552124,0.9965057,1.0,0.05171204,0.06552124,0.9965057,-29.33034,1.898193,-27.46983,4.827179,0.4075668,0.4981028,1.0,0.07810974,0.01237488,0.9968567,32.85384,3.820114,-30.22989,4.834488,0.4813721,0.465504,0.03856957,1.203387,-0.1005596,-0.04833877,-0.01587431,0.007626221,0.3113073,-0.21532428895853423,30.352610896817744
1,0.05253601,0.05541992,0.9970703,1.0,0.05253601,0.05541992,0.9970703,-29.36559,1.831345,-27.30472,4.79335,0.4086828,0.500478,1.0,0.07437134,0.009216309,0.9971771,32.85307,3.802216,-30.26807,4.780762,0.4820229,0.4669727,0.03858149,1.20343,-0.1005313,-0.04848343,-0.01586304,0.007521948,0.3113073,-58.91672,30.352610896817744
1,0.05253601,0.05541992,0.9970703,1.0,0.05253601,0.05541992,0.9970703,-29.36559,1.831345,-27.30472,4.79335,0.4086828,0.500478,1.0,0.07437134,0.009216309,0.9971771,32.85307,3.802216,-30.26807,4.780762,0.4820229,0.4669727,0.03858149,1.20343,-0.1005313,-0.04848343,-0.01586304,0.007521948,0.3113073,-58.91672,30.352610896817744
1,0.06262207,0.05932617,0.9962616,1.0,0.06256104,0.05961609,0.9962463,-29.39586,1.808044,-27.3279,4.743286,0.4080206,0.5007329,1.0,0.07211304,0.01417542,0.9972839,32.85654,3.688522,-30.00298,4.676422,0.4822421,0.467551,0.03861177,1.203448,-0.1005228,-0.04866704,-0.01591228,0.007518977,0.3113073,-58.91672,30.352610896817744
1,0.06262207,0.05932617,0.9962616,1.0,0.06256104,0.05961609,0.9962463,-29.39586,1.808044,-27.3279,4.743286,0.4080206,0.5007329,1.0,0.07211304,0.01417542,0.9972839,32.85654,3.688522,-30.00298,4.676422,0.4822421,0.467551,0.03861177,1.203448,-0.1005228,-0.04866704,-0.01591228,0.007518977,0.3113073,-58.91672,30.352610896817744
1,0.06939697,0.02487183,0.9972687,1.0,0.05607605,0.05960083,0.9966431,-29.41391,1.743134,-27.26457,4.760498,0.409719,0.5023447,1.0,0.07118225,0.02020264,0.9972534,32.85896,3.650604,-29.9568,4.641312,0.4823003,0.4673757,0.03864896,1.203495,-0.1004984,-0.04900967,-0.01585599,0.007172085,0.3113073,-58.91672,30.352610896817744
1,0.06031799,0.03610229,0.9975128,1.0,0.05259705,0.05447388,0.9971161,-29.41458,1.710693,-27.25789,4.667603,0.4103081,0.504114,1.0,0.07070923,0.01127625,0.9974213,32.86938,3.650604,-29.98532,4.636551,0.482017,0.469156,0.0386858,1.203501,-0.1005001,-0.04908532,-0.01572103,0.007161689,0.3113073,-58.91672,30.352610896817744
1,0.05867004,0.05015564,0.9970093,1.0,0.05574036,0.06044006,0.9966125,-29.41473,1.70668,-27.28499,4.626755,0.409777,0.503464,1.0,0.06976318,0.01080322,0.9974976,32.88092,3.662857,-30.0712,4.633026,0.4817821,0.4695893,0.0386858,1.203501,-0.1005001,-0.04908532,-0.01572103,0.007161689,0.3113073,-58.91672,30.352610896817744
1,0.05867004,0.05015564,0.9970093,1.0,0.05574036,0.06044006,0.9966125,-29.41473,1.70668,-27.28499,4.626755,0.409777,0.503464,1.0,0.06976318,0.01080322,0.9974976,32.88092,3.662857,-30.0712,4.633026,0.4817821,0.4695893,0.0386858,1.203501,-0.1005001,-0.04908532,-0.01572103,0.007161689,0.3113073,-58.91672,30.352610896817744
1,0.0586853,0.04931641,0.9970551,1.0,0.05599976,0.05966187,0.9966431,-29.41496,1.70311,-27.28395,4.595673,0.4097403,0.503679,1.0,0.06858826,0.01075745,0.9975739,32.88678,3.668152,-30.10873,4.611755,0.4817769,0.4697409,0.03879917,1.203519,-0.100468,-0.04891121,-0.01564264,0.007007091,0.3113073,-58.91672,30.352610896817744
1,0.0586853,0.04931641,0.9970551,1.0,0.05599976,0.05966187,0.9966431,-29.41496,1.70311,-27.28395,4.595673,0.4097403,0.503679,1.0,0.06858826,0.01075745,0.9975739,32.88678,3.668152,-30.10873,4.611755,0.4817769,0.4697409,0.03882802,1.203454,-0.100597,-0.04893589,-0.01527245,0.006923658,0.3113073,-58.91672,30.352610896817744
1,0.0586853,0.04931641,0.9970551,1.0,0.05599976,0.05966187,0.9966431,-29.41496,1.70311,-27.28395,4.595673,0.4097403,0.503679,1.0,0.06858826,0.01075745,0.9975739,32.88678,3.668152,-30.10873,4.611755,0.4817769,0.4697409,0.03887606,1.20353,-0.1006739,-0.04931625,-0.01497689,0.006826121,0.3113073,-58.91672,30.352610896817744
1,0.0586853,0.04931641,0.9970551,1.0,0.05599976,0.05966187,0.9966431,-29.41496,1.70311,-27.28395,4.595673,0.4097403,0.503679,1.0,0.06858826,0.01075745,0.9975739,32.88678,3.668152,-30.10873,4.611755,0.4817769,0.4697409,0.03887606,1.20353,-0.1006739,-0.04931625,-0.01497689,0.006826121,0.3113073,-58.91672,30.352610896817744
1,0.05793762,0.04597473,0.9972534,1.0,0.05432129,0.05935669,0.9967499,-29.41496,1.702408,-27.27795,4.59375,0.410022,0.5036966,1.0,0.06742859,0.01069641,0.9976654,32.89264,3.673431,-30.14626,4.590591,0.4817717,0.4698924,0.03891408,1.203763,-0.1007079,-0.05012485,-0.01463775,0.006718305,0.3113073,-58.91672,30.352610896817744
1,0.05793762,0.04597473,0.9972534,1.0,0.05432129,0.05935669,0.9967499,-29.41496,1.702408,-27.27795,4.59375,0.410022,0.5036966,1.0,0.06742859,0.01069641,0.9976654,32.89264,3.673431,-30.14626,4.590591,0.4817717,0.4698924,0.03891408,1.203763,-0.1007079,-0.05012485,-0.01463775,0.006718305,0.3113073,-58.91672,30.352610896817744
1,0.05740356,0.04345703,0.9973907,1.0,0.0567627,0.04684448,0.9972839,-29.42831,1.687866,-27.19467,4.456802,0.4100932,0.5053759,1.0,0.06471252,0.004226685,0.9978943,32.9353,3.732666,-30.37741,4.304459,0.4807216,0.4708513,0.0390017,1.204015,-0.100562,-0.05144449,-0.01460055,0.006589536,0.3113073,4.240021,30.352610896817744
1,0.05740356,0.04345703,0.9973907,1.0,0.0567627,0.04684448,0.9972839,-29.42831,1.687866,-27.19467,4.456802,0.4100932,0.5053759,1.0,0.06471252,0.004226685,0.9978943,32.9353,3.732666,-30.37741,4.304459,0.4807216,0.4708513,0.0390017,1.204015,-0.100562,-0.05144449,-0.01460055,0.006589536,0.3113073,4.240021,30.352610896817744
1,0.06124878,0.04006958,0.9973145,1.0,0.05926514,0.04936218,0.9970093,-29.41975,1.677597,-27.15625,4.354813,0.4094056,0.5048568,1.0,0.06785583,0.008972168,0.9976501,32.94818,3.700546,-30.24957,4.310455,0.4797257,0.4699753,0.03900814,1.204239,-0.1004375,-0.0526552,-0.01461585,0.006564614,0.3113073,4.240021,30.352610896817744
1,0.06124878,0.04006958,0.9973145,1.0,0.05926514,0.04936218,0.9970093,-29.41975,1.677597,-27.15625,4.354813,0.4094056,0.5048568,1.0,0.06785583,0.008972168,0.9976501,32.94818,3.700546,-30.24957,4.310455,0.4797257,0.4699753,0.03900814,1.204239,-0.1004375,-0.0526552,-0.01461585,0.006564614,0.3113073,4.240021,30.352610896817744
1,0.06069946,0.03196716,0.9976349,1.0,0.05551147,0.05407715,0.9969788,-29.38712,1.589981,-27.06409,4.25943,0.4089666,0.506055,1.0,0.06604004,0.009124756,0.9977722,32.98015,3.64267,-30.26991,4.247452,0.4789043,0.4720747,0.03903806,1.204558,-0.1001585,-0.05413705,-0.01444149,0.006659268,0.3113073,4.240021,30.352610896817744
1,0.06069946,0.03196716,0.9976349,1.0,0.05551147,0.05407715,0.9969788,-29.38712,1.589981,-27.06409,4.25943,0.4089666,0.506055,1.0,0.06604004,0.009124756,0.9977722,32.98015,3.64267,-30.26991,4.247452,0.4789043,0.4720747,0.03903806,1.204558,-0.1001585,-0.05413705,-0.01444149,0.006659268,0.3113073,4.240021,30.352610896817744
1,0.06559753,0.02687073,0.9974823,1.0,0.06318665,0.03396606,0.9974213,-29.23335,1.611038,-27.74156,4.096313,0.4021485,0.5146638,1.0,0.08158875,-0.02069092,0.9964447,33.00349,3.248169,-29.57935,4.168518,0.475306,0.4844666,0.03906929,1.204875,-0.09982324,-0.05550254,-0.01432182,0.00693441,0.3113073,4.240021,30.352610896817744
1,0.06559753,0.02687073,0.9974823,1.0,0.06318665,0.03396606,0.9974213,-29.23335,1.611038,-27.74156,4.096313,0.4021485,0.5146638,1.0,0.08158875,-0.02069092,0.9964447,33.00349,3.248169,-29.57935,4.168518,0.475306,0.4844666,0.03906929,1.204875,-0.09982324,-0.05550254,-0.01432182,0.00693441,0.3113073,4.240021,30.352610896817744
1,0.1204834,-0.07707214,0.9897156,1.0,0.1204224,-0.07699585,0.9897156,-28.76701,1.033478,-27.48337,3.990433,0.3768433,0.5502804,1.0,0.1392059,-0.1098938,0.9841309,33.2231,2.706879,-29.65063,4.214951,0.4576181,0.5194682,0.03900898,1.205114,-0.09940851,-0.05600846,-0.01447499,0.007013468,0.3113073,4.240021,30.352610896817744
1,0.1204834,-0.07707214,0.9897156,1.0,0.1204224,-0.07699585,0.9897156,-28.76701,1.033478,-27.48337,3.990433,0.3768433,0.5502804,1.0,0.1392059,-0.1098938,0.9841309,33.2231,2.706879,-29.65063,4.214951,0.4576181,0.5194682,0.03900898,1.205114,-0.09940851,-0.05600846,-0.01447499,0.007013468,0.3113073,4.240021,30.352610896817744
1,0.1818085,-0.1946411,0.9638672,1.0,0.181076,-0.1937866,0.9641724,-28.55473,0.6795044,-27.50185,4.037476,0.3592206,0.5829611,1.0,0.1898499,-0.2040558,0.9603577,33.48514,2.324265,-29.81322,4.139557,0.4395326,0.5513704,0.03887188,1.205387,-0.0988006,-0.05648783,-0.01506765,0.007071654,0.3113073,4.240021,30.352610896817744
1,0.1818085,-0.1946411,0.9638672,1.0,0.181076,-0.1937866,0.9641724,-28.55473,0.6795044,-27.50185,4.037476,0.3592206,0.5829611,1.0,0.1898499,-0.2040558,0.9603577,33.48514,2.324265,-29.81322,4.139557,0.4395326,0.5513704,0.03887188,1.205387,-0.0988006,-0.05648783,-0.01506765,0.007071654,0.3113073,4.240021,30.352610896817744
1,0.1702423,-0.2146912,0.9617157,1.0,0.1696167,-0.2156067,0.9616241,-28.57393,0.7727203,-27.46436,3.883453,0.361785,0.5832204,1.0,0.1778412,-0.2034454,0.9627838,33.56934,2.400452,-29.81035,3.961563,0.4386249,0.5484392,0.03852224,1.205585,-0.09798962,-0.05683209,-0.01704269,0.007374906,0.3113073,4.240021,30.352610896817744
1,0.1702423,-0.2146912,0.9617157,1.0,0.1696167,-0.2156067,0.9616241,-28.57393,0.7727203,-27.46436,3.883453,0.361785,0.5832204,1.0,0.1778412,-0.2034454,0.9627838,33.56934,2.400452,-29.81035,3.961563,0.4386249,0.5484392,0.03852224,1.205585,-0.09798962,-0.05683209,-0.01704269,0.007374906,0.3113073,4.240021,30.352610896817744
1,0.1819458,-0.1952362,0.9637146,1.0,0.1820068,-0.1951141,0.9637299,-28.5464,0.7890015,-27.47412,3.760971,0.3587633,0.5791729,1.0,0.1796722,-0.1998749,0.9631958,33.61281,2.411087,-29.81432,3.988434,0.4368106,0.5474744,0.03794634,1.205396,-0.09715748,-0.05648176,-0.02041095,0.007248551,0.3113073,4.240021,30.352610896817744
1,0.1819458,-0.1952362,0.9637146,1.0,0.1820068,-0.1951141,0.9637299,-28.5464,0.7890015,-27.47412,3.760971,0.3587633,0.5791729,1.0,0.1796722,-0.1998749,0.9631958,33.61281,2.411087,-29.81432,3.988434,0.4368106,0.5474744,0.03794634,1.205396,-0.09715748,-0.05648176,-0.02041095,0.007248551,0.3113073,4.240021,30.352610896817744
1,0.1741333,-0.1945953,0.9652863,1.0,0.1795044,-0.1891174,0.9653931,-28.4791,0.7528229,-27.48903,4.000717,0.3569678,0.5795076,1.0,0.1683807,-0.2004395,0.9651184,33.6694,2.358154,-29.81703,3.874451,0.4367273,0.5493029,0.03730333,1.204684,-0.09639966,-0.05410098,-0.02434806,0.006181147,0.3113073,26.28413,30.352610896817744
1,0.1741333,-0.1945953,0.9652863,1.0,0.1795044,-0.1891174,0.9653931,-28.4791,0.7528229,-27.48903,4.000717,0.3569678,0.5795076,1.0,0.1683807,-0.2004395,0.9651184,33.6694,2.358154,-29.81703,3.874451,0.4367273,0.5493029,0.03730333,1.204684,-0.09639966,-0.05410098,-0.02434806,0.006181147,0.3113073,25.70956,30.352610896817744
1,0.1616058,-0.1986847,0.9666443,0.9764994,0.1572571,-0.1949158,0.9681244,-28.51338,0.6503143,-27.4864,3.830429,0.3617772,0.5837356,0.8331654,0.1656494,-0.2021637,0.9652252,33.6375,2.286575,-29.82544,3.902298,0.4382928,0.5521752,0.0365442,1.203842,-0.0958358,-0.0502279,-0.02825368,0.005616562,0.3113073,25.70956,30.352610896817744
1,0.1616058,-0.1986847,0.9666443,0.9764994,0.1572571,-0.1949158,0.9681244,-28.51338,0.6503143,-27.4864,3.830429,0.3617772,0.5837356,0.8331654,0.1656494,-0.2021637,0.9652252,33.6375,2.286575,-29.82544,3.902298,0.4382928,0.5521752,0.0365442,1.203842,-0.0958358,-0.0502279,-0.02825368,0.005616562,0.3113073,25.70956,30.352610896817744
1,0.160965,-0.1938934,0.9677124,0.9496548,0.1513519,-0.1914825,0.9697418,-28.57593,0.6417542,-27.48322,3.832855,0.3648894,0.5833609,0.7978482,0.1694489,-0.1959991,0.9658356,33.62019,2.289001,-29.8244,3.789337,0.4381951,0.5509553,0.03583026,1.202974,-0.09530282,-0.04606404,-0.03212514,0.005094882,0.3113073,25.70956,30.352610896817744
1,0.160965,-0.1938934,0.9677124,0.9496548,0.1513519,-0.1914825,0.9697418,-28.57593,0.6417542,-27.48322,3.832855,0.3648894,0.5833609,0.7978482,0.1694489,-0.1959991,0.9658356,33.62019,2.289001,-29.8244,3.789337,0.4381951,0.5509553,0.03583026,1.202974,-0.09530282,-0.04606404,-0.03212514,0.005094882,0.3113073,25.70956,30.352610896817744
1,0.1633301,-0.1905365,0.9679871,0.9496548,0.1570587,-0.1846771,0.9701538,-28.59663,0.6876373,-27.4812,3.703629,0.364623,0.5805939,0.7978482,0.1694641,-0.1962738,0.9657898,33.61632,2.291168,-29.82387,3.816772,0.4383397,0.5509294,0.03518212,1.20199,-0.09477746,-0.0414581,-0.03638494,0.00458211,0.3113073,25.70956,30.352610896817744
1,0.1633301,-0.1905365,0.9679871,0.9496548,0.1570587,-0.1846771,0.9701538,-28.59663,0.6876373,-27.4812,3.703629,0.364623,0.5805939,0.7978482,0.1694641,-0.1962738,0.9657898,33.61632,2.291168,-29.82387,3.816772,0.4383397,0.5509294,0.03518212,1.20199,-0.09477746,-0.0414581,-0.03638494,0.00458211,0.3113073,25.70956,30.352610896817744
1,0.1633301,-0.1905365,0.9679871,0.9496548,0.1570587,-0.1846771,0.9701538,-28.59663,0.6876373,-27.4812,3.703629,0.364623,0.5805939,0.7978482,0.1694641,-0.1962738,0.9657898,33.61632,2.291168,-29.82387,3.816772,0.4383397,0.5509294,0.03454363,1.200992,-0.09427702,-0.03683733,-0.04060118,0.003959296,0.3113073,25.70956,30.352610896817744
1,0.1633301,-0.1905365,0.9679871,0.9496548,0.1570587,-0.1846771,0.9701538,-28.59663,0.6876373,-27.4812,3.703629,0.364623,0.5805939,0.7978482,0.1694641,-0.1962738,0.9657898,33.61632,2.291168,-29.82387,3.816772,0.4383397,0.5509294,0.03454363,1.200992,-0.09427702,-0.03683733,-0.04060118,0.003959296,0.3113073,25.70956,30.352610896817744
1,0.1633301,-0.1905365,0.9679871,0.9496548,0.1570587,-0.1846771,0.9701538,-28.59663,0.6876373,-27.4812,3.703629,0.364623,0.5805939,0.7978482,0.1694641,-0.1962738,0.9657898,33.61632,2.291168,-29.82387,3.816772,0.4383397,0.5509294,0.03371823,1.200089,-0.09398949,-0.03272486,-0.0446033,0.003378504,0.3113073,25.70956,30.352610896817744
1,0.1633301,-0.1905365,0.9679871,0.9496548,0.1570587,-0.1846771,0.9701538,-28.59663,0.6876373,-27.4812,3.703629,0.364623,0.5805939,0.7978482,0.1694641,-0.1962738,0.9657898,33.61632,2.291168,-29.82387,3.816772,0.4383397,0.5509294,0.03371823,1.200089,-0.09398949,-0.03272486,-0.0446033,0.003378504,0.3113073,25.70956,30.352610896817744
1,0.1444397,-0.1899414,0.9710999,0.87881,0.141922,-0.168335,0.9754486,-28.78055,0.8637085,-27.4238,3.616455,0.3734823,0.5711803,0.764053,0.1465607,-0.2085419,0.9669647,33.4417,2.45018,-29.74565,3.818192,0.448447,0.5468236,0.03293967,1.199383,-0.09381545,-0.02959796,-0.04882019,0.002794317,0.3113073,25.70956,30.352610896817744
1,0.1444397,-0.1899414,0.9710999,0.87881,0.141922,-0.168335,0.9754486,-28.78055,0.8637085,-27.4238,3.616455,0.3734823,0.5711803,0.764053,0.1465607,-0.2085419,0.9669647,33.4417,2.45018,-29.74565,3.818192,0.448447,0.5468236,0.03293967,1.199383,-0.09381545,-0.02959796,-0.04882019,0.002794317,0.3113073,25.70956,30.352610896817744
1,0.1080017,-0.161972,0.9808655,0.7751465,0.1093445,-0.1430206,0.9836578,-28.83263,1.000061,-27.43196,3.42778,0.3807561,0.5620341,0.6709618,0.1055756,-0.1945801,0.975174,33.45944,2.582596,-29.672,3.68541,0.4549358,0.5387487,0.03215301,1.198977,-0.09371924,-0.0275941,-0.05346917,0.002480762,0.3113073,25.70956,30.352610896817744
1,0.1080017,-0.161972,0.9808655,0.7751465,0.1093445,-0.1430206,0.9836578,-28.83263,1.000061,-27.43196,3.42778,0.3807561,0.5620341,0.6709618,0.1055756,-0.1945801,0.975174,33.45944,2.582596,-29.672,3.68541,0.4549358,0.5387487,0.03215301,1.198977,-0.09371924,-0.0275941,-0.05346917,0.002480762,0.3113073,25.70956,30.352610896817744
1,0.1036224,-0.1564789,0.9822235,0.6981463,0.09362793,-0.1477661,0.9845734,-28.8712,1.102875,-27.43022,3.564453,0.3847387,0.5594327,0.6063794,0.1207123,-0.1713257,0.9777832,33.3011,2.609726,-29.6651,3.692001,0.4578507,0.5336407,0.03127873,1.198541,-0.09371245,-0.02567368,-0.05837438,0.001717682,0.3113073,25.70956,30.352610896817744
1,0.1036224,-0.1564789,0.9822235,0.6981463,0.09362793,-0.1477661,0.9845734,-28.8712,1.102875,-27.43022,3.564453,0.3847387,0.5594327,0.6063794,0.1207123,-0.1713257,0.9777832,33.3011,2.609726,-29.6651,3.692001,0.4578507,0.5336407,0.03127873,1.198541,-0.09371245,-0.02567368,-0.05837438,0.001717682,0.3113073,25.70956,30.352610896817744
1,0.09646606,-0.1676941,0.9810944,0.6531521,0.08876038,-0.1611023,0.9829254,-28.91095,1.079041,-27.3421,3.586594,0.3869296,0.5617237,0.5707258,0.1043549,-0.1744537,0.9791107,33.26047,2.591064,-29.65123,3.666733,0.4620725,0.5346401,0.03036487,1.198103,-0.09377104,-0.02331415,-0.06359278,0.0008188725,0.3113073,15.27244,30.352610896817744
1,0.09646606,-0.1676941,0.9810944,0.6531521,0.08876038,-0.1611023,0.9829254,-28.91095,1.079041,-27.3421,3.586594,0.3869296,0.5617237,0.5707258,0.1043549,-0.1744537,0.9791107,33.26047,2.591064,-29.65123,3.666733,0.4620725,0.5346401,0.03036487,1.198103,-0.09377104,-0.02331415,-0.06359278,0.0008188725,0.3113073,15.27244,30.352610896817744
1,0.0922699,-0.2497253,0.9638977,0.5702916,0.08857727,-0.2375031,0.9673309,-28.87315,0.6165161,-27.47389,3.393967,0.3852792,0.5919933,0.5748546,0.0965271,-0.2637787,0.9597321,33.04031,2.078568,-29.77393,3.660904,0.4708218,0.5699537,0.02976024,1.197783,-0.09387422,-0.02229714,-0.06627373,0.0005725605,0.3113073,15.27244,30.352610896817744
1,0.0922699,-0.2497253,0.9638977,0.5702916,0.08857727,-0.2375031,0.9673309,-28.87315,0.6165161,-27.47389,3.393967,0.3852792,0.5919933,0.5748546,0.0965271,-0.2637787,0.9597321,33.04031,2.078568,-29.77393,3.660904,0.4708218,0.5699537,0.02976024,1.197783,-0.09387422,-0.02229714,-0.06627373,0.0005725605,0.3113073,15.27244,30.352610896817744
1,0.06538391,-0.3266602,0.9428711,0.5476666,0.05955505,-0.3071289,0.9497986,-28.93001,0.1708527,-27.5961,3.435318,0.3916881,0.6208155,0.5877606,0.07331848,-0.3531647,0.9326782,32.81644,1.620132,-29.92776,3.556198,0.482405,0.604318,0.02861154,1.197196,-0.09402764,-0.01965446,-0.07228315,0.000345267,0.3113073,15.27244,30.352610896817744
1,0.06538391,-0.3266602,0.9428711,0.5476666,0.05955505,-0.3071289,0.9497986,-28.93001,0.1708527,-27.5961,3.435318,0.3916881,0.6208155,0.5877606,0.07331848,-0.3531647,0.9326782,32.81644,1.620132,-29.92776,3.556198,0.482405,0.604318,0.02861154,1.197196,-0.09402764,-0.01965446,-0.07228315,0.000345267,0.3113073,15.27244,30.352610896817744
1,0.06538391,-0.3266602,0.9428711,0.5476666,0.05955505,-0.3071289,0.9497986,-28.93001,0.1708527,-27.5961,3.435318,0.3916881,0.6208155,0.5877606,0.07331848,-0.3531647,0.9326782,32.81644,1.620132,-29.92776,3.556198,0.482405,0.604318,0.028005,1.196887,-0.09419256,-0.01802677,-0.07543196,0.0005459151,0.3113073,15.27244,31.01
1,0.06538391,-0.3266602,0.9428711,0.5476666,0.05955505,-0.3071289,0.9497986,-28.93001,0.1708527,-27.5961,3.435318,0.3916881,0.6208155,0.5877606,0.07331848,-0.3531647,0.9326782,32.81644,1.620132,-29.92776,3.556198,0.482405,0.604318,0.02741134,1.196484,-0.09434187,-0.01632231,-0.07878966,0.0005593965,0.3113073,15.27244,31.01
1,0.06538391,-0.3266602,0.9428711,0.5476666,0.05955505,-0.3071289,0.9497986,-28.93001,0.1708527,-27.5961,3.435318,0.3916881,0.6208155,0.5877606,0.07331848,-0.3531647,0.9326782,32.81644,1.620132,-29.92776,3.556198,0.482405,0.604318,0.02681208,1.196154,-0.09448534,-0.01442291,-0.08200509,0.0006686067,0.3113073,15.27244,31.01
1,0.06538391,-0.3266602,0.9428711,0.5476666,0.05955505,-0.3071289,0.9497986,-28.93001,0.1708527,-27.5961,3.435318,0.3916881,0.6208155,0.5877606,0.07331848,-0.3531647,0.9326782,32.81644,1.620132,-29.92776,3.556198,0.482405,0.604318,0.02555752,1.195276,-0.09484351,-0.01002687,-0.08879883,0.0006342959,0.3113073,15.27244,31.01
1,0.03697205,-0.3406982,0.9394379,0.4484347,0.03599548,-0.3322601,0.9424896,-29.20576,-0.04315186,-27.63911,3.535797,0.4047803,0.6331392,0.6453907,0.03894043,-0.3576813,0.9330292,32.75,1.366196,-30.01637,3.405441,0.490572,0.6149144,0.02490866,1.194857,-0.09494799,-0.008263899,-0.09213657,0.0006103516,0.3113073,15.27244,31.01
1,0.03697205,-0.3406982,0.9394379,0.4484347,0.03599548,-0.3322601,0.9424896,-29.20576,-0.04315186,-27.63911,3.535797,0.4047803,0.6331392,0.6453907,0.03894043,-0.3576813,0.9330292,32.75,1.366196,-30.01637,3.405441,0.490572,0.6149144,0.02490866,1.194857,-0.09494799,-0.008263899,-0.09213657,0.0006103516,0.3113073,15.27244,31.01
1,0.04089355,-0.3380737,0.9402161,0.3483043,0.0402832,-0.3323975,0.9422607,-29.2343,-0.0446167,-27.6355,3.474762,0.4050302,0.6331915,0.5657026,0.04206848,-0.3488922,0.936203,32.72935,1.345642,-30.01649,3.438736,0.4907603,0.6139293,0.02362955,1.194415,-0.09512109,-0.005894872,-0.09877895,0.0003860203,0.3113073,15.27244,31.01
1,0.04089355,-0.3380737,0.9402161,0.3483043,0.0402832,-0.3323975,0.9422607,-29.2343,-0.0446167,-27.6355,3.474762,0.4050302,0.6331915,0.5657026,0.04206848,-0.3488922,0.936203,32.72935,1.345642,-30.01649,3.438736,0.4907603,0.6139293,0.02362955,1.194415,-0.09512109,-0.005894872,-0.09877895,0.0003860203,0.3113073,15.27244,31.01
1,0.04089355,-0.3380737,0.9402161,0.3483043,0.0402832,-0.3323975,0.9422607,-29.2343,-0.0446167,-27.6355,3.474762,0.4050302,0.6331915,0.5657026,0.04206848,-0.3488922,0.936203,32.72935,1.345642,-30.01649,3.438736,0.4907603,0.6139293,0.02312171,1.194355,-0.09518909,-0.0053069,-0.101829,0.0002441406,0.3113073,15.27244,31.01
1,0.04089355,-0.3380737,0.9402161,0.3483043,0.0402832,-0.3323975,0.9422607,-29.2343,-0.0446167,-27.6355,3.474762,0.4050302,0.6331915,0.5657026,0.04206848,-0.3488922,0.936203,32.72935,1.345642,-30.01649,3.438736,0.4907603,0.6139293,0.0225029,1.194296,-0.09531844,-0.005069961,-0.1047916,0.000211432,0.3113073,15.27244,31.01
1,0.04089355,-0.3380737,0.9402161,0.3483043,0.0402832,-0.3323975,0.9422607,-29.2343,-0.0446167,-27.6355,3.474762,0.4050302,0.6331915,0.5657026,0.04206848,-0.3488922,0.936203,32.72935,1.345642,-30.01649,3.438736,0.4907603,0.6139293,0.02130771,1.194114,-0.09549594,-0.004322737,-0.1104496,0.0001726335,0.3113073,-13.39449,31.01
1,0.04089355,-0.3380737,0.9402161,0.3483043,0.0402832,-0.3323975,0.9422607,-29.2343,-0.0446167,-27.6355,3.474762,0.4050302,0.6331915,0.5657026,0.04206848,-0.3488922,0.936203,32.72935,1.345642,-30.01649,3.438736,0.4907603,0.6139293,0.02130771,1.194114,-0.09549594,-0.004322737,-0.1104496,0.0001726335,0.3113073,-13.39449,31.01
1,0.01358032,-0.3403625,0.9401855,0.3395024,0.01673889,-0.3110809,0.9502258,-29.48679,0.06855774,-27.59134,3.350433,0.4175864,0.6249877,0.5563096,0.01020813,-0.3711548,0.9284973,32.48247,1.523834,-29.93324,3.333374,0.5049066,0.6112528,0.02069843,1.193952,-0.0956251,-0.003867915,-0.113083,0.0002441406,0.3113073,-13.39449,31.01
1,-0.008804321,-0.3510284,0.9363098,0.326967,-0.01068115,-0.316803,0.9484253,-29.59532,0.02287292,-27.61137,3.199081,0.4258047,0.6278449,0.5209716,-0.008148193,-0.3628082,0.9318237,32.47446,1.477707,-29.96454,3.393478,0.5083668,0.611562,0.02010906,1.193735,-0.09572184,-0.00315263,-0.1156037,0.000211432,0.3113073,-13.39449,31.01
1,-0.01473999,-0.3423004,0.9394684,0.326967,-0.004882813,-0.3042908,0.9525604,-29.73076,-0.007675171,-27.5927,3.269241,0.4294205,0.6263767,0.5209716,-0.02020264,-0.3631439,0.9315033,32.42491,1.450882,-29.96567,3.356796,0.5121763,0.6126136,0.01888835,1.193318,-0.09596109,-0.001628621,-0.1195924,0.0007117861,0.3113073,-13.39449,31.01
1,-0.01473999,-0.3423004,0.9394684,0.326967,-0.004882813,-0.3042908,0.9525604,-29.73076,-0.007675171,-27.5927,3.269241,0.4294205,0.6263767,0.5209716,-0.02020264,-0.3631439,0.9315033,32.42491,1.450882,-29.96567,3.356796,0.5121763,0.6126136,0.01888835,1.193318,-0.09596109,-0.001628621,-0.1195924,0.0007117861,0.3113073,-13.39449,31.01
2,-0.01893616,-0.3393707,0.9404602,0.3341791,-0.0136261,-0.3012848,0.9534302,-29.85307,-0.05519104,-27.64067,3.292328,0.4349757,0.6279444,0.4834198,-0.02218628,-0.362442,0.9317322,32.34256,1.434189,-29.97067,3.499619,0.5153933,0.6131036,0.01837575,1.193144,-0.09603041,-0.0009765625,-0.1213831,0.0009765625,0.3113073,-13.39449,31.01
2,-0.01893616,-0.3393707,0.9404602,0.3341791,-0.0136261,-0.3012848,0.9534302,-29.85307,-0.05519104,-27.64067,3.292328,0.4349757,0.6279444,0.4834198,-0.02218628,-0.362442,0.9317322,32.34256,1.434189,-29.97067,3.499619,0.5153933,0.6131036,0.0179565,1.192984,-0.09605265,-0.0003860203,-0.1226918,0.001664817,0.3113073,-13.39449,31.01
2,-0.01893616,-0.3393707,0.9404602,0.3341791,-0.0136261,-0.3012848,0.9534302,-29.85307,-0.05519104,-27.64067,3.292328,0.4349757,0.6279444,0.4834198,-0.02218628,-0.362442,0.9317322,32.34256,1.434189,-29.97067,3.499619,0.5153933,0.6131036,0.01725638,1.192682,-0.0961647,0.00059802,-0.1247642,0.002783632,0.3113073,-13.39449,31.01
2,-0.01893616,-0.3393707,0.9404602,0.3341791,-0.0136261,-0.3012848,0.9534302,-29.85307,-0.05519104,-27.64067,3.292328,0.4349757,0.6279444,0.4834198,-0.02218628,-0.362442,0.9317322,32.34256,1.434189,-29.97067,3.499619,0.5153933,0.6131036,0.01725638,1.192682,-0.0961647,0.00059802,-0.1247642,0.002783632,0.3113073,-13.39449,31.01
2,-0.01893616,-0.3393707,0.9404602,0.3341791,-0.0136261,-0.3012848,0.9534302,-29.85307,-0.05519104,-27.64067,3.292328,0.4349757,0.6279444,0.4834198,-0.02218628,-0.362442,0.9317322,32.34256,1.434189,-29.97067,3.499619,0.5153933,0.6131036,0.01685941,1.192533,-0.09624732,0.0008631675,-0.1251924,0.003487026,0.3113073,-13.39449,31.01
2,-0.01893616,-0.3393707,0.9404602,0.3341791,-0.0136261,-0.3012848,0.9534302,-29.85307,-0.05519104,-27.64067,3.292328,0.4349757,0.6279444,0.4834198,-0.02218628,-0.362442,0.9317322,32.34256,1.434189,-29.97067,3.499619,0.5153933,0.6131036,0.01655316,1.192426,-0.09632397,0.001151609,-0.1255317,0.004098001,0.3113073,-13.39449,31.01
2,-0.02061462,-0.3094635,0.9506836,0.3260716,-0.03343201,-0.2468414,0.9684601,-29.8853,-0.05784607,-27.64362,3.530853,0.4394572,0.6181614,0.4514184,-0.01200867,-0.3504944,0.9364777,32.19327,1.409988,-29.94972,3.488327,0.5188535,0.6114349,0.01609087,1.192226,-0.09648621,0.00119604,-0.1251877,0.005720398,0.3113073,-13.39449,31.01
2,-0.03234863,-0.3011932,0.9530029,0.3263975,-0.03736877,-0.2317047,0.9720612,-30.06017,-0.121994,-27.64438,3.334503,0.4460348,0.6175787,0.3993546,-0.02864075,-0.3500519,0.9362793,32.05652,1.40564,-29.95834,3.457855,0.5265102,0.6116659,0.0158571,1.192193,-0.09660983,0.0009917039,-0.1250514,0.006748181,0.3113073,-13.39449,31.01
2,-0.03369141,-0.2841187,0.9581909,0.3366341,-0.03715515,-0.2150879,0.9758759,-30.05862,-0.1178436,-27.64044,3.412445,0.4459614,0.6144204,0.3712804,-0.03067017,-0.3403168,0.9398041,32.06042,1.399002,-29.95143,3.38739,0.5267265,0.6099607,0.01573002,1.192239,-0.09667027,0.0007117861,-0.1247655,0.007605676,0.3113073,-49.35274,31.01
2,-0.03369141,-0.2841187,0.9581909,0.3366341,-0.03715515,-0.2150879,0.9758759,-30.05862,-0.1178436,-27.64044,3.412445,0.4459614,0.6144204,0.3712804,-0.03067017,-0.3403168,0.9398041,32.06042,1.399002,-29.95143,3.38739,0.5267265,0.6099607,0.01573002,1.192239,-0.09667027,0.0007117861,-0.1247655,0.007605676,0.3113073,-49.35274,31.01
2,-0.03013611,-0.2702942,0.9622955,0.3326487,-0.02146912,-0.1764679,0.9840698,-30.01505,-0.1266174,-27.64104,3.833801,0.4418824,0.6079339,0.3651188,-0.03648376,-0.3392639,0.9399719,32.08238,1.405792,-29.93816,3.418396,0.5269573,0.6093959,0.01550376,1.192295,-0.09672213,-0.0001220703,-0.1244918,0.00832677,0.3113073,-49.35274,31.01
2,-0.03936768,-0.2706757,0.961853,0.3242486,-0.04360962,-0.2179718,0.9749756,-30.01387,-0.08493042,-27.62799,3.484726,0.4455335,0.6137305,0.3469312,-0.03503418,-0.3221741,0.9460144,32.07173,1.478424,-29.89183,3.478561,0.5270796,0.6031002,0.01546443,1.19253,-0.09666574,-0.0007324219,-0.1242308,0.008821217,0.3113073,-49.35274,31.01
2,-0.03399658,-0.2484436,0.9680481,0.3389654,-0.03788757,-0.1825867,0.9824524,-29.98863,-0.09613037,-27.63512,3.581467,0.4437619,0.607877,0.3436089,-0.02941895,-0.3210907,0.946579,32.11879,1.42067,-29.923,3.417175,0.5244714,0.6052027,0.01531184,1.192709,-0.09666526,-0.001713338,-0.1240473,0.00892116,0.3113073,-49.35274,31.01
2,-0.04853821,-0.3027802,0.9518127,0.3389654,0.0,0.0,0.0,-29.96436,-0.1095581,-27.63455,-1.0,0.4400254,0.6045243,0.3436089,-0.04853821,-0.3027802,0.9518127,32.14093,1.380814,-29.9196,3.584473,0.5269896,0.6031038,0.01505828,1.193161,-0.09667146,-0.003840853,-0.1238199,0.008866709,0.3113073,-49.35274,31.01
2,-0.03469849,-0.2068176,0.9777527,0.3240676,-0.05194092,-0.1721954,0.9836884,-29.89206,-0.01133728,-27.61459,3.717361,0.4428802,0.603049,0.3276835,-0.01487732,-0.2460632,0.9691315,32.22314,1.464218,-29.87009,3.404282,0.5183525,0.5889103,0.01505828,1.193161,-0.09667146,-0.003840853,-0.1238199,0.008866709,0.3113073,-49.35274,31.01
2,-1.0,-1.0,-1.0,0.3047295,0.0,0.0,0.0,-29.54338,0.1831512,-27.05637,-1.0,0.4328526,0.5757995,0.2875242,0.0,0.0,0.0,32.37621,1.828278,-29.73711,-1.0,0.5103452,0.5604222,0.0148356,1.193638,-0.09667993,-0.005976461,-0.1236752,0.008493322,0.3138694,-49.35274,31.01
2,-1.0,-1.0,-1.0,0.3047295,0.0,0.0,0.0,-29.54338,0.1831512,-27.05637,-1.0,0.4328526,0.5757995,0.2875242,0.0,0.0,0.0,32.37621,1.828278,-29.73711,-1.0,0.5103452,0.5604222,0.0148356,1.193638,-0.09667993,-0.005976461,-0.1236752,0.008493322,0.3138694,-49.35274,31.01
2,-1.0,-1.0,-1.0,0.2984729,0.0,0.0,0.0,-29.32544,0.5192261,-27.61209,-1.0,0.4086629,0.5570562,0.1775285,0.0,0.0,0.0,32.43147,2.091309,-29.69568,-1.0,0.5028303,0.5508813,0.014624,1.194055,-0.09670985,-0.00786383,-0.1239369,0.008043683,0.3138694,-49.35274,31.01
2,-1.0,-1.0,-1.0,0.3137057,0.0,0.0,0.0,-28.87167,1.408859,-28.92725,-1.0,0.3837255,0.5334345,0.1592059,0.0,0.0,0.0,32.91071,2.534531,-29.3394,-1.0,0.4858397,0.5159843,0.0144484,1.194389,-0.09658873,-0.009414462,-0.1241032,0.00748521,0.3138694,-49.35274,31.01
2,-1.0,-1.0,-1.0,0.3137057,0.0,0.0,0.0,-28.87167,1.408859,-28.92725,-1.0,0.3837255,0.5334345,0.1592059,0.0,0.0,0.0,32.91071,2.534531,-29.3394,-1.0,0.4858397,0.5159843,0.0144484,1.194389,-0.09658873,-0.009414462,-0.1241032,0.00748521,0.3138694,-49.35274,31.01
2,-1.0,-1.0,-1.0,0.3740438,0.0,0.0,0.0,-28.74779,1.321228,-28.47136,-1.0,0.3872562,0.539553,0.1749855,0.0,0.0,0.0,33.0609,2.658066,-29.72995,-1.0,0.4751821,0.5070516,0.01448786,1.194907,-0.0964781,-0.01129794,-0.1242659,0.006879396,0.3138694,-49.35274,31.01
2,-1.0,-1.0,-1.0,0.3740438,0.0,0.0,0.0,-28.74779,1.321228,-28.47136,-1.0,0.3872562,0.539553,0.1749855,0.0,0.0,0.0,33.0609,2.658066,-29.72995,-1.0,0.4751821,0.5070516,0.01448786,1.194907,-0.0964781,-0.01129794,-0.1242659,0.006879396,0.3138694,-49.35274,31.01
2,0.08006287,-0.06813049,0.9944458,0.5209718,0.05670166,-0.009124756,0.9983368,-28.81725,1.204559,-28.40675,3.70047,0.3886414,0.5412896,0.4136266,0.08027649,-0.06866455,0.9944,33.07629,2.644745,-30.04465,3.71727,0.4727007,0.5176119,0.01446533,1.195385,-0.09646726,-0.01367841,-0.1236854,0.006792201,0.3138694,-49.35274,31.01
2,0.08006287,-0.06813049,0.9944458,0.5209718,0.05670166,-0.009124756,0.9983368,-28.81725,1.204559,-28.40675,3.70047,0.3886414,0.5412896,0.4136266,0.08027649,-0.06866455,0.9944,33.07629,2.644745,-30.04465,3.71727,0.4727007,0.5176119,0.01446533,1.195385,-0.09646726,-0.01367841,-0.1236854,0.006792201,0.3138694,-49.35274,31.01
2,0.05183411,-0.03526306,0.9980316,0.6149481,0.04824829,-0.03359985,0.9982605,-28.85144,1.125168,-28.25366,3.849777,0.3912851,0.546799,0.4812595,0.09098816,-0.05345154,0.9944,33.04875,2.387436,-29.56065,3.808029,0.4717951,0.519294,0.01462376,1.195835,-0.0964731,-0.01567404,-0.1229027,0.006865302,0.3138694,-49.35274,31.01
2,0.05183411,-0.03526306,0.9980316,0.6149481,0.04824829,-0.03359985,0.9982605,-28.85144,1.125168,-28.25366,3.849777,0.3912851,0.546799,0.4812595,0.09098816,-0.05345154,0.9944,33.04875,2.387436,-29.56065,3.808029,0.4717951,0.519294,0.01462376,1.195835,-0.0964731,-0.01567404,-0.1229027,0.006865302,0.3138694,-49.35274,31.01
2,0.06169128,-0.03387451,0.9975128,0.6640056,0.05383301,-0.02644348,0.9981842,-28.90842,1.027924,-28.03415,3.687988,0.3923919,0.5466611,0.5205396,0.08729553,-0.05809021,0.9944763,33.04131,2.202972,-29.24573,3.867264,0.4726692,0.5234659,0.01481187,1.196123,-0.0965246,-0.01737005,-0.1218309,0.007140853,0.3138694,-1.085716,31.01
2,0.06169128,-0.03387451,0.9975128,0.6640056,0.05383301,-0.02644348,0.9981842,-28.90842,1.027924,-28.03415,3.687988,0.3923919,0.5466611,0.5205396,0.08729553,-0.05809021,0.9944763,33.04131,2.202972,-29.24573,3.867264,0.4726692,0.5234659,0.01481187,1.196123,-0.0965246,-0.01737005,-0.1218309,0.007140853,0.3138694,-1.085716,31.01
2,0.06300354,-0.04412842,0.9970245,0.6839739,0.06288147,-0.04399109,0.9970398,-28.9733,1.008926,-28.4435,3.764923,0.3927503,0.5542747,0.5418937,0.08197021,-0.06607056,0.9944305,33.04102,2.042343,-28.99754,3.842789,0.4735564,0.5279903,0.01513791,1.196351,-0.09652072,-0.01868274,-0.1204799,0.007701079,0.3138694,-1.085716,31.01
2,0.06300354,-0.04412842,0.9970245,0.6839739,0.06288147,-0.04399109,0.9970398,-28.9733,1.008926,-28.4435,3.764923,0.3927503,0.5542747,0.5418937,0.08197021,-0.06607056,0.9944305,33.04102,2.042343,-28.99754,3.842789,0.4735564,0.5279903,0.01513791,1.196351,-0.09652072,-0.01868274,-0.1204799,0.007701079,0.3138694,-1.085716,31.01
2,0.05914307,-0.05024719,0.9969788,0.6839863,0.05348206,-0.046875,0.997467,-28.9749,0.9746704,-28.35225,3.737015,0.3944386,0.5550196,0.5428113,0.08006287,-0.06271362,0.994812,33.04269,1.963806,-28.91832,3.86911,0.4738175,0.5293352,0.01548851,1.196457,-0.09648955,-0.01962828,-0.1188366,0.008227756,0.3138694,-1.085716,31.01
2,0.05914307,-0.05024719,0.9969788,0.6839863,0.05348206,-0.046875,0.997467,-28.9749,0.9746704,-28.35225,3.737015,0.3944386,0.5550196,0.5428113,0.08006287,-0.06271362,0.994812,33.04269,1.963806,-28.91832,3.86911,0.4738175,0.5293352,0.01548851,1.196457,-0.09648955,-0.01962828,-0.1188366,0.008227756,0.3138694,-1.085716,31.01
2,0.07479858,-0.07022095,0.9947205,0.6757497,0.05654907,-0.02667236,0.9980316,-28.98215,0.7337646,-27.95706,3.762985,0.3943878,0.5558983,0.5443593,0.07757568,-0.07685852,0.9940186,33.05721,1.930313,-28.93877,3.773804,0.4737031,0.5330868,0.01590192,1.196548,-0.09649068,-0.0205129,-0.1169722,0.008671289,0.3138694,-1.085716,31.01
2,0.07479858,-0.07022095,0.9947205,0.6757497,0.05654907,-0.02667236,0.9980316,-28.98215,0.7337646,-27.95706,3.762985,0.3943878,0.5558983,0.5443593,0.07757568,-0.07685852,0.9940186,33.05721,1.930313,-28.93877,3.773804,0.4737031,0.5330868,0.01590192,1.196548,-0.09649068,-0.0205129,-0.1169722,0.008671289,0.3138694,-1.085716,31.01
2,0.07807922,-0.07011414,0.9944763,0.6686068,0.06361389,-0.02944946,0.9975281,-28.9836,0.742569,-28.00406,3.781387,0.3932175,0.5565434,0.5583066,0.07859802,-0.07157898,0.9943237,33.06317,1.87709,-28.80196,3.910812,0.4733486,0.5327656,0.01629817,1.196759,-0.09660542,-0.02168011,-0.1151056,0.009174784,0.3138694,-1.085716,31.01
2,0.07807922,-0.07011414,0.9944763,0.6686068,0.06361389,-0.02944946,0.9975281,-28.9836,0.742569,-28.00406,3.781387,0.3932175,0.5565434,0.5583066,0.07859802,-0.07157898,0.9943237,33.06317,1.87709,-28.80196,3.910812,0.4733486,0.5327656,0.01629817,1.196759,-0.09660542,-0.02168011,-0.1151056,0.009174784,0.3138694,-1.085716,31.01
2,0.07847595,-0.06620789,0.9947052,0.6656328,0.06503296,-0.02890015,0.9974518,-28.9826,0.7472076,-28.02826,3.803329,0.3929315,0.5565434,0.5476705,0.08003235,-0.07054138,0.994278,33.06613,1.854721,-28.74666,3.916489,0.4730017,0.5328278,0.01675594,1.19701,-0.0967086,-0.023049,-0.1137792,0.009398622,0.3138694,-1.085716,31.01
2,0.07847595,-0.06620789,0.9947052,0.6656328,0.06503296,-0.02890015,0.9974518,-28.9826,0.7472076,-28.02826,3.803329,0.3929315,0.5565434,0.5476705,0.08003235,-0.07054138,0.994278,33.06613,1.854721,-28.74666,3.916489,0.4730017,0.5328278,0.01675594,1.19701,-0.0967086,-0.023049,-0.1137792,0.009398622,0.3138694,-1.085716,31.01
2,0.07029724,-0.04695129,0.9964142,0.6654263,0.06433105,-0.03125,0.9974365,-28.97768,0.7452393,-27.98119,3.809219,0.3929127,0.5565711,0.5505403,0.07926941,-0.07058716,0.994339,33.07002,1.855331,-28.77464,3.913254,0.4729942,0.5330784,0.01728261,1.197266,-0.09679353,-0.02422504,-0.1124138,0.009160154,0.3138694,-1.085716,31.01
2,0.07029724,-0.04695129,0.9964142,0.6654263,0.06433105,-0.03125,0.9974365,-28.97768,0.7452393,-27.98119,3.809219,0.3929127,0.5565711,0.5505403,0.07926941,-0.07058716,0.994339,33.07002,1.855331,-28.77464,3.913254,0.4729942,0.5330784,0.01728261,1.197266,-0.09679353,-0.02422504,-0.1124138,0.009160154,0.3138694,-1.085716,31.01
2,0.07235718,-0.0539856,0.9959106,0.6536958,0.06668091,-0.03430176,0.9971771,-28.97542,0.7337646,-27.95706,3.808701,0.3924493,0.5572495,0.5436902,0.07699585,-0.07011414,0.9945526,33.08673,1.854385,-28.78206,3.905991,0.4728082,0.5330825,0.01782584,1.197613,-0.09688318,-0.02539913,-0.1110706,0.00872696,0.3138694,27.90295,31.01
2,0.07235718,-0.0539856,0.9959106,0.6536958,0.06668091,-0.03430176,0.9971771,-28.97542,0.7337646,-27.95706,3.808701,0.3924493,0.5572495,0.5436902,0.07699585,-0.07011414,0.9945526,33.08673,1.854385,-28.78206,3.905991,0.4728082,0.5330825,0.01782584,1.197613,-0.09688318,-0.02539913,-0.1110706,0.00872696,0.3138694,27.90295,31.01
2,0.07189941,-0.05656433,0.9958038,0.6458531,0.06739807,-0.03746033,0.9970093,-28.95749,0.7319641,-27.91629,3.808868,0.3917505,0.5574579,0.5500287,0.07489014,-0.06930542,0.9947662,33.09845,1.852264,-28.79062,3.905945,0.4727646,0.5330867,0.01841438,1.197945,-0.09702116,-0.02699686,-0.1099069,0.008156818,0.3138694,27.90295,31.01
2,0.07189941,-0.05656433,0.9958038,0.6458531,0.06739807,-0.03746033,0.9970093,-28.95749,0.7319641,-27.91629,3.808868,0.3917505,0.5574579,0.5500287,0.07489014,-0.06930542,0.9947662,33.09845,1.852264,-28.79062,3.905945,0.4727646,0.5330867,0.01841438,1.197945,-0.09702116,-0.02699686,-0.1099069,0.008156818,0.3138694,27.90295,31.01
2,0.06930542,-0.05888367,0.9958496,0.6542389,0.06550598,-0.04190063,0.9969635,-28.93465,0.7051849,-27.89494,3.817108,0.3913026,0.5589056,0.5453363,0.0716095,-0.06921387,0.9950256,33.1201,1.850845,-28.79196,3.893265,0.4725775,0.5331145,0.01897895,1.198293,-0.09717888,-0.02869328,-0.1089508,0.007422237,0.3138694,27.90295,31.01
2,0.06930542,-0.05888367,0.9958496,0.6542389,0.06550598,-0.04190063,0.9969635,-28.93465,0.7051849,-27.89494,3.817108,0.3913026,0.5589056,0.5453363,0.0716095,-0.06921387,0.9950256,33.1201,1.850845,-28.79196,3.893265,0.4725775,0.5331145,0.01897895,1.198293,-0.09717888,-0.02869328,-0.1089508,0.007422237,0.3138694,27.90295,31.01
2,0.07177734,-0.07289124,0.994751,0.6484216,0.05722046,-0.03842163,0.9976196,-28.89461,0.477066,-27.52383,3.645691,0.3915367,0.562261,0.555121,0.07200623,-0.07342529,0.9946899,33.12927,1.848877,-28.79196,3.893539,0.4721904,0.5339228,0.01945198,1.198687,-0.0972895,-0.03040629,-0.1081706,0.006213607,0.3138694,27.90295,31.01
2,0.07177734,-0.07289124,0.994751,0.6484216,0.05722046,-0.03842163,0.9976196,-28.89461,0.477066,-27.52383,3.645691,0.3915367,0.562261,0.555121,0.07200623,-0.07342529,0.9946899,33.12927,1.848877,-28.79196,3.893539,0.4721904,0.5339228,0.01945198,1.198687,-0.0972895,-0.03040629,-0.1081706,0.006213607,0.3138694,27.90295,31.01
2,0.0715332,-0.07348633,0.9947205,0.6414931,0.05764771,-0.04040527,0.9975128,-28.89043,0.4515533,-27.47397,3.646408,0.3913482,0.5629754,0.5538173,0.0716095,-0.07368469,0.9947052,33.13751,1.84613,-28.79196,3.891815,0.4719734,0.5340535,0.0201422,1.199052,-0.09737349,-0.03200315,-0.1074366,0.004810561,0.3138694,27.90295,31.01
2,0.0715332,-0.07348633,0.9947205,0.6414931,0.05764771,-0.04040527,0.9975128,-28.89043,0.4515533,-27.47397,3.646408,0.3913482,0.5629754,0.5538173,0.0716095,-0.07368469,0.9947052,33.13751,1.84613,-28.79196,3.891815,0.4719734,0.5340535,0.0201422,1.199052,-0.09737349,-0.03200315,-0.1074366,0.004810561,0.3138694,27.90295,31.01
2,0.07048035,-0.07339478,0.9947968,0.6414931,0.05485535,-0.03994751,0.9976807,-28.88766,0.4324036,-27.43344,3.650955,0.3917482,0.5631464,0.5538173,0.0705719,-0.07359314,0.9947815,33.14259,1.84436,-28.79196,3.881424,0.4719734,0.5340952,0.02068782,1.19945,-0.09751594,-0.03363431,-0.1063868,0.003848604,0.3138694,27.90295,31.01
2,0.07048035,-0.07339478,0.9947968,0.6414931,0.05485535,-0.03994751,0.9976807,-28.88766,0.4324036,-27.43344,3.650955,0.3917482,0.5631464,0.5538173,0.0705719,-0.07359314,0.9947815,33.14259,1.84436,-28.79196,3.881424,0.4719734,0.5340952,0.02068782,1.19945,-0.09751594,-0.03363431,-0.1063868,0.003848604,0.3138694,27.90295,31.01
2,0.07048035,-0.07339478,0.9947968,0.6414931,0.05485535,-0.03994751,0.9976807,-28.88766,0.4324036,-27.43344,3.650955,0.3917482,0.5631464,0.5538173,0.0705719,-0.07359314,0.9947815,33.14259,1.84436,-28.79196,3.881424,0.4719734,0.5340952,0.02115929,1.199844,-0.09764135,-0.03554532,-0.1054193,0.002980116,0.3138694,27.90295,31.01
2,0.07048035,-0.07339478,0.9947968,0.6414931,0.05485535,-0.03994751,0.9976807,-28.88766,0.4324036,-27.43344,3.650955,0.3917482,0.5631464,0.5538173,0.0705719,-0.07359314,0.9947815,33.14259,1.84436,-28.79196,3.881424,0.4719734,0.5340952,0.02115929,1.199844,-0.09764135,-0.03554532,-0.1054193,0.002980116,0.3138694,27.90295,31.01
2,0.07048035,-0.07339478,0.9947968,0.6414931,0.05485535,-0.03994751,0.9976807,-28.88766,0.4324036,-27.43344,3.650955,0.3917482,0.5631464,0.5538173,0.0705719,-0.07359314,0.9947815,33.14259,1.84436,-28.79196,3.881424,0.4719734,0.5340952,0.02157283,1.200315,-0.09771931,-0.037582,-0.1048844,0.002227574,0.3138694,27.90295,31.01
2,0.07048035,-0.07339478,0.9947968,0.6414931,0.05485535,-0.03994751,0.9976807,-28.88766,0.4324036,-27.43344,3.650955,0.3917482,0.5631464,0.5538173,0.0705719,-0.07359314,0.9947815,33.14259,1.84436,-28.79196,3.881424,0.4719734,0.5340952,0.02157283,1.200315,-0.09771931,-0.037582,-0.1048844,0.002227574,0.3138694,27.90295,31.01
2,0.1128235,0.09890747,0.988678,0.6429414,0.1128235,0.09890747,0.988678,-28.40703,1.404236,-28.68152,3.810837,0.3650962,0.5189087,0.5063403,0.1318054,0.05029297,0.9899902,33.44543,3.102356,-30.87256,3.816162,0.4509048,0.4887903,0.02190673,1.20075,-0.0978694,-0.03998711,-0.1046785,0.001490058,0.3138694,15.9393,31.01
2,0.1128235,0.09890747,0.988678,0.6429414,0.1128235,0.09890747,0.988678,-28.40703,1.404236,-28.68152,3.810837,0.3650962,0.5189087,0.5063403,0.1318054,0.05029297,0.9899902,33.44543,3.102356,-30.87256,3.816162,0.4509048,0.4887903,0.02190673,1.20075,-0.0978694,-0.03998711,-0.1046785,0.001490058,0.3138694,15.9393,31.01
2,0.1319885,0.07263184,0.9885712,0.7463472,0.1319885,0.07263184,0.9885712,-28.32246,1.249222,-27.68964,3.715973,0.3598256,0.5193356,0.6945892,0.1448517,0.08283997,0.9859772,33.63449,3.035751,-30.76454,3.803391,0.4419967,0.4844154,0.02208555,1.201019,-0.09792966,-0.04115852,-0.1045418,0.00119604,0.3138694,15.9393,31.01
2,0.1319885,0.07263184,0.9885712,0.7463472,0.1319885,0.07263184,0.9885712,-28.32246,1.249222,-27.68964,3.715973,0.3598256,0.5193356,0.6945892,0.1448517,0.08283997,0.9859772,33.63449,3.035751,-30.76454,3.803391,0.4419967,0.4844154,0.02208555,1.201019,-0.09792966,-0.04115852,-0.1045418,0.00119604,0.3138694,15.9393,31.01
2,0.1273651,0.1218719,0.9843292,0.8148158,0.1273651,0.1218872,0.9843292,-28.32742,0.8724823,-27.38174,3.797363,0.3609605,0.5208906,0.7539154,0.1352997,0.07382202,0.9880371,33.6357,2.911774,-30.50739,3.749344,0.4436673,0.4878015,0.02236927,1.2014,-0.09815294,-0.0434985,-0.104187,0.0008970299,0.3138694,15.9393,31.01
2,0.1273651,0.1218719,0.9843292,0.8148158,0.1273651,0.1218872,0.9843292,-28.32742,0.8724823,-27.38174,3.797363,0.3609605,0.5208906,0.7539154,0.1352997,0.07382202,0.9880371,33.6357,2.911774,-30.50739,3.749344,0.4436673,0.4878015,0.02236927,1.2014,-0.09815294,-0.0434985,-0.104187,0.0008970299,0.3138694,15.9393,31.01
2,0.1276398,0.06510925,0.9896698,0.8571015,0.1160126,0.1284332,0.9848938,-28.36006,0.6941071,-27.02356,3.697815,0.3642314,0.5223108,0.7943631,0.1276855,0.06486511,0.9896851,33.6125,2.814255,-30.26949,3.641129,0.445824,0.4903957,0.02254057,1.201578,-0.09821594,-0.04429975,-0.1039329,0.0008004686,0.3138694,15.9393,31.01
2,0.1328888,0.05326843,0.9896851,0.8767807,0.1147003,0.1244507,0.9855652,-28.40216,0.6760254,-27.11005,3.825867,0.365798,0.5245121,0.8130555,0.1337433,0.04985046,0.9897461,33.56342,2.896179,-30.57895,3.664505,0.4464126,0.4931071,0.02290022,1.201863,-0.09835315,-0.04592651,-0.1033153,0.0006103516,0.3138694,15.9393,31.01
2,0.1298828,0.05699158,0.9898834,0.9160192,0.1150055,0.1021729,0.9880829,-28.48027,0.9904938,-27.99504,3.68399,0.3676739,0.5257745,0.822516,0.1298828,0.05697632,0.9898834,33.5912,2.804031,-30.41301,3.724319,0.4461607,0.4935471,0.02302361,1.202016,-0.09843755,-0.04648603,-0.1030121,0.0004401308,0.3138694,15.9393,31.01
2,0.1298828,0.05699158,0.9898834,0.9160192,0.1150055,0.1021729,0.9880829,-28.48027,0.9904938,-27.99504,3.68399,0.3676739,0.5257745,0.822516,0.1298828,0.05697632,0.9898834,33.5912,2.804031,-30.41301,3.724319,0.4461607,0.4935471,0.02302361,1.202016,-0.09843755,-0.04648603,-0.1030121,0.0004401308,0.3138694,15.9393,31.01
2,0.1252441,0.05769348,0.9904327,0.9160192,0.1150055,0.1020966,0.9880981,-28.48395,0.9895172,-27.99055,3.679977,0.3677997,0.5257751,0.822516,0.1252441,0.05769348,0.9904327,33.59386,2.761993,-30.28046,3.690277,0.4468974,0.4935881,0.0231818,1.202167,-0.09849036,-0.04714396,-0.1026746,0.0003662109,0.3138694,15.9393,31.01
2,0.1222992,0.0562439,0.9908905,0.9388778,0.1150208,0.1020508,0.9880981,-28.48763,0.9885254,-27.98607,3.684372,0.3679256,0.5257757,0.8120613,0.1223145,0.0562439,0.9908905,33.5918,2.746094,-30.2437,3.695602,0.4474921,0.494036,0.02349079,1.20238,-0.09862053,-0.04801446,-0.101878,0.0,0.3138694,15.9393,31.01
2,0.1222992,0.0562439,0.9908905,0.9388778,0.1150208,0.1020508,0.9880981,-28.48763,0.9885254,-27.98607,3.684372,0.3679256,0.5257757,0.8120613,0.1223145,0.0562439,0.9908905,33.5918,2.746094,-30.2437,3.695602,0.4474921,0.494036,0.02364337,1.202391,-0.09873617,-0.04825021,-0.1013843,0.0,0.3138694,15.9393,31.01
2,0.1222992,0.0562439,0.9908905,0.9388778,0.1150208,0.1020508,0.9880981,-28.48763,0.9885254,-27.98607,3.684372,0.3679256,0.5257757,0.8120613,0.1223145,0.0562439,0.9908905,33.5918,2.746094,-30.2437,3.695602,0.4474921,0.494036,0.02364337,1.202391,-0.09873617,-0.04825021,-0.1013843,0.0,0.3138694,15.9393,31.01
2,0.1222992,0.0562439,0.9908905,0.9388778,0.1150208,0.1020508,0.9880981,-28.48763,0.9885254,-27.98607,3.684372,0.3679256,0.5257757,0.8120613,0.1223145,0.0562439,0.9908905,33.5918,2.746094,-30.2437,3.695602,0.4474921,0.494036,0.02382255,1.202417,-0.09876692,-0.04824805,-0.1008838,0.0,0.3138694,12.13613,31.01
2,0.1222992,0.0562439,0.9908905,0.9388778,0.1150208,0.1020508,0.9880981,-28.48763,0.9885254,-27.98607,3.684372,0.3679256,0.5257757,0.8120613,0.1223145,0.0562439,0.9908905,33.5918,2.746094,-30.2437,3.695602,0.4474921,0.494036,0.0240078,1.2024,-0.09881628,-0.04838637,-0.1005006,0.0,0.3138694,12.13613,31.01
2,0.1078033,0.04484558,0.9931488,0.954209,0.1187439,0.08291626,0.9894409,-28.62775,0.9154053,-27.70357,3.653137,0.3722295,0.5288366,0.8071028,0.1069641,0.04196167,0.9933624,33.57826,3.07283,-31.41298,3.682816,0.4504507,0.4960747,0.02436841,1.202311,-0.09891605,-0.04798155,-0.09957137,-0.0001726335,0.3138694,12.13613,31.01
2,0.1078033,0.04484558,0.9931488,0.954209,0.1187439,0.08291626,0.9894409,-28.62775,0.9154053,-27.70357,3.653137,0.3722295,0.5288366,0.8071028,0.1069641,0.04196167,0.9933624,33.57826,3.07283,-31.41298,3.682816,0.4504507,0.4960747,0.02436841,1.202311,-0.09891605,-0.04798155,-0.09957137,-0.0001726335,0.3138694,12.13613,31.01
2,0.113327,0.07032776,0.9910583,0.9986483,0.1121368,0.0811615,0.9903717,-28.64113,0.917038,-27.63965,3.615616,0.3738541,0.5284268,0.8042024,0.1154327,0.05088806,0.9920044,33.52754,2.731491,-30.17451,3.688629,0.4509418,0.4948154,0.02474153,1.201997,-0.09901422,-0.0470199,-0.09844704,-0.0004401308,0.3138694,12.13613,31.01
2,0.113327,0.07032776,0.9910583,0.9986483,0.1121368,0.0811615,0.9903717,-28.64113,0.917038,-27.63965,3.615616,0.3738541,0.5284268,0.8042024,0.1154327,0.05088806,0.9920044,33.52754,2.731491,-30.17451,3.688629,0.4509418,0.4948154,0.02474153,1.201997,-0.09901422,-0.0470199,-0.09844704,-0.0004401308,0.3138694,12.13613,31.01
2,0.1151886,0.08003235,0.9901123,0.9947646,0.1151886,0.08003235,0.9901123,-28.66579,0.9298553,-27.6302,3.598816,0.3741709,0.5281061,0.8189733,0.1065826,0.04533386,0.9932556,33.48756,2.805008,-30.17969,3.608383,0.4538917,0.4932503,0.02516258,1.201998,-0.098966,-0.04639138,-0.09798171,-0.0006342959,0.3138694,12.13613,31.01
2,0.1165466,0.07931519,0.9900055,0.9960231,0.1165466,0.07931519,0.9900055,-28.71617,0.973175,-27.4353,3.601807,0.3758034,0.5250156,0.8180358,0.1078796,0.04019165,0.9933472,33.46623,2.823471,-30.11253,3.513947,0.4543878,0.4927826,0.02553153,1.201699,-0.09903705,-0.04472591,-0.09700029,-0.0008188726,0.3138694,12.13613,31.01
2,0.1156158,0.07733154,0.9902649,0.9943501,0.1156158,0.07733154,0.9902649,-28.72557,0.9801941,-27.3537,3.612198,0.3763461,0.5243788,0.8177322,0.1088715,0.03593445,0.9933929,33.44926,2.826294,-30.04323,3.563705,0.4548334,0.4928369,0.02567518,1.201514,-0.09904099,-0.04389255,-0.09662349,-0.0008886853,0.3138694,12.13613,31.01
2,0.1156158,0.07733154,0.9902649,0.9943501,0.1156158,0.07733154,0.9902649,-28.72557,0.9801941,-27.3537,3.612198,0.3763461,0.5243788,0.8177322,0.1088715,0.03593445,0.9933929,33.44926,2.826294,-30.04323,3.563705,0.4548334,0.4928369,0.02567518,1.201514,-0.09904099,-0.04389255,-0.09662349,-0.0008886853,0.3138694,12.13613,31.01
2,0.1094818,0.08885193,0.9900055,0.9949443,0.1094818,0.08885193,0.9900055,-28.73987,0.9895172,-27.21172,3.550766,0.3779714,0.5207587,0.8221836,0.1068878,0.04185486,0.9933777,33.43048,2.820084,-29.87495,3.595612,0.4558724,0.4904894,0.02582514,1.201364,-0.0990485,-0.04291983,-0.09623028,-0.0007524919,0.3138694,12.13613,31.01
2,0.1087799,0.08592224,0.9903412,0.9949443,0.1087799,0.08592224,0.9903412,-28.7424,1.092194,-27.39777,3.514893,0.3780511,0.5194988,0.8221836,0.108429,0.03785706,0.9933777,33.42476,2.845871,-29.9071,3.522858,0.4557813,0.4905353,0.02611423,1.20101,-0.099051,-0.04103633,-0.09520562,-0.0006686067,0.3138694,12.13613,31.01
2,0.09796143,0.09284973,0.9908447,0.9897228,0.09796143,0.09284973,0.9908447,-28.75301,1.263565,-27.75786,3.485168,0.3800113,0.5158694,0.8206069,0.1012573,0.03321838,0.9942932,33.45381,3.337021,-31.53752,3.395157,0.4557999,0.4893348,0.02627313,1.200709,-0.09908676,-0.0398746,-0.09466567,-0.0005179005,0.3138694,12.13613,31.01
2,0.09796143,0.09284973,0.9908447,0.9897228,0.09796143,0.09284973,0.9908447,-28.75301,1.263565,-27.75786,3.485168,0.3800113,0.5158694,0.8206069,0.1012573,0.03321838,0.9942932,33.45381,3.337021,-31.53752,3.395157,0.4557999,0.4893348,0.02627313,1.200709,-0.09908676,-0.0398746,-0.09466567,-0.0005179005,0.3138694,12.13613,31.01
2,0.09796143,0.09284973,0.9908447,0.9897228,0.09796143,0.09284973,0.9908447,-28.75301,1.263565,-27.75786,3.485168,0.3800113,0.5158694,0.8206069,0.1012573,0.03321838,0.9942932,33.45381,3.337021,-31.53752,3.395157,0.4557999,0.4893348,0.02643716,1.20042,-0.09913206,-0.03834174,-0.09412816,-0.0001726335,0.3138694,12.13613,31.01
2,0.09796143,0.09284973,0.9908447,0.9897228,0.09796143,0.09284973,0.9908447,-28.75301,1.263565,-27.75786,3.485168,0.3800113,0.5158694,0.8206069,0.1012573,0.03321838,0.9942932,33.45381,3.337021,-31.53752,3.395157,0.4557999,0.4893348,0.02674615,1.19968,-0.09917599,-0.03534331,-0.09271134,0.001071163,0.3138694,12.13613,31.01
2,0.09796143,0.09284973,0.9908447,0.9897228,0.09796143,0.09284973,0.9908447,-28.75301,1.263565,-27.75786,3.485168,0.3800113,0.5158694,0.8206069,0.1012573,0.03321838,0.9942932,33.45381,3.337021,-31.53752,3.395157,0.4557999,0.4893348,0.02688241,1.199294,-0.0993039,-0.03355579,-0.09194075,0.001591602,0.3138694,12.28134,31.01
2,0.09796143,0.09284973,0.9908447,0.9897228,0.09796143,0.09284973,0.9908447,-28.75301,1.263565,-27.75786,3.485168,0.3800113,0.5158694,0.8206069,0.1012573,0.03321838,0.9942932,33.45381,3.337021,-31.53752,3.395157,0.4557999,0.4893348,0.02688241,1.199294,-0.0993039,-0.03355579,-0.09194075,0.001591602,0.3138694,12.28134,31.01
2,0.09927368,0.09152222,0.9908295,0.9897228,0.09927368,0.09153748,0.9908295,-28.76552,1.293213,-27.79877,3.548843,0.3801916,0.5155509,0.8206069,0.1076355,0.03019714,0.9937286,33.41461,3.093933,-30.49745,3.454407,0.4562179,0.4887849,0.02703273,1.198789,-0.09938812,-0.03127598,-0.09102738,0.002227574,0.3138694,12.28134,31.01
2,0.09927368,0.09152222,0.9908295,0.9897228,0.09927368,0.09153748,0.9908295,-28.76552,1.293213,-27.79877,3.548843,0.3801916,0.5155509,0.8206069,0.1076355,0.03019714,0.9937286,33.41461,3.093933,-30.49745,3.454407,0.4562179,0.4887849,0.02716982,1.198285,-0.09948504,-0.02870859,-0.09017502,0.003078496,0.3138694,12.28134,31.01
3,0.09927368,0.09152222,0.9908295,0.9897228,0.09927368,0.09153748,0.9908295,-28.76552,1.293213,-27.79877,3.548843,0.3801916,0.5155509,0.8206069,0.1076355,0.03019714,0.9937286,33.41461,3.093933,-30.49745,3.454407,0.4562179,0.4887849,0.02729249,1.197684,-0.09956414,-0.0256879,-0.0894179,0.003957413,0.3138694,12.28134,31.01
3,0.09927368,0.09152222,0.9908295,0.9897228,0.09927368,0.09153748,0.9908295,-28.76552,1.293213,-27.79877,3.548843,0.3801916,0.5155509,0.8206069,0.1076355,0.03019714,0.9937286,33.41461,3.093933,-30.49745,3.454407,0.4562179,0.4887849,0.02729249,1.197684,-0.09956414,-0.0256879,-0.0894179,0.003957413,0.3138694,12.28134,31.01
3,0.09927368,0.09152222,0.9908295,0.9897228,0.09927368,0.09153748,0.9908295,-28.76552,1.293213,-27.79877,3.548843,0.3801916,0.5155509,0.8206069,0.1076355,0.03019714,0.9937286,33.41461,3.093933,-30.49745,3.454407,0.4562179,0.4887849,0.02737939,1.196654,-0.09959364,-0.02059591,-0.08794224,0.005716489,0.3138694,12.28134,31.01
3,-0.02203369,-0.2163544,0.976059,0.9762324,-0.0219574,-0.2156219,0.9762268,-29.38249,-0.6028137,-27.74916,4.332901,0.420361,0.6320546,0.8239661,-0.04985046,-0.4419098,0.8956604,31.68904,0.8367767,-30.63643,3.499939,0.5433172,0.6571023,0.0274626,1.195781,-0.09961736,-0.01625416,-0.08716949,0.006779026,0.3138694,12.28134,31.01
3,-0.06645203,-0.2730408,0.9597015,0.2467219,-0.06625366,-0.266571,0.9615173,-29.62373,-0.8747559,-27.84006,3.935089,0.435728,0.6514671,0.566105,-0.07157898,-0.5135345,0.855072,31.73332,0.8313599,-30.69243,3.384033,0.5456194,0.6729228,0.02748215,1.194973,-0.09957886,-0.01250491,-0.0865519,0.007623289,0.3138694,12.28134,31.01
3,-0.06645203,-0.2730408,0.9597015,0.2467219,-0.06625366,-0.266571,0.9615173,-29.62373,-0.8747559,-27.84006,3.935089,0.435728,0.6514671,0.566105,-0.07157898,-0.5135345,0.855072,31.73332,0.8313599,-30.69243,3.384033,0.5456194,0.6729228,0.02748215,1.194973,-0.09957886,-0.01250491,-0.0865519,0.007623289,0.3138694,12.28134,31.01
3,-0.04154968,-0.469986,0.8816833,0.3048307,-0.04031372,-0.4682007,0.8826904,-29.81213,-0.5034637,-27.75253,3.466293,0.4375182,0.6762545,0.6059066,-0.06181335,-0.4989014,0.8644409,31.87544,1.072128,-30.5471,3.447433,0.5388246,0.6596033,0.02752137,1.194358,-0.09940141,-0.00925161,-0.08591999,0.008244945,0.3138694,12.28134,31.01
3,-0.04154968,-0.469986,0.8816833,0.3048307,-0.04031372,-0.4682007,0.8826904,-29.81213,-0.5034637,-27.75253,3.466293,0.4375182,0.6762545,0.6059066,-0.06181335,-0.4989014,0.8644409,31.87544,1.072128,-30.5471,3.447433,0.5388246,0.6596033,0.02752137,1.194358,-0.09940141,-0.00925161,-0.08591999,0.008244945,0.3138694,12.28134,31.01
3,-0.04745483,-0.4889679,0.8710022,0.4597061,-0.03115845,-0.459137,0.8878021,-29.91345,-0.477356,-27.77361,3.459137,0.4394521,0.6737717,0.6631328,-0.05514526,-0.5028687,0.8625946,31.89365,1.277588,-30.44974,3.491379,0.5370036,0.652065,0.0275861,1.193932,-0.0991993,-0.00637927,-0.08504903,0.008610069,0.3138694,12.28134,31.01
3,-0.04745483,-0.4889679,0.8710022,0.4597061,-0.03115845,-0.459137,0.8878021,-29.91345,-0.477356,-27.77361,3.459137,0.4394521,0.6737717,0.6631328,-0.05514526,-0.5028687,0.8625946,31.89365,1.277588,-30.44974,3.491379,0.5370036,0.652065,0.0275861,1.193932,-0.0991993,-0.00637927,-0.08504903,0.008610069,0.3138694,12.28134,31.01
3,-0.04318237,-0.4647675,0.8843689,0.5379757,-0.03575134,-0.4524384,0.8910675,-29.9474,-0.4265442,-27.74159,3.419403,0.4414121,0.6704317,0.6919311,-0.05555725,-0.4850464,0.8727112,31.89835,1.271515,-30.45641,3.558914,0.5368991,0.6486176,0.02764928,1.193681,-0.09898752,-0.005221985,-0.08472559,0.008375838,0.3138694,-19.01885,31.01
3,-0.04318237,-0.4647675,0.8843689,0.5379757,-0.03575134,-0.4524384,0.8910675,-29.9474,-0.4265442,-27.74159,3.419403,0.4414121,0.6704317,0.6919311,-0.05555725,-0.4850464,0.8727112,31.89835,1.271515,-30.45641,3.558914,0.5368991,0.6486176,0.02764928,1.193681,-0.09898752,-0.005221985,-0.08472559,0.008375838,0.3138694,-19.01885,31.01
3,-0.05163574,-0.468689,0.8818359,0.6046,-0.04634094,-0.474823,0.8788452,-29.94917,-0.3301849,-27.70297,3.334,0.443242,0.6712512,0.7081829,-0.05593872,-0.4637146,0.8842163,31.89651,1.263611,-30.47333,3.529816,0.5370338,0.6447081,0.02766144,1.193664,-0.09883118,-0.004994452,-0.08463479,0.007611552,0.3138694,-19.01885,31.01
3,-0.05163574,-0.468689,0.8818359,0.6046,-0.04634094,-0.474823,0.8788452,-29.94917,-0.3301849,-27.70297,3.334,0.443242,0.6712512,0.7081829,-0.05593872,-0.4637146,0.8842163,31.89651,1.263611,-30.47333,3.529816,0.5370338,0.6447081,0.02766144,1.193664,-0.09883118,-0.004994452,-0.08463479,0.007611552,0.3138694,-19.01885,31.01
3,-0.03945923,-0.4707642,0.8813629,0.6931068,-0.03027344,-0.4672852,0.8835754,-29.95787,-0.2982025,-27.70903,3.277008,0.4408815,0.66871,0.7242863,-0.04768372,-0.4738312,0.879303,31.9545,1.416061,-30.39024,3.645859,0.5335389,0.6404175,0.02777922,1.193676,-0.09871829,-0.005000415,-0.08464289,0.006663742,0.3138694,-19.01885,31.01
3,-0.03945923,-0.4707642,0.8813629,0.6931068,-0.03027344,-0.4672852,0.8835754,-29.95787,-0.2982025,-27.70903,3.277008,0.4408815,0.66871,0.7242863,-0.04768372,-0.4738312,0.879303,31.9545,1.416061,-30.39024,3.645859,0.5335389,0.6404175,0.02777922,1.193676,-0.09871829,-0.005000415,-0.08464289,0.006663742,0.3138694,-19.01885,31.01
3,-0.07402039,-0.4207916,0.9041138,0.7183386,-0.1131439,-0.3145905,0.9424438,-29.60966,-1.073547,-28.00342,3.299759,0.443084,0.6690465,0.7214964,-0.05200195,-0.4767761,0.8774719,31.95912,1.40657,-30.39761,3.579102,0.5341303,0.6414887,0.02785695,1.193605,-0.09861916,-0.004793495,-0.08412709,0.005639067,0.3138694,-19.01885,31.01
3,-0.07402039,-0.4207916,0.9041138,0.7183386,-0.1131439,-0.3145905,0.9424438,-29.60966,-1.073547,-28.00342,3.299759,0.443084,0.6690465,0.7214964,-0.05200195,-0.4767761,0.8774719,31.95912,1.40657,-30.39761,3.579102,0.5341303,0.6414887,0.02785695,1.193605,-0.09861916,-0.004793495,-0.08412709,0.005639067,0.3138694,-19.01885,31.01
3,-0.05194092,-0.4742126,0.8788605,0.7580574,-0.02885437,-0.4552307,0.8898926,-30.04173,-0.4337769,-27.75282,3.408203,0.4434505,0.6713355,0.7452254,-0.05863953,-0.4796448,0.8754883,31.9487,1.365173,-30.41483,3.67009,0.5356386,0.6436967,0.02802479,1.193594,-0.09850353,-0.004557655,-0.08339699,0.004830654,0.3138694,-19.01885,31.01
3,-0.05194092,-0.4742126,0.8788605,0.7580574,-0.02885437,-0.4552307,0.8898926,-30.04173,-0.4337769,-27.75282,3.408203,0.4434505,0.6713355,0.7452254,-0.05863953,-0.4796448,0.8754883,31.9487,1.365173,-30.41483,3.67009,0.5356386,0.6436967,0.02802479,1.193594,-0.09850353,-0.004557655,-0.08339699,0.004830654,0.3138694,-19.01885,31.01
3,-0.04429626,-0.4717865,0.8805847,0.8242564,-0.02130127,-0.4634094,0.8858795,-30.13991,-0.3796234,-27.6794,3.473373,0.4455298,0.670295,0.7801278,-0.05018616,-0.473877,0.8791504,31.94635,1.327438,-30.42207,3.669876,0.5342544,0.6438786,0.02823734,1.193603,-0.09841174,-0.004221586,-0.08236282,0.0043468,0.3138694,-19.01885,31.01
3,-0.04429626,-0.4717865,0.8805847,0.8242564,-0.02130127,-0.4634094,0.8858795,-30.13991,-0.3796234,-27.6794,3.473373,0.4455298,0.670295,0.7801278,-0.05018616,-0.473877,0.8791504,31.94635,1.327438,-30.42207,3.669876,0.5342544,0.6438786,0.02823734,1.193603,-0.09841174,-0.004221586,-0.08236282,0.0043468,0.3138694,-19.01885,31.01
3,-0.117218,-0.4561005,0.8821716,0.8399979,-0.170105,-0.3403168,0.9247894,-29.91551,-1.2211,-28.10545,3.420822,0.4629025,0.6805946,0.7794871,-0.09648132,-0.4980927,0.8617249,31.5493,1.199875,-30.54607,3.67984,0.5563729,0.6550766,0.02837205,1.193468,-0.09834731,-0.003840853,-0.08111864,0.00401164,0.3138694,-19.01885,31.01
3,-0.117218,-0.4561005,0.8821716,0.8399979,-0.170105,-0.3403168,0.9247894,-29.91551,-1.2211,-28.10545,3.420822,0.4629025,0.6805946,0.7794871,-0.09648132,-0.4980927,0.8617249,31.5493,1.199875,-30.54607,3.67984,0.5563729,0.6550766,0.02837205,1.193468,-0.09834731,-0.003840853,-0.08111864,0.00401164,0.3138694,-19.01885,31.01
3,-0.1398621,-0.4879303,0.8616028,0.8747519,-0.2171936,-0.3403168,0.9148712,-30.08342,-1.236557,-28.1468,3.550323,0.4765009,0.6821916,0.758494,-0.1366425,-0.4935608,0.8588867,31.39551,1.121048,-30.61008,3.809586,0.5688053,0.6579509,0.02860439,1.19335,-0.09834605,-0.003345261,-0.07961128,0.004296806,0.3138694,-19.01885,31.01
3,-0.1398621,-0.4879303,0.8616028,0.8747519,-0.2171936,-0.3403168,0.9148712,-30.08342,-1.236557,-28.1468,3.550323,0.4765009,0.6821916,0.758494,-0.1366425,-0.4935608,0.8588867,31.39551,1.121048,-30.61008,3.809586,0.5688053,0.6579509,0.02860439,1.19335,-0.09834605,-0.003345261,-0.07961128,0.004296806,0.3138694,-19.01885,31.01
3,-0.139801,-0.4881439,0.8614807,0.8973612,-0.2161407,-0.341217,0.9147797,-30.08406,-1.236649,-28.14735,3.572556,0.4763277,0.6823531,0.7808818,-0.1370544,-0.4930115,0.8591461,31.40526,1.117569,-30.61005,3.810791,0.56853,0.6579597,0.02882206,1.193265,-0.09828103,-0.002937307,-0.07815523,0.004611286,0.3138694,40.50283,31.01
3,-0.139801,-0.4881439,0.8614807,0.8973612,-0.2161407,-0.341217,0.9147797,-30.08406,-1.236649,-28.14735,3.572556,0.4763277,0.6823531,0.7808818,-0.1370544,-0.4930115,0.8591461,31.40526,1.117569,-30.61005,3.810791,0.56853,0.6579597,0.02882206,1.193265,-0.09828103,-0.002937307,-0.07815523,0.004611286,0.3138694,40.50283,31.01
3,-0.1766968,-0.4173126,0.8914032,0.9168124,-0.2169952,-0.3401642,0.914978,-30.08498,-1.237427,-28.14774,3.606277,0.4764851,0.6821916,0.7911961,-0.1330719,-0.4943085,0.859024,31.4221,1.129227,-30.60612,3.817368,0.5672361,0.6577199,0.0289309,1.193296,-0.09823072,-0.002929688,-0.07691514,0.00487976,0.3138694,40.50283,31.01
3,-0.1766968,-0.4173126,0.8914032,0.9168124,-0.2169952,-0.3401642,0.914978,-30.08498,-1.237427,-28.14774,3.606277,0.4764851,0.6821916,0.7911961,-0.1330719,-0.4943085,0.859024,31.4221,1.129227,-30.60612,3.817368,0.5672361,0.6577199,0.0289309,1.193296,-0.09823072,-0.002929688,-0.07691514,0.00487976,0.3138694,40.50283,31.01
3,-0.1817017,-0.4054108,0.895874,0.9276043,-0.2154999,-0.3397217,0.9154968,-30.08734,-1.235779,-28.1468,3.606018,0.4763131,0.6820215,0.8070713,-0.1309662,-0.4962006,0.8582611,31.43527,1.14003,-30.60141,3.82666,0.5663996,0.6576498,0.0290978,1.193426,-0.0981195,-0.003257242,-0.07589986,0.004824481,0.3138694,40.50283,31.01
3,-0.1817017,-0.4054108,0.895874,0.9276043,-0.2154999,-0.3397217,0.9154968,-30.08734,-1.235779,-28.1468,3.606018,0.4763131,0.6820215,0.8070713,-0.1309662,-0.4962006,0.8582611,31.43527,1.14003,-30.60141,3.82666,0.5663996,0.6576498,0.0290978,1.193426,-0.0981195,-0.003257242,-0.07589986,0.004824481,0.3138694,40.50283,31.01
3,-0.1627045,-0.4333954,0.8863831,0.9588452,-0.1906433,-0.3831787,0.9037781,-30.21181,-0.9895935,-28.14626,3.588394,0.476285,0.6816493,0.8046945,-0.1269989,-0.4939117,0.8601685,31.45363,1.146164,-30.59952,3.811264,0.5650607,0.6569012,0.02920067,1.193441,-0.09795153,-0.003533719,-0.07509062,0.004689788,0.3138694,40.50283,31.01
3,-0.1627045,-0.4333954,0.8863831,0.9588452,-0.1906433,-0.3831787,0.9037781,-30.21181,-0.9895935,-28.14626,3.588394,0.476285,0.6816493,0.8046945,-0.1269989,-0.4939117,0.8601685,31.45363,1.146164,-30.59952,3.811264,0.5650607,0.6569012,0.02920067,1.193441,-0.09795153,-0.003533719,-0.07509062,0.004689788,0.3138694,40.50283,31.01
3,-0.1562042,-0.4413605,0.8836212,0.9693782,-0.1888885,-0.3807678,0.9051666,-30.21181,-0.9895935,-28.13,3.601608,0.4759861,0.6809741,0.8143493,-0.1259308,-0.4941864,0.8601685,31.47049,1.151947,-30.59508,3.810242,0.564275,0.6566904,0.02937663,1.19339,-0.09784371,-0.003264097,-0.0744914,0.004681838,0.3138694,40.50283,31.01
3,-0.1562042,-0.4413605,0.8836212,0.9693782,-0.1888885,-0.3807678,0.9051666,-30.21181,-0.9895935,-28.13,3.601608,0.4759861,0.6809741,0.8143493,-0.1259308,-0.4941864,0.8601685,31.47049,1.151947,-30.59508,3.810242,0.564275,0.6566904,0.02937663,1.19339,-0.09784371,-0.003264097,-0.0744914,0.004681838,0.3138694,40.50283,31.01
3,-0.151825,-0.436203,0.8869324,0.9616169,-0.1834259,-0.3811646,0.9061127,-30.21181,-0.9895935,-28.12187,3.600983,0.4750631,0.680899,0.8163523,-0.1215363,-0.486145,0.8653717,31.49435,1.151947,-30.59059,3.80986,0.562655,0.6549271,0.02950513,1.193296,-0.09769577,-0.002677211,-0.07389369,0.004627415,0.3138694,40.50283,31.01
3,-0.151825,-0.436203,0.8869324,0.9616169,-0.1834259,-0.3811646,0.9061127,-30.21181,-0.9895935,-28.12187,3.600983,0.4750631,0.680899,0.8163523,-0.1215363,-0.486145,0.8653717,31.49435,1.151947,-30.59059,3.80986,0.562655,0.6549271,0.02950513,1.193296,-0.09769577,-0.002677211,-0.07389369,0.004627415,0.3138694,40.50283,31.01
3,-0.118042,-0.4830017,0.8676147,0.9797571,-0.1257324,-0.4799347,0.8682404,-30.48909,-0.5172119,-27.86916,3.600494,0.4746904,0.680899,0.8303747,-0.1162872,-0.4837036,0.8674622,31.51436,1.151947,-30.58546,3.828018,0.5610242,0.6543021,0.02958238,1.193248,-0.09748816,-0.002395192,-0.0734915,0.004436714,0.3138694,40.50283,31.01
3,-0.118042,-0.4830017,0.8676147,0.9797571,-0.1257324,-0.4799347,0.8682404,-30.48909,-0.5172119,-27.86916,3.600494,0.4746904,0.680899,0.8303747,-0.1162872,-0.4837036,0.8674622,31.51436,1.151947,-30.58546,3.828018,0.5610242,0.6543021,0.02958238,1.193248,-0.09748816,-0.002395192,-0.0734915,0.004436714,0.3138694,40.50283,31.01
3,-0.1182251,-0.4791718,0.8697205,1.0,-0.1216736,-0.4921875,0.8619385,-30.4854,-0.4544983,-27.84283,3.603806,0.4738774,0.6808978,1.0,-0.1180267,-0.4784241,0.8701477,31.53574,1.149719,-30.58058,3.830627,0.5605597,0.65325,0.02951396,1.193233,-0.09743011,-0.002299981,-0.07341786,0.004068807,0.3138694,16.99515,31.01
3,-0.1182251,-0.4791718,0.8697205,1.0,-0.1216736,-0.4921875,0.8619385,-30.4854,-0.4544983,-27.84283,3.603806,0.4738774,0.6808978,1.0,-0.1180267,-0.4784241,0.8701477,31.53574,1.149719,-30.58058,3.830627,0.5605597,0.65325,0.02951396,1.193233,-0.09743011,-0.002299981,-0.07341786,0.004068807,0.3138694,16.99515,31.01
3,-0.1193695,-0.4776611,0.8703766,0.9859115,-0.1165161,-0.4929657,0.8621979,-30.47585,-0.4533081,-27.83749,3.61702,0.4726882,0.6808978,0.827774,-0.1196442,-0.4761505,0.87117,31.563,1.149719,-30.58058,3.835648,0.5598722,0.6527814,0.0295471,1.193273,-0.09734261,-0.002474748,-0.0733472,0.003927175,0.3138694,16.99515,31.01
3,-0.1193695,-0.4776611,0.8703766,0.9859115,-0.1165161,-0.4929657,0.8621979,-30.47585,-0.4533081,-27.83749,3.61702,0.4726882,0.6808978,0.827774,-0.1196442,-0.4761505,0.87117,31.563,1.149719,-30.58058,3.835648,0.5598722,0.6527814,0.0295471,1.193273,-0.09734261,-0.002474748,-0.0733472,0.003927175,0.3138694,16.99515,31.01
3,-0.117981,-0.4819031,0.8682404,0.9878765,-0.1157684,-0.4932861,0.8621216,-30.47801,-0.4497223,-27.83401,3.617264,0.4726363,0.6807947,0.8212492,-0.119873,-0.4719391,0.8734283,31.58691,1.149719,-30.57492,3.842392,0.5590584,0.6518568,0.02968216,1.193295,-0.09721863,-0.00241995,-0.07327361,0.003799898,0.3138694,16.99515,31.01
3,-0.117981,-0.4819031,0.8682404,0.9878765,-0.1157684,-0.4932861,0.8621216,-30.47801,-0.4497223,-27.83401,3.617264,0.4726363,0.6807947,0.8212492,-0.119873,-0.4719391,0.8734283,31.58691,1.149719,-30.57492,3.842392,0.5590584,0.6518568,0.02968216,1.193295,-0.09721863,-0.00241995,-0.07327361,0.003799898,0.3138694,16.99515,31.01
3,-0.1182709,-0.4829559,0.8676147,0.9783548,-0.1127319,-0.4935608,0.8623657,-30.48323,-0.4497223,-27.82997,3.609772,0.4723074,0.6807947,0.8142037,-0.1237183,-0.4724274,0.8726349,31.61473,1.143158,-30.56892,3.849014,0.5587346,0.652155,0.02971971,1.193303,-0.09718227,-0.002254173,-0.07311564,0.003716635,0.3138694,16.99515,31.01
3,-0.1182709,-0.4829559,0.8676147,0.9783548,-0.1127319,-0.4935608,0.8623657,-30.48323,-0.4497223,-27.82997,3.609772,0.4723074,0.6807947,0.8142037,-0.1237183,-0.4724274,0.8726349,31.61473,1.143158,-30.56892,3.849014,0.5587346,0.652155,0.02971971,1.193303,-0.09718227,-0.002254173,-0.07311564,0.003716635,0.3138694,16.99515,31.01
3,-0.1174774,-0.483078,0.8676453,0.990868,-0.1128998,-0.4937134,0.8622589,-30.48253,-0.4513397,-27.82997,3.620697,0.4723074,0.6808643,0.8217544,-0.1221161,-0.4721985,0.8729858,31.61473,1.141037,-30.56892,3.848816,0.5584572,0.652155,0.02975583,1.19332,-0.09715533,-0.002267355,-0.07308587,0.003639661,0.3138694,16.99515,31.01
3,-0.1180878,-0.4834747,0.8673401,0.9800018,-0.1148682,-0.4937134,0.8619843,-30.48253,-0.449707,-27.82753,3.625626,0.4726363,0.6807947,0.832538,-0.1217346,-0.4717712,0.8732605,31.61473,1.138565,-30.56892,3.842804,0.5583918,0.652155,0.02975881,1.193337,-0.09712172,-0.002217517,-0.07289857,0.00358812,0.3138694,16.99515,31.01
3,-0.1180878,-0.4834747,0.8673401,0.9800018,-0.1148682,-0.4937134,0.8619843,-30.48253,-0.449707,-27.82753,3.625626,0.4726363,0.6807947,0.832538,-0.1217346,-0.4717712,0.8732605,31.61473,1.138565,-30.56892,3.842804,0.5583918,0.652155,0.02975881,1.193337,-0.09712172,-0.002217517,-0.07289857,0.00358812,0.3138694,16.99515,31.01
3,-0.1178589,-0.4836578,0.8672791,0.9718214,-0.1148682,-0.4940033,0.8618164,-30.48253,-0.447876,-27.82657,3.621567,0.4726363,0.6807947,0.8055825,-0.12117,-0.4720459,0.8731995,31.61473,1.135696,-30.56892,3.842651,0.5582933,0.6523138,0.02990758,1.193311,-0.09701264,-0.002230916,-0.07276414,0.003266379,0.3138694,16.99515,31.01
3,-0.1179962,-0.4824066,0.8679504,0.9773179,-0.115921,-0.4934998,0.861969,-30.48323,-0.4506989,-27.82657,3.610535,0.472839,0.6807947,0.8181719,-0.1207123,-0.4677124,0.8755951,31.61722,1.123672,-30.567,3.816895,0.5581273,0.6518432,0.02995193,1.193345,-0.09696031,-0.00239208,-0.07265676,0.003187882,0.3138694,16.99515,31.01
3,-0.1179962,-0.4824066,0.8679504,0.9773179,-0.115921,-0.4934998,0.861969,-30.48323,-0.4506989,-27.82657,3.610535,0.472839,0.6807947,0.8181719,-0.1207123,-0.4677124,0.8755951,31.61722,1.123672,-30.567,3.816895,0.5581273,0.6518432,0.02995193,1.193345,-0.09696031,-0.00239208,-0.07265676,0.003187882,0.3138694,16.99515,31.01
3,-0.1175385,-0.4832611,0.8675385,0.9719625,-0.1157379,-0.494751,0.8612823,-30.48413,-0.453186,-27.82753,3.610367,0.472839,0.6811449,0.8138151,-0.1199036,-0.4677582,0.8756714,31.61722,1.123672,-30.567,3.808411,0.5579876,0.6518432,0.03006148,1.193416,-0.09684587,-0.002640785,-0.07240097,0.0029901,0.3138694,16.99515,31.01
3,-0.1169434,-0.4820404,0.8683014,0.9630277,-0.1149445,-0.4926605,0.8625793,-30.48624,-0.463913,-27.83296,3.604309,0.4727802,0.6811449,0.8096985,-0.1192627,-0.4695435,0.8748016,31.61722,1.123672,-30.567,3.795807,0.5578822,0.6522086,0.03005922,1.193471,-0.09689397,-0.00279165,-0.07221416,0.00281292,0.3138694,16.99515,31.01
3,-0.1167755,-0.4821014,0.8682861,0.9618195,-0.1149292,-0.4913635,0.863327,-30.48624,-0.4703369,-27.83583,3.595413,0.4727802,0.6811449,0.80625,-0.1192474,-0.4694824,0.8748474,31.61722,1.123672,-30.567,3.77916,0.5578822,0.6522086,0.0301199,1.193507,-0.09686947,-0.002762136,-0.0719863,0.002441406,0.3138694,13.04885,31.01
3,-0.1167755,-0.4821014,0.8682861,0.9618195,-0.1149292,-0.4913635,0.863327,-30.48624,-0.4703369,-27.83583,3.595413,0.4727802,0.6811449,0.80625,-0.1192474,-0.4694824,0.8748474,31.61722,1.123672,-30.567,3.77916,0.5578822,0.6522086,0.0301199,1.193507,-0.09686947,-0.002762136,-0.0719863,0.002441406,0.3138694,6.899391,31.01
3,-0.1139374,-0.4765472,0.8717194,0.9616182,-0.110733,-0.4801483,0.870163,-30.49068,-0.5284119,-27.88896,3.589218,0.4722375,0.6814001,0.8104169,-0.1181946,-0.471756,0.873764,31.63535,1.131256,-30.54825,3.744095,0.5570592,0.6522086,0.03019738,1.19352,-0.09687632,-0.002620961,-0.07178222,0.002504673,0.3138694,-22.06346,31.01
3,-0.1145782,-0.4763031,0.8717651,0.9616182,-0.1104126,-0.480072,0.8702393,-30.49068,-0.5287018,-27.88905,3.585587,0.4721865,0.6814001,0.8104169,-0.1187897,-0.4724884,0.873291,31.63873,1.135757,-30.54794,3.73848,0.5570447,0.6522086,0.03019488,1.193471,-0.09688604,-0.002480762,-0.07160097,0.002319336,0.3138694,-22.06346,31.01
3,-0.1145782,-0.4763031,0.8717651,0.9616182,-0.1104126,-0.480072,0.8702393,-30.49068,-0.5287018,-27.88905,3.585587,0.4721865,0.6814001,0.8104169,-0.1187897,-0.4724884,0.873291,31.63873,1.135757,-30.54794,3.73848,0.5570447,0.6522086,0.03041327,1.19347,-0.09675467,-0.002135359,-0.0712805,0.002635136,0.3100261,-22.06346,31.01
3,-0.1145782,-0.4763031,0.8717651,0.9616182,-0.1104126,-0.480072,0.8702393,-30.49068,-0.5287018,-27.88905,3.585587,0.4721865,0.6814001,0.8104169,-0.1187897,-0.4724884,0.873291,31.63873,1.135757,-30.54794,3.73848,0.5570447,0.6522086,0.03041327,1.19347,-0.09675467,-0.002135359,-0.0712805,0.002635136,0.3100261,-22.06346,31.01
3,-0.1145782,-0.4763031,0.8717651,0.9616182,-0.1104126,-0.480072,0.8702393,-30.49068,-0.5287018,-27.88905,3.585587,0.4721865,0.6814001,0.8104169,-0.1187897,-0.4724884,0.873291,31.63873,1.135757,-30.54794,3.73848,0.5570447,0.6522086,0.03045428,1.193445,-0.09670699,-0.002020623,-0.07094648,0.002735029,0.3100261,-22.06346,31.01
3,-0.1145782,-0.4763031,0.8717651,0.9616182,-0.1104126,-0.480072,0.8702393,-30.49068,-0.5287018,-27.88905,3.585587,0.4721865,0.6814001,0.8104169,-0.1187897,-0.4724884,0.873291,31.63873,1.135757,-30.54794,3.73848,0.5570447,0.6522086,0.03050649,1.193432,-0.09674335,-0.002049909,-0.07045414,0.003014914,0.3100261,-22.06346,31.01
3,-0.113327,-0.4750214,0.8726349,0.9553776,-0.1077728,-0.4793396,0.8709717,-30.49068,-0.5331268,-27.88983,3.571136,0.4717474,0.6814001,0.7998264,-0.1183929,-0.4710388,0.874115,31.64038,1.137512,-30.5462,3.693268,0.5569256,0.6518432,0.03057218,1.193442,-0.09666121,-0.001968325,-0.07036419,0.002970099,0.3100261,-22.06346,31.01
3,-0.113327,-0.4750214,0.8726349,0.9553776,-0.1077728,-0.4793396,0.8709717,-30.49068,-0.5331268,-27.88983,3.571136,0.4717474,0.6814001,0.7998264,-0.1183929,-0.4710388,0.874115,31.64038,1.137512,-30.5462,3.693268,0.5569256,0.6518432,0.03057218,1.193442,-0.09666121,-0.001968325,-0.07036419,0.002970099,0.3100261,-22.06346,31.01
3,-0.1520844,-0.4650879,0.8720856,0.9277651,-0.1817627,-0.3904572,0.9024811,-30.47498,-0.7388916,-28.02661,3.503494,0.483787,0.6731871,0.7840685,-0.1477509,-0.4754639,0.8672333,31.47047,1.279022,-30.50279,3.66571,0.5680451,0.6476517,0.03057659,1.193491,-0.09667152,-0.00218707,-0.07028399,0.002807617,0.3100261,-22.06346,31.01
3,-0.1476746,-0.4709015,0.8697205,0.9524795,-0.1828156,-0.3990936,0.8984833,-30.46942,-0.7375031,-28.02774,3.447205,0.483787,0.6748451,0.7776003,-0.143692,-0.478714,0.8661194,31.47394,1.284912,-30.50053,3.665756,0.5672166,0.6480438,0.03060567,1.193524,-0.09667331,-0.002264067,-0.07028368,0.002868003,0.3100261,-22.06346,31.01
3,-0.1426849,-0.4763031,0.8676147,0.948401,-0.151123,-0.4525146,0.8788452,-30.63106,-0.4765625,-27.89473,3.452103,0.4838742,0.6746753,0.7832579,-0.1415863,-0.4793549,0.8661194,31.48228,1.286758,-30.49873,3.666107,0.5665534,0.6480685,0.03058398,1.193547,-0.09673923,-0.002299981,-0.07032977,0.002802305,0.3100261,-22.06346,31.01
3,-0.1426849,-0.4763031,0.8676147,0.948401,-0.151123,-0.4525146,0.8788452,-30.63106,-0.4765625,-27.89473,3.452103,0.4838742,0.6746753,0.7832579,-0.1415863,-0.4793549,0.8661194,31.48228,1.286758,-30.49873,3.666107,0.5665534,0.6480685,0.03058398,1.193547,-0.09673923,-0.002299981,-0.07032977,0.002802305,0.3100261,-22.06346,31.01
3,-0.1450043,-0.4763489,0.8672028,0.9603101,-0.1517639,-0.4529877,0.8784943,-30.63251,-0.4775085,-27.89413,3.446701,0.4840333,0.6748014,0.7920401,-0.1442108,-0.4790649,0.8658447,31.49321,1.284897,-30.49568,3.666199,0.5666213,0.6480685,0.03056681,1.193534,-0.09683222,-0.002214155,-0.07047539,0.002643605,0.3100261,-22.06346,31.01
3,-0.1457062,-0.4765167,0.8669891,0.9472876,-0.1515961,-0.4529572,0.87854,-30.63301,-0.47789,-27.8945,3.432724,0.484028,0.6748183,0.7883792,-0.1450348,-0.4791412,0.8656616,31.49615,1.283035,-30.49377,3.666061,0.5666592,0.6481385,0.03054726,1.193543,-0.09687543,-0.002166533,-0.07049464,0.002486762,0.3100261,-22.06346,31.01
3,-0.1467896,-0.4743347,0.8680115,0.9760142,-0.1511536,-0.4527435,0.8787231,-30.63521,-0.4791412,-27.89494,3.432602,0.484028,0.6748183,0.8066529,-0.1455688,-0.4802551,0.8649597,31.49889,1.282806,-30.49376,3.657379,0.5666592,0.6483809,0.03065789,1.193594,-0.09688044,-0.002379589,-0.07058979,0.002296739,0.3100261,-22.06346,31.01
3,-0.1468811,-0.4678955,0.8714752,0.9620416,-0.1491241,-0.4518433,0.8795319,-30.63615,-0.4833069,-27.897,3.430847,0.4837205,0.6747845,0.7903694,-0.1451111,-0.4802551,0.865036,31.49889,1.282806,-30.49376,3.6521,0.5665833,0.6483832,0.03069508,1.193667,-0.09690899,-0.002557657,-0.07065594,0.002260774,0.3100261,-36.38211,30.99
3,-0.1468811,-0.4678955,0.8714752,0.9620416,-0.1491241,-0.4518433,0.8795319,-30.63615,-0.4833069,-27.897,3.430847,0.4837205,0.6747845,0.7903694,-0.1451111,-0.4802551,0.865036,31.49889,1.282806,-30.49376,3.6521,0.5665833,0.6483832,0.03069508,1.193667,-0.09690899,-0.002557657,-0.07065594,0.002260774,0.3100261,-36.38211,30.99
3,-0.1476593,-0.4679718,0.8713074,0.9670237,-0.1491241,-0.4518433,0.8795319,-30.63615,-0.4833069,-27.897,3.430847,0.4837205,0.6747845,0.7750458,-0.1461487,-0.4837952,0.8628845,31.50386,1.28183,-30.49377,3.592316,0.56661,0.6491948,0.03059924,1.193682,-0.09695911,-0.002852374,-0.07062736,0.002322546,0.3100261,-36.38211,30.99
3,-0.147995,-0.4698334,0.8702393,0.9670237,-0.1490784,-0.4516449,0.8796387,-30.63615,-0.4833069,-27.897,3.413528,0.4837205,0.6747426,0.7750458,-0.1468353,-0.487793,0.8605042,31.50786,1.28183,-30.49377,3.575806,0.5666,0.650044,0.0306319,1.193664,-0.09696949,-0.003208847,-0.07080004,0.002200654,0.3100261,-36.38211,30.99
3,-0.1481781,-0.4724121,0.8688202,0.9538445,-0.1492462,-0.4514923,0.8796844,-30.63521,-0.483902,-27.8972,3.403793,0.4837205,0.6747426,0.777075,-0.1473541,-0.4875946,0.8605347,31.51085,1.278427,-30.49377,3.573807,0.5665833,0.65013,0.03064704,1.193789,-0.09696352,-0.003523162,-0.0708335,0.002046271,0.3100261,-36.38211,30.99
3,-0.1483917,-0.469574,0.8703156,0.9253262,-0.1498108,-0.451416,0.8796387,-30.63615,-0.483902,-27.8972,3.391724,0.4838514,0.6747426,0.7712076,-0.1470032,-0.486557,0.8611755,31.51085,1.272293,-30.49377,3.564499,0.5665233,0.65013,0.03061497,1.193846,-0.0969944,-0.003748572,-0.0709115,0.002009531,0.3100261,-36.38211,30.99
3,-0.1642456,-0.4194183,0.8927917,0.8967294,-0.1990204,-0.3239899,0.924881,-30.35274,-1.184204,-28.05414,3.270035,0.4827615,0.6761102,0.7658663,-0.1435547,-0.4717712,0.8699493,31.57123,1.257996,-30.49933,3.554184,0.5637815,0.6475941,0.03057086,1.194005,-0.09707749,-0.004081605,-0.07138035,0.001752039,0.3100261,-36.38211,30.99
3,-0.1483459,-0.4093628,0.9002228,0.8967294,-0.2221527,-0.3444519,0.9121246,-30.06169,-0.8568726,-28.04524,3.232559,0.4768449,0.6690409,0.7658663,-0.1112823,-0.4400024,0.8910675,31.61584,1.397491,-30.39592,3.536575,0.5565094,0.6348007,0.03039849,1.194118,-0.0971328,-0.004788829,-0.07194479,0.00162404,0.3100261,-36.38211,30.99
3,-0.1483459,-0.4093628,0.9002228,0.8967294,-0.2221527,-0.3444519,0.9121246,-30.06169,-0.8568726,-28.04524,3.232559,0.4768449,0.6690409,0.7658663,-0.1112823,-0.4400024,0.8910675,31.61584,1.397491,-30.39592,3.536575,0.5565094,0.6348007,0.03039849,1.194118,-0.0971328,-0.004788829,-0.07194479,0.00162404,0.3100261,-36.38211,30.99
3,-1.0,-1.0,-1.0,0.3830774,0.0,0.0,0.0,-29.95058,-0.5076447,-27.7672,-1.0,0.4570006,0.6264736,0.3714202,0.0,0.0,0.0,32.34413,0.8939972,-30.6279,-1.0,0.5773581,0.6275605,0.0302099,1.194342,-0.09713578,-0.005755457,-0.07270771,0.001539248,0.3100261,-36.38211,30.99
3,-1.0,-1.0,-1.0,0.3830774,0.0,0.0,0.0,-29.95058,-0.5076447,-27.7672,-1.0,0.4570006,0.6264736,0.3714202,0.0,0.0,0.0,32.34413,0.8939972,-30.6279,-1.0,0.5773581,0.6275605,0.0302099,1.194342,-0.09713578,-0.005755457,-0.07270771,0.001539248,0.3100261,-36.38211,30.99
3,-1.0,-1.0,-1.0,0.1079019,0.0,0.0,0.0,-29.95058,-0.5076447,-27.7672,-1.0,0.3103112,0.6245093,0.01030269,0.0,0.0,0.0,32.68396,1.598831,-30.20305,-1.0,0.5436664,0.6059101,0.03000295,1.194698,-0.09715396,-0.007297722,-0.07393673,0.001220703,0.3100261,-36.38211,30.99
3,-1.0,-1.0,-1.0,0.1079019,0.0,0.0,0.0,-29.95058,-0.5076447,-27.7672,-1.0,0.3103112,0.6245093,0.01030269,0.0,0.0,0.0,32.68396,1.598831,-30.20305,-1.0,0.5436664,0.6059101,0.03000295,1.194698,-0.09715396,-0.007297722,-0.07393673,0.001220703,0.3100261,-36.38211,30.99
3,-1.0,-1.0,-1.0,0.0,0.0,0.0,0.0,-28.90567,-0.2281647,-27.67416,-1.0,0.279654,0.6074633,0.0,0.0,0.0,0.0,36.48058,1.714142,-32.45328,-1.0,0.2237982,0.6523212,0.02964985,1.195129,-0.09721959,-0.009346952,-0.07574667,0.0005033088,0.3100261,-36.38211,30.99
3,-1.0,-1.0,-1.0,0.0,0.0,0.0,0.0,-28.90567,-0.2281647,-27.67416,-1.0,0.279654,0.6074633,0.0,0.0,0.0,0.0,36.48058,1.714142,-32.45328,-1.0,0.2237982,0.6523212,0.02964985,1.195129,-0.09721959,-0.009346952,-0.07574667,0.0005033088,0.3100261,-36.38211,30.99
3,-1.0,-1.0,-1.0,0.1866767,0.0,0.0,0.0,-28.90567,-0.2281647,-27.67416,-1.0,0.3742621,0.5811654,0.07300371,0.0,0.0,0.0,31.67789,2.036148,-30.10266,-1.0,0.5548074,0.5852829,0.02922523,1.195626,-0.09734511,-0.0118992,-0.07864152,-0.000422864,0.3100261,-62.08238,30.99
3,-1.0,-1.0,-1.0,0.1866767,0.0,0.0,0.0,-28.90567,-0.2281647,-27.67416,-1.0,0.3742621,0.5811654,0.07300371,0.0,0.0,0.0,31.67789,2.036148,-30.10266,-1.0,0.5548074,0.5852829,0.02922523,1.195626,-0.09734511,-0.0118992,-0.07864152,-0.000422864,0.3100261,-62.08238,30.99
4,-1.0,-1.0,-1.0,0.4374588,0.0,0.0,0.0,-29.2915,1.950226,-28.74696,-1.0,0.4101174,0.5256482,0.2278481,0.0,0.0,0.0,32.98373,3.239288,-29.66118,-1.0,0.4907458,0.5286037,0.02876186,1.196239,-0.09737349,-0.01439343,-0.08224034,-0.001687045,0.3100261,-62.08238,30.99
4,-1.0,-1.0,-1.0,0.4374588,0.0,0.0,0.0,-29.2915,1.950226,-28.74696,-1.0,0.4101174,0.5256482,0.2278481,0.0,0.0,0.0,32.98373,3.239288,-29.66118,-1.0,0.4907458,0.5286037,0.02876186,1.196239,-0.09737349,-0.01439343,-0.08224034,-0.001687045,0.3100261,-62.08238,30.99
4,-1.0,-1.0,-1.0,0.6117508,0.0,0.0,0.0,-29.21059,1.803391,-28.73166,-1.0,0.406139,0.5283929,0.4346938,0.0,0.0,0.0,32.85043,3.152496,-29.96092,-1.0,0.4863483,0.493717,0.02809823,1.19665,-0.09750175,-0.01631272,-0.08604199,-0.0029901,0.3100261,-62.08238,30.99
4,-1.0,-1.0,-1.0,0.6117508,0.0,0.0,0.0,-29.21059,1.803391,-28.73166,-1.0,0.406139,0.5283929,0.4346938,0.0,0.0,0.0,32.85043,3.152496,-29.96092,-1.0,0.4863483,0.493717,0.02809823,1.19665,-0.09750175,-0.01631272,-0.08604199,-0.0029901,0.3100261,-62.08238,30.99
4,0.04014587,-0.04797363,0.9980316,0.7836162,0.02287292,-0.05200195,0.9983826,-29.32175,1.582413,-28.18135,3.338608,0.4115557,0.5337415,0.6053274,0.04023743,-0.04794312,0.9980316,32.83069,2.898041,-29.55168,3.51889,0.4881919,0.5005059,0.02746451,1.197047,-0.09778869,-0.01809607,-0.09004918,-0.004146799,0.3100261,-62.08238,30.99
4,0.04014587,-0.04797363,0.9980316,0.7836162,0.02287292,-0.05200195,0.9983826,-29.32175,1.582413,-28.18135,3.338608,0.4115557,0.5337415,0.6053274,0.04023743,-0.04794312,0.9980316,32.83069,2.898041,-29.55168,3.51889,0.4881919,0.5005059,0.02746451,1.197047,-0.09778869,-0.01809607,-0.09004918,-0.004146799,0.3100261,-62.08238,30.99
4,0.01797485,-0.04008484,0.9990234,0.9944828,0.01657104,-0.03953552,0.9990692,-29.4279,1.417435,-28.03043,3.453094,0.4162307,0.5358025,0.76427,0.04725647,-0.05174255,0.9975281,32.7402,2.565262,-28.7419,3.498596,0.4899551,0.505045,0.02669203,1.197324,-0.09800601,-0.02013235,-0.09470485,-0.00508317,0.3100261,-62.08238,30.99
4,0.01797485,-0.04008484,0.9990234,0.9944828,0.01657104,-0.03953552,0.9990692,-29.4279,1.417435,-28.03043,3.453094,0.4162307,0.5358025,0.76427,0.04725647,-0.05174255,0.9975281,32.7402,2.565262,-28.7419,3.498596,0.4899551,0.505045,0.02669203,1.197324,-0.09800601,-0.02013235,-0.09470485,-0.00508317,0.3100261,-62.08238,30.99
4,0.01287842,-0.0582428,0.9982147,1.0,0.01164246,-0.05796814,0.9982452,-29.49451,1.27478,-27.77698,3.377029,0.419355,0.5413213,1.0,0.03489685,-0.06318665,0.9973755,32.73145,2.426529,-28.55888,3.567322,0.4923266,0.5100984,0.02602017,1.197513,-0.09818453,-0.02177715,-0.09948409,-0.005990158,0.3100261,-62.08238,30.99
4,0.01287842,-0.0582428,0.9982147,1.0,0.01164246,-0.05796814,0.9982452,-29.49451,1.27478,-27.77698,3.377029,0.419355,0.5413213,1.0,0.03489685,-0.06318665,0.9973755,32.73145,2.426529,-28.55888,3.567322,0.4923266,0.5100984,0.02602017,1.197513,-0.09818453,-0.02177715,-0.09948409,-0.005990158,0.3100261,-62.08238,30.99
4,0.00718689,-0.05029297,0.998703,1.0,0.006942749,-0.05006409,0.9987183,-29.56644,1.134552,-27.68431,3.351837,0.4225755,0.5437856,1.0,0.0246582,-0.06660461,0.997467,32.69812,2.379745,-28.64236,3.56604,0.4952187,0.5130718,0.02540421,1.197854,-0.09825039,-0.02281442,-0.1033331,-0.006438558,0.3100261,-62.08238,30.99
4,0.00718689,-0.05029297,0.998703,1.0,0.006942749,-0.05006409,0.9987183,-29.56644,1.134552,-27.68431,3.351837,0.4225755,0.5437856,1.0,0.0246582,-0.06660461,0.997467,32.69812,2.379745,-28.64236,3.56604,0.4952187,0.5130718,0.02540421,1.197854,-0.09825039,-0.02281442,-0.1033331,-0.006438558,0.3100261,-62.08238,30.99
4,0.0153656,-0.06817627,0.9975433,1.0,0.01196289,-0.06434631,0.9978485,-29.69402,1.079086,-27.65833,3.284393,0.4259841,0.5478187,1.0,0.01934814,-0.07264709,0.9971619,32.58441,2.231277,-28.35222,3.606125,0.499953,0.5165184,0.0247606,1.198109,-0.0984813,-0.02378586,-0.1071113,-0.006509908,0.3100261,-62.08238,30.99
4,0.0153656,-0.06817627,0.9975433,1.0,0.01196289,-0.06434631,0.9978485,-29.69402,1.079086,-27.65833,3.284393,0.4259841,0.5478187,1.0,0.01934814,-0.07264709,0.9971619,32.58441,2.231277,-28.35222,3.606125,0.499953,0.5165184,0.0247606,1.198109,-0.0984813,-0.02378586,-0.1071113,-0.006509908,0.3100261,-62.08238,30.99
4,0.01263428,-0.07658386,0.9969788,1.0,0.0008850098,-0.0682373,0.9976654,-29.80449,0.9919891,-27.38647,3.451294,0.4316082,0.5489603,1.0,0.01307678,-0.07688904,0.9969482,32.48268,2.140335,-28.15489,3.613861,0.5044479,0.5185419,0.0240978,1.198299,-0.09873348,-0.02496271,-0.1109913,-0.006312346,0.3100261,-36.90051,30.99
4,0.01263428,-0.07658386,0.9969788,1.0,0.0008850098,-0.0682373,0.9976654,-29.80449,0.9919891,-27.38647,3.451294,0.4316082,0.5489603,1.0,0.01307678,-0.07688904,0.9969482,32.48268,2.140335,-28.15489,3.613861,0.5044479,0.5185419,0.0240978,1.198299,-0.09873348,-0.02496271,-0.1109913,-0.006312346,0.3100261,-36.90051,30.99
4,0.006240845,-0.07997131,0.9967651,1.0,-0.005630493,-0.07659912,0.9970398,-29.83633,0.9998932,-27.44376,3.428055,0.4337405,0.5506853,1.0,0.008605957,-0.08065796,0.9967041,32.46022,2.125763,-28.13437,3.586395,0.5059659,0.5194906,0.0234772,1.198511,-0.09900248,-0.02595423,-0.1148638,-0.006314706,0.3100261,-36.90051,30.99
4,0.006240845,-0.07997131,0.9967651,1.0,-0.005630493,-0.07659912,0.9970398,-29.83633,0.9998932,-27.44376,3.428055,0.4337405,0.5506853,1.0,0.008605957,-0.08065796,0.9967041,32.46022,2.125763,-28.13437,3.586395,0.5059659,0.5194906,0.0234772,1.198511,-0.09900248,-0.02595423,-0.1148638,-0.006314706,0.3100261,-36.90051,30.99
4,-0.003707886,-0.08253479,0.9965668,1.0,-0.01025391,-0.08148193,0.9966125,-29.90735,0.9753723,-27.39804,3.453934,0.4368871,0.5519459,1.0,-0.0008239746,-0.08299255,0.9965363,32.38336,2.177979,-28.38988,3.506958,0.5102773,0.5204957,0.02287471,1.198637,-0.09922719,-0.02650332,-0.1178788,-0.006327671,0.3100261,-36.90051,30.99
4,-0.003707886,-0.08253479,0.9965668,1.0,-0.01025391,-0.08148193,0.9966125,-29.90735,0.9753723,-27.39804,3.453934,0.4368871,0.5519459,1.0,-0.0008239746,-0.08299255,0.9965363,32.38336,2.177979,-28.38988,3.506958,0.5102773,0.5204957,0.02287471,1.198637,-0.09922719,-0.02650332,-0.1178788,-0.006327671,0.3100261,-36.90051,30.99
4,-0.01741028,-0.0887146,0.9958954,1.0,-0.02134705,-0.09069824,0.995636,-29.99829,0.9922638,-27.52859,3.425797,0.4417396,0.5542306,1.0,-0.01026917,-0.08514404,0.9963074,32.28505,2.070816,-28.18286,3.622147,0.5151829,0.5226648,0.02246964,1.198711,-0.09945142,-0.02678574,-0.119952,-0.006021174,0.3100261,-36.90051,30.99
4,-0.01741028,-0.0887146,0.9958954,1.0,-0.02134705,-0.09069824,0.995636,-29.99829,0.9922638,-27.52859,3.425797,0.4417396,0.5542306,1.0,-0.01026917,-0.08514404,0.9963074,32.28505,2.070816,-28.18286,3.622147,0.5151829,0.5226648,0.02246964,1.198711,-0.09945142,-0.02678574,-0.119952,-0.006021174,0.3100261,-36.90051,30.99
4,-0.02389526,-0.08888245,0.9957428,1.0,-0.02787781,-0.08692932,0.9958191,-30.06116,0.9673309,-27.54677,3.436554,0.4449319,0.554626,1.0,-0.01702881,-0.09222412,0.9955902,32.22153,2.145966,-28.42894,3.571426,0.5185955,0.5236752,0.02226198,1.198799,-0.09958196,-0.02685131,-0.1213698,-0.005308304,0.3100261,-36.90051,30.99
4,-0.02389526,-0.08888245,0.9957428,1.0,-0.02787781,-0.08692932,0.9958191,-30.06116,0.9673309,-27.54677,3.436554,0.4449319,0.554626,1.0,-0.01702881,-0.09222412,0.9955902,32.22153,2.145966,-28.42894,3.571426,0.5185955,0.5236752,0.02226198,1.198799,-0.09958196,-0.02685131,-0.1213698,-0.005308304,0.3100261,-36.90051,30.99
4,-0.02580261,-0.09295654,0.9953308,1.0,-0.03068542,-0.0955658,0.9949493,-30.12698,0.9272919,-27.43118,3.435165,0.4476081,0.5563673,1.0,-0.01759338,-0.08857727,0.9959106,32.15677,2.042725,-28.08693,3.592911,0.5207856,0.5233622,0.02196872,1.198826,-0.09969175,-0.02702583,-0.1222635,-0.004721455,0.3100261,-36.90051,30.99
4,-0.02580261,-0.09295654,0.9953308,1.0,-0.03068542,-0.0955658,0.9949493,-30.12698,0.9272919,-27.43118,3.435165,0.4476081,0.5563673,1.0,-0.01759338,-0.08857727,0.9959106,32.15677,2.042725,-28.08693,3.592911,0.5207856,0.5233622,0.02196872,1.198826,-0.09969175,-0.02702583,-0.1222635,-0.004721455,0.3100261,-36.90051,30.99
4,-0.03161621,-0.09335327,0.9951172,1.0,-0.03398132,-0.09301758,0.9950714,-30.14342,0.9542084,-27.5099,3.435059,0.4487021,0.5557846,1.0,-0.02574158,-0.09417725,0.9952087,32.12143,2.081573,-28.19765,3.537003,0.5234274,0.5240476,0.0217768,1.198784,-0.09977102,-0.02693829,-0.1228273,-0.004162938,0.3100261,-36.90051,30.99
4,-0.03161621,-0.09335327,0.9951172,1.0,-0.03398132,-0.09301758,0.9950714,-30.14342,0.9542084,-27.5099,3.435059,0.4487021,0.5557846,1.0,-0.02574158,-0.09417725,0.9952087,32.12143,2.081573,-28.19765,3.537003,0.5234274,0.5240476,0.0217768,1.198784,-0.09977102,-0.02693829,-0.1228273,-0.004162938,0.3100261,-36.90051,30.99
4,-0.03430176,-0.0900116,0.9953461,1.0,-0.0369873,-0.08956909,0.995285,-30.14957,0.9655914,-27.53967,3.428543,0.4494114,0.555097,1.0,-0.0188446,-0.09257507,0.9955139,32.10434,2.144089,-28.39565,3.568878,0.5229169,0.5235136,0.0216583,1.198661,-0.0998677,-0.02654629,-0.1224936,-0.003444027,0.3100261,-36.90051,30.99
4,-0.03430176,-0.0900116,0.9953461,1.0,-0.0369873,-0.08956909,0.995285,-30.14957,0.9655914,-27.53967,3.428543,0.4494114,0.555097,1.0,-0.0188446,-0.09257507,0.9955139,32.10434,2.144089,-28.39565,3.568878,0.5229169,0.5235136,0.0216583,1.198661,-0.0998677,-0.02654629,-0.1224936,-0.003444027,0.3100261,-36.90051,30.99
4,-0.03822327,-0.0905304,0.9951477,1.0,-0.03860474,-0.0904541,0.9951477,-30.15988,0.9852295,-27.60345,3.420944,0.4500163,0.5552019,1.0,-0.01893616,-0.09382629,0.9954071,32.08626,2.217133,-28.64275,3.537384,0.5236513,0.5235587,0.02147043,1.198407,-0.100018,-0.02602045,-0.1216354,-0.002540119,0.3100261,22.08594,30.99
4,-0.03822327,-0.0905304,0.9951477,1.0,-0.03860474,-0.0904541,0.9951477,-30.15988,0.9852295,-27.60345,3.420944,0.4500163,0.5552019,1.0,-0.01893616,-0.09382629,0.9954071,32.08626,2.217133,-28.64275,3.537384,0.5236513,0.5235587,0.02147043,1.198407,-0.100018,-0.02602045,-0.1216354,-0.002540119,0.3100261,22.08594,30.99
4,-0.04255676,-0.0930481,0.994751,1.0,-0.04284668,-0.09301758,0.9947357,-30.17517,0.9766998,-27.56717,3.427338,0.4512411,0.5556038,1.0,-0.0196228,-0.09466553,0.9953003,32.07077,2.24733,-28.7317,3.552505,0.5243375,0.5235309,0.0214541,1.198308,-0.1000744,-0.02574932,-0.1204498,-0.001926237,0.3100261,22.08594,30.99
4,-0.04255676,-0.0930481,0.994751,1.0,-0.04284668,-0.09301758,0.9947357,-30.17517,0.9766998,-27.56717,3.427338,0.4512411,0.5556038,1.0,-0.0196228,-0.09466553,0.9953003,32.07077,2.24733,-28.7317,3.552505,0.5243375,0.5235309,0.0214541,1.198308,-0.1000744,-0.02574932,-0.1204498,-0.001926237,0.3100261,22.08594,30.99
4,-0.04316711,-0.0922699,0.9947968,1.0,-0.04464722,-0.09207153,0.9947357,-30.18729,0.9715118,-27.53967,3.41832,0.4519552,0.5553513,1.0,-0.02082825,-0.09532166,0.995224,32.06331,2.255066,-28.74617,3.555786,0.5248084,0.5235309,0.02141273,1.198236,-0.1001557,-0.02567513,-0.1193138,-0.001660336,0.3100261,22.08594,30.99
4,-0.04316711,-0.0922699,0.9947968,1.0,-0.04464722,-0.09207153,0.9947357,-30.18729,0.9715118,-27.53967,3.41832,0.4519552,0.5553513,1.0,-0.02082825,-0.09532166,0.995224,32.06331,2.255066,-28.74617,3.555786,0.5248084,0.5235309,0.02141273,1.198236,-0.1001557,-0.02567513,-0.1193138,-0.001660336,0.3100261,22.08594,30.99
4,-0.03713989,-0.09277344,0.9949799,1.0,-0.04679871,-0.09124756,0.9947205,-30.19417,0.9779358,-27.53493,3.409836,0.4525493,0.5549529,1.0,-0.0224762,-0.09507751,0.9952087,32.06067,2.258362,-28.75232,3.582062,0.5251826,0.5234427,0.02146482,1.198265,-0.100157,-0.02574989,-0.1189087,-0.001642288,0.3100261,22.08594,30.99
4,-0.03713989,-0.09277344,0.9949799,1.0,-0.04679871,-0.09124756,0.9947205,-30.19417,0.9779358,-27.53493,3.409836,0.4525493,0.5549529,1.0,-0.0224762,-0.09507751,0.9952087,32.06067,2.258362,-28.75232,3.582062,0.5251826,0.5234427,0.02146482,1.198265,-0.100157,-0.02574989,-0.1189087,-0.001642288,0.3100261,22.08594,30.99
4,-0.03274536,-0.09486389,0.9949493,1.0,-0.04676819,-0.09263611,0.9945984,-30.19417,0.9779358,-27.49683,3.415405,0.4525493,0.5548376,1.0,-0.01982117,-0.09689331,0.9950867,32.06596,2.270523,-28.75232,3.582962,0.5245475,0.5233494,0.02143013,1.198269,-0.1002247,-0.02557483,-0.1183484,-0.001628621,0.3100261,22.08594,30.99
4,-0.03218079,-0.09593201,0.9948578,1.0,-0.04673767,-0.09341431,0.9945221,-30.19417,0.9763489,-27.46217,3.416214,0.4525493,0.5547032,1.0,-0.01980591,-0.09803772,0.9949799,32.06596,2.288651,-28.75232,3.584305,0.5245475,0.5229308,0.02146304,1.198259,-0.1002432,-0.02551912,-0.1180559,-0.001577496,0.3100261,22.08594,30.99
4,-0.03218079,-0.09593201,0.9948578,1.0,-0.04673767,-0.09341431,0.9945221,-30.19417,0.9763489,-27.46217,3.416214,0.4525493,0.5547032,1.0,-0.01980591,-0.09803772,0.9949799,32.06596,2.288651,-28.75232,3.584305,0.5245475,0.5229308,0.02148104,1.198249,-0.1002775,-0.02529125,-0.1176202,-0.001610218,0.3100261,22.08594,30.99
4,-0.03218079,-0.09593201,0.9948578,1.0,-0.04673767,-0.09341431,0.9945221,-30.19417,0.9763489,-27.46217,3.416214,0.4525493,0.5547032,1.0,-0.01980591,-0.09803772,0.9949799,32.06596,2.288651,-28.75232,3.584305,0.5245475,0.5229308,0.02148104,1.198249,-0.1002775,-0.02529125,-0.1176202,-0.001610218,0.3100261,22.08594,30.99
4,-0.03218079,-0.09593201,0.9948578,1.0,-0.04673767,-0.09341431,0.9945221,-30.19417,0.9763489,-27.46217,3.416214,0.4525493,0.5547032,1.0,-0.01980591,-0.09803772,0.9949799,32.06596,2.288651,-28.75232,3.584305,0.5245475,0.5229308,0.0215081,1.198143,-0.1003063,-0.02503394,-0.1164499,-0.001439188,0.3100261,22.08594,30.99
4,-0.03218079,-0.09593201,0.9948578,1.0,-0.04673767,-0.09341431,0.9945221,-30.19417,0.9763489,-27.46217,3.416214,0.4525493,0.5547032,1.0,-0.01980591,-0.09803772,0.9949799,32.06596,2.288651,-28.75232,3.584305,0.5245475,0.5229308,0.02155757,1.198102,-0.1003042,-0.02499015,-0.1158337,-0.001158061,0.3100261,22.08594,30.99
4,-0.03218079,-0.09593201,0.9948578,1.0,-0.04673767,-0.09341431,0.9945221,-30.19417,0.9763489,-27.46217,3.416214,0.4525493,0.5547032,1.0,-0.01980591,-0.09803772,0.9949799,32.06596,2.288651,-28.75232,3.584305,0.5245475,0.5229308,0.02155757,1.198102,-0.1003042,-0.02499015,-0.1158337,-0.001158061,0.3100261,22.08594,30.99
4,-0.0275116,-0.09254456,0.9953156,1.0,-0.04663086,-0.09133911,0.9947205,-30.19417,0.9711304,-27.35522,3.439117,0.4525493,0.5535216,1.0,-0.01979065,-0.09303284,0.9954529,32.06596,2.288651,-28.75232,3.602112,0.5245475,0.522059,0.02162719,1.198081,-0.1002511,-0.02473995,-0.1151498,-0.0009991885,0.3100261,22.08594,30.99
4,-0.07565308,-0.1137543,0.9906158,1.0,-0.08294678,-0.1141815,0.989975,-30.36816,0.895401,-27.51794,3.347168,0.4643912,0.5616615,1.0,-0.05639648,-0.1126099,0.9920349,31.76259,2.089066,-28.70886,3.624344,0.5411886,0.532081,0.02188838,1.198065,-0.100144,-0.02442962,-0.1136081,-0.0004727763,0.3100261,24.74544,30.99
4,-0.1131287,-0.130188,0.9850006,1.0,-0.1199493,-0.127533,0.9845428,-30.66058,0.8097687,-27.55588,3.246872,0.4803915,0.5674326,1.0,-0.09877014,-0.1357269,0.9858093,31.41716,1.937363,-28.78067,3.515259,0.5603837,0.5422766,0.02199864,1.198028,-0.1001128,-0.02423887,-0.112775,-0.00029901,0.3100261,24.74544,30.99
4,-0.1131287,-0.130188,0.9850006,1.0,-0.1199493,-0.127533,0.9845428,-30.66058,0.8097687,-27.55588,3.246872,0.4803915,0.5674326,1.0,-0.09877014,-0.1357269,0.9858093,31.41716,1.937363,-28.78067,3.515259,0.5603837,0.5422766,0.02199864,1.198028,-0.1001128,-0.02423887,-0.112775,-0.00029901,0.3100261,24.74544,30.99
4,-0.1189117,-0.1317749,0.9841156,1.0,-0.1183777,-0.1286163,0.9845886,-30.73135,0.8039551,-27.57393,3.147034,0.4825273,0.5679433,1.0,-0.1199799,-0.1381531,0.9831085,31.40515,1.944504,-28.78497,3.48201,0.5644677,0.5426276,0.02209795,1.198017,-0.1000584,-0.02409861,-0.1118891,-0.0001220703,0.3100261,24.74544,30.99
4,-0.1220245,-0.1319733,0.9837036,1.0,-0.1268005,-0.1263123,0.9838409,-30.72411,0.8110046,-27.57661,3.275253,0.4836642,0.56744,1.0,-0.1121216,-0.1436615,0.9832458,31.41792,1.955719,-28.77795,3.508652,0.5626572,0.543125,0.02222574,1.198012,-0.1000228,-0.02403267,-0.1110189,0.0,0.3100261,24.74544,30.99
4,-0.118454,-0.1319122,0.9841461,1.0,-0.1217651,-0.1301575,0.9839783,-30.69894,0.8296204,-27.56886,3.208191,0.481993,0.5673502,1.0,-0.1069031,-0.138031,0.9846344,31.44064,1.998764,-28.76393,3.459381,0.5609832,0.5404545,0.02239323,1.198078,-0.0999341,-0.02444395,-0.1098206,0.0003860203,0.3100261,24.74544,30.99
4,-0.118454,-0.1319122,0.9841461,1.0,-0.1217651,-0.1301575,0.9839783,-30.69894,0.8296204,-27.56886,3.208191,0.481993,0.5673502,1.0,-0.1069031,-0.138031,0.9846344,31.44064,1.998764,-28.76393,3.459381,0.5609832,0.5404545,0.02239323,1.198078,-0.0999341,-0.02444395,-0.1098206,0.0003860203,0.3100261,24.74544,30.99
4,-0.110199,-0.14151,0.9837799,1.0,-0.118927,-0.1351471,0.9836578,-30.6722,0.8477631,-27.55695,3.129837,0.480641,0.5674554,1.0,-0.1005859,-0.1484833,0.9837799,31.49823,2.008514,-28.72694,3.400558,0.5578923,0.5415704,0.02256882,1.198186,-0.09988576,-0.02485563,-0.1089471,0.0003860202,0.3100261,24.74544,30.99
4,-0.110199,-0.14151,0.9837799,1.0,-0.118927,-0.1351471,0.9836578,-30.6722,0.8477631,-27.55695,3.129837,0.480641,0.5674554,1.0,-0.1005859,-0.1484833,0.9837799,31.49823,2.008514,-28.72694,3.400558,0.5578923,0.5415704,0.02256882,1.198186,-0.09988576,-0.02485563,-0.1089471,0.0003860202,0.3100261,24.74544,30.99
4,-0.1109924,-0.1395111,0.9839783,1.0,-0.1193237,-0.1324615,0.983963,-30.66887,0.8448944,-27.55101,3.182571,0.4805828,0.5670459,1.0,-0.1010895,-0.1478424,0.9838257,31.51503,2.006805,-28.72145,3.405243,0.5573948,0.5414671,0.02282453,1.198322,-0.09975237,-0.02516159,-0.1081505,0.000211432,0.3100261,24.74544,30.99
4,-0.1113281,-0.1406097,0.9837799,1.0,-0.1195374,-0.134613,0.9836578,-30.66734,0.8438416,-27.55038,3.180618,0.4805632,0.5674554,1.0,-0.1019592,-0.1474304,0.9837952,31.52487,2.004562,-28.72105,3.429092,0.5572009,0.5414671,0.02290916,1.198344,-0.09971499,-0.02514945,-0.1078678,0.0001726335,0.3100261,24.74544,30.99
4,-0.1113281,-0.1406097,0.9837799,1.0,-0.1195374,-0.134613,0.9836578,-30.66734,0.8438416,-27.55038,3.180618,0.4805632,0.5674554,1.0,-0.1019592,-0.1474304,0.9837952,31.52487,2.004562,-28.72105,3.429092,0.5572009,0.5414671,0.02290916,1.198344,-0.09971499,-0.02514945,-0.1078678,0.0001726335,0.3100261,24.74544,30.99
4,-0.1094513,-0.1405945,0.9839935,1.0,-0.1193848,-0.1338806,0.9837646,-30.66679,0.8396301,-27.54951,3.180511,0.4805209,0.5674579,1.0,-0.09889221,-0.1477051,0.9840698,31.53194,2.002716,-28.72131,3.428986,0.5564294,0.5415704,0.02301276,1.198351,-0.09966856,-0.02517195,-0.1075399,0.0001726335,0.3100261,24.74544,30.99
4,-0.1080475,-0.1397095,0.9842682,1.0,-0.1173859,-0.1329803,0.9841309,-30.66679,0.8346252,-27.55038,3.180786,0.4801856,0.5674584,1.0,-0.09831238,-0.146698,0.9842682,31.53944,1.997116,-28.72145,3.428726,0.5560715,0.5415704,0.02317774,1.198312,-0.09956765,-0.02508419,-0.1069438,0.00029901,0.3100261,24.74544,30.99
4,-0.1068268,-0.1395264,0.984436,1.0,-0.1170654,-0.1329651,0.9841766,-30.66643,0.8325806,-27.55069,3.181503,0.4801164,0.5675299,1.0,-0.09623718,-0.146286,0.9845428,31.54291,1.993912,-28.72159,3.432632,0.5555921,0.5416085,0.02326548,1.198275,-0.09951961,-0.02496987,-0.1067741,0.000345267,0.3100261,24.74544,30.99
4,-0.1068268,-0.1395264,0.984436,1.0,-0.1170654,-0.1329651,0.9841766,-30.66643,0.8325806,-27.55069,3.181503,0.4801164,0.5675299,1.0,-0.09623718,-0.146286,0.9845428,31.54291,1.993912,-28.72159,3.432632,0.5555921,0.5416085,0.02326548,1.198275,-0.09951961,-0.02496987,-0.1067741,0.000345267,0.3100261,24.74544,30.99
4,-0.105484,-0.1394501,0.9845886,1.0,-0.1165771,-0.1330109,0.9842224,-30.66679,0.8305511,-27.55101,3.182205,0.4800472,0.5676014,1.0,-0.09414673,-0.1459961,0.984787,31.54637,1.990692,-28.72173,3.428726,0.5551125,0.5416465,0.02326167,1.198192,-0.09949869,-0.02476102,-0.1064366,0.0004048614,0.3100261,24.74544,30.99
4,-0.105484,-0.1394501,0.9845886,1.0,-0.1165771,-0.1330109,0.9842224,-30.66679,0.8305511,-27.55101,3.182205,0.4800472,0.5676014,1.0,-0.09414673,-0.1459961,0.984787,31.54637,1.990692,-28.72173,3.428726,0.5551125,0.5416465,0.02336442,1.198133,-0.09941202,-0.02447076,-0.1060505,0.00029901,0.3100261,3.631943,30.99
4,-0.105484,-0.1394501,0.9845886,1.0,-0.1165771,-0.1330109,0.9842224,-30.66679,0.8305511,-27.55101,3.182205,0.4800472,0.5676014,1.0,-0.09414673,-0.1459961,0.984787,31.54637,1.990692,-28.72173,3.428726,0.5551125,0.5416465,0.02338755,1.198079,-0.09934628,-0.02441132,-0.1059458,0.000211432,0.3100261,3.631943,30.99
4,-0.105484,-0.1394501,0.9845886,1.0,-0.1165771,-0.1330109,0.9842224,-30.66679,0.8305511,-27.55101,3.182205,0.4800472,0.5676014,1.0,-0.09414673,-0.1459961,0.984787,31.54637,1.990692,-28.72173,3.428726,0.5551125,0.5416465,0.02338755,1.198079,-0.09934628,-0.02441132,-0.1059458,0.000211432,0.3100261,3.631943,30.99
4,-0.105484,-0.1394501,0.9845886,1.0,-0.1165771,-0.1330109,0.9842224,-30.66679,0.8305511,-27.55101,3.182205,0.4800472,0.5676014,1.0,-0.09414673,-0.1459961,0.984787,31.54637,1.990692,-28.72173,3.428726,0.5551125,0.5416465,0.02343333,1.198062,-0.09929723,-0.02431131,-0.105876,0.0002441406,0.3100261,3.631943,30.99
4,-0.1031647,-0.1408081,0.9846344,1.0,-0.1116333,-0.1361542,0.984375,-30.65762,0.8278656,-27.5405,3.202942,0.4788947,0.5681263,1.0,-0.09474182,-0.1454163,0.9848175,31.55421,1.98587,-28.72598,3.410797,0.5549518,0.5417424,0.0234915,1.198002,-0.09924448,-0.02424717,-0.1058324,0.000211432,0.3100261,3.631943,30.99
4,-0.1029663,-0.1422729,0.9844513,1.0,-0.1112518,-0.1393585,0.983963,-30.65733,0.8267365,-27.53885,3.199875,0.4788176,0.5687009,1.0,-0.09487915,-0.1450958,0.984848,31.56065,1.982437,-28.72864,3.408127,0.5547565,0.5418228,0.02365029,1.197947,-0.0991475,-0.02387029,-0.1057573,0.0001726335,0.3100261,3.631943,30.99
4,-0.1029205,-0.1424866,0.9844208,1.0,-0.1116791,-0.1397705,0.9838562,-30.65862,0.8248291,-27.54047,3.156418,0.4789461,0.5688371,1.0,-0.09440613,-0.1450958,0.9848938,31.56708,1.981857,-28.72923,3.410233,0.5544528,0.5418505,0.02365029,1.197947,-0.0991475,-0.02387029,-0.1057573,0.0001726335,0.3100261,3.631943,30.99
4,-0.1029205,-0.1424866,0.9844208,1.0,-0.1116791,-0.1397705,0.9838562,-30.65862,0.8248291,-27.54047,3.156418,0.4789461,0.5688371,1.0,-0.09440613,-0.1450958,0.9848938,31.56708,1.981857,-28.72923,3.410233,0.5544528,0.5418505,0.02365029,1.197947,-0.0991475,-0.02387029,-0.1057573,0.0001726335,0.3100261,3.631943,30.99
4,-0.1029205,-0.1424866,0.9844208,1.0,-0.1116791,-0.1397705,0.9838562,-30.65862,0.8248291,-27.54047,3.156418,0.4789461,0.5688371,1.0,-0.09440613,-0.1450958,0.9848938,31.56708,1.981857,-28.72923,3.410233,0.5544528,0.5418505,0.02380788,1.197888,-0.09917265,-0.02360254,-0.105481,0.000211432,0.3100261,3.631943,30.99
4,-0.1029205,-0.1424866,0.9844208,1.0,-0.1116791,-0.1397705,0.9838562,-30.65862,0.8248291,-27.54047,3.156418,0.4789461,0.5688371,1.0,-0.09440613,-0.1450958,0.9848938,31.56708,1.981857,-28.72923,3.410233,0.5544528,0.5418505,0.02404678,1.197906,-0.09906203,-0.02343337,-0.104959,0.000211432,0.3100261,3.631943,30.99
4,-0.1029205,-0.1424866,0.9844208,1.0,-0.1116791,-0.1397705,0.9838562,-30.65862,0.8248291,-27.54047,3.156418,0.4789461,0.5688371,1.0,-0.09440613,-0.1450958,0.9848938,31.56708,1.981857,-28.72923,3.410233,0.5544528,0.5418505,0.02429044,1.197917,-0.09897482,-0.02357064,-0.1043042,0.0001726335,0.3100261,3.631943,30.99
4,-0.1029205,-0.1424866,0.9844208,1.0,-0.1116791,-0.1397705,0.9838562,-30.65862,0.8248291,-27.54047,3.156418,0.4789461,0.5688371,1.0,-0.09440613,-0.1450958,0.9848938,31.56708,1.981857,-28.72923,3.410233,0.5544528,0.5418505,0.02429044,1.197917,-0.09897482,-0.02357064,-0.1043042,0.0001726335,0.3100261,3.631943,30.99
4,-0.1025543,-0.1428833,0.9844055,1.0,-0.1107483,-0.1413116,0.9837341,-30.65977,0.8230286,-27.54175,3.178436,0.4788176,0.5691866,1.0,-0.09461975,-0.1443787,0.9849701,31.56908,1.97699,-28.72961,3.410263,0.5544214,0.5418935,0.0245105,1.197842,-0.09889466,-0.02355767,-0.1036214,0.0001220703,0.3100261,-26.77084,30.99
4,-0.1025543,-0.1428833,0.9844055,1.0,-0.1107483,-0.1413116,0.9837341,-30.65977,0.8230286,-27.54175,3.178436,0.4788176,0.5691866,1.0,-0.09461975,-0.1443787,0.9849701,31.56908,1.97699,-28.72961,3.410263,0.5544214,0.5418935,0.0245105,1.197842,-0.09889466,-0.02355767,-0.1036214,0.0001220703,0.3100261,-26.77084,30.99
4,-0.1025543,-0.1428833,0.9844055,1.0,-0.1107483,-0.1413116,0.9837341,-30.65977,0.8230286,-27.54175,3.178436,0.4788176,0.5691866,1.0,-0.09461975,-0.1443787,0.9849701,31.56908,1.97699,-28.72961,3.410263,0.5544214,0.5418935,0.0246557,1.19786,-0.09890252,-0.02333843,-0.102993,0.0001220703,0.3100261,-26.77084,30.99
4,-0.1025543,-0.1428833,0.9844055,1.0,-0.1107483,-0.1413116,0.9837341,-30.65977,0.8230286,-27.54175,3.178436,0.4788176,0.5691866,1.0,-0.09461975,-0.1443787,0.9849701,31.56908,1.97699,-28.72961,3.410263,0.5544214,0.5418935,0.0246557,1.19786,-0.09890252,-0.02333843,-0.102993,0.0001220703,0.3100261,-26.77084,30.99
4,-0.1025543,-0.1428833,0.9844055,1.0,-0.1107483,-0.1413116,0.9837341,-30.65977,0.8230286,-27.54175,3.178436,0.4788176,0.5691866,1.0,-0.09461975,-0.1443787,0.9849701,31.56908,1.97699,-28.72961,3.410263,0.5544214,0.5418935,0.02482629,1.197861,-0.09886646,-0.02333364,-0.1026577,0.0001726335,0.3100261,-26.77084,30.99
4,-0.1025543,-0.1428833,0.9844055,1.0,-0.1107483,-0.1413116,0.9837341,-30.65977,0.8230286,-27.54175,3.178436,0.4788176,0.5691866,1.0,-0.09461975,-0.1443787,0.9849701,31.56908,1.97699,-28.72961,3.410263,0.5544214,0.5418935,0.02482629,1.197861,-0.09886646,-0.02333364,-0.1026577,0.0001726335,0.3100261,-26.77084,30.99
4,-0.101593,-0.143692,0.9843903,1.0,-0.1142578,-0.141983,0.9832458,-30.66557,0.8147888,-27.54716,3.178467,0.4795998,0.5696551,1.0,-0.08914185,-0.1453552,0.9853516,31.60512,1.958893,-28.73036,3.413193,0.5522302,0.5426624,0.02495754,1.197838,-0.09887052,-0.02348069,-0.1024367,0.0,0.3100261,-26.77084,30.99
4,-0.101593,-0.143692,0.9843903,1.0,-0.1142578,-0.141983,0.9832458,-30.66557,0.8147888,-27.54716,3.178467,0.4795998,0.5696551,1.0,-0.08914185,-0.1453552,0.9853516,31.60512,1.958893,-28.73036,3.413193,0.5522302,0.5426624,0.02495754,1.197838,-0.09887052,-0.02348069,-0.1024367,0.0,0.3100261,-26.77084,30.99
4,-0.1018829,-0.1481323,0.9837036,1.0,-0.112793,-0.1425629,0.9833221,-30.67105,0.8129425,-27.55775,3.197571,0.4795306,0.5699239,1.0,-0.09143066,-0.1534119,0.9839172,31.60764,1.959686,-28.72882,3.465317,0.5525221,0.5440935,0.02503633,1.197894,-0.09885061,-0.02366118,-0.1023748,0.0001220703,0.3100261,-26.77084,30.99
4,-0.1018829,-0.1481323,0.9837036,1.0,-0.112793,-0.1425629,0.9833221,-30.67105,0.8129425,-27.55775,3.197571,0.4795306,0.5699239,1.0,-0.09143066,-0.1534119,0.9839172,31.60764,1.959686,-28.72882,3.465317,0.5525221,0.5440935,0.02503633,1.197894,-0.09885061,-0.02366118,-0.1023748,0.0001220703,0.3100261,-26.77084,30.99
4,-0.1020355,-0.1481934,0.9836731,1.0,-0.1137238,-0.1433868,0.9830933,-30.67003,0.8117981,-27.5555,3.199799,0.4796515,0.5700834,1.0,-0.09082031,-0.152771,0.9840698,31.60764,1.959961,-28.72749,3.45668,0.5524169,0.5439467,0.02510154,1.197942,-0.09880465,-0.02384624,-0.1025,-0.0001220703,0.3100261,-26.77084,30.99
4,-0.1020355,-0.1481934,0.9836731,1.0,-0.1137238,-0.1433868,0.9830933,-30.67003,0.8117981,-27.5555,3.199799,0.4796515,0.5700834,1.0,-0.09082031,-0.152771,0.9840698,31.60764,1.959961,-28.72749,3.45668,0.5524169,0.5439467,0.02510154,1.197942,-0.09880465,-0.02384624,-0.1025,-0.0001220703,0.3100261,-26.77084,30.99
4,-0.06274414,-0.1573334,0.9855347,1.0,-0.07441711,-0.1551361,0.9850769,-30.28696,0.7831268,-27.45015,3.335327,0.4601743,0.5718768,1.0,-0.04374695,-0.1608582,0.9859924,32.00803,1.903122,-28.46788,3.445145,0.5304069,0.544575,0.02510393,1.197992,-0.09872317,-0.02404134,-0.103314,-0.00029901,0.3100261,-26.77084,30.99
4,-0.06274414,-0.1573334,0.9855347,1.0,-0.07441711,-0.1551361,0.9850769,-30.28696,0.7831268,-27.45015,3.335327,0.4601743,0.5718768,1.0,-0.04374695,-0.1608582,0.9859924,32.00803,1.903122,-28.46788,3.445145,0.5304069,0.544575,0.02510393,1.197992,-0.09872317,-0.02404134,-0.103314,-0.00029901,0.3100261,-26.77084,30.99
