Second,eye_comb_direction_x,eye_comb_direction_y,eye_comb_direction_z,eye_r_openness,eye_r_direction_x,eye_r_direction_y,eye_r_direction_z,eye_r_origin_x,eye_r_origin_y,eye_r_origin_z,eye_r_pupil_diameter,eye_r_pupil_position_x,eye_r_pupil_position_y,eye_l_openness,eye_l_direction_x,eye_l_direction_y,eye_l_direction_z,eye_l_origin_x,eye_l_origin_y,eye_l_origin_z,eye_l_pupil_diameter,eye_l_pupil_position_x,eye_l_pupil_position_y,head_position_x,head_position_y,head_position_z,head_rotation_roll,head_rotation_pitch,head_rotation_yaw,EDA,BVP,TMP
0,0.0,0.0,0.0,0.0,0.0,0.0,0.0,0.0,0.0,0.0,0.0,0.0,0.0,0.0,0.0,0.0,0.0,0.0,0.0,0.0,0.0,0.0,0.0,0.0,0.0,0.0,0.0,0.0,0.0,0.4143360414939759,-0.14757333161445793,29.908590361445786
0,-0.00177002,-0.06510925,0.9978638,1.0,0.002090454,-0.05847168,0.9982758,-29.5529,2.602402,-26.62238,4.819473,0.4235718,0.4877833,1.0,-0.005722046,-0.0718689,0.9973907,31.72443,4.20813,-26.84982,4.93248,0.5335276,0.4370536,0.04786706,1.172552,-0.2853868,-0.0385052,-0.07595845,0.0121305,0.4143360414939759,-0.14757333161445793,29.908590361445786
1,-0.002075195,-0.06436157,0.9979095,1.0,0.002212524,-0.05679321,0.9983826,-29.5529,2.602402,-26.6178,4.796005,0.4235584,0.4874423,1.0,-0.006286621,-0.07176208,0.9973907,31.72443,4.20813,-26.84982,4.924149,0.5336221,0.4370334,0.04907739,1.172356,-0.2852205,-0.03812387,-0.07264918,0.009771728,0.4143360414939759,-0.14757333161445793,29.908590361445786
1,-0.002075195,-0.06436157,0.9979095,1.0,0.002212524,-0.05679321,0.9983826,-29.5529,2.602402,-26.6178,4.796005,0.4235584,0.4874423,1.0,-0.006286621,-0.07176208,0.9973907,31.72443,4.20813,-26.84982,4.924149,0.5336221,0.4370334,0.04907739,1.172356,-0.2852205,-0.03812387,-0.07264918,0.009771728,0.4143360414939759,-0.14757333161445793,29.908590361445786
1,-0.002075195,-0.06436157,0.9979095,1.0,0.002212524,-0.05679321,0.9983826,-29.5529,2.602402,-26.6178,4.796005,0.4235584,0.4874423,1.0,-0.006286621,-0.07176208,0.9973907,31.72443,4.20813,-26.84982,4.924149,0.5336221,0.4370334,0.04907739,1.172356,-0.2852205,-0.03812387,-0.07264918,0.009771728,0.4143360414939759,-0.14757333161445793,29.908590361445786
1,-0.002075195,-0.06436157,0.9979095,1.0,0.002212524,-0.05679321,0.9983826,-29.5529,2.602402,-26.6178,4.796005,0.4235584,0.4874423,1.0,-0.006286621,-0.07176208,0.9973907,31.72443,4.20813,-26.84982,4.924149,0.5336221,0.4370334,0.04907739,1.172356,-0.2852205,-0.03812387,-0.07264918,0.009771728,0.4143360414939759,-0.14757333161445793,29.908590361445786
1,-0.002075195,-0.06436157,0.9979095,1.0,0.002212524,-0.05679321,0.9983826,-29.5529,2.602402,-26.6178,4.796005,0.4235584,0.4874423,1.0,-0.006286621,-0.07176208,0.9973907,31.72443,4.20813,-26.84982,4.924149,0.5336221,0.4370334,0.04907739,1.172356,-0.2852205,-0.03812387,-0.07264918,0.009771728,0.4143360414939759,-0.14757333161445793,29.908590361445786
1,-0.002075195,-0.06436157,0.9979095,1.0,0.002212524,-0.05679321,0.9983826,-29.5529,2.602402,-26.6178,4.796005,0.4235584,0.4874423,1.0,-0.006286621,-0.07176208,0.9973907,31.72443,4.20813,-26.84982,4.924149,0.5336221,0.4370334,0.04907739,1.172356,-0.2852205,-0.03812387,-0.07264918,0.009771728,0.4143360414939759,-0.14757333161445793,29.908590361445786
1,-0.002075195,-0.06436157,0.9979095,1.0,0.002212524,-0.05679321,0.9983826,-29.5529,2.602402,-26.6178,4.796005,0.4235584,0.4874423,1.0,-0.006286621,-0.07176208,0.9973907,31.72443,4.20813,-26.84982,4.924149,0.5336221,0.4370334,0.04907739,1.172356,-0.2852205,-0.03812387,-0.07264918,0.009771728,0.4143360414939759,-0.14757333161445793,29.908590361445786
1,-0.002075195,-0.06436157,0.9979095,1.0,0.002212524,-0.05679321,0.9983826,-29.5529,2.602402,-26.6178,4.796005,0.4235584,0.4874423,1.0,-0.006286621,-0.07176208,0.9973907,31.72443,4.20813,-26.84982,4.924149,0.5336221,0.4370334,0.04907739,1.172356,-0.2852205,-0.03812387,-0.07264918,0.009771728,0.4143360414939759,-0.14757333161445793,29.908590361445786
1,-0.002075195,-0.06436157,0.9979095,1.0,0.002212524,-0.05679321,0.9983826,-29.5529,2.602402,-26.6178,4.796005,0.4235584,0.4874423,1.0,-0.006286621,-0.07176208,0.9973907,31.72443,4.20813,-26.84982,4.924149,0.5336221,0.4370334,0.04907739,1.172356,-0.2852205,-0.03812387,-0.07264918,0.009771728,0.4143360414939759,-0.14757333161445793,29.908590361445786
1,-0.05143738,-0.1148071,0.9920502,1.0,-0.06838989,-0.1080475,0.9917755,-30.11815,2.54805,-26.46852,4.370193,0.4538433,0.4965605,1.0,-0.03361511,-0.1218567,0.9919739,31.42529,4.226715,-27.04288,4.388885,0.5483357,0.4465007,0.05024707,1.173836,-0.2879339,-0.04598066,-0.07069536,0.008761044,0.4143360414939759,-0.14757333161445793,29.908590361445786
1,-0.05143738,-0.1148071,0.9920502,1.0,-0.06838989,-0.1080475,0.9917755,-30.11815,2.54805,-26.46852,4.370193,0.4538433,0.4965605,1.0,-0.03361511,-0.1218567,0.9919739,31.42529,4.226715,-27.04288,4.388885,0.5483357,0.4465007,0.05024707,1.173836,-0.2879339,-0.04598066,-0.07069536,0.008761044,0.4143360414939759,-0.14757333161445793,29.908590361445786
1,-0.05143738,-0.1148071,0.9920502,1.0,-0.06838989,-0.1080475,0.9917755,-30.11815,2.54805,-26.46852,4.370193,0.4538433,0.4965605,1.0,-0.03361511,-0.1218567,0.9919739,31.42529,4.226715,-27.04288,4.388885,0.5483357,0.4465007,0.05024707,1.173836,-0.2879339,-0.04598066,-0.07069536,0.008761044,0.4143360414939759,-0.14757333161445793,29.908590361445786
1,-0.05143738,-0.1148071,0.9920502,1.0,-0.06838989,-0.1080475,0.9917755,-30.11815,2.54805,-26.46852,4.370193,0.4538433,0.4965605,1.0,-0.03361511,-0.1218567,0.9919739,31.42529,4.226715,-27.04288,4.388885,0.5483357,0.4465007,0.05024707,1.173836,-0.2879339,-0.04598066,-0.07069536,0.008761044,0.4143360414939759,-0.14757333161445793,29.908590361445786
1,-0.05143738,-0.1148071,0.9920502,1.0,-0.06838989,-0.1080475,0.9917755,-30.11815,2.54805,-26.46852,4.370193,0.4538433,0.4965605,1.0,-0.03361511,-0.1218567,0.9919739,31.42529,4.226715,-27.04288,4.388885,0.5483357,0.4465007,0.05024707,1.173836,-0.2879339,-0.04598066,-0.07069536,0.008761044,0.4143360414939759,-0.14757333161445793,29.908590361445786
1,-0.05143738,-0.1148071,0.9920502,1.0,-0.06838989,-0.1080475,0.9917755,-30.11815,2.54805,-26.46852,4.370193,0.4538433,0.4965605,1.0,-0.03361511,-0.1218567,0.9919739,31.42529,4.226715,-27.04288,4.388885,0.5483357,0.4465007,0.05024707,1.173836,-0.2879339,-0.04598066,-0.07069536,0.008761044,0.4143360414939759,-0.14757333161445793,29.908590361445786
1,-0.05812073,-0.1138458,0.9917908,1.0,-0.07624817,-0.1121368,0.9907532,-30.1452,2.455765,-26.29578,4.033585,0.4561092,0.4986356,1.0,-0.03683472,-0.115799,0.9925842,31.37146,4.076111,-26.7368,4.006882,0.5505073,0.4477482,0.05014825,1.173504,-0.2879667,-0.04440542,-0.07135738,0.00855712,0.4143360414939759,-0.14757333161445793,29.908590361445786
1,-0.06896973,-0.1882172,0.9796906,1.0,-0.0844574,-0.1782379,0.9803467,-30.13255,2.102951,-26.45998,3.96936,0.4568713,0.5230644,1.0,-0.04994202,-0.2003632,0.9784393,31.12175,3.66983,-26.98691,4.015747,0.5611902,0.4784053,0.05017745,1.173245,-0.2879508,-0.04328146,-0.0715505,0.008631676,0.4143360414939759,-0.14757333161445793,29.908590361445786
1,-0.06896973,-0.1882172,0.9796906,1.0,-0.0844574,-0.1782379,0.9803467,-30.13255,2.102951,-26.45998,3.96936,0.4568713,0.5230644,1.0,-0.04994202,-0.2003632,0.9784393,31.12175,3.66983,-26.98691,4.015747,0.5611902,0.4784053,0.05017745,1.173245,-0.2879508,-0.04328146,-0.0715505,0.008631676,0.4143360414939759,-0.14757333161445793,29.908590361445786
1,-0.08909607,-0.3018951,0.9491577,1.0,-0.09603882,-0.2897339,0.9522705,-30.09,1.589142,-26.60989,3.566483,0.4571674,0.5611544,1.0,-0.07255554,-0.3305511,0.940979,30.89996,3.136429,-27.18909,3.965256,0.5725647,0.5217898,0.05024421,1.173069,-0.2879503,-0.04271397,-0.07160535,0.008679019,0.4143360414939759,-0.14757333161445793,29.908590361445786
1,-0.08909607,-0.3018951,0.9491577,1.0,-0.09603882,-0.2897339,0.9522705,-30.09,1.589142,-26.60989,3.566483,0.4571674,0.5611544,1.0,-0.07255554,-0.3305511,0.940979,30.89996,3.136429,-27.18909,3.965256,0.5725647,0.5217898,0.05024421,1.173069,-0.2879503,-0.04271397,-0.07160535,0.008679019,0.4143360414939759,-0.14757333161445793,29.908590361445786
1,-0.08940125,-0.4480438,0.8895264,1.0,-0.09475708,-0.4432983,0.8913422,-30.09509,1.067459,-26.87384,3.485321,0.456724,0.6096496,1.0,-0.07096863,-0.4641113,0.8829193,30.73166,2.487305,-27.53931,3.676147,0.5783827,0.572646,0.05022871,1.172828,-0.2878523,-0.04164673,-0.07178471,0.008907788,0.4143360414939759,-16.66237,29.908590361445786
1,-0.0940094,-0.4766693,0.8740234,0.8661526,-0.097229,-0.4717102,0.876358,-30.11746,1.008698,-26.91905,3.637711,0.4577689,0.6175068,0.9877885,-0.08024597,-0.4976349,0.8636475,30.77702,2.502579,-27.57082,3.543274,0.5784855,0.579214,0.05020738,1.172767,-0.2877555,-0.0411328,-0.07188377,0.008998495,0.4143360414939759,-16.66237,29.908590361445786
1,-0.0940094,-0.4766693,0.8740234,0.8661526,-0.097229,-0.4717102,0.876358,-30.11746,1.008698,-26.91905,3.637711,0.4577689,0.6175068,0.9877885,-0.08024597,-0.4976349,0.8636475,30.77702,2.502579,-27.57082,3.543274,0.5784855,0.579214,0.05020738,1.172767,-0.2877555,-0.0411328,-0.07188377,0.008998495,0.4143360414939759,-16.66237,29.908590361445786
1,-0.08576965,-0.4762726,0.8750916,0.8033968,-0.09268188,-0.4761047,0.8744812,-30.14471,1.064926,-26.88301,3.579819,0.4579585,0.6161215,0.9256513,-0.06427002,-0.4766388,0.8767395,30.81122,2.489929,-27.55859,3.575943,0.5745628,0.5752298,0.05017912,1.17268,-0.2875468,-0.04063365,-0.07213736,0.00912103,0.4143360414939759,-16.66237,29.908590361445786
1,-0.1091919,-0.4591827,0.8815918,0.7862127,-0.1124878,-0.4474182,0.887207,-30.16122,1.119751,-26.85341,3.586731,0.4618451,0.6085823,0.9035269,-0.09757996,-0.4993591,0.8608704,30.95065,2.613449,-27.48808,3.386047,0.5754323,0.5751508,0.05015934,1.172718,-0.2874448,-0.04057126,-0.07221437,0.009194254,0.4143360414939759,-16.66237,29.908590361445786
1,-0.1091919,-0.4591827,0.8815918,0.7862127,-0.1124878,-0.4474182,0.887207,-30.16122,1.119751,-26.85341,3.586731,0.4618451,0.6085823,0.9035269,-0.09757996,-0.4993591,0.8608704,30.95065,2.613449,-27.48808,3.386047,0.5754323,0.5751508,0.05015934,1.172718,-0.2874448,-0.04057126,-0.07221437,0.009194254,0.4143360414939759,-16.66237,29.908590361445786
1,-0.09753418,-0.458313,0.8834076,0.7810038,-0.09788513,-0.437851,0.893692,-30.23489,1.057785,-26.8893,3.443665,0.4619442,0.6091534,0.8934221,-0.09689331,-0.4896393,0.8665161,30.96965,2.609909,-27.48325,3.442978,0.5746349,0.5732262,0.05008209,1.17266,-0.2871938,-0.0405494,-0.07247975,0.009196684,0.4143360414939759,-16.66237,29.908590361445786
1,-0.09753418,-0.458313,0.8834076,0.7810038,-0.09788513,-0.437851,0.893692,-30.23489,1.057785,-26.8893,3.443665,0.4619442,0.6091534,0.8934221,-0.09689331,-0.4896393,0.8665161,30.96965,2.609909,-27.48325,3.442978,0.5746349,0.5732262,0.05008209,1.17266,-0.2871938,-0.0405494,-0.07247975,0.009196684,0.4143360414939759,-16.66237,29.908590361445786
1,-0.09661865,-0.4558868,0.8847656,0.7686955,-0.09558105,-0.4346619,0.8954926,-30.26454,1.034927,-26.89346,3.442612,0.4625578,0.6093344,0.8686408,-0.0980835,-0.4872589,0.8677216,30.97559,2.598251,-27.48494,3.418869,0.5746349,0.5731985,0.05003715,1.17261,-0.2871002,-0.04037078,-0.07264384,0.009233875,0.4143360414939759,-16.66237,29.908590361445786
1,-0.09591675,-0.4556274,0.8849792,0.7630867,-0.09690857,-0.4327545,0.8962708,-30.2775,1.030579,-26.89722,3.417755,0.4632206,0.609176,0.879788,-0.0947113,-0.48172,0.8711853,30.98051,2.58197,-27.48399,3.387543,0.5738887,0.5726295,0.05001354,1.172541,-0.2870195,-0.04013942,-0.07268792,0.008986896,0.4143360414939759,-16.66237,29.908590361445786
1,-0.09591675,-0.4556274,0.8849792,0.7630867,-0.09690857,-0.4327545,0.8962708,-30.2775,1.030579,-26.89722,3.417755,0.4632206,0.609176,0.879788,-0.0947113,-0.48172,0.8711853,30.98051,2.58197,-27.48399,3.387543,0.5738887,0.5726295,0.05001354,1.172541,-0.2870195,-0.04013942,-0.07268792,0.008986896,0.4143360414939759,-16.66237,29.908590361445786
1,-0.09570313,-0.4555511,0.8850403,0.7681214,-0.09603882,-0.4330139,0.8962402,-30.28413,1.028381,-26.89972,3.395233,0.4633054,0.6093298,0.8895388,-0.09527588,-0.4793549,0.8724213,30.98376,2.573776,-27.48357,3.381439,0.5738725,0.5724497,0.04997969,1.172415,-0.2866919,-0.03968956,-0.07288671,0.008827971,0.4143360414939759,-16.66237,29.908590361445786
1,-0.09913635,-0.4651489,0.8796539,0.7579192,-0.09864807,-0.4319763,0.8964691,-30.29321,1.02594,-26.9053,3.39537,0.464042,0.6092859,0.8960265,-0.0994873,-0.4969177,0.8620605,31.01773,2.652634,-27.46823,3.166367,0.5734829,0.5732891,0.0499723,1.172356,-0.2865438,-0.039586,-0.07283774,0.008803463,0.4143360414939759,-16.66237,29.908590361445786
1,-0.09407043,-0.4498291,0.8881378,0.7667195,-0.09761047,-0.4319611,0.8965912,-30.30031,1.042343,-26.90797,3.250946,0.4641518,0.608819,0.8686653,-0.09082031,-0.4659576,0.880127,31.00809,2.580093,-27.48703,3.266068,0.572291,0.569651,0.04998791,1.172249,-0.286365,-0.03916517,-0.07289601,0.00883725,0.4143360414939759,11.11998,29.908590361445786
1,-0.09407043,-0.4498291,0.8881378,0.7667195,-0.09761047,-0.4319611,0.8965912,-30.30031,1.042343,-26.90797,3.250946,0.4641518,0.608819,0.8686653,-0.09082031,-0.4659576,0.880127,31.00809,2.580093,-27.48703,3.266068,0.572291,0.569651,0.04998791,1.172249,-0.286365,-0.03916517,-0.07289601,0.00883725,0.4143360414939759,11.11998,29.908590361445786
2,-0.09162903,-0.4474487,0.8895874,0.7632094,-0.1022644,-0.4305725,0.8967285,-30.31548,1.040451,-26.91533,3.350876,0.4654026,0.608679,0.8632368,-0.08175659,-0.4628906,0.8826294,30.99834,2.594391,-27.47585,3.232346,0.5710814,0.5684239,0.04997921,1.172151,-0.286149,-0.03853055,-0.07291697,0.008908625,0.4143360414939759,11.11998,29.908590361445786
2,-0.09204102,-0.4482727,0.8891296,0.7289814,-0.09120178,-0.4292603,0.8985596,-30.31009,1.03688,-26.91187,3.408966,0.4633751,0.6084048,0.8455189,-0.0927887,-0.4657135,0.8800507,30.99474,2.591995,-27.48145,3.287766,0.5730758,0.5691519,0.04997921,1.172151,-0.286149,-0.03853055,-0.07291697,0.008908625,0.4143360414939759,11.11998,29.908590361445786
2,-0.09204102,-0.4482727,0.8891296,0.7289814,-0.09120178,-0.4292603,0.8985596,-30.31009,1.03688,-26.91187,3.408966,0.4633751,0.6084048,0.8455189,-0.0927887,-0.4657135,0.8800507,30.99474,2.591995,-27.48145,3.287766,0.5730758,0.5691519,0.04997921,1.172151,-0.286149,-0.03853055,-0.07291697,0.008908625,0.4143360414939759,11.11998,29.908590361445786
2,-0.08473206,-0.4493713,0.8892975,0.7134726,-0.09165955,-0.4328461,0.8967896,-30.3129,1.031769,-26.91592,3.363205,0.4635522,0.6093349,0.8176948,-0.078125,-0.4648895,0.881897,31.00034,2.595047,-27.47833,3.283997,0.5703909,0.5687644,0.0499655,1.171931,-0.285943,-0.03786778,-0.07283988,0.008928674,0.4143360414939759,11.11998,29.908590361445786
2,-0.08566284,-0.4498749,0.8889618,0.7101038,-0.09240723,-0.4333344,0.8964691,-30.31442,1.031769,-26.91592,3.363358,0.4637254,0.609432,0.8290302,-0.07931519,-0.4652252,0.8816223,31.00616,2.596191,-27.47514,3.284073,0.5703909,0.5687644,0.04995811,1.171781,-0.2857687,-0.0371898,-0.07261439,0.008718419,0.4143360414939759,11.11998,29.908590361445786
2,-0.08566284,-0.4498749,0.8889618,0.7101038,-0.09240723,-0.4333344,0.8964691,-30.31442,1.031769,-26.91592,3.363358,0.4637254,0.609432,0.8290302,-0.07931519,-0.4652252,0.8816223,31.00616,2.596191,-27.47514,3.284073,0.5703909,0.5687644,0.04995811,1.171781,-0.2857687,-0.0371898,-0.07261439,0.008718419,0.4143360414939759,11.11998,29.908590361445786
2,-0.1051636,-0.2950439,0.9496613,0.7139211,-0.121109,-0.2937622,0.9481659,-30.13292,1.859879,-26.5464,3.206177,0.4629072,0.5525038,0.7946759,-0.08204651,-0.2967529,0.951416,30.91609,3.448685,-27.05505,3.383575,0.5736268,0.5039529,0.04996383,1.17171,-0.2856097,-0.037032,-0.07273004,0.008629085,0.4143360414939759,11.11998,29.908590361445786
2,-0.08648682,-0.2229004,0.970993,0.7163767,-0.1003418,-0.220459,0.9702148,-30.15764,2.151642,-26.46187,3.198181,0.4604799,0.528799,0.8054304,-0.06152344,-0.2271729,0.9718933,30.83849,3.810211,-26.96872,3.354843,0.5727949,0.4783308,0.05001163,1.171891,-0.2853938,-0.03723765,-0.07280469,0.008397161,0.4143360414939759,11.11998,29.908590361445786
2,-0.08648682,-0.2229004,0.970993,0.7163767,-0.1003418,-0.220459,0.9702148,-30.15764,2.151642,-26.46187,3.198181,0.4604799,0.528799,0.8054304,-0.06152344,-0.2271729,0.9718933,30.83849,3.810211,-26.96872,3.354843,0.5727949,0.4783308,0.05001163,1.171891,-0.2853938,-0.03723765,-0.07280469,0.008397161,0.4143360414939759,11.11998,29.908590361445786
2,-0.1185608,-0.1499634,0.9815521,0.7163767,-0.1185608,-0.1499634,0.9815521,-30.14711,2.404358,-26.41714,3.26857,0.4632957,0.5078219,0.8054304,0.0,0.0,0.0,30.84027,4.089874,-26.94925,-1.0,0.5756559,0.4554919,0.0500747,1.17187,-0.2853107,-0.03739478,-0.07287598,0.007985115,0.4143360414939759,11.11998,29.908590361445786
2,-0.1185608,-0.1499634,0.9815521,0.7163767,-0.1185608,-0.1499634,0.9815521,-30.14711,2.404358,-26.41714,3.26857,0.4632957,0.5078219,0.8054304,0.0,0.0,0.0,30.84027,4.089874,-26.94925,-1.0,0.5756559,0.4554919,0.0500747,1.17187,-0.2853107,-0.03739478,-0.07287598,0.007985115,0.4143360414939759,11.11998,29.908590361445786
2,-0.1185608,-0.1499634,0.9815521,0.7163767,-0.1185608,-0.1499634,0.9815521,-30.14711,2.404358,-26.41714,3.26857,0.4632957,0.5078219,0.8054304,0.0,0.0,0.0,30.84027,4.089874,-26.94925,-1.0,0.5756559,0.4554919,0.05003572,1.171877,-0.2852632,-0.03744038,-0.07298069,0.00763891,0.4143360414939759,11.11998,29.908590361445786
2,-0.1185608,-0.1499634,0.9815521,0.7163767,-0.1185608,-0.1499634,0.9815521,-30.14711,2.404358,-26.41714,3.26857,0.4632957,0.5078219,0.8054304,0.0,0.0,0.0,30.84027,4.089874,-26.94925,-1.0,0.5756559,0.4554919,0.05003572,1.171877,-0.2852632,-0.03744038,-0.07298069,0.00763891,0.4143360414939759,11.11998,29.908590361445786
2,-0.1185608,-0.1499634,0.9815521,0.7163767,-0.1185608,-0.1499634,0.9815521,-30.14711,2.404358,-26.41714,3.26857,0.4632957,0.5078219,0.8054304,0.0,0.0,0.0,30.84027,4.089874,-26.94925,-1.0,0.5756559,0.4554919,0.0500735,1.171845,-0.28527,-0.03728544,-0.07293402,0.007313021,0.436855,24.97548,29.908590361445786
2,-0.1185608,-0.1499634,0.9815521,0.7163767,-0.1185608,-0.1499634,0.9815521,-30.14711,2.404358,-26.41714,3.26857,0.4632957,0.5078219,0.8054304,0.0,0.0,0.0,30.84027,4.089874,-26.94925,-1.0,0.5756559,0.4554919,0.0500735,1.171845,-0.28527,-0.03728544,-0.07293402,0.007313021,0.436855,24.97548,29.908590361445786
2,-0.1066589,-0.1118927,0.9879761,0.971723,-0.1066589,-0.1118927,0.9879761,-30.24547,2.454575,-26.46196,3.298416,0.4646307,0.4999691,0.952878,0.0,0.0,0.0,30.98793,4.124222,-26.97017,-1.0,0.5703102,0.4487423,0.05018616,1.171834,-0.2852697,-0.03726405,-0.07308128,0.007213519,0.436855,24.97548,29.908590361445786
2,-0.1066589,-0.1118927,0.9879761,0.971723,-0.1066589,-0.1118927,0.9879761,-30.24547,2.454575,-26.46196,3.298416,0.4646307,0.4999691,0.952878,0.0,0.0,0.0,30.98793,4.124222,-26.97017,-1.0,0.5703102,0.4487423,0.05018616,1.171834,-0.2852697,-0.03726405,-0.07308128,0.007213519,0.436855,24.97548,29.908590361445786
2,-0.08604431,-0.1146851,0.9896545,1.0,-0.1078339,-0.1157379,0.9873962,-30.28337,2.422821,-26.36546,3.186539,0.4661127,0.5007708,1.0,-0.07469177,-0.1141205,0.9906464,31.01625,4.103745,-26.98222,3.258896,0.5691289,0.4485695,0.05024087,1.171846,-0.2853175,-0.03731061,-0.07300448,0.007045266,0.436855,24.97548,29.908590361445786
2,-0.08604431,-0.1146851,0.9896545,1.0,-0.1078339,-0.1157379,0.9873962,-30.28337,2.422821,-26.36546,3.186539,0.4661127,0.5007708,1.0,-0.07469177,-0.1141205,0.9906464,31.01625,4.103745,-26.98222,3.258896,0.5691289,0.4485695,0.05024087,1.171846,-0.2853175,-0.03731061,-0.07300448,0.007045266,0.436855,24.97548,29.908590361445786
2,-0.08641052,-0.1156464,0.9895172,1.0,-0.1051178,-0.1169434,0.9875488,-30.29192,2.43045,-26.36357,3.238068,0.4659275,0.5007191,1.0,-0.0760498,-0.1149139,0.990448,31.02158,4.106384,-26.98709,3.227158,0.5691864,0.4486531,0.05025017,1.171869,-0.2853718,-0.03738821,-0.07266352,0.006890218,0.436855,24.97548,29.908590361445786
2,-0.08641052,-0.1156464,0.9895172,1.0,-0.1051178,-0.1169434,0.9875488,-30.29192,2.43045,-26.36357,3.238068,0.4659275,0.5007191,1.0,-0.0760498,-0.1149139,0.990448,31.02158,4.106384,-26.98709,3.227158,0.5691864,0.4486531,0.05025017,1.171869,-0.2853718,-0.03738821,-0.07266352,0.006890218,0.436855,24.97548,29.908590361445786
2,-0.09020996,-0.1150513,0.9892426,1.0,-0.1057587,-0.1145477,0.9877625,-30.29716,2.43428,-26.36159,3.209335,0.4662225,0.5001518,1.0,-0.07617188,-0.1154785,0.9903717,31.02199,4.11087,-26.99191,3.226929,0.5691954,0.4486474,0.05038571,1.171884,-0.2854236,-0.03750261,-0.07242782,0.006802066,0.436855,24.97548,29.908590361445786
2,-0.09020996,-0.1150513,0.9892426,1.0,-0.1057587,-0.1145477,0.9877625,-30.29716,2.43428,-26.36159,3.209335,0.4662225,0.5001518,1.0,-0.07617188,-0.1154785,0.9903717,31.02199,4.11087,-26.99191,3.226929,0.5691954,0.4486474,0.05038571,1.171884,-0.2854236,-0.03750261,-0.07242782,0.006802066,0.436855,24.97548,29.908590361445786
2,-0.09216309,-0.1138,0.989212,1.0,-0.1069794,-0.1118164,0.9879456,-30.3045,2.433487,-26.35263,3.201996,0.4666746,0.4996362,1.0,-0.07661438,-0.1158447,0.9902954,31.02473,4.120804,-27.00867,3.226303,0.5691909,0.4485199,0.05054343,1.171929,-0.2854533,-0.03757804,-0.0721925,0.006660387,0.436855,24.97548,29.908590361445786
2,-0.09216309,-0.1138,0.989212,1.0,-0.1069794,-0.1118164,0.9879456,-30.3045,2.433487,-26.35263,3.201996,0.4666746,0.4996362,1.0,-0.07661438,-0.1158447,0.9902954,31.02473,4.120804,-27.00867,3.226303,0.5691909,0.4485199,0.05054343,1.171929,-0.2854533,-0.03757804,-0.0721925,0.006660387,0.436855,24.97548,29.908590361445786
2,-0.09257507,-0.1135101,0.989212,1.0,-0.1069031,-0.110321,0.9881134,-30.30896,2.432892,-26.3501,3.191315,0.4668159,0.4993637,1.0,-0.07701111,-0.1169434,0.9901428,31.02742,4.128571,-27.0305,3.218933,0.5691864,0.4486474,0.05069423,1.171978,-0.2854793,-0.0377604,-0.07206916,0.006285139,0.436855,24.97548,29.908590361445786
2,-0.09257507,-0.1135101,0.989212,1.0,-0.1069031,-0.110321,0.9881134,-30.30896,2.432892,-26.3501,3.191315,0.4668159,0.4993637,1.0,-0.07701111,-0.1169434,0.9901428,31.02742,4.128571,-27.0305,3.218933,0.5691864,0.4486474,0.05069423,1.171978,-0.2854793,-0.0377604,-0.07206916,0.006285139,0.436855,24.97548,29.908590361445786
2,-0.09289551,-0.1134796,0.9891815,1.0,-0.107193,-0.1103973,0.9880829,-30.30745,2.432297,-26.34839,3.18309,0.4668159,0.4993896,1.0,-0.07707214,-0.1168518,0.9901428,31.02872,4.128815,-27.0345,3.207504,0.5691553,0.4486531,0.05079162,1.172042,-0.2854419,-0.03796838,-0.07214283,0.005831333,0.436855,24.97548,29.908590361445786
2,-0.09289551,-0.1134796,0.9891815,1.0,-0.107193,-0.1103973,0.9880829,-30.30745,2.432297,-26.34839,3.18309,0.4668159,0.4993896,1.0,-0.07707214,-0.1168518,0.9901428,31.02872,4.128815,-27.0345,3.207504,0.5691553,0.4486531,0.05079162,1.172042,-0.2854419,-0.03796838,-0.07214283,0.005831333,0.436855,24.97548,29.908590361445786
2,-0.09335327,-0.1134186,0.9891357,1.0,-0.1073303,-0.1108856,0.9880066,-30.30655,2.43335,-26.3421,3.159576,0.4668157,0.4993683,1.0,-0.07730103,-0.1163025,0.9901886,31.03699,4.135284,-27.06306,3.153702,0.5689438,0.4485655,0.0508796,1.172124,-0.2853386,-0.0383225,-0.07225851,0.005482303,0.436855,24.97548,29.908590361445786
2,-0.09335327,-0.1134186,0.9891357,1.0,-0.1073303,-0.1108856,0.9880066,-30.30655,2.43335,-26.3421,3.159576,0.4668157,0.4993683,1.0,-0.07730103,-0.1163025,0.9901886,31.03699,4.135284,-27.06306,3.153702,0.5689438,0.4485655,0.0508796,1.172124,-0.2853386,-0.0383225,-0.07225851,0.005482303,0.436855,24.97548,29.908590361445786
2,-0.09375,-0.1126862,0.9891815,1.0,-0.107254,-0.111557,0.9879456,-30.30655,2.43335,-26.32306,3.122879,0.4668157,0.4992999,1.0,-0.07833862,-0.1139221,0.990387,31.04793,4.14119,-27.08546,3.150665,0.5687683,0.4481515,0.05096567,1.172162,-0.2852118,-0.038586,-0.07227171,0.005016779,0.436855,25.06352,29.908590361445786
2,-0.09375,-0.1126862,0.9891815,1.0,-0.107254,-0.111557,0.9879456,-30.30655,2.43335,-26.32306,3.122879,0.4668157,0.4992999,1.0,-0.07833862,-0.1139221,0.990387,31.04793,4.14119,-27.08546,3.150665,0.5687683,0.4481515,0.05096567,1.172162,-0.2852118,-0.038586,-0.07227171,0.005016779,0.436855,25.06352,29.908590361445786
2,-0.09405518,-0.1136475,0.9890442,1.0,-0.1076355,-0.1119537,0.987854,-30.30438,2.43335,-26.3073,3.098022,0.4668157,0.4992151,1.0,-0.07920837,-0.1154633,0.9901428,31.05336,4.152542,-27.10159,3.133377,0.5687459,0.4481757,0.05102658,1.172162,-0.2850775,-0.03869321,-0.07222138,0.004559289,0.436855,23.94911,29.908590361445786
2,-0.09405518,-0.1136475,0.9890442,1.0,-0.1076355,-0.1119537,0.987854,-30.30438,2.43335,-26.3073,3.098022,0.4668157,0.4992151,1.0,-0.07920837,-0.1154633,0.9901428,31.05336,4.152542,-27.10159,3.133377,0.5687459,0.4481757,0.05102658,1.172162,-0.2850775,-0.03869321,-0.07222138,0.004559289,0.436855,23.94911,29.908590361445786
2,-0.09394836,-0.114563,0.9889526,1.0,-0.1076508,-0.1133728,0.9877014,-30.30438,2.43425,-26.29973,3.09346,0.4668162,0.4993683,1.0,-0.07884216,-0.1158447,0.9901276,31.05545,4.162354,-27.13298,3.112595,0.5686389,0.4481757,0.05118668,1.172075,-0.2850345,-0.03838485,-0.07203162,0.004055968,0.436855,23.94911,29.908590361445786
2,-0.09394836,-0.114563,0.9889526,1.0,-0.1076508,-0.1133728,0.9877014,-30.30438,2.43425,-26.29973,3.09346,0.4668162,0.4993683,1.0,-0.07884216,-0.1158447,0.9901276,31.05545,4.162354,-27.13298,3.112595,0.5686389,0.4481757,0.05118668,1.172075,-0.2850345,-0.03838485,-0.07203162,0.004055968,0.436855,23.94911,29.908590361445786
2,-0.0942688,-0.1145325,0.9889221,1.0,-0.1080475,-0.1137695,0.9876099,-30.30438,2.43425,-26.29501,3.084167,0.4668853,0.4993883,1.0,-0.07879639,-0.1153564,0.9901886,31.05545,4.162354,-27.14259,3.106873,0.5686389,0.4481757,0.05147469,1.171983,-0.2849718,-0.03811625,-0.07181481,0.004126988,0.436855,23.94911,29.908590361445786
2,-0.0942688,-0.1145325,0.9889221,1.0,-0.1080475,-0.1137695,0.9876099,-30.30438,2.43425,-26.29501,3.084167,0.4668853,0.4993883,1.0,-0.07879639,-0.1153564,0.9901886,31.05545,4.162354,-27.14259,3.106873,0.5686389,0.4481757,0.05147469,1.171983,-0.2849718,-0.03811625,-0.07181481,0.004126988,0.436855,23.94911,29.908590361445786
2,-0.0942688,-0.1145325,0.9889221,1.0,-0.1080475,-0.1137695,0.9876099,-30.30438,2.43425,-26.29501,3.084167,0.4668853,0.4993883,1.0,-0.07879639,-0.1153564,0.9901886,31.05545,4.162354,-27.14259,3.106873,0.5686389,0.4481757,0.05164063,1.17192,-0.2850232,-0.03778978,-0.07156882,0.003940433,0.436855,23.94911,29.908590361445786
2,-0.0942688,-0.1145325,0.9889221,1.0,-0.1080475,-0.1137695,0.9876099,-30.30438,2.43425,-26.29501,3.084167,0.4668853,0.4993883,1.0,-0.07879639,-0.1153564,0.9901886,31.05545,4.162354,-27.14259,3.106873,0.5686389,0.4481757,0.05164063,1.17192,-0.2850232,-0.03778978,-0.07156882,0.003940433,0.436855,23.94911,29.908590361445786
2,-0.0942688,-0.1145325,0.9889221,1.0,-0.1080475,-0.1137695,0.9876099,-30.30438,2.43425,-26.29501,3.084167,0.4668853,0.4993883,1.0,-0.07879639,-0.1153564,0.9901886,31.05545,4.162354,-27.14259,3.106873,0.5686389,0.4481757,0.05184782,1.171882,-0.285028,-0.03738701,-0.07129471,0.003487026,0.436855,23.94911,29.908590361445786
2,-0.0942688,-0.1145325,0.9889221,1.0,-0.1080475,-0.1137695,0.9876099,-30.30438,2.43425,-26.29501,3.084167,0.4668853,0.4993883,1.0,-0.07879639,-0.1153564,0.9901886,31.05545,4.162354,-27.14259,3.106873,0.5686389,0.4481757,0.05184782,1.171882,-0.285028,-0.03738701,-0.07129471,0.003487026,0.436855,23.94911,29.908590361445786
2,-0.09521484,-0.1150665,0.9887695,1.0,-0.1083374,-0.1144257,0.9875031,-30.30629,2.437515,-26.29501,3.055344,0.4670053,0.4993883,1.0,-0.07974243,-0.1157837,0.9900513,31.05545,4.162354,-27.1568,3.041595,0.5688198,0.4483483,0.05201256,1.171877,-0.2850348,-0.03697965,-0.07107271,0.003264097,0.436855,23.94911,29.908590361445786
2,-0.09521484,-0.1150665,0.9887695,1.0,-0.1083374,-0.1144257,0.9875031,-30.30629,2.437515,-26.29501,3.055344,0.4670053,0.4993883,1.0,-0.07974243,-0.1157837,0.9900513,31.05545,4.162354,-27.1568,3.041595,0.5688198,0.4483483,0.05201256,1.171877,-0.2850348,-0.03697965,-0.07107271,0.003264097,0.436855,23.94911,29.908590361445786
2,-0.09379578,-0.1145782,0.9889679,1.0,-0.1073761,-0.1125488,0.9878235,-30.30717,2.439743,-26.28973,3.036835,0.4668853,0.4989297,1.0,-0.07971191,-0.1166534,0.9899597,31.05545,4.156097,-27.15919,2.997864,0.5688198,0.4487204,0.05224657,1.171795,-0.2851954,-0.03639989,-0.07081719,0.002944907,0.436855,17.14694,29.908590361445786
2,-0.09379578,-0.1145782,0.9889679,1.0,-0.1073761,-0.1125488,0.9878235,-30.30717,2.439743,-26.28973,3.036835,0.4668853,0.4989297,1.0,-0.07971191,-0.1166534,0.9899597,31.05545,4.156097,-27.15919,2.997864,0.5688198,0.4487204,0.05224657,1.171795,-0.2851954,-0.03639989,-0.07081719,0.002944907,0.436855,17.14694,29.908590361445786
2,-0.084198,-0.1242981,0.9886627,1.0,-0.09738159,-0.1213074,0.9878235,-30.18793,2.396881,-26.49677,2.89772,0.461274,0.5035567,1.0,-0.07530212,-0.126297,0.9891205,31.13283,4.08931,-27.2037,2.824387,0.5654741,0.452964,0.05239832,1.171712,-0.2853584,-0.03583029,-0.07075372,0.002780954,0.436855,17.14694,29.908590361445786
2,-0.084198,-0.1242981,0.9886627,1.0,-0.09738159,-0.1213074,0.9878235,-30.18793,2.396881,-26.49677,2.89772,0.461274,0.5035567,1.0,-0.07530212,-0.126297,0.9891205,31.13283,4.08931,-27.2037,2.824387,0.5654741,0.452964,0.05272377,1.171568,-0.2859015,-0.03418165,-0.0704885,0.002456618,0.436855,17.14694,29.908590361445786
2,-0.084198,-0.1242981,0.9886627,1.0,-0.09738159,-0.1213074,0.9878235,-30.18793,2.396881,-26.49677,2.89772,0.461274,0.5035567,1.0,-0.07530212,-0.126297,0.9891205,31.13283,4.08931,-27.2037,2.824387,0.5654741,0.452964,0.05272377,1.171568,-0.2859015,-0.03418165,-0.0704885,0.002456618,0.436855,17.14694,29.908590361445786
2,-0.084198,-0.1242981,0.9886627,1.0,-0.09738159,-0.1213074,0.9878235,-30.18793,2.396881,-26.49677,2.89772,0.461274,0.5035567,1.0,-0.07530212,-0.126297,0.9891205,31.13283,4.08931,-27.2037,2.824387,0.5654741,0.452964,0.05288219,1.171452,-0.2863514,-0.03281626,-0.07031822,0.002322546,0.436855,17.14694,29.908590361445786
2,-0.084198,-0.1242981,0.9886627,1.0,-0.09738159,-0.1213074,0.9878235,-30.18793,2.396881,-26.49677,2.89772,0.461274,0.5035567,1.0,-0.07530212,-0.126297,0.9891205,31.13283,4.08931,-27.2037,2.824387,0.5654741,0.452964,0.05288219,1.171452,-0.2863514,-0.03281626,-0.07031822,0.002322546,0.436855,17.14694,29.908590361445786
2,-0.05360413,-0.1495667,0.9872894,1.0,-0.07229614,-0.1380157,0.9877777,-29.94992,2.227982,-26.35651,2.762802,0.449203,0.5105575,1.0,-0.0413208,-0.1571198,0.9867096,31.2565,3.901886,-27.07155,2.878006,0.5553259,0.4634426,0.05337477,1.171071,-0.2875155,-0.03011205,-0.06974393,0.002042627,0.436855,17.14694,29.908590361445786
2,-0.05360413,-0.1495667,0.9872894,1.0,-0.07229614,-0.1380157,0.9877777,-29.94992,2.227982,-26.35651,2.762802,0.449203,0.5105575,1.0,-0.0413208,-0.1571198,0.9867096,31.2565,3.901886,-27.07155,2.878006,0.5553259,0.4634426,0.05359352,1.170971,-0.2881378,-0.02924189,-0.06952523,0.001777371,0.436855,17.14694,29.908590361445786
2,-0.05360413,-0.1495667,0.9872894,1.0,-0.07229614,-0.1380157,0.9877777,-29.94992,2.227982,-26.35651,2.762802,0.449203,0.5105575,1.0,-0.0413208,-0.1571198,0.9867096,31.2565,3.901886,-27.07155,2.878006,0.5553259,0.4634426,0.05395174,1.170901,-0.2895174,-0.02885821,-0.06906376,0.0006459354,0.436855,17.14694,29.908590361445786
2,-0.05360413,-0.1495667,0.9872894,1.0,-0.07229614,-0.1380157,0.9877777,-29.94992,2.227982,-26.35651,2.762802,0.449203,0.5105575,1.0,-0.0413208,-0.1571198,0.9867096,31.2565,3.901886,-27.07155,2.878006,0.5553259,0.4634426,0.05395174,1.170901,-0.2895174,-0.02885821,-0.06906376,0.0006459354,0.436855,17.14694,29.908590361445786
2,-0.03062439,-0.1800537,0.9831696,1.0,-0.04663086,-0.1827393,0.9820404,-29.75682,2.082016,-26.34662,2.895889,0.4384035,0.5230154,1.0,-0.01914978,-0.1781006,0.9838104,31.40785,3.770676,-27.09126,2.814316,0.5463924,0.4716652,0.0542829,1.171058,-0.2909155,-0.03003103,-0.06885318,-0.0004401308,0.436855,17.14694,29.908590361445786
2,-0.03062439,-0.1800537,0.9831696,1.0,-0.04663086,-0.1827393,0.9820404,-29.75682,2.082016,-26.34662,2.895889,0.4384035,0.5230154,1.0,-0.01914978,-0.1781006,0.9838104,31.40785,3.770676,-27.09126,2.814316,0.5463924,0.4716652,0.0542829,1.171058,-0.2909155,-0.03003103,-0.06885318,-0.0004401308,0.436855,17.14694,29.908590361445786
2,-0.01145935,-0.1931763,0.9810944,1.0,-0.02223206,-0.1941833,0.9806976,-29.62755,2.071915,-26.38084,2.826233,0.4300316,0.5255671,1.0,-0.002365112,-0.1923218,0.9813232,31.70108,3.777512,-27.08414,2.800476,0.5335848,0.4738276,0.05447233,1.171138,-0.2916348,-0.03046504,-0.06882504,-0.0008886853,0.436855,17.14694,29.908590361445786
2,-0.01145935,-0.1931763,0.9810944,1.0,-0.02223206,-0.1941833,0.9806976,-29.62755,2.071915,-26.38084,2.826233,0.4300316,0.5255671,1.0,-0.002365112,-0.1923218,0.9813232,31.70108,3.777512,-27.08414,2.800476,0.5335848,0.4738276,0.05447233,1.171138,-0.2916348,-0.03046504,-0.06882504,-0.0008886853,0.436855,17.14694,29.908590361445786
2,-0.01046753,-0.1919708,0.9813385,1.0,-0.02287292,-0.1914063,0.9812317,-29.62415,2.070786,-26.37914,2.823471,0.4300316,0.5250994,1.0,0.001174927,-0.1924744,0.9812927,31.70947,3.775696,-27.08553,2.754196,0.5326909,0.4739227,0.05486739,1.171121,-0.2930955,-0.03089464,-0.06862024,-0.0009296598,0.436855,17.14694,29.908590361445786
2,-0.01025391,-0.1951294,0.9807129,1.0,-0.02490234,-0.1921997,0.9810333,-29.62337,2.06662,-26.38274,2.811844,0.4303432,0.5254027,1.0,0.007003784,-0.1985168,0.9800568,31.71951,3.738434,-27.09695,2.679581,0.5313464,0.4763349,0.05505025,1.171065,-0.2938452,-0.03085555,-0.06842212,-0.0008279211,0.436855,-18.80515,29.908590361445786
2,-0.008804321,-0.1950226,0.9807434,1.0,-0.02384949,-0.1905823,0.981369,-29.62253,2.058411,-26.38646,2.808395,0.4301379,0.5254251,1.0,0.00819397,-0.1999817,0.9797516,31.72586,3.715973,-27.10577,2.704773,0.5309286,0.4774344,0.0552448,1.171019,-0.2944756,-0.03098591,-0.06824713,-0.0005854287,0.436855,-18.80515,29.908590361445786
2,-0.008804321,-0.1950226,0.9807434,1.0,-0.02384949,-0.1905823,0.981369,-29.62253,2.058411,-26.38646,2.808395,0.4301379,0.5254251,1.0,0.00819397,-0.1999817,0.9797516,31.72586,3.715973,-27.10577,2.704773,0.5309286,0.4774344,0.0552448,1.171019,-0.2944756,-0.03098591,-0.06824713,-0.0005854287,0.436855,-18.80515,29.908590361445786
2,-0.008560181,-0.1937866,0.9810028,1.0,-0.02386475,-0.1894836,0.9815826,-29.6225,2.045776,-26.39076,2.808395,0.4301379,0.5256931,1.0,0.007766724,-0.198349,0.9800873,31.73056,3.706268,-27.10602,2.723877,0.5308411,0.4774752,0.05558455,1.170884,-0.295735,-0.03066104,-0.06794427,-0.0002729575,0.436855,-18.80515,29.908590361445786
2,-0.008560181,-0.1937866,0.9810028,1.0,-0.02386475,-0.1894836,0.9815826,-29.6225,2.045776,-26.39076,2.808395,0.4301379,0.5256931,1.0,0.007766724,-0.198349,0.9800873,31.73056,3.706268,-27.10602,2.723877,0.5308411,0.4774752,0.05558455,1.170884,-0.295735,-0.03066104,-0.06794427,-0.0002729575,0.436855,-18.80515,29.908590361445786
2,-0.008773804,-0.1939087,0.9809723,1.0,-0.02375793,-0.1880951,0.9818573,-29.62157,2.032394,-26.38646,2.803223,0.4300911,0.5258465,1.0,0.006912231,-0.1999359,0.9797821,31.73482,3.699509,-27.1057,2.720139,0.5308411,0.4779848,0.055915,1.170683,-0.2968562,-0.02946551,-0.06750179,-0.0001220703,0.436855,-18.80515,29.908590361445786
2,-0.008666992,-0.1931458,0.9811249,1.0,-0.02372742,-0.1870117,0.9820557,-29.6208,2.022049,-26.38324,2.795471,0.4300616,0.5259624,1.0,0.006652832,-0.1993561,0.9799042,31.73984,3.693054,-27.10487,2.719727,0.5307132,0.4780909,0.05609214,1.170627,-0.2973777,-0.02903811,-0.06733381,-0.0001220703,0.436855,-18.80515,29.908590361445786
2,-0.008666992,-0.1931458,0.9811249,1.0,-0.02372742,-0.1870117,0.9820557,-29.6208,2.022049,-26.38324,2.795471,0.4300616,0.5259624,1.0,0.006652832,-0.1993561,0.9799042,31.73984,3.693054,-27.10487,2.719727,0.5307132,0.4780909,0.05609214,1.170627,-0.2973777,-0.02903811,-0.06733381,-0.0001220703,0.436855,-18.80515,29.908590361445786
2,-0.008056641,-0.1949768,0.9807739,1.0,-0.02232361,-0.1910553,0.9813232,-29.61989,2.012558,-26.38101,2.771545,0.4297925,0.526962,1.0,0.005950928,-0.1987762,0.980011,31.74728,3.694061,-27.10463,2.716965,0.5305813,0.4779441,0.05650592,1.170651,-0.2981759,-0.02860407,-0.06661819,0.0,0.436855,-18.80515,29.908590361445786
2,-0.008453369,-0.1951904,0.9807129,1.0,-0.02261353,-0.1919556,0.9811401,-29.61711,2.004456,-26.38016,2.735733,0.4297491,0.5273667,1.0,0.006118774,-0.1985016,0.980072,31.75563,3.699966,-27.10144,2.70752,0.5302677,0.4776615,0.05684769,1.17063,-0.2989938,-0.02780177,-0.0660283,-0.0001220703,0.436855,-18.80515,29.908590361445786
2,-0.008453369,-0.1951904,0.9807129,1.0,-0.02261353,-0.1919556,0.9811401,-29.61711,2.004456,-26.38016,2.735733,0.4297491,0.5273667,1.0,0.006118774,-0.1985016,0.980072,31.75563,3.699966,-27.10144,2.70752,0.5302677,0.4776615,0.05684769,1.17063,-0.2989938,-0.02780177,-0.0660283,-0.0001220703,0.436855,-18.80515,29.908590361445786
2,-0.008331299,-0.195755,0.9806061,1.0,-0.02175903,-0.1938171,0.9807892,-29.61685,2.00322,-26.37984,2.735596,0.429595,0.5277334,1.0,0.005630493,-0.1977234,0.9802399,31.75854,3.701355,-27.10023,2.717133,0.5302547,0.4774686,0.05693102,1.170587,-0.2994139,-0.02741858,-0.06570525,-0.000211432,0.436855,-18.80515,30.75
2,-0.007583618,-0.1947784,0.9808044,1.0,-0.02174377,-0.1926727,0.9810181,-29.61537,1.995651,-26.37627,2.722153,0.4295453,0.5277442,1.0,0.006820679,-0.1968689,0.9803925,31.76666,3.702744,-27.09483,2.723984,0.5297759,0.4772211,0.0572387,1.170633,-0.3001316,-0.02758465,-0.06508626,-0.0003860202,0.436855,-18.80515,30.75
2,-0.007583618,-0.1947784,0.9808044,1.0,-0.02174377,-0.1926727,0.9810181,-29.61537,1.995651,-26.37627,2.722153,0.4295453,0.5277442,1.0,0.006820679,-0.1968689,0.9803925,31.76666,3.702744,-27.09483,2.723984,0.5297759,0.4772211,0.0572387,1.170633,-0.3001316,-0.02758465,-0.06508626,-0.0003860202,0.436855,-18.80515,30.75
2,-0.006088257,-0.1932678,0.9811096,1.0,-0.01799011,-0.1928864,0.9810486,-29.61229,1.994492,-26.36987,2.694565,0.4288231,0.5277442,1.0,0.006240845,-0.1936493,0.9810486,31.7827,3.705795,-27.08131,2.697571,0.5293252,0.4764077,0.05736172,1.170767,-0.3004448,-0.02807883,-0.06476886,-0.000791106,0.436855,-37.20546,30.75
2,-0.006088257,-0.1932678,0.9811096,1.0,-0.01799011,-0.1928864,0.9810486,-29.61229,1.994492,-26.36987,2.694565,0.4288231,0.5277442,1.0,0.006240845,-0.1936493,0.9810486,31.7827,3.705795,-27.08131,2.697571,0.5293252,0.4764077,0.05736172,1.170767,-0.3004448,-0.02807883,-0.06476886,-0.000791106,0.436855,-37.20546,30.75
2,-0.006652832,-0.1937866,0.9810181,1.0,-0.01783752,-0.1931305,0.9810028,-29.60223,1.995605,-26.36827,2.695694,0.4284627,0.5277334,1.0,0.004959106,-0.194458,0.980896,31.80437,3.711655,-27.0809,2.697586,0.5288126,0.4763486,0.05752861,1.171131,-0.3010464,-0.02981691,-0.06418543,-0.001596276,0.436855,-37.20546,30.75
2,-0.006973267,-0.1932373,0.9811249,1.0,-0.01853943,-0.1923523,0.9811401,-29.59828,1.995651,-26.36826,2.694702,0.4284506,0.5276015,1.0,0.005004883,-0.1941223,0.980957,31.81314,3.714676,-27.08052,2.698578,0.5285067,0.4761874,0.0576669,1.171309,-0.3013673,-0.03083115,-0.06395052,-0.002002102,0.436855,-37.20546,30.75
2,-0.006973267,-0.1932373,0.9811249,1.0,-0.01853943,-0.1923523,0.9811401,-29.59828,1.995651,-26.36826,2.694702,0.4284506,0.5276015,1.0,0.005004883,-0.1941223,0.980957,31.81314,3.714676,-27.08052,2.698578,0.5285067,0.4761874,0.0576669,1.171309,-0.3013673,-0.03083115,-0.06395052,-0.002002102,0.436855,-37.20546,30.75
2,-0.006973267,-0.1932373,0.9811249,1.0,-0.01853943,-0.1923523,0.9811401,-29.59828,1.995651,-26.36826,2.694702,0.4284506,0.5276015,1.0,0.005004883,-0.1941223,0.980957,31.81314,3.714676,-27.08052,2.698578,0.5285067,0.4761874,0.05784333,1.171856,-0.3018328,-0.03345172,-0.06348173,-0.002501697,0.436855,-37.20546,30.75
2,-0.006973267,-0.1932373,0.9811249,1.0,-0.01853943,-0.1923523,0.9811401,-29.59828,1.995651,-26.36826,2.694702,0.4284506,0.5276015,1.0,0.005004883,-0.1941223,0.980957,31.81314,3.714676,-27.08052,2.698578,0.5285067,0.4761874,0.05794442,1.172104,-0.3020473,-0.03452649,-0.06331827,-0.002737752,0.436855,-37.20546,30.75
2,-0.006973267,-0.1932373,0.9811249,1.0,-0.01853943,-0.1923523,0.9811401,-29.59828,1.995651,-26.36826,2.694702,0.4284506,0.5276015,1.0,0.005004883,-0.1941223,0.980957,31.81314,3.714676,-27.08052,2.698578,0.5285067,0.4761874,0.05794442,1.172104,-0.3020473,-0.03452649,-0.06331827,-0.002737752,0.436855,-37.20546,30.75
2,-0.007736206,-0.190506,0.9816437,1.0,-0.0184021,-0.1909485,0.9814148,-29.59096,2.006134,-26.36615,2.703262,0.4281906,0.5269895,1.0,0.003189087,-0.190033,0.9817657,31.82315,3.718338,-27.07928,2.697952,0.5284799,0.4753194,0.05808544,1.172557,-0.3024665,-0.03640603,-0.06292698,-0.003140791,0.436855,-37.20546,30.75
2,0.03518677,-0.1026154,0.9940948,1.0,0.02139282,-0.09854126,0.9948883,-29.11525,2.582382,-26.56523,2.795593,0.4059389,0.4935317,1.0,0.05352783,-0.1080017,0.9927063,32.08324,4.368134,-27.2505,2.851913,0.5113194,0.4404097,0.05816782,1.172722,-0.3026384,-0.03724445,-0.06274723,-0.003280036,0.436855,-37.20546,30.75
2,0.03518677,-0.1026154,0.9940948,1.0,0.02139282,-0.09854126,0.9948883,-29.11525,2.582382,-26.56523,2.795593,0.4059389,0.4935317,1.0,0.05352783,-0.1080017,0.9927063,32.08324,4.368134,-27.2505,2.851913,0.5113194,0.4404097,0.05816782,1.172722,-0.3026384,-0.03724445,-0.06274723,-0.003280036,0.436855,-37.20546,30.75
2,0.05203247,-0.08666992,0.994873,1.0,0.02540588,-0.07189941,0.9970856,-29.08755,2.681076,-26.99075,2.839462,0.4041706,0.4894905,1.0,0.05308533,-0.08724976,0.9947662,32.10181,4.400757,-27.26677,2.699738,0.5107566,0.4357706,0.05829084,1.172861,-0.3030469,-0.03814575,-0.06255982,-0.003550547,0.436855,-37.20546,30.75
2,0.04553223,-0.1143951,0.9923859,1.0,0.02593994,-0.07955933,0.9964905,-29.11288,2.537704,-26.76334,2.818634,0.4050047,0.493503,1.0,0.04948425,-0.1213837,0.9913635,32.12221,4.285187,-27.21925,2.725555,0.5106356,0.4452712,0.05834317,1.172909,-0.3032233,-0.03852358,-0.06244848,-0.003645797,0.436855,-37.20546,30.75
2,0.04553223,-0.1143951,0.9923859,1.0,0.02593994,-0.07955933,0.9964905,-29.11288,2.537704,-26.76334,2.818634,0.4050047,0.493503,1.0,0.04948425,-0.1213837,0.9913635,32.12221,4.285187,-27.21925,2.725555,0.5106356,0.4452712,0.05834317,1.172909,-0.3032233,-0.03852358,-0.06244848,-0.003645797,0.436855,-37.20546,30.75
2,0.03079224,-0.09608459,0.9948883,1.0,0.02513123,-0.08605957,0.9959717,-29.12297,2.539093,-26.87874,2.787354,0.4054072,0.4955923,1.0,0.04647827,-0.1237946,0.9912109,32.14326,4.205933,-27.09534,2.689316,0.5103835,0.4472431,0.05838406,1.172937,-0.3033856,-0.03869282,-0.06251013,-0.003881375,0.436855,-37.20546,30.75
3,0.0291748,-0.0909729,0.9954224,1.0,0.02629089,-0.08547974,0.9959869,-29.12883,2.534622,-26.87633,2.764435,0.4054072,0.4956183,1.0,0.04547119,-0.1219482,0.9914856,32.14833,4.186234,-27.0733,2.742783,0.5103835,0.447402,0.05841887,1.172961,-0.3037378,-0.03876381,-0.06249332,-0.004136004,0.436855,-37.20546,30.75
3,0.0291748,-0.0909729,0.9954224,1.0,0.02629089,-0.08547974,0.9959869,-29.12883,2.534622,-26.87633,2.764435,0.4054072,0.4956183,1.0,0.04547119,-0.1219482,0.9914856,32.14833,4.186234,-27.0733,2.742783,0.5103835,0.447402,0.05841887,1.172961,-0.3037378,-0.03876381,-0.06249332,-0.004136004,0.436855,-37.20546,30.75
3,0.02627563,-0.09014893,0.995575,1.0,0.02406311,-0.08576965,0.9960175,-29.13336,2.52536,-26.85635,2.744003,0.4059422,0.4957824,1.0,0.04400635,-0.1251526,0.9911499,32.15602,4.183289,-27.0733,2.759155,0.5103744,0.4480621,0.05844212,1.173023,-0.3040375,-0.03878918,-0.06267499,-0.004448454,0.436855,1.470963,30.75
3,0.03404236,-0.1035614,0.9940338,1.0,0.02415466,-0.08467102,0.996109,-29.13684,2.513702,-26.84688,2.731476,0.4060451,0.4958916,1.0,0.04533386,-0.1251068,0.9911041,32.16342,4.181198,-27.06516,2.76297,0.509894,0.4480621,0.05844212,1.173023,-0.3040375,-0.03878918,-0.06267499,-0.004448454,0.436855,1.470963,30.75
3,0.03404236,-0.1035614,0.9940338,1.0,0.02415466,-0.08467102,0.996109,-29.13684,2.513702,-26.84688,2.731476,0.4060451,0.4958916,1.0,0.04533386,-0.1251068,0.9911041,32.16342,4.181198,-27.06516,2.76297,0.509894,0.4480621,0.05844212,1.173023,-0.3040375,-0.03878918,-0.06267499,-0.004448454,0.436855,1.470963,30.75
3,0.03607178,-0.1046906,0.9938354,1.0,0.0246582,-0.0843811,0.9961243,-29.14084,2.498947,-26.80939,2.745056,0.406112,0.4960036,1.0,0.0463562,-0.1229706,0.9913177,32.17116,4.169739,-27.06516,2.772507,0.5094576,0.4480682,0.05843282,1.173054,-0.3044256,-0.03900237,-0.06271266,-0.004908684,0.436855,1.470963,30.75
3,0.03688049,-0.1077118,0.9934845,1.0,0.02520752,-0.08578491,0.9959869,-29.14439,2.489182,-26.76988,2.732819,0.4061541,0.4962072,1.0,0.0451355,-0.1231842,0.9913483,32.17734,4.169739,-27.06516,2.763428,0.5094576,0.4481005,0.05848265,1.173175,-0.3047849,-0.03967717,-0.06275672,-0.005564586,0.436855,1.470963,30.75
3,0.03688049,-0.1077118,0.9934845,1.0,0.02520752,-0.08578491,0.9959869,-29.14439,2.489182,-26.76988,2.732819,0.4061541,0.4962072,1.0,0.0451355,-0.1231842,0.9913483,32.17734,4.169739,-27.06516,2.763428,0.5094576,0.4481005,0.05848265,1.173175,-0.3047849,-0.03967717,-0.06275672,-0.005564586,0.436855,1.470963,30.75
3,0.03746033,-0.1098175,0.9932404,1.0,0.02526855,-0.08868408,0.9957275,-29.14688,2.489914,-26.7608,2.732529,0.4062279,0.496601,1.0,0.04516602,-0.1231384,0.9913483,32.18311,4.169739,-27.06516,2.772324,0.5092571,0.4481005,0.05861402,1.173337,-0.3051586,-0.04050123,-0.06266145,-0.006010026,0.436855,1.470963,30.75
3,0.03700256,-0.1107025,0.9931641,1.0,0.02575684,-0.09063721,0.9955444,-29.15112,2.489044,-26.75462,2.720703,0.4062872,0.4969002,1.0,0.04423523,-0.1235962,0.991333,32.18869,4.16864,-27.06065,2.772522,0.5092264,0.4481644,0.0587455,1.173546,-0.3054974,-0.04165836,-0.06239191,-0.006415373,0.436855,1.470963,30.75
3,0.03700256,-0.1107025,0.9931641,1.0,0.02575684,-0.09063721,0.9955444,-29.15112,2.489044,-26.75462,2.720703,0.4062872,0.4969002,1.0,0.04423523,-0.1235962,0.991333,32.18869,4.16864,-27.06065,2.772522,0.5092264,0.4481644,0.0587455,1.173546,-0.3054974,-0.04165836,-0.06239191,-0.006415373,0.436855,1.470963,30.75
3,0.03746033,-0.1105652,0.9931488,1.0,0.02651978,-0.09140015,0.9954529,-29.15952,2.487305,-26.75237,2.720703,0.4064375,0.4970819,1.0,0.04624939,-0.1259613,0.9909515,32.19182,4.165497,-27.05952,2.779053,0.508776,0.448683,0.05890775,1.173788,-0.3057997,-0.04306696,-0.06202962,-0.006786715,0.436855,1.470963,30.75
3,0.03746033,-0.1105652,0.9931488,1.0,0.02651978,-0.09140015,0.9954529,-29.15952,2.487305,-26.75237,2.720703,0.4064375,0.4970819,1.0,0.04624939,-0.1259613,0.9909515,32.19182,4.165497,-27.05952,2.779053,0.508776,0.448683,0.05890775,1.173788,-0.3057997,-0.04306696,-0.06202962,-0.006786715,0.436855,1.470963,30.75
3,0.03704834,-0.1104279,0.9931793,1.0,0.02796936,-0.09362793,0.9952087,-29.17134,2.482056,-26.73759,2.715851,0.4065894,0.497509,1.0,0.04568481,-0.1263885,0.990921,32.20064,4.165329,-27.05952,2.780975,0.5085722,0.4487584,0.05909979,1.174046,-0.3060975,-0.04458057,-0.06159146,-0.006997515,0.436855,1.470963,30.75
3,0.03704834,-0.1104279,0.9931793,1.0,0.02796936,-0.09362793,0.9952087,-29.17134,2.482056,-26.73759,2.715851,0.4065894,0.497509,1.0,0.04568481,-0.1263885,0.990921,32.20064,4.165329,-27.05952,2.780975,0.5085722,0.4487584,0.05909979,1.174046,-0.3060975,-0.04458057,-0.06159146,-0.006997515,0.436855,1.470963,30.75
3,0.03787231,-0.1127319,0.9928894,1.0,0.02813721,-0.09617615,0.9949646,-29.17578,2.478683,-26.69987,2.716095,0.4067242,0.497727,1.0,0.04637146,-0.1271667,0.9907837,32.2047,4.168106,-27.07268,2.781662,0.5083206,0.4489236,0.05916619,1.174306,-0.3064708,-0.04608862,-0.06117343,-0.007262927,0.436855,9.075256,30.75
3,0.03787231,-0.1127319,0.9928894,1.0,0.02813721,-0.09617615,0.9949646,-29.17578,2.478683,-26.69987,2.716095,0.4067242,0.497727,1.0,0.04637146,-0.1271667,0.9907837,32.2047,4.168106,-27.07268,2.781662,0.5083206,0.4489236,0.05916619,1.174306,-0.3064708,-0.04608862,-0.06117343,-0.007262927,0.436855,9.075256,30.75
3,0.03913879,-0.1152496,0.9925537,1.0,0.02861023,-0.09596252,0.9949646,-29.17737,2.455505,-26.64201,2.709747,0.4067242,0.4979314,1.0,0.04660034,-0.128891,0.9905548,32.21977,4.177475,-27.10783,2.768478,0.5077799,0.4492147,0.05923176,1.174574,-0.3067468,-0.04733574,-0.06086316,-0.007587041,0.436855,9.075256,30.75
3,0.03913879,-0.1152496,0.9925537,1.0,0.02861023,-0.09596252,0.9949646,-29.17737,2.455505,-26.64201,2.709747,0.4067242,0.4979314,1.0,0.04660034,-0.128891,0.9905548,32.21977,4.177475,-27.10783,2.768478,0.5077799,0.4492147,0.05923176,1.174574,-0.3067468,-0.04733574,-0.06086316,-0.007587041,0.436855,9.075256,30.75
3,0.0292511,-0.1261749,0.9915619,1.0,0.01927185,-0.107193,0.9940491,-29.31635,2.387772,-26.65488,2.691162,0.4128639,0.5022476,1.0,0.03669739,-0.1403198,0.9894104,32.07967,4.066437,-26.92445,2.700363,0.5141231,0.4533666,0.05930996,1.174771,-0.3071394,-0.04814958,-0.06035732,-0.007701079,0.436855,9.075256,30.75
3,0.0292511,-0.1261749,0.9915619,1.0,0.01927185,-0.107193,0.9940491,-29.31635,2.387772,-26.65488,2.691162,0.4128639,0.5022476,1.0,0.03669739,-0.1403198,0.9894104,32.07967,4.066437,-26.92445,2.700363,0.5141231,0.4533666,0.05930996,1.174771,-0.3071394,-0.04814958,-0.06035732,-0.007701079,0.436855,9.075256,30.75
3,-0.06729126,-0.1446533,0.9871826,1.0,-0.08009338,-0.1312408,0.9880981,-30.13641,2.335876,-26.65164,2.835358,0.4566445,0.5085822,1.0,-0.06037903,-0.151886,0.9865417,31.17038,4.075653,-27.20453,2.797256,0.5616238,0.4578949,0.05938041,1.174805,-0.3074601,-0.04871814,-0.05999107,-0.007846757,0.436855,9.075256,30.75
3,-0.06729126,-0.1446533,0.9871826,1.0,-0.08009338,-0.1312408,0.9880981,-30.13641,2.335876,-26.65164,2.835358,0.4566445,0.5085822,1.0,-0.06037903,-0.151886,0.9865417,31.17038,4.075653,-27.20453,2.797256,0.5616238,0.4578949,0.05938041,1.174805,-0.3074601,-0.04871814,-0.05999107,-0.007846757,0.436855,9.075256,30.75
3,-0.10849,-0.1369629,0.9846039,1.0,-0.1187439,-0.1295319,0.984436,-30.35257,2.292709,-26.71283,2.782837,0.4702995,0.5104831,1.0,-0.09310913,-0.1480408,0.9845734,30.90182,4.019196,-27.25734,2.7724,0.5763882,0.45974,0.05950713,1.174903,-0.3077862,-0.04914903,-0.05972794,-0.007833453,0.436855,9.075256,30.75
3,-0.10849,-0.1369629,0.9846039,1.0,-0.1187439,-0.1295319,0.984436,-30.35257,2.292709,-26.71283,2.782837,0.4702995,0.5104831,1.0,-0.09310913,-0.1480408,0.9845734,30.90182,4.019196,-27.25734,2.7724,0.5763882,0.45974,0.05950713,1.174903,-0.3077862,-0.04914903,-0.05972794,-0.007833453,0.436855,9.075256,30.75
3,-0.1027679,-0.1409149,0.9846649,1.0,-0.1127472,-0.1282349,0.9853058,-30.36691,2.277527,-26.72633,2.753738,0.4697788,0.5108402,1.0,-0.09757996,-0.1474609,0.9842377,30.96893,4.01944,-27.26875,2.903168,0.5748641,0.4597885,0.05959249,1.174985,-0.308108,-0.04965427,-0.05952127,-0.007961756,0.436855,9.075256,30.75
3,-0.1027679,-0.1409149,0.9846649,1.0,-0.1127472,-0.1282349,0.9853058,-30.36691,2.277527,-26.72633,2.753738,0.4697788,0.5108402,1.0,-0.09757996,-0.1474609,0.9842377,30.96893,4.01944,-27.26875,2.903168,0.5748641,0.4597885,0.05959249,1.174985,-0.308108,-0.04965427,-0.05952127,-0.007961756,0.436855,9.075256,30.75
3,-0.1022949,-0.143692,0.984314,1.0,-0.1126404,-0.1295319,0.9851532,-30.36754,2.278656,-26.72633,2.753372,0.4697794,0.5110264,1.0,-0.09892273,-0.1483002,0.9839783,30.97612,4.023224,-27.26875,2.814316,0.5748641,0.4597885,0.05969942,1.175021,-0.3084966,-0.05011042,-0.05939771,-0.008215976,0.436855,9.075256,30.75
3,-0.1022949,-0.143692,0.984314,1.0,-0.1126404,-0.1295319,0.9851532,-30.36754,2.278656,-26.72633,2.753372,0.4697794,0.5110264,1.0,-0.09892273,-0.1483002,0.9839783,30.97612,4.023224,-27.26875,2.814316,0.5748641,0.4597885,0.05969942,1.175021,-0.3084966,-0.05011042,-0.05939771,-0.008215976,0.436855,9.075256,30.75
3,-0.1049347,-0.1390533,0.9846954,1.0,-0.1117706,-0.1308899,0.9850616,-30.37299,2.278534,-26.72847,2.803391,0.4697936,0.511308,1.0,-0.0983429,-0.1469116,0.9842377,30.98962,4.022842,-27.26544,2.834717,0.5743017,0.4595236,0.05976391,1.175161,-0.3088307,-0.05095818,-0.0592548,-0.008338395,0.436855,9.075256,30.75
3,-0.1049347,-0.1390533,0.9846954,1.0,-0.1117706,-0.1308899,0.9850616,-30.37299,2.278534,-26.72847,2.803391,0.4697936,0.511308,1.0,-0.0983429,-0.1469116,0.9842377,30.98962,4.022842,-27.26544,2.834717,0.5743017,0.4595236,0.05976391,1.175161,-0.3088307,-0.05095818,-0.0592548,-0.008338395,0.436855,9.075256,30.75
3,-0.1045074,-0.1410065,0.9844666,1.0,-0.1112518,-0.1334534,0.984787,-30.37511,2.278931,-26.72977,2.78186,0.4697794,0.5117373,1.0,-0.09757996,-0.1487427,0.9840393,31.00145,4.02359,-27.26175,2.846451,0.5737637,0.4597885,0.05980182,1.175399,-0.3091499,-0.05204177,-0.05930331,-0.008650645,0.436855,9.075256,30.75
3,-0.1045074,-0.1410065,0.9844666,1.0,-0.1112518,-0.1334534,0.984787,-30.37511,2.278931,-26.72977,2.78186,0.4697794,0.5117373,1.0,-0.09757996,-0.1487427,0.9840393,31.00145,4.02359,-27.26175,2.846451,0.5737637,0.4597885,0.05980182,1.175399,-0.3091499,-0.05204177,-0.05930331,-0.008650645,0.436855,9.075256,30.75
3,-0.1039734,-0.1406555,0.9845734,1.0,-0.1109467,-0.1335754,0.9848022,-30.37657,2.279938,-26.73137,2.781998,0.4697788,0.5117373,1.0,-0.09677124,-0.1479492,0.9842377,31.00679,4.024628,-27.26175,2.842896,0.573445,0.4596097,0.05986178,1.17551,-0.309449,-0.05299665,-0.05932278,-0.009015866,0.436855,4.294998,30.75
3,-0.1039734,-0.1406555,0.9845734,1.0,-0.1109467,-0.1335754,0.9848022,-30.37657,2.279938,-26.73137,2.781998,0.4697788,0.5117373,1.0,-0.09677124,-0.1479492,0.9842377,31.00679,4.024628,-27.26175,2.842896,0.573445,0.4596097,0.05986178,1.17551,-0.309449,-0.05299665,-0.05932278,-0.009015866,0.436855,4.294998,30.75
3,-0.1025391,-0.1411591,0.9846497,1.0,-0.1109009,-0.1334686,0.9848175,-30.37692,2.279938,-26.73227,2.790451,0.4697788,0.5117373,1.0,-0.09399414,-0.1490021,0.9843445,31.01395,4.025925,-27.26357,2.844513,0.5727241,0.4597558,0.0599041,1.175681,-0.3097527,-0.05399028,-0.05925165,-0.009153645,0.436855,4.294998,30.75
3,-0.1025391,-0.1411591,0.9846497,1.0,-0.1109009,-0.1334686,0.9848175,-30.37692,2.279938,-26.73227,2.790451,0.4697788,0.5117373,1.0,-0.09399414,-0.1490021,0.9843445,31.01395,4.025925,-27.26357,2.844513,0.5727241,0.4597558,0.0599041,1.175681,-0.3097527,-0.05399028,-0.05925165,-0.009153645,0.436855,4.294998,30.75
3,-0.1024628,-0.1422882,0.9844971,1.0,-0.1106262,-0.1351624,0.9846191,-30.37924,2.282578,-26.7339,2.787888,0.4698079,0.5119503,1.0,-0.09414673,-0.1495209,0.9842529,31.02626,4.024628,-27.26433,2.846451,0.5723335,0.4598963,0.05995035,1.175855,-0.3100377,-0.055092,-0.05906816,-0.009013386,0.436855,4.294998,30.75
3,-0.1024628,-0.1422882,0.9844971,1.0,-0.1106262,-0.1351624,0.9846191,-30.37924,2.282578,-26.7339,2.787888,0.4698079,0.5119503,1.0,-0.09414673,-0.1495209,0.9842529,31.02626,4.024628,-27.26433,2.846451,0.5723335,0.4598963,0.05995035,1.175855,-0.3100377,-0.055092,-0.05906816,-0.009013386,0.436855,4.294998,30.75
3,-0.1021423,-0.1436615,0.9843292,1.0,-0.1098175,-0.1360474,0.9845886,-30.38147,2.286804,-26.73457,2.78154,0.4697488,0.5119705,1.0,-0.09423828,-0.151474,0.9839478,31.03493,4.024628,-27.26543,2.84726,0.5720522,0.4602551,0.05996466,1.176,-0.3102955,-0.05575314,-0.05904999,-0.008965315,0.436855,4.294998,30.75
3,-0.1021423,-0.1436615,0.9843292,1.0,-0.1098175,-0.1360474,0.9845886,-30.38147,2.286804,-26.73457,2.78154,0.4697488,0.5119705,1.0,-0.09423828,-0.151474,0.9839478,31.03493,4.024628,-27.26543,2.84726,0.5720522,0.4602551,0.05996466,1.176,-0.3102955,-0.05575314,-0.05904999,-0.008965315,0.436855,4.294998,30.75
3,-0.1028595,-0.1456909,0.983963,1.0,-0.1100769,-0.1380005,0.9842834,-30.38992,2.286804,-26.73784,2.781265,0.4700694,0.5123361,1.0,-0.09545898,-0.1535492,0.9835052,31.04126,4.016464,-27.26625,2.848831,0.572046,0.4609081,0.0599426,1.176087,-0.3105448,-0.05622289,-0.05903889,-0.008921996,0.436855,4.294998,30.75
3,-0.1028595,-0.1456909,0.983963,1.0,-0.1100769,-0.1380005,0.9842834,-30.38992,2.286804,-26.73784,2.781265,0.4700694,0.5123361,1.0,-0.09545898,-0.1535492,0.9835052,31.04126,4.016464,-27.26625,2.848831,0.572046,0.4609081,0.0599426,1.176087,-0.3105448,-0.05622289,-0.05903889,-0.008921996,0.436855,4.294998,30.75
3,-0.1020508,-0.1487885,0.9835815,1.0,-0.1088867,-0.1416321,0.983902,-30.39883,2.282578,-26.7401,2.782333,0.4701587,0.5131361,1.0,-0.09500122,-0.1561584,0.983139,31.04547,3.995316,-27.26927,2.853653,0.5718204,0.4621116,0.05993962,1.176205,-0.3107013,-0.05687127,-0.05912476,-0.008887691,0.436855,4.294998,30.75
3,-0.1020508,-0.1487885,0.9835815,1.0,-0.1088867,-0.1416321,0.983902,-30.39883,2.282578,-26.7401,2.782333,0.4701587,0.5131361,1.0,-0.09500122,-0.1561584,0.983139,31.04547,3.995316,-27.26927,2.853653,0.5718204,0.4621116,0.05993962,1.176205,-0.3107013,-0.05687127,-0.05912476,-0.008887691,0.436855,4.294998,30.75
3,-0.102356,-0.1501312,0.9833527,1.0,-0.1089172,-0.1435852,0.9836121,-30.39917,2.276596,-26.74213,2.774887,0.4701726,0.5136909,1.0,-0.09559631,-0.1568146,0.9829865,31.05016,3.977295,-27.27087,2.892212,0.5717549,0.4628591,0.05983019,1.176294,-0.3108814,-0.05760024,-0.05924662,-0.008694458,0.436855,4.294998,30.75
3,-0.102356,-0.1501312,0.9833527,1.0,-0.1089172,-0.1435852,0.9836121,-30.39917,2.276596,-26.74213,2.774887,0.4701726,0.5136909,1.0,-0.09559631,-0.1568146,0.9829865,31.05016,3.977295,-27.27087,2.892212,0.5717549,0.4628591,0.05983019,1.176294,-0.3108814,-0.05760024,-0.05924662,-0.008694458,0.436855,4.294998,30.75
3,-0.1030426,-0.1520844,0.9829712,1.0,-0.1088104,-0.1451721,0.9833984,-30.39987,2.262817,-26.74303,2.773132,0.4701726,0.5144275,1.0,-0.09715271,-0.1591187,0.9824524,31.05864,3.953995,-27.27975,2.893036,0.5717325,0.4641328,0.05981076,1.176349,-0.3109183,-0.0578348,-0.05936032,-0.008576254,0.436855,4.294998,30.75
3,-0.1034241,-0.1531982,0.9827576,1.0,-0.1087036,-0.1471863,0.9831085,-30.4006,2.259354,-26.74463,2.781158,0.4701726,0.5149038,1.0,-0.09796143,-0.1593933,0.9823303,31.06261,3.949051,-27.28188,2.926331,0.5717325,0.4643764,0.05974305,1.176381,-0.3109711,-0.05807225,-0.05946253,-0.00858407,0.436855,4.294998,30.75
3,-0.1034241,-0.1531982,0.9827576,1.0,-0.1087036,-0.1471863,0.9831085,-30.4006,2.259354,-26.74463,2.781158,0.4701726,0.5149038,1.0,-0.09796143,-0.1593933,0.9823303,31.06261,3.949051,-27.28188,2.926331,0.5717325,0.4643764,0.05974305,1.176381,-0.3109711,-0.05807225,-0.05946253,-0.00858407,0.436855,4.294998,30.75
3,-0.103653,-0.155777,0.9823303,1.0,-0.1087036,-0.1497803,0.9827118,-30.4006,2.25798,-26.74565,2.772766,0.4701726,0.5154238,1.0,-0.09843445,-0.1619568,0.9818726,31.06512,3.948288,-27.28291,2.892853,0.5717325,0.4648682,0.05969155,1.176398,-0.3109821,-0.05799458,-0.05954479,-0.008544923,0.436855,-11.95874,30.75
3,-0.103653,-0.155777,0.9823303,1.0,-0.1087036,-0.1497803,0.9827118,-30.4006,2.25798,-26.74565,2.772766,0.4701726,0.5154238,1.0,-0.09843445,-0.1619568,0.9818726,31.06512,3.948288,-27.28291,2.892853,0.5717325,0.4648682,0.05969155,1.176398,-0.3109821,-0.05799458,-0.05954479,-0.008544923,0.436855,-11.95874,30.75
3,-0.1040802,-0.1583862,0.9818573,1.0,-0.1094666,-0.1511536,0.9824219,-30.4006,2.25705,-26.7466,2.760574,0.4703005,0.5156972,1.0,-0.09861755,-0.165741,0.9812164,31.06601,3.945801,-27.28384,2.892227,0.5717325,0.4656321,0.05960906,1.17638,-0.3109281,-0.05790677,-0.05971859,-0.008429925,0.436855,-11.95874,30.75
3,-0.1040802,-0.1583862,0.9818573,1.0,-0.1094666,-0.1511536,0.9824219,-30.4006,2.25705,-26.7466,2.760574,0.4703005,0.5156972,1.0,-0.09861755,-0.165741,0.9812164,31.06601,3.945801,-27.28384,2.892227,0.5717325,0.4656321,0.05960906,1.17638,-0.3109281,-0.05790677,-0.05971859,-0.008429925,0.436855,-11.95874,30.75
3,-0.1055145,-0.1603851,0.9813843,1.0,-0.1099396,-0.1497498,0.9825897,-30.40221,2.242615,-26.75331,2.760193,0.4704345,0.5159926,1.0,-0.1011658,-0.1708221,0.9800873,31.07047,3.943527,-27.28687,2.891815,0.5720147,0.4666536,0.05945337,1.176326,-0.3108556,-0.05777499,-0.059866,-0.008291801,0.436855,-11.95874,30.75
3,-0.1056824,-0.1615906,0.9811707,1.0,-0.1098938,-0.1528015,0.9821167,-30.40359,2.235794,-26.75871,2.777893,0.470461,0.5168071,1.0,-0.1015625,-0.170166,0.9801636,31.07234,3.940689,-27.28899,2.888504,0.5720211,0.4666563,0.05939782,1.176301,-0.3108076,-0.05767729,-0.06006418,-0.00817142,0.436855,-11.95874,30.75
3,-0.1056824,-0.1615906,0.9811707,1.0,-0.1098938,-0.1528015,0.9821167,-30.40359,2.235794,-26.75871,2.777893,0.470461,0.5168071,1.0,-0.1015625,-0.170166,0.9801636,31.07234,3.940689,-27.28899,2.888504,0.5720211,0.4666563,0.05935061,1.17622,-0.3107212,-0.05750419,-0.05998126,-0.008184175,0.436855,-11.95874,30.75
3,-0.1056824,-0.1615906,0.9811707,1.0,-0.1098938,-0.1528015,0.9821167,-30.40359,2.235794,-26.75871,2.777893,0.470461,0.5168071,1.0,-0.1015625,-0.170166,0.9801636,31.07234,3.940689,-27.28899,2.888504,0.5720211,0.4666563,0.05924976,1.176132,-0.3105354,-0.05678067,-0.06027035,-0.008121117,0.4406983,-11.95874,30.75
3,-0.1056824,-0.1615906,0.9811707,1.0,-0.1098938,-0.1528015,0.9821167,-30.40359,2.235794,-26.75871,2.777893,0.470461,0.5168071,1.0,-0.1015625,-0.170166,0.9801636,31.07234,3.940689,-27.28899,2.888504,0.5720211,0.4666563,0.05924976,1.176132,-0.3105354,-0.05678067,-0.06027035,-0.008121117,0.4406983,-11.95874,30.75
3,-0.1056824,-0.1615906,0.9811707,1.0,-0.1098938,-0.1528015,0.9821167,-30.40359,2.235794,-26.75871,2.777893,0.470461,0.5168071,1.0,-0.1015625,-0.170166,0.9801636,31.07234,3.940689,-27.28899,2.888504,0.5720211,0.4666563,0.05918443,1.176061,-0.3104321,-0.05637085,-0.06025453,-0.007909177,0.4406983,-11.95874,30.75
3,-0.1056824,-0.1615906,0.9811707,1.0,-0.1098938,-0.1528015,0.9821167,-30.40359,2.235794,-26.75871,2.777893,0.470461,0.5168071,1.0,-0.1015625,-0.170166,0.9801636,31.07234,3.940689,-27.28899,2.888504,0.5720211,0.4666563,0.05918443,1.176061,-0.3104321,-0.05637085,-0.06025453,-0.007909177,0.4406983,-11.95874,30.75
3,-0.106781,-0.1685486,0.9798889,1.0,-0.109375,-0.1538391,0.9820099,-30.41315,2.220932,-26.76399,2.777466,0.4706857,0.517527,1.0,-0.1042175,-0.1829376,0.9775696,31.07489,3.93515,-27.29991,2.897491,0.5723872,0.4692421,0.05903077,1.175941,-0.3101702,-0.05567624,-0.06039076,-0.007604696,0.4406983,-11.95874,30.75
3,-0.106781,-0.1685486,0.9798889,1.0,-0.109375,-0.1538391,0.9820099,-30.41315,2.220932,-26.76399,2.777466,0.4706857,0.517527,1.0,-0.1042175,-0.1829376,0.9775696,31.07489,3.93515,-27.29991,2.897491,0.5723872,0.4692421,0.0590446,1.175887,-0.310025,-0.05539142,-0.06055795,-0.00736682,0.4406983,-39.62045,30.75
3,-0.106781,-0.1685486,0.9798889,1.0,-0.109375,-0.1538391,0.9820099,-30.41315,2.220932,-26.76399,2.777466,0.4706857,0.517527,1.0,-0.1042175,-0.1829376,0.9775696,31.07489,3.93515,-27.29991,2.897491,0.5723872,0.4692421,0.0589174,1.175764,-0.3096641,-0.05491062,-0.06085655,-0.007193868,0.4406983,-40.83537,30.75
3,-0.106781,-0.1685486,0.9798889,1.0,-0.109375,-0.1538391,0.9820099,-30.41315,2.220932,-26.76399,2.777466,0.4706857,0.517527,1.0,-0.1042175,-0.1829376,0.9775696,31.07489,3.93515,-27.29991,2.897491,0.5723872,0.4692421,0.0589174,1.175764,-0.3096641,-0.05491062,-0.06085655,-0.007193868,0.4406983,-40.83537,30.75
3,-0.106781,-0.1685486,0.9798889,1.0,-0.109375,-0.1538391,0.9820099,-30.41315,2.220932,-26.76399,2.777466,0.4706857,0.517527,1.0,-0.1042175,-0.1829376,0.9775696,31.07489,3.93515,-27.29991,2.897491,0.5723872,0.4692421,0.0588243,1.175649,-0.3095081,-0.05466488,-0.06101855,-0.007075868,0.4406983,-40.83537,30.75
3,-0.1073761,-0.1675262,0.9799957,1.0,-0.1091156,-0.1539307,0.9820251,-30.41806,2.217819,-26.76399,2.777374,0.470807,0.5176451,1.0,-0.1056366,-0.1809387,0.9777985,31.07199,3.931519,-27.30211,2.903748,0.5727298,0.4690385,0.05868638,1.175633,-0.3093171,-0.05434584,-0.06148903,-0.006956937,0.4406983,-40.83537,30.75
3,0.004135132,-0.1844177,0.9828339,1.0,-0.01202393,-0.1683044,0.9856567,-29.42754,2.14534,-26.5954,2.936005,0.4216614,0.5205166,1.0,0.01538086,-0.1955719,0.9805603,31.98874,3.898438,-27.21053,2.73735,0.5208652,0.4713941,0.05827284,1.175616,-0.3089175,-0.05389374,-0.0632263,-0.006922582,0.4406983,-40.83537,30.75
3,0.004135132,-0.1844177,0.9828339,1.0,-0.01202393,-0.1683044,0.9856567,-29.42754,2.14534,-26.5954,2.936005,0.4216614,0.5205166,1.0,0.01538086,-0.1955719,0.9805603,31.98874,3.898438,-27.21053,2.73735,0.5208652,0.4713941,0.05827284,1.175616,-0.3089175,-0.05389374,-0.0632263,-0.006922582,0.4406983,-40.83537,30.75
3,0.1279602,-0.1891174,0.9735718,1.0,0.1157227,-0.1707916,0.9784698,-28.49818,2.199722,-26.81587,2.978561,0.3692188,0.5211037,1.0,0.13591,-0.201004,0.970108,32.78256,3.934982,-27.33003,2.64238,0.473288,0.4723157,0.05802,1.175553,-0.3087178,-0.05351806,-0.06448272,-0.006948364,0.4406983,-40.83537,30.75
3,0.2087708,-0.1768036,0.9618378,1.0,0.1902618,-0.1613159,0.9683838,-28.02344,2.143524,-26.90503,2.943192,0.340609,0.5224069,1.0,0.2197113,-0.1859589,0.9576569,33.21814,3.916031,-27.46405,2.855972,0.4441296,0.4719471,0.05733883,1.17545,-0.3082572,-0.05276051,-0.06808209,-0.00695158,0.4406983,-40.83537,30.75
3,0.2087708,-0.1768036,0.9618378,1.0,0.1902618,-0.1613159,0.9683838,-28.02344,2.143524,-26.90503,2.943192,0.340609,0.5224069,1.0,0.2197113,-0.1859589,0.9576569,33.21814,3.916031,-27.46405,2.855972,0.4441296,0.4719471,0.05733883,1.17545,-0.3082572,-0.05276051,-0.06808209,-0.00695158,0.4406983,-40.83537,30.75
3,0.2810364,-0.1781769,0.9429932,1.0,0.3041534,-0.171051,0.9371338,-27.81985,2.14917,-27.01865,2.975021,0.3140226,0.5261071,1.0,0.2704926,-0.1813812,0.9454651,33.51538,3.895462,-27.53275,2.853729,0.425172,0.4728558,0.0570128,1.17543,-0.3080401,-0.05220929,-0.06978729,-0.006901023,0.4406983,-40.83537,30.75
3,0.3207245,-0.1899872,0.9279175,0.9619305,0.3516083,-0.1666718,0.9211884,-27.67406,2.109924,-27.1024,3.076309,0.3007126,0.5280733,0.9086708,0.31073,-0.197403,0.9297638,33.60838,3.886444,-27.57584,2.736435,0.4148585,0.4769273,0.05628562,1.175257,-0.3075671,-0.05116115,-0.07413106,-0.006970846,0.4406983,-40.83537,30.75
3,0.3207245,-0.1899872,0.9279175,0.9619305,0.3516083,-0.1666718,0.9211884,-27.67406,2.109924,-27.1024,3.076309,0.3007126,0.5280733,0.9086708,0.31073,-0.197403,0.9297638,33.60838,3.886444,-27.57584,2.736435,0.4148585,0.4769273,0.05628562,1.175257,-0.3075671,-0.05116115,-0.07413106,-0.006970846,0.4406983,-40.83537,30.75
3,0.3360291,-0.1786804,0.9247284,0.9619305,0.3452606,-0.1660156,0.9236908,-27.56186,2.093491,-27.117,3.076767,0.2979842,0.5284988,0.9086708,0.3326721,-0.1832581,0.9250488,33.65399,3.883743,-27.60645,2.710342,0.4094009,0.47501,0.05584216,1.175169,-0.307345,-0.05069593,-0.07647128,-0.00707692,0.4406983,-40.83537,30.75
3,0.3360291,-0.1786804,0.9247284,0.9619305,0.3452606,-0.1660156,0.9236908,-27.56186,2.093491,-27.117,3.076767,0.2979842,0.5284988,0.9086708,0.3326721,-0.1832581,0.9250488,33.65399,3.883743,-27.60645,2.710342,0.4094009,0.47501,0.05584216,1.175169,-0.307345,-0.05069593,-0.07647128,-0.00707692,0.4406983,-40.83537,30.75
3,0.3360291,-0.1786804,0.9247284,0.9619305,0.3452606,-0.1660156,0.9236908,-27.56186,2.093491,-27.117,3.076767,0.2979842,0.5284988,0.9086708,0.3326721,-0.1832581,0.9250488,33.65399,3.883743,-27.60645,2.710342,0.4094009,0.47501,0.05489719,1.175097,-0.3068604,-0.04937046,-0.08114693,-0.007098995,0.4406983,-40.83537,30.75
3,0.3360291,-0.1786804,0.9247284,0.9619305,0.3452606,-0.1660156,0.9236908,-27.56186,2.093491,-27.117,3.076767,0.2979842,0.5284988,0.9086708,0.3326721,-0.1832581,0.9250488,33.65399,3.883743,-27.60645,2.710342,0.4094009,0.47501,0.05449617,1.174974,-0.3066001,-0.04882248,-0.08353579,-0.007087441,0.4406983,-40.83537,30.75
3,0.3360291,-0.1786804,0.9247284,0.9619305,0.3452606,-0.1660156,0.9236908,-27.56186,2.093491,-27.117,3.076767,0.2979842,0.5284988,0.9086708,0.3326721,-0.1832581,0.9250488,33.65399,3.883743,-27.60645,2.710342,0.4094009,0.47501,0.05360925,1.174789,-0.306131,-0.047717,-0.08799069,-0.007011343,0.4406983,-40.83537,30.75
3,0.3360291,-0.1786804,0.9247284,0.9619305,0.3452606,-0.1660156,0.9236908,-27.56186,2.093491,-27.117,3.076767,0.2979842,0.5284988,0.9086708,0.3326721,-0.1832581,0.9250488,33.65399,3.883743,-27.60645,2.710342,0.4094009,0.47501,0.05360925,1.174789,-0.306131,-0.047717,-0.08799069,-0.007011343,0.4406983,-40.83537,30.75
3,0.3316498,-0.1702423,0.9279022,0.9948115,0.3444824,-0.1567078,0.9256134,-27.59575,2.085785,-27.11276,3.067215,0.2992713,0.5270532,0.924713,0.326889,-0.1752167,0.9286652,33.66818,3.879303,-27.60315,2.795822,0.410004,0.4735859,0.05320764,1.174702,-0.305895,-0.04712594,-0.09013279,-0.00698366,0.4406983,9.242416,30.75
3,0.3316498,-0.1702423,0.9279022,0.9948115,0.3444824,-0.1567078,0.9256134,-27.59575,2.085785,-27.11276,3.067215,0.2992713,0.5270532,0.924713,0.326889,-0.1752167,0.9286652,33.66818,3.879303,-27.60315,2.795822,0.410004,0.4735859,0.05278122,1.17464,-0.3057095,-0.04653121,-0.09214449,-0.006780124,0.4406983,9.242416,30.75
3,0.3316498,-0.1702423,0.9279022,0.9948115,0.3444824,-0.1567078,0.9256134,-27.59575,2.085785,-27.11276,3.067215,0.2992713,0.5270532,0.924713,0.326889,-0.1752167,0.9286652,33.66818,3.879303,-27.60315,2.795822,0.410004,0.4735859,0.05244124,1.17458,-0.3054389,-0.04589747,-0.09421156,-0.006493865,0.4406983,9.242416,30.75
3,0.3316498,-0.1702423,0.9279022,0.9948115,0.3444824,-0.1567078,0.9256134,-27.59575,2.085785,-27.11276,3.067215,0.2992713,0.5270532,0.924713,0.326889,-0.1752167,0.9286652,33.66818,3.879303,-27.60315,2.795822,0.410004,0.4735859,0.05244124,1.17458,-0.3054389,-0.04589747,-0.09421156,-0.006493865,0.4406983,9.242416,30.75
3,0.3316498,-0.1702423,0.9279022,0.9948115,0.3444824,-0.1567078,0.9256134,-27.59575,2.085785,-27.11276,3.067215,0.2992713,0.5270532,0.924713,0.326889,-0.1752167,0.9286652,33.66818,3.879303,-27.60315,2.795822,0.410004,0.4735859,0.05160391,1.17439,-0.3050092,-0.04457773,-0.09786773,-0.006179941,0.4406983,9.242416,30.75
3,0.2428284,-0.1591339,0.9569092,1.0,0.2277374,-0.1498108,0.9621124,-28.0712,2.089294,-26.90605,2.923965,0.3357904,0.5225035,1.0,0.2490845,-0.1629944,0.9546509,33.36423,3.900543,-27.49396,3.040131,0.4341793,0.4688691,0.05160391,1.17439,-0.3050092,-0.04457773,-0.09786773,-0.006179941,0.4406983,9.242416,30.75
3,0.2297211,-0.1594543,0.9600983,1.0,0.2152557,-0.1476898,0.9653168,-28.11804,2.121185,-26.8898,3.005234,0.3395638,0.5208503,1.0,0.2355957,-0.1642456,0.9578552,33.31136,3.903122,-27.4763,3.05661,0.4383288,0.4687313,0.05093038,1.174198,-0.3045367,-0.04340282,-0.1009764,-0.005607268,0.4406983,9.242416,30.75
3,0.2297211,-0.1594543,0.9600983,1.0,0.2152557,-0.1476898,0.9653168,-28.11804,2.121185,-26.8898,3.005234,0.3395638,0.5208503,1.0,0.2355957,-0.1642456,0.9578552,33.31136,3.903122,-27.4763,3.05661,0.4383288,0.4687313,0.05093038,1.174198,-0.3045367,-0.04340282,-0.1009764,-0.005607268,0.4406983,9.242416,30.75
4,0.2215729,-0.1662598,0.9608612,1.0,0.2075043,-0.1548004,0.9658966,-28.20667,2.129852,-26.86549,3.066025,0.3439046,0.5215665,1.0,0.2263794,-0.1701813,0.9590454,33.25838,3.930222,-27.47415,2.998886,0.4416956,0.4687859,0.05026972,1.173947,-0.3040878,-0.04217543,-0.1035748,-0.004700896,0.4406983,9.242416,30.75
4,0.2215729,-0.1662598,0.9608612,1.0,0.2075043,-0.1548004,0.9658966,-28.20667,2.129852,-26.86549,3.066025,0.3439046,0.5215665,1.0,0.2263794,-0.1701813,0.9590454,33.25838,3.930222,-27.47415,2.998886,0.4416956,0.4687859,0.05026972,1.173947,-0.3040878,-0.04217543,-0.1035748,-0.004700896,0.4406983,9.242416,30.75
4,0.2157898,-0.1600189,0.9632263,1.0,0.2073212,-0.1508331,0.966568,-28.26352,2.143555,-26.85698,3.031128,0.3458444,0.5203372,1.0,0.2220001,-0.166748,0.9606781,33.22479,3.938248,-27.47249,2.915314,0.4435514,0.4678377,0.04968739,1.173731,-0.303665,-0.04091669,-0.1056664,-0.00386406,0.4406983,9.242416,30.75
4,0.2157898,-0.1600189,0.9632263,1.0,0.2073212,-0.1508331,0.966568,-28.26352,2.143555,-26.85698,3.031128,0.3458444,0.5203372,1.0,0.2220001,-0.166748,0.9606781,33.22479,3.938248,-27.47249,2.915314,0.4435514,0.4678377,0.04968739,1.173731,-0.303665,-0.04091669,-0.1056664,-0.00386406,0.4406983,9.242416,30.75
4,0.2100067,-0.1595917,0.9645691,1.0,0.2034149,-0.1505127,0.9674377,-28.29207,2.1474,-26.84894,2.974442,0.3474538,0.5200469,1.0,0.2158813,-0.1676941,0.9618988,33.20418,3.951767,-27.46873,2.929977,0.4453215,0.4674751,0.04920828,1.173489,-0.3032871,-0.03960067,-0.1072749,-0.003080915,0.4406983,28.64383,30.75
4,0.2046204,-0.1570587,0.9661407,1.0,0.1993866,-0.1519623,0.9680481,-28.31668,2.158844,-26.84184,2.976257,0.3489735,0.5198272,1.0,0.2094269,-0.1617279,0.9643402,33.16753,3.971664,-27.45552,2.962021,0.447708,0.4655846,0.04879653,1.173239,-0.3029573,-0.03831861,-0.1084571,-0.002557657,0.4406983,28.64383,30.75
4,0.2046204,-0.1570587,0.9661407,1.0,0.1993866,-0.1519623,0.9680481,-28.31668,2.158844,-26.84184,2.976257,0.3489735,0.5198272,1.0,0.2094269,-0.1617279,0.9643402,33.16753,3.971664,-27.45552,2.962021,0.447708,0.4655846,0.04879653,1.173239,-0.3029573,-0.03831861,-0.1084571,-0.002557657,0.4406983,28.64383,30.75
4,0.1958923,-0.1491241,0.9692078,1.0,0.1944885,-0.1393585,0.9709473,-28.40752,2.191711,-26.83014,2.994415,0.3528872,0.516407,1.0,0.1973267,-0.1593933,0.9672852,33.0822,4.01091,-27.4341,2.980942,0.4527215,0.463583,0.04853117,1.172899,-0.3026468,-0.03678836,-0.1089298,-0.001968325,0.4406983,28.64383,30.75
4,0.1958923,-0.1491241,0.9692078,1.0,0.1944885,-0.1393585,0.9709473,-28.40752,2.191711,-26.83014,2.994415,0.3528872,0.516407,1.0,0.1973267,-0.1593933,0.9672852,33.0822,4.01091,-27.4341,2.980942,0.4527215,0.463583,0.04853117,1.172899,-0.3026468,-0.03678836,-0.1089298,-0.001968325,0.4406983,28.64383,30.75
4,0.1069794,-0.1647949,0.9804993,1.0,0.09197998,-0.1611938,0.9826202,-28.87032,2.118484,-26.76003,3.0793,0.3856713,0.5216309,1.0,0.121582,-0.1682587,0.9782104,32.58151,3.888992,-27.36189,2.916855,0.4826735,0.4682769,0.04830563,1.172598,-0.302294,-0.03513781,-0.1088631,-0.001342774,0.4406983,28.64383,30.75
4,0.1069794,-0.1647949,0.9804993,1.0,0.09197998,-0.1611938,0.9826202,-28.87032,2.118484,-26.76003,3.0793,0.3856713,0.5216309,1.0,0.121582,-0.1682587,0.9782104,32.58151,3.888992,-27.36189,2.916855,0.4826735,0.4682769,0.04830563,1.172598,-0.302294,-0.03513781,-0.1088631,-0.001342774,0.4406983,28.64383,30.75
4,0.01016235,-0.1600342,0.9870453,1.0,0.001098633,-0.1556091,0.9878082,-29.52362,2.048492,-26.73511,2.927582,0.4226014,0.5227599,1.0,0.03295898,-0.1710968,0.9846954,31.87535,3.80864,-27.28459,2.924805,0.5217515,0.4707436,0.04826128,1.172252,-0.3019304,-0.03349001,-0.108385,-0.00059802,0.4406983,28.64383,30.75
4,0.01016235,-0.1600342,0.9870453,1.0,0.001098633,-0.1556091,0.9878082,-29.52362,2.048492,-26.73511,2.927582,0.4226014,0.5227599,1.0,0.03295898,-0.1710968,0.9846954,31.87535,3.80864,-27.28459,2.924805,0.5217515,0.4707436,0.04826128,1.172252,-0.3019304,-0.03349001,-0.108385,-0.00059802,0.4406983,28.64383,30.75
4,-0.05462646,-0.1829834,0.9815826,1.0,-0.06217957,-0.1812897,0.9814453,-30.09305,2.085388,-26.73506,2.939713,0.452054,0.5263222,1.0,-0.04144287,-0.1858978,0.9816895,31.19946,3.772507,-27.33723,3.189194,0.5573941,0.4753446,0.0482558,1.171945,-0.3015891,-0.03188793,-0.1074422,0.000211432,0.4406983,28.64383,30.75
4,-0.05462646,-0.1829834,0.9815826,1.0,-0.06217957,-0.1812897,0.9814453,-30.09305,2.085388,-26.73506,2.939713,0.452054,0.5263222,1.0,-0.04144287,-0.1858978,0.9816895,31.19946,3.772507,-27.33723,3.189194,0.5573941,0.4753446,0.0482558,1.171945,-0.3015891,-0.03188793,-0.1074422,0.000211432,0.4406983,28.64383,30.75
4,-0.1302185,-0.1945801,0.9721985,1.0,-0.1369476,-0.1942291,0.971344,-30.58353,2.120346,-26.83731,3.036438,0.4808006,0.5289298,1.0,-0.1140747,-0.1954193,0.9740448,30.69562,3.797928,-27.42178,2.950211,0.5870401,0.477323,0.04836702,1.171575,-0.3013968,-0.03036093,-0.1064355,0.00059802,0.4406983,28.64383,30.75
4,-0.1302185,-0.1945801,0.9721985,1.0,-0.1369476,-0.1942291,0.971344,-30.58353,2.120346,-26.83731,3.036438,0.4808006,0.5289298,1.0,-0.1140747,-0.1954193,0.9740448,30.69562,3.797928,-27.42178,2.950211,0.5870401,0.477323,0.04836702,1.171575,-0.3013968,-0.03036093,-0.1064355,0.00059802,0.4406983,28.64383,30.75
4,-0.1257935,-0.1826019,0.9750977,1.0,-0.1329498,-0.1832581,0.9740143,-30.58641,2.122665,-26.83569,2.967148,0.4802706,0.5268591,1.0,-0.1140442,-0.181488,0.9767456,30.75064,3.819183,-27.41435,3.047455,0.5851443,0.4740418,0.04834485,1.171215,-0.3011464,-0.02881868,-0.1053686,0.0009689031,0.4406983,28.64383,30.75
4,-0.1257935,-0.1826019,0.9750977,1.0,-0.1329498,-0.1832581,0.9740143,-30.58641,2.122665,-26.83569,2.967148,0.4802706,0.5268591,1.0,-0.1140442,-0.181488,0.9767456,30.75064,3.819183,-27.41435,3.047455,0.5851443,0.4740418,0.04834485,1.171215,-0.3011464,-0.02881868,-0.1053686,0.0009689031,0.4406983,28.64383,30.75
4,-0.1198273,-0.1803894,0.9762573,1.0,-0.1302643,-0.1824646,0.9745331,-30.58926,2.132782,-26.83304,2.979828,0.4799132,0.5263402,1.0,-0.1108551,-0.1786041,0.9776459,30.75862,3.822678,-27.41435,3.028061,0.5843306,0.473386,0.04843128,1.171015,-0.3008713,-0.02779694,-0.1040835,0.001297625,0.4406983,28.64383,30.75
4,-0.1198273,-0.1803894,0.9762573,1.0,-0.1302643,-0.1824646,0.9745331,-30.58926,2.132782,-26.83304,2.979828,0.4799132,0.5263402,1.0,-0.1108551,-0.1786041,0.9776459,30.75862,3.822678,-27.41435,3.028061,0.5843306,0.473386,0.04843128,1.171015,-0.3008713,-0.02779694,-0.1040835,0.001297625,0.4406983,28.64383,30.75
4,-0.1183014,-0.1742554,0.9775543,1.0,-0.1278992,-0.1799469,0.9753113,-30.58591,2.146011,-26.82832,3.00531,0.4794025,0.5253998,1.0,-0.1078796,-0.1680756,0.9798431,30.82883,3.864212,-27.38954,3.107361,0.5814072,0.4698674,0.04856956,1.170852,-0.3005767,-0.026771,-0.1028426,0.001413066,0.4406983,28.64383,30.75
4,-0.1183014,-0.1742554,0.9775543,1.0,-0.1278992,-0.1799469,0.9753113,-30.58591,2.146011,-26.82832,3.00531,0.4794025,0.5253998,1.0,-0.1078796,-0.1680756,0.9798431,30.82883,3.864212,-27.38954,3.107361,0.5814072,0.4698674,0.04856956,1.170852,-0.3005767,-0.026771,-0.1028426,0.001413066,0.4406983,28.64383,30.75
4,-0.1183014,-0.1742554,0.9775543,1.0,-0.1278992,-0.1799469,0.9753113,-30.58591,2.146011,-26.82832,3.00531,0.4794025,0.5253998,1.0,-0.1078796,-0.1680756,0.9798431,30.82883,3.864212,-27.38954,3.107361,0.5814072,0.4698674,0.04874957,1.170734,-0.3002763,-0.0260888,-0.1014683,0.001544081,0.4406983,21.91974,30.75
4,-0.1183014,-0.1742554,0.9775543,1.0,-0.1278992,-0.1799469,0.9753113,-30.58591,2.146011,-26.82832,3.00531,0.4794025,0.5253998,1.0,-0.1078796,-0.1680756,0.9798431,30.82883,3.864212,-27.38954,3.107361,0.5814072,0.4698674,0.04874957,1.170734,-0.3002763,-0.0260888,-0.1014683,0.001544081,0.4406983,21.91974,30.75
4,-0.1183014,-0.1742554,0.9775543,1.0,-0.1278992,-0.1799469,0.9753113,-30.58591,2.146011,-26.82832,3.00531,0.4794025,0.5253998,1.0,-0.1078796,-0.1680756,0.9798431,30.82883,3.864212,-27.38954,3.107361,0.5814072,0.4698674,0.04896367,1.170615,-0.3000056,-0.02566672,-0.100127,0.001544081,0.4406983,21.91974,30.75
4,-0.1183014,-0.1742554,0.9775543,1.0,-0.1278992,-0.1799469,0.9753113,-30.58591,2.146011,-26.82832,3.00531,0.4794025,0.5253998,1.0,-0.1078796,-0.1680756,0.9798431,30.82883,3.864212,-27.38954,3.107361,0.5814072,0.4698674,0.04896367,1.170615,-0.3000056,-0.02566672,-0.100127,0.001544081,0.4406983,21.91974,30.75
4,-0.1186066,-0.1751404,0.9773712,1.0,-0.1277161,-0.1782227,0.9756622,-30.58455,2.158096,-26.82414,3.038071,0.4793185,0.5246688,1.0,-0.1085205,-0.1717072,0.9791412,30.86671,3.884705,-27.38498,3.086746,0.58023,0.4697822,0.04924893,1.170536,-0.2997354,-0.02536009,-0.09880263,0.001504984,0.4406983,21.91974,30.75
4,-0.1186066,-0.1751404,0.9773712,1.0,-0.1277161,-0.1782227,0.9756622,-30.58455,2.158096,-26.82414,3.038071,0.4793185,0.5246688,1.0,-0.1085205,-0.1717072,0.9791412,30.86671,3.884705,-27.38498,3.086746,0.58023,0.4697822,0.04924893,1.170536,-0.2997354,-0.02536009,-0.09880263,0.001504984,0.4406983,21.91974,30.75
4,-0.1084137,-0.1647644,0.9803467,1.0,-0.1145782,-0.1613922,0.9802094,-30.52795,2.218048,-26.80565,3.118408,0.4752486,0.5194885,1.0,-0.1019897,-0.1682739,0.9804382,30.96297,3.910233,-27.36583,3.168884,0.5758127,0.4681091,0.04946005,1.170455,-0.2995813,-0.0249421,-0.09732174,0.001250849,0.4406983,21.91974,30.75
4,-0.1084137,-0.1647644,0.9803467,1.0,-0.1145782,-0.1613922,0.9802094,-30.52795,2.218048,-26.80565,3.118408,0.4752486,0.5194885,1.0,-0.1019897,-0.1682739,0.9804382,30.96297,3.910233,-27.36583,3.168884,0.5758127,0.4681091,0.04946005,1.170455,-0.2995813,-0.0249421,-0.09732174,0.001250849,0.4406983,21.91974,30.75
4,-0.107193,-0.1622162,0.9809113,1.0,-0.1150208,-0.1593018,0.9804993,-30.5135,2.199203,-26.81061,3.108444,0.4748468,0.5197876,1.0,-0.09912109,-0.1651917,0.9812622,30.98347,3.916504,-27.367,3.208527,0.5746234,0.4673482,0.04971266,1.17032,-0.299444,-0.02451183,-0.09596458,0.001177203,0.4406983,21.91974,30.75
4,-0.107193,-0.1622162,0.9809113,1.0,-0.1150208,-0.1593018,0.9804993,-30.5135,2.199203,-26.81061,3.108444,0.4748468,0.5197876,1.0,-0.09912109,-0.1651917,0.9812622,30.98347,3.916504,-27.367,3.208527,0.5746234,0.4673482,0.04971266,1.17032,-0.299444,-0.02451183,-0.09596458,0.001177203,0.4406983,21.91974,30.75
4,-0.1063995,-0.161438,0.9811249,1.0,-0.1111145,-0.1589203,0.9810181,-30.50618,2.199692,-26.81071,3.12706,0.4739429,0.519686,1.0,-0.1016083,-0.1640167,0.9812012,30.99973,3.919571,-27.36798,3.211624,0.574496,0.4670506,0.04999638,1.17024,-0.2991793,-0.02420011,-0.09448669,0.001078096,0.4406983,21.91974,30.75
4,-0.1063995,-0.161438,0.9811249,1.0,-0.1111145,-0.1589203,0.9810181,-30.50618,2.199692,-26.81071,3.12706,0.4739429,0.519686,1.0,-0.1016083,-0.1640167,0.9812012,30.99973,3.919571,-27.36798,3.211624,0.574496,0.4670506,0.04999638,1.17024,-0.2991793,-0.02420011,-0.09448669,0.001078096,0.4406983,21.91974,30.75
4,-0.1065369,-0.1608734,0.9812012,1.0,-0.111908,-0.1594696,0.980835,-30.50143,2.20282,-26.8105,3.144287,0.4739121,0.519686,1.0,-0.1010742,-0.1623077,0.9815369,31.00737,3.921127,-27.36673,3.229248,0.5741416,0.4666736,0.05030048,1.170206,-0.2989068,-0.02401437,-0.0933019,0.001125433,0.4406983,21.91974,30.75
4,-0.1065369,-0.1608734,0.9812012,1.0,-0.111908,-0.1594696,0.980835,-30.50143,2.20282,-26.8105,3.144287,0.4739121,0.519686,1.0,-0.1010742,-0.1623077,0.9815369,31.00737,3.921127,-27.36673,3.229248,0.5741416,0.4666736,0.05030048,1.170206,-0.2989068,-0.02401437,-0.0933019,0.001125433,0.4406983,21.91974,30.75
4,-0.1007538,-0.1611023,0.9817657,1.0,-0.1082001,-0.160202,0.9811249,-30.49142,2.212326,-26.80884,3.150009,0.4729614,0.5194604,1.0,-0.09300232,-0.1620331,0.9823761,31.01944,3.925415,-27.3644,3.232056,0.5723525,0.4664281,0.05048335,1.170159,-0.2987339,-0.02370617,-0.09187509,0.0009765625,0.4406983,5.62088,30.75
4,-0.1007538,-0.1611023,0.9817657,1.0,-0.1082001,-0.160202,0.9811249,-30.49142,2.212326,-26.80884,3.150009,0.4729614,0.5194604,1.0,-0.09300232,-0.1620331,0.9823761,31.01944,3.925415,-27.3644,3.232056,0.5723525,0.4664281,0.05048335,1.170159,-0.2987339,-0.02370617,-0.09187509,0.0009765625,0.4406983,5.62088,30.75
4,-0.09912109,-0.160675,0.9820099,1.0,-0.1081238,-0.1604614,0.9810944,-30.46745,2.216064,-26.80785,3.156433,0.4721489,0.5193771,1.0,-0.09017944,-0.1608734,0.9828339,31.03569,3.93605,-27.3642,3.229599,0.5713211,0.4658444,0.05067408,1.170093,-0.2985628,-0.02328313,-0.09071261,0.0008279211,0.4406983,5.62088,30.75
4,-0.09912109,-0.160675,0.9820099,1.0,-0.1081238,-0.1604614,0.9810944,-30.46745,2.216064,-26.80785,3.156433,0.4721489,0.5193771,1.0,-0.09017944,-0.1608734,0.9828339,31.03569,3.93605,-27.3642,3.229599,0.5713211,0.4658444,0.05067408,1.170093,-0.2985628,-0.02328313,-0.09071261,0.0008279211,0.4406983,5.62088,30.75
4,-0.09593201,-0.1594543,0.9825287,1.0,-0.1054993,-0.1586761,0.9816742,-30.44086,2.243149,-26.79768,3.190063,0.4708244,0.5180584,1.0,-0.08666992,-0.1601868,0.9832611,31.06148,3.953354,-27.36278,3.232407,0.5698476,0.4651195,0.05083442,1.170023,-0.2984412,-0.02292778,-0.08962339,0.001050089,0.4406983,5.62088,30.75
4,-0.09593201,-0.1594543,0.9825287,1.0,-0.1054993,-0.1586761,0.9816742,-30.44086,2.243149,-26.79768,3.190063,0.4708244,0.5180584,1.0,-0.08666992,-0.1601868,0.9832611,31.06148,3.953354,-27.36278,3.232407,0.5698476,0.4651195,0.05083442,1.170023,-0.2984412,-0.02292778,-0.08962339,0.001050089,0.4406983,5.62088,30.75
4,-0.09289551,-0.154541,0.9835968,1.0,-0.102829,-0.1536102,0.9827576,-30.41058,2.246811,-26.79187,3.190628,0.4693818,0.5169875,1.0,-0.08248901,-0.1554871,0.984375,31.15759,3.977173,-27.33748,3.15715,0.5658663,0.4632003,0.05092394,1.169994,-0.2984018,-0.02266698,-0.08918538,0.001158061,0.4406983,5.62088,30.75
4,-0.09289551,-0.154541,0.9835968,1.0,-0.102829,-0.1536102,0.9827576,-30.41058,2.246811,-26.79187,3.190628,0.4693818,0.5169875,1.0,-0.08248901,-0.1554871,0.984375,31.15759,3.977173,-27.33748,3.15715,0.5658663,0.4632003,0.05092394,1.169994,-0.2984018,-0.02266698,-0.08918538,0.001158061,0.4406983,5.62088,30.75
4,-0.09222412,-0.1534576,0.9838409,1.0,-0.09922791,-0.1538696,0.9830933,-30.39638,2.249588,-26.79001,3.180511,0.4683136,0.5168884,1.0,-0.08462524,-0.1529999,0.9845886,31.16978,3.984756,-27.33578,3.169907,0.565816,0.4624897,0.05107367,1.169918,-0.2983063,-0.02226202,-0.0884363,0.001028583,0.4406983,5.62088,30.75
4,-0.09196472,-0.1529999,0.9839325,1.0,-0.0995636,-0.1528931,0.9832001,-30.37759,2.250458,-26.78596,3.162735,0.4677507,0.5166498,1.0,-0.08377075,-0.1530914,0.9846497,31.18106,3.991867,-27.33305,3.194489,0.5652838,0.4622515,0.05111921,1.169897,-0.2982478,-0.02214626,-0.08797925,0.0009296598,0.4406983,5.62088,30.75
4,-0.09196472,-0.1529999,0.9839325,1.0,-0.0995636,-0.1528931,0.9832001,-30.37759,2.250458,-26.78596,3.162735,0.4677507,0.5166498,1.0,-0.08377075,-0.1530914,0.9846497,31.18106,3.991867,-27.33305,3.194489,0.5652838,0.4622515,0.05111921,1.169897,-0.2982478,-0.02214626,-0.08797925,0.0009296598,0.4406983,5.62088,30.75
4,-0.09143066,-0.1458435,0.9850616,1.0,-0.09884644,-0.1424255,0.984848,-30.36177,2.258636,-26.78343,3.163803,0.4671242,0.5145248,1.0,-0.08383179,-0.149353,0.9852142,31.19156,3.999588,-27.32881,3.195129,0.564937,0.4612938,0.05132091,1.169906,-0.2981281,-0.02200146,-0.08737634,0.0008544922,0.4406983,5.62088,30.75
4,-0.09089661,-0.1455841,0.9851532,1.0,-0.09747314,-0.1442719,0.9847107,-30.33995,2.269745,-26.77986,3.154678,0.4661718,0.5144407,1.0,-0.08444214,-0.1468506,0.9855347,31.19867,4.007492,-27.32684,3.182098,0.5648034,0.460568,0.05138743,1.169904,-0.2980671,-0.02203192,-0.08702414,0.0008544922,0.4406983,5.62088,30.75
4,-0.09008789,-0.1419373,0.9857635,1.0,-0.0980072,-0.138382,0.9855042,-30.32491,2.286469,-26.77899,3.149857,0.4657734,0.5128461,1.0,-0.08227539,-0.1454163,0.9859314,31.19867,4.014679,-27.32643,3.170288,0.5644375,0.4600441,0.05155885,1.169934,-0.2980014,-0.02193363,-0.08640328,0.0007221777,0.4406983,5.62088,30.75
4,-0.09008789,-0.1419373,0.9857635,1.0,-0.0980072,-0.138382,0.9855042,-30.32491,2.286469,-26.77899,3.149857,0.4657734,0.5128461,1.0,-0.08227539,-0.1454163,0.9859314,31.19867,4.014679,-27.32643,3.170288,0.5644375,0.4600441,0.05155885,1.169934,-0.2980014,-0.02193363,-0.08640328,0.0007221777,0.4406983,5.62088,30.75
4,-0.08453369,-0.1392212,0.9866333,1.0,-0.08850098,-0.1365814,0.9866638,-30.32204,2.294708,-26.77841,3.145706,0.4640999,0.5122077,1.0,-0.08058167,-0.1418304,0.9866028,31.19542,4.011261,-27.3264,3.168137,0.5642616,0.4595246,0.05162609,1.169919,-0.2979579,-0.02192989,-0.08611885,0.0005725605,0.4406983,5.62088,30.75
4,-0.08241272,-0.1363831,0.9872131,1.0,-0.08618164,-0.1315002,0.9875488,-30.31602,2.30954,-26.77736,3.137878,0.4635248,0.510811,1.0,-0.07855225,-0.1413727,0.9868317,31.1877,4.010651,-27.32545,3.164993,0.564178,0.4594447,0.05173624,1.169893,-0.2979598,-0.02192853,-0.08579954,0.000345267,0.4406983,-18.56851,30.75
4,-0.08241272,-0.1363831,0.9872131,1.0,-0.08618164,-0.1315002,0.9875488,-30.31602,2.30954,-26.77736,3.137878,0.4635248,0.510811,1.0,-0.07855225,-0.1413727,0.9868317,31.1877,4.010651,-27.32545,3.164993,0.564178,0.4594447,0.05173624,1.169893,-0.2979598,-0.02192853,-0.08579954,0.000345267,0.4406983,-18.56851,30.75
4,-0.08042908,-0.1339111,0.9877167,1.0,-0.08633423,-0.1305237,0.9876709,-30.30922,2.316818,-26.76491,3.120789,0.4633333,0.5102815,1.0,-0.07467651,-0.1372223,0.9877167,31.1877,4.010651,-27.32396,3.162857,0.563518,0.4586902,0.05180812,1.169739,-0.297868,-0.02185093,-0.08527413,0.0003860202,0.4406983,-18.56851,30.75
4,-0.07962036,-0.1305084,0.9882355,1.0,-0.08526611,-0.1282196,0.9880676,-30.30574,2.325882,-26.75752,3.139084,0.4630409,0.5095229,1.0,-0.07322693,-0.1330872,0.9883881,31.19542,4.011261,-27.22449,3.152557,0.5629476,0.4570584,0.05193472,1.169727,-0.2977461,-0.02160403,-0.08479275,0.000345267,0.4406983,-18.56851,30.75
4,-0.07962036,-0.1305084,0.9882355,1.0,-0.08526611,-0.1282196,0.9880676,-30.30574,2.325882,-26.75752,3.139084,0.4630409,0.5095229,1.0,-0.07322693,-0.1330872,0.9883881,31.19542,4.011261,-27.22449,3.152557,0.5629476,0.4570584,0.05193472,1.169727,-0.2977461,-0.02160403,-0.08479275,0.000345267,0.4406983,-18.56851,30.75
4,-0.08044434,-0.1269531,0.9886322,1.0,-0.08564758,-0.122406,0.9887695,-30.29903,2.329361,-26.74843,3.115845,0.4628975,0.5083011,1.0,-0.07196045,-0.1343536,0.9883118,31.20605,4.020645,-27.22202,3.141617,0.5623712,0.4569273,0.05197871,1.169675,-0.2977018,-0.02144689,-0.08458478,0.000345267,0.4406983,-18.56851,30.75
4,-0.08056641,-0.1255341,0.9888,1.0,-0.08583069,-0.1207886,0.9889526,-30.29259,2.329666,-26.7336,3.116699,0.4627175,0.5078869,1.0,-0.07052612,-0.1345825,0.9883881,31.21169,4.031647,-27.21756,3.14183,0.5619348,0.4565512,0.05208063,1.169526,-0.2976197,-0.02113721,-0.0841741,0.0004048614,0.4406983,-18.56851,30.75
4,-0.08056641,-0.1255341,0.9888,1.0,-0.08583069,-0.1207886,0.9889526,-30.29259,2.329666,-26.7336,3.116699,0.4627175,0.5078869,1.0,-0.07052612,-0.1345825,0.9883881,31.21169,4.031647,-27.21756,3.14183,0.5619348,0.4565512,0.05208063,1.169526,-0.2976197,-0.02113721,-0.0841741,0.0004048614,0.4406983,-18.56851,30.75
4,-0.07948303,-0.1248322,0.9889832,1.0,-0.08644104,-0.1192322,0.98909,-30.28746,2.330048,-26.72186,3.115433,0.462652,0.5074982,1.0,-0.06840515,-0.1337128,0.9886475,31.21329,4.035568,-27.21756,3.141693,0.5615211,0.4562596,0.05208528,1.169564,-0.2977049,-0.02098474,-0.0839975,0.000422864,0.4406983,-18.56851,30.75
4,-0.07897949,-0.1246185,0.9890442,1.0,-0.08494568,-0.1176147,0.9894104,-30.28427,2.330048,-26.71249,3.117554,0.4623002,0.5071285,1.0,-0.07116699,-0.1337738,0.9884491,31.23236,4.035568,-27.20901,3.142166,0.5613388,0.4562018,0.05213916,1.169496,-0.2976599,-0.02075303,-0.08371647,0.0004401308,0.4406983,-18.56851,30.75
4,-0.07897949,-0.1246185,0.9890442,1.0,-0.08494568,-0.1176147,0.9894104,-30.28427,2.330048,-26.71249,3.117554,0.4623002,0.5071285,1.0,-0.07116699,-0.1337738,0.9884491,31.23236,4.035568,-27.20901,3.142166,0.5613388,0.4562018,0.05213916,1.169496,-0.2976599,-0.02075303,-0.08371647,0.0004401308,0.4406983,-18.56851,30.75
4,-0.07739258,-0.1239929,0.9892578,1.0,-0.08424377,-0.1173096,0.989502,-30.27931,2.330917,-26.68184,3.120392,0.4620215,0.5067596,1.0,-0.0715332,-0.1296692,0.9889679,31.23955,4.042221,-27.20901,3.166931,0.561159,0.4552617,0.05223846,1.169392,-0.2975321,-0.0203883,-0.08333246,0.000422864,0.4406983,-18.56851,30.75
4,-0.07704163,-0.1231689,0.9893799,1.0,-0.08287048,-0.1155396,0.9898376,-30.27592,2.3311,-26.67046,3.13092,0.4616823,0.5063467,1.0,-0.07223511,-0.1294403,0.9889374,31.24625,4.049606,-27.20901,3.197281,0.5610488,0.4549824,0.05228865,1.169361,-0.2974572,-0.02022355,-0.0831539,0.0005593965,0.4406983,-18.56851,30.75
4,-0.07704163,-0.1231689,0.9893799,1.0,-0.08287048,-0.1155396,0.9898376,-30.27592,2.3311,-26.67046,3.13092,0.4616823,0.5063467,1.0,-0.07223511,-0.1294403,0.9889374,31.24625,4.049606,-27.20901,3.197281,0.5610488,0.4549824,0.05228865,1.169361,-0.2974572,-0.02022355,-0.0831539,0.0005593965,0.4406983,-18.56851,30.75
4,-0.07711792,-0.1243744,0.9892273,1.0,-0.08277893,-0.1153259,0.9898682,-30.27338,2.331223,-26.62361,3.132278,0.4615868,0.5058796,1.0,-0.07273865,-0.1313477,0.9886627,31.25066,4.062424,-27.20901,3.202148,0.5609853,0.4548938,0.05241311,1.169331,-0.2973022,-0.0200942,-0.08287477,0.0004401308,0.4406983,-18.56851,30.75
4,-0.0770874,-0.1222534,0.9894867,1.0,-0.08267212,-0.1108704,0.990387,-30.27022,2.331223,-26.60445,3.134476,0.4614736,0.504945,1.0,-0.07304382,-0.1304321,0.9887543,31.25272,4.06929,-27.1886,3.215302,0.5609564,0.4543344,0.052526,1.169317,-0.2971612,-0.0199793,-0.08244401,0.0,0.4406983,-35.24396,30.75
4,-0.0770874,-0.1222534,0.9894867,1.0,-0.08267212,-0.1108704,0.990387,-30.27022,2.331223,-26.60445,3.134476,0.4614736,0.504945,1.0,-0.07304382,-0.1304321,0.9887543,31.25272,4.06929,-27.1886,3.215302,0.5609564,0.4543344,0.052526,1.169317,-0.2971612,-0.0199793,-0.08244401,0.0,0.4406983,-35.24396,30.75
4,-0.07632446,-0.1229248,0.9894714,1.0,-0.08265686,-0.1114502,0.9903107,-30.26735,2.334763,-26.59532,3.167267,0.4613692,0.5048588,1.0,-0.07180786,-0.1310577,0.9887543,31.25395,4.075836,-27.18335,3.216019,0.5606997,0.4541665,0.05261087,1.169231,-0.2971218,-0.01978217,-0.08209753,-0.0002441407,0.4406983,-35.24396,30.75
4,-0.07632446,-0.1229248,0.9894714,1.0,-0.08265686,-0.1114502,0.9903107,-30.26735,2.334763,-26.59532,3.167267,0.4613692,0.5048588,1.0,-0.07180786,-0.1310577,0.9887543,31.25395,4.075836,-27.18335,3.216019,0.5606997,0.4541665,0.05261087,1.169231,-0.2971218,-0.01978217,-0.08209753,-0.0002441407,0.4406983,-35.24396,30.75
4,-0.07632446,-0.1229248,0.9894714,1.0,-0.08265686,-0.1114502,0.9903107,-30.26735,2.334763,-26.59532,3.167267,0.4613692,0.5048588,1.0,-0.07180786,-0.1310577,0.9887543,31.25395,4.075836,-27.18335,3.216019,0.5606997,0.4541665,0.05264008,1.169237,-0.2970341,-0.01954612,-0.08193392,-0.000211432,0.4406983,-35.24396,30.75
4,-0.07632446,-0.1229248,0.9894714,1.0,-0.08265686,-0.1114502,0.9903107,-30.26735,2.334763,-26.59532,3.167267,0.4613692,0.5048588,1.0,-0.07180786,-0.1310577,0.9887543,31.25395,4.075836,-27.18335,3.216019,0.5606997,0.4541665,0.05264008,1.169237,-0.2970341,-0.01954612,-0.08193392,-0.000211432,0.4406983,-35.24396,30.75
4,-0.07632446,-0.1229248,0.9894714,1.0,-0.08265686,-0.1114502,0.9903107,-30.26735,2.334763,-26.59532,3.167267,0.4613692,0.5048588,1.0,-0.07180786,-0.1310577,0.9887543,31.25395,4.075836,-27.18335,3.216019,0.5606997,0.4541665,0.05270445,1.16918,-0.2969449,-0.0193646,-0.08148183,-0.000366211,0.4406983,-35.24396,30.75
4,-0.07632446,-0.1229248,0.9894714,1.0,-0.08265686,-0.1114502,0.9903107,-30.26735,2.334763,-26.59532,3.167267,0.4613692,0.5048588,1.0,-0.07180786,-0.1310577,0.9887543,31.25395,4.075836,-27.18335,3.216019,0.5606997,0.4541665,0.05279493,1.169113,-0.2968675,-0.01918913,-0.08111359,-0.0005854287,0.4406983,-35.24396,30.75
4,-0.07632446,-0.1229248,0.9894714,1.0,-0.08265686,-0.1114502,0.9903107,-30.26735,2.334763,-26.59532,3.167267,0.4613692,0.5048588,1.0,-0.07180786,-0.1310577,0.9887543,31.25395,4.075836,-27.18335,3.216019,0.5606997,0.4541665,0.05279493,1.169113,-0.2968675,-0.01918913,-0.08111359,-0.0005854287,0.4406983,-35.24396,30.75
4,-0.07632446,-0.1229248,0.9894714,1.0,-0.08265686,-0.1114502,0.9903107,-30.26735,2.334763,-26.59532,3.167267,0.4613692,0.5048588,1.0,-0.07180786,-0.1310577,0.9887543,31.25395,4.075836,-27.18335,3.216019,0.5606997,0.4541665,0.05279493,1.169113,-0.2968675,-0.01918913,-0.08111359,-0.0005854287,0.4406983,-35.24396,30.75
4,-0.07632446,-0.1229248,0.9894714,1.0,-0.08265686,-0.1114502,0.9903107,-30.26735,2.334763,-26.59532,3.167267,0.4613692,0.5048588,1.0,-0.07180786,-0.1310577,0.9887543,31.25395,4.075836,-27.18335,3.216019,0.5606997,0.4541665,0.05291903,1.169088,-0.2968034,-0.01902379,-0.08055484,-0.0008188726,0.4406983,-35.24396,30.75
4,-0.07632446,-0.1229248,0.9894714,1.0,-0.08265686,-0.1114502,0.9903107,-30.26735,2.334763,-26.59532,3.167267,0.4613692,0.5048588,1.0,-0.07180786,-0.1310577,0.9887543,31.25395,4.075836,-27.18335,3.216019,0.5606997,0.4541665,0.05291903,1.169088,-0.2968034,-0.01902379,-0.08055484,-0.0008188726,0.4406983,-35.24396,30.75
4,-0.07632446,-0.1229248,0.9894714,1.0,-0.08265686,-0.1114502,0.9903107,-30.26735,2.334763,-26.59532,3.167267,0.4613692,0.5048588,1.0,-0.07180786,-0.1310577,0.9887543,31.25395,4.075836,-27.18335,3.216019,0.5606997,0.4541665,0.05291903,1.169088,-0.2968034,-0.01902379,-0.08055484,-0.0008188726,0.4406983,-35.24396,30.75
4,-0.07392883,-0.1070557,0.9914856,1.0,-0.08085632,-0.09951782,0.9917297,-30.25185,2.426315,-26.69087,3.306488,0.4605428,0.5006925,1.0,-0.06852722,-0.1128998,0.9912262,31.27583,4.123047,-27.10068,3.278244,0.5593659,0.4486842,0.05299985,1.169045,-0.296801,-0.01885621,-0.0800998,-0.0007623289,0.4406983,-35.24396,30.75
4,-0.0735321,-0.1013184,0.9921265,1.0,-0.08096313,-0.09637451,0.9920349,-30.23268,2.472672,-26.72823,3.264587,0.4599444,0.4989406,1.0,-0.06806946,-0.1049652,0.9921417,31.30374,4.167313,-27.14221,3.35434,0.5583741,0.446184,0.05309474,1.169143,-0.2966635,-0.01846452,-0.07959134,-0.0009134906,0.4406983,15.98325,30.75
4,-0.0735321,-0.1013184,0.9921265,1.0,-0.08096313,-0.09637451,0.9920349,-30.23268,2.472672,-26.72823,3.264587,0.4599444,0.4989406,1.0,-0.06806946,-0.1049652,0.9921417,31.30374,4.167313,-27.14221,3.35434,0.5583741,0.446184,0.05309474,1.169143,-0.2966635,-0.01846452,-0.07959134,-0.0009134906,0.4406983,15.98325,30.75
4,-0.0737915,-0.102478,0.9919891,1.0,-0.08181763,-0.09642029,0.9919586,-30.22675,2.48143,-26.73413,3.28096,0.4598846,0.4987158,1.0,-0.06919861,-0.105957,0.9919586,31.30746,4.171402,-27.13284,3.379181,0.5584325,0.446155,0.05313361,1.169148,-0.2965754,-0.01860041,-0.07899524,-0.0009765625,0.4406983,15.98325,30.75
4,-0.07466125,-0.1007996,0.9920959,1.0,-0.08241272,-0.09477234,0.9920654,-30.22368,2.500015,-26.7619,3.286209,0.4598846,0.4980716,1.0,-0.06913757,-0.1051025,0.9920502,31.31058,4.173981,-27.13284,3.386597,0.5583156,0.4459148,0.05323052,1.16919,-0.2965039,-0.01868832,-0.07855241,-0.0008802615,0.4406983,15.98325,30.75
4,-0.07466125,-0.1007996,0.9920959,1.0,-0.08241272,-0.09477234,0.9920654,-30.22368,2.500015,-26.7619,3.286209,0.4598846,0.4980716,1.0,-0.06913757,-0.1051025,0.9920502,31.31058,4.173981,-27.13284,3.386597,0.5583156,0.4459148,0.05323052,1.16919,-0.2965039,-0.01868832,-0.07855241,-0.0008802615,0.4406983,15.98325,30.75
4,-0.07504272,-0.09999084,0.9921417,1.0,-0.08282471,-0.09669495,0.9918518,-30.22163,2.510605,-26.7626,3.28569,0.4598846,0.4980716,1.0,-0.06834412,-0.102829,0.9923401,31.3131,4.185181,-27.13284,3.380951,0.5581001,0.4451363,0.05331147,1.169215,-0.2963655,-0.01870705,-0.07808331,-0.001013992,0.4406983,15.98325,30.75
4,-0.07504272,-0.09999084,0.9921417,1.0,-0.08282471,-0.09669495,0.9918518,-30.22163,2.510605,-26.7626,3.28569,0.4598846,0.4980716,1.0,-0.06834412,-0.102829,0.9923401,31.3131,4.185181,-27.13284,3.380951,0.5581001,0.4451363,0.05331147,1.169215,-0.2963655,-0.01870705,-0.07808331,-0.001013992,0.4406983,15.98325,30.75
4,-0.0741272,-0.09880066,0.9923401,1.0,-0.08137512,-0.09912109,0.9917297,-30.21666,2.526108,-26.76967,3.314148,0.459467,0.4980408,1.0,-0.06744385,-0.09849548,0.9928436,31.31744,4.192291,-27.15175,3.377975,0.5578187,0.4443125,0.05336261,1.169233,-0.2962776,-0.01876511,-0.07761475,-0.001071163,0.4406983,15.98325,30.75
4,-0.0741272,-0.09880066,0.9923401,1.0,-0.08137512,-0.09912109,0.9917297,-30.21666,2.526108,-26.76967,3.314148,0.459467,0.4980408,1.0,-0.06744385,-0.09849548,0.9928436,31.31744,4.192291,-27.15175,3.377975,0.5578187,0.4443125,0.05336261,1.169233,-0.2962776,-0.01876511,-0.07761475,-0.001071163,0.4406983,15.98325,30.75
5,-0.07429504,-0.09924316,0.9922791,1.0,-0.08183289,-0.1000366,0.9916077,-30.21338,2.536316,-26.78145,3.313644,0.4594339,0.4979629,1.0,-0.06661987,-0.09844971,0.9929047,31.32036,4.2005,-27.15523,3.377686,0.5575843,0.4440536,0.05339921,1.169183,-0.2961941,-0.01862483,-0.07705268,-0.0008368719,0.4406983,15.98325,30.75
5,-0.07429504,-0.09924316,0.9922791,1.0,-0.08183289,-0.1000366,0.9916077,-30.21338,2.536316,-26.78145,3.313644,0.4594339,0.4979629,1.0,-0.06661987,-0.09844971,0.9929047,31.32036,4.2005,-27.15523,3.377686,0.5575843,0.4440536,0.05339921,1.169183,-0.2961941,-0.01862483,-0.07705268,-0.0008368719,0.4406983,15.98325,30.75
5,-0.07408142,-0.09942627,0.9922791,1.0,-0.08178711,-0.09967041,0.9916382,-30.20906,2.543579,-26.80634,3.323929,0.459279,0.4978893,1.0,-0.06686401,-0.09921265,0.9928131,31.32962,4.20787,-27.16348,3.37616,0.5573177,0.4440038,0.053478,1.169122,-0.2961159,-0.01848227,-0.07673846,-0.0005459151,0.4406983,15.98325,30.75
5,-0.07408142,-0.09942627,0.9922791,1.0,-0.08178711,-0.09967041,0.9916382,-30.20906,2.543579,-26.80634,3.323929,0.459279,0.4978893,1.0,-0.06686401,-0.09921265,0.9928131,31.32962,4.20787,-27.16348,3.37616,0.5573177,0.4440038,0.053478,1.169122,-0.2961159,-0.01848227,-0.07673846,-0.0005459151,0.4406983,15.98325,30.75
5,-0.07290649,-0.0994873,0.9923553,1.0,-0.08226013,-0.09938049,0.9916382,-30.20485,2.544861,-26.81204,3.31218,0.4592209,0.4978474,1.0,-0.06463623,-0.09957886,0.9929199,31.33389,4.210754,-27.16602,3.375702,0.5567953,0.4439877,0.05346906,1.169039,-0.2960453,-0.0182298,-0.07637291,-0.0004567453,0.4406983,15.98325,30.75
5,-0.07290649,-0.0994873,0.9923553,1.0,-0.08226013,-0.09938049,0.9916382,-30.20485,2.544861,-26.81204,3.31218,0.4592209,0.4978474,1.0,-0.06463623,-0.09957886,0.9929199,31.33389,4.210754,-27.16602,3.375702,0.5567953,0.4439877,0.05346906,1.169039,-0.2960453,-0.0182298,-0.07637291,-0.0004567453,0.4406983,15.98325,30.75
5,-0.07173157,-0.09899902,0.9924927,1.0,-0.07954407,-0.09855652,0.9919434,-30.20052,2.545746,-26.8157,3.295151,0.4586288,0.4976957,1.0,-0.0644989,-0.09939575,0.9929504,31.34061,4.212158,-27.17226,3.369751,0.5565488,0.4439625,0.05351198,1.16894,-0.2960205,-0.0175514,-0.07593784,-0.0003662109,0.4406983,15.98325,30.75
5,-0.07173157,-0.09899902,0.9924927,1.0,-0.07954407,-0.09855652,0.9919434,-30.20052,2.545746,-26.8157,3.295151,0.4586288,0.4976957,1.0,-0.0644989,-0.09939575,0.9929504,31.34061,4.212158,-27.17226,3.369751,0.5565488,0.4439625,0.05351198,1.16894,-0.2960205,-0.0175514,-0.07593784,-0.0003662109,0.4406983,15.98325,30.75
5,-0.07170105,-0.0987854,0.9925079,1.0,-0.07963562,-0.09820557,0.9919586,-30.19414,2.544861,-26.8157,3.285294,0.4584359,0.4976521,1.0,-0.0635376,-0.09938049,0.9930115,31.34824,4.214737,-27.18938,3.36264,0.5561381,0.4440094,0.05352747,1.168898,-0.2959327,-0.01728104,-0.07572129,-0.0003229677,0.4406983,35.98962,30.75
5,-0.07170105,-0.0987854,0.9925079,1.0,-0.07963562,-0.09820557,0.9919586,-30.19414,2.544861,-26.8157,3.285294,0.4584359,0.4976521,1.0,-0.0635376,-0.09938049,0.9930115,31.34824,4.214737,-27.18938,3.36264,0.5561381,0.4440094,0.05352747,1.168898,-0.2959327,-0.01728104,-0.07572129,-0.0003229677,0.4406983,35.98962,30.75
5,-0.07069397,-0.09883118,0.9925842,1.0,-0.07991028,-0.09857178,0.9919128,-30.18529,2.543304,-26.80464,3.268509,0.458194,0.4976521,1.0,-0.06056213,-0.09909058,0.9932251,31.35846,4.216385,-27.20314,3.354919,0.5552951,0.4440094,0.05350947,1.168851,-0.2958412,-0.01723181,-0.07546424,-0.0003229677,0.4406983,35.98962,30.75
5,-0.07069397,-0.09883118,0.9925842,1.0,-0.07991028,-0.09857178,0.9919128,-30.18529,2.543304,-26.80464,3.268509,0.458194,0.4976521,1.0,-0.06056213,-0.09909058,0.9932251,31.35846,4.216385,-27.20314,3.354919,0.5552951,0.4440094,0.05350947,1.168851,-0.2958412,-0.01723181,-0.07546424,-0.0003229677,0.4406983,35.98962,30.75
5,-0.06890869,-0.09860229,0.9927216,1.0,-0.07795715,-0.09799194,0.9921265,-30.18065,2.543304,-26.80005,3.266373,0.4577156,0.4975056,1.0,-0.05895996,-0.09927368,0.9933014,31.36458,4.219879,-27.21439,3.345764,0.5548242,0.4440094,0.05351043,1.168859,-0.2957315,-0.01716467,-0.07531689,-0.0004882813,0.4611959,35.98962,30.75
5,-0.06890869,-0.09860229,0.9927216,1.0,-0.07795715,-0.09799194,0.9921265,-30.18065,2.543304,-26.80005,3.266373,0.4577156,0.4975056,1.0,-0.05895996,-0.09927368,0.9933014,31.36458,4.219879,-27.21439,3.345764,0.5548242,0.4440094,0.05351043,1.168859,-0.2957315,-0.01716467,-0.07531689,-0.0004882813,0.4611959,35.98962,30.75
5,-0.06765747,-0.09873962,0.9927979,1.0,-0.07623291,-0.09613037,0.9924316,-30.17397,2.53891,-26.78456,3.241791,0.4572169,0.497176,1.0,-0.05903625,-0.1013336,0.9930878,31.37193,4.227097,-27.21754,3.278717,0.554594,0.4441334,0.05352926,1.168827,-0.2956657,-0.01705493,-0.07516479,-0.000545915,0.4611959,35.98962,30.75
5,-0.06765747,-0.09873962,0.9927979,1.0,-0.07623291,-0.09613037,0.9924316,-30.17397,2.53891,-26.78456,3.241791,0.4572169,0.497176,1.0,-0.05903625,-0.1013336,0.9930878,31.37193,4.227097,-27.21754,3.278717,0.554594,0.4441334,0.05352926,1.168827,-0.2956657,-0.01705493,-0.07516479,-0.000545915,0.4611959,35.98962,30.75
5,-0.06622314,-0.1017456,0.9925995,1.0,-0.07487488,-0.1000061,0.992157,-30.16728,2.537048,-26.74242,3.213089,0.4567757,0.4975056,1.0,-0.05892944,-0.1032104,0.9929047,31.37801,4.227097,-27.21754,3.227951,0.554372,0.4444419,0.05358994,1.168834,-0.2955732,-0.01673966,-0.07508218,-0.0006342959,0.4611959,35.98962,30.75
5,-0.06622314,-0.1017456,0.9925995,1.0,-0.07487488,-0.1000061,0.992157,-30.16728,2.537048,-26.74242,3.213089,0.4567757,0.4975056,1.0,-0.05892944,-0.1032104,0.9929047,31.37801,4.227097,-27.21754,3.227951,0.554372,0.4444419,0.05358994,1.168834,-0.2955732,-0.01673966,-0.07508218,-0.0006342959,0.4611959,35.98962,30.75
5,-0.06336975,-0.1017303,0.9927826,1.0,-0.07502747,-0.09921265,0.992218,-30.16429,2.532135,-26.74068,3.189102,0.4567066,0.4975056,1.0,-0.0539093,-0.1037445,0.9931335,31.37965,4.193588,-27.186,3.193314,0.5534389,0.4453537,0.05356336,1.168789,-0.2955582,-0.01644283,-0.07478478,-0.0008097229,0.4611959,35.98962,30.75
5,-0.06336975,-0.1017303,0.9927826,1.0,-0.07502747,-0.09921265,0.992218,-30.16429,2.532135,-26.74068,3.189102,0.4567066,0.4975056,1.0,-0.0539093,-0.1037445,0.9931335,31.37965,4.193588,-27.186,3.193314,0.5534389,0.4453537,0.05356336,1.168789,-0.2955582,-0.01644283,-0.07478478,-0.0008097229,0.4611959,35.98962,30.75
5,-0.05982971,-0.1140442,0.9916687,1.0,-0.0773468,-0.1083221,0.9910889,-30.15463,2.627365,-27.01685,3.184052,0.4567349,0.4983973,1.0,-0.05038452,-0.1171265,0.9918365,31.36719,4.217163,-27.11334,2.976181,0.5532264,0.4461864,0.05365264,1.168708,-0.2955213,-0.01609524,-0.07459595,-0.0007816314,0.4611959,35.98962,30.75
5,-0.05982971,-0.1140442,0.9916687,1.0,-0.0773468,-0.1083221,0.9910889,-30.15463,2.627365,-27.01685,3.184052,0.4567349,0.4983973,1.0,-0.05038452,-0.1171265,0.9918365,31.36719,4.217163,-27.11334,2.976181,0.5532264,0.4461864,0.05365264,1.168708,-0.2955213,-0.01609524,-0.07459595,-0.0007816314,0.4611959,35.98962,30.75
5,-1.0,-1.0,-1.0,0.7606627,0.0,0.0,0.0,-30.16415,2.796524,-27.09695,-1.0,0.4545307,0.4986649,0.8649901,0.0,0.0,0.0,31.56621,4.287262,-26.47542,-1.0,0.5442143,0.4632353,0.0536803,1.16866,-0.2954507,-0.01572908,-0.07444799,-0.0006573688,0.4611959,35.98962,30.75
5,-1.0,-1.0,-1.0,0.7606627,0.0,0.0,0.0,-30.16415,2.796524,-27.09695,-1.0,0.4545307,0.4986649,0.8649901,0.0,0.0,0.0,31.56621,4.287262,-26.47542,-1.0,0.5442143,0.4632353,0.0536803,1.16866,-0.2954507,-0.01572908,-0.07444799,-0.0006573688,0.4611959,35.98962,30.75
5,-1.0,-1.0,-1.0,0.5643648,0.0,0.0,0.0,-29.56216,2.09314,-26.85756,-1.0,0.4179896,0.527859,0.5962976,0.0,0.0,0.0,30.93338,2.799225,-27.62737,-1.0,0.04846824,0.6200904,0.05369425,1.168643,-0.2953656,-0.01543357,-0.07406992,-0.0006103516,0.4611959,32.44937,30.75
5,-1.0,-1.0,-1.0,0.5643648,0.0,0.0,0.0,-29.56216,2.09314,-26.85756,-1.0,0.4179896,0.527859,0.5962976,0.0,0.0,0.0,30.93338,2.799225,-27.62737,-1.0,0.04846824,0.6200904,0.05369425,1.168643,-0.2953656,-0.01543357,-0.07406992,-0.0006103516,0.4611959,32.44937,30.75
5,-1.0,-1.0,-1.0,0.2301343,0.0,0.0,0.0,-28.85794,2.1492,-26.91743,-1.0,0.3426866,0.5342754,0.2480511,0.0,0.0,0.0,29.62878,3.344757,-27.8018,-1.0,0.6688299,0.5118927,0.05379474,1.16856,-0.2952943,-0.01514361,-0.07377876,-0.0005459151,0.4611959,32.44937,30.75
5,-1.0,-1.0,-1.0,0.2301343,0.0,0.0,0.0,-28.85794,2.1492,-26.91743,-1.0,0.3426866,0.5342754,0.2480511,0.0,0.0,0.0,29.62878,3.344757,-27.8018,-1.0,0.6688299,0.5118927,0.05379474,1.16856,-0.2952943,-0.01514361,-0.07377876,-0.0005459151,0.4611959,32.44937,30.75
5,-1.0,-1.0,-1.0,0.3344366,0.0,0.0,0.0,-30.28835,3.127731,-27.8179,-1.0,0.4638681,0.4963204,0.3866647,0.0,0.0,0.0,32.18671,3.301788,-27.39218,-1.0,0.5630589,0.5274947,0.05387294,1.168543,-0.2951648,-0.01498186,-0.073484,-0.0004048615,0.4611959,32.44937,30.75
5,-1.0,-1.0,-1.0,0.3344366,0.0,0.0,0.0,-30.28835,3.127731,-27.8179,-1.0,0.4638681,0.4963204,0.3866647,0.0,0.0,0.0,32.18671,3.301788,-27.39218,-1.0,0.5630589,0.5274947,0.05387294,1.168543,-0.2951648,-0.01498186,-0.073484,-0.0004048615,0.4611959,32.44937,30.75
5,-1.0,-1.0,-1.0,0.5378746,0.0,0.0,0.0,-30.25044,2.884232,-27.12686,-1.0,0.4607124,0.4852353,0.555594,0.0,0.0,0.0,31.33627,4.580856,-27.74338,-1.0,0.5521643,0.4384962,0.05394959,1.168563,-0.2950699,-0.01454533,-0.07321594,-0.0003860202,0.4611959,32.44937,30.75
5,-1.0,-1.0,-1.0,0.5378746,0.0,0.0,0.0,-30.25044,2.884232,-27.12686,-1.0,0.4607124,0.4852353,0.555594,0.0,0.0,0.0,31.33627,4.580856,-27.74338,-1.0,0.5521643,0.4384962,0.05394959,1.168563,-0.2950699,-0.01454533,-0.07321594,-0.0003860202,0.4611959,32.44937,30.75
5,-1.0,-1.0,-1.0,0.7303272,0.0,0.0,0.0,-30.245,2.834473,-27.23593,-1.0,0.4607168,0.4893588,0.8243968,0.0,0.0,0.0,31.30214,4.459671,-27.50117,-1.0,0.558523,0.4357767,0.0540247,1.168473,-0.2950035,-0.01402534,-0.0727751,-0.0005320922,0.4611959,32.44937,30.75
5,-1.0,-1.0,-1.0,0.7303272,0.0,0.0,0.0,-30.245,2.834473,-27.23593,-1.0,0.4607168,0.4893588,0.8243968,0.0,0.0,0.0,31.30214,4.459671,-27.50117,-1.0,0.558523,0.4357767,0.0540247,1.168473,-0.2950035,-0.01402534,-0.0727751,-0.0005320922,0.4611959,32.44937,30.75
5,-0.0715332,-0.07829285,0.9943542,0.8336154,-0.08625793,-0.08457947,0.9926605,-30.22964,2.74202,-27.1378,2.989731,0.4608144,0.4915737,0.8970305,-0.0715332,-0.07829285,0.9943542,31.28658,4.326584,-27.19176,3.105927,0.5596628,0.4365326,0.05403507,1.168399,-0.2950084,-0.01368549,-0.07250021,-0.0004727763,0.4611959,32.44937,30.75
5,-0.06515503,-0.0861969,0.9941406,0.8927045,-0.08050537,-0.08094788,0.993454,-30.24103,2.66095,-26.89876,3.050018,0.4602332,0.4914986,0.9764041,-0.06515503,-0.0861969,0.9941406,31.29794,4.306839,-27.20988,3.060959,0.5581926,0.4386864,0.05411136,1.16826,-0.2949961,-0.01312753,-0.07224243,-0.0001220703,0.4611959,32.44937,30.75
5,-0.06515503,-0.0861969,0.9941406,0.8927045,-0.08050537,-0.08094788,0.993454,-30.24103,2.66095,-26.89876,3.050018,0.4602332,0.4914986,0.9764041,-0.06515503,-0.0861969,0.9941406,31.29794,4.306839,-27.20988,3.060959,0.5581926,0.4386864,0.05411136,1.16826,-0.2949961,-0.01312753,-0.07224243,-0.0001220703,0.4611959,32.44937,30.75
5,-0.06990051,-0.08491516,0.993927,1.0,-0.08174133,-0.07969666,0.993454,-30.24094,2.657928,-26.92676,2.959167,0.4604579,0.4915877,1.0,-0.06610107,-0.08657837,0.9940338,31.3232,4.319733,-27.21088,2.993683,0.5575073,0.4382968,0.05414391,1.168218,-0.2949919,-0.01294866,-0.071995,0.0,0.4611959,-7.541077,30.75
5,-0.06990051,-0.08491516,0.993927,1.0,-0.08174133,-0.07969666,0.993454,-30.24094,2.657928,-26.92676,2.959167,0.4604579,0.4915877,1.0,-0.06610107,-0.08657837,0.9940338,31.3232,4.319733,-27.21088,2.993683,0.5575073,0.4382968,0.05414391,1.168218,-0.2949919,-0.01294866,-0.071995,0.0,0.4611959,-7.541077,30.75
5,-0.0684967,-0.08499146,0.9940186,1.0,-0.07804871,-0.08065796,0.9936676,-30.2437,2.67189,-27.02551,2.851761,0.4599442,0.4920919,1.0,-0.06373596,-0.0871582,0.9941406,31.30637,4.257095,-27.03154,2.950546,0.5575565,0.4389335,0.05417311,1.168175,-0.2949619,-0.0126824,-0.07168885,0.0,0.4611959,-7.541077,30.75
5,-0.07250977,-0.08105469,0.9940643,1.0,-0.07966614,-0.08053589,0.9935608,-30.23544,2.655151,-26.96246,2.873276,0.4599442,0.4920919,1.0,-0.0625,-0.08178711,0.9946747,31.33614,4.34404,-27.3344,3.011459,0.5565369,0.4376972,0.05420423,1.168182,-0.2949281,-0.01267358,-0.0715808,0.0,0.4611959,-7.541077,30.75
5,-0.07250977,-0.08105469,0.9940643,1.0,-0.07966614,-0.08053589,0.9935608,-30.23544,2.655151,-26.96246,2.873276,0.4599442,0.4920919,1.0,-0.0625,-0.08178711,0.9946747,31.33614,4.34404,-27.3344,3.011459,0.5565369,0.4376972,0.05420423,1.168182,-0.2949281,-0.01267358,-0.0715808,0.0,0.4611959,-7.541077,30.75
5,-0.08251953,-0.08114624,0.9932709,1.0,-0.08525085,-0.08123779,0.9930267,-30.2326,2.654266,-26.93581,2.960876,0.4607653,0.4920689,1.0,-0.06356812,-0.08053589,0.9947205,31.34344,4.341537,-27.38745,3.055679,0.5564991,0.4380417,0.05421638,1.168239,-0.2948579,-0.01269355,-0.07126012,0.0001220703,0.4611959,-7.541077,30.75
5,-0.08023071,-0.08081055,0.9934845,1.0,-0.0834198,-0.08018494,0.9932709,-30.23015,2.655151,-26.96246,2.960526,0.4603757,0.4920919,1.0,-0.05784607,-0.0851593,0.9946747,31.34323,4.286758,-27.14769,2.990128,0.5553733,0.4385861,0.0542562,1.168219,-0.2948253,-0.01261406,-0.0710768,0.0,0.4611959,-7.541077,30.75
5,-0.08023071,-0.08081055,0.9934845,1.0,-0.0834198,-0.08018494,0.9932709,-30.23015,2.655151,-26.96246,2.960526,0.4603757,0.4920919,1.0,-0.05784607,-0.0851593,0.9946747,31.34323,4.286758,-27.14769,2.990128,0.5553733,0.4385861,0.0542562,1.168219,-0.2948253,-0.01261406,-0.0710768,0.0,0.4611959,-7.541077,30.75
5,-0.07888794,-0.08372498,0.9933472,1.0,-0.08096313,-0.08366394,0.9931946,-30.22971,2.654266,-26.95889,2.959671,0.4599442,0.4926733,1.0,-0.05932617,-0.08427429,0.9946594,31.34981,4.271088,-27.12131,3.01918,0.5553851,0.4387406,0.05430603,1.168152,-0.2947484,-0.01237254,-0.07093609,-0.0001220703,0.4611959,-7.541077,30.75
5,-0.0791626,-0.08274841,0.9934082,1.0,-0.08126831,-0.08253479,0.9932556,-30.22807,2.651611,-26.93581,2.960342,0.4599442,0.492361,1.0,-0.06021118,-0.08459473,0.9945831,31.35406,4.265671,-27.11551,3.033112,0.5553851,0.4389393,0.0543021,1.168168,-0.2947155,-0.0123972,-0.07087167,-0.0001726335,0.4611959,-7.541077,30.75
5,-0.07980347,-0.08267212,0.9933624,1.0,-0.08235168,-0.08255005,0.9931641,-30.22768,2.642197,-26.93631,2.946152,0.4601158,0.4926733,1.0,-0.06109619,-0.08351135,0.9946289,31.35608,4.266052,-27.12164,3.039032,0.555474,0.4387922,0.05435884,1.168103,-0.2946913,-0.01229218,-0.07066849,-0.0001726335,0.4611959,-7.541077,30.75
5,-0.07980347,-0.08267212,0.9933624,1.0,-0.08235168,-0.08255005,0.9931641,-30.22768,2.642197,-26.93631,2.946152,0.4601158,0.4926733,1.0,-0.06109619,-0.08351135,0.9946289,31.35608,4.266052,-27.12164,3.039032,0.555474,0.4387922,0.05435884,1.168103,-0.2946913,-0.01229218,-0.07066849,-0.0001726335,0.4611959,-7.541077,30.75
5,-0.07330322,-0.0834198,0.9938049,1.0,-0.08261108,-0.08250427,0.9931488,-30.22638,2.641953,-26.93581,2.945953,0.4601158,0.4926733,1.0,-0.06065369,-0.0846405,0.9945526,31.35785,4.266693,-27.12744,3.023392,0.5553412,0.4390102,0.05444789,1.168101,-0.2945929,-0.01214891,-0.07041024,-0.0001220703,0.4611959,-7.541077,30.75
5,-0.07147217,-0.08424377,0.993866,1.0,-0.08288574,-0.08320618,0.9930725,-30.22505,2.641327,-26.93581,2.945938,0.4601158,0.49281,1.0,-0.0604248,-0.0852356,0.9945221,31.35941,4.266876,-27.13316,3.024902,0.5552524,0.4391573,0.05444312,1.168049,-0.2945693,-0.01194357,-0.07037934,-0.000211432,0.4611959,-7.541077,30.75
5,-0.07125854,-0.08430481,0.9938812,1.0,-0.08319092,-0.08335876,0.9930267,-30.2236,2.640366,-26.93275,2.960434,0.4601158,0.4928578,1.0,-0.05934143,-0.08522034,0.9945831,31.3604,4.267105,-27.1347,3.016754,0.5550341,0.4391573,0.05448711,1.167976,-0.2945333,-0.01150314,-0.07014807,-0.0002441407,0.4611959,-7.541077,30.75
5,-0.07125854,-0.08430481,0.9938812,1.0,-0.08319092,-0.08335876,0.9930267,-30.2236,2.640366,-26.93275,2.960434,0.4601158,0.4928578,1.0,-0.05934143,-0.08522034,0.9945831,31.3604,4.267105,-27.1347,3.016754,0.5550341,0.4391573,0.05448711,1.167976,-0.2945333,-0.01150314,-0.07014807,-0.0002441407,0.4611959,-7.541077,30.75
5,-0.0713501,-0.0838623,0.9939117,1.0,-0.08256531,-0.08280945,0.9931335,-30.22324,2.634811,-26.93472,2.964996,0.4599974,0.4929617,1.0,-0.05941772,-0.0849762,0.9945984,31.36092,4.267105,-27.13983,3.016647,0.5550341,0.4391573,0.0544951,1.167953,-0.2944887,-0.01133809,-0.070183,-0.000211432,0.4611959,-7.541077,30.75
5,-0.0718689,-0.08453369,0.9938202,1.0,-0.08325195,-0.08488464,0.9929047,-30.22011,2.632141,-26.92969,2.994781,0.4599974,0.4933739,1.0,-0.05952454,-0.08413696,0.9946594,31.36395,4.267166,-27.16463,3.016098,0.5549651,0.4392146,0.05447996,1.167921,-0.2944281,-0.01113921,-0.07013457,-0.0002729575,0.4611959,-32.07574,30.75
5,-0.07209778,-0.08612061,0.9936676,1.0,-0.08331299,-0.08743286,0.9926758,-30.21996,2.631027,-26.92482,3.000366,0.4599974,0.4938161,1.0,-0.05938721,-0.0846405,0.9946289,31.36505,4.267166,-27.1824,3.015823,0.554914,0.4394597,0.05451572,1.167928,-0.2943611,-0.01099717,-0.07007623,-0.00029901,0.4611959,-32.07574,30.75
5,-0.07209778,-0.08612061,0.9936676,1.0,-0.08331299,-0.08743286,0.9926758,-30.21996,2.631027,-26.92482,3.000366,0.4599974,0.4938161,1.0,-0.05938721,-0.0846405,0.9946289,31.36505,4.267166,-27.1824,3.015823,0.554914,0.4394597,0.05451572,1.167928,-0.2943611,-0.01099717,-0.07007623,-0.00029901,0.4611959,-32.07574,30.75
5,-0.07290649,-0.08641052,0.993576,1.0,-0.08343506,-0.08813477,0.9925995,-30.21858,2.623077,-26.92256,3.039017,0.4599613,0.4941911,1.0,-0.05976868,-0.08422852,0.9946442,31.36743,4.269409,-27.19933,3.015472,0.5549085,0.4394597,0.0545274,1.16791,-0.2942265,-0.01084985,-0.0698863,-0.0001726335,0.4611959,-32.07574,30.75
5,-0.07289124,-0.08660889,0.9935608,1.0,-0.08306885,-0.08811951,0.99263,-30.21716,2.617142,-26.92256,3.056351,0.4598465,0.4944028,1.0,-0.05964661,-0.0846405,0.9946136,31.36771,4.269928,-27.20787,3.019867,0.5548834,0.4395854,0.05455053,1.167888,-0.2941612,-0.01059413,-0.06961691,0.0,0.4611959,-32.07574,30.75
5,-0.07289124,-0.08660889,0.9935608,1.0,-0.08306885,-0.08811951,0.99263,-30.21716,2.617142,-26.92256,3.056351,0.4598465,0.4944028,1.0,-0.05964661,-0.0846405,0.9946136,31.36771,4.269928,-27.20787,3.019867,0.5548834,0.4395854,0.05455053,1.167888,-0.2941612,-0.01059413,-0.06961691,0.0,0.4611959,-32.07574,30.75
5,-0.07250977,-0.08618164,0.9936218,1.0,-0.08332825,-0.08830261,0.9925995,-30.21515,2.614441,-26.92522,3.066467,0.4598209,0.4945459,1.0,-0.05967712,-0.08364868,0.9947052,31.36813,4.270355,-27.22304,3.019684,0.5548834,0.4395289,0.0545764,1.16786,-0.2941082,-0.01049308,-0.0696215,-0.0001220703,0.4611959,-32.07574,30.75
5,-0.0718689,-0.08688354,0.9936218,1.0,-0.08369446,-0.08914185,0.9924927,-30.21213,2.611694,-26.92482,3.069443,0.4597768,0.4947803,1.0,-0.05874634,-0.08435059,0.9946899,31.36829,4.272781,-27.22398,3.024338,0.5547205,0.4395801,0.05457389,1.167853,-0.2940814,-0.01022626,-0.0695158,-0.000345267,0.4611959,-32.07574,30.75
5,-0.0718689,-0.08688354,0.9936218,1.0,-0.08369446,-0.08914185,0.9924927,-30.21213,2.611694,-26.92482,3.069443,0.4597768,0.4947803,1.0,-0.05874634,-0.08435059,0.9946899,31.36829,4.272781,-27.22398,3.024338,0.5547205,0.4395801,0.05457389,1.167853,-0.2940814,-0.01022626,-0.0695158,-0.000345267,0.4611959,-32.07574,30.75
5,-0.07145691,-0.08705139,0.9936218,1.0,-0.08308411,-0.08947754,0.9925079,-30.21196,2.611389,-26.9173,3.074677,0.4596685,0.4947803,1.0,-0.05886841,-0.08441162,0.9946747,31.36888,4.27359,-27.22609,3.024338,0.5547205,0.4395854,0.05460191,1.167824,-0.2940423,-0.01001721,-0.06939458,-0.000422864,0.4611959,-32.07574,30.75
5,-0.07107544,-0.08781433,0.9935913,1.0,-0.08270264,-0.08970642,0.9925232,-30.2097,2.610962,-26.9164,3.079727,0.4595282,0.4948301,1.0,-0.0589447,-0.08583069,0.9945526,31.36928,4.27359,-27.22813,3.023804,0.5547205,0.439856,0.05461037,1.167777,-0.2940201,-0.009887696,-0.06931649,-0.0002729575,0.4611959,-32.07574,30.75
5,-0.07064819,-0.08769226,0.9936371,1.0,-0.08236694,-0.08972168,0.9925537,-30.2084,2.609619,-26.91116,3.082321,0.4594299,0.4948301,1.0,-0.05883789,-0.08564758,0.9945831,31.36928,4.27359,-27.24396,3.023483,0.5547122,0.439957,0.05463147,1.167727,-0.2939801,-0.00954493,-0.06912155,-0.0001726335,0.4611959,-32.07574,30.75
5,-0.07064819,-0.08769226,0.9936371,1.0,-0.08236694,-0.08972168,0.9925537,-30.2084,2.609619,-26.91116,3.082321,0.4594299,0.4948301,1.0,-0.05883789,-0.08564758,0.9945831,31.36928,4.27359,-27.24396,3.023483,0.5547122,0.439957,0.05463147,1.167727,-0.2939801,-0.00954493,-0.06912155,-0.0001726335,0.4611959,-32.07574,30.75
5,-0.07112122,-0.087677,0.9935913,1.0,-0.08248901,-0.08857727,0.9926453,-30.20535,2.602615,-26.91536,3.099625,0.4593436,0.4949057,1.0,-0.05899048,-0.0867157,0.9944763,31.37003,4.272781,-27.25763,3.023071,0.5547205,0.4402818,0.05469,1.167673,-0.293937,-0.009400208,-0.06906138,-0.0002441407,0.4611959,-32.07574,30.75
5,-0.07171631,-0.08886719,0.993454,1.0,-0.08258057,-0.09057617,0.9924469,-30.20496,2.599823,-26.91116,3.101486,0.4593436,0.4953053,1.0,-0.05944824,-0.08692932,0.9944305,31.3703,4.272995,-27.26224,3.023132,0.5547921,0.4403567,0.05469,1.167673,-0.293937,-0.009400208,-0.06906138,-0.0002441407,0.4611959,-32.07574,30.75
