Second,eye_comb_direction_x,eye_comb_direction_y,eye_comb_direction_z,eye_r_openness,eye_r_direction_x,eye_r_direction_y,eye_r_direction_z,eye_r_origin_x,eye_r_origin_y,eye_r_origin_z,eye_r_pupil_diameter,eye_r_pupil_position_x,eye_r_pupil_position_y,eye_l_openness,eye_l_direction_x,eye_l_direction_y,eye_l_direction_z,eye_l_origin_x,eye_l_origin_y,eye_l_origin_z,eye_l_pupil_diameter,eye_l_pupil_position_x,eye_l_pupil_position_y,head_position_x,head_position_y,head_position_z,head_rotation_roll,head_rotation_pitch,head_rotation_yaw,EDA,BVP,TMP
0,0.0,0.0,0.0,0.0,0.0,0.0,0.0,0.0,0.0,0.0,0.0,0.0,0.0,0.0,0.0,0.0,0.0,0.0,0.0,0.0,0.0,0.0,0.0,0.0,0.0,0.0,0.0,0.0,0.0,0.2960756040377176,-0.3271446054158608,29.065899419729206
0,-0.005096436,-0.1496429,0.9887238,1.0,-0.0005950928,-0.1417236,0.9898987,-30.08151,2.436325,-26.65558,4.996704,0.4414341,0.5077128,1.0,-0.009658813,-0.1576691,0.987442,31.19907,4.178299,-26.24957,5.203186,0.5515956,0.4476084,0.05092931,1.179026,-0.3023452,-0.0740021,-0.06479197,0.01925347,0.2960756040377176,-0.3271446054158608,29.065899419729206
1,-0.005142212,-0.1521912,0.988327,1.0,-0.0006408691,-0.1456146,0.9893341,-30.08093,2.439346,-26.65874,5.004471,0.441416,0.5083006,1.0,-0.009750366,-0.1589203,0.9872284,31.2038,4.168854,-26.25342,5.266785,0.5514548,0.4481908,0.05120933,1.178378,-0.3016614,-0.07092506,-0.06337436,0.02056658,0.2960756040377176,-0.3271446054158608,29.065899419729206
1,-0.005142212,-0.1521912,0.988327,1.0,-0.0006408691,-0.1456146,0.9893341,-30.08093,2.439346,-26.65874,5.004471,0.441416,0.5083006,1.0,-0.009750366,-0.1589203,0.9872284,31.2038,4.168854,-26.25342,5.266785,0.5514548,0.4481908,0.05120933,1.178378,-0.3016614,-0.07092506,-0.06337436,0.02056658,0.2960756040377176,-0.3271446054158608,29.065899419729206
1,-0.005142212,-0.1521912,0.988327,1.0,-0.0006408691,-0.1456146,0.9893341,-30.08093,2.439346,-26.65874,5.004471,0.441416,0.5083006,1.0,-0.009750366,-0.1589203,0.9872284,31.2038,4.168854,-26.25342,5.266785,0.5514548,0.4481908,0.05120933,1.178378,-0.3016614,-0.07092506,-0.06337436,0.02056658,0.2960756040377176,-0.3271446054158608,29.065899419729206
1,-0.005142212,-0.1521912,0.988327,1.0,-0.0006408691,-0.1456146,0.9893341,-30.08093,2.439346,-26.65874,5.004471,0.441416,0.5083006,1.0,-0.009750366,-0.1589203,0.9872284,31.2038,4.168854,-26.25342,5.266785,0.5514548,0.4481908,0.05120933,1.178378,-0.3016614,-0.07092506,-0.06337436,0.02056658,0.2960756040377176,-0.3271446054158608,29.065899419729206
1,-0.005142212,-0.1521912,0.988327,1.0,-0.0006408691,-0.1456146,0.9893341,-30.08093,2.439346,-26.65874,5.004471,0.441416,0.5083006,1.0,-0.009750366,-0.1589203,0.9872284,31.2038,4.168854,-26.25342,5.266785,0.5514548,0.4481908,0.05120933,1.178378,-0.3016614,-0.07092506,-0.06337436,0.02056658,0.2960756040377176,-0.3271446054158608,29.065899419729206
1,-0.005142212,-0.1521912,0.988327,1.0,-0.0006408691,-0.1456146,0.9893341,-30.08093,2.439346,-26.65874,5.004471,0.441416,0.5083006,1.0,-0.009750366,-0.1589203,0.9872284,31.2038,4.168854,-26.25342,5.266785,0.5514548,0.4481908,0.05120933,1.178378,-0.3016614,-0.07092506,-0.06337436,0.02056658,0.2960756040377176,-0.3271446054158608,29.065899419729206
1,-0.005142212,-0.1521912,0.988327,1.0,-0.0006408691,-0.1456146,0.9893341,-30.08093,2.439346,-26.65874,5.004471,0.441416,0.5083006,1.0,-0.009750366,-0.1589203,0.9872284,31.2038,4.168854,-26.25342,5.266785,0.5514548,0.4481908,0.05120933,1.178378,-0.3016614,-0.07092506,-0.06337436,0.02056658,0.2960756040377176,-0.3271446054158608,29.065899419729206
1,-0.005142212,-0.1521912,0.988327,1.0,-0.0006408691,-0.1456146,0.9893341,-30.08093,2.439346,-26.65874,5.004471,0.441416,0.5083006,1.0,-0.009750366,-0.1589203,0.9872284,31.2038,4.168854,-26.25342,5.266785,0.5514548,0.4481908,0.05120933,1.178378,-0.3016614,-0.07092506,-0.06337436,0.02056658,0.2960756040377176,-0.3271446054158608,29.065899419729206
1,-0.005142212,-0.1521912,0.988327,1.0,-0.0006408691,-0.1456146,0.9893341,-30.08093,2.439346,-26.65874,5.004471,0.441416,0.5083006,1.0,-0.009750366,-0.1589203,0.9872284,31.2038,4.168854,-26.25342,5.266785,0.5514548,0.4481908,0.05120933,1.178378,-0.3016614,-0.07092506,-0.06337436,0.02056658,0.2960756040377176,-0.3271446054158608,29.065899419729206
1,-0.05656433,-0.07467651,0.9955902,0.7276075,-0.06163025,-0.07017517,0.9956207,-30.50021,3.085724,-27.52733,4.887558,0.4653471,0.4821629,0.8549569,-0.02914429,-0.09906006,0.9946442,30.94449,4.745285,-26.64854,4.975281,0.5637997,0.4220172,0.05222285,1.179559,-0.3022785,-0.07583662,-0.06335296,0.01883367,0.2960756040377176,-0.3271446054158608,29.065899419729206
1,-0.05656433,-0.07467651,0.9955902,0.7276075,-0.06163025,-0.07017517,0.9956207,-30.50021,3.085724,-27.52733,4.887558,0.4653471,0.4821629,0.8549569,-0.02914429,-0.09906006,0.9946442,30.94449,4.745285,-26.64854,4.975281,0.5637997,0.4220172,0.05222285,1.179559,-0.3022785,-0.07583662,-0.06335296,0.01883367,0.2960756040377176,-0.3271446054158608,29.065899419729206
1,-0.05656433,-0.07467651,0.9955902,0.7276075,-0.06163025,-0.07017517,0.9956207,-30.50021,3.085724,-27.52733,4.887558,0.4653471,0.4821629,0.8549569,-0.02914429,-0.09906006,0.9946442,30.94449,4.745285,-26.64854,4.975281,0.5637997,0.4220172,0.05222285,1.179559,-0.3022785,-0.07583662,-0.06335296,0.01883367,0.2960756040377176,-0.3271446054158608,29.065899419729206
1,-0.05656433,-0.07467651,0.9955902,0.7276075,-0.06163025,-0.07017517,0.9956207,-30.50021,3.085724,-27.52733,4.887558,0.4653471,0.4821629,0.8549569,-0.02914429,-0.09906006,0.9946442,30.94449,4.745285,-26.64854,4.975281,0.5637997,0.4220172,0.05222285,1.179559,-0.3022785,-0.07583662,-0.06335296,0.01883367,0.2960756040377176,-0.3271446054158608,29.065899419729206
1,-0.05656433,-0.07467651,0.9955902,0.7276075,-0.06163025,-0.07017517,0.9956207,-30.50021,3.085724,-27.52733,4.887558,0.4653471,0.4821629,0.8549569,-0.02914429,-0.09906006,0.9946442,30.94449,4.745285,-26.64854,4.975281,0.5637997,0.4220172,0.05222285,1.179559,-0.3022785,-0.07583662,-0.06335296,0.01883367,0.2960756040377176,-0.3271446054158608,29.065899419729206
1,-0.05656433,-0.07467651,0.9955902,0.7276075,-0.06163025,-0.07017517,0.9956207,-30.50021,3.085724,-27.52733,4.887558,0.4653471,0.4821629,0.8549569,-0.02914429,-0.09906006,0.9946442,30.94449,4.745285,-26.64854,4.975281,0.5637997,0.4220172,0.05222285,1.179559,-0.3022785,-0.07583662,-0.06335296,0.01883367,0.2960756040377176,-0.3271446054158608,29.065899419729206
1,-0.05656433,-0.07467651,0.9955902,0.7276075,-0.06163025,-0.07017517,0.9956207,-30.50021,3.085724,-27.52733,4.887558,0.4653471,0.4821629,0.8549569,-0.02914429,-0.09906006,0.9946442,30.94449,4.745285,-26.64854,4.975281,0.5637997,0.4220172,0.05222285,1.179559,-0.3022785,-0.07583662,-0.06335296,0.01883367,0.2960756040377176,-0.3271446054158608,29.065899419729206
1,-0.05256653,-0.08009338,0.9953918,0.7472191,-0.06253052,-0.07250977,0.9953918,-30.50642,3.003784,-27.47362,4.542252,0.4657595,0.4846184,0.874759,-0.03161621,-0.09597778,0.994873,30.96773,4.751694,-26.84398,4.881287,0.5635483,0.4229093,0.05265737,1.180031,-0.3029773,-0.07789168,-0.06347786,0.01783773,0.2960756040377176,-0.3271446054158608,29.065899419729206
1,-0.05352783,-0.08561707,0.994873,0.7395813,-0.06730652,-0.07957458,0.9945526,-30.50809,2.996445,-27.46931,4.478317,0.4666016,0.4859955,0.8482654,-0.03196716,-0.095047,0.9949493,30.97345,4.745285,-26.86826,4.878006,0.5634282,0.423166,0.0527426,1.180116,-0.3031158,-0.07837503,-0.06352726,0.0175866,0.2960756040377176,-0.3271446054158608,29.065899419729206
1,-0.05352783,-0.08561707,0.994873,0.7395813,-0.06730652,-0.07957458,0.9945526,-30.50809,2.996445,-27.46931,4.478317,0.4666016,0.4859955,0.8482654,-0.03196716,-0.095047,0.9949493,30.97345,4.745285,-26.86826,4.878006,0.5634282,0.423166,0.0527426,1.180116,-0.3031158,-0.07837503,-0.06352726,0.0175866,0.2960756040377176,-0.3271446054158608,29.065899419729206
1,-0.05496216,-0.08460999,0.9948883,0.753564,-0.07019043,-0.07989502,0.9943237,-30.51096,2.990005,-27.47362,4.435623,0.4671783,0.4862904,0.8562354,-0.03240967,-0.09153748,0.9952698,30.98137,4.74379,-26.93922,4.805176,0.563279,0.4231987,0.05293822,1.180331,-0.3033264,-0.07927985,-0.06347246,0.01722836,0.2960756040377176,-0.3271446054158608,29.065899419729206
1,-0.05691528,-0.08666992,0.9945984,0.7576483,-0.07020569,-0.08131409,0.9942017,-30.50945,2.986572,-27.47737,4.413467,0.4671321,0.4866622,0.8713104,-0.03327942,-0.09616089,0.9947968,30.99054,4.7397,-26.96521,4.7686,0.5631233,0.4243365,0.05306304,1.180424,-0.3034414,-0.07968818,-0.06350602,0.01694493,0.2960756040377176,-0.3271446054158608,29.065899419729206
1,-0.05691528,-0.08666992,0.9945984,0.7576483,-0.07020569,-0.08131409,0.9942017,-30.50945,2.986572,-27.47737,4.413467,0.4671321,0.4866622,0.8713104,-0.03327942,-0.09616089,0.9947968,30.99054,4.7397,-26.96521,4.7686,0.5631233,0.4243365,0.05306304,1.180424,-0.3034414,-0.07968818,-0.06350602,0.01694493,0.2960756040377176,-0.3271446054158608,29.065899419729206
1,-0.0585022,-0.08776855,0.9944153,0.7399341,-0.07119751,-0.08302307,0.993988,-30.50809,2.985352,-27.4818,4.396011,0.4672529,0.4870282,0.8505235,-0.03425598,-0.0967865,0.9947052,30.99519,4.730148,-26.9684,4.676315,0.5631233,0.4247629,0.05327022,1.18055,-0.3037876,-0.08064045,-0.06350016,0.01667277,0.2960756040377176,-0.3271446054158608,29.065899419729206
1,-0.05747986,-0.08955383,0.9943085,0.7566892,-0.07156372,-0.08265686,0.9940033,-30.50809,2.981628,-27.48796,4.379791,0.4673154,0.4871375,0.8459371,-0.03631592,-0.09986877,0.9943237,31.00087,4.72081,-26.9684,4.656815,0.5632659,0.4256055,0.05341733,1.180672,-0.3039064,-0.08107895,-0.06342725,0.0166437,0.2960756040377176,-0.3271446054158608,29.065899419729206
1,-0.05636597,-0.08898926,0.9944305,0.7255496,-0.07130432,-0.08255005,0.9940186,-30.5088,2.978683,-27.49216,4.368729,0.467299,0.4872448,0.8470142,-0.03729248,-0.09718323,0.9945526,31.00562,4.704132,-26.9684,4.642029,0.5632659,0.4257008,0.05357337,1.180723,-0.3040262,-0.08143554,-0.06333145,0.01646411,0.2960756040377176,-0.3271446054158608,29.065899419729206
1,-0.05636597,-0.08898926,0.9944305,0.7255496,-0.07130432,-0.08255005,0.9940186,-30.5088,2.978683,-27.49216,4.368729,0.467299,0.4872448,0.8470142,-0.03729248,-0.09718323,0.9945526,31.00562,4.704132,-26.9684,4.642029,0.5632659,0.4257008,0.05357337,1.180723,-0.3040262,-0.08143554,-0.06333145,0.01646411,0.2960756040377176,-0.3271446054158608,29.065899419729206
1,-0.05558777,-0.08940125,0.9944305,0.7255496,-0.07090759,-0.08331299,0.993988,-30.50932,2.978577,-27.50604,4.355804,0.4672529,0.4874957,0.8470142,-0.03877258,-0.09605408,0.9946136,31.01283,4.698334,-26.9684,4.62735,0.5632659,0.4257008,0.05381858,1.180893,-0.3042625,-0.08234809,-0.06312499,0.01623352,0.2960756040377176,-0.3271446054158608,29.065899419729206
1,-0.05558777,-0.08940125,0.9944305,0.7255496,-0.07090759,-0.08331299,0.993988,-30.50932,2.978577,-27.50604,4.355804,0.4672529,0.4874957,0.8470142,-0.03877258,-0.09605408,0.9946136,31.01283,4.698334,-26.9684,4.62735,0.5632659,0.4257008,0.05404961,1.181078,-0.3044305,-0.0832881,-0.06292225,0.01585129,0.3061829,-0.3271446054158608,29.065899419729206
1,-0.05558777,-0.08940125,0.9944305,0.7255496,-0.07090759,-0.08331299,0.993988,-30.50932,2.978577,-27.50604,4.355804,0.4672529,0.4874957,0.8470142,-0.03877258,-0.09605408,0.9946136,31.01283,4.698334,-26.9684,4.62735,0.5632659,0.4257008,0.05404961,1.181078,-0.3044305,-0.0832881,-0.06292225,0.01585129,0.3061829,-0.3271446054158608,29.065899419729206
1,-0.05558777,-0.08940125,0.9944305,0.7255496,-0.07090759,-0.08331299,0.993988,-30.50932,2.978577,-27.50604,4.355804,0.4672529,0.4874957,0.8470142,-0.03877258,-0.09605408,0.9946136,31.01283,4.698334,-26.9684,4.62735,0.5632659,0.4257008,0.05413377,1.181176,-0.3045247,-0.08368087,-0.06284511,0.01559111,0.3061829,7.333893,29.065899419729206
1,-0.05558777,-0.08940125,0.9944305,0.7255496,-0.07090759,-0.08331299,0.993988,-30.50932,2.978577,-27.50604,4.355804,0.4672529,0.4874957,0.8470142,-0.03877258,-0.09605408,0.9946136,31.01283,4.698334,-26.9684,4.62735,0.5632659,0.4257008,0.05433416,1.181307,-0.3046929,-0.08432674,-0.06252801,0.01528611,0.3061829,7.333893,29.065899419729206
1,-0.05558777,-0.08940125,0.9944305,0.7255496,-0.07090759,-0.08331299,0.993988,-30.50932,2.978577,-27.50604,4.355804,0.4672529,0.4874957,0.8470142,-0.03877258,-0.09605408,0.9946136,31.01283,4.698334,-26.9684,4.62735,0.5632659,0.4257008,0.05433416,1.181307,-0.3046929,-0.08432674,-0.06252801,0.01528611,0.3061829,7.333893,29.065899419729206
1,-0.05513,-0.08979797,0.9944305,0.7015998,-0.07051086,-0.08409119,0.9939575,-30.50986,2.978455,-27.51994,4.342667,0.4672067,0.4877466,0.8264756,-0.04019165,-0.09529114,0.9946289,31.01979,4.693954,-26.96793,4.612869,0.5632659,0.4257088,0.0543915,1.181345,-0.3047506,-0.08453217,-0.06239608,0.01507704,0.3061829,7.333893,29.065899419729206
1,-0.05513,-0.08979797,0.9944305,0.7015998,-0.07051086,-0.08409119,0.9939575,-30.50986,2.978455,-27.51994,4.342667,0.4672067,0.4877466,0.8264756,-0.04019165,-0.09529114,0.9946289,31.01979,4.693954,-26.96793,4.612869,0.5632659,0.4257088,0.05450773,1.181386,-0.3048065,-0.08470484,-0.06225658,0.01492756,0.3061829,7.333893,29.065899419729206
1,-0.05513,-0.08979797,0.9944305,0.7015998,-0.07051086,-0.08409119,0.9939575,-30.50986,2.978455,-27.51994,4.342667,0.4672067,0.4877466,0.8264756,-0.04019165,-0.09529114,0.9946289,31.01979,4.693954,-26.96793,4.612869,0.5632659,0.4257088,0.05450773,1.181386,-0.3048065,-0.08470484,-0.06225658,0.01492756,0.3061829,7.333893,29.065899419729206
1,-0.05513,-0.08979797,0.9944305,0.7015998,-0.07051086,-0.08409119,0.9939575,-30.50986,2.978455,-27.51994,4.342667,0.4672067,0.4877466,0.8264756,-0.04019165,-0.09529114,0.9946289,31.01979,4.693954,-26.96793,4.612869,0.5632659,0.4257088,0.05477726,1.181433,-0.3049197,-0.08500136,-0.06198252,0.01461738,0.3061829,7.333893,29.065899419729206
1,-0.05513,-0.08979797,0.9944305,0.7015998,-0.07051086,-0.08409119,0.9939575,-30.50986,2.978455,-27.51994,4.342667,0.4672067,0.4877466,0.8264756,-0.04019165,-0.09529114,0.9946289,31.01979,4.693954,-26.96793,4.612869,0.5632659,0.4257088,0.05484366,1.181441,-0.3049296,-0.08519135,-0.06184148,0.01440171,0.3061829,7.333893,29.065899419729206
1,-0.05224609,-0.1053162,0.9930573,0.6244349,-0.06950378,-0.09078979,0.9934387,-30.47202,2.851013,-27.26776,3.77951,0.4658891,0.4905574,0.7824143,-0.04246521,-0.1135101,0.9926147,31.05226,4.610428,-26.88947,4.105667,0.5624563,0.430824,0.05503368,1.18146,-0.3049788,-0.08519869,-0.0615606,0.01410586,0.3061829,7.333893,29.065899419729206
1,-0.05224609,-0.1053162,0.9930573,0.6244349,-0.06950378,-0.09078979,0.9934387,-30.47202,2.851013,-27.26776,3.77951,0.4658891,0.4905574,0.7824143,-0.04246521,-0.1135101,0.9926147,31.05226,4.610428,-26.88947,4.105667,0.5624563,0.430824,0.05503368,1.18146,-0.3049788,-0.08519869,-0.0615606,0.01410586,0.3061829,7.333893,29.065899419729206
1,-0.04794312,-0.1099701,0.9927673,0.6166651,-0.0708313,-0.08956909,0.993454,-30.46524,2.851013,-27.26776,3.766205,0.4658891,0.4903484,0.7647018,-0.04289246,-0.1144409,0.9924927,31.05403,4.604874,-26.87462,4.105957,0.5624563,0.4310434,0.05512965,1.18145,-0.3049998,-0.08524442,-0.06144564,0.01392244,0.3061829,7.333893,29.065899419729206
1,-0.05026245,-0.1096802,0.992691,0.6386232,-0.07167053,-0.08996582,0.9933472,-30.46063,2.857254,-27.2639,3.77327,0.4658733,0.4901789,0.7666612,-0.04525757,-0.1142731,0.9924164,31.05655,4.603836,-26.86089,4.092422,0.5627561,0.4309337,0.05537009,1.18148,-0.3049494,-0.08542193,-0.06110653,0.01352889,0.3061829,7.333893,29.065899419729206
1,-0.05026245,-0.1096802,0.992691,0.6386232,-0.07167053,-0.08996582,0.9933472,-30.46063,2.857254,-27.2639,3.77327,0.4658733,0.4901789,0.7666612,-0.04525757,-0.1142731,0.9924164,31.05655,4.603836,-26.86089,4.092422,0.5627561,0.4309337,0.05537009,1.18148,-0.3049494,-0.08542193,-0.06110653,0.01352889,0.3061829,7.333893,29.065899419729206
1,-0.05726624,-0.104248,0.9928894,0.5955126,-0.07165527,-0.09049988,0.9933014,-30.46065,2.857956,-27.26631,3.763229,0.4658733,0.4902703,0.7360343,-0.04547119,-0.1154938,0.9922638,31.05789,4.607651,-26.87596,4.067276,0.5627561,0.4311409,0.05550683,1.181473,-0.3049439,-0.08565292,-0.06086634,0.01315134,0.3061829,7.333893,29.065899419729206
1,-0.05342102,-0.106308,0.9928894,0.5955126,-0.07080078,-0.08985901,0.9934235,-30.35626,2.758545,-27.04523,3.638245,0.4622898,0.4913985,0.7360343,-0.03533936,-0.1233368,0.9917297,31.08987,4.499725,-26.64128,3.979324,0.5597998,0.4340504,0.05572307,1.181462,-0.3048232,-0.0856403,-0.06057984,0.01270353,0.3061829,7.333893,29.065899419729206
1,-0.05342102,-0.106308,0.9928894,0.5955126,-0.07080078,-0.08985901,0.9934235,-30.35626,2.758545,-27.04523,3.638245,0.4622898,0.4913985,0.7360343,-0.03533936,-0.1233368,0.9917297,31.08987,4.499725,-26.64128,3.979324,0.5597998,0.4340504,0.05572307,1.181462,-0.3048232,-0.0856403,-0.06057984,0.01270353,0.3061829,7.333893,29.065899419729206
1,0.002532959,-0.1842346,0.9828644,0.5829361,-0.02154541,-0.1576233,0.9872589,-29.81026,2.3927,-27.26617,3.789398,0.4357111,0.5169348,0.7587346,0.01321411,-0.1959534,0.9805145,31.47293,4.137512,-26.85413,3.985062,0.5387353,0.4605672,0.05572307,1.181462,-0.3048232,-0.0856403,-0.06057984,0.01270353,0.3061829,-8.20816,29.065899419729206
1,0.08718872,-0.2385406,0.9672089,0.5658397,0.05986023,-0.2236023,0.9728241,-29.27631,2.159134,-27.46306,3.733246,0.4041267,0.5379274,0.7450013,0.09761047,-0.2441864,0.964798,31.92009,3.893173,-26.95552,3.770432,0.5093895,0.4782473,0.05585706,1.18142,-0.304719,-0.08512722,-0.06056976,0.0119042,0.3061829,-8.20816,29.065899419729206
1,0.08718872,-0.2385406,0.9672089,0.5658397,0.05986023,-0.2236023,0.9728241,-29.27631,2.159134,-27.46306,3.733246,0.4041267,0.5379274,0.7450013,0.09761047,-0.2441864,0.964798,31.92009,3.893173,-26.95552,3.770432,0.5093895,0.4782473,0.05585706,1.18142,-0.304719,-0.08512722,-0.06056976,0.0119042,0.3061829,-8.20816,29.065899419729206
1,0.1318359,-0.2774048,0.9516602,0.4932133,0.1209259,-0.2318878,0.9651947,-28.95268,2.110153,-27.54138,3.485794,0.3829601,0.5418532,0.7232333,0.1338501,-0.2858887,0.9488525,32.26186,3.84198,-27.06142,3.726715,0.491695,0.4885315,0.05590713,1.181289,-0.3046441,-0.08442758,-0.0606117,0.01154259,0.3061829,-8.20816,29.065899419729206
1,0.1329041,-0.2600098,0.9564056,0.4347931,0.1143341,-0.2251282,0.9675903,-28.98888,2.129974,-27.52869,3.565048,0.3853218,0.5398663,0.689451,0.1355743,-0.2649841,0.9546661,32.32205,3.861893,-27.05183,3.7565,0.4893792,0.4839886,0.05589545,1.181134,-0.3045923,-0.083412,-0.06116905,0.0112953,0.3061829,-8.20816,29.065899419729206
1,0.1329041,-0.2600098,0.9564056,0.4347931,0.1143341,-0.2251282,0.9675903,-28.98888,2.129974,-27.52869,3.565048,0.3853218,0.5398663,0.689451,0.1355743,-0.2649841,0.9546661,32.32205,3.861893,-27.05183,3.7565,0.4893792,0.4839886,0.05589545,1.181134,-0.3045923,-0.083412,-0.06116905,0.0112953,0.3061829,-8.20816,29.065899419729206
1,0.1213074,-0.2601013,0.9579163,0.4325677,0.07743835,-0.2097015,0.9746857,-28.86592,2.079071,-27.56573,3.615631,0.3873543,0.5390205,0.6744692,0.1323547,-0.2726898,0.9529419,32.32205,3.871002,-27.04811,3.720978,0.4899082,0.4850188,0.05585468,1.180914,-0.3045272,-0.08210914,-0.0621248,0.01097547,0.3061829,-8.20816,29.065899419729206
1,0.1213074,-0.2601013,0.9579163,0.4325677,0.07743835,-0.2097015,0.9746857,-28.86592,2.079071,-27.56573,3.615631,0.3873543,0.5390205,0.6744692,0.1323547,-0.2726898,0.9529419,32.32205,3.871002,-27.04811,3.720978,0.4899082,0.4850188,0.05585468,1.180914,-0.3045272,-0.08210914,-0.0621248,0.01097547,0.3061829,-8.20816,29.065899419729206
1,0.1150818,-0.2440643,0.9628906,0.4863937,0.1052246,-0.220993,0.969574,-29.03308,2.182785,-27.50151,3.596405,0.3883753,0.5370944,0.6604759,0.1266022,-0.2710876,0.9541779,32.32755,3.880096,-27.02946,3.68425,0.4906758,0.4842332,0.05567133,1.180593,-0.3045008,-0.08063398,-0.06356724,0.01030247,0.3061829,-8.20816,29.065899419729206
1,0.1150818,-0.2440643,0.9628906,0.4863937,0.1052246,-0.220993,0.969574,-29.03308,2.182785,-27.50151,3.596405,0.3883753,0.5370944,0.6604759,0.1266022,-0.2710876,0.9541779,32.32755,3.880096,-27.02946,3.68425,0.4906758,0.4842332,0.05567133,1.180593,-0.3045008,-0.08063398,-0.06356724,0.01030247,0.3061829,-8.20816,29.065899419729206
1,0.1173096,-0.2482758,0.9615479,0.4857635,0.1088104,-0.2337341,0.9661865,-29.02956,2.209702,-27.49333,3.592712,0.3876535,0.5383931,0.6435416,0.1257172,-0.262619,0.956665,32.33015,3.934692,-27.00978,3.543091,0.4906969,0.4806819,0.05543053,1.180357,-0.304474,-0.07896534,-0.06582126,0.009420001,0.3061829,-8.20816,29.065899419729206
1,0.1173096,-0.2482758,0.9615479,0.4857635,0.1088104,-0.2337341,0.9661865,-29.02956,2.209702,-27.49333,3.592712,0.3876535,0.5383931,0.6435416,0.1257172,-0.262619,0.956665,32.33015,3.934692,-27.00978,3.543091,0.4906969,0.4806819,0.05543053,1.180357,-0.304474,-0.07896534,-0.06582126,0.009420001,0.3061829,-8.20816,29.065899419729206
1,0.1137543,-0.2385712,0.9644318,0.4857635,0.1010284,-0.2225952,0.9696503,-29.03082,2.221176,-27.4859,3.505478,0.3890054,0.5359175,0.6435416,0.1261597,-0.2541199,0.9588928,32.34439,3.948456,-27.00441,3.532898,0.4901401,0.4786388,0.05508065,1.180096,-0.3044665,-0.07767241,-0.06846437,0.008643751,0.3061829,-8.20816,29.065899419729206
1,0.1137543,-0.2385712,0.9644318,0.4857635,0.1010284,-0.2225952,0.9696503,-29.03082,2.221176,-27.4859,3.505478,0.3890054,0.5359175,0.6435416,0.1261597,-0.2541199,0.9588928,32.34439,3.948456,-27.00441,3.532898,0.4901401,0.4786388,0.05508065,1.180096,-0.3044665,-0.07767241,-0.06846437,0.008643751,0.3061829,-8.20816,29.065899419729206
1,0.1137543,-0.2385712,0.9644318,0.4857635,0.1010284,-0.2225952,0.9696503,-29.03082,2.221176,-27.4859,3.505478,0.3890054,0.5359175,0.6435416,0.1261597,-0.2541199,0.9588928,32.34439,3.948456,-27.00441,3.532898,0.4901401,0.4786388,0.05464685,1.179877,-0.3044502,-0.07629385,-0.07185038,0.007588022,0.3061829,-28.05579,29.065899419729206
1,0.1137543,-0.2385712,0.9644318,0.4857635,0.1010284,-0.2225952,0.9696503,-29.03082,2.221176,-27.4859,3.505478,0.3890054,0.5359175,0.6435416,0.1261597,-0.2541199,0.9588928,32.34439,3.948456,-27.00441,3.532898,0.4901401,0.4786388,0.05464685,1.179877,-0.3044502,-0.07629385,-0.07185038,0.007588022,0.3061829,-28.05579,29.065899419729206
1,0.1137543,-0.2385712,0.9644318,0.4857635,0.1010284,-0.2225952,0.9696503,-29.03082,2.221176,-27.4859,3.505478,0.3890054,0.5359175,0.6435416,0.1261597,-0.2541199,0.9588928,32.34439,3.948456,-27.00441,3.532898,0.4901401,0.4786388,0.05410087,1.179695,-0.3045168,-0.07495525,-0.0762496,0.006455893,0.3061829,-28.05579,29.065899419729206
1,0.1137543,-0.2385712,0.9644318,0.4857635,0.1010284,-0.2225952,0.9696503,-29.03082,2.221176,-27.4859,3.505478,0.3890054,0.5359175,0.6435416,0.1261597,-0.2541199,0.9588928,32.34439,3.948456,-27.00441,3.532898,0.4901401,0.4786388,0.05410087,1.179695,-0.3045168,-0.07495525,-0.0762496,0.006455893,0.3061829,-28.05579,29.065899419729206
1,0.1049347,-0.2280273,0.9679718,0.4554136,0.09516907,-0.2124939,0.9725037,-29.0737,2.351074,-27.45282,3.210083,0.3914512,0.5294306,0.6398422,0.1150055,-0.2440338,0.9629059,32.367,4.070496,-26.9809,3.455978,0.4912566,0.4724619,0.05342305,1.179461,-0.3046045,-0.07357692,-0.0808922,0.005545809,0.3061829,-28.05579,29.065899419729206
1,0.1049347,-0.2280273,0.9679718,0.4554136,0.09516907,-0.2124939,0.9725037,-29.0737,2.351074,-27.45282,3.210083,0.3914512,0.5294306,0.6398422,0.1150055,-0.2440338,0.9629059,32.367,4.070496,-26.9809,3.455978,0.4912566,0.4724619,0.05342305,1.179461,-0.3046045,-0.07357692,-0.0808922,0.005545809,0.3061829,-28.05579,29.065899419729206
2,0.08815002,-0.2065735,0.9744415,0.4362144,0.07765198,-0.1838531,0.9798737,-29.14616,2.402527,-27.39612,3.331207,0.3969283,0.5221046,0.6165519,0.09657288,-0.2248077,0.9695892,32.30637,4.149292,-26.95099,3.287094,0.4963917,0.4660358,0.05270255,1.179197,-0.3047636,-0.07195318,-0.08597703,0.004567453,0.3061829,-28.05579,29.065899419729206
2,0.08815002,-0.2065735,0.9744415,0.4362144,0.07765198,-0.1838531,0.9798737,-29.14616,2.402527,-27.39612,3.331207,0.3969283,0.5221046,0.6165519,0.09657288,-0.2248077,0.9695892,32.30637,4.149292,-26.95099,3.287094,0.4963917,0.4660358,0.05270255,1.179197,-0.3047636,-0.07195318,-0.08597703,0.004567453,0.3061829,-28.05579,29.065899419729206
2,0.08500671,-0.2090759,0.9741821,0.4176086,0.07557678,-0.1926422,0.9783478,-29.2338,2.459808,-27.39256,3.370438,0.4002171,0.5217596,0.6001725,0.09263611,-0.2223206,0.9705505,32.22092,4.205521,-26.92616,3.317825,0.4999697,0.4634942,0.05203593,1.178824,-0.3049678,-0.06998441,-0.09107206,0.003889046,0.3061829,-28.05579,29.065899419729206
2,0.08500671,-0.2090759,0.9741821,0.4176086,0.07557678,-0.1926422,0.9783478,-29.2338,2.459808,-27.39256,3.370438,0.4002171,0.5217596,0.6001725,0.09263611,-0.2223206,0.9705505,32.22092,4.205521,-26.92616,3.317825,0.4999697,0.4634942,0.05203593,1.178824,-0.3049678,-0.06998441,-0.09107206,0.003889046,0.3061829,-28.05579,29.065899419729206
2,0.0741272,-0.1928406,0.9784088,0.4253348,0.05958557,-0.174057,0.9829254,-29.25319,2.438354,-27.32741,3.339554,0.4035997,0.518563,0.5723201,0.09017944,-0.213501,0.9727631,32.16544,4.22995,-26.91702,3.451004,0.5023062,0.4610266,0.05139291,1.178464,-0.3052857,-0.06739995,-0.09621317,0.003535827,0.3061829,-28.05579,29.065899419729206
2,0.0741272,-0.1928406,0.9784088,0.4253348,0.05958557,-0.174057,0.9829254,-29.25319,2.438354,-27.32741,3.339554,0.4035997,0.518563,0.5723201,0.09017944,-0.213501,0.9727631,32.16544,4.22995,-26.91702,3.451004,0.5023062,0.4610266,0.05139291,1.178464,-0.3052857,-0.06739995,-0.09621317,0.003535827,0.3061829,-28.05579,29.065899419729206
2,0.04821777,-0.1879425,0.9809875,0.4185762,0.02923584,-0.181366,0.9829712,-29.60052,2.465454,-27.28519,3.131073,0.4202799,0.5185724,0.5675768,0.06330872,-0.1931305,0.9791107,31.80424,4.219238,-26.88129,3.545715,0.5190752,0.4574789,0.05084562,1.177899,-0.3059225,-0.06341326,-0.1009722,0.003376298,0.3061829,-28.05579,29.065899419729206
2,0.04821777,-0.1879425,0.9809875,0.4185762,0.02923584,-0.181366,0.9829712,-29.60052,2.465454,-27.28519,3.131073,0.4202799,0.5185724,0.5675768,0.06330872,-0.1931305,0.9791107,31.80424,4.219238,-26.88129,3.545715,0.5190752,0.4574789,0.05084562,1.177899,-0.3059225,-0.06341326,-0.1009722,0.003376298,0.3061829,-28.05579,29.065899419729206
2,-0.1148224,-0.154007,0.981369,0.4369725,-0.1267853,-0.1444702,0.9813385,-30.78291,2.581787,-27.44296,3.26622,0.4858261,0.5104635,0.5802438,-0.09773254,-0.1675262,0.9810028,30.41476,4.235397,-26.97205,3.452744,0.5933936,0.4536772,0.0504303,1.177232,-0.3066705,-0.05946165,-0.1047096,0.003234287,0.3061829,-28.05579,29.065899419729206
2,-0.1148224,-0.154007,0.981369,0.4369725,-0.1267853,-0.1444702,0.9813385,-30.78291,2.581787,-27.44296,3.26622,0.4858261,0.5104635,0.5802438,-0.09773254,-0.1675262,0.9810028,30.41476,4.235397,-26.97205,3.452744,0.5933936,0.4536772,0.0504303,1.177232,-0.3066705,-0.05946165,-0.1047096,0.003234287,0.3061829,-28.05579,29.065899419729206
2,-0.2339935,-0.1524963,0.9601898,0.4345904,-0.2474213,-0.1416473,0.9584808,-31.37827,2.635223,-27.59962,3.176041,0.5261352,0.5108412,0.5482383,-0.2054749,-0.1751862,0.9628448,29.71721,4.328552,-27.10304,3.120377,0.6358255,0.453849,0.05028832,1.17654,-0.3075681,-0.05543605,-0.1070149,0.003088162,0.3061829,-30.51904,29.065899419729206
2,-0.2339935,-0.1524963,0.9601898,0.4345904,-0.2474213,-0.1416473,0.9584808,-31.37827,2.635223,-27.59962,3.176041,0.5261352,0.5108412,0.5482383,-0.2054749,-0.1751862,0.9628448,29.71721,4.328552,-27.10304,3.120377,0.6358255,0.453849,0.05028832,1.17654,-0.3075681,-0.05543605,-0.1070149,0.003088162,0.3061829,-36.74768,29.065899419729206
2,-0.2339935,-0.1524963,0.9601898,0.4345904,-0.2474213,-0.1416473,0.9584808,-31.37827,2.635223,-27.59962,3.176041,0.5261352,0.5108412,0.5482383,-0.2054749,-0.1751862,0.9628448,29.71721,4.328552,-27.10304,3.120377,0.6358255,0.453849,0.050179,1.175982,-0.3085923,-0.05248768,-0.1083326,0.003206525,0.3061829,-23.70972,29.065899419729206
2,-0.2339935,-0.1524963,0.9601898,0.4345904,-0.2474213,-0.1416473,0.9584808,-31.37827,2.635223,-27.59962,3.176041,0.5261352,0.5108412,0.5482383,-0.2054749,-0.1751862,0.9628448,29.71721,4.328552,-27.10304,3.120377,0.6358255,0.453849,0.050179,1.175982,-0.3085923,-0.05248768,-0.1083326,0.003206525,0.3061829,-23.70972,29.065899419729206
2,-0.2339935,-0.1524963,0.9601898,0.4345904,-0.2474213,-0.1416473,0.9584808,-31.37827,2.635223,-27.59962,3.176041,0.5261352,0.5108412,0.5482383,-0.2054749,-0.1751862,0.9628448,29.71721,4.328552,-27.10304,3.120377,0.6358255,0.453849,0.05022287,1.175611,-0.30966,-0.05067403,-0.1095058,0.003215806,0.3061829,-23.70972,29.065899419729206
2,-0.2339935,-0.1524963,0.9601898,0.4345904,-0.2474213,-0.1416473,0.9584808,-31.37827,2.635223,-27.59962,3.176041,0.5261352,0.5108412,0.5482383,-0.2054749,-0.1751862,0.9628448,29.71721,4.328552,-27.10304,3.120377,0.6358255,0.453849,0.05022287,1.175611,-0.30966,-0.05067403,-0.1095058,0.003215806,0.3061829,-23.70972,29.065899419729206
2,-0.3053741,-0.1007385,0.9468842,0.574991,-0.3014832,-0.1044312,0.9477234,-31.70433,2.831299,-27.63074,3.044647,0.5464635,0.4988356,0.6055216,-0.3295593,-0.07756042,0.9409332,29.39735,4.481979,-27.21429,3.585083,0.6686862,0.433854,0.05035925,1.175495,-0.3107291,-0.04997985,-0.1099109,0.003349713,0.3061829,-23.70972,29.065899419729206
2,-0.3053741,-0.1007385,0.9468842,0.574991,-0.3014832,-0.1044312,0.9477234,-31.70433,2.831299,-27.63074,3.044647,0.5464635,0.4988356,0.6055216,-0.3295593,-0.07756042,0.9409332,29.39735,4.481979,-27.21429,3.585083,0.6686862,0.433854,0.05035925,1.175495,-0.3107291,-0.04997985,-0.1099109,0.003349713,0.3061829,-23.70972,29.065899419729206
2,-0.3063354,-0.09776306,0.9468842,0.6672774,-0.3006744,-0.09884644,0.9485779,-31.72652,2.861694,-27.63176,3.049057,0.5470799,0.4968475,0.7189097,-0.3380737,-0.09162903,0.9366455,29.39795,4.551849,-27.20485,3.630127,0.6701039,0.4340061,0.05067825,1.175585,-0.3118989,-0.05049051,-0.1095493,0.003579804,0.3061829,-23.70972,29.065899419729206
2,-0.3063354,-0.09776306,0.9468842,0.6672774,-0.3006744,-0.09884644,0.9485779,-31.72652,2.861694,-27.63176,3.049057,0.5470799,0.4968475,0.7189097,-0.3380737,-0.09162903,0.9366455,29.39795,4.551849,-27.20485,3.630127,0.6701039,0.4340061,0.05067825,1.175585,-0.3118989,-0.05049051,-0.1095493,0.003579804,0.3061829,-23.70972,29.065899419729206
2,-0.3063354,-0.09776306,0.9468842,0.6672774,-0.3006744,-0.09884644,0.9485779,-31.72652,2.861694,-27.63176,3.049057,0.5470799,0.4968475,0.7189097,-0.3380737,-0.09162903,0.9366455,29.39795,4.551849,-27.20485,3.630127,0.6701039,0.4340061,0.0511266,1.175876,-0.3130615,-0.05235778,-0.108628,0.00393665,0.3061829,-23.70972,29.065899419729206
2,-0.3063354,-0.09776306,0.9468842,0.6672774,-0.3006744,-0.09884644,0.9485779,-31.72652,2.861694,-27.63176,3.049057,0.5470799,0.4968475,0.7189097,-0.3380737,-0.09162903,0.9366455,29.39795,4.551849,-27.20485,3.630127,0.6701039,0.4340061,0.0511266,1.175876,-0.3130615,-0.05235778,-0.108628,0.00393665,0.3061829,-23.70972,29.065899419729206
2,-0.3063354,-0.09776306,0.9468842,0.6672774,-0.3006744,-0.09884644,0.9485779,-31.72652,2.861694,-27.63176,3.049057,0.5470799,0.4968475,0.7189097,-0.3380737,-0.09162903,0.9366455,29.39795,4.551849,-27.20485,3.630127,0.6701039,0.4340061,0.05152464,1.176288,-0.3142047,-0.05517659,-0.107359,0.00415398,0.3061829,-23.70972,29.065899419729206
2,-0.3063354,-0.09776306,0.9468842,0.6672774,-0.3006744,-0.09884644,0.9485779,-31.72652,2.861694,-27.63176,3.049057,0.5470799,0.4968475,0.7189097,-0.3380737,-0.09162903,0.9366455,29.39795,4.551849,-27.20485,3.630127,0.6701039,0.4340061,0.05152464,1.176288,-0.3142047,-0.05517659,-0.107359,0.00415398,0.3061829,-23.70972,29.065899419729206
2,-0.3261871,-0.07498169,0.9423218,0.7087952,-0.3213806,-0.08004761,0.9435577,-31.7691,2.98735,-27.64066,3.001328,0.5521653,0.4897655,0.7697703,-0.3344116,-0.06626892,0.9400787,29.41277,4.651382,-27.18153,3.4814,0.6691175,0.4258653,0.05173624,1.176538,-0.3147513,-0.05656546,-0.1065955,0.004258487,0.3061829,-23.70972,29.065899419729206
2,-0.3271942,-0.07849121,0.9416809,0.7166942,-0.3126221,-0.08592224,0.9459686,-31.74989,2.980667,-27.63194,2.95488,0.5500284,0.4907841,0.7635153,-0.3431702,-0.07026672,0.9366302,29.46948,4.656326,-27.17911,3.448761,0.6687211,0.4265026,0.05219412,1.1771,-0.3157666,-0.05957119,-0.1049391,0.004490131,0.3061829,12.99622,29.065899419729206
2,-0.3271942,-0.07849121,0.9416809,0.7166942,-0.3126221,-0.08592224,0.9459686,-31.74989,2.980667,-27.63194,2.95488,0.5500284,0.4907841,0.7635153,-0.3431702,-0.07026672,0.9366302,29.46948,4.656326,-27.17911,3.448761,0.6687211,0.4265026,0.05219412,1.1771,-0.3157666,-0.05957119,-0.1049391,0.004490131,0.3061829,12.99622,29.065899419729206
2,-0.3204041,-0.08825684,0.9431458,0.7313892,-0.3113098,-0.08407593,0.946579,-31.74486,2.973633,-27.63243,2.878571,0.5496982,0.4906391,0.7820851,-0.3304596,-0.09288025,0.9392242,29.47452,4.642334,-27.16241,3.277374,0.6662819,0.4306073,0.05248225,1.17732,-0.3162608,-0.06109336,-0.1039112,0.004463502,0.3061829,12.99622,29.065899419729206
2,-0.3204041,-0.08825684,0.9431458,0.7313892,-0.3113098,-0.08407593,0.946579,-31.74486,2.973633,-27.63243,2.878571,0.5496982,0.4906391,0.7820851,-0.3304596,-0.09288025,0.9392242,29.47452,4.642334,-27.16241,3.277374,0.6662819,0.4306073,0.05295491,1.17769,-0.3172047,-0.06381885,-0.1019856,0.004270717,0.3061829,12.99622,29.065899419729206
2,-0.3204041,-0.08825684,0.9431458,0.7313892,-0.3113098,-0.08407593,0.946579,-31.74486,2.973633,-27.63243,2.878571,0.5496982,0.4906391,0.7820851,-0.3304596,-0.09288025,0.9392242,29.47452,4.642334,-27.16241,3.277374,0.6662819,0.4306073,0.05295491,1.17769,-0.3172047,-0.06381885,-0.1019856,0.004270717,0.3061829,12.99622,29.065899419729206
2,-0.3204041,-0.08825684,0.9431458,0.7313892,-0.3113098,-0.08407593,0.946579,-31.74486,2.973633,-27.63243,2.878571,0.5496982,0.4906391,0.7820851,-0.3304596,-0.09288025,0.9392242,29.47452,4.642334,-27.16241,3.277374,0.6662819,0.4306073,0.05320644,1.177877,-0.3176187,-0.06495506,-0.1010337,0.004180797,0.3061829,12.99622,29.065899419729206
2,-0.3109589,-0.09060669,0.9460907,0.7437585,-0.3071747,-0.08267212,0.9480438,-31.72945,2.96228,-27.63062,2.902466,0.5484526,0.490698,0.7813002,-0.3151398,-0.09945679,0.9438019,29.48558,4.638977,-27.14406,3.259186,0.6631455,0.4315115,0.05372751,1.178104,-0.3183582,-0.06689776,-0.09923731,0.004219821,0.3061829,12.99622,29.065899419729206
2,-0.3109589,-0.09060669,0.9460907,0.7437585,-0.3071747,-0.08267212,0.9480438,-31.72945,2.96228,-27.63062,2.902466,0.5484526,0.490698,0.7813002,-0.3151398,-0.09945679,0.9438019,29.48558,4.638977,-27.14406,3.259186,0.6631455,0.4315115,0.05372751,1.178104,-0.3183582,-0.06689776,-0.09923731,0.004219821,0.3061829,12.99622,29.065899419729206
2,-0.3085632,-0.1033936,0.9455566,0.7643166,-0.2808685,-0.1008148,0.954422,-31.59918,2.851578,-27.61404,2.923203,0.5395035,0.497013,0.779506,-0.3405762,-0.106308,0.9341736,29.65858,4.531418,-27.15962,3.392502,0.6616014,0.4369144,0.05418766,1.178237,-0.3189961,-0.0682862,-0.09761985,0.004662702,0.3061829,12.99622,29.065899419729206
2,-0.3085632,-0.1033936,0.9455566,0.7643166,-0.2808685,-0.1008148,0.954422,-31.59918,2.851578,-27.61404,2.923203,0.5395035,0.497013,0.779506,-0.3405762,-0.106308,0.9341736,29.65858,4.531418,-27.15962,3.392502,0.6616014,0.4369144,0.05418766,1.178237,-0.3189961,-0.0682862,-0.09761985,0.004662702,0.3061829,12.99622,29.065899419729206
2,-0.2605286,-0.1162109,0.9584351,0.7915065,-0.2610931,-0.1014557,0.9599609,-31.52373,2.810471,-27.59592,3.047409,0.5335002,0.4981036,0.7526858,-0.2596893,-0.1354065,0.9561462,29.75157,4.493988,-27.0899,3.164398,0.6441342,0.441631,0.05440342,1.178317,-0.3192649,-0.06884798,-0.09689362,0.004757611,0.3061829,12.99622,29.065899419729206
2,-0.2605286,-0.1162109,0.9584351,0.7915065,-0.2610931,-0.1014557,0.9599609,-31.52373,2.810471,-27.59592,3.047409,0.5335002,0.4981036,0.7526858,-0.2596893,-0.1354065,0.9561462,29.75157,4.493988,-27.0899,3.164398,0.6441342,0.441631,0.05440342,1.178317,-0.3192649,-0.06884798,-0.09689362,0.004757611,0.3061829,12.99622,29.065899419729206
2,-0.2605286,-0.1162109,0.9584351,0.7915065,-0.2610931,-0.1014557,0.9599609,-31.52373,2.810471,-27.59592,3.047409,0.5335002,0.4981036,0.7526858,-0.2596893,-0.1354065,0.9561462,29.75157,4.493988,-27.0899,3.164398,0.6441342,0.441631,0.05472994,1.178375,-0.3197536,-0.06987307,-0.09585139,0.005141465,0.3061829,12.99622,29.065899419729206
2,-0.2605286,-0.1162109,0.9584351,0.7915065,-0.2610931,-0.1014557,0.9599609,-31.52373,2.810471,-27.59592,3.047409,0.5335002,0.4981036,0.7526858,-0.2596893,-0.1354065,0.9561462,29.75157,4.493988,-27.0899,3.164398,0.6441342,0.441631,0.0548656,1.178481,-0.3199341,-0.07051366,-0.09538114,0.005209128,0.3061829,12.99622,29.065899419729206
2,-0.2605286,-0.1162109,0.9584351,0.7915065,-0.2610931,-0.1014557,0.9599609,-31.52373,2.810471,-27.59592,3.047409,0.5335002,0.4981036,0.7526858,-0.2596893,-0.1354065,0.9561462,29.75157,4.493988,-27.0899,3.164398,0.6441342,0.441631,0.0548656,1.178481,-0.3199341,-0.07051366,-0.09538114,0.005209128,0.3061829,12.99622,29.065899419729206
2,-0.2605286,-0.1162109,0.9584351,0.7915065,-0.2610931,-0.1014557,0.9599609,-31.52373,2.810471,-27.59592,3.047409,0.5335002,0.4981036,0.7526858,-0.2596893,-0.1354065,0.9561462,29.75157,4.493988,-27.0899,3.164398,0.6441342,0.441631,0.05503476,1.178666,-0.320164,-0.07162407,-0.09481359,0.005140015,0.3061829,12.99622,29.065899419729206
2,-0.2605286,-0.1162109,0.9584351,0.7915065,-0.2610931,-0.1014557,0.9599609,-31.52373,2.810471,-27.59592,3.047409,0.5335002,0.4981036,0.7526858,-0.2596893,-0.1354065,0.9561462,29.75157,4.493988,-27.0899,3.164398,0.6441342,0.441631,0.05506563,1.178815,-0.3202091,-0.0722383,-0.09485178,0.004920811,0.3061829,12.99622,29.065899419729206
2,-0.2605286,-0.1162109,0.9584351,0.7915065,-0.2610931,-0.1014557,0.9599609,-31.52373,2.810471,-27.59592,3.047409,0.5335002,0.4981036,0.7526858,-0.2596893,-0.1354065,0.9561462,29.75157,4.493988,-27.0899,3.164398,0.6441342,0.441631,0.05506563,1.178815,-0.3202091,-0.0722383,-0.09485178,0.004920811,0.3061829,12.99622,29.065899419729206
2,-0.256897,-0.1074677,0.960434,0.7790262,-0.2492065,-0.1107025,0.9620972,-31.47487,2.817047,-27.58124,2.948135,0.5298793,0.4991776,0.7413902,-0.2666473,-0.103363,0.9582214,29.7968,4.492111,-27.09709,3.284546,0.643819,0.4361871,0.05511749,1.179069,-0.3202277,-0.07332169,-0.09515457,0.004221586,0.3061829,14.89717,29.065899419729206
2,-0.256897,-0.1074677,0.960434,0.7790262,-0.2492065,-0.1107025,0.9620972,-31.47487,2.817047,-27.58124,2.948135,0.5298793,0.4991776,0.7413902,-0.2666473,-0.103363,0.9582214,29.7968,4.492111,-27.09709,3.284546,0.643819,0.4361871,0.05518651,1.17921,-0.3202028,-0.07373805,-0.09530752,0.003858272,0.3061829,14.89717,29.065899419729206
2,-0.256897,-0.1074677,0.960434,0.7790262,-0.2492065,-0.1107025,0.9620972,-31.47487,2.817047,-27.58124,2.948135,0.5298793,0.4991776,0.7413902,-0.2666473,-0.103363,0.9582214,29.7968,4.492111,-27.09709,3.284546,0.643819,0.4361871,0.05525911,1.179235,-0.3202051,-0.07412021,-0.09552928,0.003454827,0.3061829,14.89717,29.065899419729206
2,-0.256897,-0.1074677,0.960434,0.7790262,-0.2492065,-0.1107025,0.9620972,-31.47487,2.817047,-27.58124,2.948135,0.5298793,0.4991776,0.7413902,-0.2666473,-0.103363,0.9582214,29.7968,4.492111,-27.09709,3.284546,0.643819,0.4361871,0.05525911,1.179235,-0.3202051,-0.07412021,-0.09552928,0.003454827,0.3061829,14.89717,29.065899419729206
2,-0.1278992,-0.1220703,0.9842377,0.7802261,-0.1402893,-0.1126251,0.9836731,-30.76897,2.929718,-27.50388,2.89653,0.4878699,0.4938811,0.7427271,-0.1102448,-0.1354675,0.9846191,30.48531,4.649094,-27.02754,3.163895,0.5933208,0.4345973,0.05534983,1.179272,-0.3201567,-0.07421473,-0.09606088,0.002548903,0.3061829,14.89717,29.065899419729206
2,-0.1278992,-0.1220703,0.9842377,0.7802261,-0.1402893,-0.1126251,0.9836731,-30.76897,2.929718,-27.50388,2.89653,0.4878699,0.4938811,0.7427271,-0.1102448,-0.1354675,0.9846191,30.48531,4.649094,-27.02754,3.163895,0.5933208,0.4345973,0.05540454,1.179247,-0.3201025,-0.07409307,-0.09629105,0.002031655,0.3061829,14.89717,29.065899419729206
2,-0.1278992,-0.1220703,0.9842377,0.7802261,-0.1402893,-0.1126251,0.9836731,-30.76897,2.929718,-27.50388,2.89653,0.4878699,0.4938811,0.7427271,-0.1102448,-0.1354675,0.9846191,30.48531,4.649094,-27.02754,3.163895,0.5933208,0.4345973,0.05540454,1.179247,-0.3201025,-0.07409307,-0.09629105,0.002031655,0.3061829,14.89717,29.065899419729206
2,-0.1278992,-0.1220703,0.9842377,0.7802261,-0.1402893,-0.1126251,0.9836731,-30.76897,2.929718,-27.50388,2.89653,0.4878699,0.4938811,0.7427271,-0.1102448,-0.1354675,0.9846191,30.48531,4.649094,-27.02754,3.163895,0.5933208,0.4345973,0.05552197,1.179227,-0.3199478,-0.07386546,-0.09651255,0.0009991886,0.3061829,14.89717,29.065899419729206
2,-0.1278992,-0.1220703,0.9842377,0.7802261,-0.1402893,-0.1126251,0.9836731,-30.76897,2.929718,-27.50388,2.89653,0.4878699,0.4938811,0.7427271,-0.1102448,-0.1354675,0.9846191,30.48531,4.649094,-27.02754,3.163895,0.5933208,0.4345973,0.05555475,1.179178,-0.3198999,-0.07385305,-0.09641113,0.000545915,0.3061829,14.89717,29.065899419729206
2,-0.08580017,-0.111908,0.9900055,0.688807,-0.08421326,-0.09591675,0.991806,-30.45695,2.89679,-27.29051,2.981293,0.4680292,0.4898302,0.7142807,-0.0866394,-0.1205139,0.9889221,30.80791,4.678467,-27.04433,3.257385,0.578369,0.4310017,0.05575252,1.179222,-0.3196311,-0.07366627,-0.09610981,0.0001220703,0.3061829,14.89717,29.065899419729206
2,-0.08580017,-0.111908,0.9900055,0.688807,-0.08421326,-0.09591675,0.991806,-30.45695,2.89679,-27.29051,2.981293,0.4680292,0.4898302,0.7142807,-0.0866394,-0.1205139,0.9889221,30.80791,4.678467,-27.04433,3.257385,0.578369,0.4310017,0.05575252,1.179222,-0.3196311,-0.07366627,-0.09610981,0.0001220703,0.3061829,14.89717,29.065899419729206
2,-0.0803833,-0.1178284,0.9897614,0.7043377,-0.08187866,-0.09663391,0.9919434,-30.47878,2.943237,-27.40486,3.03772,0.4683481,0.4894384,0.7516353,-0.07992554,-0.1240997,0.9890442,30.82808,4.74498,-27.21957,3.217865,0.5766901,0.430852,0.05582047,1.179248,-0.3195119,-0.07361953,-0.09589344,-0.0001220703,0.3061829,14.89717,29.065899419729206
2,-0.08013916,-0.111969,0.9904633,0.7131817,-0.08059692,-0.095047,0.9921875,-30.47748,2.946106,-27.39139,3.057755,0.4680882,0.4889548,0.7553857,-0.07987976,-0.1209564,0.9894257,30.83273,4.756317,-27.22693,3.316147,0.5765247,0.430011,0.0559088,1.179226,-0.3193946,-0.07351006,-0.09568615,-0.0001726335,0.3061829,14.89717,29.065899419729206
2,-0.08013916,-0.111969,0.9904633,0.7131817,-0.08059692,-0.095047,0.9921875,-30.47748,2.946106,-27.39139,3.057755,0.4680882,0.4889548,0.7553857,-0.07987976,-0.1209564,0.9894257,30.83273,4.756317,-27.22693,3.316147,0.5765247,0.430011,0.0559088,1.179226,-0.3193946,-0.07351006,-0.09568615,-0.0001726335,0.3061829,14.89717,29.065899419729206
2,-0.07435608,-0.1098633,0.9911499,0.7192296,-0.07702637,-0.09516907,0.9924622,-30.47214,2.945663,-27.38264,3.063568,0.4673094,0.4888943,0.7539333,-0.07206726,-0.1223907,0.9898529,30.83151,4.758041,-27.23428,3.333374,0.5752367,0.4302411,0.05605757,1.179086,-0.3191955,-0.07319762,-0.09525537,0.0,0.3061829,14.89717,29.065899419729206
2,-0.07458496,-0.1086426,0.991272,0.7223445,-0.07830811,-0.09538269,0.9923401,-30.46568,2.943237,-27.36916,3.068436,0.4673094,0.4888943,0.7536721,-0.07070923,-0.1223755,0.9899597,30.83395,4.759415,-27.24112,3.326935,0.5749288,0.4302411,0.05619955,1.179088,-0.3190303,-0.07297947,-0.09519794,0.0,0.3061829,7.912552,29.065899419729206
2,-0.07458496,-0.1086426,0.991272,0.7223445,-0.07830811,-0.09538269,0.9923401,-30.46568,2.943237,-27.36916,3.068436,0.4673094,0.4888943,0.7536721,-0.07070923,-0.1223755,0.9899597,30.83395,4.759415,-27.24112,3.326935,0.5749288,0.4302411,0.05619955,1.179088,-0.3190303,-0.07297947,-0.09519794,0.0,0.3061829,7.912552,29.065899419729206
2,-0.0786438,-0.09635925,0.9922333,0.706286,-0.07887268,-0.09577942,0.9922638,-30.46066,2.942032,-27.35176,3.076401,0.4672347,0.4888543,0.7597178,-0.06762695,-0.1240387,0.9899597,30.8372,4.939728,-27.91331,3.308823,0.5748335,0.4301992,0.05629742,1.179016,-0.3188329,-0.07265994,-0.09484989,0.0003229677,0.3061829,7.912552,29.065899419729206
2,-0.07954407,-0.09625244,0.992157,0.706286,-0.07957458,-0.09620667,0.9921722,-30.45546,2.942642,-27.33998,3.088211,0.4671768,0.4888073,0.7597178,-0.06486511,-0.124527,0.9900818,30.83871,4.94252,-27.91165,3.3116,0.5743096,0.4301738,0.05646336,1.179029,-0.3184919,-0.07241435,-0.09465607,0.0002441406,0.3061829,7.912552,29.065899419729206
2,-0.07954407,-0.09625244,0.992157,0.706286,-0.07957458,-0.09620667,0.9921722,-30.45546,2.942642,-27.33998,3.088211,0.4671768,0.4888073,0.7597178,-0.06486511,-0.124527,0.9900818,30.83871,4.94252,-27.91165,3.3116,0.5743096,0.4301738,0.05646336,1.179029,-0.3184919,-0.07241435,-0.09465607,0.0002441406,0.3061829,7.912552,29.065899419729206
2,-0.07954407,-0.09625244,0.992157,0.706286,-0.07957458,-0.09620667,0.9921722,-30.45546,2.942642,-27.33998,3.088211,0.4671768,0.4888073,0.7597178,-0.06486511,-0.124527,0.9900818,30.83871,4.94252,-27.91165,3.3116,0.5743096,0.4301738,0.05646336,1.179029,-0.3184919,-0.07241435,-0.09465607,0.0002441406,0.3061829,7.912552,29.065899419729206
2,-0.08024597,-0.09669495,0.9920654,0.7182438,-0.08024597,-0.09667969,0.9920654,-30.45026,2.943237,-27.32819,3.076996,0.4671189,0.4887604,0.7655321,-0.06211853,-0.1240082,0.9903259,30.84023,4.939728,-27.90997,3.308472,0.5737858,0.4301485,0.05648446,1.179052,-0.318118,-0.072222,-0.09453832,0.0,0.3061829,7.912552,29.065899419729206
2,-0.08024597,-0.09669495,0.9920654,0.7182438,-0.08024597,-0.09667969,0.9920654,-30.45026,2.943237,-27.32819,3.076996,0.4671189,0.4887604,0.7655321,-0.06211853,-0.1240082,0.9903259,30.84023,4.939728,-27.90997,3.308472,0.5737858,0.4301485,0.05654418,1.179046,-0.3178133,-0.07199251,-0.09473915,0.0,0.3061829,7.912552,30.01
2,-0.08024597,-0.09669495,0.9920654,0.7182438,-0.08024597,-0.09667969,0.9920654,-30.45026,2.943237,-27.32819,3.076996,0.4671189,0.4887604,0.7655321,-0.06211853,-0.1240082,0.9903259,30.84023,4.939728,-27.90997,3.308472,0.5737858,0.4301485,0.05654418,1.179046,-0.3178133,-0.07199251,-0.09473915,0.0,0.3061829,7.912552,30.01
2,-0.08024597,-0.09669495,0.9920654,0.7182438,-0.08024597,-0.09667969,0.9920654,-30.45026,2.943237,-27.32819,3.076996,0.4671189,0.4887604,0.7655321,-0.06211853,-0.1240082,0.9903259,30.84023,4.939728,-27.90997,3.308472,0.5737858,0.4301485,0.05654418,1.179046,-0.3178133,-0.07199251,-0.09473915,0.0,0.3061829,7.912552,30.01
2,-0.08184814,-0.09814453,0.9917908,0.7249761,-0.08184814,-0.09812927,0.9917908,-30.43315,2.948959,-27.31009,3.077484,0.4668169,0.4886701,0.7611426,-0.07624817,-0.1206207,0.9897614,30.9386,4.696136,-26.75188,3.232925,0.5719656,0.4278748,0.0565393,1.178988,-0.3172975,-0.071513,-0.09509301,-0.000545915,0.3061829,7.912552,30.01
2,-0.08184814,-0.09814453,0.9917908,0.7249761,-0.08184814,-0.09812927,0.9917908,-30.43315,2.948959,-27.31009,3.077484,0.4668169,0.4886701,0.7611426,-0.07624817,-0.1206207,0.9897614,30.9386,4.696136,-26.75188,3.232925,0.5719656,0.4278748,0.0565393,1.178988,-0.3172975,-0.071513,-0.09509301,-0.000545915,0.3061829,7.912552,30.01
2,-0.08363342,-0.09365845,0.9920807,0.7066047,-0.08370972,-0.09361267,0.9920807,-30.41414,2.954163,-27.28673,3.078735,0.4665049,0.4875219,0.7628341,-0.05789185,-0.1105347,0.9921722,30.89568,4.964539,-27.85704,3.326263,0.5711489,0.4264686,0.05648434,1.178983,-0.3167512,-0.07115369,-0.09558707,-0.0006686067,0.3061829,7.912552,30.01
2,-0.08363342,-0.09365845,0.9920807,0.7066047,-0.08370972,-0.09361267,0.9920807,-30.41414,2.954163,-27.28673,3.078735,0.4665049,0.4875219,0.7628341,-0.05789185,-0.1105347,0.9921722,30.89568,4.964539,-27.85704,3.326263,0.5711489,0.4264686,0.05648434,1.178983,-0.3167512,-0.07115369,-0.09558707,-0.0006686067,0.3061829,7.912552,30.01
2,-0.08171082,-0.09298706,0.9922943,0.7110742,-0.08184814,-0.09288025,0.9922943,-30.40627,2.960205,-27.26881,3.071823,0.4659382,0.4870099,0.7592046,-0.05758667,-0.1108856,0.992157,30.89667,4.977737,-27.90207,3.322678,0.5710995,0.4264686,0.05635083,1.17887,-0.3162365,-0.07036324,-0.09615429,-0.001418329,0.3061829,-7.778534,30.01
2,-0.08171082,-0.09298706,0.9922943,0.7110742,-0.08184814,-0.09288025,0.9922943,-30.40627,2.960205,-27.26881,3.071823,0.4659382,0.4870099,0.7592046,-0.05758667,-0.1108856,0.992157,30.89667,4.977737,-27.90207,3.322678,0.5710995,0.4264686,0.05635083,1.17887,-0.3162365,-0.07036324,-0.09615429,-0.001418329,0.3061829,-7.778534,30.01
2,-0.08171082,-0.09298706,0.9922943,0.7110742,-0.08184814,-0.09288025,0.9922943,-30.40627,2.960205,-27.26881,3.071823,0.4659382,0.4870099,0.7592046,-0.05758667,-0.1108856,0.992157,30.89667,4.977737,-27.90207,3.322678,0.5710995,0.4264686,0.05635083,1.17887,-0.3162365,-0.07036324,-0.09615429,-0.001418329,0.3061829,-7.778534,30.01
2,-0.06832886,-0.1017761,0.9924469,0.7016873,-0.07803345,-0.09194946,0.992691,-30.45357,3.014297,-27.44968,2.9552,0.4668973,0.4866033,0.7791911,-0.05900574,-0.111145,0.9920349,30.89833,4.960312,-27.83546,3.302567,0.5712341,0.4265366,0.05629027,1.178537,-0.3156695,-0.06884538,-0.0966548,-0.001189794,0.3061829,-7.778534,30.01
2,-0.06832886,-0.1017761,0.9924469,0.7016873,-0.07803345,-0.09194946,0.992691,-30.45357,3.014297,-27.44968,2.9552,0.4668973,0.4866033,0.7791911,-0.05900574,-0.111145,0.9920349,30.89833,4.960312,-27.83546,3.302567,0.5712341,0.4265366,0.05629027,1.178537,-0.3156695,-0.06884538,-0.0966548,-0.001189794,0.3061829,-7.778534,30.01
2,-0.06832886,-0.1017761,0.9924469,0.7016873,-0.07803345,-0.09194946,0.992691,-30.45357,3.014297,-27.44968,2.9552,0.4668973,0.4866033,0.7791911,-0.05900574,-0.111145,0.9920349,30.89833,4.960312,-27.83546,3.302567,0.5712341,0.4265366,0.05629027,1.178537,-0.3156695,-0.06884538,-0.0966548,-0.001189794,0.3061829,-7.778534,30.01
2,-0.07995605,-0.09324646,0.9924164,0.7174041,-0.07995605,-0.09324646,0.9924164,-30.47853,3.01001,-27.46466,3.076752,0.4680195,0.4871801,0.772439,-0.079422,-0.1149139,0.9901886,30.90469,4.703156,-27.14775,3.344177,0.5739357,0.4300494,0.05609286,1.177993,-0.3152548,-0.06661696,-0.09735327,-0.001013992,0.3061829,-7.778534,30.01
2,-0.07995605,-0.09324646,0.9924164,0.7174041,-0.07995605,-0.09324646,0.9924164,-30.47853,3.01001,-27.46466,3.076752,0.4680195,0.4871801,0.772439,-0.079422,-0.1149139,0.9901886,30.90469,4.703156,-27.14775,3.344177,0.5739357,0.4300494,0.05609286,1.177993,-0.3152548,-0.06661696,-0.09735327,-0.001013992,0.3061829,-7.778534,30.01
2,-0.07995605,-0.09324646,0.9924164,0.7174041,-0.07995605,-0.09324646,0.9924164,-30.47853,3.01001,-27.46466,3.076752,0.4680195,0.4871801,0.772439,-0.079422,-0.1149139,0.9901886,30.90469,4.703156,-27.14775,3.344177,0.5739357,0.4300494,0.05609286,1.177993,-0.3152548,-0.06661696,-0.09735327,-0.001013992,0.3061829,-7.778534,30.01
2,-0.07807922,-0.09159851,0.9927216,0.7195099,-0.07806396,-0.09150696,0.9927368,-30.49274,3.015274,-27.52219,3.067917,0.4681764,0.4872089,0.7705521,-0.08261108,-0.1122742,0.9902344,30.89421,4.717621,-27.24327,3.364777,0.5749099,0.429939,0.05589116,1.177715,-0.314726,-0.0647776,-0.09819979,-0.0008097229,0.3061829,-7.778534,30.01
2,-0.07807922,-0.09159851,0.9927216,0.7195099,-0.07806396,-0.09150696,0.9927368,-30.49274,3.015274,-27.52219,3.067917,0.4681764,0.4872089,0.7705521,-0.08261108,-0.1122742,0.9902344,30.89421,4.717621,-27.24327,3.364777,0.5749099,0.429939,0.05589116,1.177715,-0.314726,-0.0647776,-0.09819979,-0.0008097229,0.3061829,-7.778534,30.01
2,-0.07807922,-0.09159851,0.9927216,0.7195099,-0.07806396,-0.09150696,0.9927368,-30.49274,3.015274,-27.52219,3.067917,0.4681764,0.4872089,0.7705521,-0.08261108,-0.1122742,0.9902344,30.89421,4.717621,-27.24327,3.364777,0.5749099,0.429939,0.05589116,1.177715,-0.314726,-0.0647776,-0.09819979,-0.0008097229,0.3061829,-7.778534,30.01
2,-0.08456421,-0.1007996,0.9913025,0.7200849,-0.08488464,-0.09550476,0.9917908,-30.54567,3.025787,-27.45667,3.095657,0.4710777,0.4870299,0.7544644,-0.08406067,-0.1091156,0.9904633,30.88174,4.731277,-27.25546,3.365479,0.5755944,0.4290455,0.05567372,1.177718,-0.3140434,-0.06446261,-0.0990999,-0.0005725606,0.3061829,-7.778534,30.01
2,-0.08456421,-0.1007996,0.9913025,0.7200849,-0.08488464,-0.09550476,0.9917908,-30.54567,3.025787,-27.45667,3.095657,0.4710777,0.4870299,0.7544644,-0.08406067,-0.1091156,0.9904633,30.88174,4.731277,-27.25546,3.365479,0.5755944,0.4290455,0.05567372,1.177718,-0.3140434,-0.06446261,-0.0990999,-0.0005725606,0.3061829,-7.778534,30.01
2,-0.08456421,-0.1007996,0.9913025,0.7200849,-0.08488464,-0.09550476,0.9917908,-30.54567,3.025787,-27.45667,3.095657,0.4710777,0.4870299,0.7544644,-0.08406067,-0.1091156,0.9904633,30.88174,4.731277,-27.25546,3.365479,0.5755944,0.4290455,0.05567372,1.177718,-0.3140434,-0.06446261,-0.0990999,-0.0005725606,0.3061829,-7.778534,30.01
2,-0.08866882,-0.1045685,0.9905548,0.6846913,-0.08799744,-0.09317017,0.991745,-30.56711,3.039566,-27.39749,3.023499,0.4723412,0.4856218,0.745608,-0.08908081,-0.1116638,0.9897308,30.87581,4.742157,-27.22552,3.371902,0.5766273,0.428901,0.05541241,1.177714,-0.3132261,-0.06443936,-0.1003591,-0.000211432,0.3061829,-25.46385,30.01
2,-0.08866882,-0.1045685,0.9905548,0.6846913,-0.08799744,-0.09317017,0.991745,-30.56711,3.039566,-27.39749,3.023499,0.4723412,0.4856218,0.745608,-0.08908081,-0.1116638,0.9897308,30.87581,4.742157,-27.22552,3.371902,0.5766273,0.428901,0.05541241,1.177714,-0.3132261,-0.06443936,-0.1003591,-0.000211432,0.3061829,-25.46385,30.01
2,-0.08866882,-0.1045685,0.9905548,0.6846913,-0.08799744,-0.09317017,0.991745,-30.56711,3.039566,-27.39749,3.023499,0.4723412,0.4856218,0.745608,-0.08908081,-0.1116638,0.9897308,30.87581,4.742157,-27.22552,3.371902,0.5766273,0.428901,0.05541241,1.177714,-0.3132261,-0.06443936,-0.1003591,-0.000211432,0.3061829,-25.46385,30.01
3,-0.08691406,-0.101181,0.9910583,0.6918644,-0.08528137,-0.09550476,0.9917603,-30.58165,3.062546,-27.47649,3.012375,0.47237,0.4859492,0.7532107,-0.08847046,-0.1065979,0.9903412,30.80081,4.731018,-27.11034,3.455597,0.5789754,0.4274328,0.05504167,1.177622,-0.3125957,-0.06395413,-0.101976,0.00029901,0.3061829,-25.46385,30.01
3,-0.08691406,-0.101181,0.9910583,0.6918644,-0.08528137,-0.09550476,0.9917603,-30.58165,3.062546,-27.47649,3.012375,0.47237,0.4859492,0.7532107,-0.08847046,-0.1065979,0.9903412,30.80081,4.731018,-27.11034,3.455597,0.5789754,0.4274328,0.05504167,1.177622,-0.3125957,-0.06395413,-0.101976,0.00029901,0.3061829,-25.46385,30.01
3,-0.08691406,-0.101181,0.9910583,0.6918644,-0.08528137,-0.09550476,0.9917603,-30.58165,3.062546,-27.47649,3.012375,0.47237,0.4859492,0.7532107,-0.08847046,-0.1065979,0.9903412,30.80081,4.731018,-27.11034,3.455597,0.5789754,0.4274328,0.05504167,1.177622,-0.3125957,-0.06395413,-0.101976,0.00029901,0.3061829,-25.46385,30.01
3,-0.0997467,-0.09237671,0.9907074,0.6971872,-0.1003723,-0.09025574,0.9908447,-30.6657,3.10257,-27.79924,3.085037,0.4777052,0.4867177,0.7440756,-0.09596252,-0.1050262,0.9898224,30.79471,4.754807,-27.37885,3.457489,0.5806721,0.428673,0.05458546,1.177426,-0.3120852,-0.06289666,-0.1039097,0.0006686067,0.3061829,-25.46385,30.01
3,-0.0997467,-0.09237671,0.9907074,0.6971872,-0.1003723,-0.09025574,0.9908447,-30.6657,3.10257,-27.79924,3.085037,0.4777052,0.4867177,0.7440756,-0.09596252,-0.1050262,0.9898224,30.79471,4.754807,-27.37885,3.457489,0.5806721,0.428673,0.05458546,1.177426,-0.3120852,-0.06289666,-0.1039097,0.0006686067,0.3061829,-25.46385,30.01
3,-0.0997467,-0.09237671,0.9907074,0.6971872,-0.1003723,-0.09025574,0.9908447,-30.6657,3.10257,-27.79924,3.085037,0.4777052,0.4867177,0.7440756,-0.09596252,-0.1050262,0.9898224,30.79471,4.754807,-27.37885,3.457489,0.5806721,0.428673,0.05458546,1.177426,-0.3120852,-0.06289666,-0.1039097,0.0006686067,0.3061829,-25.46385,30.01
3,-0.103653,-0.09313965,0.9902344,0.6913626,-0.105011,-0.08657837,0.9906921,-30.73251,3.10907,-27.85138,3.285919,0.4806664,0.4864762,0.7497455,-0.1024323,-0.09896851,0.9897919,30.76823,4.652252,-27.19067,3.441864,0.5825164,0.4294948,0.05427814,1.177198,-0.3115804,-0.06185063,-0.1059164,0.001519763,0.3023396,-25.46385,30.01
3,-0.103653,-0.09313965,0.9902344,0.6913626,-0.105011,-0.08657837,0.9906921,-30.73251,3.10907,-27.85138,3.285919,0.4806664,0.4864762,0.7497455,-0.1024323,-0.09896851,0.9897919,30.76823,4.652252,-27.19067,3.441864,0.5825164,0.4294948,0.05427814,1.177198,-0.3115804,-0.06185063,-0.1059164,0.001519763,0.3023396,-25.46385,30.01
3,-0.103653,-0.09313965,0.9902344,0.6913626,-0.105011,-0.08657837,0.9906921,-30.73251,3.10907,-27.85138,3.285919,0.4806664,0.4864762,0.7497455,-0.1024323,-0.09896851,0.9897919,30.76823,4.652252,-27.19067,3.441864,0.5825164,0.4294948,0.05427814,1.177198,-0.3115804,-0.06185063,-0.1059164,0.001519763,0.3023396,-25.46385,30.01
3,-0.1163177,-0.08457947,0.9895935,0.6813635,-0.118103,-0.07691956,0.9900055,-30.77039,3.135956,-27.89891,3.247101,0.4841692,0.4843916,0.7426567,-0.1110229,-0.1070557,0.9880219,30.63518,4.74321,-27.57603,3.58316,0.588816,0.4312372,0.05386591,1.177129,-0.3110344,-0.06135099,-0.1087161,0.002135359,0.3023396,-25.46385,30.01
3,-0.1163177,-0.08457947,0.9895935,0.6813635,-0.118103,-0.07691956,0.9900055,-30.77039,3.135956,-27.89891,3.247101,0.4841692,0.4843916,0.7426567,-0.1110229,-0.1070557,0.9880219,30.63518,4.74321,-27.57603,3.58316,0.588816,0.4312372,0.05386591,1.177129,-0.3110344,-0.06135099,-0.1087161,0.002135359,0.3023396,-25.46385,30.01
3,-0.1163177,-0.08457947,0.9895935,0.6813635,-0.118103,-0.07691956,0.9900055,-30.77039,3.135956,-27.89891,3.247101,0.4841692,0.4843916,0.7426567,-0.1110229,-0.1070557,0.9880219,30.63518,4.74321,-27.57603,3.58316,0.588816,0.4312372,0.05386591,1.177129,-0.3110344,-0.06135099,-0.1087161,0.002135359,0.3023396,-25.46385,30.01
3,-0.0241394,-0.09230042,0.9954224,0.6705954,-0.0504303,-0.08905029,0.9947357,-30.01547,2.885193,-26.9958,3.568771,0.4476303,0.4864615,0.7389885,-0.02185059,-0.09259033,0.9954529,31.35849,4.741547,-27.29773,3.759659,0.5488908,0.4260773,0.05285239,1.177198,-0.3106434,-0.06117099,-0.1144521,0.000690534,0.3023396,-29.5569,30.01
3,-0.0241394,-0.09230042,0.9954224,0.6705954,-0.0504303,-0.08905029,0.9947357,-30.01547,2.885193,-26.9958,3.568771,0.4476303,0.4864615,0.7389885,-0.02185059,-0.09259033,0.9954529,31.35849,4.741547,-27.29773,3.759659,0.5488908,0.4260773,0.05285239,1.177198,-0.3106434,-0.06117099,-0.1144521,0.000690534,0.3023396,-29.5569,30.01
3,-0.0241394,-0.09230042,0.9954224,0.6705954,-0.0504303,-0.08905029,0.9947357,-30.01547,2.885193,-26.9958,3.568771,0.4476303,0.4864615,0.7389885,-0.02185059,-0.09259033,0.9954529,31.35849,4.741547,-27.29773,3.759659,0.5488908,0.4260773,0.05285239,1.177198,-0.3106434,-0.06117099,-0.1144521,0.000690534,0.3023396,-29.5569,30.01
3,0.1532593,-0.0849762,0.9845123,0.5553866,0.1268616,-0.05329895,0.9904785,-28.57713,3.085327,-27.73935,3.627365,0.3696597,0.4799654,0.6401958,0.1539001,-0.08573914,0.9843445,32.65137,4.853317,-27.48077,3.78389,0.4753691,0.422698,0.05161536,1.177189,-0.3103546,-0.0610914,-0.1223073,-0.0007012406,0.3023396,-29.5569,30.01
3,0.1532593,-0.0849762,0.9845123,0.5553866,0.1268616,-0.05329895,0.9904785,-28.57713,3.085327,-27.73935,3.627365,0.3696597,0.4799654,0.6401958,0.1539001,-0.08573914,0.9843445,32.65137,4.853317,-27.48077,3.78389,0.4753691,0.422698,0.05161536,1.177189,-0.3103546,-0.0610914,-0.1223073,-0.0007012406,0.3023396,-29.5569,30.01
3,0.1532593,-0.0849762,0.9845123,0.5553866,0.1268616,-0.05329895,0.9904785,-28.57713,3.085327,-27.73935,3.627365,0.3696597,0.4799654,0.6401958,0.1539001,-0.08573914,0.9843445,32.65137,4.853317,-27.48077,3.78389,0.4753691,0.422698,0.05161536,1.177189,-0.3103546,-0.0610914,-0.1223073,-0.0007012406,0.3023396,-29.5569,30.01
3,0.3518066,-0.1197205,0.9283752,0.5619878,0.3482513,-0.06448364,0.9351654,-27.75137,2.861893,-28.00983,3.605087,0.3031092,0.4932756,0.6899019,0.3518829,-0.1210022,0.9281769,33.33757,4.751205,-27.68579,3.413345,0.4175854,0.4356479,0.05041349,1.177147,-0.3100547,-0.0608127,-0.1299683,-0.0007816314,0.3023396,-29.5569,30.01
3,0.3518066,-0.1197205,0.9283752,0.5619878,0.3482513,-0.06448364,0.9351654,-27.75137,2.861893,-28.00983,3.605087,0.3031092,0.4932756,0.6899019,0.3518829,-0.1210022,0.9281769,33.33757,4.751205,-27.68579,3.413345,0.4175854,0.4356479,0.05041349,1.177147,-0.3100547,-0.0608127,-0.1299683,-0.0007816314,0.3023396,-29.5569,30.01
3,0.3518066,-0.1197205,0.9283752,0.5619878,0.3482513,-0.06448364,0.9351654,-27.75137,2.861893,-28.00983,3.605087,0.3031092,0.4932756,0.6899019,0.3518829,-0.1210022,0.9281769,33.33757,4.751205,-27.68579,3.413345,0.4175854,0.4356479,0.05041349,1.177147,-0.3100547,-0.0608127,-0.1299683,-0.0007816314,0.3023396,-29.5569,30.01
3,0.4111481,-0.08155823,0.9078979,0.6134959,0.4071808,-0.02510071,0.9129944,-27.52063,2.845047,-28.15508,3.979584,0.2845055,0.4892077,0.6764142,0.4119568,-0.09594727,0.9061279,33.56683,4.726288,-27.81221,3.644928,0.3992076,0.434043,0.04900038,1.176928,-0.3098848,-0.06014066,-0.1379817,-0.0005725605,0.3023396,-29.5569,30.01
3,0.4111481,-0.08155823,0.9078979,0.6134959,0.4071808,-0.02510071,0.9129944,-27.52063,2.845047,-28.15508,3.979584,0.2845055,0.4892077,0.6764142,0.4119568,-0.09594727,0.9061279,33.56683,4.726288,-27.81221,3.644928,0.3992076,0.434043,0.04900038,1.176928,-0.3098848,-0.06014066,-0.1379817,-0.0005725605,0.3023396,-29.5569,30.01
3,0.4111481,-0.08155823,0.9078979,0.6134959,0.4071808,-0.02510071,0.9129944,-27.52063,2.845047,-28.15508,3.979584,0.2845055,0.4892077,0.6764142,0.4119568,-0.09594727,0.9061279,33.56683,4.726288,-27.81221,3.644928,0.3992076,0.434043,0.04900038,1.176928,-0.3098848,-0.06014066,-0.1379817,-0.0005725605,0.3023396,-29.5569,30.01
3,0.3765717,-0.08628845,0.922348,0.711848,0.3813477,-0.05502319,0.9227905,-27.72049,2.788055,-28.07945,3.675308,0.2960485,0.4952086,0.752378,0.3735046,-0.1051331,0.9216309,33.5136,4.663452,-27.76201,3.583618,0.4078201,0.4367667,0.04772723,1.176659,-0.3098018,-0.05874741,-0.1450926,-0.0001726335,0.3023396,-29.5569,30.01
3,0.3765717,-0.08628845,0.922348,0.711848,0.3813477,-0.05502319,0.9227905,-27.72049,2.788055,-28.07945,3.675308,0.2960485,0.4952086,0.752378,0.3735046,-0.1051331,0.9216309,33.5136,4.663452,-27.76201,3.583618,0.4078201,0.4367667,0.04772723,1.176659,-0.3098018,-0.05874741,-0.1450926,-0.0001726335,0.3023396,-29.5569,30.01
3,0.3765717,-0.08628845,0.922348,0.711848,0.3813477,-0.05502319,0.9227905,-27.72049,2.788055,-28.07945,3.675308,0.2960485,0.4952086,0.752378,0.3735046,-0.1051331,0.9216309,33.5136,4.663452,-27.76201,3.583618,0.4078201,0.4367667,0.04772723,1.176659,-0.3098018,-0.05874741,-0.1450926,-0.0001726335,0.3023396,-29.5569,30.01
3,0.3628998,-0.06967163,0.9292145,0.7688068,0.3674622,-0.03787231,0.9292603,-27.94655,2.705872,-28.03026,3.737167,0.306348,0.494491,0.8351321,0.3602448,-0.08706665,0.928772,33.3485,4.600708,-27.72879,3.64856,0.4158335,0.4352893,0.04654181,1.17643,-0.3098378,-0.05737279,-0.1510289,0.0,0.3023396,-29.5569,30.01
3,0.3628998,-0.06967163,0.9292145,0.7688068,0.3674622,-0.03787231,0.9292603,-27.94655,2.705872,-28.03026,3.737167,0.306348,0.494491,0.8351321,0.3602448,-0.08706665,0.928772,33.3485,4.600708,-27.72879,3.64856,0.4158335,0.4352893,0.04654181,1.17643,-0.3098378,-0.05737279,-0.1510289,0.0,0.3023396,-29.5569,30.01
3,0.3628998,-0.06967163,0.9292145,0.7688068,0.3674622,-0.03787231,0.9292603,-27.94655,2.705872,-28.03026,3.737167,0.306348,0.494491,0.8351321,0.3602448,-0.08706665,0.928772,33.3485,4.600708,-27.72879,3.64856,0.4158335,0.4352893,0.04654181,1.17643,-0.3098378,-0.05737279,-0.1510289,0.0,0.3023396,-29.5569,30.01
3,0.342804,-0.07771301,0.9361725,0.843231,0.3503723,-0.05310059,0.9350891,-28.15463,2.668076,-27.96356,3.619125,0.3165247,0.4975885,0.8925856,0.3349609,-0.1024323,0.9366302,33.16832,4.527542,-27.6478,3.53006,0.4263603,0.4394549,0.04535162,1.176214,-0.3099556,-0.05622051,-0.1558306,-0.000345267,0.3023396,0.2763824,30.01
3,0.342804,-0.07771301,0.9361725,0.843231,0.3503723,-0.05310059,0.9350891,-28.15463,2.668076,-27.96356,3.619125,0.3165247,0.4975885,0.8925856,0.3349609,-0.1024323,0.9366302,33.16832,4.527542,-27.6478,3.53006,0.4263603,0.4394549,0.04535162,1.176214,-0.3099556,-0.05622051,-0.1558306,-0.000345267,0.3023396,0.2763824,30.01
3,0.342804,-0.07771301,0.9361725,0.843231,0.3503723,-0.05310059,0.9350891,-28.15463,2.668076,-27.96356,3.619125,0.3165247,0.4975885,0.8925856,0.3349609,-0.1024323,0.9366302,33.16832,4.527542,-27.6478,3.53006,0.4263603,0.4394549,0.04535162,1.176214,-0.3099556,-0.05622051,-0.1558306,-0.000345267,0.3023396,0.2763824,30.01
3,0.2943115,-0.02580261,0.9553528,0.9020897,0.2988892,-0.01342773,0.9541779,-28.17804,2.528,-27.95685,3.491791,0.3262046,0.4946717,0.9439208,0.2900696,-0.03710938,0.9562683,33.11969,4.327103,-27.6942,3.411392,0.4355969,0.4346077,0.04449928,1.176061,-0.3101203,-0.05566553,-0.1601257,-0.0001220703,0.3023396,0.2763824,30.01
3,0.2943115,-0.02580261,0.9553528,0.9020897,0.2988892,-0.01342773,0.9541779,-28.17804,2.528,-27.95685,3.491791,0.3262046,0.4946717,0.9439208,0.2900696,-0.03710938,0.9562683,33.11969,4.327103,-27.6942,3.411392,0.4355969,0.4346077,0.04449928,1.176061,-0.3101203,-0.05566553,-0.1601257,-0.0001220703,0.3023396,0.2763824,30.01
3,0.2943115,-0.02580261,0.9553528,0.9020897,0.2988892,-0.01342773,0.9541779,-28.17804,2.528,-27.95685,3.491791,0.3262046,0.4946717,0.9439208,0.2900696,-0.03710938,0.9562683,33.11969,4.327103,-27.6942,3.411392,0.4355969,0.4346077,0.04449928,1.176061,-0.3101203,-0.05566553,-0.1601257,-0.0001220703,0.3023396,0.2763824,30.01
3,0.2561493,-0.09094238,0.9623413,0.9338657,0.2581635,-0.07185364,0.9634094,-28.31332,2.712936,-27.83908,3.429794,0.338087,0.4971205,0.9658001,0.2546234,-0.1048431,0.9613342,33.06941,4.554962,-27.59088,3.522354,0.4436958,0.4375738,0.04366481,1.175903,-0.3104228,-0.05510958,-0.1649727,0.001078096,0.3023396,0.2763824,30.01
3,0.2561493,-0.09094238,0.9623413,0.9338657,0.2581635,-0.07185364,0.9634094,-28.31332,2.712936,-27.83908,3.429794,0.338087,0.4971205,0.9658001,0.2546234,-0.1048431,0.9613342,33.06941,4.554962,-27.59088,3.522354,0.4436958,0.4375738,0.04366481,1.175903,-0.3104228,-0.05510958,-0.1649727,0.001078096,0.3023396,0.2763824,30.01
3,0.2561493,-0.09094238,0.9623413,0.9338657,0.2581635,-0.07185364,0.9634094,-28.31332,2.712936,-27.83908,3.429794,0.338087,0.4971205,0.9658001,0.2546234,-0.1048431,0.9613342,33.06941,4.554962,-27.59088,3.522354,0.4436958,0.4375738,0.04366481,1.175903,-0.3104228,-0.05510958,-0.1649727,0.001078096,0.3023396,0.2763824,30.01
3,0.2561493,-0.09094238,0.9623413,0.9338657,0.2581635,-0.07185364,0.9634094,-28.31332,2.712936,-27.83908,3.429794,0.338087,0.4971205,0.9658001,0.2546234,-0.1048431,0.9613342,33.06941,4.554962,-27.59088,3.522354,0.4436958,0.4375738,0.04265702,1.175831,-0.3106961,-0.0549022,-0.1702022,0.002002102,0.3023396,0.2763824,30.01
3,0.2561493,-0.09094238,0.9623413,0.9338657,0.2581635,-0.07185364,0.9634094,-28.31332,2.712936,-27.83908,3.429794,0.338087,0.4971205,0.9658001,0.2546234,-0.1048431,0.9613342,33.06941,4.554962,-27.59088,3.522354,0.4436958,0.4375738,0.04265702,1.175831,-0.3106961,-0.0549022,-0.1702022,0.002002102,0.3023396,0.2763824,30.01
3,0.2561493,-0.09094238,0.9623413,0.9338657,0.2581635,-0.07185364,0.9634094,-28.31332,2.712936,-27.83908,3.429794,0.338087,0.4971205,0.9658001,0.2546234,-0.1048431,0.9613342,33.06941,4.554962,-27.59088,3.522354,0.4436958,0.4375738,0.04265702,1.175831,-0.3106961,-0.0549022,-0.1702022,0.002002102,0.3023396,0.2763824,30.01
3,0.2502441,-0.09213257,0.9637756,0.9123932,0.2605438,-0.07284546,0.9627075,-28.38817,2.735367,-27.81116,3.335312,0.3402007,0.4962893,0.9778681,0.2440948,-0.1035309,0.9642029,33.03584,4.548141,-27.58577,3.507111,0.446642,0.4374406,0.04184926,1.17574,-0.3111883,-0.05463161,-0.175553,0.002955009,0.3023396,0.2763824,30.01
3,0.2502441,-0.09213257,0.9637756,0.9123932,0.2605438,-0.07284546,0.9627075,-28.38817,2.735367,-27.81116,3.335312,0.3402007,0.4962893,0.9778681,0.2440948,-0.1035309,0.9642029,33.03584,4.548141,-27.58577,3.507111,0.446642,0.4374406,0.04184926,1.17574,-0.3111883,-0.05463161,-0.175553,0.002955009,0.3023396,0.2763824,30.01
3,0.2502441,-0.09213257,0.9637756,0.9123932,0.2605438,-0.07284546,0.9627075,-28.38817,2.735367,-27.81116,3.335312,0.3402007,0.4962893,0.9778681,0.2440948,-0.1035309,0.9642029,33.03584,4.548141,-27.58577,3.507111,0.446642,0.4374406,0.04184926,1.17574,-0.3111883,-0.05463161,-0.175553,0.002955009,0.3023396,0.2763824,30.01
3,0.181488,-0.09370422,0.9789124,0.8593181,0.1808472,-0.08015442,0.9802246,-28.73491,2.743057,-27.73752,3.417145,0.3656738,0.4961671,0.9805971,0.1819611,-0.1038971,0.9777985,32.75653,4.507782,-27.50461,3.417358,0.466765,0.4377373,0.04134774,1.175581,-0.3117789,-0.05359901,-0.179899,0.00259525,0.3023396,17.77461,30.01
3,0.181488,-0.09370422,0.9789124,0.8593181,0.1808472,-0.08015442,0.9802246,-28.73491,2.743057,-27.73752,3.417145,0.3656738,0.4961671,0.9805971,0.1819611,-0.1038971,0.9777985,32.75653,4.507782,-27.50461,3.417358,0.466765,0.4377373,0.04134774,1.175581,-0.3117789,-0.05359901,-0.179899,0.00259525,0.3023396,17.77461,30.01
3,0.181488,-0.09370422,0.9789124,0.8593181,0.1808472,-0.08015442,0.9802246,-28.73491,2.743057,-27.73752,3.417145,0.3656738,0.4961671,0.9805971,0.1819611,-0.1038971,0.9777985,32.75653,4.507782,-27.50461,3.417358,0.466765,0.4377373,0.04134774,1.175581,-0.3117789,-0.05359901,-0.179899,0.00259525,0.3023396,17.77461,30.01
3,0.1582489,-0.09899902,0.9824066,0.8589423,0.148056,-0.08958435,0.9849091,-28.8777,2.725357,-27.63791,3.231491,0.3760639,0.4972703,0.9614471,0.1652222,-0.1054382,0.9805908,32.55647,4.534912,-27.49704,3.426849,0.4764377,0.4369752,0.04121292,1.17548,-0.3120856,-0.05289294,-0.1816524,0.001464844,0.3023396,17.77461,30.01
3,0.1582489,-0.09899902,0.9824066,0.8589423,0.148056,-0.08958435,0.9849091,-28.8777,2.725357,-27.63791,3.231491,0.3760639,0.4972703,0.9614471,0.1652222,-0.1054382,0.9805908,32.55647,4.534912,-27.49704,3.426849,0.4764377,0.4369752,0.04121292,1.17548,-0.3120856,-0.05289294,-0.1816524,0.001464844,0.3023396,17.77461,30.01
3,0.1424408,-0.09895325,0.9848328,0.8643569,0.1264343,-0.07965088,0.9887695,-28.93254,2.681625,-27.51622,3.179947,0.3816437,0.4958105,0.9789431,0.1495514,-0.1075592,0.9828796,32.48599,4.547668,-27.49594,3.336823,0.4814712,0.4368128,0.04132044,1.175496,-0.3123816,-0.05240899,-0.1826341,0.0,0.3023396,17.77461,30.01
3,0.1424408,-0.09895325,0.9848328,0.8643569,0.1264343,-0.07965088,0.9887695,-28.93254,2.681625,-27.51622,3.179947,0.3816437,0.4958105,0.9789431,0.1495514,-0.1075592,0.9828796,32.48599,4.547668,-27.49594,3.336823,0.4814712,0.4368128,0.04132044,1.175496,-0.3123816,-0.05240899,-0.1826341,0.0,0.3023396,17.77461,30.01
3,0.1303253,-0.0982666,0.9865875,0.8773196,0.1206818,-0.08805847,0.9887695,-29.08115,2.694321,-27.43961,3.228149,0.387655,0.4961971,0.9866964,0.1325531,-0.100647,0.9860382,32.37402,4.555557,-27.50879,3.391983,0.4881999,0.4354124,0.04164231,1.175392,-0.3125895,-0.05191405,-0.1825763,-0.001386452,0.3023396,17.77461,30.01
3,0.1303253,-0.0982666,0.9865875,0.8773196,0.1206818,-0.08805847,0.9887695,-29.08115,2.694321,-27.43961,3.228149,0.387655,0.4961971,0.9866964,0.1325531,-0.100647,0.9860382,32.37402,4.555557,-27.50879,3.391983,0.4881999,0.4354124,0.04164231,1.175392,-0.3125895,-0.05191405,-0.1825763,-0.001386452,0.3023396,17.77461,30.01
3,0.1125183,-0.1116028,0.9873505,0.8725682,0.1009216,-0.09036255,0.9907684,-29.17355,2.674118,-27.40523,3.297745,0.3941081,0.4969545,0.9489446,0.1151581,-0.1164398,0.986496,32.24548,4.548981,-27.52417,3.289398,0.4954955,0.4384583,0.04207289,1.175296,-0.3129742,-0.05101195,-0.181359,-0.002652046,0.3023396,17.77461,30.01
3,0.1125183,-0.1116028,0.9873505,0.8725682,0.1009216,-0.09036255,0.9907684,-29.17355,2.674118,-27.40523,3.297745,0.3941081,0.4969545,0.9489446,0.1151581,-0.1164398,0.986496,32.24548,4.548981,-27.52417,3.289398,0.4954955,0.4384583,0.04207289,1.175296,-0.3129742,-0.05101195,-0.181359,-0.002652046,0.3023396,17.77461,30.01
3,0.1064453,-0.102951,0.9889679,0.8685653,0.09318542,-0.09321594,0.991272,-29.28612,2.690292,-27.45152,3.324646,0.3991489,0.4973353,0.9600993,0.112381,-0.1073151,0.9878387,32.16406,4.563507,-27.55823,3.398895,0.4987808,0.4367155,0.04286647,1.175216,-0.3133141,-0.05040262,-0.1788399,-0.003807733,0.3023396,17.77461,30.01
3,0.1064453,-0.102951,0.9889679,0.8685653,0.09318542,-0.09321594,0.991272,-29.28612,2.690292,-27.45152,3.324646,0.3991489,0.4973353,0.9600993,0.112381,-0.1073151,0.9878387,32.16406,4.563507,-27.55823,3.398895,0.4987808,0.4367155,0.04286647,1.175216,-0.3133141,-0.05040262,-0.1788399,-0.003807733,0.3023396,17.77461,30.01
3,0.08981323,-0.1078491,0.990097,0.848772,0.08261108,-0.1009521,0.9914398,-29.39827,2.749039,-27.3483,3.145309,0.4047136,0.4957312,0.9455934,0.09590149,-0.1136932,0.9888611,32.06966,4.623093,-27.73848,3.223557,0.5047876,0.4372882,0.04368711,1.175373,-0.3135024,-0.05095949,-0.175462,-0.004562557,0.3023396,17.77461,30.01
3,0.08981323,-0.1078491,0.990097,0.848772,0.08261108,-0.1009521,0.9914398,-29.39827,2.749039,-27.3483,3.145309,0.4047136,0.4957312,0.9455934,0.09590149,-0.1136932,0.9888611,32.06966,4.623093,-27.73848,3.223557,0.5047876,0.4372882,0.04368711,1.175373,-0.3135024,-0.05095949,-0.175462,-0.004562557,0.3023396,17.77461,30.01
3,0.08863831,-0.1092682,0.990036,0.8349838,0.07849121,-0.09645081,0.9922333,-29.44504,2.782974,-27.21243,3.173935,0.4070538,0.4926245,0.9454208,0.09744263,-0.1203918,0.9879303,31.98465,4.558624,-27.13818,3.418411,0.5073324,0.4355468,0.04455042,1.175678,-0.3138072,-0.05252074,-0.1721652,-0.004832196,0.3023396,18.00537,30.01
3,0.08863831,-0.1092682,0.990036,0.8349838,0.07849121,-0.09645081,0.9922333,-29.44504,2.782974,-27.21243,3.173935,0.4070538,0.4926245,0.9454208,0.09744263,-0.1203918,0.9879303,31.98465,4.558624,-27.13818,3.418411,0.5073324,0.4355468,0.04455042,1.175678,-0.3138072,-0.05252074,-0.1721652,-0.004832196,0.3023396,18.00537,30.01
3,0.05606079,-0.08795166,0.9945374,0.8219743,0.05567932,-0.08757019,0.9945984,-29.42067,2.763168,-27.15681,3.205933,0.4101025,0.4912209,0.9526572,0.09507751,-0.1253357,0.9875336,31.95979,4.508286,-26.81157,3.409439,0.5084881,0.4352759,0.04538703,1.175993,-0.3141546,-0.05425871,-0.1685142,-0.004757611,0.3023396,18.00537,30.01
3,0.05606079,-0.08795166,0.9945374,0.8219743,0.05567932,-0.08757019,0.9945984,-29.42067,2.763168,-27.15681,3.205933,0.4101025,0.4912209,0.9526572,0.09507751,-0.1253357,0.9875336,31.95979,4.508286,-26.81157,3.409439,0.5084881,0.4352759,0.04538703,1.175993,-0.3141546,-0.05425871,-0.1685142,-0.004757611,0.3023396,18.00537,30.01
3,0.05929565,-0.08920288,0.9942322,0.8191343,0.05929565,-0.08920288,0.9942322,-29.43758,2.770905,-27.10977,3.088196,0.4100759,0.4907838,0.9349177,0.09121704,-0.1199493,0.9885712,31.96077,4.532471,-26.91037,3.329651,0.5091146,0.434342,0.04629588,1.176196,-0.31455,-0.05575661,-0.1650013,-0.00442831,0.3023396,18.00537,30.01
3,0.05929565,-0.08920288,0.9942322,0.8191343,0.05929565,-0.08920288,0.9942322,-29.43758,2.770905,-27.10977,3.088196,0.4100759,0.4907838,0.9349177,0.09121704,-0.1199493,0.9885712,31.96077,4.532471,-26.91037,3.329651,0.5091146,0.434342,0.04629588,1.176196,-0.31455,-0.05575661,-0.1650013,-0.00442831,0.3023396,18.00537,30.01
3,0.06234741,-0.09689331,0.9933319,0.81242,0.06219482,-0.09672546,0.9933624,-29.453,2.778656,-27.04588,3.091431,0.4101284,0.4912676,0.9365948,0.0872345,-0.1244202,0.9883728,31.96077,4.532471,-26.91037,3.328583,0.5097869,0.43511,0.04710412,1.176386,-0.3149841,-0.05706536,-0.1613455,-0.003776296,0.3023396,18.00537,30.01
3,0.06234741,-0.09689331,0.9933319,0.81242,0.06219482,-0.09672546,0.9933624,-29.453,2.778656,-27.04588,3.091431,0.4101284,0.4912676,0.9365948,0.0872345,-0.1244202,0.9883728,31.96077,4.532471,-26.91037,3.328583,0.5097869,0.43511,0.04710412,1.176386,-0.3149841,-0.05706536,-0.1613455,-0.003776296,0.3023396,18.00537,30.01
3,0.07795715,-0.1165466,0.9901123,0.7944446,0.05892944,-0.1002502,0.9932098,-29.45238,2.782715,-27.03149,3.090988,0.4106591,0.4916043,0.9479865,0.08761597,-0.1248169,0.9882965,31.95801,4.515625,-26.89722,3.369614,0.5098193,0.4356439,0.04787576,1.176409,-0.3154684,-0.05763865,-0.1577113,-0.002852374,0.3023396,18.00537,30.01
3,0.07795715,-0.1165466,0.9901123,0.7944446,0.05892944,-0.1002502,0.9932098,-29.45238,2.782715,-27.03149,3.090988,0.4106591,0.4916043,0.9479865,0.08761597,-0.1248169,0.9882965,31.95801,4.515625,-26.89722,3.369614,0.5098193,0.4356439,0.04787576,1.176409,-0.3154684,-0.05763865,-0.1577113,-0.002852374,0.3023396,18.00537,30.01
3,0.05584717,-0.1119843,0.9921265,0.8018747,0.05091858,-0.1086578,0.9927673,-29.46342,2.760818,-27.03384,3.048981,0.4123529,0.4937838,0.9234915,0.07369995,-0.1240082,0.9895325,31.97862,4.588425,-27.35803,3.36293,0.5116065,0.4369786,0.04863763,1.176228,-0.3159418,-0.05763115,-0.1536592,-0.001945481,0.3023396,18.00537,30.01
3,0.05584717,-0.1119843,0.9921265,0.8018747,0.05091858,-0.1086578,0.9927673,-29.46342,2.760818,-27.03384,3.048981,0.4123529,0.4937838,0.9234915,0.07369995,-0.1240082,0.9895325,31.97862,4.588425,-27.35803,3.36293,0.5116065,0.4369786,0.04863763,1.176228,-0.3159418,-0.05763115,-0.1536592,-0.001945481,0.3023396,18.00537,30.01
3,0.04992676,-0.1076813,0.9929199,0.8167996,0.04969788,-0.1074677,0.9929504,-29.46526,2.757324,-27.07372,3.081131,0.4126011,0.4940559,0.9342811,0.07225037,-0.1289825,0.9889984,31.97443,4.56778,-27.30315,3.363251,0.5119736,0.4380858,0.04948997,1.176117,-0.316499,-0.05710438,-0.1493991,-0.000345267,0.3023396,18.00537,30.01
3,0.04992676,-0.1076813,0.9929199,0.8167996,0.04969788,-0.1074677,0.9929504,-29.46526,2.757324,-27.07372,3.081131,0.4126011,0.4940559,0.9342811,0.07225037,-0.1289825,0.9889984,31.97443,4.56778,-27.30315,3.363251,0.5119736,0.4380858,0.04948997,1.176117,-0.316499,-0.05710438,-0.1493991,-0.000345267,0.3023396,18.00537,30.01
3,0.04853821,-0.1100159,0.9927368,0.8086477,0.04840088,-0.1098785,0.9927521,-29.47101,2.755585,-27.06963,3.106644,0.413011,0.4945046,0.9181116,0.07302856,-0.1347961,0.9881744,31.96707,4.54567,-27.24809,3.336395,0.5120655,0.4393659,0.05022109,1.175946,-0.3171654,-0.05629956,-0.1448664,0.001418329,0.3023396,18.00537,30.01
3,0.04853821,-0.1100159,0.9927368,0.8086477,0.04840088,-0.1098785,0.9927521,-29.47101,2.755585,-27.06963,3.106644,0.413011,0.4945046,0.9181116,0.07302856,-0.1347961,0.9881744,31.96707,4.54567,-27.24809,3.336395,0.5120655,0.4393659,0.05022109,1.175946,-0.3171654,-0.05629956,-0.1448664,0.001418329,0.3023396,18.00537,30.01
3,0.05639648,-0.1228943,0.9908142,0.8072407,0.05220032,-0.1188507,0.9915314,-29.48386,2.742111,-27.04384,3.201843,0.4128112,0.4963271,0.9037377,0.07151794,-0.1374054,0.987915,31.9682,4.551987,-27.25958,3.30722,0.5122803,0.4397036,0.05104363,1.17579,-0.3178644,-0.05567477,-0.1406987,0.002027984,0.3023396,5.233902,30.01
3,0.05639648,-0.1228943,0.9908142,0.8072407,0.05220032,-0.1188507,0.9915314,-29.48386,2.742111,-27.04384,3.201843,0.4128112,0.4963271,0.9037377,0.07151794,-0.1374054,0.987915,31.9682,4.551987,-27.25958,3.30722,0.5122803,0.4397036,0.05104363,1.17579,-0.3178644,-0.05567477,-0.1406987,0.002027984,0.3023396,5.233902,30.01
3,0.05052185,-0.1170349,0.9918365,0.7767721,0.05052185,-0.1170349,0.9918365,-29.47031,2.763779,-27.04286,3.106445,0.4126386,0.4952379,0.8904001,0.06019592,-0.1472473,0.9872589,32.06783,4.794266,-28.11928,3.157028,0.5110495,0.4406665,0.05160511,1.175842,-0.318572,-0.05616083,-0.1368586,0.001619446,0.3023396,5.233902,30.01
3,0.05052185,-0.1170349,0.9918365,0.7767721,0.05052185,-0.1170349,0.9918365,-29.47031,2.763779,-27.04286,3.106445,0.4126386,0.4952379,0.8904001,0.06019592,-0.1472473,0.9872589,32.06783,4.794266,-28.11928,3.157028,0.5110495,0.4406665,0.05160511,1.175842,-0.318572,-0.05616083,-0.1368586,0.001619446,0.3023396,5.233902,30.01
3,0.05671692,-0.1136627,0.9918976,0.7511584,0.05671692,-0.1136627,0.9918976,-29.4171,2.764557,-26.85716,3.030441,0.4099212,0.4929342,0.8897673,0.05915833,-0.1435699,0.9878693,32.09184,4.858932,-28.25017,3.113037,0.510446,0.4389373,0.05213439,1.176079,-0.3193104,-0.05766127,-0.1336847,0.0009533996,0.3023396,5.233902,30.01
3,0.05671692,-0.1136627,0.9918976,0.7511584,0.05671692,-0.1136627,0.9918976,-29.4171,2.764557,-26.85716,3.030441,0.4099212,0.4929342,0.8897673,0.05915833,-0.1435699,0.9878693,32.09184,4.858932,-28.25017,3.113037,0.510446,0.4389373,0.05213439,1.176079,-0.3193104,-0.05766127,-0.1336847,0.0009533996,0.3023396,5.233902,30.01
3,0.05577087,-0.1095428,0.9924011,0.7582373,0.05577087,-0.1095428,0.9924011,-29.37115,2.900665,-27.04639,3.134796,0.4084959,0.4894379,0.8825011,0.07348633,-0.1451263,0.9866638,32.07047,4.711853,-27.27121,3.119659,0.5084674,0.4357318,0.05257249,1.176349,-0.3200274,-0.05987397,-0.1311311,0.00059802,0.3023396,5.233902,30.01
3,0.05577087,-0.1095428,0.9924011,0.7582373,0.05577087,-0.1095428,0.9924011,-29.37115,2.900665,-27.04639,3.134796,0.4084959,0.4894379,0.8825011,0.07348633,-0.1451263,0.9866638,32.07047,4.711853,-27.27121,3.119659,0.5084674,0.4357318,0.05257249,1.176349,-0.3200274,-0.05987397,-0.1311311,0.00059802,0.3023396,5.233902,30.01
3,0.05638123,-0.1198578,0.9911804,0.7102099,0.05638123,-0.1198578,0.9911804,-29.35185,2.948334,-26.98285,3.102005,0.4077844,0.4890677,0.8386365,0.07197571,-0.1559601,0.9851227,32.0988,4.720657,-27.22867,3.190887,0.5077702,0.4369825,0.05307305,1.176717,-0.3207852,-0.0619,-0.1287821,0.0004401308,0.3023396,5.233902,30.01
3,0.05638123,-0.1198578,0.9911804,0.7102099,0.05638123,-0.1198578,0.9911804,-29.35185,2.948334,-26.98285,3.102005,0.4077844,0.4890677,0.8386365,0.07197571,-0.1559601,0.9851227,32.0988,4.720657,-27.22867,3.190887,0.5077702,0.4369825,0.05307305,1.176717,-0.3207852,-0.0619,-0.1287821,0.0004401308,0.3023396,5.233902,30.01
3,0.04272461,-0.1221924,0.9915771,0.6921098,0.04270935,-0.1221619,0.9915771,-29.50868,2.915939,-26.7338,3.126205,0.4153966,0.488365,0.79806,0.05943298,-0.1527252,0.9864655,31.90598,4.717224,-26.9886,3.090073,0.5163454,0.4344682,0.05350304,1.176937,-0.3216513,-0.06328037,-0.1264168,0.0001220703,0.3023396,5.233902,30.01
3,0.04272461,-0.1221924,0.9915771,0.6921098,0.04270935,-0.1221619,0.9915771,-29.50868,2.915939,-26.7338,3.126205,0.4153966,0.488365,0.79806,0.05943298,-0.1527252,0.9864655,31.90598,4.717224,-26.9886,3.090073,0.5163454,0.4344682,0.05350304,1.176937,-0.3216513,-0.06328037,-0.1264168,0.0001220703,0.3023396,5.233902,30.01
3,-1.0,-1.0,-1.0,0.6298668,0.0,0.0,0.0,-30.24683,3.402771,-27.45807,-1.0,0.4573041,0.471825,0.690083,0.0,0.0,0.0,31.0567,5.14592,-27.41768,-1.0,0.5606084,0.4193185,0.05398285,1.176999,-0.32271,-0.06333285,-0.1239355,-0.0004048614,0.3023396,5.233902,30.01
3,-1.0,-1.0,-1.0,0.6298668,0.0,0.0,0.0,-30.24683,3.402771,-27.45807,-1.0,0.4573041,0.471825,0.690083,0.0,0.0,0.0,31.0567,5.14592,-27.41768,-1.0,0.5606084,0.4193185,0.05398285,1.176999,-0.32271,-0.06333285,-0.1239355,-0.0004048614,0.3023396,5.233902,30.01
4,-1.0,-1.0,-1.0,0.2782125,0.0,0.0,0.0,-30.89384,2.489883,-23.95279,-1.0,0.4650496,0.4556339,0.3587849,0.0,0.0,0.0,29.12148,4.07486,-28.23398,-1.0,0.7013519,0.4889375,0.05443764,1.176785,-0.3239988,-0.06231926,-0.1212955,-0.001021314,0.3023396,5.233902,30.01
4,-1.0,-1.0,-1.0,0.2782125,0.0,0.0,0.0,-30.89384,2.489883,-23.95279,-1.0,0.4650496,0.4556339,0.3587849,0.0,0.0,0.0,29.12148,4.07486,-28.23398,-1.0,0.7013519,0.4889375,0.05443764,1.176785,-0.3239988,-0.06231926,-0.1212955,-0.001021314,0.3023396,5.233902,30.01
4,-1.0,-1.0,-1.0,0.1508273,0.0,0.0,0.0,-30.48549,3.273926,-25.00079,-1.0,0.465001,0.4543365,0.2603079,0.0,0.0,0.0,31.0195,5.267029,-27.38612,-1.0,0.5735859,0.4531826,0.05483007,1.17658,-0.3252611,-0.06216556,-0.1186585,-0.00148505,0.3023396,-18.31894,30.01
4,-1.0,-1.0,-1.0,0.1508273,0.0,0.0,0.0,-30.48549,3.273926,-25.00079,-1.0,0.465001,0.4543365,0.2603079,0.0,0.0,0.0,31.0195,5.267029,-27.38612,-1.0,0.5735859,0.4531826,0.05483007,1.17658,-0.3252611,-0.06216556,-0.1186585,-0.00148505,0.3023396,-18.31894,30.01
4,-1.0,-1.0,-1.0,0.1825034,0.0,0.0,0.0,-30.5461,3.679276,-28.08151,-1.0,0.4689901,0.4638697,0.2853528,0.0,0.0,0.0,30.73143,6.555008,-34.05971,-1.0,0.5715737,0.4163533,0.05534256,1.176541,-0.3264081,-0.06290104,-0.1163069,-0.001687045,0.3023396,-18.31894,30.01
4,-1.0,-1.0,-1.0,0.1825034,0.0,0.0,0.0,-30.5461,3.679276,-28.08151,-1.0,0.4689901,0.4638697,0.2853528,0.0,0.0,0.0,30.73143,6.555008,-34.05971,-1.0,0.5715737,0.4163533,0.05534256,1.176541,-0.3264081,-0.06290104,-0.1163069,-0.001687045,0.3023396,-18.31894,30.01
4,-1.0,-1.0,-1.0,0.403374,0.0,0.0,0.0,-30.53682,3.647293,-27.87082,-1.0,0.470877,0.4582153,0.4623955,0.0,0.0,0.0,30.89017,5.159027,-27.13083,-1.0,0.5711874,0.4113941,0.05573428,1.176703,-0.3275776,-0.0645963,-0.1139815,-0.002224227,0.3023396,-18.31894,30.01
4,-1.0,-1.0,-1.0,0.403374,0.0,0.0,0.0,-30.53682,3.647293,-27.87082,-1.0,0.470877,0.4582153,0.4623955,0.0,0.0,0.0,30.89017,5.159027,-27.13083,-1.0,0.5711874,0.4113941,0.05573428,1.176703,-0.3275776,-0.0645963,-0.1139815,-0.002224227,0.3023396,-18.31894,30.01
4,-0.08615112,-0.03807068,0.9955444,0.4277703,-0.08615112,-0.03807068,0.9955444,-30.5589,3.68541,-27.98019,3.326614,0.4718403,0.4600133,0.5109081,-0.03797913,-0.1016235,0.9940948,30.83827,5.648071,-29.17612,3.195587,0.570797,0.4128464,0.05609143,1.176981,-0.3287435,-0.06585397,-0.1115908,-0.002623802,0.3023396,-18.31894,30.01
4,-0.08615112,-0.03807068,0.9955444,0.4277703,-0.08615112,-0.03807068,0.9955444,-30.5589,3.68541,-27.98019,3.326614,0.4718403,0.4600133,0.5109081,-0.03797913,-0.1016235,0.9940948,30.83827,5.648071,-29.17612,3.195587,0.570797,0.4128464,0.05609143,1.176981,-0.3287435,-0.06585397,-0.1115908,-0.002623802,0.3023396,-18.31894,30.01
4,-0.08447266,-0.05123901,0.9951019,0.4334319,-0.08447266,-0.05123901,0.9951019,-30.58203,3.719345,-28.15521,3.24028,0.4723338,0.462635,0.5417584,-0.05482483,-0.1171722,0.9915924,30.84882,5.138535,-27.01358,3.162338,0.5716475,0.4145459,0.05656123,1.176874,-0.3301473,-0.0652156,-0.1090374,-0.002563477,0.3023396,-18.31894,30.01
4,-0.08447266,-0.05123901,0.9951019,0.4334319,-0.08447266,-0.05123901,0.9951019,-30.58203,3.719345,-28.15521,3.24028,0.4723338,0.462635,0.5417584,-0.05482483,-0.1171722,0.9915924,30.84882,5.138535,-27.01358,3.162338,0.5716475,0.4145459,0.05656123,1.176874,-0.3301473,-0.0652156,-0.1090374,-0.002563477,0.3023396,-18.31894,30.01
4,-0.08746338,-0.06391907,0.9941101,0.4111995,-0.08746338,-0.06391907,0.9941101,-30.60616,3.512894,-27.91788,3.120514,0.4736308,0.4695621,0.5155535,-0.04629517,-0.114563,0.9923248,30.89027,5.843948,-30.55644,2.983459,0.5714921,0.4203157,0.05704844,1.176234,-0.3318106,-0.06294486,-0.1065148,-0.002462676,0.3023396,-18.31894,30.01
4,-0.08746338,-0.06391907,0.9941101,0.4111995,-0.08746338,-0.06391907,0.9941101,-30.60616,3.512894,-27.91788,3.120514,0.4736308,0.4695621,0.5155535,-0.04629517,-0.114563,0.9923248,30.89027,5.843948,-30.55644,2.983459,0.5714921,0.4203157,0.05704844,1.176234,-0.3318106,-0.06294486,-0.1065148,-0.002462676,0.3023396,-18.31894,30.01
4,-0.0941925,-0.08840942,0.9916077,0.4356905,-0.0941925,-0.08840942,0.9916077,-30.61877,3.410629,-27.69243,3.026657,0.4751595,0.47517,0.5265087,-0.04891968,-0.1069794,0.993042,30.87392,5.715317,-30.33054,3.03923,0.5723327,0.4214495,0.05761802,1.175712,-0.3334258,-0.06173585,-0.1038389,-0.001713339,0.3023396,-18.31894,30.01
4,-0.0941925,-0.08840942,0.9916077,0.4356905,-0.0941925,-0.08840942,0.9916077,-30.61877,3.410629,-27.69243,3.026657,0.4751595,0.47517,0.5265087,-0.04891968,-0.1069794,0.993042,30.87392,5.715317,-30.33054,3.03923,0.5723327,0.4214495,0.05761802,1.175712,-0.3334258,-0.06173585,-0.1038389,-0.001713339,0.3023396,-18.31894,30.01
4,-0.08250427,-0.08100891,0.9932861,0.40679,-0.08250427,-0.08100891,0.9932861,-30.65575,3.339035,-27.15825,3.128571,0.474406,0.4715857,0.5023851,-0.05596924,-0.09893799,0.993515,30.88689,5.705612,-30.07767,3.073624,0.5729362,0.4181572,0.05797029,1.175548,-0.3349342,-0.06238832,-0.1017481,-0.001280284,0.3023396,-15.20106,30.01
4,-0.08250427,-0.08100891,0.9932861,0.40679,-0.08250427,-0.08100891,0.9932861,-30.65575,3.339035,-27.15825,3.128571,0.474406,0.4715857,0.5023851,-0.05596924,-0.09893799,0.993515,30.88689,5.705612,-30.07767,3.073624,0.5729362,0.4181572,0.05797029,1.175548,-0.3349342,-0.06238832,-0.1017481,-0.001280284,0.3023396,-15.20106,30.01
4,-0.06329346,-0.1092072,0.9919891,0.4348573,-0.08670044,-0.07530212,0.9933777,-30.6601,3.410339,-27.21027,3.083389,0.4752818,0.4686737,0.4989736,-0.0581665,-0.1166077,0.9914703,30.90706,5.819611,-30.24687,2.964706,0.5727533,0.418853,0.05825496,1.17566,-0.3363234,-0.06423973,-0.1001369,-0.001177203,0.3023396,-15.20106,30.01
4,-0.06329346,-0.1092072,0.9919891,0.4348573,-0.08670044,-0.07530212,0.9933777,-30.6601,3.410339,-27.21027,3.083389,0.4752818,0.4686737,0.4989736,-0.0581665,-0.1166077,0.9914703,30.90706,5.819611,-30.24687,2.964706,0.5727533,0.418853,0.05825496,1.17566,-0.3363234,-0.06423973,-0.1001369,-0.001177203,0.3023396,-15.20106,30.01
4,-0.0866394,-0.07073975,0.9937134,0.4746334,-0.0866394,-0.07069397,0.9937134,-30.65302,3.444534,-27.23074,3.078796,0.4750495,0.4669338,0.5050228,-0.09257507,-0.1134796,0.989212,30.96602,5.284515,-27.77757,3.137192,0.5747309,0.4155408,0.0584203,1.175985,-0.3376832,-0.06668716,-0.0985992,-0.0009689031,0.3023396,-15.20106,30.01
4,-0.0866394,-0.07073975,0.9937134,0.4746334,-0.0866394,-0.07069397,0.9937134,-30.65302,3.444534,-27.23074,3.078796,0.4750495,0.4669338,0.5050228,-0.09257507,-0.1134796,0.989212,30.96602,5.284515,-27.77757,3.137192,0.5747309,0.4155408,0.0584203,1.175985,-0.3376832,-0.06668716,-0.0985992,-0.0009689031,0.3023396,-15.20106,30.01
4,-0.0944519,-0.1008453,0.9904022,0.4609654,-0.0944519,-0.1008453,0.9904022,-30.61218,2.922546,-24.94292,3.136063,0.4748813,0.469515,0.5190154,-0.1121979,-0.07804871,0.9906006,30.90355,5.587738,-29.20992,3.501892,0.5814178,0.4113629,0.0584749,1.176429,-0.3379445,-0.06917737,-0.09823453,-0.0007720405,0.3023396,-15.20106,30.01
4,-0.0944519,-0.1008453,0.9904022,0.4609654,-0.0944519,-0.1008453,0.9904022,-30.61218,2.922546,-24.94292,3.136063,0.4748813,0.469515,0.5190154,-0.1121979,-0.07804871,0.9906006,30.90355,5.587738,-29.20992,3.501892,0.5814178,0.4113629,0.0584749,1.176429,-0.3379445,-0.06917737,-0.09823453,-0.0007720405,0.3023396,-15.20106,30.01
4,-0.08573914,-0.09709167,0.9915619,0.5037565,-0.08573914,-0.09709167,0.9915619,-30.6371,3.345032,-27.09103,3.103989,0.4743123,0.4735467,0.5615326,-0.07913208,-0.0973053,0.9920959,30.90654,5.497391,-28.98936,3.197952,0.5754141,0.4157395,0.05856109,1.177005,-0.3386735,-0.0726064,-0.09747092,-0.0005593965,0.3023396,-15.20106,30.01
4,-0.08573914,-0.09709167,0.9915619,0.5037565,-0.08573914,-0.09709167,0.9915619,-30.6371,3.345032,-27.09103,3.103989,0.4743123,0.4735467,0.5615326,-0.07913208,-0.0973053,0.9920959,30.90654,5.497391,-28.98936,3.197952,0.5754141,0.4157395,0.05856109,1.177005,-0.3386735,-0.0726064,-0.09747092,-0.0005593965,0.3023396,-15.20106,30.01
4,-0.08737183,-0.1062012,0.9904938,0.5088599,-0.08738708,-0.1062012,0.9904938,-30.61797,3.272385,-27.08466,3.149216,0.4739164,0.4774689,0.559992,-0.07226563,-0.1077118,0.9915466,30.8065,5.010239,-27.15479,3.483963,0.5761255,0.4185411,0.05851209,1.177569,-0.3391356,-0.07589152,-0.09746877,-0.0005320922,0.3023396,-15.20106,30.01
4,-0.08737183,-0.1062012,0.9904938,0.5088599,-0.08738708,-0.1062012,0.9904938,-30.61797,3.272385,-27.08466,3.149216,0.4739164,0.4774689,0.559992,-0.07226563,-0.1077118,0.9915466,30.8065,5.010239,-27.15479,3.483963,0.5761255,0.4185411,0.05851209,1.177569,-0.3391356,-0.07589152,-0.09746877,-0.0005320922,0.3023396,-15.20106,30.01
4,-0.09286499,-0.1167908,0.9888,0.518208,-0.09286499,-0.1167908,0.9888,-30.6033,3.197571,-27.08998,3.088547,0.4743352,0.4818099,0.581418,-0.06878662,-0.08969116,0.993576,30.82101,5.005463,-27.44025,3.485077,0.5752653,0.4179761,0.05841625,1.178094,-0.3394585,-0.07856996,-0.09789803,-0.0008368719,0.3023396,-15.20106,30.01
4,-0.09286499,-0.1167908,0.9888,0.518208,-0.09286499,-0.1167908,0.9888,-30.6033,3.197571,-27.08998,3.088547,0.4743352,0.4818099,0.581418,-0.06878662,-0.08969116,0.993576,30.82101,5.005463,-27.44025,3.485077,0.5752653,0.4179761,0.05841625,1.178094,-0.3394585,-0.07856996,-0.09789803,-0.0008368719,0.3023396,-15.20106,30.01
4,-0.09637451,-0.102417,0.9900513,0.5528761,-0.09637451,-0.102417,0.9900513,-30.60277,3.095474,-27.084,3.137344,0.4748974,0.4826882,0.6285695,-0.09017944,-0.1087494,0.9899597,30.88811,4.865479,-27.44287,3.548294,0.5765694,0.4261355,0.05820596,1.178442,-0.3395542,-0.08073103,-0.09870409,-0.001314737,0.3023396,-15.20106,30.01
4,-0.09637451,-0.102417,0.9900513,0.5528761,-0.09637451,-0.102417,0.9900513,-30.60277,3.095474,-27.084,3.137344,0.4748974,0.4826882,0.6285695,-0.09017944,-0.1087494,0.9899597,30.88811,4.865479,-27.44287,3.548294,0.5765694,0.4261355,0.05820596,1.178442,-0.3395542,-0.08073103,-0.09870409,-0.001314737,0.3023396,-15.20106,30.01
4,-0.1009521,-0.1138153,0.9883575,0.6200114,-0.1009521,-0.1138153,0.9883575,-30.62784,3.10054,-27.31,3.075851,0.4765009,0.4864928,0.6485299,-0.08389282,-0.1402588,0.9865417,30.86043,4.951553,-28.1185,3.365021,0.5769676,0.4345116,0.0579747,1.178696,-0.3394449,-0.08257946,-0.09929442,-0.001423572,0.3023396,25.45073,30.01
4,-0.1009521,-0.1138153,0.9883575,0.6200114,-0.1009521,-0.1138153,0.9883575,-30.62784,3.10054,-27.31,3.075851,0.4765009,0.4864928,0.6485299,-0.08389282,-0.1402588,0.9865417,30.86043,4.951553,-28.1185,3.365021,0.5769676,0.4345116,0.0579747,1.178696,-0.3394449,-0.08257946,-0.09929442,-0.001423572,0.3023396,25.45073,30.01
4,-0.106308,-0.1186676,0.9872131,0.6514786,-0.1063232,-0.1186371,0.9872131,-30.67932,3.046158,-27.293,3.252472,0.4790463,0.4890971,0.6884103,-0.09266663,-0.1383057,0.9860382,30.81549,4.922165,-28.19844,3.453537,0.5800553,0.4359187,0.0577327,1.178912,-0.3391613,-0.0839298,-0.09996441,-0.00105716,0.3023396,25.45073,30.01
4,-0.106308,-0.1186676,0.9872131,0.6514786,-0.1063232,-0.1186371,0.9872131,-30.67932,3.046158,-27.293,3.252472,0.4790463,0.4890971,0.6884103,-0.09266663,-0.1383057,0.9860382,30.81549,4.922165,-28.19844,3.453537,0.5800553,0.4359187,0.0577327,1.178912,-0.3391613,-0.0839298,-0.09996441,-0.00105716,0.3023396,25.45073,30.01
4,-0.105011,-0.1268616,0.9863434,0.7062941,-0.1069183,-0.1268768,0.9861298,-30.70999,3.041809,-27.32053,3.351974,0.4801247,0.4909576,0.6858236,-0.08518982,-0.1266479,0.988266,30.79031,4.888763,-28.1537,3.50853,0.5796011,0.4345835,0.05745399,1.179116,-0.3387473,-0.0845141,-0.1006182,-0.0004882813,0.3023396,25.45073,30.01
4,-0.105011,-0.1268616,0.9863434,0.7062941,-0.1069183,-0.1268768,0.9861298,-30.70999,3.041809,-27.32053,3.351974,0.4801247,0.4909576,0.6858236,-0.08518982,-0.1266479,0.988266,30.79031,4.888763,-28.1537,3.50853,0.5796011,0.4345835,0.05745399,1.179116,-0.3387473,-0.0845141,-0.1006182,-0.0004882813,0.3023396,25.45073,30.01
4,-0.0728302,-0.1608124,0.9842834,0.7042891,-0.06907654,-0.1524506,0.9858856,-30.36346,2.813263,-27.16931,3.181702,0.4622509,0.5013002,0.6910753,-0.07472229,-0.1650391,0.9834442,31.173,4.738556,-28.32858,3.436798,0.5647791,0.4479238,0.05713975,1.17917,-0.3381957,-0.08411167,-0.1012625,0.0,0.3023396,25.45073,30.01
4,-0.0728302,-0.1608124,0.9842834,0.7042891,-0.06907654,-0.1524506,0.9858856,-30.36346,2.813263,-27.16931,3.181702,0.4622509,0.5013002,0.6910753,-0.07472229,-0.1650391,0.9834442,31.173,4.738556,-28.32858,3.436798,0.5647791,0.4479238,0.05713975,1.17917,-0.3381957,-0.08411167,-0.1012625,0.0,0.3023396,25.45073,30.01
4,-0.01876831,-0.1906281,0.9814758,0.7203228,-0.0177002,-0.1911163,0.9813995,-29.98804,2.714157,-27.19901,3.335464,0.4410887,0.5114264,0.7035834,-0.02474976,-0.1879272,0.9818573,31.52014,4.643204,-28.36656,3.43454,0.544344,0.4553786,0.05690479,1.178894,-0.3376257,-0.08240217,-0.1019762,0.0002729575,0.3023396,25.45073,30.01
4,-0.01876831,-0.1906281,0.9814758,0.7203228,-0.0177002,-0.1911163,0.9813995,-29.98804,2.714157,-27.19901,3.335464,0.4410887,0.5114264,0.7035834,-0.02474976,-0.1879272,0.9818573,31.52014,4.643204,-28.36656,3.43454,0.544344,0.4553786,0.05690479,1.178894,-0.3376257,-0.08240217,-0.1019762,0.0002729575,0.3023396,25.45073,30.01
4,-0.01052856,-0.1949463,0.9807434,0.7523699,-0.01470947,-0.1919556,0.9812775,-29.99483,2.657303,-27.2095,3.337509,0.4408029,0.5135448,0.7266122,0.005279541,-0.2062378,0.9784851,31.42346,4.640152,-28.26665,3.418777,0.5424745,0.4578557,0.05674326,1.178308,-0.3371031,-0.07890768,-0.1024361,0.0002441407,0.3023396,25.45073,30.01
4,-0.01052856,-0.1949463,0.9807434,0.7523699,-0.01470947,-0.1919556,0.9812775,-29.99483,2.657303,-27.2095,3.337509,0.4408029,0.5135448,0.7266122,0.005279541,-0.2062378,0.9784851,31.42346,4.640152,-28.26665,3.418777,0.5424745,0.4578557,0.05674326,1.178308,-0.3371031,-0.07890768,-0.1024361,0.0002441407,0.3023396,25.45073,30.01
4,-0.01417542,-0.1937561,0.9809418,0.7704532,-0.01846313,-0.1935425,0.9809113,-30.04378,2.6091,-27.22717,3.418533,0.4430345,0.5156257,0.741087,-0.0009307861,-0.1943817,0.9809113,31.41341,4.5858,-28.2662,3.45195,0.5438768,0.4575837,0.05661166,1.177576,-0.3366388,-0.07496548,-0.1027794,0.00029901,0.3023396,25.45073,30.01
4,-0.01417542,-0.1937561,0.9809418,0.7704532,-0.01846313,-0.1935425,0.9809113,-30.04378,2.6091,-27.22717,3.418533,0.4430345,0.5156257,0.741087,-0.0009307861,-0.1943817,0.9809113,31.41341,4.5858,-28.2662,3.45195,0.5438768,0.4575837,0.05661166,1.177576,-0.3366388,-0.07496548,-0.1027794,0.00029901,0.3023396,25.45073,30.01
4,-0.01707458,-0.1822815,0.9830933,0.7854441,-0.02345276,-0.1797485,0.983429,-30.07655,2.616806,-27.21729,3.392929,0.4449828,0.5128773,0.7628132,-0.006851196,-0.1863251,0.9824524,31.41397,4.582977,-28.27101,3.531647,0.5448758,0.4562891,0.05654943,1.176985,-0.3360866,-0.07158756,-0.102891,0.0002441406,0.3023396,25.45073,30.01
4,-0.01707458,-0.1822815,0.9830933,0.7854441,-0.02345276,-0.1797485,0.983429,-30.07655,2.616806,-27.21729,3.392929,0.4449828,0.5128773,0.7628132,-0.006851196,-0.1863251,0.9824524,31.41397,4.582977,-28.27101,3.531647,0.5448758,0.4562891,0.05654943,1.176985,-0.3360866,-0.07158756,-0.102891,0.0002441406,0.3023396,25.45073,30.01
4,-0.0164032,-0.1877441,0.9820709,0.78839,-0.02372742,-0.1903992,0.9814148,-30.09018,2.709976,-27.17082,3.474487,0.4454887,0.5112439,0.7778424,-0.008590698,-0.1848907,0.9827118,31.40965,4.648529,-28.22958,3.495041,0.5453079,0.4534573,0.05654156,1.17657,-0.3355718,-0.06893277,-0.1029779,0.000211432,0.3023396,25.45073,30.01
4,-0.0164032,-0.1877441,0.9820709,0.78839,-0.02372742,-0.1903992,0.9814148,-30.09018,2.709976,-27.17082,3.474487,0.4454887,0.5112439,0.7778424,-0.008590698,-0.1848907,0.9827118,31.40965,4.648529,-28.22958,3.495041,0.5453079,0.4534573,0.05654156,1.17657,-0.3355718,-0.06893277,-0.1029779,0.000211432,0.3023396,25.45073,30.01
4,-0.01531982,-0.1853485,0.9825439,0.7726861,-0.0184021,-0.1854095,0.9824829,-30.09116,2.768234,-27.12234,3.43486,0.4446703,0.5079874,0.7634341,-0.01199341,-0.1852875,0.982605,31.3922,4.708405,-28.16214,3.533905,0.5464633,0.4509131,0.05651486,1.176192,-0.3350307,-0.06663027,-0.1028746,0.0,0.3023396,16.7405,30.01
4,-0.01531982,-0.1853485,0.9825439,0.7726861,-0.0184021,-0.1854095,0.9824829,-30.09116,2.768234,-27.12234,3.43486,0.4446703,0.5079874,0.7634341,-0.01199341,-0.1852875,0.982605,31.3922,4.708405,-28.16214,3.533905,0.5464633,0.4509131,0.05651486,1.176192,-0.3350307,-0.06663027,-0.1028746,0.0,0.3023396,16.7405,30.01
4,-0.01620483,-0.1829376,0.9829865,0.7837221,-0.0206604,-0.1821899,0.9830322,-30.09724,2.782654,-27.08723,3.377274,0.4452677,0.5066155,0.7645759,-0.01104736,-0.1837921,0.9828949,31.37611,4.731445,-28.14201,3.572159,0.5468478,0.4496963,0.05644894,1.175968,-0.3345368,-0.06485944,-0.1027204,-0.0003860202,0.3049017,16.7405,30.01
4,-0.01620483,-0.1829376,0.9829865,0.7837221,-0.0206604,-0.1821899,0.9830322,-30.09724,2.782654,-27.08723,3.377274,0.4452677,0.5066155,0.7645759,-0.01104736,-0.1837921,0.9828949,31.37611,4.731445,-28.14201,3.572159,0.5468478,0.4496963,0.05644894,1.175968,-0.3345368,-0.06485944,-0.1027204,-0.0003860202,0.3049017,16.7405,30.01
4,-0.01412964,-0.1839142,0.9828339,0.7609468,-0.02557373,-0.1686249,0.9853363,-30.09846,2.801422,-27.05762,3.401794,0.4461493,0.5033804,0.7823181,-0.003417969,-0.1981659,0.9801483,31.3786,4.776337,-28.11977,3.388,0.5454445,0.4505051,0.05646861,1.175809,-0.3339052,-0.06335825,-0.102719,-0.0006103516,0.3049017,16.7405,30.01
4,-0.01412964,-0.1839142,0.9828339,0.7609468,-0.02557373,-0.1686249,0.9853363,-30.09846,2.801422,-27.05762,3.401794,0.4461493,0.5033804,0.7823181,-0.003417969,-0.1981659,0.9801483,31.3786,4.776337,-28.11977,3.388,0.5454445,0.4505051,0.05646861,1.175809,-0.3339052,-0.06335825,-0.102719,-0.0006103516,0.3049017,16.7405,30.01
4,-0.01855469,-0.180954,0.9833069,0.7628314,-0.02679443,-0.161087,0.9865723,-30.09766,2.821213,-27.05078,3.422409,0.4463372,0.5013559,0.7712238,-0.01101685,-0.1990814,0.9799042,31.36678,4.800125,-28.10785,3.283234,0.5471358,0.4497676,0.05650699,1.175598,-0.3332766,-0.06195799,-0.1024326,-0.0008544922,0.3049017,16.7405,30.01
4,-0.01855469,-0.180954,0.9833069,0.7628314,-0.02679443,-0.161087,0.9865723,-30.09766,2.821213,-27.05078,3.422409,0.4463372,0.5013559,0.7712238,-0.01101685,-0.1990814,0.9799042,31.36678,4.800125,-28.10785,3.283234,0.5471358,0.4497676,0.05650699,1.175598,-0.3332766,-0.06195799,-0.1024326,-0.0008544922,0.3049017,16.7405,30.01
4,-0.01844788,-0.1673279,0.9857178,0.770465,-0.02667236,-0.1515961,0.9880676,-30.09805,2.820007,-27.0067,3.415161,0.4463546,0.4993511,0.7758365,-0.009750366,-0.1838837,0.9828949,31.34966,4.807846,-28.08141,3.491577,0.5475094,0.4465806,0.05650866,1.175302,-0.3326693,-0.06023363,-0.1023173,-0.001125433,0.3049017,16.7405,30.01
4,-0.01844788,-0.1673279,0.9857178,0.770465,-0.02667236,-0.1515961,0.9880676,-30.09805,2.820007,-27.0067,3.415161,0.4463546,0.4993511,0.7758365,-0.009750366,-0.1838837,0.9828949,31.34966,4.807846,-28.08141,3.491577,0.5475094,0.4465806,0.05650866,1.175302,-0.3326693,-0.06023363,-0.1023173,-0.001125433,0.3049017,16.7405,30.01
4,-0.0164032,-0.1697845,0.9853363,0.7798906,-0.02618408,-0.1475067,0.9887085,-30.09953,2.803253,-26.95728,3.407471,0.4463372,0.4987532,0.7710935,-0.008255005,-0.1882324,0.9820862,31.33333,4.796982,-28.09296,3.326675,0.547807,0.4478014,0.05654037,1.174969,-0.3320739,-0.05806237,-0.1020692,-0.001337213,0.3049017,16.7405,30.01
4,-0.0164032,-0.1697845,0.9853363,0.7798906,-0.02618408,-0.1475067,0.9887085,-30.09953,2.803253,-26.95728,3.407471,0.4463372,0.4987532,0.7710935,-0.008255005,-0.1882324,0.9820862,31.33333,4.796982,-28.09296,3.326675,0.547807,0.4478014,0.05654037,1.174969,-0.3320739,-0.05806237,-0.1020692,-0.001337213,0.3049017,16.7405,30.01
4,-0.01553345,-0.1729279,0.9848022,0.7695559,-0.02622986,-0.1497498,0.9883728,-30.10004,2.803253,-26.88379,3.381195,0.4463786,0.4984727,0.7837988,-0.008804321,-0.187439,0.9822235,31.32529,4.79158,-28.08948,3.243774,0.5481689,0.4478014,0.05664539,1.174531,-0.3315336,-0.05599689,-0.1018789,-0.001563263,0.3049017,16.7405,30.01
4,-0.01553345,-0.1729279,0.9848022,0.7695559,-0.02622986,-0.1497498,0.9883728,-30.10004,2.803253,-26.88379,3.381195,0.4463786,0.4984727,0.7837988,-0.008804321,-0.187439,0.9822235,31.32529,4.79158,-28.08948,3.243774,0.5481689,0.4478014,0.05664539,1.174531,-0.3315336,-0.05599689,-0.1018789,-0.001563263,0.3049017,16.7405,30.01
4,-0.01568604,-0.1745605,0.9845123,0.7695559,-0.02624512,-0.150589,0.9882355,-30.10049,2.803253,-26.84163,3.381989,0.4464046,0.4982467,0.7837988,-0.01013184,-0.1871185,0.9822845,31.32785,4.790787,-28.0889,3.290298,0.5483093,0.4477725,0.05672514,1.174192,-0.3309731,-0.05363348,-0.1017842,-0.001883209,0.3049017,-1.376579,30.01
4,-0.01568604,-0.1745605,0.9845123,0.7695559,-0.02624512,-0.150589,0.9882355,-30.10049,2.803253,-26.84163,3.381989,0.4464046,0.4982467,0.7837988,-0.01013184,-0.1871185,0.9822845,31.32785,4.790787,-28.0889,3.290298,0.5483093,0.4477725,0.05672514,1.174192,-0.3309731,-0.05363348,-0.1017842,-0.001883209,0.3049017,-1.376579,30.05
4,-0.01568604,-0.1745605,0.9845123,0.7695559,-0.02624512,-0.150589,0.9882355,-30.10049,2.803253,-26.84163,3.381989,0.4464046,0.4982467,0.7837988,-0.01013184,-0.1871185,0.9822845,31.32785,4.790787,-28.0889,3.290298,0.5483093,0.4477725,0.05681336,1.17386,-0.3305006,-0.05145666,-0.1018988,-0.002283727,0.3049017,-1.376579,30.05
4,-0.01568604,-0.1745605,0.9845123,0.7695559,-0.02624512,-0.150589,0.9882355,-30.10049,2.803253,-26.84163,3.381989,0.4464046,0.4982467,0.7837988,-0.01013184,-0.1871185,0.9822845,31.32785,4.790787,-28.0889,3.290298,0.5483093,0.4477725,0.05681336,1.17386,-0.3305006,-0.05145666,-0.1018988,-0.002283727,0.3049017,-1.376579,30.05
4,-0.01512146,-0.1765594,0.9841614,0.7983229,-0.02845764,-0.1524963,0.9878845,-30.10069,2.803253,-26.78853,3.383301,0.4467875,0.4980957,0.7881817,-0.009963989,-0.1858215,0.9825287,31.32846,4.789001,-28.08612,3.299652,0.5482597,0.4475832,0.0568682,1.173458,-0.3300592,-0.04934963,-0.1019795,-0.002572181,0.3049017,-1.376579,30.05
4,-0.01512146,-0.1765594,0.9841614,0.7983229,-0.02845764,-0.1524963,0.9878845,-30.10069,2.803253,-26.78853,3.383301,0.4467875,0.4980957,0.7881817,-0.009963989,-0.1858215,0.9825287,31.32846,4.789001,-28.08612,3.299652,0.5482597,0.4475832,0.0568682,1.173458,-0.3300592,-0.04934963,-0.1019795,-0.002572181,0.3049017,-1.376579,30.05
4,-0.02684021,-0.1430664,0.9893341,0.8139635,-0.02729797,-0.1428375,0.9893646,-30.15245,2.827438,-26.84808,3.276062,0.4483272,0.4961298,0.843744,-0.01025391,-0.1511383,0.9884491,31.25224,4.715897,-27.64478,3.314056,0.5506673,0.4400554,0.05695522,1.173069,-0.3298347,-0.04735919,-0.1020755,-0.002852373,0.3049017,-1.376579,30.05
4,-0.02684021,-0.1430664,0.9893341,0.8139635,-0.02729797,-0.1428375,0.9893646,-30.15245,2.827438,-26.84808,3.276062,0.4483272,0.4961298,0.843744,-0.01025391,-0.1511383,0.9884491,31.25224,4.715897,-27.64478,3.314056,0.5506673,0.4400554,0.05695522,1.173069,-0.3298347,-0.04735919,-0.1020755,-0.002852373,0.3049017,-1.376579,30.05
4,-0.03587341,-0.141571,0.9892731,0.8472604,-0.03623962,-0.141449,0.9892731,-30.1548,2.809387,-26.82646,3.210159,0.4499024,0.4962885,0.8777903,-0.008636475,-0.1513672,0.9884338,31.24684,4.714478,-27.63092,3.26178,0.5505652,0.4400093,0.05701506,1.172889,-0.3296908,-0.0464015,-0.1019395,-0.0029901,0.3049017,-1.376579,30.05
4,-0.03535461,-0.1412506,0.9893341,0.8308914,-0.03918457,-0.1394043,0.9894562,-30.15726,2.803009,-26.8306,3.212463,0.4504749,0.4961942,0.8897156,-0.01293945,-0.1519623,0.9882965,31.23654,4.703445,-27.53546,3.272125,0.5515909,0.4396731,0.05710161,1.172605,-0.3293343,-0.04484485,-0.1018014,-0.002745904,0.3049017,-1.376579,30.05
4,-0.03535461,-0.1412506,0.9893341,0.8308914,-0.03918457,-0.1394043,0.9894562,-30.15726,2.803009,-26.8306,3.212463,0.4504749,0.4961942,0.8897156,-0.01293945,-0.1519623,0.9882965,31.23654,4.703445,-27.53546,3.272125,0.5515909,0.4396731,0.05710161,1.172605,-0.3293343,-0.04484485,-0.1018014,-0.002745904,0.3049017,-1.376579,30.05
4,-0.03288269,-0.1417389,0.9893494,0.8162867,-0.04074097,-0.1391144,0.9894257,-30.15916,2.804337,-26.82741,3.212326,0.4507978,0.4960822,0.8972534,-0.01303101,-0.1483154,0.9888458,31.22638,4.682617,-27.41589,3.332047,0.5518847,0.4387069,0.05716217,1.172542,-0.3291626,-0.04417394,-0.101664,-0.002537184,0.3049017,-1.376579,30.05
4,-0.03288269,-0.1417389,0.9893494,0.8162867,-0.04074097,-0.1391144,0.9894257,-30.15916,2.804337,-26.82741,3.212326,0.4507978,0.4960822,0.8972534,-0.01303101,-0.1483154,0.9888458,31.22638,4.682617,-27.41589,3.332047,0.5518847,0.4387069,0.05716217,1.172542,-0.3291626,-0.04417394,-0.101664,-0.002537184,0.3049017,-1.376579,30.05
4,-0.03521729,-0.1408234,0.9893951,0.8364623,-0.04138184,-0.1387787,0.9894562,-30.16144,2.806442,-26.82515,3.229111,0.4509808,0.49594,0.8986132,-0.01106262,-0.1487427,0.9888,31.21634,4.682617,-27.40962,3.263138,0.5518847,0.4387069,0.05728495,1.172376,-0.3288375,-0.04311122,-0.1014998,-0.002338531,0.3049017,-1.376579,30.05
4,-0.03759766,-0.140152,0.9894104,0.8220076,-0.04179382,-0.1392365,0.9893646,-30.16512,2.811966,-26.82515,3.218613,0.451172,0.495838,0.9002367,-0.01138306,-0.1458588,0.9892273,31.20335,4.673599,-27.33363,3.245193,0.5523361,0.4378436,0.05744672,1.172325,-0.3284987,-0.04287345,-0.1010587,-0.002426099,0.3049017,-18.2526,30.05
4,-0.03759766,-0.140152,0.9894104,0.8220076,-0.04179382,-0.1392365,0.9893646,-30.16512,2.811966,-26.82515,3.218613,0.451172,0.495838,0.9002367,-0.01138306,-0.1458588,0.9892273,31.20335,4.673599,-27.33363,3.245193,0.5523361,0.4378436,0.05744672,1.172325,-0.3284987,-0.04287345,-0.1010587,-0.002426099,0.3049017,-18.2526,30.05
4,-0.03746033,-0.1362152,0.9899597,0.82569,-0.04266357,-0.1338806,0.9900665,-30.18143,2.816238,-26.82419,3.196838,0.4518687,0.4947616,0.9103848,-0.01210022,-0.1475372,0.9889679,31.18474,4.661591,-27.21829,3.222229,0.5530186,0.4375505,0.05763483,1.172267,-0.3282208,-0.04254514,-0.1005445,-0.002462676,0.3049017,-18.2526,30.05
4,-0.03746033,-0.1362152,0.9899597,0.82569,-0.04266357,-0.1338806,0.9900665,-30.18143,2.816238,-26.82419,3.196838,0.4518687,0.4947616,0.9103848,-0.01210022,-0.1475372,0.9889679,31.18474,4.661591,-27.21829,3.222229,0.5530186,0.4375505,0.05763483,1.172267,-0.3282208,-0.04254514,-0.1005445,-0.002462676,0.3049017,-18.2526,30.05
4,-0.03738403,-0.1343689,0.9902191,0.842338,-0.04258728,-0.1313477,0.9904175,-30.19107,2.817673,-26.82097,3.179932,0.4521851,0.4942318,0.92305,-0.01307678,-0.1483612,0.9888306,31.17918,4.660141,-27.16115,3.216904,0.5533381,0.4372518,0.05773759,1.172245,-0.3280768,-0.04251904,-0.1002238,-0.002447502,0.3049017,-18.2526,30.05
4,-0.03779602,-0.1341705,0.9902344,0.843447,-0.0430603,-0.1307983,0.9904633,-30.20241,2.822052,-26.81752,3.16954,0.4526428,0.4939672,0.920413,-0.01429749,-0.1491852,0.9886932,31.17567,4.656784,-27.13118,3.198563,0.5536447,0.4372518,0.05791974,1.172248,-0.3277234,-0.04220016,-0.09950169,-0.0024261,0.3049017,-18.2526,30.05
4,-0.03779602,-0.1341705,0.9902344,0.843447,-0.0430603,-0.1307983,0.9904633,-30.20241,2.822052,-26.81752,3.16954,0.4526428,0.4939672,0.920413,-0.01429749,-0.1491852,0.9886932,31.17567,4.656784,-27.13118,3.198563,0.5536447,0.4372518,0.05791974,1.172248,-0.3277234,-0.04220016,-0.09950169,-0.0024261,0.3049017,-18.2526,30.05
4,-0.03610229,-0.1352081,0.9901428,0.843447,-0.0423584,-0.1312256,0.9904327,-30.21046,2.824005,-26.81752,3.164078,0.4527946,0.4939672,0.920413,-0.01441956,-0.148941,0.988739,31.17409,4.654205,-27.12703,3.214874,0.5537182,0.4372575,0.0580107,1.172192,-0.3275199,-0.04200089,-0.09918625,-0.002492747,0.3049017,-18.2526,30.05
4,-0.03610229,-0.1352081,0.9901428,0.843447,-0.0423584,-0.1312256,0.9904327,-30.21046,2.824005,-26.81752,3.164078,0.4527946,0.4939672,0.920413,-0.01441956,-0.148941,0.988739,31.17409,4.654205,-27.12703,3.214874,0.5537182,0.4372575,0.05814183,1.172125,-0.3273778,-0.04179193,-0.09882555,-0.002606709,0.3049017,-18.2526,30.05
4,-0.03610229,-0.1352081,0.9901428,0.843447,-0.0423584,-0.1312256,0.9904327,-30.21046,2.824005,-26.81752,3.164078,0.4527946,0.4939672,0.920413,-0.01441956,-0.148941,0.988739,31.17409,4.654205,-27.12703,3.214874,0.5537182,0.4372575,0.0583334,1.171962,-0.327091,-0.04103814,-0.09777641,-0.003097797,0.3049017,-18.2526,30.05
4,-0.03610229,-0.1352081,0.9901428,0.843447,-0.0423584,-0.1312256,0.9904327,-30.21046,2.824005,-26.81752,3.164078,0.4527946,0.4939672,0.920413,-0.01441956,-0.148941,0.988739,31.17409,4.654205,-27.12703,3.214874,0.5537182,0.4372575,0.0583334,1.171962,-0.327091,-0.04103814,-0.09777641,-0.003097797,0.3049017,-18.2526,30.05
4,-0.03610229,-0.1352081,0.9901428,0.843447,-0.0423584,-0.1312256,0.9904327,-30.21046,2.824005,-26.81752,3.164078,0.4527946,0.4939672,0.920413,-0.01441956,-0.148941,0.988739,31.17409,4.654205,-27.12703,3.214874,0.5537182,0.4372575,0.05849278,1.171846,-0.3269687,-0.04061934,-0.0971501,-0.003286844,0.3049017,-18.2526,30.05
5,-0.03463745,-0.1364136,0.990036,0.852583,-0.04176331,-0.1311951,0.9904633,-30.21643,2.824005,-26.81752,3.151428,0.4528959,0.4939672,0.9207486,-0.01467896,-0.1509705,0.9884186,31.17088,4.648102,-27.09547,3.218246,0.553849,0.4375505,0.05861187,1.171762,-0.3268391,-0.04010005,-0.09641346,-0.00328911,0.3049017,-18.2526,30.05
5,-0.03807068,-0.1416168,0.9891815,0.8960225,-0.04493713,-0.1399536,0.9891357,-30.25836,2.745102,-26.84425,3.173233,0.4547818,0.4983581,0.9171538,-0.01596069,-0.1468811,0.9890137,31.14388,4.581787,-27.30441,3.241516,0.5550966,0.4408857,0.05895889,1.171558,-0.3265789,-0.03878552,-0.09495713,-0.003291374,0.3049017,-18.2526,30.05
5,-0.03807068,-0.1416168,0.9891815,0.8960225,-0.04493713,-0.1399536,0.9891357,-30.25836,2.745102,-26.84425,3.173233,0.4547818,0.4983581,0.9171538,-0.01596069,-0.1468811,0.9890137,31.14388,4.581787,-27.30441,3.241516,0.5550966,0.4408857,0.05895889,1.171558,-0.3265789,-0.03878552,-0.09495713,-0.003291374,0.3049017,-18.2526,30.05
5,-0.04200745,-0.1422424,0.9889374,0.9098827,-0.0471344,-0.1406708,0.9889221,-30.25504,2.737366,-26.834,3.146759,0.4550404,0.4986322,0.9256796,-0.01739502,-0.1497955,0.9885559,31.1467,4.569794,-27.28772,3.224579,0.5552285,0.4416439,0.05909002,1.1714,-0.3264995,-0.03802779,-0.09418791,-0.003331871,0.3049017,-18.2526,30.05
5,-0.04096985,-0.1421051,0.9889984,0.8813582,-0.04759216,-0.141037,0.9888458,-30.24841,2.736359,-26.82466,3.113708,0.454903,0.4986322,0.9271395,-0.01786804,-0.1457977,0.989151,31.149,4.565048,-27.27921,3.251724,0.5552285,0.4410324,0.05938172,1.171144,-0.3262916,-0.03689392,-0.09258291,-0.003325156,0.3049017,-42.22968,30.05
5,-0.04096985,-0.1421051,0.9889984,0.8813582,-0.04759216,-0.141037,0.9888458,-30.24841,2.736359,-26.82466,3.113708,0.454903,0.4986322,0.9271395,-0.01786804,-0.1457977,0.989151,31.149,4.565048,-27.27921,3.251724,0.5552285,0.4410324,0.05938172,1.171144,-0.3262916,-0.03689392,-0.09258291,-0.003325156,0.3049017,-42.22968,30.05
5,-0.03666687,-0.142395,0.9891205,0.8769487,-0.04911804,-0.1416321,0.9886932,-30.23952,2.739517,-26.82466,3.09816,0.4548646,0.4986322,0.9332006,-0.01850891,-0.1434937,0.9894714,31.15211,4.562164,-27.27303,3.252411,0.5552285,0.4406725,0.05951273,1.17109,-0.326194,-0.03646022,-0.09168164,-0.003336341,0.3049017,-42.22968,30.05
5,-0.03730774,-0.1437988,0.9888916,0.8823045,-0.04898071,-0.1416626,0.9886932,-30.23077,2.745102,-26.815,3.096176,0.4545538,0.4983581,0.9275987,-0.01556396,-0.1477203,0.9888916,31.1741,4.541443,-27.01959,3.218735,0.5538269,0.439913,0.05979621,1.171044,-0.3260134,-0.03619874,-0.09009434,-0.00316913,0.3049017,-42.22968,30.05
5,-0.03730774,-0.1437988,0.9888916,0.8823045,-0.04898071,-0.1416626,0.9886932,-30.23077,2.745102,-26.815,3.096176,0.4545538,0.4983581,0.9275987,-0.01556396,-0.1477203,0.9888916,31.1741,4.541443,-27.01959,3.218735,0.5538269,0.439913,0.05979621,1.171044,-0.3260134,-0.03619874,-0.09009434,-0.00316913,0.3049017,-42.22968,30.05
5,-0.04418945,-0.1417389,0.9889069,0.8805647,-0.04806519,-0.141449,0.9887695,-30.2265,2.749664,-26.81224,3.093903,0.4542629,0.4981463,0.9318168,-0.01257324,-0.1439514,0.989502,31.18205,4.513901,-26.88745,3.098221,0.5529663,0.4389907,0.05991447,1.171025,-0.3259206,-0.03608742,-0.08926137,-0.003173828,0.3049017,-42.22968,30.05
5,-0.04418945,-0.1417389,0.9889069,0.8805647,-0.04806519,-0.141449,0.9887695,-30.2265,2.749664,-26.81224,3.093903,0.4542629,0.4981463,0.9318168,-0.01257324,-0.1439514,0.989502,31.18205,4.513901,-26.88745,3.098221,0.5529663,0.4389907,0.06004894,1.17102,-0.3258131,-0.03593494,-0.0885035,-0.0032042,0.3049017,-42.22968,30.05
5,-0.04418945,-0.1417389,0.9889069,0.8805647,-0.04806519,-0.141449,0.9887695,-30.2265,2.749664,-26.81224,3.093903,0.4542629,0.4981463,0.9318168,-0.01257324,-0.1439514,0.989502,31.18205,4.513901,-26.88745,3.098221,0.5529663,0.4389907,0.06030822,1.171003,-0.3256449,-0.03563973,-0.08702535,-0.00293223,0.3049017,-42.22968,30.05
5,-0.04418945,-0.1417389,0.9889069,0.8805647,-0.04806519,-0.141449,0.9887695,-30.2265,2.749664,-26.81224,3.093903,0.4542629,0.4981463,0.9318168,-0.01257324,-0.1439514,0.989502,31.18205,4.513901,-26.88745,3.098221,0.5529663,0.4389907,0.06030822,1.171003,-0.3256449,-0.03563973,-0.08702535,-0.00293223,0.3049017,-42.22968,30.05
5,-0.04418945,-0.1417389,0.9889069,0.8805647,-0.04806519,-0.141449,0.9887695,-30.2265,2.749664,-26.81224,3.093903,0.4542629,0.4981463,0.9318168,-0.01257324,-0.1439514,0.989502,31.18205,4.513901,-26.88745,3.098221,0.5529663,0.4389907,0.06040418,1.17099,-0.3256003,-0.03550232,-0.0863743,-0.002654854,0.3049017,-42.22968,30.05
5,-0.0486145,-0.140274,0.9889069,0.8937896,-0.0491333,-0.140213,0.9888916,-30.22072,2.752884,-26.81213,3.084167,0.4542509,0.4978199,0.9419929,-0.01219177,-0.1446686,0.9893951,31.19363,4.513153,-26.86826,3.133499,0.5524993,0.4389907,0.06052971,1.170902,-0.3255392,-0.03527727,-0.085637,-0.002465699,0.3049017,-42.22968,30.05
5,-0.03807068,-0.1427155,0.9890289,0.8917938,-0.03929138,-0.1426086,0.9889832,-30.13426,2.707962,-26.73918,3.109894,0.449741,0.4990277,0.9393678,-0.01329041,-0.1448059,0.9893646,31.2748,4.502014,-26.93076,3.167221,0.5499746,0.4399212,0.0607214,1.170784,-0.3254083,-0.03478361,-0.08445404,-0.002082363,0.3049017,-42.22968,30.05
5,-0.03807068,-0.1427155,0.9890289,0.8917938,-0.03929138,-0.1426086,0.9889832,-30.13426,2.707962,-26.73918,3.109894,0.449741,0.4990277,0.9393678,-0.01329041,-0.1448059,0.9893646,31.2748,4.502014,-26.93076,3.167221,0.5499746,0.4399212,0.0607214,1.170784,-0.3254083,-0.03478361,-0.08445404,-0.002082363,0.3049017,-42.22968,30.05
5,-0.03172302,-0.1392365,0.9897461,0.8962495,-0.04019165,-0.1386414,0.9895172,-30.1091,2.687561,-26.74728,3.054596,0.449065,0.499064,0.9518825,-0.01138306,-0.1406097,0.9899902,31.28706,4.483368,-26.89413,3.130768,0.5492145,0.4394771,0.0607214,1.170784,-0.3254083,-0.03478361,-0.08445404,-0.002082363,0.3049017,-42.22968,30.05
5,-0.03172302,-0.1392365,0.9897461,0.8962495,-0.04019165,-0.1386414,0.9895172,-30.1091,2.687561,-26.74728,3.054596,0.449065,0.499064,0.9518825,-0.01138306,-0.1406097,0.9899902,31.28706,4.483368,-26.89413,3.130768,0.5492145,0.4394771,0.0609318,1.170537,-0.3253508,-0.03387534,-0.08343486,-0.001591602,0.3049017,-42.22968,30.05
5,-0.03172302,-0.1392365,0.9897461,0.8962495,-0.04019165,-0.1386414,0.9895172,-30.1091,2.687561,-26.74728,3.054596,0.449065,0.499064,0.9518825,-0.01138306,-0.1406097,0.9899902,31.28706,4.483368,-26.89413,3.130768,0.5492145,0.4394771,0.06107056,1.170318,-0.325207,-0.03279355,-0.0825356,-0.001326023,0.3049017,0.2649078,30.05
5,-0.03172302,-0.1392365,0.9897461,0.8962495,-0.04019165,-0.1386414,0.9895172,-30.1091,2.687561,-26.74728,3.054596,0.449065,0.499064,0.9518825,-0.01138306,-0.1406097,0.9899902,31.28706,4.483368,-26.89413,3.130768,0.5492145,0.4394771,0.06107056,1.170318,-0.325207,-0.03279355,-0.0825356,-0.001326023,0.3049017,0.2649078,30.05
5,-0.03172302,-0.1392365,0.9897461,0.8962495,-0.04019165,-0.1386414,0.9895172,-30.1091,2.687561,-26.74728,3.054596,0.449065,0.499064,0.9518825,-0.01138306,-0.1406097,0.9899902,31.28706,4.483368,-26.89413,3.130768,0.5492145,0.4394771,0.06115067,1.170194,-0.3250346,-0.03220691,-0.08158363,-0.0009689031,0.3049017,0.2649078,30.05
5,-0.03172302,-0.1392365,0.9897461,0.8962495,-0.04019165,-0.1386414,0.9895172,-30.1091,2.687561,-26.74728,3.054596,0.449065,0.499064,0.9518825,-0.01138306,-0.1406097,0.9899902,31.28706,4.483368,-26.89413,3.130768,0.5492145,0.4394771,0.06115067,1.170194,-0.3250346,-0.03220691,-0.08158363,-0.0009689031,0.3049017,0.2649078,30.05
5,-0.02209473,-0.1431427,0.9894409,0.9106063,-0.02888489,-0.1376038,0.9900513,-30.0546,2.708557,-26.81778,3.027039,0.4453644,0.4987641,0.9516807,-0.015625,-0.1484222,0.9887848,31.36607,4.495697,-26.88445,3.11351,0.5472521,0.4403441,0.06122243,1.170179,-0.3247206,-0.03189074,-0.08089873,-0.0008188725,0.3049017,0.2649078,30.05
5,-0.02209473,-0.1431427,0.9894409,0.9106063,-0.02888489,-0.1376038,0.9900513,-30.0546,2.708557,-26.81778,3.027039,0.4453644,0.4987641,0.9516807,-0.015625,-0.1484222,0.9887848,31.36607,4.495697,-26.88445,3.11351,0.5472521,0.4403441,0.06122243,1.170179,-0.3247206,-0.03189074,-0.08089873,-0.0008188725,0.3049017,0.2649078,30.05
5,-0.0171051,-0.1462708,0.98909,0.9034114,-0.03289795,-0.1403809,0.9895477,-30.02994,2.727234,-26.82475,3.04184,0.4452108,0.498715,0.941248,-0.004608154,-0.1508942,0.9885254,31.39369,4.504211,-26.85251,3.11557,0.5444366,0.4401965,0.06122816,1.170182,-0.3243797,-0.03174485,-0.08015959,-0.000791106,0.3049017,0.2649078,30.05
5,-0.0171051,-0.1462708,0.98909,0.9034114,-0.03289795,-0.1403809,0.9895477,-30.02994,2.727234,-26.82475,3.04184,0.4452108,0.498715,0.941248,-0.004608154,-0.1508942,0.9885254,31.39369,4.504211,-26.85251,3.11557,0.5444366,0.4401965,0.06122816,1.170182,-0.3243797,-0.03174485,-0.08015959,-0.000791106,0.3049017,0.2649078,30.05
