Second,eye_comb_direction_x,eye_comb_direction_y,eye_comb_direction_z,eye_r_openness,eye_r_direction_x,eye_r_direction_y,eye_r_direction_z,eye_r_origin_x,eye_r_origin_y,eye_r_origin_z,eye_r_pupil_diameter,eye_r_pupil_position_x,eye_r_pupil_position_y,eye_l_openness,eye_l_direction_x,eye_l_direction_y,eye_l_direction_z,eye_l_origin_x,eye_l_origin_y,eye_l_origin_z,eye_l_pupil_diameter,eye_l_pupil_position_x,eye_l_pupil_position_y,head_position_x,head_position_y,head_position_z,head_rotation_roll,head_rotation_pitch,head_rotation_yaw,EDA,BVP,TMP
0,0.0,0.0,0.0,0.0,0.0,0.0,0.0,0.0,0.0,0.0,0.0,0.0,0.0,0.0,0.0,0.0,0.0,0.0,0.0,0.0,0.0,0.0,0.0,0.0,0.0,0.0,0.0,0.0,0.0,0.2847491364031907,-0.15445874552090888,29.618527918781727
0,-0.04380798,-0.1365356,0.9896545,1.0,-0.02867126,-0.09849548,0.9947205,-30.00423,2.751816,-26.61835,4.759598,0.4435478,0.4896172,1.0,-0.04525757,-0.1401978,0.9890747,31.36444,4.709259,-26.83783,4.85199,0.5522966,0.4317978,0.05461955,1.177452,-0.3056774,-0.05764304,-0.05836033,0.0050861,0.2847491364031907,-0.15445874552090888,29.618527918781727
1,-0.04017639,-0.1313019,0.9905243,1.0,-0.02867126,-0.09768677,0.9947968,-30.00426,2.751816,-26.62085,4.759796,0.4435478,0.4895025,1.0,-0.04330444,-0.1404114,0.9891357,31.36333,4.709259,-26.83287,4.865677,0.5520087,0.4317978,0.05486739,1.177625,-0.3061899,-0.05847767,-0.05822613,0.005000415,0.283123,-0.15445874552090888,29.618527918781727
1,-0.04017639,-0.1313019,0.9905243,1.0,-0.02867126,-0.09768677,0.9947968,-30.00426,2.751816,-26.62085,4.759796,0.4435478,0.4895025,1.0,-0.04330444,-0.1404114,0.9891357,31.36333,4.709259,-26.83287,4.865677,0.5520087,0.4317978,0.05486739,1.177625,-0.3061899,-0.05847767,-0.05822613,0.005000415,0.283123,-0.15445874552090888,29.618527918781727
1,-0.04017639,-0.1313019,0.9905243,1.0,-0.02867126,-0.09768677,0.9947968,-30.00426,2.751816,-26.62085,4.759796,0.4435478,0.4895025,1.0,-0.04330444,-0.1404114,0.9891357,31.36333,4.709259,-26.83287,4.865677,0.5520087,0.4317978,0.05486739,1.177625,-0.3061899,-0.05847767,-0.05822613,0.005000415,0.283123,-0.15445874552090888,29.618527918781727
1,-0.04017639,-0.1313019,0.9905243,1.0,-0.02867126,-0.09768677,0.9947968,-30.00426,2.751816,-26.62085,4.759796,0.4435478,0.4895025,1.0,-0.04330444,-0.1404114,0.9891357,31.36333,4.709259,-26.83287,4.865677,0.5520087,0.4317978,0.05486739,1.177625,-0.3061899,-0.05847767,-0.05822613,0.005000415,0.283123,-0.15445874552090888,29.618527918781727
1,-0.04017639,-0.1313019,0.9905243,1.0,-0.02867126,-0.09768677,0.9947968,-30.00426,2.751816,-26.62085,4.759796,0.4435478,0.4895025,1.0,-0.04330444,-0.1404114,0.9891357,31.36333,4.709259,-26.83287,4.865677,0.5520087,0.4317978,0.05486739,1.177625,-0.3061899,-0.05847767,-0.05822613,0.005000415,0.283123,-0.15445874552090888,29.618527918781727
1,-0.04017639,-0.1313019,0.9905243,1.0,-0.02867126,-0.09768677,0.9947968,-30.00426,2.751816,-26.62085,4.759796,0.4435478,0.4895025,1.0,-0.04330444,-0.1404114,0.9891357,31.36333,4.709259,-26.83287,4.865677,0.5520087,0.4317978,0.05486739,1.177625,-0.3061899,-0.05847767,-0.05822613,0.005000415,0.283123,-0.15445874552090888,29.618527918781727
1,-0.04017639,-0.1313019,0.9905243,1.0,-0.02867126,-0.09768677,0.9947968,-30.00426,2.751816,-26.62085,4.759796,0.4435478,0.4895025,1.0,-0.04330444,-0.1404114,0.9891357,31.36333,4.709259,-26.83287,4.865677,0.5520087,0.4317978,0.05486739,1.177625,-0.3061899,-0.05847767,-0.05822613,0.005000415,0.283123,-0.15445874552090888,29.618527918781727
1,-0.04017639,-0.1313019,0.9905243,1.0,-0.02867126,-0.09768677,0.9947968,-30.00426,2.751816,-26.62085,4.759796,0.4435478,0.4895025,1.0,-0.04330444,-0.1404114,0.9891357,31.36333,4.709259,-26.83287,4.865677,0.5520087,0.4317978,0.05486739,1.177625,-0.3061899,-0.05847767,-0.05822613,0.005000415,0.283123,-0.15445874552090888,29.618527918781727
1,-0.04017639,-0.1313019,0.9905243,1.0,-0.02867126,-0.09768677,0.9947968,-30.00426,2.751816,-26.62085,4.759796,0.4435478,0.4895025,1.0,-0.04330444,-0.1404114,0.9891357,31.36333,4.709259,-26.83287,4.865677,0.5520087,0.4317978,0.05486739,1.177625,-0.3061899,-0.05847767,-0.05822613,0.005000415,0.283123,-0.15445874552090888,29.618527918781727
1,-0.05221558,-0.2118835,0.9758911,1.0,-0.06056213,-0.2132111,0.9751129,-30.31877,2.345322,-26.52464,4.138657,0.4590863,0.5217003,1.0,-0.0436554,-0.210495,0.9766083,31.23346,4.295731,-26.78674,4.25238,0.556326,0.4573831,0.05480444,1.177562,-0.3063552,-0.05797235,-0.05883447,0.005394624,0.283123,-0.15445874552090888,29.618527918781727
1,-0.05221558,-0.2118835,0.9758911,1.0,-0.06056213,-0.2132111,0.9751129,-30.31877,2.345322,-26.52464,4.138657,0.4590863,0.5217003,1.0,-0.0436554,-0.210495,0.9766083,31.23346,4.295731,-26.78674,4.25238,0.556326,0.4573831,0.05480444,1.177562,-0.3063552,-0.05797235,-0.05883447,0.005394624,0.283123,-0.15445874552090888,29.618527918781727
1,-0.05221558,-0.2118835,0.9758911,1.0,-0.06056213,-0.2132111,0.9751129,-30.31877,2.345322,-26.52464,4.138657,0.4590863,0.5217003,1.0,-0.0436554,-0.210495,0.9766083,31.23346,4.295731,-26.78674,4.25238,0.556326,0.4573831,0.05480444,1.177562,-0.3063552,-0.05797235,-0.05883447,0.005394624,0.283123,-0.15445874552090888,29.618527918781727
1,-0.05221558,-0.2118835,0.9758911,1.0,-0.06056213,-0.2132111,0.9751129,-30.31877,2.345322,-26.52464,4.138657,0.4590863,0.5217003,1.0,-0.0436554,-0.210495,0.9766083,31.23346,4.295731,-26.78674,4.25238,0.556326,0.4573831,0.05480444,1.177562,-0.3063552,-0.05797235,-0.05883447,0.005394624,0.283123,-0.15445874552090888,29.618527918781727
1,-0.05221558,-0.2118835,0.9758911,1.0,-0.06056213,-0.2132111,0.9751129,-30.31877,2.345322,-26.52464,4.138657,0.4590863,0.5217003,1.0,-0.0436554,-0.210495,0.9766083,31.23346,4.295731,-26.78674,4.25238,0.556326,0.4573831,0.05480444,1.177562,-0.3063552,-0.05797235,-0.05883447,0.005394624,0.283123,-0.15445874552090888,29.618527918781727
1,-0.05282593,-0.2119293,0.9758453,1.0,-0.05992126,-0.2145538,0.9748688,-30.33417,2.345322,-26.52412,4.070923,0.4595035,0.5219166,1.0,-0.04592896,-0.2093506,0.9767456,31.24313,4.290375,-26.78896,4.207321,0.5563785,0.4573831,0.05475032,1.17755,-0.3064855,-0.05793403,-0.05907863,0.005544466,0.283123,-0.15445874552090888,29.618527918781727
1,-0.05282593,-0.2119293,0.9758453,1.0,-0.05992126,-0.2145538,0.9748688,-30.33417,2.345322,-26.52412,4.070923,0.4595035,0.5219166,1.0,-0.04592896,-0.2093506,0.9767456,31.24313,4.290375,-26.78896,4.207321,0.5563785,0.4573831,0.05475032,1.17755,-0.3064855,-0.05793403,-0.05907863,0.005544466,0.283123,-0.15445874552090888,29.618527918781727
1,-0.05311584,-0.2129974,0.9756012,1.0,-0.06018066,-0.2159729,0.9745331,-30.33548,2.346329,-26.52393,4.065079,0.4595906,0.5221208,1.0,-0.04602051,-0.2099915,0.9766083,31.24513,4.291992,-26.78775,4.193039,0.556326,0.4574273,0.05467975,1.17758,-0.3065434,-0.05801282,-0.05924499,0.005467333,0.283123,-0.15445874552090888,29.618527918781727
1,-0.05311584,-0.2129974,0.9756012,1.0,-0.06018066,-0.2159729,0.9745331,-30.33548,2.346329,-26.52393,4.065079,0.4595906,0.5221208,1.0,-0.04602051,-0.2099915,0.9766083,31.24513,4.291992,-26.78775,4.193039,0.556326,0.4574273,0.05467975,1.17758,-0.3065434,-0.05801282,-0.05924499,0.005467333,0.283123,-0.15445874552090888,29.618527918781727
1,-0.05508423,-0.2141418,0.975235,1.0,-0.06259155,-0.2162476,0.9743195,-30.34152,2.346527,-26.52228,3.995941,0.4601981,0.5221431,1.0,-0.04727173,-0.2119446,0.97612,31.25204,4.293365,-26.78627,4.153976,0.5563016,0.4577083,0.05465388,1.177605,-0.3065701,-0.05801371,-0.05930068,0.00535303,0.283123,-0.15445874552090888,29.618527918781727
1,-0.05487061,-0.2142487,0.975235,1.0,-0.06333923,-0.2161865,0.9742889,-30.34926,2.345444,-26.51958,3.916168,0.4605922,0.5221431,1.0,-0.04621887,-0.2122345,0.97612,31.25711,4.290619,-26.78595,4.076935,0.5559546,0.4578351,0.0546335,1.177632,-0.3065956,-0.05818363,-0.05936986,0.005359985,0.283123,-0.15445874552090888,29.618527918781727
1,-0.05487061,-0.2142487,0.975235,1.0,-0.06333923,-0.2161865,0.9742889,-30.34926,2.345444,-26.51958,3.916168,0.4605922,0.5221431,1.0,-0.04621887,-0.2122345,0.97612,31.25711,4.290619,-26.78595,4.076935,0.5559546,0.4578351,0.0546335,1.177632,-0.3065956,-0.05818363,-0.05936986,0.005359985,0.283123,-0.15445874552090888,29.618527918781727
1,-0.05525208,-0.2171478,0.9745636,1.0,-0.06285095,-0.2162018,0.9743195,-30.35802,2.345261,-26.51604,3.892334,0.4608086,0.5221208,1.0,-0.04771423,-0.2180786,0.974762,31.25784,4.287384,-26.78372,3.989182,0.5561795,0.4589607,0.05463421,1.177628,-0.3065906,-0.05828547,-0.05946315,0.00538218,0.283123,-0.15445874552090888,29.618527918781727
1,-0.05525208,-0.2171478,0.9745636,1.0,-0.06285095,-0.2162018,0.9743195,-30.35802,2.345261,-26.51604,3.892334,0.4608086,0.5221208,1.0,-0.04771423,-0.2180786,0.974762,31.25784,4.287384,-26.78372,3.989182,0.5561795,0.4589607,0.05463421,1.177628,-0.3065906,-0.05828547,-0.05946315,0.00538218,0.283123,-0.15445874552090888,29.618527918781727
1,-0.05464172,-0.2180328,0.9743958,1.0,-0.06242371,-0.2156372,0.974472,-30.36357,2.344925,-26.51506,3.873856,0.4609264,0.5220184,1.0,-0.04701233,-0.2203674,0.9742737,31.26187,4.287384,-26.78076,3.959991,0.5559247,0.4593417,0.05467927,1.177663,-0.3066034,-0.05840207,-0.0594723,0.005479584,0.283123,-0.15445874552090888,29.618527918781727
1,-0.05700684,-0.2163696,0.9746399,1.0,-0.06434631,-0.2115631,0.975235,-30.36795,2.342926,-26.51381,3.806259,0.4614064,0.5213558,1.0,-0.04969788,-0.2211151,0.9739685,31.26756,4.287384,-26.77861,3.923813,0.5561795,0.4594489,0.05472839,1.17768,-0.3065968,-0.05847881,-0.05944824,0.005375254,0.283123,-0.15445874552090888,29.618527918781727
1,-0.05700684,-0.2163696,0.9746399,1.0,-0.06434631,-0.2115631,0.975235,-30.36795,2.342926,-26.51381,3.806259,0.4614064,0.5213558,1.0,-0.04969788,-0.2211151,0.9739685,31.26756,4.287384,-26.77861,3.923813,0.5561795,0.4594489,0.05472839,1.17768,-0.3065968,-0.05847881,-0.05944824,0.005375254,0.283123,-0.15445874552090888,29.618527918781727
1,-0.05764771,-0.2168579,0.9744873,1.0,-0.067276,-0.2095642,0.9754639,-30.37039,2.342468,-26.51164,3.756973,0.4619809,0.5210058,1.0,-0.04792786,-0.2241669,0.9733582,31.27048,4.286835,-26.77829,3.902054,0.5557837,0.4600008,0.05473483,1.177667,-0.3065735,-0.05855827,-0.05937752,0.005460516,0.283123,-0.15445874552090888,29.618527918781727
1,-0.0594635,-0.2169342,0.9743652,1.0,-0.06977844,-0.2086182,0.9754944,-30.37282,2.3414,-26.50783,3.733459,0.4624803,0.5208469,1.0,-0.04898071,-0.2253113,0.973053,31.2729,4.284866,-26.77737,3.890106,0.5558767,0.4602642,0.0547353,1.177657,-0.3065623,-0.05859172,-0.05936033,0.00534049,0.283123,-0.15445874552090888,29.618527918781727
1,-0.0594635,-0.2169342,0.9743652,1.0,-0.06977844,-0.2086182,0.9754944,-30.37282,2.3414,-26.50783,3.733459,0.4624803,0.5208469,1.0,-0.04898071,-0.2253113,0.973053,31.2729,4.284866,-26.77737,3.890106,0.5558767,0.4602642,0.0547353,1.177657,-0.3065623,-0.05859172,-0.05936033,0.00534049,0.283123,-0.15445874552090888,29.618527918781727
1,-0.05986023,-0.2167206,0.9743805,1.0,-0.07130432,-0.2086182,0.9753876,-30.3744,2.341248,-26.50713,3.713623,0.4627872,0.5208469,1.0,-0.04856873,-0.2246704,0.9732056,31.27359,4.280731,-26.77689,3.876419,0.5557837,0.4602835,0.05478489,1.177656,-0.3064995,-0.05832445,-0.05927428,0.005288618,0.283123,-0.15445874552090888,29.618527918781727
1,-0.05947876,-0.2167816,0.9743958,1.0,-0.07189941,-0.20755,0.9755707,-30.37573,2.340836,-26.50713,3.695816,0.4629342,0.5206727,1.0,-0.04725647,-0.2257996,0.9730225,31.27425,4.27887,-26.77565,3.823792,0.5555413,0.4605229,0.05479503,1.177632,-0.3065071,-0.05823778,-0.05914644,0.005355813,0.283123,-7.351219,29.89
1,-0.05947876,-0.2167816,0.9743958,1.0,-0.07189941,-0.20755,0.9755707,-30.37573,2.340836,-26.50713,3.695816,0.4629342,0.5206727,1.0,-0.04725647,-0.2257996,0.9730225,31.27425,4.27887,-26.77565,3.823792,0.5555413,0.4605229,0.05479503,1.177632,-0.3065071,-0.05823778,-0.05914644,0.005355813,0.283123,-7.351219,29.89
1,-0.06018066,-0.2164307,0.9744263,1.0,-0.07298279,-0.2075348,0.9754944,-30.37585,2.340836,-26.5067,3.692078,0.4631171,0.5206727,1.0,-0.04718018,-0.2254028,0.973114,31.27425,4.276917,-26.77565,3.793198,0.5555316,0.4605229,0.05482602,1.177578,-0.3065069,-0.05801449,-0.05909199,0.005629811,0.283123,-7.351219,29.89
1,-0.06018066,-0.2164307,0.9744263,1.0,-0.07298279,-0.2075348,0.9754944,-30.37585,2.340836,-26.5067,3.692078,0.4631171,0.5206727,1.0,-0.04718018,-0.2254028,0.973114,31.27425,4.276917,-26.77565,3.793198,0.5555316,0.4605229,0.05485952,1.177569,-0.3065459,-0.05787948,-0.05909653,0.005685123,0.283123,-7.351219,29.89
1,-0.06018066,-0.2164307,0.9744263,1.0,-0.07298279,-0.2075348,0.9754944,-30.37585,2.340836,-26.5067,3.692078,0.4631171,0.5206727,1.0,-0.04718018,-0.2254028,0.973114,31.27425,4.276917,-26.77565,3.793198,0.5555316,0.4605229,0.05485952,1.177569,-0.3065459,-0.05787948,-0.05909653,0.005685123,0.283123,-7.351219,29.89
1,-0.06018066,-0.2164307,0.9744263,1.0,-0.07298279,-0.2075348,0.9754944,-30.37585,2.340836,-26.5067,3.692078,0.4631171,0.5206727,1.0,-0.04718018,-0.2254028,0.973114,31.27425,4.276917,-26.77565,3.793198,0.5555316,0.4605229,0.05486965,1.177553,-0.3065363,-0.05778041,-0.05906891,0.00562319,0.283123,-7.351219,29.89
1,-0.06018066,-0.2164307,0.9744263,1.0,-0.07298279,-0.2075348,0.9754944,-30.37585,2.340836,-26.5067,3.692078,0.4631171,0.5206727,1.0,-0.04718018,-0.2254028,0.973114,31.27425,4.276917,-26.77565,3.793198,0.5555316,0.4605229,0.05487812,1.177554,-0.3065341,-0.05773629,-0.0591196,0.005516174,0.283123,-7.351219,29.89
1,-0.0652771,-0.2206879,0.9731445,1.0,-0.07284546,-0.2094421,0.9750977,-30.37906,2.337799,-26.50276,3.44223,0.4632517,0.5210249,1.0,-0.05747986,-0.2322083,0.9709625,31.28091,4.26857,-26.77177,3.631622,0.5570357,0.4620059,0.05496073,1.177512,-0.3065078,-0.05773281,-0.05909325,0.005386331,0.283123,-7.351219,29.89
1,-0.0652771,-0.2206879,0.9731445,1.0,-0.07284546,-0.2094421,0.9750977,-30.37906,2.337799,-26.50276,3.44223,0.4632517,0.5210249,1.0,-0.05747986,-0.2322083,0.9709625,31.28091,4.26857,-26.77177,3.631622,0.5570357,0.4620059,0.05496073,1.177512,-0.3065078,-0.05773281,-0.05909325,0.005386331,0.283123,-7.351219,29.89
1,-0.06228638,-0.2194824,0.9736176,1.0,-0.07237244,-0.2098846,0.9750366,-30.37663,2.342422,-26.50067,3.3983,0.4631028,0.5209178,1.0,-0.05172729,-0.2295074,0.9719238,31.28238,4.273026,-26.76651,3.482224,0.5560287,0.4613042,0.05496252,1.17753,-0.3064969,-0.05772558,-0.05921039,0.005322322,0.283123,-7.351219,29.89
1,-0.06231689,-0.2164917,0.9742889,1.0,-0.07263184,-0.2086487,0.9752808,-30.37546,2.340057,-26.50095,3.42424,0.4631028,0.5207874,1.0,-0.05160522,-0.2246094,0.9730682,31.28177,4.269699,-26.76524,3.52536,0.5560287,0.4605317,0.05500412,1.177576,-0.306505,-0.05782462,-0.05935769,0.005422176,0.283123,-7.351219,29.89
1,-0.05885315,-0.2165375,0.9744873,1.0,-0.07182312,-0.2086334,0.9753418,-30.37546,2.339752,-26.50067,3.398682,0.4629757,0.5207874,1.0,-0.04537964,-0.2246552,0.9733734,31.27855,4.269379,-26.76456,3.493515,0.5550914,0.4605317,0.05499184,1.177643,-0.3066489,-0.05792285,-0.0592465,0.00544001,0.283123,-7.351219,29.89
1,-0.05885315,-0.2165375,0.9744873,1.0,-0.07182312,-0.2086334,0.9753418,-30.37546,2.339752,-26.50067,3.398682,0.4629757,0.5207874,1.0,-0.04537964,-0.2246552,0.9733734,31.27855,4.269379,-26.76456,3.493515,0.5550914,0.4605317,0.05499184,1.177643,-0.3066489,-0.05792285,-0.0592465,0.00544001,0.283123,-7.351219,29.89
1,-0.05888367,-0.2154083,0.9747314,1.0,-0.0717926,-0.2087097,0.9753265,-30.37546,2.339706,-26.49998,3.375992,0.4629757,0.5207874,1.0,-0.04533386,-0.2223816,0.9738922,31.27657,4.269699,-26.76302,3.493713,0.5551508,0.4600981,0.05495834,1.177627,-0.3066295,-0.05811893,-0.05933107,0.00529425,0.283123,-7.351219,29.89
1,-0.05888367,-0.2154083,0.9747314,1.0,-0.0717926,-0.2087097,0.9753265,-30.37546,2.339706,-26.49998,3.375992,0.4629757,0.5207874,1.0,-0.04533386,-0.2223816,0.9738922,31.27657,4.269699,-26.76302,3.493713,0.5551508,0.4600981,0.05495834,1.177627,-0.3066295,-0.05811893,-0.05933107,0.00529425,0.283123,-7.351219,29.89
1,-0.05888367,-0.2154083,0.9747314,1.0,-0.0717926,-0.2087097,0.9753265,-30.37546,2.339706,-26.49998,3.375992,0.4629757,0.5207874,1.0,-0.04533386,-0.2223816,0.9738922,31.27657,4.269699,-26.76302,3.493713,0.5551508,0.4600981,0.05493534,1.177645,-0.3065723,-0.0581666,-0.05915349,0.005288618,0.283123,-23.95155,29.89
1,-0.05888367,-0.2154083,0.9747314,1.0,-0.0717926,-0.2087097,0.9753265,-30.37546,2.339706,-26.49998,3.375992,0.4629757,0.5207874,1.0,-0.04533386,-0.2223816,0.9738922,31.27657,4.269699,-26.76302,3.493713,0.5551508,0.4600981,0.05493534,1.177645,-0.3065723,-0.0581666,-0.05915349,0.005288618,0.283123,-23.95155,29.89
1,-0.05888367,-0.2154083,0.9747314,1.0,-0.0717926,-0.2087097,0.9753265,-30.37546,2.339706,-26.49998,3.375992,0.4629757,0.5207874,1.0,-0.04533386,-0.2223816,0.9738922,31.27657,4.269699,-26.76302,3.493713,0.5551508,0.4600981,0.05500996,1.17766,-0.3065231,-0.05812662,-0.05914845,0.005305497,0.283123,-23.95155,29.89
1,-0.05888367,-0.2154083,0.9747314,1.0,-0.0717926,-0.2087097,0.9753265,-30.37546,2.339706,-26.49998,3.375992,0.4629757,0.5207874,1.0,-0.04533386,-0.2223816,0.9738922,31.27657,4.269699,-26.76302,3.493713,0.5551508,0.4600981,0.05500996,1.17766,-0.3065231,-0.05812662,-0.05914845,0.005305497,0.283123,-23.95155,29.89
1,-0.05899048,-0.2155609,0.9747009,1.0,-0.0723877,-0.2092133,0.975174,-30.37619,2.338638,-26.49982,3.347519,0.4631028,0.52091,1.0,-0.04516602,-0.2220612,0.9739838,31.2757,4.271667,-26.76225,3.482941,0.5551508,0.4599615,0.05501127,1.177646,-0.30647,-0.05792606,-0.05901756,0.00535303,0.283123,-23.95155,29.89
1,-0.05899048,-0.2155609,0.9747009,1.0,-0.0723877,-0.2092133,0.975174,-30.37619,2.338638,-26.49982,3.347519,0.4631028,0.52091,1.0,-0.04516602,-0.2220612,0.9739838,31.2757,4.271667,-26.76225,3.482941,0.5551508,0.4599615,0.05501127,1.177646,-0.30647,-0.05792606,-0.05901756,0.00535303,0.283123,-23.95155,29.89
1,-0.05773926,-0.2147064,0.9749603,1.0,-0.07141113,-0.2089996,0.975296,-30.37619,2.337402,-26.49998,3.327209,0.462945,0.52091,1.0,-0.04373169,-0.2205048,0.9743958,31.27222,4.269379,-26.759,3.404663,0.5550293,0.4597234,0.05503154,1.177616,-0.306429,-0.05776093,-0.05903069,0.005330714,0.283123,-23.95155,29.89
1,-0.05773926,-0.2147064,0.9749603,1.0,-0.07141113,-0.2089996,0.975296,-30.37619,2.337402,-26.49998,3.327209,0.462945,0.52091,1.0,-0.04373169,-0.2205048,0.9743958,31.27222,4.269379,-26.759,3.404663,0.5550293,0.4597234,0.05503154,1.177616,-0.306429,-0.05776093,-0.05903069,0.005330714,0.283123,-23.95155,29.89
1,-0.05734253,-0.214325,0.9750671,1.0,-0.07151794,-0.2087708,0.9753418,-30.37546,2.335907,-26.49998,3.299072,0.462945,0.52091,1.0,-0.04272461,-0.2199707,0.9745636,31.27222,4.268631,-26.758,3.395584,0.5548591,0.4596472,0.05513251,1.177609,-0.3064139,-0.05764938,-0.05903396,0.005254698,0.283123,-23.95155,29.89
1,-0.05734253,-0.214325,0.9750671,1.0,-0.07151794,-0.2087708,0.9753418,-30.37546,2.335907,-26.49998,3.299072,0.462945,0.52091,1.0,-0.04272461,-0.2199707,0.9745636,31.27222,4.268631,-26.758,3.395584,0.5548591,0.4596472,0.05513251,1.177609,-0.3064139,-0.05764938,-0.05903396,0.005254698,0.283123,-23.95155,29.89
2,-0.05734253,-0.214325,0.9750671,1.0,-0.07151794,-0.2087708,0.9753418,-30.37546,2.335907,-26.49998,3.299072,0.462945,0.52091,1.0,-0.04272461,-0.2199707,0.9745636,31.27222,4.268631,-26.758,3.395584,0.5548591,0.4596472,0.05515707,1.1776,-0.3063699,-0.05761654,-0.05906299,0.004826025,0.283123,-23.95155,29.89
2,-0.05734253,-0.214325,0.9750671,1.0,-0.07151794,-0.2087708,0.9753418,-30.37546,2.335907,-26.49998,3.299072,0.462945,0.52091,1.0,-0.04272461,-0.2199707,0.9745636,31.27222,4.268631,-26.758,3.395584,0.5548591,0.4596472,0.05515707,1.1776,-0.3063699,-0.05761654,-0.05906299,0.004826025,0.283123,-23.95155,29.89
2,-0.05578613,-0.2122803,0.9756012,1.0,-0.06845093,-0.2080078,0.9757233,-30.37526,2.331039,-26.49998,3.249344,0.4624418,0.5209162,1.0,-0.04270935,-0.2166443,0.9753113,31.27222,4.267349,-26.75578,3.392014,0.5548591,0.4590748,0.05518472,1.177582,-0.3063098,-0.05758097,-0.0589894,0.004787273,0.283123,-23.95155,29.89
2,-0.05578613,-0.2122803,0.9756012,1.0,-0.06845093,-0.2080078,0.9757233,-30.37526,2.331039,-26.49998,3.249344,0.4624418,0.5209162,1.0,-0.04270935,-0.2166443,0.9753113,31.27222,4.267349,-26.75578,3.392014,0.5548591,0.4590748,0.05518472,1.177582,-0.3063098,-0.05758097,-0.0589894,0.004787273,0.283123,-23.95155,29.89
2,-0.02667236,-0.2216034,0.974762,1.0,-0.0398407,-0.2152405,0.9757385,-30.0692,2.296753,-26.48866,3.099899,0.4475557,0.5230339,1.0,-0.0131073,-0.2280884,0.9735413,31.53665,4.232971,-26.74495,3.116806,0.5409029,0.4620465,0.05526686,1.177587,-0.3062886,-0.05734096,-0.05892482,0.00479194,0.283123,-2.39045,29.89
2,-0.02667236,-0.2216034,0.974762,1.0,-0.0398407,-0.2152405,0.9757385,-30.0692,2.296753,-26.48866,3.099899,0.4475557,0.5230339,1.0,-0.0131073,-0.2280884,0.9735413,31.53665,4.232971,-26.74495,3.116806,0.5409029,0.4620465,0.05526686,1.177587,-0.3062886,-0.05734096,-0.05892482,0.00479194,0.283123,-2.39045,29.89
2,0.08114624,-0.2716675,0.9589539,1.0,0.06703186,-0.2550049,0.9645996,-29.20326,2.117676,-26.57843,3.043396,0.4008923,0.5366321,1.0,0.0901947,-0.2823029,0.9550629,32.2382,4.048386,-26.84163,3.302689,0.4997315,0.4788199,0.05528545,1.177528,-0.3062253,-0.05727804,-0.05887296,0.004782602,0.283123,-2.39045,29.89
2,0.08114624,-0.2716675,0.9589539,1.0,0.06703186,-0.2550049,0.9645996,-29.20326,2.117676,-26.57843,3.043396,0.4008923,0.5366321,1.0,0.0901947,-0.2823029,0.9550629,32.2382,4.048386,-26.84163,3.302689,0.4997315,0.4788199,0.05528545,1.177528,-0.3062253,-0.05727804,-0.05887296,0.004782602,0.283123,-2.39045,29.89
2,0.1332245,-0.3128662,0.9403992,1.0,0.1240387,-0.3085327,0.9430847,-28.78882,1.909378,-26.73346,3.04953,0.3772925,0.5548059,1.0,0.1378784,-0.3150482,0.9389954,32.56525,3.859879,-26.98204,3.100021,0.4804628,0.4925943,0.05531693,1.177494,-0.3061684,-0.05708455,-0.05875299,0.004596721,0.283123,-2.39045,29.89
2,0.1332245,-0.3128662,0.9403992,1.0,0.1240387,-0.3085327,0.9430847,-28.78882,1.909378,-26.73346,3.04953,0.3772925,0.5548059,1.0,0.1378784,-0.3150482,0.9389954,32.56525,3.859879,-26.98204,3.100021,0.4804628,0.4925943,0.05531693,1.177494,-0.3061684,-0.05708455,-0.05875299,0.004596721,0.283123,-2.39045,29.89
2,0.133728,-0.3384857,0.9314117,1.0,0.1261139,-0.3218384,0.9383545,-28.80907,1.918182,-26.73029,3.067551,0.3776048,0.5569384,1.0,0.1375732,-0.3469086,0.9277496,32.62605,3.945084,-26.92967,3.159286,0.4784851,0.4951439,0.0553695,1.177514,-0.3061211,-0.05691829,-0.05856628,0.004518251,0.283123,-2.39045,29.89
2,0.133728,-0.3384857,0.9314117,1.0,0.1261139,-0.3218384,0.9383545,-28.80907,1.918182,-26.73029,3.067551,0.3776048,0.5569384,1.0,0.1375732,-0.3469086,0.9277496,32.62605,3.945084,-26.92967,3.159286,0.4784851,0.4951439,0.0553695,1.177514,-0.3061211,-0.05691829,-0.05856628,0.004518251,0.283123,-2.39045,29.89
2,0.1230621,-0.3328094,0.9349213,1.0,0.1181183,-0.3220062,0.9393311,-28.82671,1.916641,-26.73257,2.985931,0.3795119,0.557019,1.0,0.1270752,-0.3415527,0.9312134,32.65227,3.941803,-26.91988,3.130554,0.4793644,0.4941124,0.05539358,1.177499,-0.3060365,-0.05688071,-0.05859083,0.004365614,0.283123,-2.39045,29.89
2,0.1230621,-0.3328094,0.9349213,1.0,0.1181183,-0.3220062,0.9393311,-28.82671,1.916641,-26.73257,2.985931,0.3795119,0.557019,1.0,0.1270752,-0.3415527,0.9312134,32.65227,3.941803,-26.91988,3.130554,0.4793644,0.4941124,0.05539358,1.177499,-0.3060365,-0.05688071,-0.05859083,0.004365614,0.283123,-2.39045,29.89
2,0.1268768,-0.3323975,0.9345551,1.0,0.1217499,-0.3220062,0.938858,-28.83128,1.915085,-26.7336,2.96962,0.3790496,0.5570995,1.0,0.1312866,-0.3413239,0.9307251,32.65411,3.939697,-26.91795,3.111801,0.4785812,0.4941463,0.05536985,1.177549,-0.3060005,-0.05692352,-0.05852861,0.004235682,0.283123,-2.39045,29.89
2,0.1268768,-0.3323975,0.9345551,1.0,0.1217499,-0.3220062,0.938858,-28.83128,1.915085,-26.7336,2.96962,0.3790496,0.5570995,1.0,0.1312866,-0.3413239,0.9307251,32.65411,3.939697,-26.91795,3.111801,0.4785812,0.4941463,0.05536985,1.177549,-0.3060005,-0.05692352,-0.05852861,0.004235682,0.283123,-2.39045,29.89
2,0.1268768,-0.3323975,0.9345551,1.0,0.1217499,-0.3220062,0.938858,-28.83128,1.915085,-26.7336,2.96962,0.3790496,0.5570995,1.0,0.1312866,-0.3413239,0.9307251,32.65411,3.939697,-26.91795,3.111801,0.4785812,0.4941463,0.05544174,1.177608,-0.3059856,-0.05699141,-0.05842885,0.004148595,0.283123,-2.39045,29.89
2,0.1268768,-0.3323975,0.9345551,1.0,0.1217499,-0.3220062,0.938858,-28.83128,1.915085,-26.7336,2.96962,0.3790496,0.5570995,1.0,0.1312866,-0.3413239,0.9307251,32.65411,3.939697,-26.91795,3.111801,0.4785812,0.4941463,0.05544174,1.177608,-0.3059856,-0.05699141,-0.05842885,0.004148595,0.283123,-2.39045,29.89
2,0.1268768,-0.3323975,0.9345551,1.0,0.1217499,-0.3220062,0.938858,-28.83128,1.915085,-26.7336,2.96962,0.3790496,0.5570995,1.0,0.1312866,-0.3413239,0.9307251,32.65411,3.939697,-26.91795,3.111801,0.4785812,0.4941463,0.05553603,1.177569,-0.3059661,-0.05702565,-0.0584467,0.00408343,0.283123,-2.39045,29.89
2,0.1268768,-0.3323975,0.9345551,1.0,0.1217499,-0.3220062,0.938858,-28.83128,1.915085,-26.7336,2.96962,0.3790496,0.5570995,1.0,0.1312866,-0.3413239,0.9307251,32.65411,3.939697,-26.91795,3.111801,0.4785812,0.4941463,0.05553603,1.177569,-0.3059661,-0.05702565,-0.0584467,0.00408343,0.283123,-2.39045,29.89
2,0.1325836,-0.3208618,0.9377899,1.0,0.1212921,-0.318512,0.9401245,-28.83995,1.916641,-26.73528,2.96994,0.3794242,0.5564147,1.0,0.1464996,-0.3237152,0.9347382,32.59207,3.854431,-27.01462,3.092468,0.47808,0.494739,0.05560911,1.177551,-0.3059313,-0.05690807,-0.05840066,0.004019062,0.283123,11.68733,29.89
2,0.1325836,-0.3208618,0.9377899,1.0,0.1212921,-0.318512,0.9401245,-28.83995,1.916641,-26.73528,2.96994,0.3794242,0.5564147,1.0,0.1464996,-0.3237152,0.9347382,32.59207,3.854431,-27.01462,3.092468,0.47808,0.494739,0.05560911,1.177551,-0.3059313,-0.05690807,-0.05840066,0.004019062,0.283123,11.68733,29.89
2,0.1273956,-0.3227539,0.9378662,1.0,0.1237488,-0.3177185,0.9400635,-28.84491,1.919312,-26.7336,3.003387,0.3791879,0.5561838,1.0,0.1331329,-0.3306732,0.9342957,32.66795,3.85611,-26.99597,3.15181,0.4777941,0.4956864,0.05563939,1.177467,-0.3059016,-0.05692889,-0.058315,0.003885213,0.283123,11.68733,29.89
2,0.1273956,-0.3227539,0.9378662,1.0,0.1237488,-0.3177185,0.9400635,-28.84491,1.919312,-26.7336,3.003387,0.3791879,0.5561838,1.0,0.1331329,-0.3306732,0.9342957,32.66795,3.85611,-26.99597,3.15181,0.4777941,0.4956864,0.05563939,1.177467,-0.3059016,-0.05692889,-0.058315,0.003885213,0.283123,11.68733,29.89
2,0.1333771,-0.3235779,0.9367371,1.0,0.1330414,-0.3177338,0.9387817,-28.8914,1.920578,-26.73154,3.007294,0.3791879,0.5561838,1.0,0.1337891,-0.3307495,0.9341736,32.6685,3.856094,-26.99408,3.144348,0.4776625,0.4956879,0.05566561,1.177457,-0.3058518,-0.05667403,-0.05828292,0.003833086,0.283123,11.68733,29.89
2,0.1333771,-0.3235779,0.9367371,1.0,0.1330414,-0.3177338,0.9387817,-28.8914,1.920578,-26.73154,3.007294,0.3791879,0.5561838,1.0,0.1337891,-0.3307495,0.9341736,32.6685,3.856094,-26.99408,3.144348,0.4776625,0.4956879,0.05566561,1.177457,-0.3058518,-0.05667403,-0.05828292,0.003833086,0.283123,11.68733,29.89
2,0.1333771,-0.3235779,0.9367371,1.0,0.1330414,-0.3177338,0.9387817,-28.8914,1.920578,-26.73154,3.007294,0.3791879,0.5561838,1.0,0.1337891,-0.3307495,0.9341736,32.6685,3.856094,-26.99408,3.144348,0.4776625,0.4956879,0.05564749,1.17742,-0.3058457,-0.05649983,-0.05841304,0.003842792,0.283123,11.68733,29.89
2,0.1333771,-0.3235779,0.9367371,1.0,0.1330414,-0.3177338,0.9387817,-28.8914,1.920578,-26.73154,3.007294,0.3791879,0.5561838,1.0,0.1337891,-0.3307495,0.9341736,32.6685,3.856094,-26.99408,3.144348,0.4776625,0.4956879,0.05564749,1.17742,-0.3058457,-0.05649983,-0.05841304,0.003842792,0.283123,11.68733,29.89
2,0.1333771,-0.3235779,0.9367371,1.0,0.1330414,-0.3177338,0.9387817,-28.8914,1.920578,-26.73154,3.007294,0.3791879,0.5561838,1.0,0.1337891,-0.3307495,0.9341736,32.6685,3.856094,-26.99408,3.144348,0.4776625,0.4956879,0.05570972,1.177383,-0.305783,-0.05633383,-0.0586024,0.003766418,0.283123,11.68733,29.89
2,0.1333771,-0.3235779,0.9367371,1.0,0.1330414,-0.3177338,0.9387817,-28.8914,1.920578,-26.73154,3.007294,0.3791879,0.5561838,1.0,0.1337891,-0.3307495,0.9341736,32.6685,3.856094,-26.99408,3.144348,0.4776625,0.4956879,0.05570972,1.177383,-0.305783,-0.05633383,-0.0586024,0.003766418,0.283123,11.68733,29.89
2,0.1328583,-0.3188171,0.938446,1.0,0.1330719,-0.3169098,0.9390564,-28.8914,1.922302,-26.72763,3.011337,0.3791879,0.5559402,1.0,0.1325989,-0.3210449,0.9377289,32.68195,3.860031,-26.99147,3.039246,0.477372,0.4937453,0.05569041,1.177383,-0.3057121,-0.05636649,-0.05872978,0.003664143,0.283123,11.68733,29.89
2,0.135788,-0.3355255,0.9321899,1.0,0.1331329,-0.3153076,0.9395905,-28.8914,1.922913,-26.72763,3.035507,0.3791879,0.5556217,1.0,0.1391449,-0.361618,0.921875,32.68192,3.982391,-26.92027,3.159958,0.4763239,0.4965506,0.05565572,1.177373,-0.3056083,-0.0560663,-0.05905176,0.003750559,0.283123,11.68733,29.89
2,0.135788,-0.3355255,0.9321899,1.0,0.1331329,-0.3153076,0.9395905,-28.8914,1.922913,-26.72763,3.035507,0.3791879,0.5556217,1.0,0.1391449,-0.361618,0.921875,32.68192,3.982391,-26.92027,3.159958,0.4763239,0.4965506,0.05565572,1.177373,-0.3056083,-0.0560663,-0.05905176,0.003750559,0.283123,11.68733,29.89
2,0.1364899,-0.3428955,0.9293976,1.0,0.1357269,-0.3460693,0.9283295,-28.84264,1.911179,-26.74658,3.065353,0.3770503,0.5618643,1.0,0.1374817,-0.3386993,0.9307861,32.68465,3.824142,-27.02936,3.212189,0.4765002,0.4985578,0.05557275,1.177263,-0.3055472,-0.05555259,-0.06005363,0.003563115,0.283123,11.68733,29.89
2,0.1364899,-0.3428955,0.9293976,1.0,0.1357269,-0.3460693,0.9283295,-28.84264,1.911179,-26.74658,3.065353,0.3770503,0.5618643,1.0,0.1374817,-0.3386993,0.9307861,32.68465,3.824142,-27.02936,3.212189,0.4765002,0.4985578,0.05557275,1.177263,-0.3055472,-0.05555259,-0.06005363,0.003563115,0.283123,11.68733,29.89
2,0.1819763,-0.3797607,0.9069977,1.0,0.1817322,-0.3787079,0.907486,-28.59628,1.696823,-26.88742,3.25238,0.3608567,0.5766914,1.0,0.1823273,-0.3812256,0.906311,32.77577,3.626938,-27.15187,3.107651,0.4656458,0.5146861,0.05551982,1.177211,-0.3055086,-0.05519698,-0.06057825,0.003523162,0.283123,11.68733,29.89
2,0.1821442,-0.390686,0.9023132,0.7578235,0.1807556,-0.3864136,0.9044189,-28.56534,1.660172,-26.90916,3.22551,0.3599142,0.5795689,0.9733192,0.1844025,-0.3977203,0.8987732,32.85294,3.609283,-27.17897,3.152969,0.4626663,0.5186691,0.0553205,1.177056,-0.3055413,-0.05438311,-0.06194681,0.003280036,0.283123,12.61835,29.89
2,0.1821442,-0.390686,0.9023132,0.7578235,0.1807556,-0.3864136,0.9044189,-28.56534,1.660172,-26.90916,3.22551,0.3599142,0.5795689,0.9733192,0.1844025,-0.3977203,0.8987732,32.85294,3.609283,-27.17897,3.152969,0.4626663,0.5186691,0.0553205,1.177056,-0.3055413,-0.05438311,-0.06194681,0.003280036,0.283123,12.61835,29.89
2,0.1815033,-0.3992004,0.8986969,0.7336452,0.1866302,-0.3925323,0.900589,-28.58429,1.663696,-26.91933,3.18428,0.3595201,0.5807757,0.9858921,0.1781006,-0.4036102,0.8974152,32.8593,3.612854,-27.17067,3.100525,0.4634946,0.5195532,0.05522072,1.176997,-0.3055243,-0.05408073,-0.06280028,0.003264097,0.283123,12.61835,29.89
2,0.1823883,-0.3917389,0.9018097,0.7225312,0.1867218,-0.3888092,0.9021912,-28.58429,1.666031,-26.9184,3.193085,0.3595201,0.5799909,0.9698038,0.179245,-0.3938599,0.9015045,32.86737,3.615067,-27.17111,3.204071,0.4630859,0.5175804,0.05482686,1.176859,-0.3054403,-0.05322924,-0.06522497,0.002715893,0.283123,12.61835,29.89
2,0.1823883,-0.3917389,0.9018097,0.7225312,0.1867218,-0.3888092,0.9021912,-28.58429,1.666031,-26.9184,3.193085,0.3595201,0.5799909,0.9698038,0.179245,-0.3938599,0.9015045,32.86737,3.615067,-27.17111,3.204071,0.4630859,0.5175804,0.05482686,1.176859,-0.3054403,-0.05322924,-0.06522497,0.002715893,0.283123,12.61835,29.89
2,0.1806946,-0.392334,0.901886,0.7347079,0.1855774,-0.3892365,0.9022369,-28.58333,1.66925,-26.91728,3.21225,0.3596885,0.5799346,0.9765044,0.1765747,-0.394928,0.9015656,32.87723,3.620621,-27.17131,3.185394,0.4631951,0.5175804,0.05459714,1.176788,-0.3053937,-0.05272039,-0.06697545,0.00233215,0.283123,12.61835,29.89
2,0.1738281,-0.3934631,0.9027405,0.7157848,0.180191,-0.3899841,0.9029999,-28.57521,1.671402,-26.91693,3.264557,0.3603411,0.5799346,0.9735268,0.1681824,-0.3965149,0.9024811,32.91243,3.63884,-27.17082,3.297577,0.4634804,0.5171394,0.0540235,1.176674,-0.3053093,-0.05180185,-0.07099771,0.001314738,0.283123,12.61835,29.89
2,0.1738281,-0.3934631,0.9027405,0.7157848,0.180191,-0.3899841,0.9029999,-28.57521,1.671402,-26.91693,3.264557,0.3603411,0.5799346,0.9735268,0.1681824,-0.3965149,0.9024811,32.91243,3.63884,-27.17082,3.297577,0.4634804,0.5171394,0.0540235,1.176674,-0.3053093,-0.05180185,-0.07099771,0.001314738,0.283123,12.61835,29.89
2,0.1720581,-0.3951263,0.902359,0.7108374,0.178421,-0.3886871,0.9039154,-28.57602,1.676819,-26.91602,3.270905,0.3606749,0.5794762,0.9741178,0.1665497,-0.40065,0.9009552,32.89346,3.658829,-27.16833,3.192276,0.4643567,0.5172666,0.05366755,1.176572,-0.3052914,-0.05140726,-0.07328562,0.001013992,0.283123,12.61835,29.89
2,0.1714172,-0.4010773,0.8998566,1.0,0.1798706,-0.3864288,0.9046021,-28.58333,1.67836,-26.9153,3.310181,0.3606986,0.5789893,1.0,0.164032,-0.4136963,0.8955078,32.88097,3.678223,-27.17067,3.129517,0.4651774,0.5191402,0.05325782,1.176435,-0.3053412,-0.05098084,-0.07569374,0.0006103516,0.283123,12.61835,29.89
2,0.1744537,-0.3868408,0.9054718,0.7241182,0.1788788,-0.3840942,0.9057922,-28.58382,1.678925,-26.91525,3.290466,0.3608816,0.5785323,0.9824288,0.1704102,-0.3893585,0.9051666,32.87125,3.674957,-27.15677,3.40892,0.4645768,0.514409,0.05250823,1.176367,-0.305246,-0.05029845,-0.08077062,-0.0001220703,0.283123,12.61835,29.89
2,0.1744537,-0.3868408,0.9054718,0.7241182,0.1788788,-0.3840942,0.9057922,-28.58382,1.678925,-26.91525,3.290466,0.3608816,0.5785323,0.9824288,0.1704102,-0.3893585,0.9051666,32.87125,3.674957,-27.15677,3.40892,0.4645768,0.514409,0.05250823,1.176367,-0.305246,-0.05029845,-0.08077062,-0.0001220703,0.283123,12.61835,29.89
2,0.1670685,-0.3864594,0.9070435,0.7368137,0.1761475,-0.3818512,0.9072723,-28.58504,1.682755,-26.91368,3.29007,0.3613915,0.5779364,0.991908,0.158432,-0.3907928,0.906723,32.86012,3.685959,-27.15038,3.249908,0.4669178,0.5142229,0.05217767,1.176316,-0.3052194,-0.04995853,-0.08367027,-0.000791106,0.283123,12.61835,29.89
2,0.1638794,-0.3854675,0.9080353,0.7247137,0.1733704,-0.381424,0.9079895,-28.58676,1.693176,-26.91141,3.309418,0.3619284,0.5774587,0.9817065,0.15242,-0.3903046,0.9079742,32.85316,3.682159,-27.14754,3.331802,0.4682101,0.5141525,0.05174923,1.176278,-0.3051873,-0.0495079,-0.08687617,-0.001256791,0.283123,12.61835,29.89
2,0.1593475,-0.3666382,0.9166107,0.7307516,0.1537781,-0.3630981,0.9189606,-28.66927,1.830811,-26.8334,3.358307,0.3681656,0.5685419,0.9942265,0.1648254,-0.3700867,0.9142456,32.866,3.791824,-27.09773,3.329498,0.4657191,0.5062652,0.05060518,1.176191,-0.3051968,-0.04881561,-0.09391659,-0.002398301,0.281842,7.241325,29.89
2,0.1593475,-0.3666382,0.9166107,0.7307516,0.1537781,-0.3630981,0.9189606,-28.66927,1.830811,-26.8334,3.358307,0.3681656,0.5685419,0.9942265,0.1648254,-0.3700867,0.9142456,32.866,3.791824,-27.09773,3.329498,0.4657191,0.5062652,0.05060518,1.176191,-0.3051968,-0.04881561,-0.09391659,-0.002398301,0.281842,7.241325,29.89
2,0.1785583,-0.2817993,0.9427032,0.787921,0.1627808,-0.2710724,0.9486847,-28.37961,2.287872,-26.68723,3.496399,0.3574642,0.535121,0.9852199,0.1970062,-0.294281,0.9351807,32.87549,4.341339,-26.92072,3.366196,0.4601631,0.4723439,0.04951739,1.176099,-0.3051828,-0.048441,-0.1016365,-0.003756514,0.281842,7.241325,29.89
2,0.1785583,-0.2817993,0.9427032,0.787921,0.1627808,-0.2710724,0.9486847,-28.37961,2.287872,-26.68723,3.496399,0.3574642,0.535121,0.9852199,0.1970062,-0.294281,0.9351807,32.87549,4.341339,-26.92072,3.366196,0.4601631,0.4723439,0.04951739,1.176099,-0.3051828,-0.048441,-0.1016365,-0.003756514,0.281842,7.241325,29.89
2,0.2142181,-0.1430054,0.9662476,0.7992134,0.2215118,-0.1248322,0.9671173,-28.19791,2.734573,-26.62314,3.686646,0.3419273,0.4944221,0.9517904,0.201767,-0.1734161,0.9639435,33.05786,4.777969,-26.81818,3.452301,0.4533697,0.4350389,0.0489434,1.176119,-0.3052082,-0.04836896,-0.1057706,-0.004258487,0.281842,7.241325,29.89
2,0.2248993,-0.09724426,0.9695129,0.8731586,0.2248993,-0.09724426,0.9695129,-28.23276,2.789001,-26.60706,3.734344,0.3425785,0.4877856,0.9667143,0.0,0.0,0.0,33.03128,4.902679,-26.79037,-1.0,0.453559,0.4238593,0.04833305,1.176138,-0.305249,-0.04820603,-0.1097686,-0.004760742,0.281842,7.241325,29.89
2,0.2012787,-0.1004639,0.9743652,1.0,0.2012787,-0.1004639,0.9743652,-28.32524,2.72403,-26.59393,3.629562,0.349622,0.4901866,1.0,0.0,0.0,0.0,32.99648,4.854156,-26.80905,-1.0,0.4546991,0.4280024,0.04714167,1.176076,-0.3053386,-0.04780452,-0.118063,-0.005846646,0.281842,7.241325,29.89
2,0.2012787,-0.1004639,0.9743652,1.0,0.2012787,-0.1004639,0.9743652,-28.32524,2.72403,-26.59393,3.629562,0.349622,0.4901866,1.0,0.0,0.0,0.0,32.99648,4.854156,-26.80905,-1.0,0.4546991,0.4280024,0.04714167,1.176076,-0.3053386,-0.04780452,-0.118063,-0.005846646,0.281842,7.241325,29.89
2,0.1835938,-0.1212463,0.9754791,1.0,0.171936,-0.1016846,0.9798431,-28.42355,2.685852,-26.58206,3.705856,0.3578689,0.4914227,1.0,0.1918945,-0.1352234,0.9720459,32.92741,4.822632,-26.79483,3.607697,0.459549,0.4266109,0.04652536,1.176046,-0.3053877,-0.0475971,-0.1223047,-0.006366409,0.281842,7.241325,29.89
2,0.1669617,-0.1175232,0.9789276,1.0,0.1613464,-0.1125946,0.9804535,-28.50137,2.674576,-26.56459,3.675354,0.3622401,0.4934597,1.0,0.170578,-0.1207123,0.9779205,32.87245,4.796326,-26.7838,3.60405,0.4650154,0.4247455,0.04531133,1.176019,-0.305535,-0.04717034,-0.1307089,-0.007706882,0.281842,7.241325,29.89
2,0.1669617,-0.1175232,0.9789276,1.0,0.1613464,-0.1125946,0.9804535,-28.50137,2.674576,-26.56459,3.675354,0.3622401,0.4934597,1.0,0.170578,-0.1207123,0.9779205,32.87245,4.796326,-26.7838,3.60405,0.4650154,0.4247455,0.04531133,1.176019,-0.305535,-0.04717034,-0.1307089,-0.007706882,0.281842,7.241325,29.89
2,0.153656,-0.1424866,0.9777832,1.0,0.1553497,-0.1209869,0.9804077,-28.616,2.699951,-26.55792,3.701584,0.3670777,0.4940184,1.0,0.1525574,-0.1561127,0.9758759,32.81584,4.801224,-26.75117,3.432007,0.4699097,0.4303792,0.04464257,1.176013,-0.3055902,-0.04696631,-0.1349917,-0.008213256,0.281842,7.241325,29.89
2,0.139801,-0.1183624,0.983078,1.0,0.1346283,-0.116272,0.9840393,-28.69771,2.696701,-26.55252,3.622849,0.3732502,0.4931575,1.0,0.1438141,-0.1199799,0.9822998,32.75153,4.782074,-26.78484,3.815979,0.4737099,0.4250515,0.04339862,1.176013,-0.3058592,-0.04665386,-0.1432242,-0.009249998,0.281842,7.241325,29.89
2,0.139801,-0.1183624,0.983078,1.0,0.1346283,-0.116272,0.9840393,-28.69771,2.696701,-26.55252,3.622849,0.3732502,0.4931575,1.0,0.1438141,-0.1199799,0.9822998,32.75153,4.782074,-26.78484,3.815979,0.4737099,0.4250515,0.04339862,1.176013,-0.3058592,-0.04665386,-0.1432242,-0.009249998,0.281842,7.241325,29.89
2,0.139801,-0.1183624,0.983078,1.0,0.1346283,-0.116272,0.9840393,-28.69771,2.696701,-26.55252,3.622849,0.3732502,0.4931575,1.0,0.1438141,-0.1199799,0.9822998,32.75153,4.782074,-26.78484,3.815979,0.4737099,0.4250515,0.04339862,1.176013,-0.3058592,-0.04665386,-0.1432242,-0.009249998,0.281842,7.241325,29.89
2,0.139801,-0.1183624,0.983078,1.0,0.1346283,-0.116272,0.9840393,-28.69771,2.696701,-26.55252,3.622849,0.3732502,0.4931575,1.0,0.1438141,-0.1199799,0.9822998,32.75153,4.782074,-26.78484,3.815979,0.4737099,0.4250515,0.04221976,1.175976,-0.3061125,-0.04619841,-0.1510321,-0.01023354,0.281842,7.241325,29.89
2,0.139801,-0.1183624,0.983078,1.0,0.1346283,-0.116272,0.9840393,-28.69771,2.696701,-26.55252,3.622849,0.3732502,0.4931575,1.0,0.1438141,-0.1199799,0.9822998,32.75153,4.782074,-26.78484,3.815979,0.4737099,0.4250515,0.04221976,1.175976,-0.3061125,-0.04619841,-0.1510321,-0.01023354,0.281842,7.241325,29.89
2,0.139801,-0.1183624,0.983078,1.0,0.1346283,-0.116272,0.9840393,-28.69771,2.696701,-26.55252,3.622849,0.3732502,0.4931575,1.0,0.1438141,-0.1199799,0.9822998,32.75153,4.782074,-26.78484,3.815979,0.4737099,0.4250515,0.04094958,1.175919,-0.3065498,-0.04572197,-0.1587091,-0.01145056,0.281842,-3.659195,29.89
2,0.1055603,-0.1173248,0.9874573,1.0,0.08473206,-0.1119843,0.9900818,-28.99063,2.669952,-26.55637,3.629669,0.3912967,0.4932691,1.0,0.1230927,-0.1218109,0.9848785,32.48283,4.79274,-26.78795,4.003052,0.4863453,0.4250743,0.03986049,1.17586,-0.3068678,-0.04536091,-0.1661364,-0.0124392,0.281842,-3.659195,29.89
2,0.1055603,-0.1173248,0.9874573,1.0,0.08473206,-0.1119843,0.9900818,-28.99063,2.669952,-26.55637,3.629669,0.3912967,0.4932691,1.0,0.1230927,-0.1218109,0.9848785,32.48283,4.79274,-26.78795,4.003052,0.4863453,0.4250743,0.03986049,1.17586,-0.3068678,-0.04536091,-0.1661364,-0.0124392,0.281842,-3.659195,29.89
2,0.0799408,-0.1348267,0.9876251,1.0,0.07141113,-0.1300812,0.9889221,-29.13631,2.722672,-26.56749,3.656326,0.398336,0.4947535,1.0,0.08738708,-0.1389465,0.9864349,32.36806,4.72554,-26.72,3.728851,0.4961112,0.4295653,0.03880417,1.175756,-0.3072174,-0.04496896,-0.1733564,-0.01324449,0.281842,-3.659195,29.89
2,0.0799408,-0.1348267,0.9876251,1.0,0.07141113,-0.1300812,0.9889221,-29.13631,2.722672,-26.56749,3.656326,0.398336,0.4947535,1.0,0.08738708,-0.1389465,0.9864349,32.36806,4.72554,-26.72,3.728851,0.4961112,0.4295653,0.03880417,1.175756,-0.3072174,-0.04496896,-0.1733564,-0.01324449,0.281842,-3.659195,29.89
2,0.06736755,-0.1294708,0.9892883,1.0,0.06044006,-0.1169281,0.9912872,-29.25339,2.615356,-26.29274,3.77713,0.4041952,0.4936613,1.0,0.07025146,-0.1346893,0.9883881,32.22466,4.718552,-26.67725,3.834366,0.5038472,0.4287233,0.03783596,1.175692,-0.3076084,-0.04444214,-0.1799577,-0.01404976,0.281842,-3.659195,29.89
2,0.06736755,-0.1294708,0.9892883,1.0,0.06044006,-0.1169281,0.9912872,-29.25339,2.615356,-26.29274,3.77713,0.4041952,0.4936613,1.0,0.07025146,-0.1346893,0.9883881,32.22466,4.718552,-26.67725,3.834366,0.5038472,0.4287233,0.03783596,1.175692,-0.3076084,-0.04444214,-0.1799577,-0.01404976,0.281842,-3.659195,29.89
2,0.05448914,-0.1295013,0.9900665,1.0,0.03512573,-0.1176147,0.9924316,-29.39499,2.622604,-26.36729,3.653534,0.4130158,0.4941666,1.0,0.05741882,-0.1313019,0.9896698,32.0921,4.739075,-26.76495,3.856644,0.5105046,0.4282054,0.03690779,1.175695,-0.3079795,-0.04398412,-0.1858868,-0.01466013,0.281842,-3.659195,29.89
2,0.05448914,-0.1295013,0.9900665,1.0,0.03512573,-0.1176147,0.9924316,-29.39499,2.622604,-26.36729,3.653534,0.4130158,0.4941666,1.0,0.05741882,-0.1313019,0.9896698,32.0921,4.739075,-26.76495,3.856644,0.5105046,0.4282054,0.03690779,1.175695,-0.3079795,-0.04398412,-0.1858868,-0.01466013,0.281842,-3.659195,29.89
2,0.04273987,-0.1300201,0.9905853,1.0,0.01863098,-0.1105652,0.9936829,-29.48909,2.653778,-26.47429,3.594269,0.4188231,0.492886,1.0,0.04890442,-0.1349792,0.9896393,31.98329,4.684921,-26.6322,3.83078,0.5155527,0.4295356,0.03605437,1.175691,-0.3082553,-0.04376506,-0.1909843,-0.01503647,0.281842,-3.659195,29.89
2,0.04273987,-0.1300201,0.9905853,1.0,0.01863098,-0.1105652,0.9936829,-29.48909,2.653778,-26.47429,3.594269,0.4188231,0.492886,1.0,0.04890442,-0.1349792,0.9896393,31.98329,4.684921,-26.6322,3.83078,0.5155527,0.4295356,0.03605437,1.175691,-0.3082553,-0.04376506,-0.1909843,-0.01503647,0.281842,-3.659195,29.89
2,0.03501892,-0.1317139,0.9906616,1.0,0.0111084,-0.1116486,0.9936829,-29.64345,2.765457,-26.77333,3.574646,0.4250845,0.4920766,1.0,0.04110718,-0.1368103,0.9897308,31.84225,4.672211,-26.55734,3.925064,0.5216049,0.429687,0.03527534,1.175681,-0.3085465,-0.04365768,-0.1953205,-0.01501366,0.281842,-3.659195,29.89
2,0.03501892,-0.1317139,0.9906616,1.0,0.0111084,-0.1116486,0.9936829,-29.64345,2.765457,-26.77333,3.574646,0.4250845,0.4920766,1.0,0.04110718,-0.1368103,0.9897308,31.84225,4.672211,-26.55734,3.925064,0.5216049,0.429687,0.03527534,1.175681,-0.3085465,-0.04365768,-0.1953205,-0.01501366,0.281842,-3.659195,29.89
2,0.02992249,-0.1331787,0.9906311,1.0,0.00553894,-0.1140289,0.993454,-29.67851,2.754578,-26.7581,3.630966,0.4271691,0.4927546,1.0,0.03424072,-0.1365509,0.990036,31.79929,4.654114,-26.47409,3.822601,0.524154,0.4295186,0.03453326,1.175703,-0.3088766,-0.04372674,-0.1986961,-0.0148274,0.281842,-15.66633,29.89
2,0.02992249,-0.1331787,0.9906311,1.0,0.00553894,-0.1140289,0.993454,-29.67851,2.754578,-26.7581,3.630966,0.4271691,0.4927546,1.0,0.03424072,-0.1365509,0.990036,31.79929,4.654114,-26.47409,3.822601,0.524154,0.4295186,0.03453326,1.175703,-0.3088766,-0.04372674,-0.1986961,-0.0148274,0.281842,-15.66633,29.89
2,0.02992249,-0.1331787,0.9906311,1.0,0.00553894,-0.1140289,0.993454,-29.67851,2.754578,-26.7581,3.630966,0.4271691,0.4927546,1.0,0.03424072,-0.1365509,0.990036,31.79929,4.654114,-26.47409,3.822601,0.524154,0.4295186,0.03389156,1.175765,-0.3091323,-0.04402831,-0.20138,-0.01464539,0.281842,-15.66633,29.89
2,0.02992249,-0.1331787,0.9906311,1.0,0.00553894,-0.1140289,0.993454,-29.67851,2.754578,-26.7581,3.630966,0.4271691,0.4927546,1.0,0.03424072,-0.1365509,0.990036,31.79929,4.654114,-26.47409,3.822601,0.524154,0.4295186,0.03389156,1.175765,-0.3091323,-0.04402831,-0.20138,-0.01464539,0.281842,-15.66633,29.89
2,0.02992249,-0.1331787,0.9906311,1.0,0.00553894,-0.1140289,0.993454,-29.67851,2.754578,-26.7581,3.630966,0.4271691,0.4927546,1.0,0.03424072,-0.1365509,0.990036,31.79929,4.654114,-26.47409,3.822601,0.524154,0.4295186,0.03342795,1.175905,-0.3092688,-0.04456954,-0.2032422,-0.01436493,0.281842,-15.66633,29.89
2,0.02992249,-0.1331787,0.9906311,1.0,0.00553894,-0.1140289,0.993454,-29.67851,2.754578,-26.7581,3.630966,0.4271691,0.4927546,1.0,0.03424072,-0.1365509,0.990036,31.79929,4.654114,-26.47409,3.822601,0.524154,0.4295186,0.03342795,1.175905,-0.3092688,-0.04456954,-0.2032422,-0.01436493,0.281842,-15.66633,29.89
2,-0.008758545,-0.12323,0.9923248,1.0,-0.02145386,-0.1184082,0.9927216,-29.93286,2.688354,-26.41496,3.595901,0.4401581,0.4927112,1.0,0.01170349,-0.1309509,0.9913177,31.55865,4.605637,-26.19751,3.777267,0.5359033,0.427855,0.03292751,1.175985,-0.3094445,-0.04512889,-0.2046728,-0.01408789,0.281842,-15.66633,29.89
2,-0.008758545,-0.12323,0.9923248,1.0,-0.02145386,-0.1184082,0.9927216,-29.93286,2.688354,-26.41496,3.595901,0.4401581,0.4927112,1.0,0.01170349,-0.1309509,0.9913177,31.55865,4.605637,-26.19751,3.777267,0.5359033,0.427855,0.03292751,1.175985,-0.3094445,-0.04512889,-0.2046728,-0.01408789,0.281842,-15.66633,29.89
2,0.03106689,-0.06077576,0.9976654,1.0,0.02940369,-0.05931091,0.9978027,-29.30585,3.18042,-27.09453,3.659622,0.4108163,0.472229,1.0,0.07148743,-0.09661865,0.9927368,32.03546,5.267059,-27.3022,3.819794,0.5103081,0.4089999,0.03260529,1.176033,-0.3095088,-0.04572621,-0.2058372,-0.01373983,0.281842,-15.66633,29.89
2,0.03106689,-0.06077576,0.9976654,1.0,0.02940369,-0.05931091,0.9978027,-29.30585,3.18042,-27.09453,3.659622,0.4108163,0.472229,1.0,0.07148743,-0.09661865,0.9927368,32.03546,5.267059,-27.3022,3.819794,0.5103081,0.4089999,0.03260529,1.176033,-0.3095088,-0.04572621,-0.2058372,-0.01373983,0.281842,-15.66633,29.89
3,0.04039001,-0.04373169,0.9982147,1.0,0.04039001,-0.04371643,0.9982147,-29.25525,3.193268,-26.88603,3.634155,0.4074334,0.467322,1.0,0.05856323,-0.06466675,0.9961853,32.09628,5.407181,-27.47672,3.86528,0.5105186,0.4001799,0.03224003,1.176122,-0.3097482,-0.04612288,-0.2065705,-0.01349526,0.281842,-15.66633,29.89
3,0.04039001,-0.04373169,0.9982147,1.0,0.04039001,-0.04371643,0.9982147,-29.25525,3.193268,-26.88603,3.634155,0.4074334,0.467322,1.0,0.05856323,-0.06466675,0.9961853,32.09628,5.407181,-27.47672,3.86528,0.5105186,0.4001799,0.03224003,1.176122,-0.3097482,-0.04612288,-0.2065705,-0.01349526,0.281842,-15.66633,29.89
3,0.04524231,-0.05528259,0.9974365,1.0,0.04522705,-0.05526733,0.9974365,-29.36794,3.169022,-26.82364,3.599548,0.4103913,0.4695406,1.0,0.0579071,-0.06089783,0.99646,32.08739,5.366409,-27.48817,3.947479,0.5109455,0.4010301,0.0320226,1.176153,-0.3098934,-0.0462954,-0.2068675,-0.0131156,0.281842,-15.66633,29.89
3,0.04524231,-0.05528259,0.9974365,1.0,0.04522705,-0.05526733,0.9974365,-29.36794,3.169022,-26.82364,3.599548,0.4103913,0.4695406,1.0,0.0579071,-0.06089783,0.99646,32.08739,5.366409,-27.48817,3.947479,0.5109455,0.4010301,0.0320226,1.176153,-0.3098934,-0.0462954,-0.2068675,-0.0131156,0.281842,-15.66633,29.89
3,0.05387878,-0.05604553,0.9969635,1.0,0.04675293,-0.05578613,0.997345,-29.39645,3.160248,-26.86255,3.709869,0.4110667,0.4703306,1.0,0.06044006,-0.05628967,0.996582,32.08281,5.348465,-27.5322,3.865295,0.5106645,0.4011864,0.0318135,1.176175,-0.310024,-0.04638977,-0.2067398,-0.01276613,0.281842,-15.66633,29.89
3,0.05387878,-0.05604553,0.9969635,1.0,0.04675293,-0.05578613,0.997345,-29.39645,3.160248,-26.86255,3.709869,0.4110667,0.4703306,1.0,0.06044006,-0.05628967,0.996582,32.08281,5.348465,-27.5322,3.865295,0.5106645,0.4011864,0.0318135,1.176175,-0.310024,-0.04638977,-0.2067398,-0.01276613,0.281842,-15.66633,29.89
3,0.0511322,-0.05906677,0.996933,1.0,0.04524231,-0.05516052,0.9974365,-29.40343,3.157043,-26.86255,3.709747,0.4115509,0.4703306,1.0,0.05752563,-0.06329346,0.9963226,32.08272,5.334274,-27.49271,3.892349,0.51115,0.4025622,0.03161931,1.176211,-0.3101519,-0.0464344,-0.20664,-0.01222959,0.281842,-15.66633,29.89
3,0.0511322,-0.05906677,0.996933,1.0,0.04524231,-0.05516052,0.9974365,-29.40343,3.157043,-26.86255,3.709747,0.4115509,0.4703306,1.0,0.05752563,-0.06329346,0.9963226,32.08272,5.334274,-27.49271,3.892349,0.51115,0.4025622,0.03161931,1.176211,-0.3101519,-0.0464344,-0.20664,-0.01222959,0.281842,-15.66633,29.89
3,0.04685974,-0.05906677,0.9971466,1.0,0.03887939,-0.05419922,0.997757,-29.40048,3.156281,-26.86223,3.72998,0.4125083,0.4702024,1.0,0.05606079,-0.06468201,0.9963226,32.08368,5.317215,-27.44566,3.887573,0.5113458,0.4029785,0.03151715,1.176148,-0.310297,-0.0465144,-0.2063762,-0.01183642,0.281842,-13.02969,29.89
3,0.04685974,-0.05906677,0.9971466,1.0,0.03887939,-0.05419922,0.997757,-29.40048,3.156281,-26.86223,3.72998,0.4125083,0.4702024,1.0,0.05606079,-0.06468201,0.9963226,32.08368,5.317215,-27.44566,3.887573,0.5113458,0.4029785,0.03151715,1.176148,-0.310297,-0.0465144,-0.2063762,-0.01183642,0.281842,-13.02969,29.89
3,0.04406738,-0.05368042,0.9975739,1.0,0.03633118,-0.04908752,0.9981232,-29.38315,3.130859,-26.86176,3.734665,0.4123541,0.4701696,1.0,0.05613708,-0.06083679,0.9965668,32.08705,5.297821,-27.43175,3.886108,0.511213,0.4028554,0.03146708,1.176116,-0.3104335,-0.04656259,-0.206251,-0.01133941,0.281842,-13.02969,29.89
3,0.04406738,-0.05368042,0.9975739,1.0,0.03633118,-0.04908752,0.9981232,-29.38315,3.130859,-26.86176,3.734665,0.4123541,0.4701696,1.0,0.05613708,-0.06083679,0.9965668,32.08705,5.297821,-27.43175,3.886108,0.511213,0.4028554,0.03146708,1.176116,-0.3104335,-0.04656259,-0.206251,-0.01133941,0.281842,-13.02969,29.89
3,0.0431366,-0.05252075,0.9976807,1.0,0.03378296,-0.04495239,0.9984131,-29.37558,3.109894,-26.86255,3.735703,0.4125231,0.4701696,1.0,0.05575562,-0.06269836,0.99646,32.08868,5.295135,-27.41283,3.895126,0.5112184,0.4031041,0.031407,1.176071,-0.3105329,-0.04660769,-0.2061074,-0.01128408,0.281842,-13.02969,29.89
3,0.0431366,-0.05252075,0.9976807,1.0,0.03378296,-0.04495239,0.9984131,-29.37558,3.109894,-26.86255,3.735703,0.4125231,0.4701696,1.0,0.05575562,-0.06269836,0.99646,32.08868,5.295135,-27.41283,3.895126,0.5112184,0.4031041,0.031407,1.176071,-0.3105329,-0.04660769,-0.2061074,-0.01128408,0.281842,-13.02969,29.89
3,0.04133606,-0.05433655,0.9976654,1.0,0.03282166,-0.04473877,0.9984589,-29.37386,3.111862,-26.87149,3.738129,0.4126238,0.4701368,1.0,0.05166626,-0.065979,0.9964752,32.10881,5.291046,-27.39011,3.896576,0.5112157,0.4036205,0.03124154,1.176056,-0.3106344,-0.04686371,-0.2063358,-0.01111108,0.281842,-13.02969,29.89
3,0.04133606,-0.05433655,0.9976654,1.0,0.03282166,-0.04473877,0.9984589,-29.37386,3.111862,-26.87149,3.738129,0.4126238,0.4701368,1.0,0.05166626,-0.065979,0.9964752,32.10881,5.291046,-27.39011,3.896576,0.5112157,0.4036205,0.03124154,1.176056,-0.3106344,-0.04686371,-0.2063358,-0.01111108,0.281842,-13.02969,29.89
3,0.03907776,-0.05302429,0.997818,1.0,0.03208923,-0.04396057,0.9985046,-29.37025,3.109863,-26.87149,3.754303,0.4126238,0.470089,1.0,0.04754639,-0.06404114,0.9968109,32.12895,5.27533,-27.36401,3.898346,0.5112184,0.4035842,0.0311271,1.176059,-0.3107786,-0.04705918,-0.2065421,-0.01122317,0.281842,-13.02969,29.89
3,0.03907776,-0.05302429,0.997818,1.0,0.03208923,-0.04396057,0.9985046,-29.37025,3.109863,-26.87149,3.754303,0.4126238,0.470089,1.0,0.04754639,-0.06404114,0.9968109,32.12895,5.27533,-27.36401,3.898346,0.5112184,0.4035842,0.0311271,1.176059,-0.3107786,-0.04705918,-0.2065421,-0.01122317,0.281842,-13.02969,29.89
3,0.03683472,-0.05174255,0.9979706,1.0,0.03034973,-0.04431152,0.9985504,-29.36971,3.104675,-26.84096,3.782806,0.4129068,0.4700669,1.0,0.04634094,-0.06268311,0.9969482,32.13445,5.253845,-27.30547,3.900894,0.5112184,0.4035842,0.03097105,1.176125,-0.3107709,-0.04731717,-0.2068522,-0.01115659,0.281842,-13.02969,29.89
3,0.03683472,-0.05174255,0.9979706,1.0,0.03034973,-0.04431152,0.9985504,-29.36971,3.104675,-26.84096,3.782806,0.4129068,0.4700669,1.0,0.04634094,-0.06268311,0.9969482,32.13445,5.253845,-27.30547,3.900894,0.5112184,0.4035842,0.03097105,1.176125,-0.3107709,-0.04731717,-0.2068522,-0.01115659,0.281842,-13.02969,29.89
3,0.03671265,-0.05218506,0.9979553,1.0,0.02990723,-0.04418945,0.9985657,-29.3736,3.101135,-26.82776,3.80513,0.4131166,0.4700669,1.0,0.04577637,-0.06280518,0.9969635,32.13513,5.250412,-27.28893,3.901657,0.5112861,0.4035842,0.03094959,1.17619,-0.3107705,-0.04752033,-0.2070625,-0.01111845,0.281842,-13.02969,29.89
3,0.03672791,-0.05363464,0.997879,1.0,0.0296936,-0.04573059,0.9985046,-29.37386,3.101135,-26.81384,3.809418,0.4131647,0.4702145,1.0,0.04521179,-0.06317139,0.9969635,32.13477,5.249619,-27.28574,3.925491,0.5113941,0.4036568,0.03089368,1.176196,-0.3107842,-0.04767999,-0.2074516,-0.01132297,0.281842,-13.02969,29.89
3,0.03672791,-0.05363464,0.997879,1.0,0.0296936,-0.04573059,0.9985046,-29.37386,3.101135,-26.81384,3.809418,0.4131647,0.4702145,1.0,0.04521179,-0.06317139,0.9969635,32.13477,5.249619,-27.28574,3.925491,0.5113941,0.4036568,0.03089368,1.176196,-0.3107842,-0.04767999,-0.2074516,-0.01132297,0.281842,-13.02969,29.89
3,0.07466125,-0.07910156,0.9940643,1.0,0.06546021,-0.07569885,0.9949646,-29.05774,2.896286,-26.66626,3.766159,0.3967472,0.4806456,1.0,0.08851624,-0.08421326,0.9925079,32.31567,5.054321,-27.12465,3.976059,0.4979026,0.4125561,0.03087032,1.176201,-0.3108926,-0.04792235,-0.2082683,-0.01159796,0.281842,8.400536,29.89
3,0.07655334,-0.08061218,0.9937897,1.0,0.06884766,-0.07958984,0.9944458,-29.02892,2.827469,-26.62694,3.881927,0.3952436,0.4832917,1.0,0.1078339,-0.0847168,0.9905396,32.36241,5.010925,-27.13138,4.01152,0.4930699,0.4142204,0.0307188,1.1762,-0.3109334,-0.04793153,-0.2090419,-0.01161145,0.281842,8.400536,29.89
3,0.07655334,-0.08061218,0.9937897,1.0,0.06884766,-0.07958984,0.9944458,-29.02892,2.827469,-26.62694,3.881927,0.3952436,0.4832917,1.0,0.1078339,-0.0847168,0.9905396,32.36241,5.010925,-27.13138,4.01152,0.4930699,0.4142204,0.0307188,1.1762,-0.3109334,-0.04793153,-0.2090419,-0.01161145,0.281842,8.400536,29.89
3,0.08126831,-0.08123779,0.9933624,1.0,0.07447815,-0.07489014,0.9944,-29.05827,2.826157,-26.63847,3.946655,0.3952897,0.4826827,1.0,0.09837341,-0.09721375,0.990387,32.36806,5.032593,-27.26231,4.007095,0.4944864,0.4167178,0.03068268,1.176132,-0.310991,-0.04788145,-0.2093795,-0.011655,0.281842,8.400536,29.89
3,0.07191467,-0.08117676,0.9940948,1.0,0.06530762,-0.07646179,0.9949188,-29.08406,2.854416,-26.69359,3.857376,0.3976266,0.4824468,1.0,0.09469604,-0.09747314,0.9907074,32.36211,5.018158,-27.21483,3.983582,0.4952919,0.4168354,0.03053081,1.176168,-0.3109889,-0.04786184,-0.2100615,-0.01172892,0.281842,8.400536,29.89
3,0.07191467,-0.08117676,0.9940948,1.0,0.06530762,-0.07646179,0.9949188,-29.08406,2.854416,-26.69359,3.857376,0.3976266,0.4824468,1.0,0.09469604,-0.09747314,0.9907074,32.36211,5.018158,-27.21483,3.983582,0.4952919,0.4168354,0.03053081,1.176168,-0.3109889,-0.04786184,-0.2100615,-0.01172892,0.281842,8.400536,29.89
3,0.07054138,-0.08691406,0.9937134,1.0,0.06677246,-0.08508301,0.9941254,-29.09149,2.854416,-26.69359,3.866989,0.3976266,0.48392,1.0,0.09242249,-0.09750366,0.990921,32.33588,4.963211,-27.04224,3.972519,0.4965259,0.4172252,0.03049421,1.176176,-0.3110632,-0.04777053,-0.2105911,-0.01191921,0.281842,8.400536,29.89
3,0.06858826,-0.08856201,0.9936981,1.0,0.06407166,-0.08528137,0.994278,-29.09531,2.834915,-26.61569,3.887009,0.398243,0.48392,1.0,0.08630371,-0.1014252,0.9910889,32.33611,4.962372,-27.0231,3.994247,0.4975462,0.4177667,0.03040826,1.176202,-0.3110901,-0.04774401,-0.2111488,-0.01215688,0.281842,8.400536,29.89
3,0.06858826,-0.08856201,0.9936981,1.0,0.06407166,-0.08528137,0.994278,-29.09531,2.834915,-26.61569,3.887009,0.398243,0.48392,1.0,0.08630371,-0.1014252,0.9910889,32.33611,4.962372,-27.0231,3.994247,0.4975462,0.4177667,0.03040826,1.176202,-0.3110901,-0.04774401,-0.2111488,-0.01215688,0.281842,8.400536,29.89
3,0.06777954,-0.08670044,0.9939117,1.0,0.06425476,-0.08480835,0.9943085,-29.09703,2.836197,-26.62868,3.908661,0.3982661,0.48392,1.0,0.08662415,-0.09674072,0.9915161,32.33194,4.965652,-27.04413,3.922012,0.4976206,0.4170034,0.03032458,1.176182,-0.311078,-0.0476068,-0.2121524,-0.01251563,0.281842,8.400536,29.89
3,0.06755066,-0.08699036,0.9939117,1.0,0.06324768,-0.08428955,0.9944153,-29.09985,2.835556,-26.62219,3.910919,0.3985292,0.4838043,1.0,0.08596802,-0.09857178,0.991394,32.33063,4.965729,-27.05049,3.924988,0.4977759,0.4173686,0.03033233,1.176217,-0.3110619,-0.04760132,-0.212798,-0.01276729,0.281842,8.400536,29.89
3,0.06549072,-0.09242249,0.9935608,1.0,0.05342102,-0.0879364,0.9946899,-29.15189,2.805313,-26.52788,3.977432,0.4019301,0.4846131,1.0,0.07952881,-0.09762573,0.9920349,32.3242,4.974457,-27.1031,4.030563,0.4991118,0.417381,0.03016412,1.1762,-0.3111302,-0.04734188,-0.2141425,-0.01324224,0.281842,8.400536,29.89
3,0.06549072,-0.09242249,0.9935608,1.0,0.05342102,-0.0879364,0.9946899,-29.15189,2.805313,-26.52788,3.977432,0.4019301,0.4846131,1.0,0.07952881,-0.09762573,0.9920349,32.3242,4.974457,-27.1031,4.030563,0.4991118,0.417381,0.03016412,1.1762,-0.3111302,-0.04734188,-0.2141425,-0.01324224,0.281842,8.400536,29.89
3,0.07263184,-0.09811401,0.9925079,1.0,0.06204224,-0.09341431,0.9936829,-29.19547,2.858749,-26.57744,3.916946,0.4019301,0.4842182,1.0,0.08087158,-0.1017609,0.9915009,32.30574,4.935272,-26.95523,4.072281,0.4994906,0.4181737,0.03012311,1.17617,-0.3111292,-0.0472035,-0.2149177,-0.01339218,0.281842,8.400536,29.89
3,0.06578064,-0.09602356,0.9931946,1.0,0.06147766,-0.09411621,0.9936523,-29.21127,2.850967,-26.53493,3.917953,0.4025716,0.4842182,1.0,0.07798767,-0.1013947,0.9917755,32.29031,4.901581,-26.83662,4.096008,0.5004734,0.4182515,0.02999699,1.176055,-0.3111379,-0.04666552,-0.2161505,-0.01382416,0.281842,13.49119,29.89
3,0.06578064,-0.09602356,0.9931946,1.0,0.06147766,-0.09411621,0.9936523,-29.21127,2.850967,-26.53493,3.917953,0.4025716,0.4842182,1.0,0.07798767,-0.1013947,0.9917755,32.29031,4.901581,-26.83662,4.096008,0.5004734,0.4182515,0.02999699,1.176055,-0.3111379,-0.04666552,-0.2161505,-0.01382416,0.281842,13.49119,29.89
3,0.0597229,-0.1174164,0.991272,1.0,0.05465698,-0.1173553,0.9915771,-29.22002,2.592865,-26.38506,4.020859,0.4039961,0.4953826,1.0,0.07577515,-0.11763,0.9901581,32.1673,4.658112,-26.84531,4.15683,0.5049604,0.4293379,0.02997959,1.17597,-0.3111616,-0.04643135,-0.2167114,-0.01398012,0.281842,13.49119,29.89
3,0.03961182,-0.2298737,0.9723969,1.0,0.03405762,-0.2271423,0.9732513,-29.25357,2.157944,-26.74472,4.011795,0.4080387,0.5319449,1.0,0.06100464,-0.2403564,0.96875,31.86653,4.173355,-27.20926,4.154388,0.5175619,0.4703327,0.02988732,1.175882,-0.3111851,-0.04578597,-0.2182014,-0.01448065,0.281842,13.49119,29.89
3,0.03961182,-0.2298737,0.9723969,1.0,0.03405762,-0.2271423,0.9732513,-29.25357,2.157944,-26.74472,4.011795,0.4080387,0.5319449,1.0,0.06100464,-0.2403564,0.96875,31.86653,4.173355,-27.20926,4.154388,0.5175619,0.4703327,0.02988732,1.175882,-0.3111851,-0.04578597,-0.2182014,-0.01448065,0.281842,13.49119,29.89
3,0.03961182,-0.2298737,0.9723969,1.0,0.03405762,-0.2271423,0.9732513,-29.25357,2.157944,-26.74472,4.011795,0.4080387,0.5319449,1.0,0.06100464,-0.2403564,0.96875,31.86653,4.173355,-27.20926,4.154388,0.5175619,0.4703327,0.02980947,1.175843,-0.311177,-0.04552879,-0.2190735,-0.01473162,0.281842,13.49119,29.89
3,0.03961182,-0.2298737,0.9723969,1.0,0.03405762,-0.2271423,0.9732513,-29.25357,2.157944,-26.74472,4.011795,0.4080387,0.5319449,1.0,0.06100464,-0.2403564,0.96875,31.86653,4.173355,-27.20926,4.154388,0.5175619,0.4703327,0.02954185,1.175781,-0.3111628,-0.04472724,-0.2208523,-0.01517261,0.281842,13.49119,29.89
3,0.03961182,-0.2298737,0.9723969,1.0,0.03405762,-0.2271423,0.9732513,-29.25357,2.157944,-26.74472,4.011795,0.4080387,0.5319449,1.0,0.06100464,-0.2403564,0.96875,31.86653,4.173355,-27.20926,4.154388,0.5175619,0.4703327,0.02954185,1.175781,-0.3111628,-0.04472724,-0.2208523,-0.01517261,0.281842,13.49119,29.89
3,0.03961182,-0.2298737,0.9723969,1.0,0.03405762,-0.2271423,0.9732513,-29.25357,2.157944,-26.74472,4.011795,0.4080387,0.5319449,1.0,0.06100464,-0.2403564,0.96875,31.86653,4.173355,-27.20926,4.154388,0.5175619,0.4703327,0.02944398,1.17569,-0.3111538,-0.04431573,-0.2218441,-0.01527099,0.281842,13.49119,29.89
3,0.0002288818,-0.3465576,0.9380188,1.0,-0.001541138,-0.3425751,0.9394836,-29.59229,1.824783,-26.8535,3.849091,0.4248532,0.5647361,1.0,0.01062012,-0.3696594,0.9290924,31.6291,3.806076,-27.33922,3.97403,0.5339933,0.5074131,0.02922595,1.175544,-0.3111625,-0.04330314,-0.223566,-0.01554468,0.281842,13.49119,29.89
3,0.0002288818,-0.3465576,0.9380188,1.0,-0.001541138,-0.3425751,0.9394836,-29.59229,1.824783,-26.8535,3.849091,0.4248532,0.5647361,1.0,0.01062012,-0.3696594,0.9290924,31.6291,3.806076,-27.33922,3.97403,0.5339933,0.5074131,0.02922595,1.175544,-0.3111625,-0.04330314,-0.223566,-0.01554468,0.281842,13.49119,29.89
3,0.005752563,-0.3462524,0.9381104,0.715046,0.002716064,-0.3395081,0.9405823,-29.63913,1.842972,-26.85101,3.855911,0.4257292,0.5635601,0.9810302,0.01293945,-0.3620605,0.9320526,31.62944,3.800644,-27.33681,4.049011,0.5335987,0.5061444,0.02912724,1.175433,-0.3110592,-0.04284164,-0.2245264,-0.01563072,0.281842,13.49119,29.89
3,0.0002288818,-0.348999,0.9371185,0.7227997,-0.004730225,-0.3419189,0.9397125,-29.67575,1.85434,-26.82962,3.850662,0.4281818,0.5634299,0.9773576,0.008483887,-0.3606873,0.9326324,31.63188,3.800644,-27.33476,4.015167,0.5342532,0.5058824,0.02896762,1.175174,-0.3110586,-0.0417609,-0.2263789,-0.01580799,0.281842,13.49119,29.89
3,0.0002288818,-0.348999,0.9371185,0.7227997,-0.004730225,-0.3419189,0.9397125,-29.67575,1.85434,-26.82962,3.850662,0.4281818,0.5634299,0.9773576,0.008483887,-0.3606873,0.9326324,31.63188,3.800644,-27.33476,4.015167,0.5342532,0.5058824,0.02896762,1.175174,-0.3110586,-0.0417609,-0.2263789,-0.01580799,0.281842,13.49119,29.89
3,0.0002288818,-0.348999,0.9371185,0.7227997,-0.004730225,-0.3419189,0.9397125,-29.67575,1.85434,-26.82962,3.850662,0.4281818,0.5634299,0.9773576,0.008483887,-0.3606873,0.9326324,31.63188,3.800644,-27.33476,4.015167,0.5342532,0.5058824,0.02886999,1.175056,-0.3110404,-0.04122147,-0.2271947,-0.01591977,0.281842,13.49119,29.89
3,0.0002288818,-0.348999,0.9371185,0.7227997,-0.004730225,-0.3419189,0.9397125,-29.67575,1.85434,-26.82962,3.850662,0.4281818,0.5634299,0.9773576,0.008483887,-0.3606873,0.9326324,31.63188,3.800644,-27.33476,4.015167,0.5342532,0.5058824,0.02878785,1.174948,-0.3110114,-0.04056869,-0.2281414,-0.01600146,0.281842,13.49119,29.89
3,0.0002288818,-0.348999,0.9371185,0.7227997,-0.004730225,-0.3419189,0.9397125,-29.67575,1.85434,-26.82962,3.850662,0.4281818,0.5634299,0.9773576,0.008483887,-0.3606873,0.9326324,31.63188,3.800644,-27.33476,4.015167,0.5342532,0.5058824,0.02860701,1.174646,-0.3109448,-0.0391724,-0.2298694,-0.01608505,0.281842,9.595039,29.89
3,0.0002288818,-0.348999,0.9371185,0.7227997,-0.004730225,-0.3419189,0.9397125,-29.67575,1.85434,-26.82962,3.850662,0.4281818,0.5634299,0.9773576,0.008483887,-0.3606873,0.9326324,31.63188,3.800644,-27.33476,4.015167,0.5342532,0.5058824,0.02860701,1.174646,-0.3109448,-0.0391724,-0.2298694,-0.01608505,0.281842,9.096886,29.89
3,-0.01094055,-0.3457336,0.9382629,0.7141716,-0.01789856,-0.3448792,0.9384613,-29.78331,1.881485,-26.82468,3.756317,0.4339467,0.5630826,0.9869815,-0.003341675,-0.3466339,0.9379883,31.59322,3.813828,-27.31451,4.03096,0.5375432,0.5026689,0.02855074,1.174518,-0.3108999,-0.03835883,-0.2306685,-0.01601868,0.281842,9.096886,29.89
3,-0.009460449,-0.3461456,0.9381256,0.7368015,-0.01620483,-0.3464355,0.9379272,-29.83383,1.888092,-26.81563,3.911194,0.435344,0.5630409,0.9776691,-0.003341675,-0.345871,0.9382629,31.56287,3.817078,-27.30765,4.070145,0.5385783,0.5023453,0.02846873,1.174337,-0.3108546,-0.03751731,-0.2313485,-0.01594735,0.281842,9.096886,29.89
3,-0.009460449,-0.3461456,0.9381256,0.7368015,-0.01620483,-0.3464355,0.9379272,-29.83383,1.888092,-26.81563,3.911194,0.435344,0.5630409,0.9776691,-0.003341675,-0.345871,0.9382629,31.56287,3.817078,-27.30765,4.070145,0.5385783,0.5023453,0.02846873,1.174337,-0.3108546,-0.03751731,-0.2313485,-0.01594735,0.281842,9.096886,29.89
3,-0.007278442,-0.344574,0.9387207,0.7271304,-0.01361084,-0.3437042,0.9389648,-29.84628,1.889801,-26.81104,3.880951,0.435344,0.5624467,0.9799771,-0.001403809,-0.3453674,0.9384613,31.55338,3.819565,-27.30554,4.107208,0.5385783,0.502138,0.02827239,1.174008,-0.3107064,-0.03571261,-0.2326319,-0.01573713,0.281842,9.096886,29.89
3,-0.01280212,-0.342453,0.9394379,0.739855,-0.01980591,-0.3417206,0.9395905,-29.85226,1.891815,-26.81027,3.891708,0.4365612,0.5620186,0.9723532,-0.006057739,-0.3431396,0.9392548,31.54691,3.821884,-27.30421,4.1138,0.5395751,0.5016401,0.02827239,1.174008,-0.3107064,-0.03571261,-0.2326319,-0.01573713,0.281842,9.096886,29.89
3,-0.01280212,-0.342453,0.9394379,0.739855,-0.01980591,-0.3417206,0.9395905,-29.85226,1.891815,-26.81027,3.891708,0.4365612,0.5620186,0.9723532,-0.006057739,-0.3431396,0.9392548,31.54691,3.821884,-27.30421,4.1138,0.5395751,0.5016401,0.02827239,1.174008,-0.3107064,-0.03571261,-0.2326319,-0.01573713,0.281842,9.096886,29.89
3,-0.01422119,-0.3406067,0.940094,0.739855,-0.02017212,-0.3382568,0.9408264,-29.85458,1.892471,-26.81007,3.887466,0.4367043,0.5613679,0.9723532,-0.008483887,-0.3428497,0.9393463,31.54305,3.822189,-27.30377,4.127869,0.5401108,0.5015768,0.02818215,1.173581,-0.3106505,-0.03358753,-0.2340442,-0.01589588,0.281842,9.096886,29.89
3,-0.01422119,-0.3406067,0.940094,0.739855,-0.02017212,-0.3382568,0.9408264,-29.85458,1.892471,-26.81007,3.887466,0.4367043,0.5613679,0.9723532,-0.008483887,-0.3428497,0.9393463,31.54305,3.822189,-27.30377,4.127869,0.5401108,0.5015768,0.02806222,1.173176,-0.3105758,-0.03129074,-0.2356898,-0.01594829,0.281842,9.096886,29.89
3,-0.01422119,-0.3406067,0.940094,0.739855,-0.02017212,-0.3382568,0.9408264,-29.85458,1.892471,-26.81007,3.887466,0.4367043,0.5613679,0.9723532,-0.008483887,-0.3428497,0.9393463,31.54305,3.822189,-27.30377,4.127869,0.5401108,0.5015768,0.02806222,1.173176,-0.3105758,-0.03129074,-0.2356898,-0.01594829,0.281842,9.096886,29.89
3,-0.01422119,-0.3406067,0.940094,0.739855,-0.02017212,-0.3382568,0.9408264,-29.85458,1.892471,-26.81007,3.887466,0.4367043,0.5613679,0.9723532,-0.008483887,-0.3428497,0.9393463,31.54305,3.822189,-27.30377,4.127869,0.5401108,0.5015768,0.02786899,1.172694,-0.3105305,-0.02871638,-0.2373129,-0.0162981,0.281842,9.096886,29.91
3,-0.01422119,-0.3406067,0.940094,0.739855,-0.02017212,-0.3382568,0.9408264,-29.85458,1.892471,-26.81007,3.887466,0.4367043,0.5613679,0.9723532,-0.008483887,-0.3428497,0.9393463,31.54305,3.822189,-27.30377,4.127869,0.5401108,0.5015768,0.02786899,1.172694,-0.3105305,-0.02871638,-0.2373129,-0.0162981,0.281842,9.096886,29.91
3,-0.02545166,-0.3064423,0.9515381,0.7221681,-0.03659058,-0.2822571,0.9586334,-29.90463,1.93132,-26.77666,4.04718,0.4411619,0.5497171,0.9777194,-0.01539612,-0.3280334,0.9445343,31.51042,3.878632,-27.26379,4.084702,0.542366,0.4966195,0.0278002,1.172129,-0.3104442,-0.02567571,-0.2385125,-0.01613408,0.281842,9.096886,29.91
3,-0.02545166,-0.3064423,0.9515381,0.7221681,-0.03659058,-0.2822571,0.9586334,-29.90463,1.93132,-26.77666,4.04718,0.4411619,0.5497171,0.9777194,-0.01539612,-0.3280334,0.9445343,31.51042,3.878632,-27.26379,4.084702,0.542366,0.4966195,0.0278002,1.172129,-0.3104442,-0.02567571,-0.2385125,-0.01613408,0.281842,9.096886,29.91
3,-0.02816772,-0.3031311,0.9525146,0.7341583,-0.03640747,-0.299057,0.9535217,-29.91689,1.93898,-26.77589,3.948914,0.4415247,0.5524648,0.9623111,-0.02070618,-0.3068085,0.9515381,31.50346,3.877243,-27.25537,4.277557,0.543486,0.4927107,0.02766085,1.171383,-0.3103249,-0.02180177,-0.2396335,-0.01565454,0.281842,0.8849716,29.91
3,-0.02816772,-0.3031311,0.9525146,0.7341583,-0.03640747,-0.299057,0.9535217,-29.91689,1.93898,-26.77589,3.948914,0.4415247,0.5524648,0.9623111,-0.02070618,-0.3068085,0.9515381,31.50346,3.877243,-27.25537,4.277557,0.543486,0.4927107,0.02747476,1.170281,-0.3102207,-0.016741,-0.2404862,-0.01503399,0.281842,0.8849716,29.91
3,-0.02816772,-0.3031311,0.9525146,0.7341583,-0.03640747,-0.299057,0.9535217,-29.91689,1.93898,-26.77589,3.948914,0.4415247,0.5524648,0.9623111,-0.02070618,-0.3068085,0.9515381,31.50346,3.877243,-27.25537,4.277557,0.543486,0.4927107,0.02747476,1.170281,-0.3102207,-0.016741,-0.2404862,-0.01503399,0.281842,0.8849716,29.91
3,-0.02816772,-0.3031311,0.9525146,0.7341583,-0.03640747,-0.299057,0.9535217,-29.91689,1.93898,-26.77589,3.948914,0.4415247,0.5524648,0.9623111,-0.02070618,-0.3068085,0.9515381,31.50346,3.877243,-27.25537,4.277557,0.543486,0.4927107,0.02724218,1.168917,-0.3101487,-0.01040681,-0.2412195,-0.01364351,0.281842,0.8849716,29.91
3,-0.02816772,-0.3031311,0.9525146,0.7341583,-0.03640747,-0.299057,0.9535217,-29.91689,1.93898,-26.77589,3.948914,0.4415247,0.5524648,0.9623111,-0.02070618,-0.3068085,0.9515381,31.50346,3.877243,-27.25537,4.277557,0.543486,0.4927107,0.02724218,1.168917,-0.3101487,-0.01040681,-0.2412195,-0.01364351,0.281842,0.8849716,29.91
3,-0.01158142,-0.3935089,0.9192352,0.7427477,-0.01782227,-0.3857422,0.9224243,-29.69728,1.60466,-26.92741,3.950058,0.4308617,0.5807465,0.9765121,-0.00567627,-0.4008179,0.9161224,31.44733,3.542709,-27.42143,4.22464,0.5429311,0.522872,0.02693272,1.167269,-0.3100383,-0.003027245,-0.2422224,-0.01142189,0.281842,0.8849716,29.91
3,-0.01158142,-0.3935089,0.9192352,0.7427477,-0.01782227,-0.3857422,0.9224243,-29.69728,1.60466,-26.92741,3.950058,0.4308617,0.5807465,0.9765121,-0.00567627,-0.4008179,0.9161224,31.44733,3.542709,-27.42143,4.22464,0.5429311,0.522872,0.02693272,1.167269,-0.3100383,-0.003027245,-0.2422224,-0.01142189,0.281842,0.8849716,29.91
3,0.04614258,-0.5009003,0.8642578,0.5804227,0.04548645,-0.5027924,0.863205,-29.17094,0.9927216,-27.29552,4.015411,0.4021153,0.6271485,0.9112336,0.04849243,-0.4940491,0.8680725,31.65157,2.717575,-27.90038,4.016922,0.526935,0.5736302,0.02649915,1.165176,-0.3099496,0.005982691,-0.2435898,-0.00813212,0.281842,0.8849716,29.91
3,0.04614258,-0.5009003,0.8642578,0.5804227,0.04548645,-0.5027924,0.863205,-29.17094,0.9927216,-27.29552,4.015411,0.4021153,0.6271485,0.9112336,0.04849243,-0.4940491,0.8680725,31.65157,2.717575,-27.90038,4.016922,0.526935,0.5736302,0.02649915,1.165176,-0.3099496,0.005982691,-0.2435898,-0.00813212,0.281842,0.8849716,29.91
3,0.05734253,-0.5411682,0.8389435,0.4595585,0.07711792,-0.5224152,0.8491821,-29.17979,0.7497559,-27.41357,3.876053,0.3969519,0.6406715,0.7461661,0.05180359,-0.5463104,0.835968,31.88403,2.878464,-27.86107,4.198837,0.5184284,0.5780537,0.02598333,1.162788,-0.3098619,0.01661413,-0.245213,-0.00444175,0.281842,0.8849716,29.91
3,0.05734253,-0.5411682,0.8389435,0.4595585,0.07711792,-0.5224152,0.8491821,-29.17979,0.7497559,-27.41357,3.876053,0.3969519,0.6406715,0.7461661,0.05180359,-0.5463104,0.835968,31.88403,2.878464,-27.86107,4.198837,0.5184284,0.5780537,0.02598333,1.162788,-0.3098619,0.01661413,-0.245213,-0.00444175,0.281842,0.8849716,29.91
3,0.04135132,-0.5347748,0.8439636,0.4360993,0.0758667,-0.5511475,0.8309326,-29.22606,1.013474,-27.32375,3.906082,0.398781,0.6366093,0.7471602,0.02494812,-0.5267029,0.8496704,31.98575,2.893372,-27.80286,4.059921,0.5193866,0.5730485,0.02542877,1.160319,-0.309811,0.02724794,-0.2467997,-0.0009689031,0.281842,0.8849716,29.91
3,0.04135132,-0.5347748,0.8439636,0.4360993,0.0758667,-0.5511475,0.8309326,-29.22606,1.013474,-27.32375,3.906082,0.398781,0.6366093,0.7471602,0.02494812,-0.5267029,0.8496704,31.98575,2.893372,-27.80286,4.059921,0.5193866,0.5730485,0.02542877,1.160319,-0.309811,0.02724794,-0.2467997,-0.0009689031,0.281842,0.8849716,29.91
3,0.02960205,-0.5273285,0.8491364,0.4293676,0.06277466,-0.4850464,0.8722229,-29.25665,0.9528503,-27.27739,3.950211,0.4022118,0.6249201,0.7573947,0.01037598,-0.5509644,0.8344574,32.01529,3.125031,-27.70789,3.90625,0.5208171,0.5692242,0.02458382,1.157951,-0.3095287,0.03723625,-0.2488853,0.002200654,0.281842,0.8849716,29.91
3,0.02960205,-0.5273285,0.8491364,0.4293676,0.06277466,-0.4850464,0.8722229,-29.25665,0.9528503,-27.27739,3.950211,0.4022118,0.6249201,0.7573947,0.01037598,-0.5509644,0.8344574,32.01529,3.125031,-27.70789,3.90625,0.5208171,0.5692242,0.02458382,1.157951,-0.3095287,0.03723625,-0.2488853,0.002200654,0.281842,0.8849716,29.91
3,0.02445984,-0.483963,0.8747406,0.4535732,0.03851318,-0.4300995,0.901947,-29.31212,1.178024,-27.1478,4.294891,0.408382,0.6052763,0.7851226,0.01657104,-0.5132751,0.8580475,31.89833,3.17453,-27.68884,3.896881,0.5238004,0.5597733,0.02359211,1.155619,-0.3091124,0.04687564,-0.2513721,0.005543121,0.281842,0.8849716,29.91
3,0.02445984,-0.483963,0.8747406,0.4535732,0.03851318,-0.4300995,0.901947,-29.31212,1.178024,-27.1478,4.294891,0.408382,0.6052763,0.7851226,0.01657104,-0.5132751,0.8580475,31.89833,3.17453,-27.68884,3.896881,0.5238004,0.5597733,0.02359211,1.155619,-0.3091124,0.04687564,-0.2513721,0.005543121,0.281842,0.8849716,29.91
3,0.03959656,-0.4825134,0.8749847,0.4627073,0.04647827,-0.443985,0.8948212,-29.34869,1.333206,-27.10699,4.12677,0.4083363,0.6023859,0.8204504,0.03593445,-0.5024261,0.8638611,31.89708,3.302612,-27.61691,3.889481,0.5205925,0.5525741,0.02258575,1.153085,-0.3084512,0.05675889,-0.2535869,0.009408129,0.281842,0.8849716,29.91
3,0.03959656,-0.4825134,0.8749847,0.4627073,0.04647827,-0.443985,0.8948212,-29.34869,1.333206,-27.10699,4.12677,0.4083363,0.6023859,0.8204504,0.03593445,-0.5024261,0.8638611,31.89708,3.302612,-27.61691,3.889481,0.5205925,0.5525741,0.02258575,1.153085,-0.3084512,0.05675889,-0.2535869,0.009408129,0.281842,0.8849716,29.91
3,0.03959656,-0.4825134,0.8749847,0.4627073,0.04647827,-0.443985,0.8948212,-29.34869,1.333206,-27.10699,4.12677,0.4083363,0.6023859,0.8204504,0.03593445,-0.5024261,0.8638611,31.89708,3.302612,-27.61691,3.889481,0.5205925,0.5525741,0.02158129,1.150334,-0.3076445,0.06742857,-0.2547183,0.01360194,0.281842,-13.87518,29.91
3,0.03959656,-0.4825134,0.8749847,0.4627073,0.04647827,-0.443985,0.8948212,-29.34869,1.333206,-27.10699,4.12677,0.4083363,0.6023859,0.8204504,0.03593445,-0.5024261,0.8638611,31.89708,3.302612,-27.61691,3.889481,0.5205925,0.5525741,0.02158129,1.150334,-0.3076445,0.06742857,-0.2547183,0.01360194,0.281842,-13.87518,29.91
3,0.03959656,-0.4825134,0.8749847,0.4627073,0.04647827,-0.443985,0.8948212,-29.34869,1.333206,-27.10699,4.12677,0.4083363,0.6023859,0.8204504,0.03593445,-0.5024261,0.8638611,31.89708,3.302612,-27.61691,3.889481,0.5205925,0.5525741,0.02062631,1.147516,-0.3065715,0.07872836,-0.2547066,0.0175055,0.281842,-13.87518,29.91
3,0.03959656,-0.4825134,0.8749847,0.4627073,0.04647827,-0.443985,0.8948212,-29.34869,1.333206,-27.10699,4.12677,0.4083363,0.6023859,0.8204504,0.03593445,-0.5024261,0.8638611,31.89708,3.302612,-27.61691,3.889481,0.5205925,0.5525741,0.02062631,1.147516,-0.3065715,0.07872836,-0.2547066,0.0175055,0.281842,-13.87518,29.91
4,0.03561401,-0.4731598,0.8802338,0.4801832,0.04858398,-0.4365387,0.8983612,-29.36555,1.35968,-27.0883,4.128326,0.4085953,0.5999022,0.8170581,0.02792358,-0.4943695,0.8687897,31.86853,3.379227,-27.5643,3.870239,0.5229101,0.5478706,0.01988876,1.144506,-0.3051949,0.09059016,-0.2529203,0.02044304,0.281842,-13.87518,29.91
4,0.03561401,-0.4731598,0.8802338,0.4801832,0.04858398,-0.4365387,0.8983612,-29.36555,1.35968,-27.0883,4.128326,0.4085953,0.5999022,0.8170581,0.02792358,-0.4943695,0.8687897,31.86853,3.379227,-27.5643,3.870239,0.5229101,0.5478706,0.01988876,1.144506,-0.3051949,0.09059016,-0.2529203,0.02044304,0.281842,-13.87518,29.91
4,0.03152466,-0.4696503,0.8822784,0.4801832,0.0508728,-0.4265442,0.9030304,-29.38902,1.381805,-27.06754,4.125473,0.4090519,0.5970703,0.8170581,0.01931763,-0.4960938,0.868042,31.87352,3.350876,-27.58562,3.479416,0.5241463,0.5496504,0.01941276,1.141452,-0.3035496,0.1032559,-0.2493512,0.02292193,0.281842,-13.87518,29.91
4,0.03152466,-0.4696503,0.8822784,0.4801832,0.0508728,-0.4265442,0.9030304,-29.38902,1.381805,-27.06754,4.125473,0.4090519,0.5970703,0.8170581,0.01931763,-0.4960938,0.868042,31.87352,3.350876,-27.58562,3.479416,0.5241463,0.5496504,0.01924956,1.13818,-0.3016368,0.1164161,-0.2438803,0.02503811,0.2844042,-13.87518,29.91
4,0.03152466,-0.4696503,0.8822784,0.4801832,0.0508728,-0.4265442,0.9030304,-29.38902,1.381805,-27.06754,4.125473,0.4090519,0.5970703,0.8170581,0.01931763,-0.4960938,0.868042,31.87352,3.350876,-27.58562,3.479416,0.5241463,0.5496504,0.01924956,1.13818,-0.3016368,0.1164161,-0.2438803,0.02503811,0.2844042,-13.87518,29.91
4,0.03152466,-0.4696503,0.8822784,0.4801832,0.0508728,-0.4265442,0.9030304,-29.38902,1.381805,-27.06754,4.125473,0.4090519,0.5970703,0.8170581,0.01931763,-0.4960938,0.868042,31.87352,3.350876,-27.58562,3.479416,0.5241463,0.5496504,0.01924956,1.13818,-0.3016368,0.1164161,-0.2438803,0.02503811,0.2844042,-13.87518,29.91
4,-0.1043549,-0.4776917,0.8722992,0.5245024,-0.09130859,-0.4610901,0.8826294,-30.64479,1.238098,-27.24559,4.142334,0.4744112,0.6107849,0.8048964,-0.1163635,-0.4927979,0.8623199,30.37955,3.408325,-27.67374,3.991791,0.5983609,0.5483654,0.01929367,1.135027,-0.2995952,0.1293304,-0.236702,0.0268041,0.2844042,-13.87518,29.91
4,-0.1043549,-0.4776917,0.8722992,0.5245024,-0.09130859,-0.4610901,0.8826294,-30.64479,1.238098,-27.24559,4.142334,0.4744112,0.6107849,0.8048964,-0.1163635,-0.4927979,0.8623199,30.37955,3.408325,-27.67374,3.991791,0.5983609,0.5483654,0.01929367,1.135027,-0.2995952,0.1293304,-0.236702,0.0268041,0.2844042,-13.87518,29.91
4,-0.2354889,-0.4819183,0.8439636,0.6972346,-0.2408142,-0.4765778,0.8454895,-31.20064,1.169342,-27.44058,4.049561,0.5179129,0.6199417,0.7073286,-0.2337799,-0.4836273,0.8434601,29.60814,3.323502,-27.91454,4.406097,0.6451094,0.5530127,0.01955807,1.132078,-0.2973917,0.1411809,-0.2282715,0.02851511,0.2844042,-13.87518,29.91
4,-0.2354889,-0.4819183,0.8439636,0.6972346,-0.2408142,-0.4765778,0.8454895,-31.20064,1.169342,-27.44058,4.049561,0.5179129,0.6199417,0.7073286,-0.2337799,-0.4836273,0.8434601,29.60814,3.323502,-27.91454,4.406097,0.6451094,0.5530127,0.01955807,1.132078,-0.2973917,0.1411809,-0.2282715,0.02851511,0.2844042,-13.87518,29.91
4,-0.2715607,-0.4796906,0.8343353,0.7976074,-0.2694397,-0.4537354,0.849411,-31.36143,1.334808,-27.40236,4.2229,0.5280167,0.6099437,0.748893,-0.2736816,-0.5088501,0.8161774,29.61768,3.591446,-27.85106,4.363708,0.6516837,0.5489565,0.01985526,1.129585,-0.2952385,0.1510261,-0.2190634,0.03062165,0.2844042,-9.955605,29.91
4,-0.2715607,-0.4796906,0.8343353,0.7976074,-0.2694397,-0.4537354,0.849411,-31.36143,1.334808,-27.40236,4.2229,0.5280167,0.6099437,0.748893,-0.2736816,-0.5088501,0.8161774,29.61768,3.591446,-27.85106,4.363708,0.6516837,0.5489565,0.01985526,1.129585,-0.2952385,0.1510261,-0.2190634,0.03062165,0.2844042,-9.955605,29.91
4,-0.2498932,-0.4538574,0.8553009,0.7808842,-0.2533264,-0.4560547,0.8531189,-31.20361,1.557083,-27.26059,3.964584,0.5201339,0.6013402,0.7622086,-0.2444458,-0.4503632,0.8587189,29.73625,3.696777,-27.73183,4.369766,0.6422054,0.5321363,0.02002108,1.128561,-0.2942003,0.1551724,-0.2144525,0.03192903,0.2844042,-9.955605,29.91
4,-0.2498932,-0.4538574,0.8553009,0.7808842,-0.2533264,-0.4560547,0.8531189,-31.20361,1.557083,-27.26059,3.964584,0.5201339,0.6013402,0.7622086,-0.2444458,-0.4503632,0.8587189,29.73625,3.696777,-27.73183,4.369766,0.6422054,0.5321363,0.02002108,1.128561,-0.2942003,0.1551724,-0.2144525,0.03192903,0.2844042,-9.955605,29.91
4,-0.2462006,-0.4409485,0.8630981,0.7815744,-0.2535858,-0.4307404,0.8661041,-31.13777,1.690811,-27.19765,4.04686,0.5179143,0.591304,0.7824428,-0.2387238,-0.4511566,0.8599091,29.85449,3.813904,-27.64246,4.205841,0.6371014,0.5274454,0.02037692,1.126825,-0.2922204,0.1618117,-0.2058622,0.03452174,0.2844042,-9.955605,29.91
4,-0.2160339,-0.4237061,0.8796539,0.7994327,-0.2173767,-0.4206848,0.8807678,-31.06982,1.733658,-27.14581,4.054764,0.5096017,0.5868862,0.8157872,-0.2142792,-0.4276123,0.8781891,29.98819,3.884201,-27.57523,4.32695,0.6281433,0.5194579,0.02058578,1.125427,-0.2904246,0.1671776,-0.1981664,0.03671111,0.2844042,-9.955605,29.91
4,-0.2160339,-0.4237061,0.8796539,0.7994327,-0.2173767,-0.4206848,0.8807678,-31.06982,1.733658,-27.14581,4.054764,0.5096017,0.5868862,0.8157872,-0.2142792,-0.4276123,0.8781891,29.98819,3.884201,-27.57523,4.32695,0.6281433,0.5194579,0.02058578,1.125427,-0.2904246,0.1671776,-0.1981664,0.03671111,0.2844042,-9.955605,29.91
4,-0.227066,-0.3906403,0.8920898,0.8090327,-0.2347107,-0.3881836,0.8911743,-30.98245,1.837067,-27.07425,4.175522,0.5095019,0.5768009,0.8652565,-0.2188568,-0.3932343,0.8930054,30.09348,3.932053,-27.53622,4.493103,0.6251441,0.510914,0.02075458,1.1248,-0.2896188,0.1696193,-0.1944585,0.03765587,0.2844042,-9.955605,29.91
4,-0.2026062,-0.3767395,0.9038849,0.8429525,-0.2068329,-0.366745,0.9070282,-30.95793,1.814423,-27.07886,4.057388,0.5041556,0.5732808,0.8599426,-0.1977234,-0.3881073,0.9001465,30.18195,3.975693,-27.49786,4.542435,0.6184591,0.5078296,0.02087426,1.124218,-0.2888098,0.1716948,-0.1907663,0.03853209,0.2844042,-9.955605,29.91
4,-0.1917877,-0.362381,0.9120789,0.861933,-0.1912842,-0.3585052,0.9137115,-30.9082,1.854126,-27.05174,4.157745,0.4998782,0.569953,0.9046209,-0.1923065,-0.3663788,0.9103699,30.23398,3.997269,-27.46227,4.543503,0.6157042,0.5026581,0.02121866,1.123757,-0.2879343,0.1735336,-0.1870221,0.03948536,0.2844042,-9.955605,29.91
4,-0.1928864,-0.3588715,0.9132233,0.9455529,-0.1864929,-0.3517609,0.9173126,-30.87836,1.864624,-27.03564,4.080078,0.4981358,0.5681636,0.9088134,-0.1991119,-0.3657684,0.9091492,30.27951,4.012878,-27.46101,4.671082,0.6152443,0.5020234,0.02168107,1.122728,-0.2864236,0.1766707,-0.1800117,0.04098419,0.2844042,-9.955605,29.91
4,-0.1928864,-0.3588715,0.9132233,0.9455529,-0.1864929,-0.3517609,0.9173126,-30.87836,1.864624,-27.03564,4.080078,0.4981358,0.5681636,0.9088134,-0.1991119,-0.3657684,0.9091492,30.27951,4.012878,-27.46101,4.671082,0.6152443,0.5020234,0.02168107,1.122728,-0.2864236,0.1766707,-0.1800117,0.04098419,0.2844042,-9.955605,29.91
4,-0.1745605,-0.3591461,0.9168091,0.969724,-0.1792297,-0.3576813,0.9164734,-30.82185,1.907135,-27.02969,4.001724,0.4950784,0.5677111,0.9234974,-0.1683044,-0.3610687,0.9172058,30.28435,4.008316,-27.4313,4.5215,0.609905,0.5007709,0.02201688,1.122352,-0.2857472,0.1779806,-0.1767396,0.04177962,0.2844042,-9.955605,29.91
4,-0.1605835,-0.3596497,0.9191589,0.9811771,-0.1663361,-0.3495331,0.9220276,-30.7675,1.911667,-27.01053,4.027771,0.4911314,0.5657325,0.921356,-0.1536865,-0.3716736,0.9155426,30.44127,4.022171,-27.429,4.504105,0.6020785,0.5020898,0.02253664,1.121462,-0.2846689,0.1809827,-0.1703548,0.0427708,0.2844042,-9.955605,29.91
4,-0.1605835,-0.3596497,0.9191589,0.9811771,-0.1663361,-0.3495331,0.9220276,-30.7675,1.911667,-27.01053,4.027771,0.4911314,0.5657325,0.921356,-0.1536865,-0.3716736,0.9155426,30.44127,4.022171,-27.429,4.504105,0.6020785,0.5020898,0.02253664,1.121462,-0.2846689,0.1809827,-0.1703548,0.0427708,0.2844042,-9.955605,29.91
4,-0.1536713,-0.3493958,0.9242706,0.9744553,-0.1617126,-0.3339539,0.9286041,-30.69221,1.889297,-27.00064,4.10051,0.4878415,0.563461,0.9231789,-0.1421051,-0.3712769,0.917572,30.53465,4.036484,-27.39127,4.394363,0.5969296,0.5011124,0.02282965,1.121014,-0.284196,0.1824124,-0.1672727,0.0431708,0.2844042,7.424889,29.91
4,-0.1480713,-0.3373108,0.929657,0.9336081,-0.1596375,-0.3276215,0.9312134,-30.63876,1.903992,-26.98659,4.213913,0.4856761,0.5616344,0.9244313,-0.1314087,-0.3510742,0.927063,30.5834,4.031723,-27.36838,4.444397,0.5934265,0.4972371,0.02311003,1.120556,-0.2837075,0.1838599,-0.1642707,0.04347897,0.2844042,7.424889,29.91
4,-0.1381836,-0.3330688,0.9327087,0.9336081,-0.1451721,-0.3237305,0.9349365,-30.62439,1.895981,-26.98102,4.080124,0.4828779,0.5610346,0.9244313,-0.1284943,-0.345932,0.9294128,30.61328,4.019287,-27.36748,4.486618,0.5919021,0.4966503,0.02384508,1.119783,-0.2829703,0.1867896,-0.1584415,0.04401325,0.2844042,7.424889,29.91
4,-0.1381836,-0.3330688,0.9327087,0.9336081,-0.1451721,-0.3237305,0.9349365,-30.62439,1.895981,-26.98102,4.080124,0.4828779,0.5610346,0.9244313,-0.1284943,-0.345932,0.9294128,30.61328,4.019287,-27.36748,4.486618,0.5919021,0.4966503,0.02384508,1.119783,-0.2829703,0.1867896,-0.1584415,0.04401325,0.2844042,7.424889,29.91
4,-0.1337738,-0.3299713,0.9344482,0.9261559,-0.1405487,-0.3126373,0.9394073,-30.57135,1.884705,-26.97745,4.077087,0.4803639,0.5593157,0.9516615,-0.1251068,-0.3518066,0.9276581,30.68491,4.032516,-27.36183,4.481644,0.5888861,0.4972047,0.02416718,1.119484,-0.282547,0.1881979,-0.1554175,0.04434783,0.2844042,7.424889,29.91
4,-0.1216278,-0.3245087,0.9380188,0.9388691,-0.1325531,-0.3065491,0.9425659,-30.51543,1.906799,-26.95801,4.165024,0.4771628,0.5572236,0.9448699,-0.1083069,-0.3460541,0.9319305,30.75392,4.071106,-27.3315,4.376389,0.5837198,0.4944675,0.02457201,1.119233,-0.2822359,0.1891758,-0.1526979,0.04429488,0.2844042,7.424889,29.91
4,-0.1238098,-0.320816,0.9390106,0.9446144,-0.1218567,-0.3044281,0.9447021,-30.46371,1.967514,-26.92526,4.24086,0.4736674,0.5544125,0.953099,-0.1258087,-0.3377838,0.9327698,30.87474,4.075027,-27.3139,4.395355,0.5824963,0.4927562,0.02536857,1.119134,-0.2815892,0.1904734,-0.1483266,0.04426812,0.2844042,7.424889,29.91
4,-0.1238098,-0.320816,0.9390106,0.9446144,-0.1218567,-0.3044281,0.9447021,-30.46371,1.967514,-26.92526,4.24086,0.4736674,0.5544125,0.953099,-0.1258087,-0.3377838,0.9327698,30.87474,4.075027,-27.3139,4.395355,0.5824963,0.4927562,0.02536857,1.119134,-0.2815892,0.1904734,-0.1483266,0.04426812,0.2844042,7.424889,29.91
4,-0.1135101,-0.3006897,0.9469299,0.9252344,-0.1227264,-0.2797699,0.952179,-30.36862,2.004974,-26.90578,4.10379,0.4707356,0.5485657,0.9555768,-0.1034851,-0.3231201,0.9406738,30.89882,4.177979,-27.25917,4.59581,0.5778853,0.4859128,0.02595985,1.119145,-0.280968,0.190473,-0.1450849,0.04398734,0.2844042,7.424889,29.91
4,-0.1056213,-0.2984772,0.9485474,0.8936188,-0.1120758,-0.2762451,0.9545135,-30.31821,2.04068,-26.87898,4.119827,0.4673167,0.5464175,0.9721883,-0.09811401,-0.3238831,0.9409943,30.97627,4.152588,-27.28047,4.454636,0.5743819,0.4870889,0.02629733,1.119138,-0.2805842,0.1904599,-0.1437107,0.04389663,0.2844042,7.424889,29.91
4,-0.1056213,-0.2984772,0.9485474,0.8936188,-0.1120758,-0.2762451,0.9545135,-30.31821,2.04068,-26.87898,4.119827,0.4673167,0.5464175,0.9721883,-0.09811401,-0.3238831,0.9409943,30.97627,4.152588,-27.28047,4.454636,0.5743819,0.4870889,0.02629733,1.119138,-0.2805842,0.1904599,-0.1437107,0.04389663,0.2844042,7.424889,29.91
4,-0.087677,-0.3042297,0.9485474,0.8876259,-0.09146118,-0.2966461,0.950592,-30.27301,2.050156,-26.87172,3.998901,0.4624239,0.5495542,0.9533034,-0.084198,-0.3111877,0.9465942,30.99959,4.110214,-27.29274,4.396011,0.5712814,0.486273,0.02653253,1.119152,-0.2802995,0.1901778,-0.1428362,0.04370765,0.2844042,7.424889,29.91
4,-0.08995056,-0.293869,0.9515991,0.8613742,-0.1086273,-0.2652588,0.9580231,-30.2412,2.03186,-26.87611,4.397675,0.4641149,0.5447063,0.966191,-0.07310486,-0.3192291,0.9448395,31.02568,4.09317,-27.29503,4.394913,0.5685394,0.4882599,0.02686918,1.119202,-0.2799783,0.1900217,-0.1418997,0.04355619,0.2844042,7.424889,29.91
4,-0.08518982,-0.288147,0.9537811,0.8485245,-0.09887695,-0.2604523,0.9604034,-30.22859,2.014832,-26.87849,4.280487,0.4621423,0.5443766,0.9515198,-0.0723114,-0.313797,0.9467163,31.02936,4.079788,-27.29472,4.472733,0.5682746,0.4877083,0.02742827,1.119224,-0.2795172,0.1897807,-0.1402924,0.04302334,0.2844042,7.424889,29.91
4,-0.08518982,-0.288147,0.9537811,0.8485245,-0.09887695,-0.2604523,0.9604034,-30.22859,2.014832,-26.87849,4.280487,0.4621423,0.5443766,0.9515198,-0.0723114,-0.313797,0.9467163,31.02936,4.079788,-27.29472,4.472733,0.5682746,0.4877083,0.02742827,1.119224,-0.2795172,0.1897807,-0.1402924,0.04302334,0.2844042,7.424889,29.91
4,-0.08947754,-0.2820892,0.9552002,0.8599421,-0.1055756,-0.2634735,0.9588623,-30.20186,1.98172,-26.89011,4.368484,0.4623066,0.5461621,0.9560419,-0.07304382,-0.3008575,0.9508514,31.0571,4.053818,-27.2924,4.507874,0.567441,0.486222,0.02764177,1.119308,-0.2793417,0.1897946,-0.1395336,0.04275442,0.2844042,12.68414,29.91
4,-0.08383179,-0.2874146,0.9541168,0.857941,-0.09657288,-0.2605133,0.9606171,-30.18808,1.965073,-26.89114,4.292877,0.4604021,0.5461395,0.9587644,-0.07150269,-0.3130646,0.9470215,31.05139,4.032654,-27.29921,4.425613,0.5673875,0.4892081,0.0279448,1.119388,-0.2791376,0.189639,-0.1391355,0.04236086,0.2844042,12.68414,29.91
4,-0.07865906,-0.2899933,0.9537811,0.857941,-0.1004181,-0.2649689,0.9589996,-30.17854,1.953415,-26.89369,4.283081,0.4607036,0.5473551,0.9587644,-0.05796814,-0.3134003,0.9478455,31.05225,4.032654,-27.29843,4.425064,0.5651063,0.4892081,0.02849126,1.119756,-0.2786243,0.189043,-0.1381683,0.04144768,0.2844042,12.68414,29.91
4,-0.07865906,-0.2899933,0.9537811,0.857941,-0.1004181,-0.2649689,0.9589996,-30.17854,1.953415,-26.89369,4.283081,0.4607036,0.5473551,0.9587644,-0.05796814,-0.3134003,0.9478455,31.05225,4.032654,-27.29843,4.425064,0.5651063,0.4892081,0.02849126,1.119756,-0.2786243,0.189043,-0.1381683,0.04144768,0.2844042,12.68414,29.91
4,-0.07839966,-0.2857056,0.9550934,0.8515208,-0.1004028,-0.2560272,0.9614258,-30.16817,1.940491,-26.89328,4.296127,0.4603685,0.5461962,0.9595911,-0.05726624,-0.3137054,0.9477844,31.05544,4.03186,-27.29883,4.443024,0.5648807,0.4892903,0.02849126,1.119756,-0.2786243,0.189043,-0.1381683,0.04144768,0.2844042,12.68414,29.91
4,-0.07902527,-0.2839661,0.9555664,0.8515208,-0.09819031,-0.2559509,0.9616852,-30.15793,1.927948,-26.89413,4.338104,0.4596496,0.5466018,0.9595911,-0.05891418,-0.3128815,0.9479523,31.06342,4.027252,-27.29811,4.465851,0.5648807,0.4892903,0.02905262,1.119988,-0.2783347,0.188032,-0.1376289,0.04030225,0.2844042,12.68414,29.91
4,-0.07902527,-0.2839661,0.9555664,0.8515208,-0.09819031,-0.2559509,0.9616852,-30.15793,1.927948,-26.89413,4.338104,0.4596496,0.5466018,0.9595911,-0.05891418,-0.3128815,0.9479523,31.06342,4.027252,-27.29811,4.465851,0.5648807,0.4892903,0.02905262,1.119988,-0.2783347,0.188032,-0.1376289,0.04030225,0.2844042,12.68414,29.91
4,-0.07937622,-0.2836914,0.9556122,0.8129885,-0.09840393,-0.2565002,0.9615173,-30.15784,1.923141,-26.89804,4.437195,0.4596496,0.5469049,0.9679404,-0.0587616,-0.3126373,0.9480438,31.07272,4.020996,-27.29877,4.443085,0.5645384,0.4894544,0.02956831,1.120405,-0.2780199,0.1865964,-0.1370578,0.03873228,0.2844042,12.68414,29.91
4,-0.08036804,-0.2833862,0.9556274,0.7980359,-0.09867859,-0.2566986,0.9614258,-30.15656,1.915787,-26.89934,4.437469,0.4596496,0.5471956,0.9586639,-0.06069946,-0.311554,0.9482727,31.07802,4.01561,-27.29916,4.465805,0.5646773,0.4894544,0.0301528,1.121249,-0.2776492,0.1839883,-0.1364759,0.03668878,0.2844042,12.68414,29.91
4,-0.08430481,-0.2771149,0.9571228,0.7873657,-0.09963989,-0.2567291,0.961319,-30.24022,2.100769,-26.85591,4.457733,0.4626278,0.5406769,0.9526097,-0.06747437,-0.2991791,0.9517975,30.9819,4.186966,-27.25887,4.437119,0.5690861,0.4811194,0.03067982,1.12251,-0.2771144,0.1795042,-0.1359873,0.03429155,0.2844042,12.68414,29.91
4,-0.08430481,-0.2771149,0.9571228,0.7873657,-0.09963989,-0.2567291,0.961319,-30.24022,2.100769,-26.85591,4.457733,0.4626278,0.5406769,0.9526097,-0.06747437,-0.2991791,0.9517975,30.9819,4.186966,-27.25887,4.437119,0.5690861,0.4811194,0.03067982,1.12251,-0.2771144,0.1795042,-0.1359873,0.03429155,0.2844042,12.68414,29.91
4,-0.1423798,-0.09501648,0.9852295,0.8519923,-0.1423798,-0.09501648,0.9852295,-30.3941,3.028488,-27.0963,4.486328,0.4751316,0.4845634,0.9208704,0.0,0.0,0.0,30.65627,5.279922,-27.20605,-1.0,0.5914867,0.4169442,0.0311507,1.123972,-0.2765242,0.1741059,-0.1354783,0.03186643,0.2844042,12.68414,29.91
4,-0.1423798,-0.09501648,0.9852295,0.8519923,-0.1423798,-0.09501648,0.9852295,-30.3941,3.028488,-27.0963,4.486328,0.4751316,0.4845634,0.9208704,0.0,0.0,0.0,30.65627,5.279922,-27.20605,-1.0,0.5914867,0.4169442,0.0311507,1.123972,-0.2765242,0.1741059,-0.1354783,0.03186643,0.2844042,12.68414,29.91
4,-0.1423798,-0.09501648,0.9852295,0.8519923,-0.1423798,-0.09501648,0.9852295,-30.3941,3.028488,-27.0963,4.486328,0.4751316,0.4845634,0.9208704,0.0,0.0,0.0,30.65627,5.279922,-27.20605,-1.0,0.5914867,0.4169442,0.0311507,1.123972,-0.2765242,0.1741059,-0.1354783,0.03186643,0.2844042,12.68414,29.91
4,-1.0,-1.0,-1.0,0.8833438,0.0,0.0,0.0,-30.47023,3.894638,-28.89299,-1.0,0.47986,0.4521604,0.8970779,0.0,0.0,0.0,30.38458,6.004303,-29.06978,-1.0,0.599438,0.3865528,0.03167212,1.125412,-0.2759647,0.1684733,-0.13493,0.0295332,0.2844042,8.042229,29.91
4,-1.0,-1.0,-1.0,0.8833438,0.0,0.0,0.0,-30.47023,3.894638,-28.89299,-1.0,0.47986,0.4521604,0.8970779,0.0,0.0,0.0,30.38458,6.004303,-29.06978,-1.0,0.599438,0.3865528,0.03167212,1.125412,-0.2759647,0.1684733,-0.13493,0.0295332,0.2844042,8.042229,29.91
4,-1.0,-1.0,-1.0,0.9958786,0.0,0.0,0.0,-30.56718,3.926941,-29.36256,-1.0,0.4812236,0.4538826,0.935847,0.0,0.0,0.0,30.42297,5.822784,-28.6532,-1.0,0.6014557,0.382649,0.0322082,1.126855,-0.275503,0.1631555,-0.1343999,0.02733994,0.2844042,8.042229,29.91
4,-1.0,-1.0,-1.0,0.9958786,0.0,0.0,0.0,-30.56718,3.926941,-29.36256,-1.0,0.4812236,0.4538826,0.935847,0.0,0.0,0.0,30.42297,5.822784,-28.6532,-1.0,0.6014557,0.382649,0.0322082,1.126855,-0.275503,0.1631555,-0.1343999,0.02733994,0.2844042,8.042229,29.91
4,-0.1286163,0.01304626,0.9915924,1.0,-0.1437073,0.01069641,0.9895477,-30.59908,3.624832,-28.94293,4.533279,0.482541,0.4633527,1.0,-0.1239777,0.01376343,0.9921875,30.51801,5.65271,-28.78922,4.609756,0.5965388,0.389908,0.03271067,1.128192,-0.2751694,0.1581254,-0.1336658,0.02496927,0.2844042,8.042229,29.91
4,-0.1286163,0.01304626,0.9915924,1.0,-0.1437073,0.01069641,0.9895477,-30.59908,3.624832,-28.94293,4.533279,0.482541,0.4633527,1.0,-0.1239777,0.01376343,0.9921875,30.51801,5.65271,-28.78922,4.609756,0.5965388,0.389908,0.03271067,1.128192,-0.2751694,0.1581254,-0.1336658,0.02496927,0.2844042,8.042229,29.91
4,-0.1108704,-0.004928589,0.9938202,1.0,-0.1434937,-0.002838135,0.9896393,-30.61665,3.344589,-28.42056,4.4776,0.4830239,0.4703589,1.0,-0.1078796,-0.005111694,0.9941406,30.54582,5.426758,-28.48242,4.625931,0.592401,0.3983549,0.03319466,1.12965,-0.2748022,0.1530938,-0.1329524,0.02252355,0.2844042,8.042229,29.91
4,-0.1108704,-0.004928589,0.9938202,1.0,-0.1434937,-0.002838135,0.9896393,-30.61665,3.344589,-28.42056,4.4776,0.4830239,0.4703589,1.0,-0.1078796,-0.005111694,0.9941406,30.54582,5.426758,-28.48242,4.625931,0.592401,0.3983549,0.03319466,1.12965,-0.2748022,0.1530938,-0.1329524,0.02252355,0.2844042,8.042229,29.91
4,-0.1143951,-0.003051758,0.9934235,1.0,-0.149353,-0.007797241,0.988739,-30.62703,3.259155,-28.20314,4.540955,0.4842879,0.4721992,1.0,-0.1143646,-0.003051758,0.9934235,30.56642,5.368073,-28.49066,4.757492,0.5927911,0.4001486,0.03376663,1.131235,-0.2744552,0.1475296,-0.132098,0.01969498,0.2844042,8.042229,29.91
4,-0.1143951,-0.003051758,0.9934235,1.0,-0.149353,-0.007797241,0.988739,-30.62703,3.259155,-28.20314,4.540955,0.4842879,0.4721992,1.0,-0.1143646,-0.003051758,0.9934235,30.56642,5.368073,-28.49066,4.757492,0.5927911,0.4001486,0.03376663,1.131235,-0.2744552,0.1475296,-0.132098,0.01969498,0.2844042,8.042229,29.91
4,-0.1276398,-0.002548218,0.991806,1.0,-0.1414032,-0.02590942,0.9896088,-30.63841,3.250412,-28.24872,4.522156,0.4833177,0.4758753,1.0,-0.1269379,-0.001373291,0.9918976,30.61017,5.412064,-28.79823,4.756805,0.5936991,0.4010357,0.03429997,1.132924,-0.2739981,0.1408234,-0.1312528,0.01676635,0.2844042,8.042229,29.91
4,-0.1276398,-0.002548218,0.991806,1.0,-0.1414032,-0.02590942,0.9896088,-30.63841,3.250412,-28.24872,4.522156,0.4833177,0.4758753,1.0,-0.1269379,-0.001373291,0.9918976,30.61017,5.412064,-28.79823,4.756805,0.5936991,0.4010357,0.03429997,1.132924,-0.2739981,0.1408234,-0.1312528,0.01676635,0.2844042,8.042229,29.91
4,-0.1397705,-0.0234375,0.9898987,1.0,-0.1415253,-0.02285767,0.9896545,-30.65498,3.244812,-28.38658,4.544128,0.4838995,0.4767868,1.0,-0.1030579,-0.03562927,0.9940338,30.60045,5.197586,-28.20549,4.664291,0.5893178,0.4091116,0.03475869,1.135068,-0.273556,0.1325913,-0.1304122,0.01444355,0.2844042,8.042229,29.91
4,-0.1397705,-0.0234375,0.9898987,1.0,-0.1415253,-0.02285767,0.9896545,-30.65498,3.244812,-28.38658,4.544128,0.4838995,0.4767868,1.0,-0.1030579,-0.03562927,0.9940338,30.60045,5.197586,-28.20549,4.664291,0.5893178,0.4091116,0.03475869,1.135068,-0.273556,0.1325913,-0.1304122,0.01444355,0.2844042,8.042229,29.91
4,-0.1436005,-0.03507996,0.9889984,1.0,-0.1472778,-0.03500366,0.9884644,-30.67699,3.237061,-28.25156,4.491013,0.4855807,0.4779029,1.0,-0.1138916,-0.03565979,0.9928436,30.60123,5.194748,-28.32823,4.684814,0.5912304,0.4103158,0.03517425,1.137507,-0.2730186,0.1222771,-0.1299182,0.01172701,0.2844042,8.042229,29.91
4,-0.1436005,-0.03507996,0.9889984,1.0,-0.1472778,-0.03500366,0.9884644,-30.67699,3.237061,-28.25156,4.491013,0.4855807,0.4779029,1.0,-0.1138916,-0.03565979,0.9928436,30.60123,5.194748,-28.32823,4.684814,0.5912304,0.4103158,0.03517425,1.137507,-0.2730186,0.1222771,-0.1299182,0.01172701,0.2844042,8.042229,29.91
4,-0.1332855,-0.05151367,0.9897308,1.0,-0.1358185,-0.05166626,0.9893799,-30.66814,3.323685,-28.47935,4.495163,0.4833703,0.4797704,1.0,-0.11026,-0.05021667,0.99263,30.65781,5.133301,-28.20969,4.599197,0.5885181,0.4138684,0.03543675,1.140408,-0.2723986,0.1102272,-0.1300044,0.008776339,0.2844042,8.042229,29.91
4,-0.1292267,-0.05778503,0.9899139,1.0,-0.1391144,-0.05297852,0.9888458,-30.64906,3.347092,-28.43402,4.555283,0.4832508,0.4788722,1.0,-0.1176453,-0.06336975,0.9910278,30.68999,5.171906,-28.3452,4.902115,0.5887388,0.4160973,0.03549731,1.143868,-0.2718985,0.09537739,-0.1312919,0.005581965,0.2844042,8.042229,29.91
4,-0.1292267,-0.05778503,0.9899139,1.0,-0.1391144,-0.05297852,0.9888458,-30.64906,3.347092,-28.43402,4.555283,0.4832508,0.4788722,1.0,-0.1176453,-0.06336975,0.9910278,30.68999,5.171906,-28.3452,4.902115,0.5887388,0.4160973,0.03549731,1.143868,-0.2718985,0.09537739,-0.1312919,0.005581965,0.2844042,8.042229,29.91
4,-0.1292267,-0.05778503,0.9899139,1.0,-0.1391144,-0.05297852,0.9888458,-30.64906,3.347092,-28.43402,4.555283,0.4832508,0.4788722,1.0,-0.1176453,-0.06336975,0.9910278,30.68999,5.171906,-28.3452,4.902115,0.5887388,0.4160973,0.03549731,1.143868,-0.2718985,0.09537739,-0.1312919,0.005581965,0.2844042,8.042229,29.91
4,-1.0,-1.0,-1.0,0.8805019,0.0,0.0,0.0,-30.0497,4.008682,-28.66098,-1.0,0.457922,0.4659033,0.9474323,0.0,0.0,0.0,31.26952,6.073761,-29.77029,-1.0,0.5534049,0.4172682,0.03519034,1.148001,-0.2715193,0.07753368,-0.1346546,0.002166533,0.2844042,-0.8297348,29.91
4,-1.0,-1.0,-1.0,0.8805019,0.0,0.0,0.0,-30.0497,4.008682,-28.66098,-1.0,0.457922,0.4659033,0.9474323,0.0,0.0,0.0,31.26952,6.073761,-29.77029,-1.0,0.5534049,0.4172682,0.03519034,1.148001,-0.2715193,0.07753368,-0.1346546,0.002166533,0.2844042,-0.8297348,29.91
4,-1.0,-1.0,-1.0,0.3716761,0.0,0.0,0.0,-29.66151,8.084412,-45.97929,-1.0,0.46109,0.4810471,0.4455847,0.0,0.0,0.0,32.34218,4.217239,-28.058,-1.0,0.4918984,0.4764198,0.03426385,1.152539,-0.2715063,0.05789634,-0.1414438,-0.00266326,0.2844042,-0.8297348,29.91
4,-1.0,-1.0,-1.0,0.1515034,0.0,0.0,0.0,-29.5885,2.549149,-27.85966,-1.0,0.4181848,0.5195766,0.3476874,0.0,0.0,0.0,31.75351,4.39064,-28.04289,-1.0,0.5177269,0.4662176,0.03269291,1.157109,-0.2722837,0.03901612,-0.1531614,-0.009763336,0.2844042,-0.8297348,29.91
4,-1.0,-1.0,-1.0,0.1515034,0.0,0.0,0.0,-29.5885,2.549149,-27.85966,-1.0,0.4181848,0.5195766,0.3476874,0.0,0.0,0.0,31.75351,4.39064,-28.04289,-1.0,0.5177269,0.4662176,0.03269291,1.157109,-0.2722837,0.03901612,-0.1531614,-0.009763336,0.2844042,-0.8297348,29.91
4,-1.0,-1.0,-1.0,0.1515034,0.0,0.0,0.0,-29.5885,2.549149,-27.85966,-1.0,0.4181848,0.5195766,0.3476874,0.0,0.0,0.0,31.75351,4.39064,-28.04289,-1.0,0.5177269,0.4662176,0.03269291,1.157109,-0.2722837,0.03901612,-0.1531614,-0.009763336,0.2844042,-0.8297348,29.91
4,-1.0,-1.0,-1.0,0.06374586,0.0,0.0,0.0,-28.63602,3.31546,-27.87001,-1.0,0.2960681,0.4837791,0.3006425,0.0,0.0,0.0,29.79155,3.584,-28.53519,-1.0,0.6468312,0.5278285,0.03092766,1.161111,-0.273623,0.02175388,-0.167524,-0.01692513,0.2844042,-0.8297348,29.91
4,-1.0,-1.0,-1.0,0.06374586,0.0,0.0,0.0,-28.63602,3.31546,-27.87001,-1.0,0.2960681,0.4837791,0.3006425,0.0,0.0,0.0,29.79155,3.584,-28.53519,-1.0,0.6468312,0.5278285,0.03092766,1.161111,-0.273623,0.02175388,-0.167524,-0.01692513,0.2844042,-0.8297348,29.91
4,-1.0,-1.0,-1.0,0.377758,0.0,0.0,0.0,-27.64169,4.257538,-27.8432,-1.0,0.3376219,0.4318524,0.6940756,0.0,0.0,0.0,33.33923,5.707581,-28.04529,-1.0,0.4419632,0.37872,0.02914596,1.164917,-0.2754116,0.005364154,-0.1815503,-0.02354818,0.2844042,-0.8297348,29.91
4,-1.0,-1.0,-1.0,0.6807107,0.0,0.0,0.0,-27.60085,4.106384,-28.18181,-1.0,0.3156936,0.4005097,0.8604594,0.0,0.0,0.0,33.56822,5.908951,-28.30475,-1.0,0.4079218,0.3642789,0.02734816,1.168181,-0.2780071,-0.008806847,-0.1966876,-0.03037197,0.2844042,-0.8297348,29.91
4,-1.0,-1.0,-1.0,0.6807107,0.0,0.0,0.0,-27.60085,4.106384,-28.18181,-1.0,0.3156936,0.4005097,0.8604594,0.0,0.0,0.0,33.56822,5.908951,-28.30475,-1.0,0.4079218,0.3642789,0.02734816,1.168181,-0.2780071,-0.008806847,-0.1966876,-0.03037197,0.2844042,-0.8297348,29.91
4,-1.0,-1.0,-1.0,0.7792595,0.0,0.0,0.0,-27.36501,3.600739,-28.37708,-1.0,0.3047099,0.4059076,0.944302,0.0,0.0,0.0,33.65823,5.457031,-28.46385,-1.0,0.4065554,0.3570767,0.02544236,1.170913,-0.280902,-0.02031435,-0.2128736,-0.03683774,0.2844042,-12.46764,29.91
4,-1.0,-1.0,-1.0,0.7792595,0.0,0.0,0.0,-27.36501,3.600739,-28.37708,-1.0,0.3047099,0.4059076,0.944302,0.0,0.0,0.0,33.65823,5.457031,-28.46385,-1.0,0.4065554,0.3570767,0.02544236,1.170913,-0.280902,-0.02031435,-0.2128736,-0.03683774,0.2844042,-12.46764,29.91
4,-1.0,-1.0,-1.0,0.7792595,0.0,0.0,0.0,-27.36501,3.600739,-28.37708,-1.0,0.3047099,0.4059076,0.944302,0.0,0.0,0.0,33.65823,5.457031,-28.46385,-1.0,0.4065554,0.3570767,0.02544236,1.170913,-0.280902,-0.02031435,-0.2128736,-0.03683774,0.2844042,-12.46764,29.91
4,0.3015289,0.2672424,0.9152222,1.0,0.3014832,0.2672729,0.9152222,-27.29282,3.150375,-28.42429,4.842194,0.2939967,0.4309932,1.0,0.3661194,0.2176819,0.9047394,33.69321,5.019852,-28.53006,4.848495,0.4021928,0.37563,0.02364433,1.173199,-0.2842134,-0.02962614,-0.2295488,-0.04152831,0.2844042,-12.46764,29.91
4,0.3015289,0.2672424,0.9152222,1.0,0.3014832,0.2672729,0.9152222,-27.29282,3.150375,-28.42429,4.842194,0.2939967,0.4309932,1.0,0.3661194,0.2176819,0.9047394,33.69321,5.019852,-28.53006,4.848495,0.4021928,0.37563,0.02364433,1.173199,-0.2842134,-0.02962614,-0.2295488,-0.04152831,0.2844042,-12.46764,29.91
5,0.3178864,0.2162781,0.9231262,1.0,0.2871857,0.2238464,0.9313354,-27.53764,2.834793,-28.35161,4.971649,0.3055135,0.4485768,1.0,0.3251953,0.2144318,0.9210052,33.53485,4.703598,-28.48363,4.849594,0.4150369,0.3864829,0.02282429,1.174129,-0.2859644,-0.0341413,-0.2377664,-0.04329661,0.2844042,-12.46764,29.91
5,0.2636261,0.170517,0.9494171,1.0,0.2269592,0.1835785,0.9564362,-27.8501,2.648026,-28.23145,4.674026,0.3271629,0.4600864,1.0,0.2793884,0.1647644,0.9459229,33.31779,4.473221,-28.39297,4.734253,0.4307935,0.401713,0.02105892,1.176204,-0.2893783,-0.04336384,-0.2543882,-0.04626658,0.2844042,-12.46764,29.91
5,0.2636261,0.170517,0.9494171,1.0,0.2269592,0.1835785,0.9564362,-27.8501,2.648026,-28.23145,4.674026,0.3271629,0.4600864,1.0,0.2793884,0.1647644,0.9459229,33.31779,4.473221,-28.39297,4.734253,0.4307935,0.401713,0.02105892,1.176204,-0.2893783,-0.04336384,-0.2543882,-0.04626658,0.2844042,-12.46764,29.91
5,0.2467194,0.1544037,0.9566956,1.0,0.2148895,0.1633759,0.9628601,-27.93819,2.627167,-28.1989,4.664322,0.3323767,0.4638393,1.0,0.2617188,0.1501007,0.9533844,33.25981,4.428192,-28.37021,4.774094,0.4359518,0.405482,0.02016664,1.177222,-0.2910788,-0.04774229,-0.2628643,-0.04764356,0.2844042,-12.46764,29.91
5,0.2171478,0.131073,0.9672852,1.0,0.1983795,0.144104,0.9694672,-28.15959,2.580948,-28.14336,4.554123,0.3428665,0.4680239,1.0,0.2267761,0.1243286,0.9659729,33.09886,4.38504,-28.30754,4.650482,0.447563,0.4105103,0.01928365,1.178178,-0.2929002,-0.05187342,-0.2713275,-0.0491854,0.2844042,-12.46764,29.91
5,0.1867828,0.1105042,0.9761505,1.0,0.1502075,0.1204224,0.9812775,-28.36307,2.490402,-27.99382,4.517609,0.358187,0.4735188,1.0,0.2032166,0.1059723,0.9733734,32.95105,4.30481,-28.26111,4.645004,0.4567259,0.4158595,0.01749516,1.179855,-0.2963316,-0.05934739,-0.2877122,-0.05198376,0.2844042,-12.46764,29.91
5,0.1867828,0.1105042,0.9761505,1.0,0.1502075,0.1204224,0.9812775,-28.36307,2.490402,-27.99382,4.517609,0.358187,0.4735188,1.0,0.2032166,0.1059723,0.9733734,32.95105,4.30481,-28.26111,4.645004,0.4567259,0.4158595,0.01749516,1.179855,-0.2963316,-0.05934739,-0.2877122,-0.05198376,0.2844042,-12.46764,29.91
5,0.1712189,0.1003723,0.9801025,1.0,0.1307983,0.1082153,0.9854736,-28.59589,2.216675,-27.29115,4.463135,0.3698981,0.4784465,1.0,0.1717072,0.1002808,0.9800262,32.71249,4.237503,-28.28072,4.491684,0.4702305,0.4190735,0.01666176,1.180584,-0.2980343,-0.06297054,-0.295364,-0.05316439,0.2844042,-12.46764,29.91
5,0.1378937,0.06718445,0.9881592,1.0,0.1000977,0.09828186,0.990097,-28.80739,2.064636,-26.90942,4.327332,0.3824016,0.4816114,1.0,0.1378937,0.06718445,0.9881592,32.55255,4.154526,-28.13655,4.459122,0.4814899,0.4261402,0.01519775,1.181961,-0.3014514,-0.06944009,-0.3102132,-0.05530364,0.2844042,-12.46764,29.91
5,0.1378937,0.06718445,0.9881592,1.0,0.1000977,0.09828186,0.990097,-28.80739,2.064636,-26.90942,4.327332,0.3824016,0.4816114,1.0,0.1378937,0.06718445,0.9881592,32.55255,4.154526,-28.13655,4.459122,0.4814899,0.4261402,0.01519775,1.181961,-0.3014514,-0.06944009,-0.3102132,-0.05530364,0.2844042,-12.46764,29.91
5,0.1136932,0.0524292,0.9921265,1.0,0.07818604,0.09269714,0.9926147,-29.05446,1.834961,-26.28874,4.42955,0.3946645,0.4847828,1.0,0.1136932,0.0524292,0.9921265,32.34782,4.170944,-28.33194,4.460785,0.4926336,0.429735,0.01447606,1.18253,-0.3030581,-0.07217134,-0.3174087,-0.05601711,0.2844042,-12.46764,29.91
5,0.08091736,0.03735352,0.9960175,1.0,0.05406189,0.07997131,0.9953156,-29.27411,1.892731,-26.43019,4.487457,0.4058722,0.4863082,1.0,0.08091736,0.03735352,0.9960175,32.19257,4.236023,-28.65678,4.490997,0.5036014,0.4328801,0.01386499,1.18302,-0.3046938,-0.07484574,-0.324394,-0.05667455,0.2844042,-3.859821,29.91
5,0.06019592,0.0244751,0.997879,1.0,0.04013062,0.06344604,0.9971771,-29.48325,1.936295,-26.30687,4.417038,0.4151679,0.4864727,1.0,0.06022644,0.02441406,0.997879,32.00163,4.222321,-28.49594,4.547089,0.5136322,0.4342011,0.01256442,1.184085,-0.3077435,-0.07917782,-0.3375787,-0.05822818,0.2844042,-3.859821,29.91
5,0.06019592,0.0244751,0.997879,1.0,0.04013062,0.06344604,0.9971771,-29.48325,1.936295,-26.30687,4.417038,0.4151679,0.4864727,1.0,0.06022644,0.02441406,0.997879,32.00163,4.222321,-28.49594,4.547089,0.5136322,0.4342011,0.01256442,1.184085,-0.3077435,-0.07917782,-0.3375787,-0.05822818,0.2844042,-3.859821,29.91
5,0.009994507,0.05319214,0.9985199,1.0,0.009994507,0.0532074,0.9985199,-29.65729,2.080399,-26.627,4.450638,0.4257862,0.4863049,1.0,0.02912903,0.01763916,0.9994049,31.81122,4.146896,-28.13046,4.508072,0.5252614,0.4347185,0.01156151,1.184944,-0.3106935,-0.08333398,-0.3496366,-0.06017224,0.2844042,-3.859821,29.91
5,0.009994507,0.05319214,0.9985199,1.0,0.009994507,0.0532074,0.9985199,-29.65729,2.080399,-26.627,4.450638,0.4257862,0.4863049,1.0,0.02912903,0.01763916,0.9994049,31.81122,4.146896,-28.13046,4.508072,0.5252614,0.4347185,0.01156151,1.184944,-0.3106935,-0.08333398,-0.3496366,-0.06017224,0.2844042,-3.859821,29.91
5,0.0300293,0.05647278,0.9979401,1.0,0.0300293,0.05647278,0.9979401,-29.57457,2.164246,-26.40065,4.479172,0.4198547,0.48103,1.0,0.04512024,0.01419067,0.9988708,31.98999,4.492401,-29.01204,4.469055,0.5167811,0.431148,0.01090646,1.185211,-0.3120821,-0.0851077,-0.3551039,-0.06127626,0.2844042,-3.859821,29.91
5,0.11763,0.09333801,0.9886475,1.0,0.11763,0.09333801,0.9886475,-28.93472,2.370834,-26.81511,4.62207,0.3838999,0.471833,1.0,0.1484375,0.05296326,0.9874878,32.42058,4.471848,-28.3857,4.523285,0.4843189,0.4200062,0.009940147,1.186259,-0.3147402,-0.08958996,-0.3664813,-0.06335038,0.2844042,-3.859821,29.91
5,0.11763,0.09333801,0.9886475,1.0,0.11763,0.09333801,0.9886475,-28.93472,2.370834,-26.81511,4.62207,0.3838999,0.471833,1.0,0.1484375,0.05296326,0.9874878,32.42058,4.471848,-28.3857,4.523285,0.4843189,0.4200062,0.009940147,1.186259,-0.3147402,-0.08958996,-0.3664813,-0.06335038,0.2844042,-3.859821,29.91
5,0.1703186,0.1188202,0.9781952,1.0,0.1703186,0.1188202,0.9781952,-28.56371,2.582504,-27.10173,4.58252,0.3624258,0.4631324,1.0,0.200119,0.1027985,0.97435,32.64809,4.587875,-28.20912,4.646698,0.4677084,0.4063712,0.009439945,1.1869,-0.3159761,-0.09230737,-0.3720967,-0.06480141,0.2844042,-3.859821,29.91
5,0.1389923,0.09750366,0.9854736,1.0,0.1389923,0.09750366,0.9854736,-28.68996,2.403473,-26.40816,4.55069,0.3724771,0.4664388,1.0,0.1740723,0.09223938,0.9803925,32.57658,4.591736,-28.24223,4.549957,0.4745918,0.4081222,0.008536696,1.187987,-0.3182808,-0.09768105,-0.3824728,-0.0675574,0.2844042,-3.859821,29.91
5,0.1389923,0.09750366,0.9854736,1.0,0.1389923,0.09750366,0.9854736,-28.68996,2.403473,-26.40816,4.55069,0.3724771,0.4664388,1.0,0.1740723,0.09223938,0.9803925,32.57658,4.591736,-28.24223,4.549957,0.4745918,0.4081222,0.008536696,1.187987,-0.3182808,-0.09768105,-0.3824728,-0.0675574,0.2844042,-3.859821,29.91
5,0.1311035,0.07833862,0.988266,1.0,0.1154175,0.09677124,0.9885864,-28.89534,2.290024,-26.16763,4.628662,0.383408,0.46829,1.0,0.1448822,0.06202698,0.9874878,32.48122,4.609894,-28.56111,4.520737,0.482873,0.4152298,0.008249044,1.188439,-0.3192801,-0.1002034,-0.3869308,-0.0686286,0.2844042,-3.859821,29.91
5,0.1311035,0.07833862,0.988266,1.0,0.1154175,0.09677124,0.9885864,-28.89534,2.290024,-26.16763,4.628662,0.383408,0.46829,1.0,0.1448822,0.06202698,0.9874878,32.48122,4.609894,-28.56111,4.520737,0.482873,0.4152298,0.008249044,1.188439,-0.3192801,-0.1002034,-0.3869308,-0.0686286,0.2844042,-3.859821,29.91
5,0.1291199,0.05407715,0.9901428,1.0,0.09500122,0.07279968,0.9927979,-29.14633,2.243439,-26.2751,4.491638,0.3950309,0.4745822,1.0,0.1304626,0.05332947,0.9900055,32.25168,4.257462,-27.60834,4.458145,0.4930128,0.4205113,0.007742643,1.18933,-0.3211615,-0.1044514,-0.3945931,-0.07023808,0.2844042,-3.859821,29.91
5,0.1025696,0.04794312,0.9935608,1.0,0.08818054,0.06910706,0.9936981,-29.2926,2.167908,-26.12021,4.501099,0.4010895,0.4763551,1.0,0.1108246,0.03575134,0.9931946,32.15265,4.275742,-27.76187,4.52301,0.499762,0.4241803,0.007325292,1.190166,-0.3227775,-0.1085673,-0.4009843,-0.07151279,0.2844042,-3.859821,29.91
5,0.1025696,0.04794312,0.9935608,1.0,0.08818054,0.06910706,0.9936981,-29.2926,2.167908,-26.12021,4.501099,0.4010895,0.4763551,1.0,0.1108246,0.03575134,0.9931946,32.15265,4.275742,-27.76187,4.52301,0.499762,0.4241803,0.007325292,1.190166,-0.3227775,-0.1085673,-0.4009843,-0.07151279,0.2844042,-3.859821,29.91
5,0.08029175,0.05686951,0.9951324,1.0,0.07989502,0.05818176,0.9951019,-29.41658,2.153214,-26.06459,4.502945,0.4065874,0.4781674,1.0,0.08773804,0.03172302,0.995636,32.1171,4.434326,-28.394,4.455017,0.5050135,0.4248134,0.007241488,1.190518,-0.3235602,-0.1105709,-0.4037662,-0.07203203,0.2844042,-3.859821,29.91
5,0.06561279,0.05116272,0.996521,1.0,0.06474304,0.05293274,0.9964905,-29.51529,2.098328,-25.95099,4.495773,0.412389,0.4798366,1.0,0.08273315,0.01631165,0.9964294,32.00262,4.348511,-28.13092,4.527542,0.5097202,0.4281524,0.006936193,1.191145,-0.324825,-0.1144702,-0.4079922,-0.07226542,0.2844042,19.01365,29.91
5,0.06561279,0.05116272,0.996521,1.0,0.06474304,0.05293274,0.9964905,-29.51529,2.098328,-25.95099,4.495773,0.412389,0.4798366,1.0,0.08273315,0.01631165,0.9964294,32.00262,4.348511,-28.13092,4.527542,0.5097202,0.4281524,0.006936193,1.191145,-0.324825,-0.1144702,-0.4079922,-0.07226542,0.2844042,19.01365,29.91
5,0.05099487,0.04130554,0.9978333,1.0,0.05099487,0.04130554,0.9978333,-29.60945,2.15976,-26.12152,4.475815,0.417684,0.4812195,1.0,0.09889221,0.03474426,0.9944763,31.74931,3.546295,-25.41933,4.537842,0.51472,0.4289738,0.00684464,1.191465,-0.3253573,-0.1162536,-0.4096284,-0.07219435,0.2844042,19.01365,29.91
5,0.04423523,0.04211426,0.9981232,1.0,0.04423523,0.04211426,0.9981232,-29.66325,2.109024,-26.00552,4.454742,0.4206119,0.4817287,1.0,0.09317017,0.02554321,0.9953156,31.70776,3.53978,-25.38956,4.546616,0.5170504,0.4304599,0.00668788,1.191751,-0.3258474,-0.1182137,-0.4109202,-0.07208694,0.2844042,19.01365,29.91
5,0.03086853,0.02360535,0.9992371,1.0,0.03086853,0.02360535,0.9992371,-29.73827,2.160126,-26.15736,4.432617,0.425218,0.4844157,1.0,0.07554626,0.01976013,0.996933,31.65337,3.598877,-25.6429,4.533234,0.5218779,0.4315667,0.006684065,1.192234,-0.3266106,-0.1217821,-0.4125346,-0.07151768,0.2844042,19.01365,29.91
5,0.03086853,0.02360535,0.9992371,1.0,0.03086853,0.02360535,0.9992371,-29.73827,2.160126,-26.15736,4.432617,0.425218,0.4844157,1.0,0.07554626,0.01976013,0.996933,31.65337,3.598877,-25.6429,4.533234,0.5218779,0.4315667,0.006684065,1.192234,-0.3266106,-0.1217821,-0.4125346,-0.07151768,0.2844042,19.01365,29.91
5,0.02670288,0.01805115,0.9994659,1.0,0.02670288,0.01805115,0.9994659,-29.81378,2.241089,-26.45612,4.321976,0.4282983,0.4852277,1.0,0.06517029,0.006881714,0.9978485,31.62965,3.668381,-25.89842,4.356598,0.5244514,0.4334277,0.006629348,1.192461,-0.3269768,-0.1234066,-0.4130256,-0.07121158,0.2844042,19.01365,29.91
5,0.02059937,0.01863098,0.9996033,1.0,0.02059937,0.01863098,0.9996033,-29.84842,2.192841,-26.31349,4.289063,0.4304936,0.4854641,1.0,0.06570435,0.006378174,0.997818,31.54105,3.514786,-25.34244,4.430817,0.5271211,0.4339832,0.006780267,1.192968,-0.3275639,-0.1267474,-0.4133283,-0.07080311,0.2844042,19.01365,29.91
5,0.02059937,0.01863098,0.9996033,1.0,0.02059937,0.01863098,0.9996033,-29.84842,2.192841,-26.31349,4.289063,0.4304936,0.4854641,1.0,0.06570435,0.006378174,0.997818,31.54105,3.514786,-25.34244,4.430817,0.5271211,0.4339832,0.006780267,1.192968,-0.3275639,-0.1267474,-0.4133283,-0.07080311,0.2844042,19.01365,29.91
5,0.0221405,0.012146,0.9996796,1.0,0.02125549,0.01220703,0.9996948,-29.87054,2.187134,-26.321,4.193527,0.4311083,0.4867004,1.0,0.0743103,0.009033203,0.9971924,31.47318,3.382294,-24.89325,4.405273,0.5277633,0.4341318,0.006780267,1.192968,-0.3275639,-0.1267474,-0.4133283,-0.07080311,0.2844042,19.01365,29.91
5,0.02069092,0.01228333,0.9997101,1.0,0.0206604,0.01229858,0.9997101,-29.88704,2.262009,-26.52425,4.231049,0.4316956,0.4860461,1.0,0.06880188,-0.005477905,0.9976044,31.46629,3.402161,-24.94695,4.419846,0.528926,0.436335,0.007127643,1.193458,-0.3280537,-0.1303152,-0.413122,-0.07013797,0.2844042,19.01365,29.91
5,0.02069092,0.01228333,0.9997101,1.0,0.0206604,0.01229858,0.9997101,-29.88704,2.262009,-26.52425,4.231049,0.4316956,0.4860461,1.0,0.06880188,-0.005477905,0.9976044,31.46629,3.402161,-24.94695,4.419846,0.528926,0.436335,0.007127643,1.193458,-0.3280537,-0.1303152,-0.413122,-0.07013797,0.2844042,19.01365,29.91
5,0.02072144,0.01026917,0.9997253,1.0,0.02072144,0.01026917,0.9997253,-29.89079,2.248718,-26.48787,4.192551,0.4318207,0.4864732,1.0,0.06742859,-0.005142212,0.9976959,31.46854,3.406967,-24.97296,4.408401,0.5290865,0.4363337,0.007336974,1.193886,-0.3284276,-0.133138,-0.4122029,-0.06965745,0.2844042,19.01365,29.91
5,0.02072144,0.01026917,0.9997253,1.0,0.02072144,0.01026917,0.9997253,-29.89079,2.248718,-26.48787,4.192551,0.4318207,0.4864732,1.0,0.06742859,-0.005142212,0.9976959,31.46854,3.406967,-24.97296,4.408401,0.5290865,0.4363337,0.007739425,1.194188,-0.3287437,-0.1354098,-0.4106877,-0.06908382,0.2844042,19.01365,29.91
5,0.02072144,0.01026917,0.9997253,1.0,0.02072144,0.01026917,0.9997253,-29.89079,2.248718,-26.48787,4.192551,0.4318207,0.4864732,1.0,0.06742859,-0.005142212,0.9976959,31.46854,3.406967,-24.97296,4.408401,0.5290865,0.4363337,0.007739425,1.194188,-0.3287437,-0.1354098,-0.4106877,-0.06908382,0.2844042,19.01365,29.91
5,0.02072144,0.01026917,0.9997253,1.0,0.02072144,0.01026917,0.9997253,-29.89079,2.248718,-26.48787,4.192551,0.4318207,0.4864732,1.0,0.06742859,-0.005142212,0.9976959,31.46854,3.406967,-24.97296,4.408401,0.5290865,0.4363337,0.008171797,1.194435,-0.3289469,-0.1372871,-0.4089265,-0.06865638,0.2844042,19.62642,29.91
5,0.02336121,0.004364014,0.9997101,1.0,0.02333069,0.004379272,0.9997101,-29.89737,2.185715,-26.38504,4.117096,0.4316277,0.4885615,1.0,0.06764221,-0.001998901,0.9976959,31.47119,3.365814,-24.94441,4.338104,0.5289273,0.4368797,0.008495331,1.194759,-0.3290743,-0.1393214,-0.4074022,-0.06819788,0.2844042,19.62642,29.91
5,0.02336121,0.004364014,0.9997101,1.0,0.02333069,0.004379272,0.9997101,-29.89737,2.185715,-26.38504,4.117096,0.4316277,0.4885615,1.0,0.06764221,-0.001998901,0.9976959,31.47119,3.365814,-24.94441,4.338104,0.5289273,0.4368797,0.008495331,1.194759,-0.3290743,-0.1393214,-0.4074022,-0.06819788,0.2844042,19.62642,29.91
5,0.01641846,-0.005447388,0.9998474,1.0,0.01641846,-0.005447388,0.9998474,-29.85278,2.109589,-26.28343,4.168854,0.4313011,0.4918329,1.0,0.04493713,-0.02484131,0.9986725,31.61435,3.696396,-26.07527,4.23349,0.5283685,0.4392365,0.008718014,1.19503,-0.3293045,-0.141161,-0.4064039,-0.0682705,0.2844042,19.62642,29.91
5,0.01641846,-0.005447388,0.9998474,1.0,0.01641846,-0.005447388,0.9998474,-29.85278,2.109589,-26.28343,4.168854,0.4313011,0.4918329,1.0,0.04493713,-0.02484131,0.9986725,31.61435,3.696396,-26.07527,4.23349,0.5283685,0.4392365,0.008718014,1.19503,-0.3293045,-0.141161,-0.4064039,-0.0682705,0.2844042,19.62642,29.91
5,0.01049805,-0.02067566,0.9997253,1.0,0.01049805,-0.02067566,0.9997253,-29.7838,2.221237,-26.47372,4.09906,0.4299315,0.4923098,1.0,0.03115845,-0.03741455,0.9988098,31.76128,4.085495,-27.44492,4.133987,0.5262784,0.4400313,0.008997679,1.195189,-0.3294845,-0.1426051,-0.4053581,-0.06832165,0.283123,19.62642,29.91
5,0.01049805,-0.02067566,0.9997253,1.0,0.01049805,-0.02067566,0.9997253,-29.7838,2.221237,-26.47372,4.09906,0.4299315,0.4923098,1.0,0.03115845,-0.03741455,0.9988098,31.76128,4.085495,-27.44492,4.133987,0.5262784,0.4400313,0.008997679,1.195189,-0.3294845,-0.1426051,-0.4053581,-0.06832165,0.283123,19.62642,29.91
5,0.0168457,-0.02546692,0.999527,1.0,0.0168457,-0.02546692,0.999527,-29.77217,2.218781,-26.52222,4.088928,0.4284786,0.4936185,1.0,0.03152466,-0.04325867,0.9985657,31.78032,4.197266,-27.91106,4.170517,0.5257642,0.4413094,0.009443283,1.195311,-0.329517,-0.1430333,-0.4042198,-0.0682731,0.283123,19.62642,29.91
5,0.0168457,-0.02546692,0.999527,1.0,0.0168457,-0.02546692,0.999527,-29.77217,2.218781,-26.52222,4.088928,0.4284786,0.4936185,1.0,0.03152466,-0.04325867,0.9985657,31.78032,4.197266,-27.91106,4.170517,0.5257642,0.4413094,0.009443283,1.195311,-0.329517,-0.1430333,-0.4042198,-0.0682731,0.283123,19.62642,29.91
5,0.0168457,-0.02546692,0.999527,1.0,0.0168457,-0.02546692,0.999527,-29.77217,2.218781,-26.52222,4.088928,0.4284786,0.4936185,1.0,0.03152466,-0.04325867,0.9985657,31.78032,4.197266,-27.91106,4.170517,0.5257642,0.4413094,0.009443283,1.195311,-0.329517,-0.1430333,-0.4042198,-0.0682731,0.283123,19.62642,29.91
5,0.0168457,-0.02546692,0.999527,1.0,0.0168457,-0.02546692,0.999527,-29.77217,2.218781,-26.52222,4.088928,0.4284786,0.4936185,1.0,0.03152466,-0.04325867,0.9985657,31.78032,4.197266,-27.91106,4.170517,0.5257642,0.4413094,0.009744048,1.195325,-0.3295739,-0.1431638,-0.4034283,-0.0685869,0.283123,19.62642,29.91
