Second,eye_comb_direction_x,eye_comb_direction_y,eye_comb_direction_z,eye_r_openness,eye_r_direction_x,eye_r_direction_y,eye_r_direction_z,eye_r_origin_x,eye_r_origin_y,eye_r_origin_z,eye_r_pupil_diameter,eye_r_pupil_position_x,eye_r_pupil_position_y,eye_l_openness,eye_l_direction_x,eye_l_direction_y,eye_l_direction_z,eye_l_origin_x,eye_l_origin_y,eye_l_origin_z,eye_l_pupil_diameter,eye_l_pupil_position_x,eye_l_pupil_position_y,head_position_x,head_position_y,head_position_z,head_rotation_roll,head_rotation_pitch,head_rotation_yaw,EDA,BVP,TMP
0,0.03924561,-0.09477234,0.9947205,0.7299715,-0.03688049,-0.1285095,0.9910126,-35.15804,3.303589,-32.77637,3.903488,0.6435234,0.5347408,0.8186951,0.09350586,-0.07025146,0.9931335,35.82996,4.249023,-30.11108,4.956894,0.378913,0.4563887,0.000815868,1.265518,-0.1501756,-0.03948073,0.7611705,0.03525519,0.1486165,-0.4563102911286088,33.72420472440945
0,0.03924561,-0.09477234,0.9947205,0.7299715,-0.03688049,-0.1285095,0.9910126,-35.15804,3.303589,-32.77637,3.903488,0.6435234,0.5347408,0.8186951,0.09350586,-0.07025146,0.9931335,35.82996,4.249023,-30.11108,4.956894,0.378913,0.4563887,0.000815868,1.265518,-0.1501756,-0.03948073,0.7611705,0.03525519,0.1486165,-0.4563102911286088,33.72420472440945
0,0.03924561,-0.09477234,0.9947205,0.7299715,-0.03688049,-0.1285095,0.9910126,-35.15804,3.303589,-32.77637,3.903488,0.6435234,0.5347408,0.8186951,0.09350586,-0.07025146,0.9931335,35.82996,4.249023,-30.11108,4.956894,0.378913,0.4563887,0.000815868,1.265518,-0.1501756,-0.03948073,0.7611705,0.03525519,0.1486165,-0.4563102911286088,33.72420472440945
0,-0.01576233,-0.1195984,0.992691,0.7209826,-0.03634644,-0.1283569,0.9910583,-35.16122,3.313385,-32.80827,3.902908,0.6436184,0.5346753,0.8228601,0.08811951,-0.07452393,0.9933167,35.83394,4.20517,-29.88664,4.841064,0.3797834,0.4564674,0.000990629,1.265283,-0.1497615,-0.0381097,0.7604298,0.03421901,0.1486165,-0.4563102911286088,33.72420472440945
0,-0.01576233,-0.1195984,0.992691,0.7209826,-0.03634644,-0.1283569,0.9910583,-35.16122,3.313385,-32.80827,3.902908,0.6436184,0.5346753,0.8228601,0.08811951,-0.07452393,0.9933167,35.83394,4.20517,-29.88664,4.841064,0.3797834,0.4564674,0.000990629,1.265283,-0.1497615,-0.0381097,0.7604298,0.03421901,0.1486165,-0.4563102911286088,33.72420472440945
0,-0.01576233,-0.1195984,0.992691,0.7209826,-0.03634644,-0.1283569,0.9910583,-35.16122,3.313385,-32.80827,3.902908,0.6436184,0.5346753,0.8228601,0.08811951,-0.07452393,0.9933167,35.83394,4.20517,-29.88664,4.841064,0.3797834,0.4564674,0.000990629,1.265283,-0.1497615,-0.0381097,0.7604298,0.03421901,0.1486165,-0.4563102911286088,33.72420472440945
0,-0.02157593,-0.1915894,0.9812317,0.7270648,-0.02163696,-0.1916046,0.9812317,-35.03168,3.010834,-32.67542,3.750748,0.6367834,0.5521104,0.8311894,0.1243439,-0.1549683,0.9800568,35.82465,3.831467,-29.28642,4.757156,0.3764583,0.4736865,0.001015663,1.265126,-0.1495481,-0.03754937,0.760121,0.0333101,0.1486165,-0.4563102911286088,33.72420472440945
0,-0.02157593,-0.1915894,0.9812317,0.7270648,-0.02163696,-0.1916046,0.9812317,-35.03168,3.010834,-32.67542,3.750748,0.6367834,0.5521104,0.8311894,0.1243439,-0.1549683,0.9800568,35.82465,3.831467,-29.28642,4.757156,0.3764583,0.4736865,0.001015663,1.265126,-0.1495481,-0.03754937,0.760121,0.0333101,0.1486165,-0.4563102911286088,33.72420472440945
0,-0.02157593,-0.1915894,0.9812317,0.7270648,-0.02163696,-0.1916046,0.9812317,-35.03168,3.010834,-32.67542,3.750748,0.6367834,0.5521104,0.8311894,0.1243439,-0.1549683,0.9800568,35.82465,3.831467,-29.28642,4.757156,0.3764583,0.4736865,0.001015663,1.265126,-0.1495481,-0.03754937,0.760121,0.0333101,0.1486165,-0.4563102911286088,33.72420472440945
0,0.02915955,-0.3258057,0.9449768,0.7890222,0.02896118,-0.3258514,0.9449615,-34.5802,2.508575,-32.99551,3.813004,0.6149319,0.5906768,0.8312686,0.1849823,-0.2906952,0.9387512,35.99631,3.314514,-29.8851,4.762222,0.3620827,0.5130493,0.001298904,1.264958,-0.1491337,-0.03603091,0.759522,0.03208975,0.1486165,-0.4563102911286088,33.72420472440945
0,0.02915955,-0.3258057,0.9449768,0.7890222,0.02896118,-0.3258514,0.9449615,-34.5802,2.508575,-32.99551,3.813004,0.6149319,0.5906768,0.8312686,0.1849823,-0.2906952,0.9387512,35.99631,3.314514,-29.8851,4.762222,0.3620827,0.5130493,0.001298904,1.264958,-0.1491337,-0.03603091,0.759522,0.03208975,0.1486165,-0.4563102911286088,33.72420472440945
0,0.02915955,-0.3258057,0.9449768,0.7890222,0.02896118,-0.3258514,0.9449615,-34.5802,2.508575,-32.99551,3.813004,0.6149319,0.5906768,0.8312686,0.1849823,-0.2906952,0.9387512,35.99631,3.314514,-29.8851,4.762222,0.3620827,0.5130493,0.001298904,1.264958,-0.1491337,-0.03603091,0.759522,0.03208975,0.1486165,-0.4563102911286088,33.72420472440945
0,0.0415802,-0.3637695,0.9305573,0.835315,0.04101563,-0.3638611,0.930542,-34.57024,2.505417,-33.00919,3.710724,0.6129876,0.5961462,0.8307639,0.2337952,-0.3223877,0.9172668,36.01178,3.331665,-29.85677,4.569321,0.3557149,0.5163569,0.00150156,1.264773,-0.148825,-0.03502014,0.7589644,0.03127407,0.1486165,-0.4563102911286088,33.72420472440945
0,0.0415802,-0.3637695,0.9305573,0.835315,0.04101563,-0.3638611,0.930542,-34.57024,2.505417,-33.00919,3.710724,0.6129876,0.5961462,0.8307639,0.2337952,-0.3223877,0.9172668,36.01178,3.331665,-29.85677,4.569321,0.3557149,0.5163569,0.00150156,1.264773,-0.148825,-0.03502014,0.7589644,0.03127407,0.1486165,-0.4563102911286088,33.72420472440945
0,0.0415802,-0.3637695,0.9305573,0.835315,0.04101563,-0.3638611,0.930542,-34.57024,2.505417,-33.00919,3.710724,0.6129876,0.5961462,0.8307639,0.2337952,-0.3223877,0.9172668,36.01178,3.331665,-29.85677,4.569321,0.3557149,0.5163569,0.00150156,1.264773,-0.148825,-0.03502014,0.7589644,0.03127407,0.1486165,-0.4563102911286088,33.72420472440945
0,0.04019165,-0.350296,0.9357605,0.8264078,0.03666687,-0.350647,0.9357758,-34.58102,2.501343,-33.00426,3.70726,0.6138921,0.594425,0.827101,0.2257385,-0.3251953,0.9183044,36.02173,3.339966,-29.8515,4.588287,0.3563466,0.5163569,0.001677036,1.26433,-0.1481844,-0.03348234,0.7578882,0.02976927,0.1486165,-0.4563102911286088,33.72420472440945
0,0.04019165,-0.350296,0.9357605,0.8264078,0.03666687,-0.350647,0.9357758,-34.58102,2.501343,-33.00426,3.70726,0.6138921,0.594425,0.827101,0.2257385,-0.3251953,0.9183044,36.02173,3.339966,-29.8515,4.588287,0.3563466,0.5163569,0.001677036,1.26433,-0.1481844,-0.03348234,0.7578882,0.02976927,0.1486165,-0.4563102911286088,33.72420472440945
0,0.04019165,-0.350296,0.9357605,0.8264078,0.03666687,-0.350647,0.9357758,-34.58102,2.501343,-33.00426,3.70726,0.6138921,0.594425,0.827101,0.2257385,-0.3251953,0.9183044,36.02173,3.339966,-29.8515,4.588287,0.3563466,0.5163569,0.001677036,1.26433,-0.1481844,-0.03348234,0.7578882,0.02976927,0.1486165,-0.4563102911286088,33.72420472440945
0,0.1503754,-0.333252,0.9307556,0.8298215,0.0388031,-0.3487091,0.9364166,-34.59021,2.501205,-33.00406,3.707504,0.6139489,0.594164,0.8166901,0.2233276,-0.3206635,0.9204865,36.03036,3.331665,-29.85677,4.587524,0.3563466,0.5160885,0.001775265,1.26398,-0.1477583,-0.03240271,0.757054,0.02877961,0.1486165,-0.4563102911286088,33.72420472440945
0,0.1503754,-0.333252,0.9307556,0.8298215,0.0388031,-0.3487091,0.9364166,-34.59021,2.501205,-33.00406,3.707504,0.6139489,0.594164,0.8166901,0.2233276,-0.3206635,0.9204865,36.03036,3.331665,-29.85677,4.587524,0.3563466,0.5160885,0.001775265,1.26398,-0.1477583,-0.03240271,0.757054,0.02877961,0.1486165,-0.4563102911286088,33.72420472440945
0,0.1503754,-0.333252,0.9307556,0.8298215,0.0388031,-0.3487091,0.9364166,-34.59021,2.501205,-33.00406,3.707504,0.6139489,0.594164,0.8166901,0.2233276,-0.3206635,0.9204865,36.03036,3.331665,-29.85677,4.587524,0.3563466,0.5160885,0.001775265,1.26398,-0.1477583,-0.03240271,0.757054,0.02877961,0.1486165,-0.4563102911286088,33.72420472440945
0,0.1503754,-0.333252,0.9307556,0.8298215,0.0388031,-0.3487091,0.9364166,-34.59021,2.501205,-33.00406,3.707504,0.6139489,0.594164,0.8166901,0.2233276,-0.3206635,0.9204865,36.03036,3.331665,-29.85677,4.587524,0.3563466,0.5160885,0.001846552,1.263539,-0.1471091,-0.03096967,0.7557556,0.02719964,0.1486165,-0.4563102911286088,33.72420472440945
0,0.1503754,-0.333252,0.9307556,0.8298215,0.0388031,-0.3487091,0.9364166,-34.59021,2.501205,-33.00406,3.707504,0.6139489,0.594164,0.8166901,0.2233276,-0.3206635,0.9204865,36.03036,3.331665,-29.85677,4.587524,0.3563466,0.5160885,0.001846552,1.263539,-0.1471091,-0.03096967,0.7557556,0.02719964,0.1486165,-0.4563102911286088,33.72420472440945
0,0.1503754,-0.333252,0.9307556,0.8298215,0.0388031,-0.3487091,0.9364166,-34.59021,2.501205,-33.00406,3.707504,0.6139489,0.594164,0.8166901,0.2233276,-0.3206635,0.9204865,36.03036,3.331665,-29.85677,4.587524,0.3563466,0.5160885,0.001846552,1.263539,-0.1471091,-0.03096967,0.7557556,0.02719964,0.1486165,-0.4563102911286088,33.72420472440945
0,0.1330872,-0.3282013,0.9351807,0.834967,0.03547668,-0.347641,0.9369507,-34.59523,2.505417,-33.0034,3.715698,0.6145605,0.5938621,0.824134,0.2073517,-0.3110199,0.9274902,36.08607,3.296417,-29.87813,4.583633,0.3563466,0.5161942,0.001937628,1.263057,-0.1464967,-0.02918029,0.7543312,0.02575409,0.1486165,-0.4563102911286088,33.72420472440945
0,0.1330872,-0.3282013,0.9351807,0.834967,0.03547668,-0.347641,0.9369507,-34.59523,2.505417,-33.0034,3.715698,0.6145605,0.5938621,0.824134,0.2073517,-0.3110199,0.9274902,36.08607,3.296417,-29.87813,4.583633,0.3563466,0.5161942,0.001937628,1.263057,-0.1464967,-0.02918029,0.7543312,0.02575409,0.1486165,-0.4563102911286088,33.72420472440945
0,0.1330872,-0.3282013,0.9351807,0.834967,0.03547668,-0.347641,0.9369507,-34.59523,2.505417,-33.0034,3.715698,0.6145605,0.5938621,0.824134,0.2073517,-0.3110199,0.9274902,36.08607,3.296417,-29.87813,4.583633,0.3563466,0.5161942,0.001937628,1.263057,-0.1464967,-0.02918029,0.7543312,0.02575409,0.1486165,-0.4563102911286088,33.72420472440945
1,0.1330872,-0.3282013,0.9351807,0.834967,0.03547668,-0.347641,0.9369507,-34.59523,2.505417,-33.0034,3.715698,0.6145605,0.5938621,0.824134,0.2073517,-0.3110199,0.9274902,36.08607,3.296417,-29.87813,4.583633,0.3563466,0.5161942,0.002040863,1.262761,-0.1459635,-0.02778957,0.7529004,0.02496704,0.1486165,-0.4563102911286088,33.72420472440945
1,0.1330872,-0.3282013,0.9351807,0.834967,0.03547668,-0.347641,0.9369507,-34.59523,2.505417,-33.0034,3.715698,0.6145605,0.5938621,0.824134,0.2073517,-0.3110199,0.9274902,36.08607,3.296417,-29.87813,4.583633,0.3563466,0.5161942,0.002040863,1.262761,-0.1459635,-0.02778957,0.7529004,0.02496704,0.1486165,-0.4563102911286088,33.72420472440945
1,0.1330872,-0.3282013,0.9351807,0.834967,0.03547668,-0.347641,0.9369507,-34.59523,2.505417,-33.0034,3.715698,0.6145605,0.5938621,0.824134,0.2073517,-0.3110199,0.9274902,36.08607,3.296417,-29.87813,4.583633,0.3563466,0.5161942,0.002040863,1.262761,-0.1459635,-0.02778957,0.7529004,0.02496704,0.1486165,-0.4563102911286088,33.72420472440945
1,0.1218719,-0.3015442,0.9456177,0.834967,0.008514404,-0.3197632,0.9474487,-34.72609,2.606995,-32.97026,3.47702,0.6222446,0.5861102,0.824134,0.1914673,-0.2882385,0.9382172,36.04166,3.429184,-29.83623,4.268875,0.3602113,0.508379,0.001936197,1.262552,-0.145645,-0.02707238,0.7520254,0.02443755,0.1486165,6.401855,33.72420472440945
1,0.1218719,-0.3015442,0.9456177,0.834967,0.008514404,-0.3197632,0.9474487,-34.72609,2.606995,-32.97026,3.47702,0.6222446,0.5861102,0.824134,0.1914673,-0.2882385,0.9382172,36.04166,3.429184,-29.83623,4.268875,0.3602113,0.508379,0.001936197,1.262552,-0.145645,-0.02707238,0.7520254,0.02443755,0.1486165,6.401855,33.72420472440945
1,0.1218719,-0.3015442,0.9456177,0.834967,0.008514404,-0.3197632,0.9474487,-34.72609,2.606995,-32.97026,3.47702,0.6222446,0.5861102,0.824134,0.1914673,-0.2882385,0.9382172,36.04166,3.429184,-29.83623,4.268875,0.3602113,0.508379,0.001936197,1.262552,-0.145645,-0.02707238,0.7520254,0.02443755,0.1486165,6.401855,33.72420472440945
1,0.1333923,-0.2755432,0.9519806,0.8160292,0.0349884,-0.309082,0.9503784,-34.66721,2.709015,-32.94543,3.460114,0.61669,0.5808187,0.8276742,0.1858978,-0.2562103,0.9485626,36.10477,3.492966,-29.84473,4.262177,0.3588075,0.5021955,0.001980782,1.262337,-0.1450811,-0.02594217,0.7503449,0.02347244,0.1486165,6.401855,33.72420472440945
1,0.1333923,-0.2755432,0.9519806,0.8160292,0.0349884,-0.309082,0.9503784,-34.66721,2.709015,-32.94543,3.460114,0.61669,0.5808187,0.8276742,0.1858978,-0.2562103,0.9485626,36.10477,3.492966,-29.84473,4.262177,0.3588075,0.5021955,0.001980782,1.262337,-0.1450811,-0.02594217,0.7503449,0.02347244,0.1486165,6.401855,33.72420472440945
1,0.1333923,-0.2755432,0.9519806,0.8160292,0.0349884,-0.309082,0.9503784,-34.66721,2.709015,-32.94543,3.460114,0.61669,0.5808187,0.8276742,0.1858978,-0.2562103,0.9485626,36.10477,3.492966,-29.84473,4.262177,0.3588075,0.5021955,0.001980782,1.262337,-0.1450811,-0.02594217,0.7503449,0.02347244,0.1486165,6.401855,33.72420472440945
1,0.1333923,-0.2755432,0.9519806,0.8160292,0.0349884,-0.309082,0.9503784,-34.66721,2.709015,-32.94543,3.460114,0.61669,0.5808187,0.8276742,0.1858978,-0.2562103,0.9485626,36.10477,3.492966,-29.84473,4.262177,0.3588075,0.5021955,0.001922607,1.262121,-0.1447039,-0.02529036,0.7490901,0.02233887,0.1486165,6.401855,33.72420472440945
1,0.1333923,-0.2755432,0.9519806,0.8160292,0.0349884,-0.309082,0.9503784,-34.66721,2.709015,-32.94543,3.460114,0.61669,0.5808187,0.8276742,0.1858978,-0.2562103,0.9485626,36.10477,3.492966,-29.84473,4.262177,0.3588075,0.5021955,0.001922607,1.262121,-0.1447039,-0.02529036,0.7490901,0.02233887,0.1486165,6.401855,33.72420472440945
1,0.1333923,-0.2755432,0.9519806,0.8160292,0.0349884,-0.309082,0.9503784,-34.66721,2.709015,-32.94543,3.460114,0.61669,0.5808187,0.8276742,0.1858978,-0.2562103,0.9485626,36.10477,3.492966,-29.84473,4.262177,0.3588075,0.5021955,0.001922607,1.262121,-0.1447039,-0.02529036,0.7490901,0.02233887,0.1486165,6.401855,33.72420472440945
1,0.1333923,-0.2755432,0.9519806,0.8160292,0.0349884,-0.309082,0.9503784,-34.66721,2.709015,-32.94543,3.460114,0.61669,0.5808187,0.8276742,0.1858978,-0.2562103,0.9485626,36.10477,3.492966,-29.84473,4.262177,0.3588075,0.5021955,0.001864195,1.261773,-0.144026,-0.02434974,0.7470462,0.0200814,0.1486165,6.401855,33.72420472440945
1,0.1333923,-0.2755432,0.9519806,0.8160292,0.0349884,-0.309082,0.9503784,-34.66721,2.709015,-32.94543,3.460114,0.61669,0.5808187,0.8276742,0.1858978,-0.2562103,0.9485626,36.10477,3.492966,-29.84473,4.262177,0.3588075,0.5021955,0.001864195,1.261773,-0.144026,-0.02434974,0.7470462,0.0200814,0.1486165,6.401855,33.72420472440945
1,0.1333923,-0.2755432,0.9519806,0.8160292,0.0349884,-0.309082,0.9503784,-34.66721,2.709015,-32.94543,3.460114,0.61669,0.5808187,0.8276742,0.1858978,-0.2562103,0.9485626,36.10477,3.492966,-29.84473,4.262177,0.3588075,0.5021955,0.001864195,1.261773,-0.144026,-0.02434974,0.7470462,0.0200814,0.1486165,6.401855,33.72420472440945
1,0.1386566,-0.2518463,0.9577789,0.8160292,0.03210449,-0.2684479,0.9627533,-34.58673,2.849106,-32.92334,3.516083,0.6141663,0.570161,0.8276742,0.2004547,-0.2407379,0.9496613,36.16191,3.673676,-29.81238,4.264267,0.3552065,0.4938019,0.001813173,1.261418,-0.1434426,-0.02367802,0.7450382,0.01811644,0.1486165,6.401855,33.72420472440945
1,0.1386566,-0.2518463,0.9577789,0.8160292,0.03210449,-0.2684479,0.9627533,-34.58673,2.849106,-32.92334,3.516083,0.6141663,0.570161,0.8276742,0.2004547,-0.2407379,0.9496613,36.16191,3.673676,-29.81238,4.264267,0.3552065,0.4938019,0.001813173,1.261418,-0.1434426,-0.02367802,0.7450382,0.01811644,0.1486165,6.401855,33.72420472440945
1,0.1386566,-0.2518463,0.9577789,0.8160292,0.03210449,-0.2684479,0.9627533,-34.58673,2.849106,-32.92334,3.516083,0.6141663,0.570161,0.8276742,0.2004547,-0.2407379,0.9496613,36.16191,3.673676,-29.81238,4.264267,0.3552065,0.4938019,0.001813173,1.261418,-0.1434426,-0.02367802,0.7450382,0.01811644,0.1486165,6.401855,33.72420472440945
1,0.1386566,-0.2518463,0.9577789,0.8160292,0.03210449,-0.2684479,0.9627533,-34.58673,2.849106,-32.92334,3.516083,0.6141663,0.570161,0.8276742,0.2004547,-0.2407379,0.9496613,36.16191,3.673676,-29.81238,4.264267,0.3552065,0.4938019,0.001772404,1.26083,-0.1423774,-0.02215215,0.7412543,0.01440662,0.1486165,6.401855,33.72420472440945
1,0.1386566,-0.2518463,0.9577789,0.8160292,0.03210449,-0.2684479,0.9627533,-34.58673,2.849106,-32.92334,3.516083,0.6141663,0.570161,0.8276742,0.2004547,-0.2407379,0.9496613,36.16191,3.673676,-29.81238,4.264267,0.3552065,0.4938019,0.001772404,1.26083,-0.1423774,-0.02215215,0.7412543,0.01440662,0.1486165,6.401855,33.72420472440945
1,0.1386566,-0.2518463,0.9577789,0.8160292,0.03210449,-0.2684479,0.9627533,-34.58673,2.849106,-32.92334,3.516083,0.6141663,0.570161,0.8276742,0.2004547,-0.2407379,0.9496613,36.16191,3.673676,-29.81238,4.264267,0.3552065,0.4938019,0.001772404,1.26083,-0.1423774,-0.02215215,0.7412543,0.01440662,0.1486165,6.401855,33.72420472440945
1,0.0771637,-0.1389618,0.9872742,0.8160292,0.06109619,-0.1429596,0.9878387,-34.45613,3.463852,-33.69714,3.51889,0.6067055,0.5394148,0.8276742,0.2100372,-0.1043091,0.9721069,36.23325,3.931381,-28.99844,4.304214,0.3530711,0.4614783,0.001863003,1.260339,-0.1415136,-0.02100603,0.7384767,0.01194918,0.1486165,-6.865234,33.72420472440945
1,0.0771637,-0.1389618,0.9872742,0.8160292,0.06109619,-0.1429596,0.9878387,-34.45613,3.463852,-33.69714,3.51889,0.6067055,0.5394148,0.8276742,0.2100372,-0.1043091,0.9721069,36.23325,3.931381,-28.99844,4.304214,0.3530711,0.4614783,0.001863003,1.260339,-0.1415136,-0.02100603,0.7384767,0.01194918,0.1486165,-6.865234,33.72420472440945
1,0.0771637,-0.1389618,0.9872742,0.8160292,0.06109619,-0.1429596,0.9878387,-34.45613,3.463852,-33.69714,3.51889,0.6067055,0.5394148,0.8276742,0.2100372,-0.1043091,0.9721069,36.23325,3.931381,-28.99844,4.304214,0.3530711,0.4614783,0.001863003,1.260339,-0.1415136,-0.02100603,0.7384767,0.01194918,0.1486165,-6.865234,33.72420472440945
1,0.1726074,-0.05174255,0.9836273,0.7480071,0.1388855,-0.06954956,0.987854,-33.86243,3.847473,-33.37839,3.417908,0.5752661,0.5136564,0.8827522,0.3105316,0.02339172,0.9502716,36.76501,4.431915,-29.79971,4.188065,0.3212606,0.4355457,0.001976728,1.259563,-0.14003,-0.01920523,0.733591,0.00825533,0.1486165,-6.865234,33.72420472440945
1,0.1726074,-0.05174255,0.9836273,0.7480071,0.1388855,-0.06954956,0.987854,-33.86243,3.847473,-33.37839,3.417908,0.5752661,0.5136564,0.8827522,0.3105316,0.02339172,0.9502716,36.76501,4.431915,-29.79971,4.188065,0.3212606,0.4355457,0.001976728,1.259563,-0.14003,-0.01920523,0.733591,0.00825533,0.1486165,-6.865234,33.72420472440945
1,0.1726074,-0.05174255,0.9836273,0.7480071,0.1388855,-0.06954956,0.987854,-33.86243,3.847473,-33.37839,3.417908,0.5752661,0.5136564,0.8827522,0.3105316,0.02339172,0.9502716,36.76501,4.431915,-29.79971,4.188065,0.3212606,0.4355457,0.001976728,1.259563,-0.14003,-0.01920523,0.733591,0.00825533,0.1486165,-6.865234,33.72420472440945
1,0.1991119,-0.03782654,0.9792328,0.7581098,0.1720428,-0.04370117,0.9841156,-33.67934,3.928253,-33.24889,3.501602,0.564665,0.5065714,0.8366126,0.3827057,0.003860474,0.9238586,36.79411,4.551025,-29.76753,4.140961,0.3111232,0.4337674,0.002116919,1.259021,-0.1390055,-0.01785839,0.7299637,0.005675285,0.1486165,-6.865234,33.72420472440945
1,0.1991119,-0.03782654,0.9792328,0.7581098,0.1720428,-0.04370117,0.9841156,-33.67934,3.928253,-33.24889,3.501602,0.564665,0.5065714,0.8366126,0.3827057,0.003860474,0.9238586,36.79411,4.551025,-29.76753,4.140961,0.3111232,0.4337674,0.002116919,1.259021,-0.1390055,-0.01785839,0.7299637,0.005675285,0.1486165,-6.865234,33.72420472440945
1,0.1991119,-0.03782654,0.9792328,0.7581098,0.1720428,-0.04370117,0.9841156,-33.67934,3.928253,-33.24889,3.501602,0.564665,0.5065714,0.8366126,0.3827057,0.003860474,0.9238586,36.79411,4.551025,-29.76753,4.140961,0.3111232,0.4337674,0.002116919,1.259021,-0.1390055,-0.01785839,0.7299637,0.005675285,0.1486165,-6.865234,33.72420472440945
1,0.2189331,0.02227783,0.9754791,0.7581098,0.2044678,0.02110291,0.9786377,-33.58272,3.989594,-33.25607,3.503647,0.5572391,0.4965814,0.8366126,0.4067993,0.03753662,0.912735,36.89325,4.627823,-29.8177,4.158295,0.3043907,0.4275249,0.002271891,1.257697,-0.136322,-0.01552718,0.720392,-8.63e-05,0.1486165,-6.865234,33.72420472440945
1,0.2189331,0.02227783,0.9754791,0.7581098,0.2044678,0.02110291,0.9786377,-33.58272,3.989594,-33.25607,3.503647,0.5572391,0.4965814,0.8366126,0.4067993,0.03753662,0.912735,36.89325,4.627823,-29.8177,4.158295,0.3043907,0.4275249,0.002271891,1.257697,-0.136322,-0.01552718,0.720392,-8.63e-05,0.1486165,-6.865234,33.72420472440945
1,0.2189331,0.02227783,0.9754791,0.7581098,0.2044678,0.02110291,0.9786377,-33.58272,3.989594,-33.25607,3.503647,0.5572391,0.4965814,0.8366126,0.4067993,0.03753662,0.912735,36.89325,4.627823,-29.8177,4.158295,0.3043907,0.4275249,0.002271891,1.257697,-0.136322,-0.01552718,0.720392,-8.63e-05,0.1486165,-6.865234,33.72420472440945
1,0.3089752,0.0430603,0.9500885,0.7876499,0.1588898,-0.002334595,0.9872894,-33.74788,4.064316,-33.31418,3.309036,0.5685019,0.4969886,0.8662678,0.3675537,0.06115723,0.9279785,36.77794,4.632996,-29.77994,4.061279,0.3136356,0.4240555,0.002342463,1.257365,-0.1346079,-0.01524193,0.7141078,-0.000805109,0.1486165,-6.865234,33.72420472440945
1,0.3089752,0.0430603,0.9500885,0.7876499,0.1588898,-0.002334595,0.9872894,-33.74788,4.064316,-33.31418,3.309036,0.5685019,0.4969886,0.8662678,0.3675537,0.06115723,0.9279785,36.77794,4.632996,-29.77994,4.061279,0.3136356,0.4240555,0.002342463,1.257365,-0.1346079,-0.01524193,0.7141078,-0.000805109,0.1486165,-6.865234,33.72420472440945
1,0.3089752,0.0430603,0.9500885,0.7876499,0.1588898,-0.002334595,0.9872894,-33.74788,4.064316,-33.31418,3.309036,0.5685019,0.4969886,0.8662678,0.3675537,0.06115723,0.9279785,36.77794,4.632996,-29.77994,4.061279,0.3136356,0.4240555,0.002342463,1.257365,-0.1346079,-0.01524193,0.7141078,-0.000805109,0.1486165,-6.865234,33.72420472440945
1,0.3089752,0.0430603,0.9500885,0.7876499,0.1588898,-0.002334595,0.9872894,-33.74788,4.064316,-33.31418,3.309036,0.5685019,0.4969886,0.8662678,0.3675537,0.06115723,0.9279785,36.77794,4.632996,-29.77994,4.061279,0.3136356,0.4240555,0.002206802,1.257249,-0.1327667,-0.01584565,0.7074129,-0.000545915,0.1486165,-22.78632,33.72420472440945
1,0.3089752,0.0430603,0.9500885,0.7876499,0.1588898,-0.002334595,0.9872894,-33.74788,4.064316,-33.31418,3.309036,0.5685019,0.4969886,0.8662678,0.3675537,0.06115723,0.9279785,36.77794,4.632996,-29.77994,4.061279,0.3136356,0.4240555,0.002206802,1.257249,-0.1327667,-0.01584565,0.7074129,-0.000545915,0.1486165,-22.78632,33.72420472440945
1,0.3089752,0.0430603,0.9500885,0.7876499,0.1588898,-0.002334595,0.9872894,-33.74788,4.064316,-33.31418,3.309036,0.5685019,0.4969886,0.8662678,0.3675537,0.06115723,0.9279785,36.77794,4.632996,-29.77994,4.061279,0.3136356,0.4240555,0.002206802,1.257249,-0.1327667,-0.01584565,0.7074129,-0.000545915,0.1486165,-22.78632,33.72420472440945
1,0.3141479,0.05314636,0.947876,0.825361,0.1188202,0.003387451,0.9929047,-33.90337,4.551315,-34.96735,3.166077,0.5804266,0.4937267,0.9145029,0.3141479,0.05314636,0.947876,36.64728,4.683136,-29.72765,3.88147,0.3252376,0.4226552,0.00190711,1.257369,-0.131025,-0.01694141,0.7006808,0.00012207,0.1486165,-22.78632,33.72420472440945
1,0.3141479,0.05314636,0.947876,0.825361,0.1188202,0.003387451,0.9929047,-33.90337,4.551315,-34.96735,3.166077,0.5804266,0.4937267,0.9145029,0.3141479,0.05314636,0.947876,36.64728,4.683136,-29.72765,3.88147,0.3252376,0.4226552,0.00190711,1.257369,-0.131025,-0.01694141,0.7006808,0.00012207,0.1486165,-22.78632,33.72420472440945
1,0.3141479,0.05314636,0.947876,0.825361,0.1188202,0.003387451,0.9929047,-33.90337,4.551315,-34.96735,3.166077,0.5804266,0.4937267,0.9145029,0.3141479,0.05314636,0.947876,36.64728,4.683136,-29.72765,3.88147,0.3252376,0.4226552,0.00190711,1.257369,-0.131025,-0.01694141,0.7006808,0.00012207,0.1486165,-22.78632,33.72420472440945
1,0.2651215,0.05819702,0.9624481,0.8312048,0.08746338,0.02362061,0.9958801,-33.91826,4.862228,-36.41873,3.103912,0.5863526,0.4931508,0.9280877,0.2651215,0.05819702,0.9624481,36.62721,4.662155,-29.80357,3.778702,0.3320581,0.4231989,0.001774073,1.257835,-0.1293941,-0.01919709,0.6937888,0.001640018,0.1486165,-22.78632,33.72420472440945
1,0.2651215,0.05819702,0.9624481,0.8312048,0.08746338,0.02362061,0.9958801,-33.91826,4.862228,-36.41873,3.103912,0.5863526,0.4931508,0.9280877,0.2651215,0.05819702,0.9624481,36.62721,4.662155,-29.80357,3.778702,0.3320581,0.4231989,0.001774073,1.257835,-0.1293941,-0.01919709,0.6937888,0.001640018,0.1486165,-22.78632,33.72420472440945
1,0.2651215,0.05819702,0.9624481,0.8312048,0.08746338,0.02362061,0.9958801,-33.91826,4.862228,-36.41873,3.103912,0.5863526,0.4931508,0.9280877,0.2651215,0.05819702,0.9624481,36.62721,4.662155,-29.80357,3.778702,0.3320581,0.4231989,0.001774073,1.257835,-0.1293941,-0.01919709,0.6937888,0.001640018,0.1486165,-22.78632,33.72420472440945
1,0.2651215,0.05819702,0.9624481,0.8312048,0.08746338,0.02362061,0.9958801,-33.91826,4.862228,-36.41873,3.103912,0.5863526,0.4931508,0.9280877,0.2651215,0.05819702,0.9624481,36.62721,4.662155,-29.80357,3.778702,0.3320581,0.4231989,0.001872778,1.258743,-0.1273639,-0.02243273,0.6867992,0.003441863,0.1486165,-22.78632,33.72420472440945
1,0.2651215,0.05819702,0.9624481,0.8312048,0.08746338,0.02362061,0.9958801,-33.91826,4.862228,-36.41873,3.103912,0.5863526,0.4931508,0.9280877,0.2651215,0.05819702,0.9624481,36.62721,4.662155,-29.80357,3.778702,0.3320581,0.4231989,0.001872778,1.258743,-0.1273639,-0.02243273,0.6867992,0.003441863,0.1486165,-22.78632,33.72420472440945
1,0.2651215,0.05819702,0.9624481,0.8312048,0.08746338,0.02362061,0.9958801,-33.91826,4.862228,-36.41873,3.103912,0.5863526,0.4931508,0.9280877,0.2651215,0.05819702,0.9624481,36.62721,4.662155,-29.80357,3.778702,0.3320581,0.4231989,0.001872778,1.258743,-0.1273639,-0.02243273,0.6867992,0.003441863,0.1486165,-22.78632,33.72420472440945
1,0.2557983,0.05421448,0.9651947,0.834323,0.07310486,0.008285522,0.9972839,-33.97618,4.785965,-36.16817,3.117996,0.5900582,0.4955283,0.9291103,0.2557983,0.05421448,0.9651947,36.57478,4.655457,-29.8419,3.732788,0.3350263,0.4241935,0.001604795,1.259509,-0.1257334,-0.02624639,0.6798475,0.005366236,0.1486165,-22.78632,33.72420472440945
1,0.2557983,0.05421448,0.9651947,0.834323,0.07310486,0.008285522,0.9972839,-33.97618,4.785965,-36.16817,3.117996,0.5900582,0.4955283,0.9291103,0.2557983,0.05421448,0.9651947,36.57478,4.655457,-29.8419,3.732788,0.3350263,0.4241935,0.001604795,1.259509,-0.1257334,-0.02624639,0.6798475,0.005366236,0.1486165,-22.78632,33.72420472440945
1,0.2557983,0.05421448,0.9651947,0.834323,0.07310486,0.008285522,0.9972839,-33.97618,4.785965,-36.16817,3.117996,0.5900582,0.4955283,0.9291103,0.2557983,0.05421448,0.9651947,36.57478,4.655457,-29.8419,3.732788,0.3350263,0.4241935,0.001604795,1.259509,-0.1257334,-0.02624639,0.6798475,0.005366236,0.1486165,-22.78632,33.72420472440945
1,0.2557983,0.05421448,0.9651947,0.834323,0.07310486,0.008285522,0.9972839,-33.97618,4.785965,-36.16817,3.117996,0.5900582,0.4955283,0.9291103,0.2557983,0.05421448,0.9651947,36.57478,4.655457,-29.8419,3.732788,0.3350263,0.4241935,0.001367092,1.260289,-0.124285,-0.03040837,0.6731933,0.007699628,0.1486165,17.18311,33.72420472440945
1,0.2557983,0.05421448,0.9651947,0.834323,0.07310486,0.008285522,0.9972839,-33.97618,4.785965,-36.16817,3.117996,0.5900582,0.4955283,0.9291103,0.2557983,0.05421448,0.9651947,36.57478,4.655457,-29.8419,3.732788,0.3350263,0.4241935,0.001367092,1.260289,-0.124285,-0.03040837,0.6731933,0.007699628,0.1486165,17.18311,33.72420472440945
1,0.2557983,0.05421448,0.9651947,0.834323,0.07310486,0.008285522,0.9972839,-33.97618,4.785965,-36.16817,3.117996,0.5900582,0.4955283,0.9291103,0.2557983,0.05421448,0.9651947,36.57478,4.655457,-29.8419,3.732788,0.3350263,0.4241935,0.001367092,1.260289,-0.124285,-0.03040837,0.6731933,0.007699628,0.1486165,17.18311,33.72420472440945
1,0.2555695,0.05531311,0.9651947,0.8456739,0.07255554,0.006088257,0.997345,-34.01448,4.75383,-36.02362,3.059326,0.5912797,0.4955801,0.9311442,0.2555695,0.05531311,0.9651947,36.55421,4.647858,-29.74377,3.825607,0.335847,0.423623,0.000902891,1.26129,-0.1224584,-0.03619781,0.6648352,0.01011086,0.1486165,17.18311,33.72420472440945
1,0.2555695,0.05531311,0.9651947,0.8456739,0.07255554,0.006088257,0.997345,-34.01448,4.75383,-36.02362,3.059326,0.5912797,0.4955801,0.9311442,0.2555695,0.05531311,0.9651947,36.55421,4.647858,-29.74377,3.825607,0.335847,0.423623,0.000902891,1.26129,-0.1224584,-0.03619781,0.6648352,0.01011086,0.1486165,17.18311,33.72420472440945
1,0.2555695,0.05531311,0.9651947,0.8456739,0.07255554,0.006088257,0.997345,-34.01448,4.75383,-36.02362,3.059326,0.5912797,0.4955801,0.9311442,0.2555695,0.05531311,0.9651947,36.55421,4.647858,-29.74377,3.825607,0.335847,0.423623,0.000902891,1.26129,-0.1224584,-0.03619781,0.6648352,0.01011086,0.1486165,17.18311,33.72420472440945
1,0.1725159,0.04325867,0.9840546,0.8456739,0.04101563,0.000946045,0.9991455,-34.23235,4.551712,-35.32817,3.24939,0.6027213,0.4972006,0.9311442,0.1725159,0.04325867,0.9840546,36.39284,5.174683,-31.99597,3.656982,0.3488325,0.4251998,0.000306845,1.262148,-0.1210868,-0.04141756,0.6580992,0.01207478,0.1473353,17.18311,33.72420472440945
1,0.1725159,0.04325867,0.9840546,0.8456739,0.04101563,0.000946045,0.9991455,-34.23235,4.551712,-35.32817,3.24939,0.6027213,0.4972006,0.9311442,0.1725159,0.04325867,0.9840546,36.39284,5.174683,-31.99597,3.656982,0.3488325,0.4251998,0.000306845,1.262148,-0.1210868,-0.04141756,0.6580992,0.01207478,0.1473353,17.18311,33.72420472440945
1,0.1725159,0.04325867,0.9840546,0.8456739,0.04101563,0.000946045,0.9991455,-34.23235,4.551712,-35.32817,3.24939,0.6027213,0.4972006,0.9311442,0.1725159,0.04325867,0.9840546,36.39284,5.174683,-31.99597,3.656982,0.3488325,0.4251998,0.000306845,1.262148,-0.1210868,-0.04141756,0.6580992,0.01207478,0.1473353,17.18311,33.72420472440945
1,0.02340698,0.05918884,0.9979706,0.8430675,0.02340698,0.05918884,0.9979706,-34.32233,4.622635,-34.52858,3.238129,0.6073056,0.4800117,0.9704681,0.168808,0.08702087,0.9817963,36.21658,5.558517,-32.24355,3.777588,0.3548644,0.4085006,1.43e-06,1.262494,-0.120585,-0.04370731,0.6550025,0.01314964,0.1473353,17.18311,33.72420472440945
1,0.02340698,0.05918884,0.9979706,0.8430675,0.02340698,0.05918884,0.9979706,-34.32233,4.622635,-34.52858,3.238129,0.6073056,0.4800117,0.9704681,0.168808,0.08702087,0.9817963,36.21658,5.558517,-32.24355,3.777588,0.3548644,0.4085006,1.43e-06,1.262494,-0.120585,-0.04370731,0.6550025,0.01314964,0.1473353,17.18311,33.72420472440945
1,0.02340698,0.05918884,0.9979706,0.8430675,0.02340698,0.05918884,0.9979706,-34.32233,4.622635,-34.52858,3.238129,0.6073056,0.4800117,0.9704681,0.168808,0.08702087,0.9817963,36.21658,5.558517,-32.24355,3.777588,0.3548644,0.4085006,1.43e-06,1.262494,-0.120585,-0.04370731,0.6550025,0.01314964,0.1473353,17.18311,33.72420472440945
1,0.02340698,0.05918884,0.9979706,0.8430675,0.02340698,0.05918884,0.9979706,-34.32233,4.622635,-34.52858,3.238129,0.6073056,0.4800117,0.9704681,0.168808,0.08702087,0.9817963,36.21658,5.558517,-32.24355,3.777588,0.3548644,0.4085006,-0.000454426,1.262765,-0.1202087,-0.0456879,0.652292,0.01393528,0.1473353,17.18311,33.72420472440945
1,0.02340698,0.05918884,0.9979706,0.8430675,0.02340698,0.05918884,0.9979706,-34.32233,4.622635,-34.52858,3.238129,0.6073056,0.4800117,0.9704681,0.168808,0.08702087,0.9817963,36.21658,5.558517,-32.24355,3.777588,0.3548644,0.4085006,-0.000454426,1.262765,-0.1202087,-0.0456879,0.652292,0.01393528,0.1473353,17.18311,33.72420472440945
1,0.02340698,0.05918884,0.9979706,0.8430675,0.02340698,0.05918884,0.9979706,-34.32233,4.622635,-34.52858,3.238129,0.6073056,0.4800117,0.9704681,0.168808,0.08702087,0.9817963,36.21658,5.558517,-32.24355,3.777588,0.3548644,0.4085006,-0.000454426,1.262765,-0.1202087,-0.0456879,0.652292,0.01393528,0.1473353,17.18311,33.72420472440945
1,0.09602356,0.05001831,0.9941101,0.8445843,-0.04411316,0.0496521,0.9977875,-34.65279,4.483673,-35.31004,3.103439,0.6287327,0.4930787,0.9846221,0.09864807,0.05001831,0.9938507,35.91312,5.153519,-31.38327,3.838425,0.3752902,0.4205365,-0.001795053,1.263632,-0.119459,-0.0528728,0.6454909,0.0162032,0.1473353,8.504761,33.72420472440945
1,0.09602356,0.05001831,0.9941101,0.8445843,-0.04411316,0.0496521,0.9977875,-34.65279,4.483673,-35.31004,3.103439,0.6287327,0.4930787,0.9846221,0.09864807,0.05001831,0.9938507,35.91312,5.153519,-31.38327,3.838425,0.3752902,0.4205365,-0.001795053,1.263632,-0.119459,-0.0528728,0.6454909,0.0162032,0.1473353,8.504761,33.72420472440945
1,0.09602356,0.05001831,0.9941101,0.8445843,-0.04411316,0.0496521,0.9977875,-34.65279,4.483673,-35.31004,3.103439,0.6287327,0.4930787,0.9846221,0.09864807,0.05001831,0.9938507,35.91312,5.153519,-31.38327,3.838425,0.3752902,0.4205365,-0.001795053,1.263632,-0.119459,-0.0528728,0.6454909,0.0162032,0.1473353,8.504761,33.72420472440945
1,0.09719849,0.03964233,0.9944611,0.848215,-0.04138184,0.01123047,0.9990692,-34.80534,4.104248,-33.79732,3.159546,0.6318622,0.4976806,0.9746866,0.09719849,0.03964233,0.9944611,35.86282,5.020996,-30.99698,3.771194,0.3777366,0.4232166,-0.002408743,1.263669,-0.119647,-0.05452124,0.6446493,0.01661435,0.1473353,8.504761,33.72420472440945
1,0.09719849,0.03964233,0.9944611,0.848215,-0.04138184,0.01123047,0.9990692,-34.80534,4.104248,-33.79732,3.159546,0.6318622,0.4976806,0.9746866,0.09719849,0.03964233,0.9944611,35.86282,5.020996,-30.99698,3.771194,0.3777366,0.4232166,-0.002408743,1.263669,-0.119647,-0.05452124,0.6446493,0.01661435,0.1473353,8.504761,33.72420472440945
1,0.09719849,0.03964233,0.9944611,0.848215,-0.04138184,0.01123047,0.9990692,-34.80534,4.104248,-33.79732,3.159546,0.6318622,0.4976806,0.9746866,0.09719849,0.03964233,0.9944611,35.86282,5.020996,-30.99698,3.771194,0.3777366,0.4232166,-0.002408743,1.263669,-0.119647,-0.05452124,0.6446493,0.01661435,0.1473353,8.504761,33.72420472440945
1,0.09719849,0.03964233,0.9944611,0.848215,-0.04138184,0.01123047,0.9990692,-34.80534,4.104248,-33.79732,3.159546,0.6318622,0.4976806,0.9746866,0.09719849,0.03964233,0.9944611,35.86282,5.020996,-30.99698,3.771194,0.3777366,0.4232166,-0.002745152,1.26377,-0.1199552,-0.05599396,0.6446645,0.01697436,0.1473353,8.504761,33.72420472440945
1,0.09719849,0.03964233,0.9944611,0.848215,-0.04138184,0.01123047,0.9990692,-34.80534,4.104248,-33.79732,3.159546,0.6318622,0.4976806,0.9746866,0.09719849,0.03964233,0.9944611,35.86282,5.020996,-30.99698,3.771194,0.3777366,0.4232166,-0.002745152,1.26377,-0.1199552,-0.05599396,0.6446645,0.01697436,0.1473353,8.504761,33.72420472440945
1,0.09719849,0.03964233,0.9944611,0.848215,-0.04138184,0.01123047,0.9990692,-34.80534,4.104248,-33.79732,3.159546,0.6318622,0.4976806,0.9746866,0.09719849,0.03964233,0.9944611,35.86282,5.020996,-30.99698,3.771194,0.3777366,0.4232166,-0.002745152,1.26377,-0.1199552,-0.05599396,0.6446645,0.01697436,0.1473353,8.504761,33.72420472440945
1,0.09637451,0.02320862,0.9950714,0.8677232,-0.04777527,0.002227783,0.9988403,-34.85371,4.218903,-34.70013,3.168701,0.6357214,0.503014,0.977294,0.09637451,0.02320862,0.9950714,35.77228,4.92894,-30.9023,3.75766,0.3810843,0.4276555,-0.00061655,1.265202,-0.1190761,-0.05681432,0.6450573,0.01776176,0.1473353,-7.656952,33.72420472440945
1,0.09637451,0.02320862,0.9950714,0.8677232,-0.04777527,0.002227783,0.9988403,-34.85371,4.218903,-34.70013,3.168701,0.6357214,0.503014,0.977294,0.09637451,0.02320862,0.9950714,35.77228,4.92894,-30.9023,3.75766,0.3810843,0.4276555,-0.00061655,1.265202,-0.1190761,-0.05681432,0.6450573,0.01776176,0.1473353,-7.656952,33.72420472440945
1,0.09637451,0.02320862,0.9950714,0.8677232,-0.04777527,0.002227783,0.9988403,-34.85371,4.218903,-34.70013,3.168701,0.6357214,0.503014,0.977294,0.09637451,0.02320862,0.9950714,35.77228,4.92894,-30.9023,3.75766,0.3810843,0.4276555,-0.00061655,1.265202,-0.1190761,-0.05681432,0.6450573,0.01776176,0.1473353,-7.656952,33.72420472440945
1,0.09259033,0.01625061,0.9955597,0.8680486,-0.0509491,-0.01342773,0.9985962,-34.87653,4.067215,-34.00749,3.153168,0.6359379,0.5040205,0.9783066,0.09259033,0.01625061,0.9955597,35.76987,4.907013,-30.85735,3.770294,0.3816581,0.4288955,-0.001387119,1.265442,-0.1198644,-0.05796592,0.6469905,0.02011199,0.1473353,-7.656952,33.72420472440945
1,0.09259033,0.01625061,0.9955597,0.8680486,-0.0509491,-0.01342773,0.9985962,-34.87653,4.067215,-34.00749,3.153168,0.6359379,0.5040205,0.9783066,0.09259033,0.01625061,0.9955597,35.76987,4.907013,-30.85735,3.770294,0.3816581,0.4288955,-0.001387119,1.265442,-0.1198644,-0.05796592,0.6469905,0.02011199,0.1473353,-7.656952,33.72420472440945
1,0.09259033,0.01625061,0.9955597,0.8680486,-0.0509491,-0.01342773,0.9985962,-34.87653,4.067215,-34.00749,3.153168,0.6359379,0.5040205,0.9783066,0.09259033,0.01625061,0.9955597,35.76987,4.907013,-30.85735,3.770294,0.3816581,0.4288955,-0.001387119,1.265442,-0.1198644,-0.05796592,0.6469905,0.02011199,0.1473353,-7.656952,33.72420472440945
1,-0.07048035,-0.009368896,0.997467,0.8648509,-0.07058716,-0.009384155,0.9974518,-34.90346,4.130539,-34.6395,3.244354,0.6404665,0.507174,0.9668546,0.08361816,0.01686096,0.9963531,35.75412,4.526779,-29.77452,3.897751,0.3843203,0.4331621,-0.000828981,1.26615,-0.1195529,-0.05875267,0.6480501,0.02162557,0.1473353,-7.656952,33.72420472440945
1,-0.07048035,-0.009368896,0.997467,0.8648509,-0.07058716,-0.009384155,0.9974518,-34.90346,4.130539,-34.6395,3.244354,0.6404665,0.507174,0.9668546,0.08361816,0.01686096,0.9963531,35.75412,4.526779,-29.77452,3.897751,0.3843203,0.4331621,-0.000828981,1.26615,-0.1195529,-0.05875267,0.6480501,0.02162557,0.1473353,-7.656952,33.72420472440945
1,-0.07048035,-0.009368896,0.997467,0.8648509,-0.07058716,-0.009384155,0.9974518,-34.90346,4.130539,-34.6395,3.244354,0.6404665,0.507174,0.9668546,0.08361816,0.01686096,0.9963531,35.75412,4.526779,-29.77452,3.897751,0.3843203,0.4331621,-0.000828981,1.26615,-0.1195529,-0.05875267,0.6480501,0.02162557,0.1473353,-7.656952,33.72420472440945
2,0.04748535,0.006134033,0.9988403,0.8537963,-0.06861877,-0.006561279,0.9976196,-34.90396,4.090622,-34.57179,3.261398,0.6401512,0.5076261,0.9721013,0.07728577,0.009384155,0.9969635,35.75323,4.5215,-29.8237,3.894302,0.3850491,0.4346417,-0.00107646,1.266335,-0.119849,-0.0593836,0.6489154,0.02279302,0.1473353,-7.656952,33.72420472440945
2,0.04748535,0.006134033,0.9988403,0.8537963,-0.06861877,-0.006561279,0.9976196,-34.90396,4.090622,-34.57179,3.261398,0.6401512,0.5076261,0.9721013,0.07728577,0.009384155,0.9969635,35.75323,4.5215,-29.8237,3.894302,0.3850491,0.4346417,-0.00107646,1.266335,-0.119849,-0.0593836,0.6489154,0.02279302,0.1473353,-7.656952,33.72420472440945
2,0.04748535,0.006134033,0.9988403,0.8537963,-0.06861877,-0.006561279,0.9976196,-34.90396,4.090622,-34.57179,3.261398,0.6401512,0.5076261,0.9721013,0.07728577,0.009384155,0.9969635,35.75323,4.5215,-29.8237,3.894302,0.3850491,0.4346417,-0.00107646,1.266335,-0.119849,-0.0593836,0.6489154,0.02279302,0.1473353,-7.656952,33.72420472440945
2,0.03181458,0.003204346,0.9994812,0.8591526,-0.06790161,-0.009735107,0.9976349,-34.90396,4.087616,-34.57829,3.307999,0.6401241,0.5082348,0.963891,0.07443237,0.008743286,0.9971771,35.75198,4.52005,-29.86876,3.89917,0.3853771,0.4351426,-0.00133872,1.266482,-0.1201505,-0.05987123,0.6497209,0.02362999,0.1473353,-7.656952,33.72420472440945
2,0.03181458,0.003204346,0.9994812,0.8591526,-0.06790161,-0.009735107,0.9976349,-34.90396,4.087616,-34.57829,3.307999,0.6401241,0.5082348,0.963891,0.07443237,0.008743286,0.9971771,35.75198,4.52005,-29.86876,3.89917,0.3853771,0.4351426,-0.00133872,1.266482,-0.1201505,-0.05987123,0.6497209,0.02362999,0.1473353,-7.656952,33.72420472440945
2,0.03181458,0.003204346,0.9994812,0.8591526,-0.06790161,-0.009735107,0.9976349,-34.90396,4.087616,-34.57829,3.307999,0.6401241,0.5082348,0.963891,0.07443237,0.008743286,0.9971771,35.75198,4.52005,-29.86876,3.89917,0.3853771,0.4351426,-0.00133872,1.266482,-0.1201505,-0.05987123,0.6497209,0.02362999,0.1473353,-7.656952,33.72420472440945
2,0.03552246,-0.03302002,0.9988098,0.8591526,-0.07220459,-0.02922058,0.9969482,-34.92876,3.942245,-34.30843,3.269836,0.641131,0.5133713,0.963891,0.07609558,-0.03436279,0.9965057,35.75264,4.50972,-30.07317,3.830963,0.3849531,0.4422798,-0.001953363,1.266689,-0.120554,-0.05987403,0.6510794,0.02662295,0.1473353,-30.61606,33.72420472440945
2,0.03552246,-0.03302002,0.9988098,0.8591526,-0.07220459,-0.02922058,0.9969482,-34.92876,3.942245,-34.30843,3.269836,0.641131,0.5133713,0.963891,0.07609558,-0.03436279,0.9965057,35.75264,4.50972,-30.07317,3.830963,0.3849531,0.4422798,-0.001953363,1.266689,-0.120554,-0.05987403,0.6510794,0.02662295,0.1473353,-30.61606,33.72420472440945
2,0.03552246,-0.03302002,0.9988098,0.8591526,-0.07220459,-0.02922058,0.9969482,-34.92876,3.942245,-34.30843,3.269836,0.641131,0.5133713,0.963891,0.07609558,-0.03436279,0.9965057,35.75264,4.50972,-30.07317,3.830963,0.3849531,0.4422798,-0.001953363,1.266689,-0.120554,-0.05987403,0.6510794,0.02662295,0.1473353,-30.61606,33.72420472440945
2,0.03552246,-0.03302002,0.9988098,0.8665137,-0.07220459,-0.02922058,0.9969482,-34.92876,3.942245,-34.30843,3.269836,0.641131,0.5133713,0.9723541,0.07609558,-0.03436279,0.9965057,35.75264,4.50972,-30.07317,3.830963,0.3849531,0.4422798,-0.002168894,1.266647,-0.1207331,-0.05935856,0.651914,0.02783096,0.1473353,-30.61606,33.72420472440945
2,0.03552246,-0.03302002,0.9988098,0.8665137,-0.07220459,-0.02922058,0.9969482,-34.92876,3.942245,-34.30843,3.269836,0.641131,0.5133713,0.9723541,0.07609558,-0.03436279,0.9965057,35.75264,4.50972,-30.07317,3.830963,0.3849531,0.4422798,-0.002168894,1.266647,-0.1207331,-0.05935856,0.651914,0.02783096,0.1473353,-30.61606,33.72420472440945
2,0.03552246,-0.03302002,0.9988098,0.8665137,-0.07220459,-0.02922058,0.9969482,-34.92876,3.942245,-34.30843,3.269836,0.641131,0.5133713,0.9723541,0.07609558,-0.03436279,0.9965057,35.75264,4.50972,-30.07317,3.830963,0.3849531,0.4422798,-0.002168894,1.266647,-0.1207331,-0.05935856,0.651914,0.02783096,0.1473353,-30.61606,33.72420472440945
2,0.03552246,-0.03302002,0.9988098,0.8665137,-0.07220459,-0.02922058,0.9969482,-34.92876,3.942245,-34.30843,3.269836,0.641131,0.5133713,0.9723541,0.07609558,-0.03436279,0.9965057,35.75264,4.50972,-30.07317,3.830963,0.3849531,0.4422798,-0.002324104,1.266812,-0.121,-0.05922751,0.6526111,0.02941743,0.1473353,-30.61606,33.72420472440945
2,0.03552246,-0.03302002,0.9988098,0.8665137,-0.07220459,-0.02922058,0.9969482,-34.92876,3.942245,-34.30843,3.269836,0.641131,0.5133713,0.9723541,0.07609558,-0.03436279,0.9965057,35.75264,4.50972,-30.07317,3.830963,0.3849531,0.4422798,-0.002324104,1.266812,-0.121,-0.05922751,0.6526111,0.02941743,0.1473353,-30.61606,33.72420472440945
2,0.03552246,-0.03302002,0.9988098,0.8665137,-0.07220459,-0.02922058,0.9969482,-34.92876,3.942245,-34.30843,3.269836,0.641131,0.5133713,0.9723541,0.07609558,-0.03436279,0.9965057,35.75264,4.50972,-30.07317,3.830963,0.3849531,0.4422798,-0.002324104,1.266812,-0.121,-0.05922751,0.6526111,0.02941743,0.1473353,-30.61606,33.72420472440945
2,0.06578064,-0.03013611,0.9973755,0.8626797,-0.06060791,-0.0320282,0.9976349,-34.81055,3.917511,-33.84068,3.225647,0.6346281,0.51024,0.9699054,0.08178711,-0.02986145,0.9962006,35.84773,4.59082,-30.16135,3.817062,0.3809325,0.4396191,-0.002400637,1.267006,-0.1212154,-0.05982672,0.6534169,0.0302615,0.1473353,-30.61606,33.72420472440945
2,0.06578064,-0.03013611,0.9973755,0.8626797,-0.06060791,-0.0320282,0.9976349,-34.81055,3.917511,-33.84068,3.225647,0.6346281,0.51024,0.9699054,0.08178711,-0.02986145,0.9962006,35.84773,4.59082,-30.16135,3.817062,0.3809325,0.4396191,-0.002400637,1.267006,-0.1212154,-0.05982672,0.6534169,0.0302615,0.1473353,-30.61606,33.72420472440945
2,0.06578064,-0.03013611,0.9973755,0.8626797,-0.06060791,-0.0320282,0.9976349,-34.81055,3.917511,-33.84068,3.225647,0.6346281,0.51024,0.9699054,0.08178711,-0.02986145,0.9962006,35.84773,4.59082,-30.16135,3.817062,0.3809325,0.4396191,-0.002400637,1.267006,-0.1212154,-0.05982672,0.6534169,0.0302615,0.1473353,-30.61606,33.72420472440945
2,0.06578064,-0.03013611,0.9973755,0.8626797,-0.06060791,-0.0320282,0.9976349,-34.81055,3.917511,-33.84068,3.225647,0.6346281,0.51024,0.9699054,0.08178711,-0.02986145,0.9962006,35.84773,4.59082,-30.16135,3.817062,0.3809325,0.4396191,-0.002475023,1.267086,-0.1213319,-0.06001541,0.6544481,0.03065496,0.1473353,-30.61606,33.72420472440945
2,0.06578064,-0.03013611,0.9973755,0.8626797,-0.06060791,-0.0320282,0.9976349,-34.81055,3.917511,-33.84068,3.225647,0.6346281,0.51024,0.9699054,0.08178711,-0.02986145,0.9962006,35.84773,4.59082,-30.16135,3.817062,0.3809325,0.4396191,-0.002475023,1.267086,-0.1213319,-0.06001541,0.6544481,0.03065496,0.1473353,-30.61606,33.72420472440945
2,0.06578064,-0.03013611,0.9973755,0.8626797,-0.06060791,-0.0320282,0.9976349,-34.81055,3.917511,-33.84068,3.225647,0.6346281,0.51024,0.9699054,0.08178711,-0.02986145,0.9962006,35.84773,4.59082,-30.16135,3.817062,0.3809325,0.4396191,-0.002475023,1.267086,-0.1213319,-0.06001541,0.6544481,0.03065496,0.1473353,-30.61606,33.72420472440945
2,-0.02456665,0.01412964,0.999588,0.8411749,-0.02709961,0.01387024,0.999527,-34.57759,4.362518,-34.91505,3.289627,0.6234862,0.4985044,0.9478719,0.1199188,0.0284729,0.9923706,36.06645,5.009613,-31.07806,3.782593,0.3677584,0.425466,-0.002491713,1.267044,-0.1214605,-0.05988896,0.655372,0.03117111,0.1473353,3.423431,34.91
2,-0.02456665,0.01412964,0.999588,0.8411749,-0.02709961,0.01387024,0.999527,-34.57759,4.362518,-34.91505,3.289627,0.6234862,0.4985044,0.9478719,0.1199188,0.0284729,0.9923706,36.06645,5.009613,-31.07806,3.782593,0.3677584,0.425466,-0.002491713,1.267044,-0.1214605,-0.05988896,0.655372,0.03117111,0.1473353,3.423431,34.91
2,-0.02456665,0.01412964,0.999588,0.8411749,-0.02709961,0.01387024,0.999527,-34.57759,4.362518,-34.91505,3.289627,0.6234862,0.4985044,0.9478719,0.1199188,0.0284729,0.9923706,36.06645,5.009613,-31.07806,3.782593,0.3677584,0.425466,-0.002491713,1.267044,-0.1214605,-0.05988896,0.655372,0.03117111,0.1473353,3.423431,34.91
2,-0.01026917,0.005081177,0.9999237,0.8574641,-0.02449036,0.00239563,0.9996948,-34.60625,4.261292,-34.41922,3.30127,0.6235412,0.499026,0.9491678,0.1205597,0.02972412,0.9922485,36.06737,5.002213,-31.06386,3.71257,0.3677384,0.4253946,-0.002578497,1.266952,-0.1215938,-0.05994715,0.6560399,0.03132323,0.1473353,3.423431,34.91
2,-0.01026917,0.005081177,0.9999237,0.8574641,-0.02449036,0.00239563,0.9996948,-34.60625,4.261292,-34.41922,3.30127,0.6235412,0.499026,0.9491678,0.1205597,0.02972412,0.9922485,36.06737,5.002213,-31.06386,3.71257,0.3677384,0.4253946,-0.002578497,1.266952,-0.1215938,-0.05994715,0.6560399,0.03132323,0.1473353,3.423431,34.91
2,-0.01026917,0.005081177,0.9999237,0.8574641,-0.02449036,0.00239563,0.9996948,-34.60625,4.261292,-34.41922,3.30127,0.6235412,0.499026,0.9491678,0.1205597,0.02972412,0.9922485,36.06737,5.002213,-31.06386,3.71257,0.3677384,0.4253946,-0.002578497,1.266952,-0.1215938,-0.05994715,0.6560399,0.03132323,0.1473353,3.423431,34.91
2,-0.01026917,0.005081177,0.9999237,0.8574641,-0.02449036,0.00239563,0.9996948,-34.60625,4.261292,-34.41922,3.30127,0.6235412,0.499026,0.9491678,0.1205597,0.02972412,0.9922485,36.06737,5.002213,-31.06386,3.71257,0.3677384,0.4253946,-0.002652168,1.266798,-0.1218241,-0.05990805,0.6567116,0.03141408,0.1473353,3.423431,34.91
2,-0.01026917,0.005081177,0.9999237,0.8574641,-0.02449036,0.00239563,0.9996948,-34.60625,4.261292,-34.41922,3.30127,0.6235412,0.499026,0.9491678,0.1205597,0.02972412,0.9922485,36.06737,5.002213,-31.06386,3.71257,0.3677384,0.4253946,-0.002652168,1.266798,-0.1218241,-0.05990805,0.6567116,0.03141408,0.1473353,3.423431,34.91
2,-0.01026917,0.005081177,0.9999237,0.8574641,-0.02449036,0.00239563,0.9996948,-34.60625,4.261292,-34.41922,3.30127,0.6235412,0.499026,0.9491678,0.1205597,0.02972412,0.9922485,36.06737,5.002213,-31.06386,3.71257,0.3677384,0.4253946,-0.002652168,1.266798,-0.1218241,-0.05990805,0.6567116,0.03141408,0.1473353,3.423431,34.91
2,-0.01026917,0.005081177,0.9999237,0.8574641,-0.02449036,0.00239563,0.9996948,-34.60625,4.261292,-34.41922,3.30127,0.6235412,0.499026,0.9491678,0.1205597,0.02972412,0.9922485,36.06737,5.002213,-31.06386,3.71257,0.3677384,0.4253946,-0.002665758,1.266758,-0.1221407,-0.06020505,0.6575036,0.03145437,0.1473353,3.423431,34.91
2,-0.01026917,0.005081177,0.9999237,0.8574641,-0.02449036,0.00239563,0.9996948,-34.60625,4.261292,-34.41922,3.30127,0.6235412,0.499026,0.9491678,0.1205597,0.02972412,0.9922485,36.06737,5.002213,-31.06386,3.71257,0.3677384,0.4253946,-0.002665758,1.266758,-0.1221407,-0.06020505,0.6575036,0.03145437,0.1473353,3.423431,34.91
2,-0.01026917,0.005081177,0.9999237,0.8574641,-0.02449036,0.00239563,0.9996948,-34.60625,4.261292,-34.41922,3.30127,0.6235412,0.499026,0.9491678,0.1205597,0.02972412,0.9922485,36.06737,5.002213,-31.06386,3.71257,0.3677384,0.4253946,-0.002665758,1.266758,-0.1221407,-0.06020505,0.6575036,0.03145437,0.1473353,3.423431,34.91
2,-0.01026917,0.005081177,0.9999237,0.8574641,-0.02449036,0.00239563,0.9996948,-34.60625,4.261292,-34.41922,3.30127,0.6235412,0.499026,0.9491678,0.1205597,0.02972412,0.9922485,36.06737,5.002213,-31.06386,3.71257,0.3677384,0.4253946,-0.00262332,1.266719,-0.1222752,-0.06077912,0.6582265,0.03084323,0.1473353,3.423431,34.91
2,-0.01026917,0.005081177,0.9999237,0.8574641,-0.02449036,0.00239563,0.9996948,-34.60625,4.261292,-34.41922,3.30127,0.6235412,0.499026,0.9491678,0.1205597,0.02972412,0.9922485,36.06737,5.002213,-31.06386,3.71257,0.3677384,0.4253946,-0.00262332,1.266719,-0.1222752,-0.06077912,0.6582265,0.03084323,0.1473353,3.423431,34.91
2,-0.01026917,0.005081177,0.9999237,0.8574641,-0.02449036,0.00239563,0.9996948,-34.60625,4.261292,-34.41922,3.30127,0.6235412,0.499026,0.9491678,0.1205597,0.02972412,0.9922485,36.06737,5.002213,-31.06386,3.71257,0.3677384,0.4253946,-0.00262332,1.266719,-0.1222752,-0.06077912,0.6582265,0.03084323,0.1473353,3.423431,34.91
2,0.003173828,0.05480957,0.9984894,0.8605849,0.003173828,0.05480957,0.9984894,-34.64774,4.251526,-33.78317,3.190201,0.6205699,0.4869428,0.9698514,0.1344299,0.06788635,0.9885864,36.10872,4.764084,-29.4825,3.638336,0.366694,0.4161798,-0.002624512,1.266752,-0.1225787,-0.06117629,0.6588393,0.03104824,0.1473353,7.538269,34.91
2,0.003173828,0.05480957,0.9984894,0.8605849,0.003173828,0.05480957,0.9984894,-34.64774,4.251526,-33.78317,3.190201,0.6205699,0.4869428,0.9698514,0.1344299,0.06788635,0.9885864,36.10872,4.764084,-29.4825,3.638336,0.366694,0.4161798,-0.002624512,1.266752,-0.1225787,-0.06117629,0.6588393,0.03104824,0.1473353,7.538269,34.91
2,0.003173828,0.05480957,0.9984894,0.8605849,0.003173828,0.05480957,0.9984894,-34.64774,4.251526,-33.78317,3.190201,0.6205699,0.4869428,0.9698514,0.1344299,0.06788635,0.9885864,36.10872,4.764084,-29.4825,3.638336,0.366694,0.4161798,-0.002624512,1.266752,-0.1225787,-0.06117629,0.6588393,0.03104824,0.1473353,7.538269,34.91
2,0.004699707,0.04779053,0.9988403,0.8768038,0.004699707,0.04779053,0.9988403,-34.65643,4.262527,-33.89726,3.106812,0.6207204,0.4883699,0.9870374,0.1312561,0.07063293,0.9888153,36.11555,4.775085,-29.58301,3.660828,0.366694,0.4163005,-0.002715349,1.266781,-0.1229556,-0.06155129,0.6593922,0.03111524,0.1473353,7.538269,34.91
2,0.004699707,0.04779053,0.9988403,0.8768038,0.004699707,0.04779053,0.9988403,-34.65643,4.262527,-33.89726,3.106812,0.6207204,0.4883699,0.9870374,0.1312561,0.07063293,0.9888153,36.11555,4.775085,-29.58301,3.660828,0.366694,0.4163005,-0.002715349,1.266781,-0.1229556,-0.06155129,0.6593922,0.03111524,0.1473353,7.538269,34.91
2,0.004699707,0.04779053,0.9988403,0.8768038,0.004699707,0.04779053,0.9988403,-34.65643,4.262527,-33.89726,3.106812,0.6207204,0.4883699,0.9870374,0.1312561,0.07063293,0.9888153,36.11555,4.775085,-29.58301,3.660828,0.366694,0.4163005,-0.002715349,1.266781,-0.1229556,-0.06155129,0.6593922,0.03111524,0.1473353,7.538269,34.91
2,0.1237488,0.06945801,0.9898682,0.8717459,0.000213623,0.0508728,0.998703,-34.65129,4.303207,-34.22343,3.175278,0.6216226,0.4895534,0.9828216,0.1286316,0.07017517,0.9891968,36.11555,4.764084,-29.62453,3.634659,0.3669818,0.4170311,-0.002524853,1.266765,-0.1232892,-0.06172523,0.6601194,0.03062116,0.1473353,7.538269,34.91
2,0.1237488,0.06945801,0.9898682,0.8717459,0.000213623,0.0508728,0.998703,-34.65129,4.303207,-34.22343,3.175278,0.6216226,0.4895534,0.9828216,0.1286316,0.07017517,0.9891968,36.11555,4.764084,-29.62453,3.634659,0.3669818,0.4170311,-0.002524853,1.266765,-0.1232892,-0.06172523,0.6601194,0.03062116,0.1473353,7.538269,34.91
2,0.1237488,0.06945801,0.9898682,0.8717459,0.000213623,0.0508728,0.998703,-34.65129,4.303207,-34.22343,3.175278,0.6216226,0.4895534,0.9828216,0.1286316,0.07017517,0.9891968,36.11555,4.764084,-29.62453,3.634659,0.3669818,0.4170311,-0.002524853,1.266765,-0.1232892,-0.06172523,0.6601194,0.03062116,0.1473353,7.538269,34.91
2,0.1228485,0.05870056,0.9906769,0.8770072,-0.01448059,0.03375244,0.9993134,-34.66338,4.279236,-34.28665,3.092682,0.6238981,0.4930358,0.9873875,0.1280365,0.05961609,0.9899597,36.11243,4.767075,-29.64792,3.628891,0.3671356,0.4183765,-0.00257802,1.26663,-0.1236205,-0.06175479,0.6607618,0.02995975,0.1473353,7.538269,34.91
2,0.1228485,0.05870056,0.9906769,0.8770072,-0.01448059,0.03375244,0.9993134,-34.66338,4.279236,-34.28665,3.092682,0.6238981,0.4930358,0.9873875,0.1280365,0.05961609,0.9899597,36.11243,4.767075,-29.64792,3.628891,0.3671356,0.4183765,-0.00257802,1.26663,-0.1236205,-0.06175479,0.6607618,0.02995975,0.1473353,7.538269,34.91
2,0.1228485,0.05870056,0.9906769,0.8770072,-0.01448059,0.03375244,0.9993134,-34.66338,4.279236,-34.28665,3.092682,0.6238981,0.4930358,0.9873875,0.1280365,0.05961609,0.9899597,36.11243,4.767075,-29.64792,3.628891,0.3671356,0.4183765,-0.00257802,1.26663,-0.1236205,-0.06175479,0.6607618,0.02995975,0.1473353,7.538269,34.91
2,0.09086609,0.04881287,0.9946594,0.8725583,-0.0144043,0.03291321,0.9993439,-34.67117,4.275848,-34.31517,3.028412,0.6241253,0.4934618,0.9714548,0.1284027,0.05438232,0.9902191,36.11183,4.777313,-29.6508,3.598755,0.3671356,0.4186454,-0.002637386,1.26655,-0.1239704,-0.06190367,0.6614239,0.02969961,0.1473353,7.538269,34.91
2,0.09086609,0.04881287,0.9946594,0.8725583,-0.0144043,0.03291321,0.9993439,-34.67117,4.275848,-34.31517,3.028412,0.6241253,0.4934618,0.9714548,0.1284027,0.05438232,0.9902191,36.11183,4.777313,-29.6508,3.598755,0.3671356,0.4186454,-0.002637386,1.26655,-0.1239704,-0.06190367,0.6614239,0.02969961,0.1473353,7.538269,34.91
2,0.09086609,0.04881287,0.9946594,0.8725583,-0.0144043,0.03291321,0.9993439,-34.67117,4.275848,-34.31517,3.028412,0.6241253,0.4934618,0.9714548,0.1284027,0.05438232,0.9902191,36.11183,4.777313,-29.6508,3.598755,0.3671356,0.4186454,-0.002637386,1.26655,-0.1239704,-0.06190367,0.6614239,0.02969961,0.1473353,7.538269,34.91
2,-0.01934814,0.02911377,0.9993744,0.8818412,-0.01934814,0.02911377,0.9993744,-34.6682,4.303116,-34.48666,3.001022,0.6248432,0.4945037,0.9842266,0.1175385,0.05673218,0.9914398,36.0947,5.095062,-31.22765,3.513809,0.3671728,0.4200765,-0.002678394,1.266459,-0.1244002,-0.06195336,0.662154,0.02942161,0.1473353,3.848846,34.91
2,-0.01934814,0.02911377,0.9993744,0.8818412,-0.01934814,0.02911377,0.9993744,-34.6682,4.303116,-34.48666,3.001022,0.6248432,0.4945037,0.9842266,0.1175385,0.05673218,0.9914398,36.0947,5.095062,-31.22765,3.513809,0.3671728,0.4200765,-0.002678394,1.266459,-0.1244002,-0.06195336,0.662154,0.02942161,0.1473353,3.848846,34.91
2,-0.01934814,0.02911377,0.9993744,0.8818412,-0.01934814,0.02911377,0.9993744,-34.6682,4.303116,-34.48666,3.001022,0.6248432,0.4945037,0.9842266,0.1175385,0.05673218,0.9914398,36.0947,5.095062,-31.22765,3.513809,0.3671728,0.4200765,-0.002678394,1.266459,-0.1244002,-0.06195336,0.662154,0.02942161,0.1473353,3.848846,34.91
2,-0.02185059,0.02082825,0.9995422,0.8806311,-0.02185059,0.02082825,0.9995422,-34.66821,4.277634,-34.35481,3.005508,0.6249905,0.4952618,0.9661832,0.1174164,0.05105591,0.9917603,36.09343,5.095062,-31.22765,3.512329,0.3672303,0.4207647,-0.002822876,1.266337,-0.1247851,-0.0621104,0.6629489,0.02930399,0.1473353,3.848846,34.91
2,-0.02185059,0.02082825,0.9995422,0.8806311,-0.02185059,0.02082825,0.9995422,-34.66821,4.277634,-34.35481,3.005508,0.6249905,0.4952618,0.9661832,0.1174164,0.05105591,0.9917603,36.09343,5.095062,-31.22765,3.512329,0.3672303,0.4207647,-0.002822876,1.266337,-0.1247851,-0.0621104,0.6629489,0.02930399,0.1473353,3.848846,34.91
2,-0.02185059,0.02082825,0.9995422,0.8806311,-0.02185059,0.02082825,0.9995422,-34.66821,4.277634,-34.35481,3.005508,0.6249905,0.4952618,0.9661832,0.1174164,0.05105591,0.9917603,36.09343,5.095062,-31.22765,3.512329,0.3672303,0.4207647,-0.002822876,1.266337,-0.1247851,-0.0621104,0.6629489,0.02930399,0.1473353,3.848846,34.91
2,-0.02185059,0.02082825,0.9995422,0.8806311,-0.02185059,0.02082825,0.9995422,-34.66821,4.277634,-34.35481,3.005508,0.6249905,0.4952618,0.9661832,0.1174164,0.05105591,0.9917603,36.09343,5.095062,-31.22765,3.512329,0.3672303,0.4207647,-0.002849579,1.266335,-0.1250945,-0.06232643,0.6637421,0.02935379,0.1473353,3.848846,34.91
2,-0.02185059,0.02082825,0.9995422,0.8806311,-0.02185059,0.02082825,0.9995422,-34.66821,4.277634,-34.35481,3.005508,0.6249905,0.4952618,0.9661832,0.1174164,0.05105591,0.9917603,36.09343,5.095062,-31.22765,3.512329,0.3672303,0.4207647,-0.002849579,1.266335,-0.1250945,-0.06232643,0.6637421,0.02935379,0.1473353,3.848846,34.91
2,-0.02185059,0.02082825,0.9995422,0.8806311,-0.02185059,0.02082825,0.9995422,-34.66821,4.277634,-34.35481,3.005508,0.6249905,0.4952618,0.9661832,0.1174164,0.05105591,0.9917603,36.09343,5.095062,-31.22765,3.512329,0.3672303,0.4207647,-0.002849579,1.266335,-0.1250945,-0.06232643,0.6637421,0.02935379,0.1473353,3.848846,34.91
2,0.1640625,0.06584167,0.9842377,0.8716305,0.02259827,0.06370544,0.9977112,-34.61459,4.073349,-33.25931,3.252274,0.616336,0.4875199,0.973138,0.1640778,0.06584167,0.9842377,36.19493,5.178818,-31.24068,3.551682,0.357868,0.4160989,-0.003034592,1.266194,-0.1253782,-0.06204601,0.6647151,0.02933411,0.1473353,3.848846,34.91
2,0.1640625,0.06584167,0.9842377,0.8716305,0.02259827,0.06370544,0.9977112,-34.61459,4.073349,-33.25931,3.252274,0.616336,0.4875199,0.973138,0.1640778,0.06584167,0.9842377,36.19493,5.178818,-31.24068,3.551682,0.357868,0.4160989,-0.003034592,1.266194,-0.1253782,-0.06204601,0.6647151,0.02933411,0.1473353,3.848846,34.91
2,0.1640625,0.06584167,0.9842377,0.8716305,0.02259827,0.06370544,0.9977112,-34.61459,4.073349,-33.25931,3.252274,0.616336,0.4875199,0.973138,0.1640778,0.06584167,0.9842377,36.19493,5.178818,-31.24068,3.551682,0.357868,0.4160989,-0.003034592,1.266194,-0.1253782,-0.06204601,0.6647151,0.02933411,0.1473353,3.848846,34.91
2,0.1606598,0.05508423,0.9854584,0.8757296,0.02954102,0.05906677,0.9978027,-34.62277,4.076828,-33.36784,3.260498,0.6158995,0.4889785,0.9768988,0.1606598,0.05508423,0.9854584,36.19891,5.1436,-31.17239,3.577133,0.3582076,0.4180837,-0.003155231,1.266183,-0.1255954,-0.06179815,0.6657494,0.0296152,0.1473353,3.848846,34.91
2,0.1606598,0.05508423,0.9854584,0.8757296,0.02954102,0.05906677,0.9978027,-34.62277,4.076828,-33.36784,3.260498,0.6158995,0.4889785,0.9768988,0.1606598,0.05508423,0.9854584,36.19891,5.1436,-31.17239,3.577133,0.3582076,0.4180837,-0.003155231,1.266183,-0.1255954,-0.06179815,0.6657494,0.0296152,0.1473353,3.848846,34.91
2,0.1606598,0.05508423,0.9854584,0.8757296,0.02954102,0.05906677,0.9978027,-34.62277,4.076828,-33.36784,3.260498,0.6158995,0.4889785,0.9768988,0.1606598,0.05508423,0.9854584,36.19891,5.1436,-31.17239,3.577133,0.3582076,0.4180837,-0.003155231,1.266183,-0.1255954,-0.06179815,0.6657494,0.0296152,0.1473353,3.848846,34.91
2,0.1227112,0.0610199,0.9905548,0.8778374,0.03370667,0.0718689,0.9968414,-34.62361,4.120468,-33.64265,3.2686,0.6157669,0.4883403,0.9660494,0.1591644,0.05639648,0.9856262,36.2014,5.139771,-31.17352,3.584778,0.3582975,0.4180738,-0.003268003,1.266149,-0.1258785,-0.06156236,0.6668144,0.02969559,0.1473353,-17.59775,34.91
2,0.1227112,0.0610199,0.9905548,0.8778374,0.03370667,0.0718689,0.9968414,-34.62361,4.120468,-33.64265,3.2686,0.6157669,0.4883403,0.9660494,0.1591644,0.05639648,0.9856262,36.2014,5.139771,-31.17352,3.584778,0.3582975,0.4180738,-0.003268003,1.266149,-0.1258785,-0.06156236,0.6668144,0.02969559,0.1473353,-17.59775,34.91
2,0.1227112,0.0610199,0.9905548,0.8778374,0.03370667,0.0718689,0.9968414,-34.62361,4.120468,-33.64265,3.2686,0.6157669,0.4883403,0.9660494,0.1591644,0.05639648,0.9856262,36.2014,5.139771,-31.17352,3.584778,0.3582975,0.4180738,-0.003268003,1.266149,-0.1258785,-0.06156236,0.6668144,0.02969559,0.1473353,-17.59775,34.91
2,0.157547,0.05787659,0.9858093,0.8860041,0.02560425,0.05703735,0.9980316,-34.62471,4.12384,-33.73357,3.239197,0.6168929,0.4908357,0.9604273,0.1589355,0.05789185,0.9855804,36.20284,5.131836,-31.18939,3.585037,0.3582553,0.4182992,-0.003226519,1.266085,-0.1261614,-0.06105389,0.6678748,0.02973371,0.1473353,-17.59775,34.91
2,0.157547,0.05787659,0.9858093,0.8860041,0.02560425,0.05703735,0.9980316,-34.62471,4.12384,-33.73357,3.239197,0.6168929,0.4908357,0.9604273,0.1589355,0.05789185,0.9855804,36.20284,5.131836,-31.18939,3.585037,0.3582553,0.4182992,-0.003226519,1.266085,-0.1261614,-0.06105389,0.6678748,0.02973371,0.1473353,-17.59775,34.91
2,0.157547,0.05787659,0.9858093,0.8860041,0.02560425,0.05703735,0.9980316,-34.62471,4.12384,-33.73357,3.239197,0.6168929,0.4908357,0.9604273,0.1589355,0.05789185,0.9855804,36.20284,5.131836,-31.18939,3.585037,0.3582553,0.4182992,-0.003226519,1.266085,-0.1261614,-0.06105389,0.6678748,0.02973371,0.1473353,-17.59775,34.91
2,0.1408234,0.04730225,0.9888916,0.8720957,0.01754761,0.04846191,0.9986572,-34.60686,4.246185,-34.21036,3.225006,0.6178597,0.4918542,0.9726378,0.1571503,0.04710388,0.9864349,36.20621,5.102615,-31.16705,3.63092,0.3583417,0.4204747,-0.003449917,1.265916,-0.1264887,-0.06058581,0.6686869,0.02974147,0.1473353,-17.59775,34.91
2,0.1408234,0.04730225,0.9888916,0.8720957,0.01754761,0.04846191,0.9986572,-34.60686,4.246185,-34.21036,3.225006,0.6178597,0.4918542,0.9726378,0.1571503,0.04710388,0.9864349,36.20621,5.102615,-31.16705,3.63092,0.3583417,0.4204747,-0.003449917,1.265916,-0.1264887,-0.06058581,0.6686869,0.02974147,0.1473353,-17.59775,34.91
2,0.1408234,0.04730225,0.9888916,0.8720957,0.01754761,0.04846191,0.9986572,-34.60686,4.246185,-34.21036,3.225006,0.6178597,0.4918542,0.9726378,0.1571503,0.04710388,0.9864349,36.20621,5.102615,-31.16705,3.63092,0.3583417,0.4204747,-0.003449917,1.265916,-0.1264887,-0.06058581,0.6686869,0.02974147,0.1473353,-17.59775,34.91
2,0.1458435,0.0585022,0.9875641,0.8785494,0.00088501,0.04751587,0.9988556,-34.64755,4.295715,-34.21021,3.244385,0.6214774,0.4902025,0.9528011,0.1461182,0.05851746,0.9875183,36.17476,5.042877,-30.88417,3.817368,0.360998,0.4190508,-0.00366354,1.265704,-0.1266754,-0.05987832,0.6693356,0.03036902,0.1473353,-17.59775,34.91
2,0.1458435,0.0585022,0.9875641,0.8785494,0.00088501,0.04751587,0.9988556,-34.64755,4.295715,-34.21021,3.244385,0.6214774,0.4902025,0.9528011,0.1461182,0.05851746,0.9875183,36.17476,5.042877,-30.88417,3.817368,0.360998,0.4190508,-0.00366354,1.265704,-0.1266754,-0.05987832,0.6693356,0.03036902,0.1473353,-17.59775,34.91
2,0.1458435,0.0585022,0.9875641,0.8785494,0.00088501,0.04751587,0.9988556,-34.64755,4.295715,-34.21021,3.244385,0.6214774,0.4902025,0.9528011,0.1461182,0.05851746,0.9875183,36.17476,5.042877,-30.88417,3.817368,0.360998,0.4190508,-0.00366354,1.265704,-0.1266754,-0.05987832,0.6693356,0.03036902,0.1473353,-17.59775,34.91
2,0.07476807,0.06898499,0.9947968,0.8700532,-0.005142212,0.07232666,0.9973602,-34.65875,4.455811,-34.51004,3.311539,0.6231642,0.4841775,0.9645631,0.1197205,0.06689453,0.9905396,36.13203,5.197708,-31.11305,3.888672,0.365432,0.4147151,-0.00369525,1.265632,-0.1267831,-0.0589935,0.6693721,0.03131847,0.1473353,-17.59775,34.91
2,0.07476807,0.06898499,0.9947968,0.8700532,-0.005142212,0.07232666,0.9973602,-34.65875,4.455811,-34.51004,3.311539,0.6231642,0.4841775,0.9645631,0.1197205,0.06689453,0.9905396,36.13203,5.197708,-31.11305,3.888672,0.365432,0.4147151,-0.00369525,1.265632,-0.1267831,-0.0589935,0.6693721,0.03131847,0.1473353,-17.59775,34.91
2,0.07476807,0.06898499,0.9947968,0.8700532,-0.005142212,0.07232666,0.9973602,-34.65875,4.455811,-34.51004,3.311539,0.6231642,0.4841775,0.9645631,0.1197205,0.06689453,0.9905396,36.13203,5.197708,-31.11305,3.888672,0.365432,0.4147151,-0.00369525,1.265632,-0.1267831,-0.0589935,0.6693721,0.03131847,0.1473353,-17.59775,34.91
2,-0.01275635,0.07553101,0.9970551,0.8654458,-0.01275635,0.07553101,0.9970551,-34.65977,4.471619,-34.59149,3.30484,0.6242731,0.4839262,0.9699242,0.1362,0.08717346,0.9868317,36.12727,4.884888,-30.01253,3.861801,0.3649527,0.4141527,-0.002430201,1.266246,-0.1260237,-0.05876066,0.6693963,0.03181601,0.1473353,16.59717,34.91
2,-0.01275635,0.07553101,0.9970551,0.8654458,-0.01275635,0.07553101,0.9970551,-34.65977,4.471619,-34.59149,3.30484,0.6242731,0.4839262,0.9699242,0.1362,0.08717346,0.9868317,36.12727,4.884888,-30.01253,3.861801,0.3649527,0.4141527,-0.002430201,1.266246,-0.1260237,-0.05876066,0.6693963,0.03181601,0.1473353,16.59717,34.91
2,-0.01275635,0.07553101,0.9970551,0.8654458,-0.01275635,0.07553101,0.9970551,-34.65977,4.471619,-34.59149,3.30484,0.6242731,0.4839262,0.9699242,0.1362,0.08717346,0.9868317,36.12727,4.884888,-30.01253,3.861801,0.3649527,0.4141527,-0.002430201,1.266246,-0.1260237,-0.05876066,0.6693963,0.03181601,0.1473353,16.59717,34.91
2,-0.03199768,0.05867004,0.997757,0.8739998,-0.0418396,0.05796814,0.9974365,-34.65062,4.645218,-35.50737,3.248886,0.6288352,0.4881728,0.9734257,0.1126862,0.06838989,0.9912567,36.10052,5.204254,-31.33711,3.84726,0.3670999,0.4160594,-0.002360821,1.266225,-0.1259608,-0.05861727,0.6698925,0.03144703,0.1473353,16.59717,34.91
2,-0.03199768,0.05867004,0.997757,0.8739998,-0.0418396,0.05796814,0.9974365,-34.65062,4.645218,-35.50737,3.248886,0.6288352,0.4881728,0.9734257,0.1126862,0.06838989,0.9912567,36.10052,5.204254,-31.33711,3.84726,0.3670999,0.4160594,-0.002360821,1.266225,-0.1259608,-0.05861727,0.6698925,0.03144703,0.1473353,16.59717,34.91
2,-0.03199768,0.05867004,0.997757,0.8739998,-0.0418396,0.05796814,0.9974365,-34.65062,4.645218,-35.50737,3.248886,0.6288352,0.4881728,0.9734257,0.1126862,0.06838989,0.9912567,36.10052,5.204254,-31.33711,3.84726,0.3670999,0.4160594,-0.002360821,1.266225,-0.1259608,-0.05861727,0.6698925,0.03144703,0.1473353,16.59717,34.91
2,-0.03166199,0.06036377,0.9976654,0.8766119,-0.03204346,0.06036377,0.9976501,-34.65192,4.646957,-35.57773,3.326767,0.6278164,0.488539,0.9736314,0.1111755,0.05862427,0.9920654,36.08983,5.162186,-31.23401,3.842896,0.3677778,0.4178577,-0.00215745,1.266207,-0.1259218,-0.05788302,0.6703442,0.03159228,0.1473353,16.59717,34.91
3,-0.03166199,0.06036377,0.9976654,0.8766119,-0.03204346,0.06036377,0.9976501,-34.65192,4.646957,-35.57773,3.326767,0.6278164,0.488539,0.9736314,0.1111755,0.05862427,0.9920654,36.08983,5.162186,-31.23401,3.842896,0.3677778,0.4178577,-0.00215745,1.266207,-0.1259218,-0.05788302,0.6703442,0.03159228,0.1473353,16.59717,34.91
3,-0.03166199,0.06036377,0.9976654,0.8766119,-0.03204346,0.06036377,0.9976501,-34.65192,4.646957,-35.57773,3.326767,0.6278164,0.488539,0.9736314,0.1111755,0.05862427,0.9920654,36.08983,5.162186,-31.23401,3.842896,0.3677778,0.4178577,-0.00215745,1.266207,-0.1259218,-0.05788302,0.6703442,0.03159228,0.1473353,16.59717,34.91
3,0.1191864,0.06715393,0.9905853,0.8730248,-0.02236938,0.04656982,0.9986572,-34.79152,4.176132,-33.73927,3.348282,0.6291305,0.4903775,0.9629934,0.1193085,0.06716919,0.9905701,36.08754,5.099426,-31.09811,3.875992,0.366996,0.4179205,-0.002001047,1.266181,-0.1258238,-0.05731484,0.670561,0.03168471,0.1473353,16.59717,34.91
3,0.1191864,0.06715393,0.9905853,0.8730248,-0.02236938,0.04656982,0.9986572,-34.79152,4.176132,-33.73927,3.348282,0.6291305,0.4903775,0.9629934,0.1193085,0.06716919,0.9905701,36.08754,5.099426,-31.09811,3.875992,0.366996,0.4179205,-0.002001047,1.266181,-0.1258238,-0.05731484,0.670561,0.03168471,0.1473353,16.59717,34.91
3,0.1191864,0.06715393,0.9905853,0.8730248,-0.02236938,0.04656982,0.9986572,-34.79152,4.176132,-33.73927,3.348282,0.6291305,0.4903775,0.9629934,0.1193085,0.06716919,0.9905701,36.08754,5.099426,-31.09811,3.875992,0.366996,0.4179205,-0.002001047,1.266181,-0.1258238,-0.05731484,0.670561,0.03168471,0.1473353,16.59717,34.91
3,0.119812,0.06620789,0.9905853,0.868395,-0.0221405,0.03871155,0.9989929,-34.80437,4.136169,-33.67284,3.35817,0.6294785,0.4921778,0.9686198,0.119812,0.06620789,0.9905701,36.08638,5.097168,-31.08342,3.876465,0.366996,0.4179963,-0.001857996,1.266186,-0.1257481,-0.05666502,0.6707427,0.03215817,0.1473353,16.59717,34.91
3,0.119812,0.06620789,0.9905853,0.868395,-0.0221405,0.03871155,0.9989929,-34.80437,4.136169,-33.67284,3.35817,0.6294785,0.4921778,0.9686198,0.119812,0.06620789,0.9905701,36.08638,5.097168,-31.08342,3.876465,0.366996,0.4179963,-0.001857996,1.266186,-0.1257481,-0.05666502,0.6707427,0.03215817,0.1473353,16.59717,34.91
3,0.119812,0.06620789,0.9905853,0.868395,-0.0221405,0.03871155,0.9989929,-34.80437,4.136169,-33.67284,3.35817,0.6294785,0.4921778,0.9686198,0.119812,0.06620789,0.9905701,36.08638,5.097168,-31.08342,3.876465,0.366996,0.4179963,-0.001857996,1.266186,-0.1257481,-0.05666502,0.6707427,0.03215817,0.1473353,16.59717,34.91
3,0.1170654,0.05712891,0.9914703,0.8674568,-0.02249146,0.01449585,0.9996338,-34.82182,4.117188,-33.58896,3.328491,0.6299904,0.4950806,0.9532127,0.1170807,0.05712891,0.9914703,36.07901,5.088776,-31.15379,3.875961,0.3674951,0.4199611,-0.001805782,1.266169,-0.125709,-0.05605885,0.6710002,0.03269024,0.1473353,8.907013,34.91
3,0.1170654,0.05712891,0.9914703,0.8674568,-0.02249146,0.01449585,0.9996338,-34.82182,4.117188,-33.58896,3.328491,0.6299904,0.4950806,0.9532127,0.1170807,0.05712891,0.9914703,36.07901,5.088776,-31.15379,3.875961,0.3674951,0.4199611,-0.001805782,1.266169,-0.125709,-0.05605885,0.6710002,0.03269024,0.1473353,8.907013,34.91
3,0.1170654,0.05712891,0.9914703,0.8674568,-0.02249146,0.01449585,0.9996338,-34.82182,4.117188,-33.58896,3.328491,0.6299904,0.4950806,0.9532127,0.1170807,0.05712891,0.9914703,36.07901,5.088776,-31.15379,3.875961,0.3674951,0.4199611,-0.001805782,1.266169,-0.125709,-0.05605885,0.6710002,0.03269024,0.1473353,8.907013,34.91
3,0.1257324,0.05673218,0.9904327,0.8635266,-0.01138306,0.03407288,0.9993439,-34.6638,4.297623,-34.49202,3.33493,0.6241109,0.4944536,0.9498656,0.1399994,0.05905151,0.9883881,36.19412,4.969162,-30.76904,3.89006,0.3611483,0.4206503,-0.001737118,1.266267,-0.1256786,-0.05568587,0.6714867,0.03310897,0.1460541,8.907013,34.91
3,0.1257324,0.05673218,0.9904327,0.8635266,-0.01138306,0.03407288,0.9993439,-34.6638,4.297623,-34.49202,3.33493,0.6241109,0.4944536,0.9498656,0.1399994,0.05905151,0.9883881,36.19412,4.969162,-30.76904,3.89006,0.3611483,0.4206503,-0.001737118,1.266267,-0.1256786,-0.05568587,0.6714867,0.03310897,0.1460541,8.907013,34.91
3,0.1257324,0.05673218,0.9904327,0.8635266,-0.01138306,0.03407288,0.9993439,-34.6638,4.297623,-34.49202,3.33493,0.6241109,0.4944536,0.9498656,0.1399994,0.05905151,0.9883881,36.19412,4.969162,-30.76904,3.89006,0.3611483,0.4206503,-0.001737118,1.266267,-0.1256786,-0.05568587,0.6714867,0.03310897,0.1460541,8.907013,34.91
3,0.1596069,0.07606506,0.9842377,0.8556581,0.02931213,0.03739929,0.9988556,-34.52171,4.198395,-34.10358,3.401047,0.6134049,0.4941641,0.9562046,0.1604462,0.07632446,0.9840851,36.35542,5.044128,-31.17,3.897125,0.3524479,0.4191042,-0.001562834,1.266301,-0.1259949,-0.05536141,0.6727966,0.03373318,0.1460541,8.907013,34.91
3,0.1596069,0.07606506,0.9842377,0.8556581,0.02931213,0.03739929,0.9988556,-34.52171,4.198395,-34.10358,3.401047,0.6134049,0.4941641,0.9562046,0.1604462,0.07632446,0.9840851,36.35542,5.044128,-31.17,3.897125,0.3524479,0.4191042,-0.001562834,1.266301,-0.1259949,-0.05536141,0.6727966,0.03373318,0.1460541,8.907013,34.91
3,0.1596069,0.07606506,0.9842377,0.8556581,0.02931213,0.03739929,0.9988556,-34.52171,4.198395,-34.10358,3.401047,0.6134049,0.4941641,0.9562046,0.1604462,0.07632446,0.9840851,36.35542,5.044128,-31.17,3.897125,0.3524479,0.4191042,-0.001562834,1.266301,-0.1259949,-0.05536141,0.6727966,0.03373318,0.1460541,8.907013,34.91
3,0.1585693,0.06834412,0.9849701,0.8556581,0.03196716,0.03944397,0.998703,-34.52725,4.19278,-34.14282,3.399582,0.6133165,0.4944682,0.9562046,0.1593323,0.06852722,0.9848328,36.35313,5.02475,-31.11029,3.861359,0.3527731,0.4201923,-0.001605988,1.266291,-0.1262618,-0.05481514,0.6738248,0.03385862,0.1460541,8.907013,34.91
3,0.1585693,0.06834412,0.9849701,0.8556581,0.03196716,0.03944397,0.998703,-34.52725,4.19278,-34.14282,3.399582,0.6133165,0.4944682,0.9562046,0.1593323,0.06852722,0.9848328,36.35313,5.02475,-31.11029,3.861359,0.3527731,0.4201923,-0.001605988,1.266291,-0.1262618,-0.05481514,0.6738248,0.03385862,0.1460541,8.907013,34.91
3,0.1585693,0.06834412,0.9849701,0.8556581,0.03196716,0.03944397,0.998703,-34.52725,4.19278,-34.14282,3.399582,0.6133165,0.4944682,0.9562046,0.1593323,0.06852722,0.9848328,36.35313,5.02475,-31.11029,3.861359,0.3527731,0.4201923,-0.001605988,1.266291,-0.1262618,-0.05481514,0.6738248,0.03385862,0.1460541,8.907013,34.91
3,0.1585693,0.06834412,0.9849701,0.8556581,0.03196716,0.03944397,0.998703,-34.52725,4.19278,-34.14282,3.399582,0.6133165,0.4944682,0.9562046,0.1593323,0.06852722,0.9848328,36.35313,5.02475,-31.11029,3.861359,0.3527731,0.4201923,-0.001596928,1.266241,-0.1265869,-0.05434124,0.6749985,0.03359651,0.1460541,8.907013,34.91
3,0.1585693,0.06834412,0.9849701,0.8556581,0.03196716,0.03944397,0.998703,-34.52725,4.19278,-34.14282,3.399582,0.6133165,0.4944682,0.9562046,0.1593323,0.06852722,0.9848328,36.35313,5.02475,-31.11029,3.861359,0.3527731,0.4201923,-0.001596928,1.266241,-0.1265869,-0.05434124,0.6749985,0.03359651,0.1460541,8.907013,34.91
3,0.1585693,0.06834412,0.9849701,0.8556581,0.03196716,0.03944397,0.998703,-34.52725,4.19278,-34.14282,3.399582,0.6133165,0.4944682,0.9562046,0.1593323,0.06852722,0.9848328,36.35313,5.02475,-31.11029,3.861359,0.3527731,0.4201923,-0.001596928,1.266241,-0.1265869,-0.05434124,0.6749985,0.03359651,0.1460541,8.907013,34.91
3,0.1049652,0.03016663,0.9940033,0.861483,0.001495361,0.01725769,0.9998474,-34.5598,4.219391,-34.68654,3.438751,0.6190813,0.5012627,0.9512061,0.1416779,0.03469849,0.9893036,36.32121,4.8181,-30.60017,3.834656,0.3567809,0.427286,-0.001522541,1.26618,-0.126936,-0.05415239,0.6762766,0.03301241,0.1460541,-9.254791,34.91
3,0.1049652,0.03016663,0.9940033,0.861483,0.001495361,0.01725769,0.9998474,-34.5598,4.219391,-34.68654,3.438751,0.6190813,0.5012627,0.9512061,0.1416779,0.03469849,0.9893036,36.32121,4.8181,-30.60017,3.834656,0.3567809,0.427286,-0.001522541,1.26618,-0.126936,-0.05415239,0.6762766,0.03301241,0.1460541,-9.254791,34.91
3,0.1049652,0.03016663,0.9940033,0.861483,0.001495361,0.01725769,0.9998474,-34.5598,4.219391,-34.68654,3.438751,0.6190813,0.5012627,0.9512061,0.1416779,0.03469849,0.9893036,36.32121,4.8181,-30.60017,3.834656,0.3567809,0.427286,-0.001522541,1.26618,-0.126936,-0.05415239,0.6762766,0.03301241,0.1460541,-9.254791,34.91
3,0.08283997,0.02520752,0.9962311,0.8664039,0.005645752,0.008911133,0.999939,-34.60724,4.048401,-33.94421,3.406174,0.6192603,0.5015648,0.9662298,0.1460419,0.03851318,0.9885254,36.3165,4.822922,-30.67653,3.843414,0.3563,0.427286,-0.00152421,1.266203,-0.1272605,-0.05416188,0.6774608,0.03288464,0.1460541,-9.254791,34.91
3,0.08283997,0.02520752,0.9962311,0.8664039,0.005645752,0.008911133,0.999939,-34.60724,4.048401,-33.94421,3.406174,0.6192603,0.5015648,0.9662298,0.1460419,0.03851318,0.9885254,36.3165,4.822922,-30.67653,3.843414,0.3563,0.427286,-0.00152421,1.266203,-0.1272605,-0.05416188,0.6774608,0.03288464,0.1460541,-9.254791,34.91
3,0.08283997,0.02520752,0.9962311,0.8664039,0.005645752,0.008911133,0.999939,-34.60724,4.048401,-33.94421,3.406174,0.6192603,0.5015648,0.9662298,0.1460419,0.03851318,0.9885254,36.3165,4.822922,-30.67653,3.843414,0.3563,0.427286,-0.00152421,1.266203,-0.1272605,-0.05416188,0.6774608,0.03288464,0.1460541,-9.254791,34.91
3,0.09675598,0.02244568,0.9950409,0.8759839,0.003875732,-0.002990723,0.9999847,-34.60658,4.024475,-33.86961,3.33934,0.6192713,0.5031645,0.9726529,0.1458282,0.03590393,0.9886475,36.32248,4.820511,-30.6779,3.829681,0.356127,0.4276851,-0.001397133,1.266256,-0.1274666,-0.05407356,0.6782185,0.03267086,0.1460541,-9.254791,34.91
3,0.09675598,0.02244568,0.9950409,0.8759839,0.003875732,-0.002990723,0.9999847,-34.60658,4.024475,-33.86961,3.33934,0.6192713,0.5031645,0.9726529,0.1458282,0.03590393,0.9886475,36.32248,4.820511,-30.6779,3.829681,0.356127,0.4276851,-0.001397133,1.266256,-0.1274666,-0.05407356,0.6782185,0.03267086,0.1460541,-9.254791,34.91
3,0.09675598,0.02244568,0.9950409,0.8759839,0.003875732,-0.002990723,0.9999847,-34.60658,4.024475,-33.86961,3.33934,0.6192713,0.5031645,0.9726529,0.1458282,0.03590393,0.9886475,36.32248,4.820511,-30.6779,3.829681,0.356127,0.4276851,-0.001397133,1.266256,-0.1274666,-0.05407356,0.6782185,0.03267086,0.1460541,-9.254791,34.91
3,0.09860229,0.0196228,0.9949188,0.8613339,0.004150391,-0.004974365,0.9999695,-34.60397,4.002426,-33.82504,3.339554,0.6190834,0.5037886,0.9676238,0.1446381,0.03164673,0.9889679,36.33232,4.812302,-30.65594,3.793213,0.355995,0.4282672,-0.001344204,1.26619,-0.1276625,-0.05374068,0.6788012,0.03214172,0.1460541,-9.254791,34.91
3,0.09860229,0.0196228,0.9949188,0.8613339,0.004150391,-0.004974365,0.9999695,-34.60397,4.002426,-33.82504,3.339554,0.6190834,0.5037886,0.9676238,0.1446381,0.03164673,0.9889679,36.33232,4.812302,-30.65594,3.793213,0.355995,0.4282672,-0.001344204,1.26619,-0.1276625,-0.05374068,0.6788012,0.03214172,0.1460541,-9.254791,34.91
3,0.09860229,0.0196228,0.9949188,0.8613339,0.004150391,-0.004974365,0.9999695,-34.60397,4.002426,-33.82504,3.339554,0.6190834,0.5037886,0.9676238,0.1446381,0.03164673,0.9889679,36.33232,4.812302,-30.65594,3.793213,0.355995,0.4282672,-0.001344204,1.26619,-0.1276625,-0.05374068,0.6788012,0.03214172,0.1460541,-9.254791,34.91
3,0.09561157,0.008789063,0.9953766,0.873279,0.00630188,-0.01481628,0.9998627,-34.6032,3.992783,-33.79947,3.328964,0.6187347,0.505118,0.9780438,0.1432037,0.02142334,0.9894562,36.33774,4.791611,-30.62462,3.78215,0.3560281,0.4299414,-0.00143075,1.266051,-0.1277629,-0.05378129,0.6790764,0.03162363,0.1460541,-31.37015,34.91
3,0.09561157,0.008789063,0.9953766,0.873279,0.00630188,-0.01481628,0.9998627,-34.6032,3.992783,-33.79947,3.328964,0.6187347,0.505118,0.9780438,0.1432037,0.02142334,0.9894562,36.33774,4.791611,-30.62462,3.78215,0.3560281,0.4299414,-0.00143075,1.266051,-0.1277629,-0.05378129,0.6790764,0.03162363,0.1460541,-31.37015,34.91
3,0.09561157,0.008789063,0.9953766,0.873279,0.00630188,-0.01481628,0.9998627,-34.6032,3.992783,-33.79947,3.328964,0.6187347,0.505118,0.9780438,0.1432037,0.02142334,0.9894562,36.33774,4.791611,-30.62462,3.78215,0.3560281,0.4299414,-0.00143075,1.266051,-0.1277629,-0.05378129,0.6790764,0.03162363,0.1460541,-31.37015,34.91
3,0.02728271,-0.0193634,0.9994354,0.8703842,0.009124756,-0.02511597,0.9996338,-34.60323,3.972763,-33.76466,3.316223,0.6183166,0.5067953,0.9730402,0.1425476,0.0173645,0.989624,36.33774,4.673477,-30.30234,3.79248,0.3565244,0.4318819,-0.001487255,1.265944,-0.127802,-0.05385073,0.6790924,0.03112889,0.1460541,-31.37015,34.91
3,0.02728271,-0.0193634,0.9994354,0.8703842,0.009124756,-0.02511597,0.9996338,-34.60323,3.972763,-33.76466,3.316223,0.6183166,0.5067953,0.9730402,0.1425476,0.0173645,0.989624,36.33774,4.673477,-30.30234,3.79248,0.3565244,0.4318819,-0.001487255,1.265944,-0.127802,-0.05385073,0.6790924,0.03112889,0.1460541,-31.37015,34.91
3,0.02728271,-0.0193634,0.9994354,0.8703842,0.009124756,-0.02511597,0.9996338,-34.60323,3.972763,-33.76466,3.316223,0.6183166,0.5067953,0.9730402,0.1425476,0.0173645,0.989624,36.33774,4.673477,-30.30234,3.79248,0.3565244,0.4318819,-0.001487255,1.265944,-0.127802,-0.05385073,0.6790924,0.03112889,0.1460541,-31.37015,34.91
3,0.014328,-0.02716064,0.999527,0.8684377,0.005905151,-0.02996826,0.999527,-34.60323,3.972763,-33.76466,3.325073,0.6187347,0.5074176,0.9704935,0.1403503,0.01516724,0.989975,36.33694,4.654282,-30.24017,3.816452,0.3568819,0.4323219,-0.001484156,1.265931,-0.1278159,-0.05387264,0.6789268,0.03122006,0.1460541,-31.37015,34.91
3,0.014328,-0.02716064,0.999527,0.8684377,0.005905151,-0.02996826,0.999527,-34.60323,3.972763,-33.76466,3.325073,0.6187347,0.5074176,0.9704935,0.1403503,0.01516724,0.989975,36.33694,4.654282,-30.24017,3.816452,0.3568819,0.4323219,-0.001484156,1.265931,-0.1278159,-0.05387264,0.6789268,0.03122006,0.1460541,-31.37015,34.91
3,0.014328,-0.02716064,0.999527,0.8684377,0.005905151,-0.02996826,0.999527,-34.60323,3.972763,-33.76466,3.325073,0.6187347,0.5074176,0.9704935,0.1403503,0.01516724,0.989975,36.33694,4.654282,-30.24017,3.816452,0.3568819,0.4323219,-0.001484156,1.265931,-0.1278159,-0.05387264,0.6789268,0.03122006,0.1460541,-31.37015,34.91
3,0.06317139,-0.009033203,0.9979553,0.8804861,0.001083374,-0.02644348,0.999649,-34.60449,3.960892,-33.83003,3.335373,0.6194864,0.5079994,0.9754239,0.1334534,0.01080322,0.9909821,36.33379,4.646622,-30.22614,3.837341,0.3578264,0.4330134,-0.001510859,1.265883,-0.1277524,-0.05386352,0.6786304,0.03104488,0.1460541,-31.37015,34.91
3,0.06317139,-0.009033203,0.9979553,0.8804861,0.001083374,-0.02644348,0.999649,-34.60449,3.960892,-33.83003,3.335373,0.6194864,0.5079994,0.9754239,0.1334534,0.01080322,0.9909821,36.33379,4.646622,-30.22614,3.837341,0.3578264,0.4330134,-0.001510859,1.265883,-0.1277524,-0.05386352,0.6786304,0.03104488,0.1460541,-31.37015,34.91
3,0.06317139,-0.009033203,0.9979553,0.8804861,0.001083374,-0.02644348,0.999649,-34.60449,3.960892,-33.83003,3.335373,0.6194864,0.5079994,0.9754239,0.1334534,0.01080322,0.9909821,36.33379,4.646622,-30.22614,3.837341,0.3578264,0.4330134,-0.001510859,1.265883,-0.1277524,-0.05386352,0.6786304,0.03104488,0.1460541,-31.37015,34.91
3,0.0881958,-0.000198364,0.9960938,0.8750731,0.00112915,-0.02268982,0.9997406,-34.60835,3.943619,-33.83003,3.348801,0.6196352,0.5081517,0.9644168,0.1344757,0.01182556,0.9908447,36.32901,4.637772,-30.21715,3.850388,0.3578672,0.433134,-0.001483679,1.265747,-0.127616,-0.05339156,0.6783252,0.03093164,0.1460541,-31.37015,34.91
3,0.0881958,-0.000198364,0.9960938,0.8750731,0.00112915,-0.02268982,0.9997406,-34.60835,3.943619,-33.83003,3.348801,0.6196352,0.5081517,0.9644168,0.1344757,0.01182556,0.9908447,36.32901,4.637772,-30.21715,3.850388,0.3578672,0.433134,-0.001483679,1.265747,-0.127616,-0.05339156,0.6783252,0.03093164,0.1460541,-31.37015,34.91
3,0.0881958,-0.000198364,0.9960938,0.8750731,0.00112915,-0.02268982,0.9997406,-34.60835,3.943619,-33.83003,3.348801,0.6196352,0.5081517,0.9644168,0.1344757,0.01182556,0.9908447,36.32901,4.637772,-30.21715,3.850388,0.3578672,0.433134,-0.001483679,1.265747,-0.127616,-0.05339156,0.6783252,0.03093164,0.1460541,-31.37015,34.91
3,0.0881958,-0.000198364,0.9960938,0.8750731,0.00112915,-0.02268982,0.9997406,-34.60835,3.943619,-33.83003,3.348801,0.6196352,0.5081517,0.9644168,0.1344757,0.01182556,0.9908447,36.32901,4.637772,-30.21715,3.850388,0.3578672,0.433134,-0.001411915,1.265591,-0.1273931,-0.05279425,0.6779822,0.03076075,0.1460541,8.532471,34.91
3,0.0881958,-0.000198364,0.9960938,0.8750731,0.00112915,-0.02268982,0.9997406,-34.60835,3.943619,-33.83003,3.348801,0.6196352,0.5081517,0.9644168,0.1344757,0.01182556,0.9908447,36.32901,4.637772,-30.21715,3.850388,0.3578672,0.433134,-0.001411915,1.265591,-0.1273931,-0.05279425,0.6779822,0.03076075,0.1460541,8.532471,34.91
3,0.0881958,-0.000198364,0.9960938,0.8750731,0.00112915,-0.02268982,0.9997406,-34.60835,3.943619,-33.83003,3.348801,0.6196352,0.5081517,0.9644168,0.1344757,0.01182556,0.9908447,36.32901,4.637772,-30.21715,3.850388,0.3578672,0.433134,-0.001411915,1.265591,-0.1273931,-0.05279425,0.6779822,0.03076075,0.1460541,8.532471,34.91
3,0.1071167,-0.002502441,0.9942322,0.8745672,-0.01034546,-0.03146362,0.9994507,-34.67763,4.000931,-34.2354,3.394333,0.6241844,0.5109789,0.9716372,0.1189423,0.000427246,0.9928894,36.21999,4.580017,-30.01996,3.992249,0.3636278,0.4350519,-0.001130819,1.265321,-0.1271352,-0.051918,0.6777028,0.03067234,0.1460541,8.532471,34.91
3,0.1071167,-0.002502441,0.9942322,0.8745672,-0.01034546,-0.03146362,0.9994507,-34.67763,4.000931,-34.2354,3.394333,0.6241844,0.5109789,0.9716372,0.1189423,0.000427246,0.9928894,36.21999,4.580017,-30.01996,3.992249,0.3636278,0.4350519,-0.001130819,1.265321,-0.1271352,-0.051918,0.6777028,0.03067234,0.1460541,8.532471,34.91
3,0.1071167,-0.002502441,0.9942322,0.8745672,-0.01034546,-0.03146362,0.9994507,-34.67763,4.000931,-34.2354,3.394333,0.6241844,0.5109789,0.9716372,0.1189423,0.000427246,0.9928894,36.21999,4.580017,-30.01996,3.992249,0.3636278,0.4350519,-0.001130819,1.265321,-0.1271352,-0.051918,0.6777028,0.03067234,0.1460541,8.532471,34.91
3,0.1181641,-0.005554199,0.9929657,0.8738497,-0.01675415,-0.03289795,0.9993134,-34.6786,4.019806,-34.28966,3.3806,0.6250892,0.5109789,0.9915713,0.1216278,-0.004852295,0.9925537,36.20969,4.580017,-30.01996,4.024307,0.3636278,0.4357187,-0.000652313,1.265189,-0.126998,-0.05100268,0.677584,0.03060133,0.1460541,8.532471,34.91
3,0.1181641,-0.005554199,0.9929657,0.8738497,-0.01675415,-0.03289795,0.9993134,-34.6786,4.019806,-34.28966,3.3806,0.6250892,0.5109789,0.9915713,0.1216278,-0.004852295,0.9925537,36.20969,4.580017,-30.01996,4.024307,0.3636278,0.4357187,-0.000652313,1.265189,-0.126998,-0.05100268,0.677584,0.03060133,0.1460541,8.532471,34.91
3,0.1181641,-0.005554199,0.9929657,0.8738497,-0.01675415,-0.03289795,0.9993134,-34.6786,4.019806,-34.28966,3.3806,0.6250892,0.5109789,0.9915713,0.1216278,-0.004852295,0.9925537,36.20969,4.580017,-30.01996,4.024307,0.3636278,0.4357187,-0.000652313,1.265189,-0.126998,-0.05100268,0.677584,0.03060133,0.1460541,8.532471,34.91
3,0.1181641,-0.005554199,0.9929657,0.8738497,-0.01675415,-0.03289795,0.9993134,-34.6786,4.019806,-34.28966,3.3806,0.6250892,0.5109789,0.9915713,0.1216278,-0.004852295,0.9925537,36.20969,4.580017,-30.01996,4.024307,0.3636278,0.4357187,-0.000269175,1.265121,-0.1267992,-0.05059649,0.6779206,0.02973935,0.1460541,8.532471,34.91
3,0.1181641,-0.005554199,0.9929657,0.8738497,-0.01675415,-0.03289795,0.9993134,-34.6786,4.019806,-34.28966,3.3806,0.6250892,0.5109789,0.9915713,0.1216278,-0.004852295,0.9925537,36.20969,4.580017,-30.01996,4.024307,0.3636278,0.4357187,-0.000269175,1.265121,-0.1267992,-0.05059649,0.6779206,0.02973935,0.1460541,8.532471,34.91
3,0.1181641,-0.005554199,0.9929657,0.8738497,-0.01675415,-0.03289795,0.9993134,-34.6786,4.019806,-34.28966,3.3806,0.6250892,0.5109789,0.9915713,0.1216278,-0.004852295,0.9925537,36.20969,4.580017,-30.01996,4.024307,0.3636278,0.4357187,-0.000269175,1.265121,-0.1267992,-0.05059649,0.6779206,0.02973935,0.1460541,8.532471,34.91
3,0.02700806,0.008270264,0.999588,0.8738497,0.00553894,0.00402832,0.9999695,-34.43216,4.521332,-34.75172,3.603271,0.6142735,0.4928616,0.9915713,0.1328888,0.02914429,0.9906921,36.31047,5.026215,-30.86354,4.045425,0.3578179,0.4232134,0.000219584,1.265188,-0.1266217,-0.04920729,0.6782092,0.02988392,0.1460541,8.532471,34.91
3,0.02700806,0.008270264,0.999588,0.8738497,0.00553894,0.00402832,0.9999695,-34.43216,4.521332,-34.75172,3.603271,0.6142735,0.4928616,0.9915713,0.1328888,0.02914429,0.9906921,36.31047,5.026215,-30.86354,4.045425,0.3578179,0.4232134,0.000219584,1.265188,-0.1266217,-0.04920729,0.6782092,0.02988392,0.1460541,8.532471,34.91
3,0.02700806,0.008270264,0.999588,0.8738497,0.00553894,0.00402832,0.9999695,-34.43216,4.521332,-34.75172,3.603271,0.6142735,0.4928616,0.9915713,0.1328888,0.02914429,0.9906921,36.31047,5.026215,-30.86354,4.045425,0.3578179,0.4232134,0.000219584,1.265188,-0.1266217,-0.04920729,0.6782092,0.02988392,0.1460541,8.532471,34.91
3,0.01603699,0.006591797,0.9998474,0.8323331,0.01603699,0.006591797,0.9998474,-34.49117,4.52829,-34.78928,3.586395,0.615114,0.4926327,0.9366672,0.1448364,0.03948975,0.9886627,36.30023,5.071457,-31.02582,4.079956,0.3563164,0.4216055,0.000936747,1.265474,-0.1264668,-0.04823639,0.67867,0.03104344,0.1460541,4.650726,34.91
3,0.01603699,0.006591797,0.9998474,0.8323331,0.01603699,0.006591797,0.9998474,-34.49117,4.52829,-34.78928,3.586395,0.615114,0.4926327,0.9366672,0.1448364,0.03948975,0.9886627,36.30023,5.071457,-31.02582,4.079956,0.3563164,0.4216055,0.000936747,1.265474,-0.1264668,-0.04823639,0.67867,0.03104344,0.1460541,4.650726,34.91
3,0.01603699,0.006591797,0.9998474,0.8323331,0.01603699,0.006591797,0.9998474,-34.49117,4.52829,-34.78928,3.586395,0.615114,0.4926327,0.9366672,0.1448364,0.03948975,0.9886627,36.30023,5.071457,-31.02582,4.079956,0.3563164,0.4216055,0.000936747,1.265474,-0.1264668,-0.04823639,0.67867,0.03104344,0.1460541,4.650726,34.91
3,0.01095581,0.01052856,0.9998779,0.8321239,0.01094055,0.01052856,0.9998779,-34.52554,4.470901,-34.60519,3.630859,0.6168284,0.4925379,0.9375468,0.1420441,0.03456116,0.9892426,36.29794,5.072784,-31.0146,4.066376,0.3567663,0.422053,0.00188899,1.265911,-0.1263608,-0.04733086,0.6794167,0.03225106,0.1460541,4.650726,34.91
3,0.01095581,0.01052856,0.9998779,0.8321239,0.01094055,0.01052856,0.9998779,-34.52554,4.470901,-34.60519,3.630859,0.6168284,0.4925379,0.9375468,0.1420441,0.03456116,0.9892426,36.29794,5.072784,-31.0146,4.066376,0.3567663,0.422053,0.00188899,1.265911,-0.1263608,-0.04733086,0.6794167,0.03225106,0.1460541,4.650726,34.91
3,0.01095581,0.01052856,0.9998779,0.8321239,0.01094055,0.01052856,0.9998779,-34.52554,4.470901,-34.60519,3.630859,0.6168284,0.4925379,0.9375468,0.1420441,0.03456116,0.9892426,36.29794,5.072784,-31.0146,4.066376,0.3567663,0.422053,0.00188899,1.265911,-0.1263608,-0.04733086,0.6794167,0.03225106,0.1460541,4.650726,34.91
3,0.1325836,0.03199768,0.9906464,0.8299639,0.01048279,-0.0027771,0.999939,-34.53638,4.448654,-34.53235,3.627609,0.6171776,0.4943281,0.9314469,0.1406403,0.03430176,0.9894562,36.29419,5.070633,-30.99773,4.09166,0.3570657,0.422053,0.003413677,1.266851,-0.126304,-0.04652705,0.6802294,0.03384211,0.1460541,4.650726,34.91
3,0.1325836,0.03199768,0.9906464,0.8299639,0.01048279,-0.0027771,0.999939,-34.53638,4.448654,-34.53235,3.627609,0.6171776,0.4943281,0.9314469,0.1406403,0.03430176,0.9894562,36.29419,5.070633,-30.99773,4.09166,0.3570657,0.422053,0.003413677,1.266851,-0.126304,-0.04652705,0.6802294,0.03384211,0.1460541,4.650726,34.91
3,0.1325836,0.03199768,0.9906464,0.8299639,0.01048279,-0.0027771,0.999939,-34.53638,4.448654,-34.53235,3.627609,0.6171776,0.4943281,0.9314469,0.1406403,0.03430176,0.9894562,36.29419,5.070633,-30.99773,4.09166,0.3570657,0.422053,0.003413677,1.266851,-0.126304,-0.04652705,0.6802294,0.03384211,0.1460541,4.650726,34.91
3,0.1325836,0.03199768,0.9906464,0.8299639,0.01048279,-0.0027771,0.999939,-34.53638,4.448654,-34.53235,3.627609,0.6171776,0.4943281,0.9314469,0.1406403,0.03430176,0.9894562,36.29419,5.070633,-30.99773,4.09166,0.3570657,0.422053,0.005193472,1.26813,-0.1262264,-0.04664476,0.6811005,0.03536396,0.1460541,4.650726,34.91
3,0.1325836,0.03199768,0.9906464,0.8299639,0.01048279,-0.0027771,0.999939,-34.53638,4.448654,-34.53235,3.627609,0.6171776,0.4943281,0.9314469,0.1406403,0.03430176,0.9894562,36.29419,5.070633,-30.99773,4.09166,0.3570657,0.422053,0.005193472,1.26813,-0.1262264,-0.04664476,0.6811005,0.03536396,0.1460541,4.650726,34.91
3,0.1325836,0.03199768,0.9906464,0.8299639,0.01048279,-0.0027771,0.999939,-34.53638,4.448654,-34.53235,3.627609,0.6171776,0.4943281,0.9314469,0.1406403,0.03430176,0.9894562,36.29419,5.070633,-30.99773,4.09166,0.3570657,0.422053,0.005193472,1.26813,-0.1262264,-0.04664476,0.6811005,0.03536396,0.1460541,4.650726,34.91
3,0.0987854,0.02912903,0.9946747,0.8314127,0.01411438,0.004730225,0.9998779,-34.58701,4.37561,-34.41551,3.706009,0.6185101,0.4949988,0.9425173,0.123764,0.03631592,0.9916382,36.26222,5.020218,-30.83113,4.331421,0.3602055,0.4224003,0.00748539,1.269669,-0.1260003,-0.04618575,0.6820845,0.03660369,0.1460541,4.650726,34.91
3,0.0987854,0.02912903,0.9946747,0.8314127,0.01411438,0.004730225,0.9998779,-34.58701,4.37561,-34.41551,3.706009,0.6185101,0.4949988,0.9425173,0.123764,0.03631592,0.9916382,36.26222,5.020218,-30.83113,4.331421,0.3602055,0.4224003,0.00748539,1.269669,-0.1260003,-0.04618575,0.6820845,0.03660369,0.1460541,4.650726,34.91
3,0.0987854,0.02912903,0.9946747,0.8314127,0.01411438,0.004730225,0.9998779,-34.58701,4.37561,-34.41551,3.706009,0.6185101,0.4949988,0.9425173,0.123764,0.03631592,0.9916382,36.26222,5.020218,-30.83113,4.331421,0.3602055,0.4224003,0.00748539,1.269669,-0.1260003,-0.04618575,0.6820845,0.03660369,0.1460541,4.650726,34.91
3,0.08248901,0.01997375,0.9963837,0.8333776,0.01254272,-0.003494263,0.9999084,-34.58832,4.372177,-34.4151,3.688339,0.6187281,0.4961385,0.9465191,0.124939,0.03425598,0.9915619,36.26534,5.024017,-30.8815,4.319122,0.3599058,0.4229261,0.009784222,1.271966,-0.125768,-0.04413032,0.6827215,0.03731211,0.1460541,4.650726,34.91
3,0.08248901,0.01997375,0.9963837,0.8333776,0.01254272,-0.003494263,0.9999084,-34.58832,4.372177,-34.4151,3.688339,0.6187281,0.4961385,0.9465191,0.124939,0.03425598,0.9915619,36.26534,5.024017,-30.8815,4.319122,0.3599058,0.4229261,0.009784222,1.271966,-0.125768,-0.04413032,0.6827215,0.03731211,0.1460541,4.650726,34.91
3,0.08248901,0.01997375,0.9963837,0.8333776,0.01254272,-0.003494263,0.9999084,-34.58832,4.372177,-34.4151,3.688339,0.6187281,0.4961385,0.9465191,0.124939,0.03425598,0.9915619,36.26534,5.024017,-30.8815,4.319122,0.3599058,0.4229261,0.009784222,1.271966,-0.125768,-0.04413032,0.6827215,0.03731211,0.1460541,4.650726,34.91
3,0.08248901,0.01997375,0.9963837,0.8333776,0.01254272,-0.003494263,0.9999084,-34.58832,4.372177,-34.4151,3.688339,0.6187281,0.4961385,0.9465191,0.124939,0.03425598,0.9915619,36.26534,5.024017,-30.8815,4.319122,0.3599058,0.4229261,0.01205516,1.274947,-0.1256647,-0.04054921,0.6828722,0.03789983,0.1460541,1.662354,34.91
3,0.08248901,0.01997375,0.9963837,0.8333776,0.01254272,-0.003494263,0.9999084,-34.58832,4.372177,-34.4151,3.688339,0.6187281,0.4961385,0.9465191,0.124939,0.03425598,0.9915619,36.26534,5.024017,-30.8815,4.319122,0.3599058,0.4229261,0.01205516,1.274947,-0.1256647,-0.04054921,0.6828722,0.03789983,0.1460541,1.662354,34.91
3,0.08248901,0.01997375,0.9963837,0.8333776,0.01254272,-0.003494263,0.9999084,-34.58832,4.372177,-34.4151,3.688339,0.6187281,0.4961385,0.9465191,0.124939,0.03425598,0.9915619,36.26534,5.024017,-30.8815,4.319122,0.3599058,0.4229261,0.01205516,1.274947,-0.1256647,-0.04054921,0.6828722,0.03789983,0.1460541,1.662354,34.91
4,0.01644897,0.004272461,0.9998474,0.8376474,0.01644897,0.004272461,0.9998474,-34.60703,4.222061,-33.70485,3.710007,0.6180272,0.494066,0.9342931,0.162384,0.046875,0.9855957,36.31816,4.673904,-29.19963,4.376099,0.3557795,0.4199243,0.01564503,1.281046,-0.1257111,-0.03146337,0.6823857,0.03518507,0.1460541,1.662354,34.91
4,0.01644897,0.004272461,0.9998474,0.8376474,0.01644897,0.004272461,0.9998474,-34.60703,4.222061,-33.70485,3.710007,0.6180272,0.494066,0.9342931,0.162384,0.046875,0.9855957,36.31816,4.673904,-29.19963,4.376099,0.3557795,0.4199243,0.01564503,1.281046,-0.1257111,-0.03146337,0.6823857,0.03518507,0.1460541,1.662354,34.91
4,0.01644897,0.004272461,0.9998474,0.8376474,0.01644897,0.004272461,0.9998474,-34.60703,4.222061,-33.70485,3.710007,0.6180272,0.494066,0.9342931,0.162384,0.046875,0.9855957,36.31816,4.673904,-29.19963,4.376099,0.3557795,0.4199243,0.01564503,1.281046,-0.1257111,-0.03146337,0.6823857,0.03518507,0.1460541,1.662354,34.91
4,0.0113678,-0.008728027,0.9998932,0.8334707,0.0113678,-0.008728027,0.9998932,-34.58356,4.449646,-34.40689,3.750671,0.6187852,0.4939916,0.9255939,0.1654053,0.04734802,0.9850769,36.30565,4.66333,-29.04405,4.399628,0.3560394,0.4190241,0.01673865,1.284678,-0.125748,-0.02467648,0.6806355,0.0299203,0.1460541,1.662354,34.91
4,0.0113678,-0.008728027,0.9998932,0.8334707,0.0113678,-0.008728027,0.9998932,-34.58356,4.449646,-34.40689,3.750671,0.6187852,0.4939916,0.9255939,0.1654053,0.04734802,0.9850769,36.30565,4.66333,-29.04405,4.399628,0.3560394,0.4190241,0.01673865,1.284678,-0.125748,-0.02467648,0.6806355,0.0299203,0.1460541,1.662354,34.91
4,0.0113678,-0.008728027,0.9998932,0.8334707,0.0113678,-0.008728027,0.9998932,-34.58356,4.449646,-34.40689,3.750671,0.6187852,0.4939916,0.9255939,0.1654053,0.04734802,0.9850769,36.30565,4.66333,-29.04405,4.399628,0.3560394,0.4190241,0.01673865,1.284678,-0.125748,-0.02467648,0.6806355,0.0299203,0.1460541,1.662354,34.91
4,0.164917,0.04515076,0.98526,0.8283386,0.009628296,-0.009017944,0.9999084,-34.58389,4.44136,-34.37128,3.744659,0.6189625,0.4939916,0.9206975,0.1651306,0.04522705,0.9852295,36.3051,4.669113,-28.9968,4.413406,0.3561449,0.4187067,0.01673865,1.284678,-0.125748,-0.02467648,0.6806355,0.0299203,0.1460541,1.662354,34.91
4,0.164917,0.04515076,0.98526,0.8283386,0.009628296,-0.009017944,0.9999084,-34.58389,4.44136,-34.37128,3.744659,0.6189625,0.4939916,0.9206975,0.1651306,0.04522705,0.9852295,36.3051,4.669113,-28.9968,4.413406,0.3561449,0.4187067,0.01673865,1.284678,-0.125748,-0.02467648,0.6806355,0.0299203,0.1460541,1.662354,34.91
4,0.164917,0.04515076,0.98526,0.8283386,0.009628296,-0.009017944,0.9999084,-34.58389,4.44136,-34.37128,3.744659,0.6189625,0.4939916,0.9206975,0.1651306,0.04522705,0.9852295,36.3051,4.669113,-28.9968,4.413406,0.3561449,0.4187067,0.01673865,1.284678,-0.125748,-0.02467648,0.6806355,0.0299203,0.1460541,1.662354,34.91
4,0.1607208,0.04916382,0.9857635,0.8241817,0.0105896,0.000198364,0.999939,-34.61919,4.221161,-33.50011,3.778839,0.6190329,0.4927925,0.9302498,0.1607513,0.04917908,0.9857635,36.30499,4.670517,-28.99548,4.418976,0.3566715,0.4181963,0.01849318,1.291465,-0.1256334,-0.01979779,0.6749635,0.02275048,0.1460541,-20.48764,34.91
4,0.1607208,0.04916382,0.9857635,0.8241817,0.0105896,0.000198364,0.999939,-34.61919,4.221161,-33.50011,3.778839,0.6190329,0.4927925,0.9302498,0.1607513,0.04917908,0.9857635,36.30499,4.670517,-28.99548,4.418976,0.3566715,0.4181963,0.01849318,1.291465,-0.1256334,-0.01979779,0.6749635,0.02275048,0.1460541,-20.48764,34.91
4,0.1607208,0.04916382,0.9857635,0.8241817,0.0105896,0.000198364,0.999939,-34.61919,4.221161,-33.50011,3.778839,0.6190329,0.4927925,0.9302498,0.1607513,0.04917908,0.9857635,36.30499,4.670517,-28.99548,4.418976,0.3566715,0.4181963,0.01849318,1.291465,-0.1256334,-0.01979779,0.6749635,0.02275048,0.1460541,-20.48764,34.91
4,-0.01809692,0.110199,0.9937286,0.816062,-0.01812744,0.110199,0.9937286,-34.53998,5.2845,-35.31403,4.011734,0.6226764,0.4576378,0.929439,0.1476288,0.1343536,0.9798584,36.13135,5.393387,-29.62839,4.614716,0.3631379,0.3886267,0.01915526,1.295787,-0.1257916,-0.0196353,0.6715133,0.02456512,0.1460541,-20.48764,34.91
4,-0.01809692,0.110199,0.9937286,0.816062,-0.01812744,0.110199,0.9937286,-34.53998,5.2845,-35.31403,4.011734,0.6226764,0.4576378,0.929439,0.1476288,0.1343536,0.9798584,36.13135,5.393387,-29.62839,4.614716,0.3631379,0.3886267,0.01915526,1.295787,-0.1257916,-0.0196353,0.6715133,0.02456512,0.1460541,-20.48764,34.91
4,-0.01809692,0.110199,0.9937286,0.816062,-0.01812744,0.110199,0.9937286,-34.53998,5.2845,-35.31403,4.011734,0.6226764,0.4576378,0.929439,0.1476288,0.1343536,0.9798584,36.13135,5.393387,-29.62839,4.614716,0.3631379,0.3886267,0.01915526,1.295787,-0.1257916,-0.0196353,0.6715133,0.02456512,0.1460541,-20.48764,34.91
4,0.003967285,0.1016235,0.994812,0.7859154,-0.001281738,0.1006012,0.9949188,-34.5549,5.261887,-35.20259,3.940231,0.6208352,0.4585916,0.9274081,0.151535,0.1291046,0.9799805,36.10992,5.424927,-29.70839,4.577255,0.363399,0.3888209,0.01925302,1.299521,-0.1263067,-0.01719676,0.6677701,0.02573108,0.1460541,-20.48764,34.91
4,0.003967285,0.1016235,0.994812,0.7859154,-0.001281738,0.1006012,0.9949188,-34.5549,5.261887,-35.20259,3.940231,0.6208352,0.4585916,0.9274081,0.151535,0.1291046,0.9799805,36.10992,5.424927,-29.70839,4.577255,0.363399,0.3888209,0.01925302,1.299521,-0.1263067,-0.01719676,0.6677701,0.02573108,0.1460541,-20.48764,34.91
4,0.003967285,0.1016235,0.994812,0.7859154,-0.001281738,0.1006012,0.9949188,-34.5549,5.261887,-35.20259,3.940231,0.6208352,0.4585916,0.9274081,0.151535,0.1291046,0.9799805,36.10992,5.424927,-29.70839,4.577255,0.363399,0.3888209,0.01925302,1.299521,-0.1263067,-0.01719676,0.6677701,0.02573108,0.1460541,-20.48764,34.91
4,0.1299896,0.137207,0.9819641,0.7797445,-0.02436829,0.1258698,0.991745,-34.78322,5.062988,-34.88165,4.0811,0.6318535,0.4598432,0.925344,0.1342926,0.1374817,0.9813538,36.00768,5.469635,-30.13437,4.615051,0.3684151,0.389731,0.01908565,1.303159,-0.1271809,-0.01635423,0.6646553,0.0272627,0.1460541,-20.48764,34.93
4,0.1299896,0.137207,0.9819641,0.7797445,-0.02436829,0.1258698,0.991745,-34.78322,5.062988,-34.88165,4.0811,0.6318535,0.4598432,0.925344,0.1342926,0.1374817,0.9813538,36.00768,5.469635,-30.13437,4.615051,0.3684151,0.389731,0.01908565,1.303159,-0.1271809,-0.01635423,0.6646553,0.0272627,0.1460541,-20.48764,34.93
4,0.1299896,0.137207,0.9819641,0.7797445,-0.02436829,0.1258698,0.991745,-34.78322,5.062988,-34.88165,4.0811,0.6318535,0.4598432,0.925344,0.1342926,0.1374817,0.9813538,36.00768,5.469635,-30.13437,4.615051,0.3684151,0.389731,0.01908565,1.303159,-0.1271809,-0.01635423,0.6646553,0.0272627,0.1460541,-20.48764,34.93
4,0.1361389,0.1588745,0.9778595,0.7699009,-0.03569031,0.1533508,0.9875183,-34.81654,5.193069,-35.43872,4.199661,0.6355136,0.4568479,0.9136601,0.1363525,0.1588745,0.977829,35.96895,5.407059,-29.87688,4.749588,0.3696809,0.3875046,0.01849103,1.306873,-0.1284637,-0.01761919,0.6623851,0.02681132,0.1460541,-20.48764,34.93
4,0.1361389,0.1588745,0.9778595,0.7699009,-0.03569031,0.1533508,0.9875183,-34.81654,5.193069,-35.43872,4.199661,0.6355136,0.4568479,0.9136601,0.1363525,0.1588745,0.977829,35.96895,5.407059,-29.87688,4.749588,0.3696809,0.3875046,0.01849103,1.306873,-0.1284637,-0.01761919,0.6623851,0.02681132,0.1460541,-20.48764,34.93
4,0.1361389,0.1588745,0.9778595,0.7699009,-0.03569031,0.1533508,0.9875183,-34.81654,5.193069,-35.43872,4.199661,0.6355136,0.4568479,0.9136601,0.1363525,0.1588745,0.977829,35.96895,5.407059,-29.87688,4.749588,0.3696809,0.3875046,0.01849103,1.306873,-0.1284637,-0.01761919,0.6623851,0.02681132,0.1460541,-20.48764,34.93
4,0.1361389,0.1588745,0.9778595,0.7699009,-0.03569031,0.1533508,0.9875183,-34.81654,5.193069,-35.43872,4.199661,0.6355136,0.4568479,0.9136601,0.1363525,0.1588745,0.977829,35.96895,5.407059,-29.87688,4.749588,0.3696809,0.3875046,0.01754117,1.310294,-0.1300624,-0.01824839,0.660676,0.02556564,0.1460541,5.730316,34.93
4,0.1361389,0.1588745,0.9778595,0.7699009,-0.03569031,0.1533508,0.9875183,-34.81654,5.193069,-35.43872,4.199661,0.6355136,0.4568479,0.9136601,0.1363525,0.1588745,0.977829,35.96895,5.407059,-29.87688,4.749588,0.3696809,0.3875046,0.01754117,1.310294,-0.1300624,-0.01824839,0.660676,0.02556564,0.1460541,5.730316,34.93
4,0.1361389,0.1588745,0.9778595,0.7699009,-0.03569031,0.1533508,0.9875183,-34.81654,5.193069,-35.43872,4.199661,0.6355136,0.4568479,0.9136601,0.1363525,0.1588745,0.977829,35.96895,5.407059,-29.87688,4.749588,0.3696809,0.3875046,0.01754117,1.310294,-0.1300624,-0.01824839,0.660676,0.02556564,0.1460541,5.730316,34.93
4,0.09475708,0.133728,0.9864655,0.8011723,-0.08909607,0.1295929,0.9875488,-35.0276,4.689941,-34.28738,4.269241,0.6482994,0.4676078,0.9329963,0.09477234,0.133728,0.9864655,35.79234,5.305222,-30.02615,4.675354,0.3806917,0.3952931,0.01560211,1.316017,-0.1344176,-0.02533996,0.6594406,0.02401732,0.1460541,5.730316,34.93
4,0.09475708,0.133728,0.9864655,0.8011723,-0.08909607,0.1295929,0.9875488,-35.0276,4.689941,-34.28738,4.269241,0.6482994,0.4676078,0.9329963,0.09477234,0.133728,0.9864655,35.79234,5.305222,-30.02615,4.675354,0.3806917,0.3952931,0.01560211,1.316017,-0.1344176,-0.02533996,0.6594406,0.02401732,0.1460541,5.730316,34.93
4,0.09475708,0.133728,0.9864655,0.8011723,-0.08909607,0.1295929,0.9875488,-35.0276,4.689941,-34.28738,4.269241,0.6482994,0.4676078,0.9329963,0.09477234,0.133728,0.9864655,35.79234,5.305222,-30.02615,4.675354,0.3806917,0.3952931,0.01560211,1.316017,-0.1344176,-0.02533996,0.6594406,0.02401732,0.1460541,5.730316,34.93
4,0.08602905,0.1145477,0.9896698,0.8057329,-0.07080078,0.09408569,0.9930267,-35.11781,4.57074,-34.08467,4.166,0.6487792,0.4742685,0.9332364,0.09701538,0.1158905,0.9885101,35.73192,5.314987,-30.10643,4.626022,0.3824795,0.3976839,0.01417756,1.318031,-0.1370545,-0.03052893,0.6592781,0.01909201,0.1460541,5.730316,34.93
4,0.08602905,0.1145477,0.9896698,0.8057329,-0.07080078,0.09408569,0.9930267,-35.11781,4.57074,-34.08467,4.166,0.6487792,0.4742685,0.9332364,0.09701538,0.1158905,0.9885101,35.73192,5.314987,-30.10643,4.626022,0.3824795,0.3976839,0.01417756,1.318031,-0.1370545,-0.03052893,0.6592781,0.01909201,0.1460541,5.730316,34.93
4,0.08602905,0.1145477,0.9896698,0.8057329,-0.07080078,0.09408569,0.9930267,-35.11781,4.57074,-34.08467,4.166,0.6487792,0.4742685,0.9332364,0.09701538,0.1158905,0.9885101,35.73192,5.314987,-30.10643,4.626022,0.3824795,0.3976839,0.01417756,1.318031,-0.1370545,-0.03052893,0.6592781,0.01909201,0.1460541,5.730316,34.93
4,0.0736084,0.1139984,0.9907379,0.8094637,-0.07569885,0.1150208,0.9904633,-35.05052,4.491196,-34.338,4.211563,0.6473749,0.4769161,0.9356489,0.09101868,0.1137085,0.9893188,35.77402,5.154572,-30.2702,4.691879,0.3814755,0.4048105,0.01249933,1.319486,-0.1394244,-0.03316631,0.6580371,0.01458625,0.1460541,5.730316,34.93
4,0.0736084,0.1139984,0.9907379,0.8094637,-0.07569885,0.1150208,0.9904633,-35.05052,4.491196,-34.338,4.211563,0.6473749,0.4769161,0.9356489,0.09101868,0.1137085,0.9893188,35.77402,5.154572,-30.2702,4.691879,0.3814755,0.4048105,0.01249933,1.319486,-0.1394244,-0.03316631,0.6580371,0.01458625,0.1460541,5.730316,34.93
4,0.0736084,0.1139984,0.9907379,0.8094637,-0.07569885,0.1150208,0.9904633,-35.05052,4.491196,-34.338,4.211563,0.6473749,0.4769161,0.9356489,0.09101868,0.1137085,0.9893188,35.77402,5.154572,-30.2702,4.691879,0.3814755,0.4048105,0.01249933,1.319486,-0.1394244,-0.03316631,0.6580371,0.01458625,0.1460541,5.730316,34.93
4,0.01319885,0.09545898,0.9953308,0.8089193,-0.08872986,0.100708,0.9909363,-35.05945,4.528809,-34.25269,4.251617,0.6492682,0.4765903,0.9317901,0.07591248,0.09172058,0.9928741,35.76317,5.230133,-30.43452,4.505081,0.3836615,0.4059613,0.01086497,1.321867,-0.1417791,-0.03454514,0.6567804,0.01253259,0.1460541,8.638977,34.93
4,0.01319885,0.09545898,0.9953308,0.8089193,-0.08872986,0.100708,0.9909363,-35.05945,4.528809,-34.25269,4.251617,0.6492682,0.4765903,0.9317901,0.07591248,0.09172058,0.9928741,35.76317,5.230133,-30.43452,4.505081,0.3836615,0.4059613,0.01086497,1.321867,-0.1417791,-0.03454514,0.6567804,0.01253259,0.1460541,8.638977,34.93
4,0.01319885,0.09545898,0.9953308,0.8089193,-0.08872986,0.100708,0.9909363,-35.05945,4.528809,-34.25269,4.251617,0.6492682,0.4765903,0.9317901,0.07591248,0.09172058,0.9928741,35.76317,5.230133,-30.43452,4.505081,0.3836615,0.4059613,0.01086497,1.321867,-0.1417791,-0.03454514,0.6567804,0.01253259,0.1460541,8.638977,34.93
4,0.0308075,0.1161346,0.9927521,0.7940561,-0.09695435,0.1139984,0.9887238,-35.07927,4.938354,-34.94467,4.197083,0.6521533,0.4663841,0.9204106,0.07914734,0.1164398,0.990036,35.66539,5.465759,-30.35577,4.637817,0.3865849,0.3943936,0.009669065,1.324491,-0.1438478,-0.03880367,0.6565259,0.01111075,0.1460541,8.638977,34.93
4,0.0308075,0.1161346,0.9927521,0.7940561,-0.09695435,0.1139984,0.9887238,-35.07927,4.938354,-34.94467,4.197083,0.6521533,0.4663841,0.9204106,0.07914734,0.1164398,0.990036,35.66539,5.465759,-30.35577,4.637817,0.3865849,0.3943936,0.009669065,1.324491,-0.1438478,-0.03880367,0.6565259,0.01111075,0.1460541,8.638977,34.93
4,0.0308075,0.1161346,0.9927521,0.7940561,-0.09695435,0.1139984,0.9887238,-35.07927,4.938354,-34.94467,4.197083,0.6521533,0.4663841,0.9204106,0.07914734,0.1164398,0.990036,35.66539,5.465759,-30.35577,4.637817,0.3865849,0.3943936,0.009669065,1.324491,-0.1438478,-0.03880367,0.6565259,0.01111075,0.1460541,8.638977,34.93
4,0.06272888,0.1023712,0.9927521,0.7940561,-0.09680176,0.1137543,0.9887695,-35.12692,4.778915,-34.53174,4.223419,0.6532449,0.4684569,0.9204106,0.06738281,0.1019897,0.9924927,35.67302,5.504822,-30.81056,4.532043,0.3873868,0.3983437,0.008673191,1.326856,-0.1455684,-0.04255705,0.6566907,0.01164796,0.1460541,8.638977,34.93
4,0.06272888,0.1023712,0.9927521,0.7940561,-0.09680176,0.1137543,0.9887695,-35.12692,4.778915,-34.53174,4.223419,0.6532449,0.4684569,0.9204106,0.06738281,0.1019897,0.9924927,35.67302,5.504822,-30.81056,4.532043,0.3873868,0.3983437,0.008673191,1.326856,-0.1455684,-0.04255705,0.6566907,0.01164796,0.1460541,8.638977,34.93
4,0.06272888,0.1023712,0.9927521,0.7940561,-0.09680176,0.1137543,0.9887695,-35.12692,4.778915,-34.53174,4.223419,0.6532449,0.4684569,0.9204106,0.06738281,0.1019897,0.9924927,35.67302,5.504822,-30.81056,4.532043,0.3873868,0.3983437,0.008673191,1.326856,-0.1455684,-0.04255705,0.6566907,0.01164796,0.1460541,8.638977,34.93
4,0.06272888,0.1023712,0.9927521,0.8168505,-0.09680176,0.1137543,0.9887695,-35.12692,4.778915,-34.53174,4.223419,0.6532449,0.4684569,0.9275966,0.06738281,0.1019897,0.9924927,35.67302,5.504822,-30.81056,4.532043,0.3873868,0.3983437,0.007162809,1.32909,-0.1487294,-0.04570763,0.6585972,0.02047109,0.1460541,8.638977,34.93
4,0.06272888,0.1023712,0.9927521,0.8168505,-0.09680176,0.1137543,0.9887695,-35.12692,4.778915,-34.53174,4.223419,0.6532449,0.4684569,0.9275966,0.06738281,0.1019897,0.9924927,35.67302,5.504822,-30.81056,4.532043,0.3873868,0.3983437,0.007162809,1.32909,-0.1487294,-0.04570763,0.6585972,0.02047109,0.1460541,8.638977,34.93
4,0.06272888,0.1023712,0.9927521,0.8168505,-0.09680176,0.1137543,0.9887695,-35.12692,4.778915,-34.53174,4.223419,0.6532449,0.4684569,0.9275966,0.06738281,0.1019897,0.9924927,35.67302,5.504822,-30.81056,4.532043,0.3873868,0.3983437,0.007162809,1.32909,-0.1487294,-0.04570763,0.6585972,0.02047109,0.1460541,8.638977,34.93
4,0.02912903,0.06919861,0.9971619,0.8113102,-0.09136963,0.0423584,0.9949036,-35.13359,4.299957,-33.70757,3.98851,0.6510541,0.4867456,0.9244353,0.06654358,0.07733154,0.9947662,35.71474,4.953613,-29.99001,4.547272,0.3868726,0.4137161,0.006381989,1.329797,-0.1494754,-0.04716521,0.6611897,0.02435433,0.1511789,5.585236,34.93
4,0.02912903,0.06919861,0.9971619,0.8113102,-0.09136963,0.0423584,0.9949036,-35.13359,4.299957,-33.70757,3.98851,0.6510541,0.4867456,0.9244353,0.06654358,0.07733154,0.9947662,35.71474,4.953613,-29.99001,4.547272,0.3868726,0.4137161,0.006381989,1.329797,-0.1494754,-0.04716521,0.6611897,0.02435433,0.1511789,5.585236,34.93
4,0.02912903,0.06919861,0.9971619,0.8113102,-0.09136963,0.0423584,0.9949036,-35.13359,4.299957,-33.70757,3.98851,0.6510541,0.4867456,0.9244353,0.06654358,0.07733154,0.9947662,35.71474,4.953613,-29.99001,4.547272,0.3868726,0.4137161,0.006381989,1.329797,-0.1494754,-0.04716521,0.6611897,0.02435433,0.1511789,5.585236,34.93
4,0.02601624,0.07720947,0.9966736,0.8119062,-0.09031677,0.04110718,0.9950562,-35.12076,4.260345,-33.73567,4.036423,0.6505486,0.4886174,0.9183431,0.06835938,0.09008789,0.993576,35.72235,4.915665,-29.98796,4.587036,0.3863572,0.4135377,0.006718636,1.333347,-0.1500183,-0.05093734,0.6686386,0.04346089,0.1511789,5.585236,34.93
4,0.02601624,0.07720947,0.9966736,0.8119062,-0.09031677,0.04110718,0.9950562,-35.12076,4.260345,-33.73567,4.036423,0.6505486,0.4886174,0.9183431,0.06835938,0.09008789,0.993576,35.72235,4.915665,-29.98796,4.587036,0.3863572,0.4135377,0.006718636,1.333347,-0.1500183,-0.05093734,0.6686386,0.04346089,0.1511789,5.585236,34.93
4,0.02601624,0.07720947,0.9966736,0.8119062,-0.09031677,0.04110718,0.9950562,-35.12076,4.260345,-33.73567,4.036423,0.6505486,0.4886174,0.9183431,0.06835938,0.09008789,0.993576,35.72235,4.915665,-29.98796,4.587036,0.3863572,0.4135377,0.006718636,1.333347,-0.1500183,-0.05093734,0.6686386,0.04346089,0.1511789,5.585236,34.93
4,0.02601624,0.07720947,0.9966736,0.8119062,-0.09031677,0.04110718,0.9950562,-35.12076,4.260345,-33.73567,4.036423,0.6505486,0.4886174,0.9183431,0.06835938,0.09008789,0.993576,35.72235,4.915665,-29.98796,4.587036,0.3863572,0.4135377,0.008070946,1.335297,-0.1493178,-0.05086803,0.6688007,0.05479665,0.1511789,5.585236,34.93
4,0.02601624,0.07720947,0.9966736,0.8119062,-0.09031677,0.04110718,0.9950562,-35.12076,4.260345,-33.73567,4.036423,0.6505486,0.4886174,0.9183431,0.06835938,0.09008789,0.993576,35.72235,4.915665,-29.98796,4.587036,0.3863572,0.4135377,0.008070946,1.335297,-0.1493178,-0.05086803,0.6688007,0.05479665,0.1511789,5.585236,34.93
4,0.02601624,0.07720947,0.9966736,0.8119062,-0.09031677,0.04110718,0.9950562,-35.12076,4.260345,-33.73567,4.036423,0.6505486,0.4886174,0.9183431,0.06835938,0.09008789,0.993576,35.72235,4.915665,-29.98796,4.587036,0.3863572,0.4135377,0.008070946,1.335297,-0.1493178,-0.05086803,0.6688007,0.05479665,0.1511789,5.585236,34.93
4,-0.01290894,0.05039978,0.998642,0.8267916,-0.1046448,0.03108215,0.9940186,-35.12119,4.233185,-33.73044,3.94838,0.6522505,0.4907103,0.9198595,0.06240845,0.06591797,0.9958649,35.75168,4.985931,-30.19221,4.595276,0.3858191,0.4156004,0.008070946,1.335297,-0.1493178,-0.05086803,0.6688007,0.05479665,0.1511789,5.585236,34.93
4,-0.01290894,0.05039978,0.998642,0.8267916,-0.1046448,0.03108215,0.9940186,-35.12119,4.233185,-33.73044,3.94838,0.6522505,0.4907103,0.9198595,0.06240845,0.06591797,0.9958649,35.75168,4.985931,-30.19221,4.595276,0.3858191,0.4156004,0.008070946,1.335297,-0.1493178,-0.05086803,0.6688007,0.05479665,0.1511789,5.585236,34.93
4,-0.01290894,0.05039978,0.998642,0.8267916,-0.1046448,0.03108215,0.9940186,-35.12119,4.233185,-33.73044,3.94838,0.6522505,0.4907103,0.9198595,0.06240845,0.06591797,0.9958649,35.75168,4.985931,-30.19221,4.595276,0.3858191,0.4156004,0.008070946,1.335297,-0.1493178,-0.05086803,0.6688007,0.05479665,0.1511789,5.585236,34.93
4,-0.1486206,0.06378174,0.9868317,0.8186064,-0.1488495,0.06378174,0.9867859,-35.27969,3.975403,-33.92717,3.992416,0.6640483,0.49779,0.9020252,0.0199585,0.06483459,0.9976959,35.48264,4.696442,-29.33832,4.700409,0.4007928,0.4191437,0.01221013,1.334498,-0.1458761,-0.05619784,0.6706576,0.0576517,0.1511789,-17.32507,34.93
4,-0.1486206,0.06378174,0.9868317,0.8186064,-0.1488495,0.06378174,0.9867859,-35.27969,3.975403,-33.92717,3.992416,0.6640483,0.49779,0.9020252,0.0199585,0.06483459,0.9976959,35.48264,4.696442,-29.33832,4.700409,0.4007928,0.4191437,0.01221013,1.334498,-0.1458761,-0.05619784,0.6706576,0.0576517,0.1511789,-17.32507,34.93
4,-0.1486206,0.06378174,0.9868317,0.8186064,-0.1488495,0.06378174,0.9867859,-35.27969,3.975403,-33.92717,3.992416,0.6640483,0.49779,0.9020252,0.0199585,0.06483459,0.9976959,35.48264,4.696442,-29.33832,4.700409,0.4007928,0.4191437,0.01221013,1.334498,-0.1458761,-0.05619784,0.6706576,0.0576517,0.1511789,-17.32507,34.93
4,-0.1691742,0.01972961,0.9853821,0.8410997,-0.1691742,0.01972961,0.9853821,-35.39992,4.122604,-34.12653,3.939026,0.6713671,0.4997628,0.9159141,0.01896667,0.05883789,0.9980774,35.39592,4.715363,-29.1916,4.750076,0.4039626,0.4181246,0.01434159,1.334418,-0.1447464,-0.05290027,0.6719543,0.06817624,0.1511789,-17.32507,34.93
4,-0.1691742,0.01972961,0.9853821,0.8410997,-0.1691742,0.01972961,0.9853821,-35.39992,4.122604,-34.12653,3.939026,0.6713671,0.4997628,0.9159141,0.01896667,0.05883789,0.9980774,35.39592,4.715363,-29.1916,4.750076,0.4039626,0.4181246,0.01434159,1.334418,-0.1447464,-0.05290027,0.6719543,0.06817624,0.1511789,-17.32507,34.93
4,-0.1691742,0.01972961,0.9853821,0.8410997,-0.1691742,0.01972961,0.9853821,-35.39992,4.122604,-34.12653,3.939026,0.6713671,0.4997628,0.9159141,0.01896667,0.05883789,0.9980774,35.39592,4.715363,-29.1916,4.750076,0.4039626,0.4181246,0.01434159,1.334418,-0.1447464,-0.05290027,0.6719543,0.06817624,0.1511789,-17.32507,34.93
4,-0.1691742,0.01972961,0.9853821,0.8410997,-0.1691742,0.01972961,0.9853821,-35.39992,4.122604,-34.12653,3.939026,0.6713671,0.4997628,0.9159141,0.01896667,0.05883789,0.9980774,35.39592,4.715363,-29.1916,4.750076,0.4039626,0.4181246,0.01641512,1.333814,-0.1436091,-0.04967519,0.6708676,0.0743105,0.1511789,-17.32507,34.93
4,-0.1691742,0.01972961,0.9853821,0.8410997,-0.1691742,0.01972961,0.9853821,-35.39992,4.122604,-34.12653,3.939026,0.6713671,0.4997628,0.9159141,0.01896667,0.05883789,0.9980774,35.39592,4.715363,-29.1916,4.750076,0.4039626,0.4181246,0.01641512,1.333814,-0.1436091,-0.04967519,0.6708676,0.0743105,0.1511789,-17.32507,34.93
4,-0.1691742,0.01972961,0.9853821,0.8410997,-0.1691742,0.01972961,0.9853821,-35.39992,4.122604,-34.12653,3.939026,0.6713671,0.4997628,0.9159141,0.01896667,0.05883789,0.9980774,35.39592,4.715363,-29.1916,4.750076,0.4039626,0.4181246,0.01641512,1.333814,-0.1436091,-0.04967519,0.6708676,0.0743105,0.1511789,-17.32507,34.93
4,-0.08409119,0.01159668,0.9963837,0.84043,-0.1260223,0.002838135,0.9920197,-35.44685,3.756729,-33.28423,4.039719,0.6661951,0.5071574,0.9484451,0.02105713,0.03330994,0.9992218,35.4489,4.429321,-28.72864,4.802689,0.4022318,0.4270927,0.01868224,1.333332,-0.1426232,-0.05008194,0.6712719,0.07564731,0.1511789,-17.32507,34.93
4,-0.08409119,0.01159668,0.9963837,0.84043,-0.1260223,0.002838135,0.9920197,-35.44685,3.756729,-33.28423,4.039719,0.6661951,0.5071574,0.9484451,0.02105713,0.03330994,0.9992218,35.4489,4.429321,-28.72864,4.802689,0.4022318,0.4270927,0.01868224,1.333332,-0.1426232,-0.05008194,0.6712719,0.07564731,0.1511789,-17.32507,34.93
4,-0.08409119,0.01159668,0.9963837,0.84043,-0.1260223,0.002838135,0.9920197,-35.44685,3.756729,-33.28423,4.039719,0.6661951,0.5071574,0.9484451,0.02105713,0.03330994,0.9992218,35.4489,4.429321,-28.72864,4.802689,0.4022318,0.4270927,0.01868224,1.333332,-0.1426232,-0.05008194,0.6712719,0.07564731,0.1511789,-17.32507,34.93
4,0.008956909,-0.01901245,0.9997711,0.849259,-0.1260223,-0.02185059,0.9917755,-35.4695,3.626785,-33.35999,4.01413,0.667112,0.5155154,0.9437197,0.03201294,-0.01849365,0.9993134,35.35945,4.569611,-29.54141,4.663025,0.4033526,0.4348392,0.02057481,1.331981,-0.1419421,-0.04777092,0.6715723,0.0712246,0.1511789,-17.32507,34.93
4,0.008956909,-0.01901245,0.9997711,0.849259,-0.1260223,-0.02185059,0.9917755,-35.4695,3.626785,-33.35999,4.01413,0.667112,0.5155154,0.9437197,0.03201294,-0.01849365,0.9993134,35.35945,4.569611,-29.54141,4.663025,0.4033526,0.4348392,0.02057481,1.331981,-0.1419421,-0.04777092,0.6715723,0.0712246,0.1511789,-17.32507,34.93
4,0.008956909,-0.01901245,0.9997711,0.849259,-0.1260223,-0.02185059,0.9917755,-35.4695,3.626785,-33.35999,4.01413,0.667112,0.5155154,0.9437197,0.03201294,-0.01849365,0.9993134,35.35945,4.569611,-29.54141,4.663025,0.4033526,0.4348392,0.02057481,1.331981,-0.1419421,-0.04777092,0.6715723,0.0712246,0.1511789,-17.32507,34.93
4,-0.1235657,-0.02731323,0.9919586,0.871419,-0.129837,-0.02832031,0.9911194,-35.46805,3.492737,-33.07855,4.093765,0.6671572,0.518553,0.944212,0.0246582,-0.003540039,0.9996796,35.40828,4.234512,-28.65941,4.648361,0.4033582,0.437302,0.02290583,1.330218,-0.1410883,-0.04425676,0.6713803,0.06592932,0.1511789,-17.32507,34.93
4,-0.1235657,-0.02731323,0.9919586,0.871419,-0.129837,-0.02832031,0.9911194,-35.46805,3.492737,-33.07855,4.093765,0.6671572,0.518553,0.944212,0.0246582,-0.003540039,0.9996796,35.40828,4.234512,-28.65941,4.648361,0.4033582,0.437302,0.02290583,1.330218,-0.1410883,-0.04425676,0.6713803,0.06592932,0.1511789,-17.32507,34.93
4,-0.1235657,-0.02731323,0.9919586,0.871419,-0.129837,-0.02832031,0.9911194,-35.46805,3.492737,-33.07855,4.093765,0.6671572,0.518553,0.944212,0.0246582,-0.003540039,0.9996796,35.40828,4.234512,-28.65941,4.648361,0.4033582,0.437302,0.02290583,1.330218,-0.1410883,-0.04425676,0.6713803,0.06592932,0.1511789,-17.32507,34.93
5,-0.1363831,-0.02206421,0.9904022,0.8643057,-0.1364288,-0.02206421,0.9904022,-35.47008,3.549988,-33.2079,4.026474,0.6682124,0.5169139,0.9328393,0.03556824,-0.01856995,0.9991913,35.35097,4.534195,-29.47424,4.632355,0.4033406,0.4354971,0.02538896,1.328781,-0.1404237,-0.04190543,0.6712557,0.06268933,0.1511789,-36.40836,34.93
5,-0.1363831,-0.02206421,0.9904022,0.8643057,-0.1364288,-0.02206421,0.9904022,-35.47008,3.549988,-33.2079,4.026474,0.6682124,0.5169139,0.9328393,0.03556824,-0.01856995,0.9991913,35.35097,4.534195,-29.47424,4.632355,0.4033406,0.4354971,0.02538896,1.328781,-0.1404237,-0.04190543,0.6712557,0.06268933,0.1511789,-36.40836,34.93
5,-0.1363831,-0.02206421,0.9904022,0.8643057,-0.1364288,-0.02206421,0.9904022,-35.47008,3.549988,-33.2079,4.026474,0.6682124,0.5169139,0.9328393,0.03556824,-0.01856995,0.9991913,35.35097,4.534195,-29.47424,4.632355,0.4033406,0.4354971,0.02538896,1.328781,-0.1404237,-0.04190543,0.6712557,0.06268933,0.1511789,-36.40836,34.93
