Second,eye_comb_direction_x,eye_comb_direction_y,eye_comb_direction_z,eye_r_openness,eye_r_direction_x,eye_r_direction_y,eye_r_direction_z,eye_r_origin_x,eye_r_origin_y,eye_r_origin_z,eye_r_pupil_diameter,eye_r_pupil_position_x,eye_r_pupil_position_y,eye_l_openness,eye_l_direction_x,eye_l_direction_y,eye_l_direction_z,eye_l_origin_x,eye_l_origin_y,eye_l_origin_z,eye_l_pupil_diameter,eye_l_pupil_position_x,eye_l_pupil_position_y,head_position_x,head_position_y,head_position_z,head_rotation_roll,head_rotation_pitch,head_rotation_yaw,EDA,BVP,TMP
0,-1.0,-1.0,-1.0,0.04331772,0.0,0.0,0.0,-32.53297,0.6569519,-36.00928,-1.0,-1.0,-1.0,0.0,0.0,0.0,0.0,37.07994,1.420822,-31.88538,-1.0,-1.0,-1.0,0.08509803,1.279549,-0.1865546,-0.08641931,0.7763546,0.1223836,0.2472671,3.1641325186028855,33.43740318906606
0,-1.0,-1.0,-1.0,0.04331772,0.0,0.0,0.0,-32.53297,0.6569519,-36.00928,-1.0,-1.0,-1.0,0.0,0.0,0.0,0.0,37.07994,1.420822,-31.88538,-1.0,-1.0,-1.0,0.08509803,1.279549,-0.1865546,-0.08641931,0.7763546,0.1223836,0.2472671,3.1641325186028855,33.43740318906606
0,-1.0,-1.0,-1.0,0.04331772,0.0,0.0,0.0,-32.53297,0.6569519,-36.00928,-1.0,-1.0,-1.0,0.0,0.0,0.0,0.0,37.07994,1.420822,-31.88538,-1.0,-1.0,-1.0,0.08509803,1.279549,-0.1865546,-0.08641931,0.7763546,0.1223836,0.2472671,3.1641325186028855,33.43740318906606
0,-1.0,-1.0,-1.0,0.05598633,0.0,0.0,0.0,-32.53297,0.6569519,-36.00928,-1.0,-1.0,-1.0,0.0,0.0,0.0,0.0,37.07994,1.420822,-31.88538,-1.0,-1.0,-1.0,0.08507657,1.279637,-0.1866093,-0.08686244,0.7765447,0.1221773,0.2472671,3.1641325186028855,33.43740318906606
0,-1.0,-1.0,-1.0,0.05598633,0.0,0.0,0.0,-32.53297,0.6569519,-36.00928,-1.0,-1.0,-1.0,0.0,0.0,0.0,0.0,37.07994,1.420822,-31.88538,-1.0,-1.0,-1.0,0.08507657,1.279637,-0.1866093,-0.08686244,0.7765447,0.1221773,0.2472671,3.1641325186028855,33.43740318906606
0,-1.0,-1.0,-1.0,0.05598633,0.0,0.0,0.0,-32.53297,0.6569519,-36.00928,-1.0,-1.0,-1.0,0.0,0.0,0.0,0.0,37.07994,1.420822,-31.88538,-1.0,-1.0,-1.0,0.08507657,1.279637,-0.1866093,-0.08686244,0.7765447,0.1221773,0.2472671,3.1641325186028855,33.43740318906606
0,-1.0,-1.0,-1.0,0.102515,0.0,0.0,0.0,-32.53297,0.6569519,-36.00928,-1.0,-1.0,-1.0,0.0,0.0,0.0,0.0,37.07994,1.420822,-31.88538,-1.0,-1.0,-1.0,0.08507848,1.279672,-0.1866305,-0.08680225,0.7766467,0.1221145,0.2472671,3.1641325186028855,33.43740318906606
0,-1.0,-1.0,-1.0,0.102515,0.0,0.0,0.0,-32.53297,0.6569519,-36.00928,-1.0,-1.0,-1.0,0.0,0.0,0.0,0.0,37.07994,1.420822,-31.88538,-1.0,-1.0,-1.0,0.08507848,1.279672,-0.1866305,-0.08680225,0.7766467,0.1221145,0.2472671,3.1641325186028855,33.43740318906606
0,-1.0,-1.0,-1.0,0.102515,0.0,0.0,0.0,-32.53297,0.6569519,-36.00928,-1.0,-1.0,-1.0,0.0,0.0,0.0,0.0,37.07994,1.420822,-31.88538,-1.0,-1.0,-1.0,0.08507848,1.279672,-0.1866305,-0.08680225,0.7766467,0.1221145,0.2472671,3.1641325186028855,33.43740318906606
0,-1.0,-1.0,-1.0,0.102515,0.0,0.0,0.0,-32.53297,0.6569519,-36.00928,-1.0,-1.0,-1.0,0.0,0.0,0.0,0.0,37.07994,1.420822,-31.88538,-1.0,-1.0,-1.0,0.08494329,1.279681,-0.1867139,-0.08673351,0.77684,0.1220151,0.2472671,3.1641325186028855,33.43740318906606
0,-1.0,-1.0,-1.0,0.102515,0.0,0.0,0.0,-32.53297,0.6569519,-36.00928,-1.0,-1.0,-1.0,0.0,0.0,0.0,0.0,37.07994,1.420822,-31.88538,-1.0,-1.0,-1.0,0.08494329,1.279681,-0.1867139,-0.08673351,0.77684,0.1220151,0.2472671,3.1641325186028855,33.43740318906606
0,-1.0,-1.0,-1.0,0.102515,0.0,0.0,0.0,-32.53297,0.6569519,-36.00928,-1.0,-1.0,-1.0,0.0,0.0,0.0,0.0,37.07994,1.420822,-31.88538,-1.0,-1.0,-1.0,0.08494329,1.279681,-0.1867139,-0.08673351,0.77684,0.1220151,0.2472671,3.1641325186028855,33.43740318906606
0,-1.0,-1.0,-1.0,0.1104156,0.0,0.0,0.0,-32.53297,0.6569519,-36.00928,-1.0,0.5247751,0.6969573,0.0,0.0,0.0,0.0,37.07994,1.420822,-31.88538,-1.0,-1.0,-1.0,0.08492589,1.279647,-0.1867239,-0.08673652,0.7769269,0.1220264,0.2472671,3.1641325186028855,33.43740318906606
0,-1.0,-1.0,-1.0,0.1104156,0.0,0.0,0.0,-32.53297,0.6569519,-36.00928,-1.0,0.5247751,0.6969573,0.0,0.0,0.0,0.0,37.07994,1.420822,-31.88538,-1.0,-1.0,-1.0,0.08492589,1.279647,-0.1867239,-0.08673652,0.7769269,0.1220264,0.2472671,3.1641325186028855,33.43740318906606
0,-1.0,-1.0,-1.0,0.1104156,0.0,0.0,0.0,-32.53297,0.6569519,-36.00928,-1.0,0.5247751,0.6969573,0.0,0.0,0.0,0.0,37.07994,1.420822,-31.88538,-1.0,-1.0,-1.0,0.08492589,1.279647,-0.1867239,-0.08673652,0.7769269,0.1220264,0.2472671,3.1641325186028855,33.43740318906606
0,0.1073608,-0.5551147,0.8247986,0.06772968,0.1073608,-0.5551147,0.8247986,-34.12909,0.7400665,-35.355,2.686996,0.5904135,0.7148276,0.0,0.0,0.0,0.0,37.07994,1.420822,-31.88538,-1.0,-1.0,-1.0,0.08483219,1.279604,-0.1867916,-0.08656958,0.7769817,0.1219291,0.2472671,3.1641325186028855,33.43740318906606
0,0.1073608,-0.5551147,0.8247986,0.06772968,0.1073608,-0.5551147,0.8247986,-34.12909,0.7400665,-35.355,2.686996,0.5904135,0.7148276,0.0,0.0,0.0,0.0,37.07994,1.420822,-31.88538,-1.0,-1.0,-1.0,0.08483219,1.279604,-0.1867916,-0.08656958,0.7769817,0.1219291,0.2472671,3.1641325186028855,33.43740318906606
0,0.1073608,-0.5551147,0.8247986,0.06772968,0.1073608,-0.5551147,0.8247986,-34.12909,0.7400665,-35.355,2.686996,0.5904135,0.7148276,0.0,0.0,0.0,0.0,37.07994,1.420822,-31.88538,-1.0,-1.0,-1.0,0.08483219,1.279604,-0.1867916,-0.08656958,0.7769817,0.1219291,0.2472671,3.1641325186028855,33.43740318906606
0,-0.02746582,-0.500412,0.8653412,0.1195404,0.0,0.0,0.0,-34.12909,0.7400665,-35.355,-1.0,0.6482569,0.6715213,0.0,-0.02746582,-0.500412,0.8653412,35.85315,3.490585,-30.69841,3.585709,0.3923341,0.5429059,0.08484077,1.279618,-0.1867731,-0.08654308,0.7769572,0.1219626,0.2472671,3.1641325186028855,33.43740318906606
0,-0.02746582,-0.500412,0.8653412,0.1195404,0.0,0.0,0.0,-34.12909,0.7400665,-35.355,-1.0,0.6482569,0.6715213,0.0,-0.02746582,-0.500412,0.8653412,35.85315,3.490585,-30.69841,3.585709,0.3923341,0.5429059,0.08484077,1.279618,-0.1867731,-0.08654308,0.7769572,0.1219626,0.2472671,3.1641325186028855,33.43740318906606
0,-0.02746582,-0.500412,0.8653412,0.1195404,0.0,0.0,0.0,-34.12909,0.7400665,-35.355,-1.0,0.6482569,0.6715213,0.0,-0.02746582,-0.500412,0.8653412,35.85315,3.490585,-30.69841,3.585709,0.3923341,0.5429059,0.08484077,1.279618,-0.1867731,-0.08654308,0.7769572,0.1219626,0.2472671,3.1641325186028855,33.43740318906606
0,0.02526855,-0.3920593,0.9195862,0.1537845,0.0,0.0,0.0,-35.15001,1.231979,-35.01988,-1.0,0.6409304,0.6888623,0.0312486,0.02526855,-0.3920593,0.9195862,35.55516,2.745895,-30.95392,3.465485,0.3960752,0.5558038,0.08482265,1.279595,-0.1867322,-0.08658731,0.7768161,0.1221231,0.2472671,3.1641325186028855,33.43740318906606
0,0.02526855,-0.3920593,0.9195862,0.1537845,0.0,0.0,0.0,-35.15001,1.231979,-35.01988,-1.0,0.6409304,0.6888623,0.0312486,0.02526855,-0.3920593,0.9195862,35.55516,2.745895,-30.95392,3.465485,0.3960752,0.5558038,0.08482265,1.279595,-0.1867322,-0.08658731,0.7768161,0.1221231,0.2472671,3.1641325186028855,33.43740318906606
0,0.02526855,-0.3920593,0.9195862,0.1537845,0.0,0.0,0.0,-35.15001,1.231979,-35.01988,-1.0,0.6409304,0.6888623,0.0312486,0.02526855,-0.3920593,0.9195862,35.55516,2.745895,-30.95392,3.465485,0.3960752,0.5558038,0.08482265,1.279595,-0.1867322,-0.08658731,0.7768161,0.1221231,0.2472671,3.1641325186028855,33.43740318906606
0,-0.02484131,-0.4853516,0.8739471,0.2278372,-0.0358429,-0.4853821,0.8735504,-34.95509,1.142197,-35.05972,3.175598,0.640176,0.6851588,0.1012207,0.1555481,-0.4764099,0.8653412,35.81905,3.703064,-30.67258,5.34343,0.3697731,0.5305973,0.08484149,1.27956,-0.1867369,-0.0864983,0.7767271,0.1220713,0.2472671,3.1641325186028855,33.43740318906606
0,-0.02484131,-0.4853516,0.8739471,0.2278372,-0.0358429,-0.4853821,0.8735504,-34.95509,1.142197,-35.05972,3.175598,0.640176,0.6851588,0.1012207,0.1555481,-0.4764099,0.8653412,35.81905,3.703064,-30.67258,5.34343,0.3697731,0.5305973,0.08484149,1.27956,-0.1867369,-0.0864983,0.7767271,0.1220713,0.2472671,3.1641325186028855,33.43740318906606
0,-0.02484131,-0.4853516,0.8739471,0.2278372,-0.0358429,-0.4853821,0.8735504,-34.95509,1.142197,-35.05972,3.175598,0.640176,0.6851588,0.1012207,0.1555481,-0.4764099,0.8653412,35.81905,3.703064,-30.67258,5.34343,0.3697731,0.5305973,0.08484149,1.27956,-0.1867369,-0.0864983,0.7767271,0.1220713,0.2472671,3.1641325186028855,33.43740318906606
0,-0.02484131,-0.4853516,0.8739471,0.2278372,-0.0358429,-0.4853821,0.8735504,-34.95509,1.142197,-35.05972,3.175598,0.640176,0.6851588,0.1012207,0.1555481,-0.4764099,0.8653412,35.81905,3.703064,-30.67258,5.34343,0.3697731,0.5305973,0.08484674,1.279614,-0.1867056,-0.08634255,0.7765176,0.1222493,0.2472671,3.1641325186028855,33.43740318906606
0,-0.02484131,-0.4853516,0.8739471,0.2278372,-0.0358429,-0.4853821,0.8735504,-34.95509,1.142197,-35.05972,3.175598,0.640176,0.6851588,0.1012207,0.1555481,-0.4764099,0.8653412,35.81905,3.703064,-30.67258,5.34343,0.3697731,0.5305973,0.08484674,1.279614,-0.1867056,-0.08634255,0.7765176,0.1222493,0.2472671,3.1641325186028855,33.43740318906606
0,-0.02484131,-0.4853516,0.8739471,0.2278372,-0.0358429,-0.4853821,0.8735504,-34.95509,1.142197,-35.05972,3.175598,0.640176,0.6851588,0.1012207,0.1555481,-0.4764099,0.8653412,35.81905,3.703064,-30.67258,5.34343,0.3697731,0.5305973,0.08484674,1.279614,-0.1867056,-0.08634255,0.7765176,0.1222493,0.2472671,3.1641325186028855,33.43740318906606
0,0.05249023,-0.47258,0.879715,0.310025,0.0,0.0,0.0,-34.95509,1.142197,-35.05972,-1.0,0.6438209,0.6883989,0.1713466,0.05249023,-0.47258,0.879715,35.80292,3.6138,-30.68655,4.671005,0.3832989,0.5336572,0.0848062,1.279582,-0.1866871,-0.08630699,0.7765084,0.1221251,0.2472671,3.1641325186028855,33.43740318906606
0,0.05249023,-0.47258,0.879715,0.310025,0.0,0.0,0.0,-34.95509,1.142197,-35.05972,-1.0,0.6438209,0.6883989,0.1713466,0.05249023,-0.47258,0.879715,35.80292,3.6138,-30.68655,4.671005,0.3832989,0.5336572,0.0848062,1.279582,-0.1866871,-0.08630699,0.7765084,0.1221251,0.2472671,3.1641325186028855,33.43740318906606
0,0.05249023,-0.47258,0.879715,0.310025,0.0,0.0,0.0,-34.95509,1.142197,-35.05972,-1.0,0.6438209,0.6883989,0.1713466,0.05249023,-0.47258,0.879715,35.80292,3.6138,-30.68655,4.671005,0.3832989,0.5336572,0.0848062,1.279582,-0.1866871,-0.08630699,0.7765084,0.1221251,0.2472671,3.1641325186028855,33.43740318906606
0,0.1439819,-0.5216522,0.8409119,0.5974401,-0.0377655,-0.451828,0.8912964,-35.03606,1.362564,-34.95506,3.985947,0.6441113,0.6705554,0.4172271,0.1482849,-0.5230713,0.8392792,35.84622,3.596466,-30.68867,5.030853,0.3697026,0.540944,0.08480287,1.279549,-0.1866909,-0.08611976,0.7764831,0.122102,0.2472671,3.1641325186028855,33.43740318906606
0,0.1439819,-0.5216522,0.8409119,0.5974401,-0.0377655,-0.451828,0.8912964,-35.03606,1.362564,-34.95506,3.985947,0.6441113,0.6705554,0.4172271,0.1482849,-0.5230713,0.8392792,35.84622,3.596466,-30.68867,5.030853,0.3697026,0.540944,0.08480287,1.279549,-0.1866909,-0.08611976,0.7764831,0.122102,0.2472671,3.1641325186028855,33.43740318906606
0,0.1439819,-0.5216522,0.8409119,0.5974401,-0.0377655,-0.451828,0.8912964,-35.03606,1.362564,-34.95506,3.985947,0.6441113,0.6705554,0.4172271,0.1482849,-0.5230713,0.8392792,35.84622,3.596466,-30.68867,5.030853,0.3697026,0.540944,0.08480287,1.279549,-0.1866909,-0.08611976,0.7764831,0.122102,0.2472671,3.1641325186028855,33.43740318906606
0,0.1439819,-0.5216522,0.8409119,0.5974401,-0.0377655,-0.451828,0.8912964,-35.03606,1.362564,-34.95506,3.985947,0.6441113,0.6705554,0.4172271,0.1482849,-0.5230713,0.8392792,35.84622,3.596466,-30.68867,5.030853,0.3697026,0.540944,0.0847683,1.279453,-0.1867265,-0.08598058,0.7765856,0.1218737,0.2472671,15.07968,33.43740318906606
0,0.1439819,-0.5216522,0.8409119,0.5974401,-0.0377655,-0.451828,0.8912964,-35.03606,1.362564,-34.95506,3.985947,0.6441113,0.6705554,0.4172271,0.1482849,-0.5230713,0.8392792,35.84622,3.596466,-30.68867,5.030853,0.3697026,0.540944,0.0847683,1.279453,-0.1867265,-0.08598058,0.7765856,0.1218737,0.2472671,15.07968,33.43740318906606
0,0.1439819,-0.5216522,0.8409119,0.5974401,-0.0377655,-0.451828,0.8912964,-35.03606,1.362564,-34.95506,3.985947,0.6441113,0.6705554,0.4172271,0.1482849,-0.5230713,0.8392792,35.84622,3.596466,-30.68867,5.030853,0.3697026,0.540944,0.0847683,1.279453,-0.1867265,-0.08598058,0.7765856,0.1218737,0.2472671,15.07968,33.43740318906606
0,0.1439819,-0.5216522,0.8409119,0.5974401,-0.0377655,-0.451828,0.8912964,-35.03606,1.362564,-34.95506,3.985947,0.6441113,0.6705554,0.4172271,0.1482849,-0.5230713,0.8392792,35.84622,3.596466,-30.68867,5.030853,0.3697026,0.540944,0.0847435,1.279436,-0.1867564,-0.08599765,0.7766228,0.121729,0.2472671,15.07968,33.43740318906606
0,0.1439819,-0.5216522,0.8409119,0.5974401,-0.0377655,-0.451828,0.8912964,-35.03606,1.362564,-34.95506,3.985947,0.6441113,0.6705554,0.4172271,0.1482849,-0.5230713,0.8392792,35.84622,3.596466,-30.68867,5.030853,0.3697026,0.540944,0.0847435,1.279436,-0.1867564,-0.08599765,0.7766228,0.121729,0.2472671,15.07968,33.43740318906606
0,0.1439819,-0.5216522,0.8409119,0.5974401,-0.0377655,-0.451828,0.8912964,-35.03606,1.362564,-34.95506,3.985947,0.6441113,0.6705554,0.4172271,0.1482849,-0.5230713,0.8392792,35.84622,3.596466,-30.68867,5.030853,0.3697026,0.540944,0.0847435,1.279436,-0.1867564,-0.08599765,0.7766228,0.121729,0.2472671,15.07968,33.43740318906606
0,0.003295898,-0.5494537,0.835495,0.5974401,-0.04406738,-0.4466858,0.8936005,-35.0396,1.362579,-34.95514,4.033417,0.6451141,0.6698018,0.4172271,0.00642395,-0.5559387,0.831192,35.82402,3.619232,-30.713,4.302368,0.3882433,0.5457783,0.08476973,1.279491,-0.1868272,-0.08607347,0.7767012,0.1216738,0.2472671,15.07968,33.43740318906606
0,0.003295898,-0.5494537,0.835495,0.5974401,-0.04406738,-0.4466858,0.8936005,-35.0396,1.362579,-34.95514,4.033417,0.6451141,0.6698018,0.4172271,0.00642395,-0.5559387,0.831192,35.82402,3.619232,-30.713,4.302368,0.3882433,0.5457783,0.08476973,1.279491,-0.1868272,-0.08607347,0.7767012,0.1216738,0.2472671,15.07968,33.43740318906606
0,0.003295898,-0.5494537,0.835495,0.5974401,-0.04406738,-0.4466858,0.8936005,-35.0396,1.362579,-34.95514,4.033417,0.6451141,0.6698018,0.4172271,0.00642395,-0.5559387,0.831192,35.82402,3.619232,-30.713,4.302368,0.3882433,0.5457783,0.08476973,1.279491,-0.1868272,-0.08607347,0.7767012,0.1216738,0.2472671,15.07968,33.43740318906606
0,0.003295898,-0.5494537,0.835495,0.5974401,-0.04406738,-0.4466858,0.8936005,-35.0396,1.362579,-34.95514,4.033417,0.6451141,0.6698018,0.4172271,0.00642395,-0.5559387,0.831192,35.82402,3.619232,-30.713,4.302368,0.3882433,0.5457783,0.08478594,1.279442,-0.1869609,-0.08610315,0.7767706,0.1215033,0.2472671,15.07968,33.43740318906606
0,0.003295898,-0.5494537,0.835495,0.5974401,-0.04406738,-0.4466858,0.8936005,-35.0396,1.362579,-34.95514,4.033417,0.6451141,0.6698018,0.4172271,0.00642395,-0.5559387,0.831192,35.82402,3.619232,-30.713,4.302368,0.3882433,0.5457783,0.08478594,1.279442,-0.1869609,-0.08610315,0.7767706,0.1215033,0.2472671,15.07968,33.43740318906606
0,0.003295898,-0.5494537,0.835495,0.5974401,-0.04406738,-0.4466858,0.8936005,-35.0396,1.362579,-34.95514,4.033417,0.6451141,0.6698018,0.4172271,0.00642395,-0.5559387,0.831192,35.82402,3.619232,-30.713,4.302368,0.3882433,0.5457783,0.08478594,1.279442,-0.1869609,-0.08610315,0.7767706,0.1215033,0.2472671,15.07968,33.43740318906606
0,0.09460449,-0.4452209,0.8903961,0.6911864,0.02380371,-0.6358337,0.7714386,-35.16364,1.874146,-34.82208,3.709076,0.6406723,0.679124,0.5132847,0.1098328,-0.3988953,0.9103851,35.80801,3.555481,-30.68268,5.292084,0.3758639,0.5255621,0.08477879,1.279377,-0.1870654,-0.08615851,0.7768649,0.1214103,0.2472671,15.07968,33.43740318906606
0,0.09460449,-0.4452209,0.8903961,0.6911864,0.02380371,-0.6358337,0.7714386,-35.16364,1.874146,-34.82208,3.709076,0.6406723,0.679124,0.5132847,0.1098328,-0.3988953,0.9103851,35.80801,3.555481,-30.68268,5.292084,0.3758639,0.5255621,0.08477879,1.279377,-0.1870654,-0.08615851,0.7768649,0.1214103,0.2472671,15.07968,33.43740318906606
0,0.09460449,-0.4452209,0.8903961,0.6911864,0.02380371,-0.6358337,0.7714386,-35.16364,1.874146,-34.82208,3.709076,0.6406723,0.679124,0.5132847,0.1098328,-0.3988953,0.9103851,35.80801,3.555481,-30.68268,5.292084,0.3758639,0.5255621,0.08477879,1.279377,-0.1870654,-0.08615851,0.7768649,0.1214103,0.2472671,15.07968,33.43740318906606
0,0.2312469,-0.4399414,0.8677216,0.7742987,0.09680176,-0.510788,0.8542328,-34.60823,1.90448,-34.75043,4.35701,0.6109753,0.6569716,0.5280136,0.2828064,-0.4091797,0.8675079,36.14085,3.602036,-30.71806,5.240646,0.3431908,0.5260565,0.08476496,1.279414,-0.1870463,-0.08606416,0.7768686,0.1214469,0.2472671,-25.34247,33.43740318906606
0,0.2312469,-0.4399414,0.8677216,0.7742987,0.09680176,-0.510788,0.8542328,-34.60823,1.90448,-34.75043,4.35701,0.6109753,0.6569716,0.5280136,0.2828064,-0.4091797,0.8675079,36.14085,3.602036,-30.71806,5.240646,0.3431908,0.5260565,0.08476496,1.279414,-0.1870463,-0.08606416,0.7768686,0.1214469,0.2472671,-25.34247,33.43740318906606
0,0.2312469,-0.4399414,0.8677216,0.7742987,0.09680176,-0.510788,0.8542328,-34.60823,1.90448,-34.75043,4.35701,0.6109753,0.6569716,0.5280136,0.2828064,-0.4091797,0.8675079,36.14085,3.602036,-30.71806,5.240646,0.3431908,0.5260565,0.08476496,1.279414,-0.1870463,-0.08606416,0.7768686,0.1214469,0.2472671,-25.34247,33.43740318906606
0,0.2713318,-0.3991852,0.8757935,0.767977,0.1031647,-0.4448395,0.8896332,-34.3688,1.975845,-34.71675,4.507568,0.601404,0.6441885,0.5429409,0.3454132,-0.3742676,0.8605804,36.2476,3.560806,-30.78148,5.130157,0.3316696,0.5239426,0.08488631,1.279343,-0.1869662,-0.08583744,0.7767625,0.1214702,0.2472671,-25.34247,33.43740318906606
0,0.2713318,-0.3991852,0.8757935,0.767977,0.1031647,-0.4448395,0.8896332,-34.3688,1.975845,-34.71675,4.507568,0.601404,0.6441885,0.5429409,0.3454132,-0.3742676,0.8605804,36.2476,3.560806,-30.78148,5.130157,0.3316696,0.5239426,0.08488631,1.279343,-0.1869662,-0.08583744,0.7767625,0.1214702,0.2472671,-25.34247,33.43740318906606
0,0.2713318,-0.3991852,0.8757935,0.767977,0.1031647,-0.4448395,0.8896332,-34.3688,1.975845,-34.71675,4.507568,0.601404,0.6441885,0.5429409,0.3454132,-0.3742676,0.8605804,36.2476,3.560806,-30.78148,5.130157,0.3316696,0.5239426,0.08488631,1.279343,-0.1869662,-0.08583744,0.7767625,0.1214702,0.2472671,-25.34247,33.43740318906606
0,0.2420197,-0.394165,0.8865814,0.7751092,0.11203,-0.4472046,0.8873749,-34.36418,1.966034,-34.71761,4.400177,0.5999367,0.6449659,0.5616223,0.3564453,-0.3389893,0.870636,36.15771,3.541733,-30.78265,5.045761,0.3336456,0.5201793,0.08521199,1.279275,-0.1867909,-0.08539423,0.7764325,0.1211098,0.2472671,-25.34247,33.43740318906606
0,0.2420197,-0.394165,0.8865814,0.7751092,0.11203,-0.4472046,0.8873749,-34.36418,1.966034,-34.71761,4.400177,0.5999367,0.6449659,0.5616223,0.3564453,-0.3389893,0.870636,36.15771,3.541733,-30.78265,5.045761,0.3336456,0.5201793,0.08521199,1.279275,-0.1867909,-0.08539423,0.7764325,0.1211098,0.2472671,-25.34247,33.43740318906606
0,0.2420197,-0.394165,0.8865814,0.7751092,0.11203,-0.4472046,0.8873749,-34.36418,1.966034,-34.71761,4.400177,0.5999367,0.6449659,0.5616223,0.3564453,-0.3389893,0.870636,36.15771,3.541733,-30.78265,5.045761,0.3336456,0.5201793,0.08521199,1.279275,-0.1867909,-0.08539423,0.7764325,0.1211098,0.2472671,-25.34247,33.43740318906606
0,0.2397308,-0.3916321,0.8883362,0.7757019,0.1110992,-0.4358215,0.8931427,-34.36664,1.951538,-34.71901,4.267822,0.5999197,0.6439122,0.5722347,0.354538,-0.3443909,0.8692932,36.14757,3.537018,-30.78178,5.020416,0.334234,0.5210211,0.08544564,1.279134,-0.1867254,-0.08503733,0.7762135,0.1209401,0.2472671,-25.34247,33.43740318906606
0,0.2397308,-0.3916321,0.8883362,0.7757019,0.1110992,-0.4358215,0.8931427,-34.36664,1.951538,-34.71901,4.267822,0.5999197,0.6439122,0.5722347,0.354538,-0.3443909,0.8692932,36.14757,3.537018,-30.78178,5.020416,0.334234,0.5210211,0.08544564,1.279134,-0.1867254,-0.08503733,0.7762135,0.1209401,0.2472671,-25.34247,33.43740318906606
0,0.2397308,-0.3916321,0.8883362,0.7757019,0.1110992,-0.4358215,0.8931427,-34.36664,1.951538,-34.71901,4.267822,0.5999197,0.6439122,0.5722347,0.354538,-0.3443909,0.8692932,36.14757,3.537018,-30.78178,5.020416,0.334234,0.5210211,0.08544564,1.279134,-0.1867254,-0.08503733,0.7762135,0.1209401,0.2472671,-25.34247,33.43740318906606
0,0.2397308,-0.3916321,0.8883362,0.7757019,0.1110992,-0.4358215,0.8931427,-34.36664,1.951538,-34.71901,4.267822,0.5999197,0.6439122,0.5722347,0.354538,-0.3443909,0.8692932,36.14757,3.537018,-30.78178,5.020416,0.334234,0.5210211,0.08578253,1.279036,-0.1864923,-0.08422392,0.7755453,0.120464,0.2472671,-25.34247,33.43740318906606
0,0.2397308,-0.3916321,0.8883362,0.7757019,0.1110992,-0.4358215,0.8931427,-34.36664,1.951538,-34.71901,4.267822,0.5999197,0.6439122,0.5722347,0.354538,-0.3443909,0.8692932,36.14757,3.537018,-30.78178,5.020416,0.334234,0.5210211,0.08578253,1.279036,-0.1864923,-0.08422392,0.7755453,0.120464,0.2472671,-25.34247,33.43740318906606
0,0.2397308,-0.3916321,0.8883362,0.7757019,0.1110992,-0.4358215,0.8931427,-34.36664,1.951538,-34.71901,4.267822,0.5999197,0.6439122,0.5722347,0.354538,-0.3443909,0.8692932,36.14757,3.537018,-30.78178,5.020416,0.334234,0.5210211,0.08578253,1.279036,-0.1864923,-0.08422392,0.7755453,0.120464,0.2472671,-25.34247,33.43740318906606
0,0.2460785,-0.3846893,0.8896332,0.7757019,0.1120605,-0.4318085,0.8949738,-34.37012,1.935623,-34.71886,4.267517,0.5999197,0.6439122,0.5722347,0.3492889,-0.3415985,0.8725128,36.15771,3.522705,-30.78087,4.993149,0.3345663,0.5210945,0.08609056,1.278952,-0.1861829,-0.08336107,0.7748428,0.1203343,0.2472671,6.070282,33.43740318906606
0,0.2460785,-0.3846893,0.8896332,0.7757019,0.1120605,-0.4318085,0.8949738,-34.37012,1.935623,-34.71886,4.267517,0.5999197,0.6439122,0.5722347,0.3492889,-0.3415985,0.8725128,36.15771,3.522705,-30.78087,4.993149,0.3345663,0.5210945,0.08609056,1.278952,-0.1861829,-0.08336107,0.7748428,0.1203343,0.2472671,6.070282,33.43740318906606
0,0.2460785,-0.3846893,0.8896332,0.7757019,0.1120605,-0.4318085,0.8949738,-34.37012,1.935623,-34.71886,4.267517,0.5999197,0.6439122,0.5722347,0.3492889,-0.3415985,0.8725128,36.15771,3.522705,-30.78087,4.993149,0.3345663,0.5210945,0.08609056,1.278952,-0.1861829,-0.08336107,0.7748428,0.1203343,0.2472671,6.070282,33.43740318906606
0,0.2460785,-0.3846893,0.8896332,0.7757019,0.1120605,-0.4318085,0.8949738,-34.37012,1.935623,-34.71886,4.267517,0.5999197,0.6439122,0.5722347,0.3492889,-0.3415985,0.8725128,36.15771,3.522705,-30.78087,4.993149,0.3345663,0.5210945,0.08647084,1.278822,-0.1857685,-0.08213542,0.7737105,0.1201479,0.2472671,6.070282,33.43740318906606
0,0.2460785,-0.3846893,0.8896332,0.7757019,0.1120605,-0.4318085,0.8949738,-34.37012,1.935623,-34.71886,4.267517,0.5999197,0.6439122,0.5722347,0.3492889,-0.3415985,0.8725128,36.15771,3.522705,-30.78087,4.993149,0.3345663,0.5210945,0.08647084,1.278822,-0.1857685,-0.08213542,0.7737105,0.1201479,0.2472671,6.070282,33.43740318906606
0,0.2460785,-0.3846893,0.8896332,0.7757019,0.1120605,-0.4318085,0.8949738,-34.37012,1.935623,-34.71886,4.267517,0.5999197,0.6439122,0.5722347,0.3492889,-0.3415985,0.8725128,36.15771,3.522705,-30.78087,4.993149,0.3345663,0.5210945,0.08647084,1.278822,-0.1857685,-0.08213542,0.7737105,0.1201479,0.2472671,6.070282,33.43740318906606
0,0.2401733,-0.3835602,0.8917236,0.7745268,0.1113281,-0.4294434,0.8961945,-34.37143,1.933578,-34.71846,4.285767,0.6000871,0.6436359,0.5674204,0.3467102,-0.3386536,0.8746948,36.16127,3.516678,-30.78075,4.979553,0.3347864,0.5209007,0.08702254,1.278563,-0.1850908,-0.08060117,0.7711788,0.1199199,0.2472671,6.070282,33.43740318906606
0,0.2401733,-0.3835602,0.8917236,0.7745268,0.1113281,-0.4294434,0.8961945,-34.37143,1.933578,-34.71846,4.285767,0.6000871,0.6436359,0.5674204,0.3467102,-0.3386536,0.8746948,36.16127,3.516678,-30.78075,4.979553,0.3347864,0.5209007,0.08702254,1.278563,-0.1850908,-0.08060117,0.7711788,0.1199199,0.2472671,6.070282,33.43740318906606
0,0.2401733,-0.3835602,0.8917236,0.7745268,0.1113281,-0.4294434,0.8961945,-34.37143,1.933578,-34.71846,4.285767,0.6000871,0.6436359,0.5674204,0.3467102,-0.3386536,0.8746948,36.16127,3.516678,-30.78075,4.979553,0.3347864,0.5209007,0.08702254,1.278563,-0.1850908,-0.08060117,0.7711788,0.1199199,0.2472671,6.070282,33.43740318906606
0,0.2401733,-0.3835602,0.8917236,0.7745268,0.1113281,-0.4294434,0.8961945,-34.37143,1.933578,-34.71846,4.285767,0.6000871,0.6436359,0.5674204,0.3467102,-0.3386536,0.8746948,36.16127,3.516678,-30.78075,4.979553,0.3347864,0.5209007,0.0877018,1.278347,-0.1842433,-0.07945661,0.7681925,0.1192139,0.2472671,6.070282,33.43740318906606
0,0.2401733,-0.3835602,0.8917236,0.7745268,0.1113281,-0.4294434,0.8961945,-34.37143,1.933578,-34.71846,4.285767,0.6000871,0.6436359,0.5674204,0.3467102,-0.3386536,0.8746948,36.16127,3.516678,-30.78075,4.979553,0.3347864,0.5209007,0.0877018,1.278347,-0.1842433,-0.07945661,0.7681925,0.1192139,0.2472671,6.070282,33.43740318906606
0,0.2401733,-0.3835602,0.8917236,0.7745268,0.1113281,-0.4294434,0.8961945,-34.37143,1.933578,-34.71846,4.285767,0.6000871,0.6436359,0.5674204,0.3467102,-0.3386536,0.8746948,36.16127,3.516678,-30.78075,4.979553,0.3347864,0.5209007,0.0877018,1.278347,-0.1842433,-0.07945661,0.7681925,0.1192139,0.2472671,6.070282,33.43740318906606
1,0.1958313,-0.3797913,0.9040985,0.7870001,0.1140594,-0.4132385,0.9034424,-34.38472,1.967148,-34.69052,3.676056,0.5991646,0.6399568,0.6161317,0.2567444,-0.3524933,0.8998871,36.3811,3.607269,-30.67261,4.686401,0.3386682,0.5179392,0.0881412,1.278117,-0.1835817,-0.07865118,0.7660435,0.1182941,0.2434236,6.070282,33.43740318906606
1,0.1958313,-0.3797913,0.9040985,0.7870001,0.1140594,-0.4132385,0.9034424,-34.38472,1.967148,-34.69052,3.676056,0.5991646,0.6399568,0.6161317,0.2567444,-0.3524933,0.8998871,36.3811,3.607269,-30.67261,4.686401,0.3386682,0.5179392,0.0881412,1.278117,-0.1835817,-0.07865118,0.7660435,0.1182941,0.2434236,6.070282,33.43740318906606
1,0.1958313,-0.3797913,0.9040985,0.7870001,0.1140594,-0.4132385,0.9034424,-34.38472,1.967148,-34.69052,3.676056,0.5991646,0.6399568,0.6161317,0.2567444,-0.3524933,0.8998871,36.3811,3.607269,-30.67261,4.686401,0.3386682,0.5179392,0.0881412,1.278117,-0.1835817,-0.07865118,0.7660435,0.1182941,0.2434236,6.070282,33.43740318906606
1,0.2604675,-0.3333893,0.9060822,0.8031797,0.1437683,-0.3301544,0.9329071,-34.05124,1.928909,-34.72742,3.7267,0.5832511,0.6299906,0.6045486,0.322937,-0.3331299,0.8858337,36.59627,3.632523,-30.72107,4.38063,0.322944,0.5153182,0.08906436,1.277453,-0.1821428,-0.07589348,0.7612653,0.1160615,0.2434236,35.5011,33.43740318906606
1,0.2604675,-0.3333893,0.9060822,0.8031797,0.1437683,-0.3301544,0.9329071,-34.05124,1.928909,-34.72742,3.7267,0.5832511,0.6299906,0.6045486,0.322937,-0.3331299,0.8858337,36.59627,3.632523,-30.72107,4.38063,0.322944,0.5153182,0.08906436,1.277453,-0.1821428,-0.07589348,0.7612653,0.1160615,0.2434236,35.5011,33.43740318906606
1,0.2604675,-0.3333893,0.9060822,0.8031797,0.1437683,-0.3301544,0.9329071,-34.05124,1.928909,-34.72742,3.7267,0.5832511,0.6299906,0.6045486,0.322937,-0.3331299,0.8858337,36.59627,3.632523,-30.72107,4.38063,0.322944,0.5153182,0.08906436,1.277453,-0.1821428,-0.07589348,0.7612653,0.1160615,0.2434236,35.5011,33.43740318906606
1,0.2358246,-0.3232574,0.9164429,0.795158,0.1380463,-0.3307037,0.9335632,-34.0898,1.929443,-34.72424,3.64357,0.5852433,0.6299906,0.6292436,0.3002167,-0.3164368,0.8998413,36.52036,3.636581,-30.69417,4.430237,0.3285971,0.5126547,0.0901475,1.276522,-0.1806388,-0.07291492,0.7564317,0.1124032,0.2434236,35.5011,33.43740318906606
1,0.2358246,-0.3232574,0.9164429,0.795158,0.1380463,-0.3307037,0.9335632,-34.0898,1.929443,-34.72424,3.64357,0.5852433,0.6299906,0.6292436,0.3002167,-0.3164368,0.8998413,36.52036,3.636581,-30.69417,4.430237,0.3285971,0.5126547,0.0901475,1.276522,-0.1806388,-0.07291492,0.7564317,0.1124032,0.2434236,35.5011,33.43740318906606
1,0.2358246,-0.3232574,0.9164429,0.795158,0.1380463,-0.3307037,0.9335632,-34.0898,1.929443,-34.72424,3.64357,0.5852433,0.6299906,0.6292436,0.3002167,-0.3164368,0.8998413,36.52036,3.636581,-30.69417,4.430237,0.3285971,0.5126547,0.0901475,1.276522,-0.1806388,-0.07291492,0.7564317,0.1124032,0.2434236,35.5011,33.43740318906606
1,0.2360992,-0.3267059,0.9151459,0.8021823,0.140213,-0.3502502,0.9260864,-34.14075,1.993958,-34.68314,3.637009,0.5867679,0.6299906,0.6242265,0.2973938,-0.3096008,0.9031525,36.49179,3.65007,-30.68796,4.417084,0.3300098,0.5112486,0.09081244,1.27585,-0.1799147,-0.07122779,0.7541522,0.1101824,0.2434236,35.5011,33.43740318906606
1,0.2360992,-0.3267059,0.9151459,0.8021823,0.140213,-0.3502502,0.9260864,-34.14075,1.993958,-34.68314,3.637009,0.5867679,0.6299906,0.6242265,0.2973938,-0.3096008,0.9031525,36.49179,3.65007,-30.68796,4.417084,0.3300098,0.5112486,0.09081244,1.27585,-0.1799147,-0.07122779,0.7541522,0.1101824,0.2434236,35.5011,33.43740318906606
1,0.2360992,-0.3267059,0.9151459,0.8021823,0.140213,-0.3502502,0.9260864,-34.14075,1.993958,-34.68314,3.637009,0.5867679,0.6299906,0.6242265,0.2973938,-0.3096008,0.9031525,36.49179,3.65007,-30.68796,4.417084,0.3300098,0.5112486,0.09081244,1.27585,-0.1799147,-0.07122779,0.7541522,0.1101824,0.2434236,35.5011,33.43740318906606
1,0.2360992,-0.3267059,0.9151459,0.8021823,0.140213,-0.3502502,0.9260864,-34.14075,1.993958,-34.68314,3.637009,0.5867679,0.6299906,0.6242265,0.2973938,-0.3096008,0.9031525,36.49179,3.65007,-30.68796,4.417084,0.3300098,0.5112486,0.09200668,1.274487,-0.1787124,-0.06721742,0.7505751,0.104099,0.2434236,35.5011,33.43740318906606
1,0.2360992,-0.3267059,0.9151459,0.8021823,0.140213,-0.3502502,0.9260864,-34.14075,1.993958,-34.68314,3.637009,0.5867679,0.6299906,0.6242265,0.2973938,-0.3096008,0.9031525,36.49179,3.65007,-30.68796,4.417084,0.3300098,0.5112486,0.09200668,1.274487,-0.1787124,-0.06721742,0.7505751,0.104099,0.2434236,35.5011,33.43740318906606
1,0.2360992,-0.3267059,0.9151459,0.8021823,0.140213,-0.3502502,0.9260864,-34.14075,1.993958,-34.68314,3.637009,0.5867679,0.6299906,0.6242265,0.2973938,-0.3096008,0.9031525,36.49179,3.65007,-30.68796,4.417084,0.3300098,0.5112486,0.09200668,1.274487,-0.1787124,-0.06721742,0.7505751,0.104099,0.2434236,35.5011,33.43740318906606
1,0.2140045,-0.3274689,0.9202881,0.7818747,0.1104889,-0.3618774,0.9256439,-34.22577,2.000717,-34.64638,3.4617,0.5933573,0.6308814,0.6243014,0.269928,-0.3068542,0.9126587,36.45735,3.653915,-30.66597,4.258209,0.3348236,0.5104344,0.09269357,1.273664,-0.1781293,-0.06485491,0.7490422,0.100961,0.2434236,35.5011,33.43740318906606
1,0.2140045,-0.3274689,0.9202881,0.7818747,0.1104889,-0.3618774,0.9256439,-34.22577,2.000717,-34.64638,3.4617,0.5933573,0.6308814,0.6243014,0.269928,-0.3068542,0.9126587,36.45735,3.653915,-30.66597,4.258209,0.3348236,0.5104344,0.09269357,1.273664,-0.1781293,-0.06485491,0.7490422,0.100961,0.2434236,35.5011,33.43740318906606
1,0.2140045,-0.3274689,0.9202881,0.7818747,0.1104889,-0.3618774,0.9256439,-34.22577,2.000717,-34.64638,3.4617,0.5933573,0.6308814,0.6243014,0.269928,-0.3068542,0.9126587,36.45735,3.653915,-30.66597,4.258209,0.3348236,0.5104344,0.09269357,1.273664,-0.1781293,-0.06485491,0.7490422,0.100961,0.2434236,35.5011,33.43740318906606
1,0.2140045,-0.3274689,0.9202881,0.7818747,0.1104889,-0.3618774,0.9256439,-34.22577,2.000717,-34.64638,3.4617,0.5933573,0.6308814,0.6243014,0.269928,-0.3068542,0.9126587,36.45735,3.653915,-30.66597,4.258209,0.3348236,0.5104344,0.09406018,1.271874,-0.1771142,-0.05848601,0.7462515,0.09385028,0.2434236,39.86398,33.43740318906606
1,0.2140045,-0.3274689,0.9202881,0.7818747,0.1104889,-0.3618774,0.9256439,-34.22577,2.000717,-34.64638,3.4617,0.5933573,0.6308814,0.6243014,0.269928,-0.3068542,0.9126587,36.45735,3.653915,-30.66597,4.258209,0.3348236,0.5104344,0.09406018,1.271874,-0.1771142,-0.05848601,0.7462515,0.09385028,0.2434236,39.86398,33.43740318906606
1,0.2140045,-0.3274689,0.9202881,0.7818747,0.1104889,-0.3618774,0.9256439,-34.22577,2.000717,-34.64638,3.4617,0.5933573,0.6308814,0.6243014,0.269928,-0.3068542,0.9126587,36.45735,3.653915,-30.66597,4.258209,0.3348236,0.5104344,0.09406018,1.271874,-0.1771142,-0.05848601,0.7462515,0.09385028,0.2434236,39.86398,33.43740318906606
1,0.1657867,-0.3141632,0.9347687,0.7879777,0.07469177,-0.3220978,0.9437408,-34.46103,2.134659,-34.57198,3.195221,0.6059611,0.6195819,0.6642589,0.2084656,-0.3094788,0.9277649,36.05551,3.730743,-30.6431,3.470367,0.3571124,0.5079214,0.09516168,1.2703,-0.1764149,-0.05324932,0.744404,0.08769794,0.2434236,39.86398,33.43740318906606
1,0.1657867,-0.3141632,0.9347687,0.7879777,0.07469177,-0.3220978,0.9437408,-34.46103,2.134659,-34.57198,3.195221,0.6059611,0.6195819,0.6642589,0.2084656,-0.3094788,0.9277649,36.05551,3.730743,-30.6431,3.470367,0.3571124,0.5079214,0.09516168,1.2703,-0.1764149,-0.05324932,0.744404,0.08769794,0.2434236,39.86398,33.43740318906606
1,0.1657867,-0.3141632,0.9347687,0.7879777,0.07469177,-0.3220978,0.9437408,-34.46103,2.134659,-34.57198,3.195221,0.6059611,0.6195819,0.6642589,0.2084656,-0.3094788,0.9277649,36.05551,3.730743,-30.6431,3.470367,0.3571124,0.5079214,0.09516168,1.2703,-0.1764149,-0.05324932,0.744404,0.08769794,0.2434236,39.86398,33.43740318906606
1,0.113739,-0.3253479,0.9387207,0.7968985,0.06681824,-0.3095703,0.9485168,-34.47621,2.155563,-34.56047,3.199738,0.6075051,0.6169466,0.6687887,0.1671753,-0.3424072,0.9245453,36.02757,3.76564,-30.62312,3.217728,0.3633627,0.5108397,0.09631014,1.268319,-0.1756433,-0.04627592,0.7424271,0.08068552,0.2434236,39.86398,33.43740318906606
1,0.113739,-0.3253479,0.9387207,0.7968985,0.06681824,-0.3095703,0.9485168,-34.47621,2.155563,-34.56047,3.199738,0.6075051,0.6169466,0.6687887,0.1671753,-0.3424072,0.9245453,36.02757,3.76564,-30.62312,3.217728,0.3633627,0.5108397,0.09631014,1.268319,-0.1756433,-0.04627592,0.7424271,0.08068552,0.2434236,39.86398,33.43740318906606
1,0.113739,-0.3253479,0.9387207,0.7968985,0.06681824,-0.3095703,0.9485168,-34.47621,2.155563,-34.56047,3.199738,0.6075051,0.6169466,0.6687887,0.1671753,-0.3424072,0.9245453,36.02757,3.76564,-30.62312,3.217728,0.3633627,0.5108397,0.09631014,1.268319,-0.1756433,-0.04627592,0.7424271,0.08068552,0.2434236,39.86398,33.43740318906606
1,0.113739,-0.3253479,0.9387207,0.7968985,0.06681824,-0.3095703,0.9485168,-34.47621,2.155563,-34.56047,3.199738,0.6075051,0.6169466,0.6687887,0.1671753,-0.3424072,0.9245453,36.02757,3.76564,-30.62312,3.217728,0.3633627,0.5108397,0.09748483,1.26604,-0.1748375,-0.03850733,0.7400334,0.0726703,0.2434236,39.86398,33.43740318906606
1,0.113739,-0.3253479,0.9387207,0.7968985,0.06681824,-0.3095703,0.9485168,-34.47621,2.155563,-34.56047,3.199738,0.6075051,0.6169466,0.6687887,0.1671753,-0.3424072,0.9245453,36.02757,3.76564,-30.62312,3.217728,0.3633627,0.5108397,0.09748483,1.26604,-0.1748375,-0.03850733,0.7400334,0.0726703,0.2434236,39.86398,33.43740318906606
1,0.113739,-0.3253479,0.9387207,0.7968985,0.06681824,-0.3095703,0.9485168,-34.47621,2.155563,-34.56047,3.199738,0.6075051,0.6169466,0.6687887,0.1671753,-0.3424072,0.9245453,36.02757,3.76564,-30.62312,3.217728,0.3633627,0.5108397,0.09748483,1.26604,-0.1748375,-0.03850733,0.7400334,0.0726703,0.2434236,39.86398,33.43740318906606
1,0.1439819,-0.2958221,0.9443207,0.7732409,0.06861877,-0.3052063,0.9497986,-34.48286,2.16423,-34.55617,3.20076,0.6075051,0.6159744,0.6734361,0.2219696,-0.2841492,0.932724,36.01968,3.772781,-30.62436,3.434662,0.3568014,0.5030652,0.09886146,1.263727,-0.1738744,-0.03073107,0.7373118,0.06358639,0.2434236,39.86398,33.43740318906606
1,0.1439819,-0.2958221,0.9443207,0.7732409,0.06861877,-0.3052063,0.9497986,-34.48286,2.16423,-34.55617,3.20076,0.6075051,0.6159744,0.6734361,0.2219696,-0.2841492,0.932724,36.01968,3.772781,-30.62436,3.434662,0.3568014,0.5030652,0.09886146,1.263727,-0.1738744,-0.03073107,0.7373118,0.06358639,0.2434236,39.86398,33.43740318906606
1,0.1439819,-0.2958221,0.9443207,0.7732409,0.06861877,-0.3052063,0.9497986,-34.48286,2.16423,-34.55617,3.20076,0.6075051,0.6159744,0.6734361,0.2219696,-0.2841492,0.932724,36.01968,3.772781,-30.62436,3.434662,0.3568014,0.5030652,0.09886146,1.263727,-0.1738744,-0.03073107,0.7373118,0.06358639,0.2434236,39.86398,33.43740318906606
1,0.1439819,-0.2958221,0.9443207,0.7732409,0.06861877,-0.3052063,0.9497986,-34.48286,2.16423,-34.55617,3.20076,0.6075051,0.6159744,0.6734361,0.2219696,-0.2841492,0.932724,36.01968,3.772781,-30.62436,3.434662,0.3568014,0.5030652,0.1001389,1.261381,-0.1728321,-0.02349877,0.7340184,0.05443802,0.2434236,39.86398,33.43740318906606
1,0.1439819,-0.2958221,0.9443207,0.7732409,0.06861877,-0.3052063,0.9497986,-34.48286,2.16423,-34.55617,3.20076,0.6075051,0.6159744,0.6734361,0.2219696,-0.2841492,0.932724,36.01968,3.772781,-30.62436,3.434662,0.3568014,0.5030652,0.1001389,1.261381,-0.1728321,-0.02349877,0.7340184,0.05443802,0.2434236,39.86398,33.43740318906606
1,0.1439819,-0.2958221,0.9443207,0.7732409,0.06861877,-0.3052063,0.9497986,-34.48286,2.16423,-34.55617,3.20076,0.6075051,0.6159744,0.6734361,0.2219696,-0.2841492,0.932724,36.01968,3.772781,-30.62436,3.434662,0.3568014,0.5030652,0.1001389,1.261381,-0.1728321,-0.02349877,0.7340184,0.05443802,0.2434236,39.86398,33.43740318906606
1,0.1060181,-0.2949982,0.949585,0.7975,0.08288574,-0.2386932,0.9675446,-34.34879,2.146805,-34.57494,3.302826,0.6009355,0.6077202,0.6759485,0.1311188,-0.3559113,0.9252625,36.18567,3.955231,-30.51833,3.183823,0.3625751,0.5051364,0.1016748,1.258916,-0.1716508,-0.01682712,0.7303819,0.04452706,0.2434236,-14.99745,33.43740318906606
1,0.1060181,-0.2949982,0.949585,0.7975,0.08288574,-0.2386932,0.9675446,-34.34879,2.146805,-34.57494,3.302826,0.6009355,0.6077202,0.6759485,0.1311188,-0.3559113,0.9252625,36.18567,3.955231,-30.51833,3.183823,0.3625751,0.5051364,0.1016748,1.258916,-0.1716508,-0.01682712,0.7303819,0.04452706,0.2434236,-14.99745,33.43740318906606
1,0.1060181,-0.2949982,0.949585,0.7975,0.08288574,-0.2386932,0.9675446,-34.34879,2.146805,-34.57494,3.302826,0.6009355,0.6077202,0.6759485,0.1311188,-0.3559113,0.9252625,36.18567,3.955231,-30.51833,3.183823,0.3625751,0.5051364,0.1016748,1.258916,-0.1716508,-0.01682712,0.7303819,0.04452706,0.2434236,-14.99745,33.43740318906606
1,0.1060181,-0.2949982,0.949585,0.7975,0.08288574,-0.2386932,0.9675446,-34.34879,2.146805,-34.57494,3.302826,0.6009355,0.6077202,0.6759485,0.1311188,-0.3559113,0.9252625,36.18567,3.955231,-30.51833,3.183823,0.3625751,0.5051364,0.1029305,1.256257,-0.1705852,-0.01102187,0.7263932,0.03434094,0.2434236,-14.99745,33.43740318906606
1,0.1060181,-0.2949982,0.949585,0.7975,0.08288574,-0.2386932,0.9675446,-34.34879,2.146805,-34.57494,3.302826,0.6009355,0.6077202,0.6759485,0.1311188,-0.3559113,0.9252625,36.18567,3.955231,-30.51833,3.183823,0.3625751,0.5051364,0.1029305,1.256257,-0.1705852,-0.01102187,0.7263932,0.03434094,0.2434236,-14.99745,33.43740318906606
1,0.1060181,-0.2949982,0.949585,0.7975,0.08288574,-0.2386932,0.9675446,-34.34879,2.146805,-34.57494,3.302826,0.6009355,0.6077202,0.6759485,0.1311188,-0.3559113,0.9252625,36.18567,3.955231,-30.51833,3.183823,0.3625751,0.5051364,0.1029305,1.256257,-0.1705852,-0.01102187,0.7263932,0.03434094,0.2434236,-14.99745,33.43740318906606
1,0.03463745,-0.1016388,0.9942169,0.7898456,0.03413391,-0.1016235,0.9942322,-34.59612,2.590836,-34.55679,3.074997,0.6156361,0.5732465,0.7642845,0.1570435,-0.1051025,0.9819794,35.99789,4.665421,-31.61841,3.598679,0.3648641,0.4580963,0.1038859,1.253739,-0.1695142,-0.006357625,0.7223787,0.02403251,0.2434236,-14.99745,33.43740318906606
1,0.03463745,-0.1016388,0.9942169,0.7898456,0.03413391,-0.1016235,0.9942322,-34.59612,2.590836,-34.55679,3.074997,0.6156361,0.5732465,0.7642845,0.1570435,-0.1051025,0.9819794,35.99789,4.665421,-31.61841,3.598679,0.3648641,0.4580963,0.1038859,1.253739,-0.1695142,-0.006357625,0.7223787,0.02403251,0.2434236,-14.99745,33.43740318906606
1,0.03463745,-0.1016388,0.9942169,0.7898456,0.03413391,-0.1016235,0.9942322,-34.59612,2.590836,-34.55679,3.074997,0.6156361,0.5732465,0.7642845,0.1570435,-0.1051025,0.9819794,35.99789,4.665421,-31.61841,3.598679,0.3648641,0.4580963,0.1038859,1.253739,-0.1695142,-0.006357625,0.7223787,0.02403251,0.2434236,-14.99745,33.43740318906606
1,0.01757813,-0.07769775,0.9968109,0.7884885,0.01745605,-0.07766724,0.9968109,-34.62598,2.929779,-35.34947,3.096176,0.619893,0.5657101,0.8455541,0.1291656,-0.102005,0.9863586,35.93237,4.754105,-31.51527,3.588318,0.370765,0.4538186,0.1047511,1.251723,-0.1685621,-0.003506203,0.7180494,0.01577638,0.2434236,-14.99745,33.43740318906606
1,0.01757813,-0.07769775,0.9968109,0.7884885,0.01745605,-0.07766724,0.9968109,-34.62598,2.929779,-35.34947,3.096176,0.619893,0.5657101,0.8455541,0.1291656,-0.102005,0.9863586,35.93237,4.754105,-31.51527,3.588318,0.370765,0.4538186,0.1047511,1.251723,-0.1685621,-0.003506203,0.7180494,0.01577638,0.2434236,-14.99745,33.43740318906606
1,0.01757813,-0.07769775,0.9968109,0.7884885,0.01745605,-0.07766724,0.9968109,-34.62598,2.929779,-35.34947,3.096176,0.619893,0.5657101,0.8455541,0.1291656,-0.102005,0.9863586,35.93237,4.754105,-31.51527,3.588318,0.370765,0.4538186,0.1047511,1.251723,-0.1685621,-0.003506203,0.7180494,0.01577638,0.2434236,-14.99745,33.43740318906606
1,0.1207886,-0.07432556,0.9898834,0.7868858,0.01396179,-0.08306885,0.9964447,-34.62927,3.195633,-36.05722,3.057144,0.6213478,0.5637222,0.845341,0.1217194,-0.07424927,0.9897766,35.90645,4.822479,-31.44426,3.613251,0.3727255,0.4474748,0.1055768,1.250275,-0.1676779,-0.002966334,0.7138244,0.009244761,0.2434236,-14.99745,33.43740318906606
1,0.1207886,-0.07432556,0.9898834,0.7868858,0.01396179,-0.08306885,0.9964447,-34.62927,3.195633,-36.05722,3.057144,0.6213478,0.5637222,0.845341,0.1217194,-0.07424927,0.9897766,35.90645,4.822479,-31.44426,3.613251,0.3727255,0.4474748,0.1055768,1.250275,-0.1676779,-0.002966334,0.7138244,0.009244761,0.2434236,-14.99745,33.43740318906606
1,0.1207886,-0.07432556,0.9898834,0.7868858,0.01396179,-0.08306885,0.9964447,-34.62927,3.195633,-36.05722,3.057144,0.6213478,0.5637222,0.845341,0.1217194,-0.07424927,0.9897766,35.90645,4.822479,-31.44426,3.613251,0.3727255,0.4474748,0.1055768,1.250275,-0.1676779,-0.002966334,0.7138244,0.009244761,0.2434236,-14.99745,33.43740318906606
1,0.1207886,-0.07432556,0.9898834,0.7868858,0.01396179,-0.08306885,0.9964447,-34.62927,3.195633,-36.05722,3.057144,0.6213478,0.5637222,0.845341,0.1217194,-0.07424927,0.9897766,35.90645,4.822479,-31.44426,3.613251,0.3727255,0.4474748,0.1062894,1.249036,-0.1668656,-0.003306055,0.7093416,0.004515777,0.2434236,-14.99745,33.43740318906606
1,0.1207886,-0.07432556,0.9898834,0.7868858,0.01396179,-0.08306885,0.9964447,-34.62927,3.195633,-36.05722,3.057144,0.6213478,0.5637222,0.845341,0.1217194,-0.07424927,0.9897766,35.90645,4.822479,-31.44426,3.613251,0.3727255,0.4474748,0.1062894,1.249036,-0.1668656,-0.003306055,0.7093416,0.004515777,0.2434236,-14.99745,33.43740318906606
1,0.1207886,-0.07432556,0.9898834,0.7868858,0.01396179,-0.08306885,0.9964447,-34.62927,3.195633,-36.05722,3.057144,0.6213478,0.5637222,0.845341,0.1217194,-0.07424927,0.9897766,35.90645,4.822479,-31.44426,3.613251,0.3727255,0.4474748,0.1062894,1.249036,-0.1668656,-0.003306055,0.7093416,0.004515777,0.2434236,-14.99745,33.43740318906606
1,0.1113892,-0.05993652,0.9919586,0.8184204,-0.0436554,-0.09999084,0.9940186,-34.81506,2.843811,-33.43671,2.918213,0.6317435,0.5530338,0.9221501,0.1113892,-0.05993652,0.9919586,35.75043,4.796265,-30.30905,3.575729,0.3807904,0.4373083,0.1072347,1.248312,-0.1657,-0.00280629,0.7059054,0.000228373,0.2434236,-36.44193,33.43740318906606
1,0.1113892,-0.05993652,0.9919586,0.8184204,-0.0436554,-0.09999084,0.9940186,-34.81506,2.843811,-33.43671,2.918213,0.6317435,0.5530338,0.9221501,0.1113892,-0.05993652,0.9919586,35.75043,4.796265,-30.30905,3.575729,0.3807904,0.4373083,0.1072347,1.248312,-0.1657,-0.00280629,0.7059054,0.000228373,0.2434236,-36.44193,33.43740318906606
1,0.1113892,-0.05993652,0.9919586,0.8184204,-0.0436554,-0.09999084,0.9940186,-34.81506,2.843811,-33.43671,2.918213,0.6317435,0.5530338,0.9221501,0.1113892,-0.05993652,0.9919586,35.75043,4.796265,-30.30905,3.575729,0.3807904,0.4373083,0.1072347,1.248312,-0.1657,-0.00280629,0.7059054,0.000228373,0.2434236,-36.44193,33.43740318906606
1,0.00163269,-0.06610107,0.9978027,0.8263662,-0.07150269,-0.08053589,0.9941711,-34.93626,2.845154,-33.33205,2.966553,0.639573,0.5495544,0.9424108,0.08889771,-0.04838562,0.9948578,35.56355,5.089417,-31.5191,3.430176,0.3888686,0.4358169,0.1079109,1.247618,-0.1653493,-0.00290799,0.7039248,-0.002151002,0.2434236,-36.44193,33.43740318906606
1,0.00163269,-0.06610107,0.9978027,0.8263662,-0.07150269,-0.08053589,0.9941711,-34.93626,2.845154,-33.33205,2.966553,0.639573,0.5495544,0.9424108,0.08889771,-0.04838562,0.9948578,35.56355,5.089417,-31.5191,3.430176,0.3888686,0.4358169,0.1079109,1.247618,-0.1653493,-0.00290799,0.7039248,-0.002151002,0.2434236,-36.44193,33.43740318906606
1,0.00163269,-0.06610107,0.9978027,0.8263662,-0.07150269,-0.08053589,0.9941711,-34.93626,2.845154,-33.33205,2.966553,0.639573,0.5495544,0.9424108,0.08889771,-0.04838562,0.9948578,35.56355,5.089417,-31.5191,3.430176,0.3888686,0.4358169,0.1079109,1.247618,-0.1653493,-0.00290799,0.7039248,-0.002151002,0.2434236,-36.44193,33.43740318906606
1,-0.06973267,-0.06266785,0.9955902,0.8653127,-0.06973267,-0.06266785,0.9955902,-34.99243,2.96489,-33.86453,3.025513,0.6422194,0.5481298,0.9813371,0.07707214,-0.005981445,0.996994,35.55649,4.877792,-30.75729,3.463959,0.3913338,0.431693,0.1083305,1.24659,-0.1654976,-0.002304835,0.7029958,-0.003511511,0.2434236,-36.44193,33.43740318906606
1,-0.06973267,-0.06266785,0.9955902,0.8653127,-0.06973267,-0.06266785,0.9955902,-34.99243,2.96489,-33.86453,3.025513,0.6422194,0.5481298,0.9813371,0.07707214,-0.005981445,0.996994,35.55649,4.877792,-30.75729,3.463959,0.3913338,0.431693,0.1083305,1.24659,-0.1654976,-0.002304835,0.7029958,-0.003511511,0.2434236,-36.44193,33.43740318906606
1,-0.06973267,-0.06266785,0.9955902,0.8653127,-0.06973267,-0.06266785,0.9955902,-34.99243,2.96489,-33.86453,3.025513,0.6422194,0.5481298,0.9813371,0.07707214,-0.005981445,0.996994,35.55649,4.877792,-30.75729,3.463959,0.3913338,0.431693,0.1083305,1.24659,-0.1654976,-0.002304835,0.7029958,-0.003511511,0.2434236,-36.44193,33.43740318906606
1,-0.08509827,-0.0471344,0.9952545,0.8667102,-0.08540344,-0.04727173,0.995224,-35.06845,2.878433,-33.55208,2.975632,0.6464554,0.5462497,0.9937034,0.05995178,0.02059937,0.9979858,35.51329,4.755035,-30.39296,3.512589,0.3952277,0.4298063,0.1086087,1.245554,-0.1658226,-0.000610352,0.7032704,-0.004719877,0.2434236,-36.44193,33.43740318906606
1,-0.08509827,-0.0471344,0.9952545,0.8667102,-0.08540344,-0.04727173,0.995224,-35.06845,2.878433,-33.55208,2.975632,0.6464554,0.5462497,0.9937034,0.05995178,0.02059937,0.9979858,35.51329,4.755035,-30.39296,3.512589,0.3952277,0.4298063,0.1086087,1.245554,-0.1658226,-0.000610352,0.7032704,-0.004719877,0.2434236,-36.44193,33.43740318906606
1,-0.08509827,-0.0471344,0.9952545,0.8667102,-0.08540344,-0.04727173,0.995224,-35.06845,2.878433,-33.55208,2.975632,0.6464554,0.5462497,0.9937034,0.05995178,0.02059937,0.9979858,35.51329,4.755035,-30.39296,3.512589,0.3952277,0.4298063,0.1086087,1.245554,-0.1658226,-0.000610352,0.7032704,-0.004719877,0.2434236,-36.44193,33.43740318906606
1,-0.08509827,-0.0471344,0.9952545,0.8667102,-0.08540344,-0.04727173,0.995224,-35.06845,2.878433,-33.55208,2.975632,0.6464554,0.5462497,0.9937034,0.05995178,0.02059937,0.9979858,35.51329,4.755035,-30.39296,3.512589,0.3952277,0.4298063,0.1088874,1.244704,-0.1663037,-8.63e-05,0.7046031,-0.006014364,0.2434236,39.21681,33.43740318906606
1,-0.08509827,-0.0471344,0.9952545,0.8667102,-0.08540344,-0.04727173,0.995224,-35.06845,2.878433,-33.55208,2.975632,0.6464554,0.5462497,0.9937034,0.05995178,0.02059937,0.9979858,35.51329,4.755035,-30.39296,3.512589,0.3952277,0.4298063,0.1088874,1.244704,-0.1663037,-8.63e-05,0.7046031,-0.006014364,0.2434236,39.21681,33.43740318906606
1,-0.08509827,-0.0471344,0.9952545,0.8667102,-0.08540344,-0.04727173,0.995224,-35.06845,2.878433,-33.55208,2.975632,0.6464554,0.5462497,0.9937034,0.05995178,0.02059937,0.9979858,35.51329,4.755035,-30.39296,3.512589,0.3952277,0.4298063,0.1088874,1.244704,-0.1663037,-8.63e-05,0.7046031,-0.006014364,0.2434236,39.21681,33.43740318906606
1,-0.003189087,-0.01358032,0.9998932,0.8872187,-0.08279419,-0.04853821,0.9953766,-35.07733,2.887253,-33.56891,2.964874,0.6464554,0.5462497,0.9860438,0.06227112,0.01521301,0.9979401,35.48767,4.83194,-30.65886,3.548569,0.3955301,0.4300193,0.109828,1.244382,-0.1662223,0.0014157,0.7059975,-0.007013999,0.2434236,39.21681,33.43740318906606
1,-0.003189087,-0.01358032,0.9998932,0.8872187,-0.08279419,-0.04853821,0.9953766,-35.07733,2.887253,-33.56891,2.964874,0.6464554,0.5462497,0.9860438,0.06227112,0.01521301,0.9979401,35.48767,4.83194,-30.65886,3.548569,0.3955301,0.4300193,0.109828,1.244382,-0.1662223,0.0014157,0.7059975,-0.007013999,0.2434236,39.21681,33.43740318906606
1,-0.003189087,-0.01358032,0.9998932,0.8872187,-0.08279419,-0.04853821,0.9953766,-35.07733,2.887253,-33.56891,2.964874,0.6464554,0.5462497,0.9860438,0.06227112,0.01521301,0.9979401,35.48767,4.83194,-30.65886,3.548569,0.3955301,0.4300193,0.109828,1.244382,-0.1662223,0.0014157,0.7059975,-0.007013999,0.2434236,39.21681,33.43740318906606
1,-0.05262756,-0.03488159,0.9980011,0.8922547,-0.08296204,-0.04823303,0.9953766,-35.07867,2.895447,-33.56686,2.956818,0.6465124,0.5458841,0.9967589,0.05955505,0.01460266,0.9981079,35.49135,4.869125,-30.73483,3.532471,0.3956778,0.4294215,0.1102066,1.243936,-0.1661776,0.003050537,0.7069631,-0.007460783,0.2434236,39.21681,33.43740318906606
1,-0.05262756,-0.03488159,0.9980011,0.8922547,-0.08296204,-0.04823303,0.9953766,-35.07867,2.895447,-33.56686,2.956818,0.6465124,0.5458841,0.9967589,0.05955505,0.01460266,0.9981079,35.49135,4.869125,-30.73483,3.532471,0.3956778,0.4294215,0.1102066,1.243936,-0.1661776,0.003050537,0.7069631,-0.007460783,0.2434236,39.21681,33.43740318906606
1,-0.05262756,-0.03488159,0.9980011,0.8922547,-0.08296204,-0.04823303,0.9953766,-35.07867,2.895447,-33.56686,2.956818,0.6465124,0.5458841,0.9967589,0.05955505,0.01460266,0.9981079,35.49135,4.869125,-30.73483,3.532471,0.3956778,0.4294215,0.1102066,1.243936,-0.1661776,0.003050537,0.7069631,-0.007460783,0.2434236,39.21681,33.43740318906606
1,-0.02264404,-0.005142212,0.9997253,0.9170841,-0.08929443,-0.01824951,0.9958344,-34.99797,3.069763,-34.20296,2.905746,0.6452985,0.5418535,0.9958404,0.05812073,0.01072693,0.9982452,35.56653,5.09227,-31.35657,3.393982,0.3927928,0.4271485,0.1105206,1.243852,-0.1661773,0.004013497,0.7078567,-0.007004965,0.2434236,39.21681,33.43740318906606
1,-0.02264404,-0.005142212,0.9997253,0.9170841,-0.08929443,-0.01824951,0.9958344,-34.99797,3.069763,-34.20296,2.905746,0.6452985,0.5418535,0.9958404,0.05812073,0.01072693,0.9982452,35.56653,5.09227,-31.35657,3.393982,0.3927928,0.4271485,0.1105206,1.243852,-0.1661773,0.004013497,0.7078567,-0.007004965,0.2434236,39.21681,33.43740318906606
1,-0.02264404,-0.005142212,0.9997253,0.9170841,-0.08929443,-0.01824951,0.9958344,-34.99797,3.069763,-34.20296,2.905746,0.6452985,0.5418535,0.9958404,0.05812073,0.01072693,0.9982452,35.56653,5.09227,-31.35657,3.393982,0.3927928,0.4271485,0.1105206,1.243852,-0.1661773,0.004013497,0.7078567,-0.007004965,0.2434236,39.21681,33.43740318906606
1,-0.08197021,-0.007949829,0.9965973,0.9438004,-0.08197021,-0.007949829,0.9965973,-34.99173,3.082458,-34.14894,2.870255,0.6439928,0.5395222,0.9960276,0.06088257,0.008712769,0.9980927,35.57034,5.239807,-31.79642,3.374847,0.3918992,0.425872,0.1103823,1.243716,-0.1663054,0.004579671,0.7085202,-0.005248314,0.2434236,39.21681,33.43740318906606
1,-0.08197021,-0.007949829,0.9965973,0.9438004,-0.08197021,-0.007949829,0.9965973,-34.99173,3.082458,-34.14894,2.870255,0.6439928,0.5395222,0.9960276,0.06088257,0.008712769,0.9980927,35.57034,5.239807,-31.79642,3.374847,0.3918992,0.425872,0.1103823,1.243716,-0.1663054,0.004579671,0.7085202,-0.005248314,0.2434236,39.21681,33.43740318906606
1,-0.08197021,-0.007949829,0.9965973,0.9438004,-0.08197021,-0.007949829,0.9965973,-34.99173,3.082458,-34.14894,2.870255,0.6439928,0.5395222,0.9960276,0.06088257,0.008712769,0.9980927,35.57034,5.239807,-31.79642,3.374847,0.3918992,0.425872,0.1103823,1.243716,-0.1663054,0.004579671,0.7085202,-0.005248314,0.2434236,39.21681,33.43740318906606
1,-0.08207703,-0.008377075,0.996582,1.0,-0.0821228,-0.008377075,0.996582,-34.98331,3.092392,-34.08907,2.846527,0.6435888,0.5386267,1.0,0.05944824,-0.004592896,0.9982147,35.61555,5.34671,-32.06763,3.411926,0.3901717,0.4260232,0.1100419,1.2438,-0.1664786,0.004611286,0.7087955,-0.003484888,0.2434236,39.21681,33.43740318906606
1,-0.08207703,-0.008377075,0.996582,1.0,-0.0821228,-0.008377075,0.996582,-34.98331,3.092392,-34.08907,2.846527,0.6435888,0.5386267,1.0,0.05944824,-0.004592896,0.9982147,35.61555,5.34671,-32.06763,3.411926,0.3901717,0.4260232,0.1100419,1.2438,-0.1664786,0.004611286,0.7087955,-0.003484888,0.2434236,39.21681,33.43740318906606
1,-0.08207703,-0.008377075,0.996582,1.0,-0.0821228,-0.008377075,0.996582,-34.98331,3.092392,-34.08907,2.846527,0.6435888,0.5386267,1.0,0.05944824,-0.004592896,0.9982147,35.61555,5.34671,-32.06763,3.411926,0.3901717,0.4260232,0.1100419,1.2438,-0.1664786,0.004611286,0.7087955,-0.003484888,0.2434236,39.21681,33.43740318906606
1,-0.08085632,-0.008041382,0.9966888,1.0,-0.08088684,-0.008041382,0.9966888,-34.98207,3.093277,-34.09254,2.840088,0.6433819,0.5385788,1.0,0.06460571,-0.003845215,0.9978943,35.619,5.335419,-32.01405,3.386063,0.3895028,0.4258552,0.1101964,1.243986,-0.1663203,0.004589422,0.7089375,-0.00204445,0.2434236,22.21703,33.43740318906606
1,-0.08085632,-0.008041382,0.9966888,1.0,-0.08088684,-0.008041382,0.9966888,-34.98207,3.093277,-34.09254,2.840088,0.6433819,0.5385788,1.0,0.06460571,-0.003845215,0.9978943,35.619,5.335419,-32.01405,3.386063,0.3895028,0.4258552,0.1101964,1.243986,-0.1663203,0.004589422,0.7089375,-0.00204445,0.2434236,22.21703,33.43740318906606
1,-0.08085632,-0.008041382,0.9966888,1.0,-0.08088684,-0.008041382,0.9966888,-34.98207,3.093277,-34.09254,2.840088,0.6433819,0.5385788,1.0,0.06460571,-0.003845215,0.9978943,35.619,5.335419,-32.01405,3.386063,0.3895028,0.4258552,0.1101964,1.243986,-0.1663203,0.004589422,0.7089375,-0.00204445,0.2434236,22.21703,33.43740318906606
1,-0.05471802,-0.008590698,0.9984589,1.0,-0.07835388,-0.008911133,0.9968719,-34.97105,3.108215,-34.10313,2.839951,0.6426689,0.5382611,1.0,0.06991577,-0.006835938,0.9975281,35.62416,5.315155,-31.92438,3.362198,0.3887891,0.4261605,0.1099925,1.244045,-0.1664305,0.00419858,0.7088555,-0.00105716,0.2434236,22.21703,33.43740318906606
1,-0.05471802,-0.008590698,0.9984589,1.0,-0.07835388,-0.008911133,0.9968719,-34.97105,3.108215,-34.10313,2.839951,0.6426689,0.5382611,1.0,0.06991577,-0.006835938,0.9975281,35.62416,5.315155,-31.92438,3.362198,0.3887891,0.4261605,0.1099925,1.244045,-0.1664305,0.00419858,0.7088555,-0.00105716,0.2434236,22.21703,33.43740318906606
1,-0.05471802,-0.008590698,0.9984589,1.0,-0.07835388,-0.008911133,0.9968719,-34.97105,3.108215,-34.10313,2.839951,0.6426689,0.5382611,1.0,0.06991577,-0.006835938,0.9975281,35.62416,5.315155,-31.92438,3.362198,0.3887891,0.4261605,0.1099925,1.244045,-0.1664305,0.00419858,0.7088555,-0.00105716,0.2434236,22.21703,33.43740318906606
2,0.005249023,-0.007720947,0.9999542,0.9804611,-0.07473755,-0.007644653,0.9971619,-34.96548,3.122482,-34.17302,2.823853,0.6420816,0.5382231,0.9991146,0.07316589,-0.007736206,0.9972839,35.61046,5.335419,-32.01405,3.354736,0.3887794,0.4263024,0.1097322,1.244116,-0.166684,0.003201874,0.7089254,-0.000172633,0.2434236,22.21703,33.43740318906606
2,0.005249023,-0.007720947,0.9999542,0.9804611,-0.07473755,-0.007644653,0.9971619,-34.96548,3.122482,-34.17302,2.823853,0.6420816,0.5382231,0.9991146,0.07316589,-0.007736206,0.9972839,35.61046,5.335419,-32.01405,3.354736,0.3887794,0.4263024,0.1097322,1.244116,-0.166684,0.003201874,0.7089254,-0.000172633,0.2434236,22.21703,33.43740318906606
2,0.005249023,-0.007720947,0.9999542,0.9804611,-0.07473755,-0.007644653,0.9971619,-34.96548,3.122482,-34.17302,2.823853,0.6420816,0.5382231,0.9991146,0.07316589,-0.007736206,0.9972839,35.61046,5.335419,-32.01405,3.354736,0.3887794,0.4263024,0.1097322,1.244116,-0.166684,0.003201874,0.7089254,-0.000172633,0.2434236,22.21703,33.43740318906606
2,-0.06980896,-0.008666992,0.9975128,1.0,-0.07444763,-0.008666992,0.9971771,-34.96548,3.132782,-34.19827,2.823013,0.6420816,0.5382231,1.0,0.0905304,-0.008605957,0.9958496,35.52907,5.499207,-32.6658,3.338516,0.3888145,0.426086,0.1093402,1.244122,-0.166976,0.002764832,0.7092986,0.000366211,0.2434236,22.21703,33.43740318906606
2,-0.06980896,-0.008666992,0.9975128,1.0,-0.07444763,-0.008666992,0.9971771,-34.96548,3.132782,-34.19827,2.823013,0.6420816,0.5382231,1.0,0.0905304,-0.008605957,0.9958496,35.52907,5.499207,-32.6658,3.338516,0.3888145,0.426086,0.1093402,1.244122,-0.166976,0.002764832,0.7092986,0.000366211,0.2434236,22.21703,33.43740318906606
2,-0.06980896,-0.008666992,0.9975128,1.0,-0.07444763,-0.008666992,0.9971771,-34.96548,3.132782,-34.19827,2.823013,0.6420816,0.5382231,1.0,0.0905304,-0.008605957,0.9958496,35.52907,5.499207,-32.6658,3.338516,0.3888145,0.426086,0.1093402,1.244122,-0.166976,0.002764832,0.7092986,0.000366211,0.2434236,22.21703,33.43740318906606
2,-0.148941,-0.03398132,0.9882507,1.0,-0.148941,-0.03398132,0.9882507,-35.21404,3.220505,-34.15787,2.861801,0.6608489,0.5381632,1.0,0.01661682,0.04624939,0.9987793,35.36232,5.101349,-31.09619,3.23819,0.4054131,0.4204888,0.1096714,1.244586,-0.1666853,0.002219197,0.7099949,0.00098794,0.2434236,-5.558899,33.43740318906606
2,-0.148941,-0.03398132,0.9882507,1.0,-0.148941,-0.03398132,0.9882507,-35.21404,3.220505,-34.15787,2.861801,0.6608489,0.5381632,1.0,0.01661682,0.04624939,0.9987793,35.36232,5.101349,-31.09619,3.23819,0.4054131,0.4204888,0.1096714,1.244586,-0.1666853,0.002219197,0.7099949,0.00098794,0.2434236,-5.558899,33.43740318906606
2,-0.148941,-0.03398132,0.9882507,1.0,-0.148941,-0.03398132,0.9882507,-35.21404,3.220505,-34.15787,2.861801,0.6608489,0.5381632,1.0,0.01661682,0.04624939,0.9987793,35.36232,5.101349,-31.09619,3.23819,0.4054131,0.4204888,0.1096714,1.244586,-0.1666853,0.002219197,0.7099949,0.00098794,0.2434236,-5.558899,33.43740318906606
2,-0.1902618,0.02970886,0.9812775,1.0,-0.1902618,0.02970886,0.9812775,-35.42381,3.2939,-34.06371,2.959717,0.6738983,0.5267502,1.0,0.000366211,0.03163147,0.9994965,35.06491,5.5233,-32.27548,3.167404,0.4168136,0.4174272,0.1093564,1.244889,-0.1670917,0.001180364,0.711153,0.002544515,0.2434236,-5.558899,33.43740318906606
2,-0.1902618,0.02970886,0.9812775,1.0,-0.1902618,0.02970886,0.9812775,-35.42381,3.2939,-34.06371,2.959717,0.6738983,0.5267502,1.0,0.000366211,0.03163147,0.9994965,35.06491,5.5233,-32.27548,3.167404,0.4168136,0.4174272,0.1093564,1.244889,-0.1670917,0.001180364,0.711153,0.002544515,0.2434236,-5.558899,33.43740318906606
2,-0.1902618,0.02970886,0.9812775,1.0,-0.1902618,0.02970886,0.9812775,-35.42381,3.2939,-34.06371,2.959717,0.6738983,0.5267502,1.0,0.000366211,0.03163147,0.9994965,35.06491,5.5233,-32.27548,3.167404,0.4168136,0.4174272,0.1093564,1.244889,-0.1670917,0.001180364,0.711153,0.002544515,0.2434236,-5.558899,33.43740318906606
2,-0.1902618,0.02970886,0.9812775,1.0,-0.1902618,0.02970886,0.9812775,-35.42381,3.2939,-34.06371,2.959717,0.6738983,0.5267502,1.0,0.000366211,0.03163147,0.9994965,35.06491,5.5233,-32.27548,3.167404,0.4168136,0.4174272,0.1092935,1.245376,-0.1672752,0.000211432,0.712777,0.004345086,0.2434236,-5.558899,33.43740318906606
2,-0.1902618,0.02970886,0.9812775,1.0,-0.1902618,0.02970886,0.9812775,-35.42381,3.2939,-34.06371,2.959717,0.6738983,0.5267502,1.0,0.000366211,0.03163147,0.9994965,35.06491,5.5233,-32.27548,3.167404,0.4168136,0.4174272,0.1092935,1.245376,-0.1672752,0.000211432,0.712777,0.004345086,0.2434236,-5.558899,33.43740318906606
2,-0.1902618,0.02970886,0.9812775,1.0,-0.1902618,0.02970886,0.9812775,-35.42381,3.2939,-34.06371,2.959717,0.6738983,0.5267502,1.0,0.000366211,0.03163147,0.9994965,35.06491,5.5233,-32.27548,3.167404,0.4168136,0.4174272,0.1092935,1.245376,-0.1672752,0.000211432,0.712777,0.004345086,0.2434236,-5.558899,33.43740318906606
2,-0.186615,0.05274963,0.9810028,1.0,-0.186615,0.05274963,0.9810028,-35.47583,3.263504,-34.03319,2.96019,0.675276,0.5246173,1.0,-0.01548767,0.03787231,0.9991608,35.15913,5.206268,-31.11534,3.192993,0.4163851,0.4182226,0.109107,1.245825,-0.1676062,-0.000585429,0.7143917,0.006407238,0.2434236,-5.558899,35.07
2,-0.186615,0.05274963,0.9810028,1.0,-0.186615,0.05274963,0.9810028,-35.47583,3.263504,-34.03319,2.96019,0.675276,0.5246173,1.0,-0.01548767,0.03787231,0.9991608,35.15913,5.206268,-31.11534,3.192993,0.4163851,0.4182226,0.109107,1.245825,-0.1676062,-0.000585429,0.7143917,0.006407238,0.2434236,-5.558899,35.07
2,-0.186615,0.05274963,0.9810028,1.0,-0.186615,0.05274963,0.9810028,-35.47583,3.263504,-34.03319,2.96019,0.675276,0.5246173,1.0,-0.01548767,0.03787231,0.9991608,35.15913,5.206268,-31.11534,3.192993,0.4163851,0.4182226,0.109107,1.245825,-0.1676062,-0.000585429,0.7143917,0.006407238,0.2434236,-5.558899,35.07
2,-0.1846313,0.05244446,0.9813995,1.0,-0.1846466,0.05244446,0.9813995,-35.47151,3.263168,-34.03319,2.945724,0.6748431,0.5246426,1.0,-0.02246094,0.03900146,0.9989777,35.16042,5.229324,-31.22751,3.191467,0.4171019,0.4182226,0.1086824,1.246276,-0.1678603,-0.001364788,0.7159327,0.0085161,0.2434236,-5.558899,35.07
2,-0.1846313,0.05244446,0.9813995,1.0,-0.1846466,0.05244446,0.9813995,-35.47151,3.263168,-34.03319,2.945724,0.6748431,0.5246426,1.0,-0.02246094,0.03900146,0.9989777,35.16042,5.229324,-31.22751,3.191467,0.4171019,0.4182226,0.1086824,1.246276,-0.1678603,-0.001364788,0.7159327,0.0085161,0.2434236,-5.558899,35.07
2,-0.1846313,0.05244446,0.9813995,1.0,-0.1846466,0.05244446,0.9813995,-35.47151,3.263168,-34.03319,2.945724,0.6748431,0.5246426,1.0,-0.02246094,0.03900146,0.9989777,35.16042,5.229324,-31.22751,3.191467,0.4171019,0.4182226,0.1086824,1.246276,-0.1678603,-0.001364788,0.7159327,0.0085161,0.2434236,-5.558899,35.07
2,-0.1846313,0.05244446,0.9813995,1.0,-0.1846466,0.05244446,0.9813995,-35.47151,3.263168,-34.03319,2.945724,0.6748431,0.5246426,1.0,-0.02246094,0.03900146,0.9989777,35.16042,5.229324,-31.22751,3.191467,0.4171019,0.4182226,0.1082542,1.246662,-0.1681294,-0.001810595,0.7172676,0.01055608,0.2434236,-5.558899,35.07
2,-0.1846313,0.05244446,0.9813995,1.0,-0.1846466,0.05244446,0.9813995,-35.47151,3.263168,-34.03319,2.945724,0.6748431,0.5246426,1.0,-0.02246094,0.03900146,0.9989777,35.16042,5.229324,-31.22751,3.191467,0.4171019,0.4182226,0.1082542,1.246662,-0.1681294,-0.001810595,0.7172676,0.01055608,0.2434236,-5.558899,35.07
2,-0.1846313,0.05244446,0.9813995,1.0,-0.1846466,0.05244446,0.9813995,-35.47151,3.263168,-34.03319,2.945724,0.6748431,0.5246426,1.0,-0.02246094,0.03900146,0.9989777,35.16042,5.229324,-31.22751,3.191467,0.4171019,0.4182226,0.1082542,1.246662,-0.1681294,-0.001810595,0.7172676,0.01055608,0.2434236,-5.558899,35.07
2,-0.1859436,0.04779053,0.9813843,1.0,-0.1859589,0.04779053,0.9813843,-35.46855,3.263336,-34.03831,2.92746,0.6749011,0.5252678,1.0,-0.02043152,0.03842163,0.9990387,35.16235,5.238785,-31.27209,3.197586,0.4167435,0.4183271,0.1080439,1.247126,-0.1681277,-0.002112557,0.7181566,0.01222929,0.2434236,-44.52531,35.07
2,-0.1859436,0.04779053,0.9813843,1.0,-0.1859589,0.04779053,0.9813843,-35.46855,3.263336,-34.03831,2.92746,0.6749011,0.5252678,1.0,-0.02043152,0.03842163,0.9990387,35.16235,5.238785,-31.27209,3.197586,0.4167435,0.4183271,0.1080439,1.247126,-0.1681277,-0.002112557,0.7181566,0.01222929,0.2434236,-44.52531,35.07
2,-0.1859436,0.04779053,0.9813843,1.0,-0.1859589,0.04779053,0.9813843,-35.46855,3.263336,-34.03831,2.92746,0.6749011,0.5252678,1.0,-0.02043152,0.03842163,0.9990387,35.16235,5.238785,-31.27209,3.197586,0.4167435,0.4183271,0.1080439,1.247126,-0.1681277,-0.002112557,0.7181566,0.01222929,0.2434236,-44.52531,35.07
2,-0.01535034,0.03196716,0.9993591,1.0,-0.1531525,0.007507324,0.9881592,-35.37511,3.165024,-33.73431,2.877991,0.6665729,0.5308654,1.0,0.002059937,0.03500366,0.9993744,35.24205,5.132126,-31.08609,3.239563,0.4113356,0.4208187,0.1076844,1.247498,-0.1681889,-0.002941109,0.7186843,0.01390075,0.2434236,-44.52531,35.07
2,-0.01535034,0.03196716,0.9993591,1.0,-0.1531525,0.007507324,0.9881592,-35.37511,3.165024,-33.73431,2.877991,0.6665729,0.5308654,1.0,0.002059937,0.03500366,0.9993744,35.24205,5.132126,-31.08609,3.239563,0.4113356,0.4208187,0.1076844,1.247498,-0.1681889,-0.002941109,0.7186843,0.01390075,0.2434236,-44.52531,35.07
2,-0.01535034,0.03196716,0.9993591,1.0,-0.1531525,0.007507324,0.9881592,-35.37511,3.165024,-33.73431,2.877991,0.6665729,0.5308654,1.0,0.002059937,0.03500366,0.9993744,35.24205,5.132126,-31.08609,3.239563,0.4113356,0.4208187,0.1076844,1.247498,-0.1681889,-0.002941109,0.7186843,0.01390075,0.2434236,-44.52531,35.07
2,-0.07194519,0.02304077,0.9971313,1.0,-0.1501312,0.01086426,0.9886017,-35.37135,3.168152,-33.75317,2.901779,0.6660927,0.5305125,1.0,0.004852295,0.03477478,0.9993744,35.27682,5.112381,-31.02524,3.258621,0.4098241,0.4210178,0.1074708,1.247964,-0.1680455,-0.003889046,0.718724,0.01530949,0.2434236,-44.52531,35.07
2,-0.07194519,0.02304077,0.9971313,1.0,-0.1501312,0.01086426,0.9886017,-35.37135,3.168152,-33.75317,2.901779,0.6660927,0.5305125,1.0,0.004852295,0.03477478,0.9993744,35.27682,5.112381,-31.02524,3.258621,0.4098241,0.4210178,0.1074708,1.247964,-0.1680455,-0.003889046,0.718724,0.01530949,0.2434236,-44.52531,35.07
2,-0.07194519,0.02304077,0.9971313,1.0,-0.1501312,0.01086426,0.9886017,-35.37135,3.168152,-33.75317,2.901779,0.6660927,0.5305125,1.0,0.004852295,0.03477478,0.9993744,35.27682,5.112381,-31.02524,3.258621,0.4098241,0.4210178,0.1074708,1.247964,-0.1680455,-0.003889046,0.718724,0.01530949,0.2434236,-44.52531,35.07
2,-0.02714539,0.02903748,0.9992065,1.0,-0.1487427,0.008682251,0.9888306,-35.33398,3.222351,-34.01326,2.89212,0.6649762,0.5312949,1.0,0.002410889,0.03390503,0.9994202,35.28912,5.122437,-31.07935,3.252899,0.4096549,0.4212161,0.10711,1.248374,-0.1678844,-0.005047131,0.7183208,0.01679632,0.2434236,-44.52531,35.07
2,-0.02714539,0.02903748,0.9992065,1.0,-0.1487427,0.008682251,0.9888306,-35.33398,3.222351,-34.01326,2.89212,0.6649762,0.5312949,1.0,0.002410889,0.03390503,0.9994202,35.28912,5.122437,-31.07935,3.252899,0.4096549,0.4212161,0.10711,1.248374,-0.1678844,-0.005047131,0.7183208,0.01679632,0.2434236,-44.52531,35.07
2,-0.02714539,0.02903748,0.9992065,1.0,-0.1487427,0.008682251,0.9888306,-35.33398,3.222351,-34.01326,2.89212,0.6649762,0.5312949,1.0,0.002410889,0.03390503,0.9994202,35.28912,5.122437,-31.07935,3.252899,0.4096549,0.4212161,0.10711,1.248374,-0.1678844,-0.005047131,0.7183208,0.01679632,0.2434236,-44.52531,35.07
2,-0.006088257,0.03158569,0.9994812,1.0,-0.1482391,0.004562378,0.9889374,-35.32677,3.233521,-34.06641,2.889908,0.6647347,0.5319113,1.0,0.000823975,0.03288269,0.9994507,35.29741,5.118637,-31.07935,3.252533,0.4095602,0.4214793,0.1067863,1.248739,-0.1676696,-0.005825581,0.7178355,0.01801375,0.2434236,-44.52531,35.07
2,-0.006088257,0.03158569,0.9994812,1.0,-0.1482391,0.004562378,0.9889374,-35.32677,3.233521,-34.06641,2.889908,0.6647347,0.5319113,1.0,0.000823975,0.03288269,0.9994507,35.29741,5.118637,-31.07935,3.252533,0.4095602,0.4214793,0.1067863,1.248739,-0.1676696,-0.005825581,0.7178355,0.01801375,0.2434236,-44.52531,35.07
2,-0.006088257,0.03158569,0.9994812,1.0,-0.1482391,0.004562378,0.9889374,-35.32677,3.233521,-34.06641,2.889908,0.6647347,0.5319113,1.0,0.000823975,0.03288269,0.9994507,35.29741,5.118637,-31.07935,3.252533,0.4095602,0.4214793,0.1067863,1.248739,-0.1676696,-0.005825581,0.7178355,0.01801375,0.2434236,-44.52531,35.07
2,-0.006088257,0.03158569,0.9994812,1.0,-0.1482391,0.004562378,0.9889374,-35.32677,3.233521,-34.06641,2.889908,0.6647347,0.5319113,1.0,0.000823975,0.03288269,0.9994507,35.29741,5.118637,-31.07935,3.252533,0.4095602,0.4214793,0.1064141,1.248976,-0.1674274,-0.006676588,0.7172092,0.01943277,0.2434236,61.12637,35.07
2,-0.006088257,0.03158569,0.9994812,1.0,-0.1482391,0.004562378,0.9889374,-35.32677,3.233521,-34.06641,2.889908,0.6647347,0.5319113,1.0,0.000823975,0.03288269,0.9994507,35.29741,5.118637,-31.07935,3.252533,0.4095602,0.4214793,0.1064141,1.248976,-0.1674274,-0.006676588,0.7172092,0.01943277,0.2434236,61.12637,35.07
2,-0.006088257,0.03158569,0.9994812,1.0,-0.1482391,0.004562378,0.9889374,-35.32677,3.233521,-34.06641,2.889908,0.6647347,0.5319113,1.0,0.000823975,0.03288269,0.9994507,35.29741,5.118637,-31.07935,3.252533,0.4095602,0.4214793,0.1064141,1.248976,-0.1674274,-0.006676588,0.7172092,0.01943277,0.2434236,61.12637,35.07
2,-0.02505493,0.02264404,0.9994202,1.0,-0.1500854,-0.01448059,0.9885559,-35.29237,3.158463,-33.94157,2.869034,0.6635001,0.5358434,1.0,0.004806519,0.03144836,0.9994812,35.31158,5.108459,-31.12425,3.243973,0.408551,0.4223354,0.106087,1.249344,-0.1673499,-0.007311492,0.7165507,0.02122848,0.2434236,61.12637,35.07
2,-0.02505493,0.02264404,0.9994202,1.0,-0.1500854,-0.01448059,0.9885559,-35.29237,3.158463,-33.94157,2.869034,0.6635001,0.5358434,1.0,0.004806519,0.03144836,0.9994812,35.31158,5.108459,-31.12425,3.243973,0.408551,0.4223354,0.106087,1.249344,-0.1673499,-0.007311492,0.7165507,0.02122848,0.2434236,61.12637,35.07
2,-0.02505493,0.02264404,0.9994202,1.0,-0.1500854,-0.01448059,0.9885559,-35.29237,3.158463,-33.94157,2.869034,0.6635001,0.5358434,1.0,0.004806519,0.03144836,0.9994812,35.31158,5.108459,-31.12425,3.243973,0.408551,0.4223354,0.106087,1.249344,-0.1673499,-0.007311492,0.7165507,0.02122848,0.2434236,61.12637,35.07
2,-0.0406189,0.01292419,0.9990845,1.0,-0.1511536,-0.01347351,0.9884033,-35.3018,3.145844,-33.90524,2.880478,0.6639354,0.5358257,1.0,0.004119873,0.02352905,0.9997101,35.31158,5.104034,-31.11894,3.234512,0.4086443,0.4234013,0.1059163,1.249568,-0.1672867,-0.008425063,0.716373,0.02156831,0.2408612,61.12637,35.07
2,-0.0406189,0.01292419,0.9990845,1.0,-0.1511536,-0.01347351,0.9884033,-35.3018,3.145844,-33.90524,2.880478,0.6639354,0.5358257,1.0,0.004119873,0.02352905,0.9997101,35.31158,5.104034,-31.11894,3.234512,0.4086443,0.4234013,0.1059163,1.249568,-0.1672867,-0.008425063,0.716373,0.02156831,0.2408612,61.12637,35.07
2,-0.0406189,0.01292419,0.9990845,1.0,-0.1511536,-0.01347351,0.9884033,-35.3018,3.145844,-33.90524,2.880478,0.6639354,0.5358257,1.0,0.004119873,0.02352905,0.9997101,35.31158,5.104034,-31.11894,3.234512,0.4086443,0.4234013,0.1059163,1.249568,-0.1672867,-0.008425063,0.716373,0.02156831,0.2408612,61.12637,35.07
2,-0.05207825,0.009140015,0.9985962,1.0,-0.1505432,-0.01928711,0.9884033,-35.30325,3.141495,-33.89452,2.885712,0.6638973,0.5366331,1.0,0.004989624,0.0255127,0.999649,35.28786,5.071823,-31.08859,3.259628,0.4093494,0.4240473,0.1053727,1.250054,-0.1674493,-0.009154459,0.7167991,0.02312516,0.2408612,61.12637,35.07
2,-0.05207825,0.009140015,0.9985962,1.0,-0.1505432,-0.01928711,0.9884033,-35.30325,3.141495,-33.89452,2.885712,0.6638973,0.5366331,1.0,0.004989624,0.0255127,0.999649,35.28786,5.071823,-31.08859,3.259628,0.4093494,0.4240473,0.1053727,1.250054,-0.1674493,-0.009154459,0.7167991,0.02312516,0.2408612,61.12637,35.07
2,-0.05207825,0.009140015,0.9985962,1.0,-0.1505432,-0.01928711,0.9884033,-35.30325,3.141495,-33.89452,2.885712,0.6638973,0.5366331,1.0,0.004989624,0.0255127,0.999649,35.28786,5.071823,-31.08859,3.259628,0.4093494,0.4240473,0.1053727,1.250054,-0.1674493,-0.009154459,0.7167991,0.02312516,0.2408612,61.12637,35.07
2,-0.06576538,0.005386353,0.997818,1.0,-0.1502686,-0.02191162,0.9883881,-35.30325,3.150192,-33.91597,2.884445,0.6638973,0.5368581,1.0,0.004730225,0.0280304,0.999588,35.2802,5.040543,-31.01134,3.274033,0.4096936,0.4242142,0.1049862,1.250328,-0.1675597,-0.009896734,0.7172181,0.02454585,0.2408612,61.12637,35.07
2,-0.06576538,0.005386353,0.997818,1.0,-0.1502686,-0.02191162,0.9883881,-35.30325,3.150192,-33.91597,2.884445,0.6638973,0.5368581,1.0,0.004730225,0.0280304,0.999588,35.2802,5.040543,-31.01134,3.274033,0.4096936,0.4242142,0.1049862,1.250328,-0.1675597,-0.009896734,0.7172181,0.02454585,0.2408612,61.12637,35.07
2,-0.06576538,0.005386353,0.997818,1.0,-0.1502686,-0.02191162,0.9883881,-35.30325,3.150192,-33.91597,2.884445,0.6638973,0.5368581,1.0,0.004730225,0.0280304,0.999588,35.2802,5.040543,-31.01134,3.274033,0.4096936,0.4242142,0.1049862,1.250328,-0.1675597,-0.009896734,0.7172181,0.02454585,0.2408612,61.12637,35.07
2,0.006362915,0.02920532,0.9995422,1.0,-0.1360474,-0.001373291,0.9906921,-35.20558,3.867996,-36.96013,2.841217,0.6635083,0.537362,1.0,0.006362915,0.02920532,0.9995422,35.27713,5.032379,-30.96771,3.281433,0.4096316,0.4239983,0.1045299,1.250622,-0.167725,-0.01049911,0.7175976,0.02590207,0.2408612,22.51382,35.07
2,0.006362915,0.02920532,0.9995422,1.0,-0.1360474,-0.001373291,0.9906921,-35.20558,3.867996,-36.96013,2.841217,0.6635083,0.537362,1.0,0.006362915,0.02920532,0.9995422,35.27713,5.032379,-30.96771,3.281433,0.4096316,0.4239983,0.1045299,1.250622,-0.167725,-0.01049911,0.7175976,0.02590207,0.2408612,22.51382,35.07
2,0.006362915,0.02920532,0.9995422,1.0,-0.1360474,-0.001373291,0.9906921,-35.20558,3.867996,-36.96013,2.841217,0.6635083,0.537362,1.0,0.006362915,0.02920532,0.9995422,35.27713,5.032379,-30.96771,3.281433,0.4096316,0.4239983,0.1045299,1.250622,-0.167725,-0.01049911,0.7175976,0.02590207,0.2408612,22.51382,35.07
2,0.007369995,0.02902222,0.9995422,1.0,-0.1341705,0.000839233,0.9909515,-35.20587,3.838623,-36.85197,2.831497,0.6630718,0.537078,1.0,0.007369995,0.02902222,0.9995422,35.27713,5.032318,-30.96771,3.266235,0.409527,0.4239983,0.1041839,1.25103,-0.1678577,-0.01138171,0.7179527,0.02724234,0.2408612,22.51382,35.07
2,0.007369995,0.02902222,0.9995422,1.0,-0.1341705,0.000839233,0.9909515,-35.20587,3.838623,-36.85197,2.831497,0.6630718,0.537078,1.0,0.007369995,0.02902222,0.9995422,35.27713,5.032318,-30.96771,3.266235,0.409527,0.4239983,0.1041839,1.25103,-0.1678577,-0.01138171,0.7179527,0.02724234,0.2408612,22.51382,35.07
2,0.007369995,0.02902222,0.9995422,1.0,-0.1341705,0.000839233,0.9909515,-35.20587,3.838623,-36.85197,2.831497,0.6630718,0.537078,1.0,0.007369995,0.02902222,0.9995422,35.27713,5.032318,-30.96771,3.266235,0.409527,0.4239983,0.1041839,1.25103,-0.1678577,-0.01138171,0.7179527,0.02724234,0.2408612,22.51382,35.07
2,0.007354736,0.02630615,0.9996185,1.0,-0.1363831,0.0025177,0.9906464,-35.20987,3.69072,-36.31583,2.833588,0.6626067,0.537078,1.0,0.007446289,0.02632141,0.9996185,35.2841,5.038681,-30.9752,3.26506,0.4092705,0.4241675,0.1037478,1.251285,-0.1680126,-0.01214124,0.7182063,0.02816824,0.2408612,22.51382,35.07
2,0.007354736,0.02630615,0.9996185,1.0,-0.1363831,0.0025177,0.9906464,-35.20987,3.69072,-36.31583,2.833588,0.6626067,0.537078,1.0,0.007446289,0.02632141,0.9996185,35.2841,5.038681,-30.9752,3.26506,0.4092705,0.4241675,0.1037478,1.251285,-0.1680126,-0.01214124,0.7182063,0.02816824,0.2408612,22.51382,35.07
2,0.007354736,0.02630615,0.9996185,1.0,-0.1363831,0.0025177,0.9906464,-35.20987,3.69072,-36.31583,2.833588,0.6626067,0.537078,1.0,0.007446289,0.02632141,0.9996185,35.2841,5.038681,-30.9752,3.26506,0.4092705,0.4241675,0.1037478,1.251285,-0.1680126,-0.01214124,0.7182063,0.02816824,0.2408612,22.51382,35.07
2,0.006286621,0.02626038,0.9996338,1.0,-0.1332092,-0.004699707,0.9910736,-35.21094,3.664856,-36.19331,2.829224,0.6620123,0.5377679,1.0,0.006774902,0.02636719,0.9996185,35.29497,5.052643,-31.04857,3.257874,0.4089217,0.4242735,0.1031029,1.251503,-0.1682675,-0.01282987,0.7185569,0.02886892,0.2408612,22.51382,35.07
2,0.006286621,0.02626038,0.9996338,1.0,-0.1332092,-0.004699707,0.9910736,-35.21094,3.664856,-36.19331,2.829224,0.6620123,0.5377679,1.0,0.006774902,0.02636719,0.9996185,35.29497,5.052643,-31.04857,3.257874,0.4089217,0.4242735,0.1031029,1.251503,-0.1682675,-0.01282987,0.7185569,0.02886892,0.2408612,22.51382,35.07
2,0.006286621,0.02626038,0.9996338,1.0,-0.1332092,-0.004699707,0.9910736,-35.21094,3.664856,-36.19331,2.829224,0.6620123,0.5377679,1.0,0.006774902,0.02636719,0.9996185,35.29497,5.052643,-31.04857,3.257874,0.4089217,0.4242735,0.1031029,1.251503,-0.1682675,-0.01282987,0.7185569,0.02886892,0.2408612,22.51382,35.07
2,-0.01422119,0.02189636,0.999649,1.0,-0.1335754,-0.005523682,0.9910126,-35.20978,3.615875,-36.03249,2.783524,0.6616992,0.5380527,1.0,0.009536743,0.02731323,0.9995728,35.29927,5.059998,-31.1028,3.26088,0.4083861,0.4243319,0.1025946,1.251754,-0.1685253,-0.01371486,0.7188457,0.02972431,0.2408612,3.010162,35.07
2,-0.01422119,0.02189636,0.999649,1.0,-0.1335754,-0.005523682,0.9910126,-35.20978,3.615875,-36.03249,2.783524,0.6616992,0.5380527,1.0,0.009536743,0.02731323,0.9995728,35.29927,5.059998,-31.1028,3.26088,0.4083861,0.4243319,0.1025946,1.251754,-0.1685253,-0.01371486,0.7188457,0.02972431,0.2408612,3.010162,35.07
2,-0.01422119,0.02189636,0.999649,1.0,-0.1335754,-0.005523682,0.9910126,-35.20978,3.615875,-36.03249,2.783524,0.6616992,0.5380527,1.0,0.009536743,0.02731323,0.9995728,35.29927,5.059998,-31.1028,3.26088,0.4083861,0.4243319,0.1025946,1.251754,-0.1685253,-0.01371486,0.7188457,0.02972431,0.2408612,3.010162,35.07
2,-0.01417542,0.0223999,0.9996338,1.0,-0.1315002,-0.01257324,0.9912262,-35.20895,3.582809,-35.93384,2.763718,0.6612105,0.5391909,1.0,0.007507324,0.02882385,0.9995422,35.30986,5.065903,-31.15935,3.26001,0.4082192,0.4244043,0.102149,1.251876,-0.1687341,-0.01422787,0.719155,0.03057051,0.2408612,3.010162,35.07
2,-0.01417542,0.0223999,0.9996338,1.0,-0.1315002,-0.01257324,0.9912262,-35.20895,3.582809,-35.93384,2.763718,0.6612105,0.5391909,1.0,0.007507324,0.02882385,0.9995422,35.30986,5.065903,-31.15935,3.26001,0.4082192,0.4244043,0.102149,1.251876,-0.1687341,-0.01422787,0.719155,0.03057051,0.2408612,3.010162,35.07
2,-0.01417542,0.0223999,0.9996338,1.0,-0.1315002,-0.01257324,0.9912262,-35.20895,3.582809,-35.93384,2.763718,0.6612105,0.5391909,1.0,0.007507324,0.02882385,0.9995422,35.30986,5.065903,-31.15935,3.26001,0.4082192,0.4244043,0.102149,1.251876,-0.1687341,-0.01422787,0.719155,0.03057051,0.2408612,3.010162,35.07
2,-0.02427673,0.01307678,0.9996185,1.0,-0.1264038,-0.02110291,0.991745,-35.19008,3.546844,-35.75052,2.716431,0.6594785,0.5397811,1.0,0.006881714,0.02346802,0.9996948,35.33321,5.081482,-31.22202,3.232315,0.4074631,0.424999,0.1014924,1.252033,-0.1692417,-0.01533817,0.7200231,0.03160655,0.2408612,3.010162,35.07
2,-0.02427673,0.01307678,0.9996185,1.0,-0.1264038,-0.02110291,0.991745,-35.19008,3.546844,-35.75052,2.716431,0.6594785,0.5397811,1.0,0.006881714,0.02346802,0.9996948,35.33321,5.081482,-31.22202,3.232315,0.4074631,0.424999,0.1014924,1.252033,-0.1692417,-0.01533817,0.7200231,0.03160655,0.2408612,3.010162,35.07
2,-0.02427673,0.01307678,0.9996185,1.0,-0.1264038,-0.02110291,0.991745,-35.19008,3.546844,-35.75052,2.716431,0.6594785,0.5397811,1.0,0.006881714,0.02346802,0.9996948,35.33321,5.081482,-31.22202,3.232315,0.4074631,0.424999,0.1014924,1.252033,-0.1692417,-0.01533817,0.7200231,0.03160655,0.2408612,3.010162,35.07
2,-0.007736206,0.01582336,0.9998322,1.0,-0.1200714,-0.0173645,0.9925995,-35.18193,3.500687,-35.59677,2.79213,0.6581589,0.5395437,1.0,0.008209229,0.02052307,0.9997406,35.34883,5.076645,-31.22096,3.225113,0.4067669,0.4255061,0.1012239,1.252132,-0.1695492,-0.0159588,0.7204039,0.03165236,0.2408612,3.010162,35.07
2,-0.007736206,0.01582336,0.9998322,1.0,-0.1200714,-0.0173645,0.9925995,-35.18193,3.500687,-35.59677,2.79213,0.6581589,0.5395437,1.0,0.008209229,0.02052307,0.9997406,35.34883,5.076645,-31.22096,3.225113,0.4067669,0.4255061,0.1012239,1.252132,-0.1695492,-0.0159588,0.7204039,0.03165236,0.2408612,3.010162,35.07
2,-0.007736206,0.01582336,0.9998322,1.0,-0.1200714,-0.0173645,0.9925995,-35.18193,3.500687,-35.59677,2.79213,0.6581589,0.5395437,1.0,0.008209229,0.02052307,0.9997406,35.34883,5.076645,-31.22096,3.225113,0.4067669,0.4255061,0.1012239,1.252132,-0.1695492,-0.0159588,0.7204039,0.03165236,0.2408612,3.010162,35.07
2,-0.01342773,0.01329041,0.9998169,1.0,-0.1193237,-0.01759338,0.992691,-35.16699,3.452744,-35.40613,2.795319,0.657199,0.5394701,1.0,0.006576538,0.019104,0.9997864,35.37289,5.049362,-31.08905,3.233154,0.4062408,0.4255401,0.101022,1.252058,-0.1697887,-0.01582777,0.7205839,0.03144158,0.2408612,-43.7753,35.07
2,-0.01342773,0.01329041,0.9998169,1.0,-0.1193237,-0.01759338,0.992691,-35.16699,3.452744,-35.40613,2.795319,0.657199,0.5394701,1.0,0.006576538,0.019104,0.9997864,35.37289,5.049362,-31.08905,3.233154,0.4062408,0.4255401,0.101022,1.252058,-0.1697887,-0.01582777,0.7205839,0.03144158,0.2408612,-43.7753,35.07
2,-0.01342773,0.01329041,0.9998169,1.0,-0.1193237,-0.01759338,0.992691,-35.16699,3.452744,-35.40613,2.795319,0.657199,0.5394701,1.0,0.006576538,0.019104,0.9997864,35.37289,5.049362,-31.08905,3.233154,0.4062408,0.4255401,0.101022,1.252058,-0.1697887,-0.01582777,0.7205839,0.03144158,0.2408612,-43.7753,35.07
2,-0.01353455,0.01182556,0.9998322,1.0,-0.118515,-0.01469421,0.9928284,-35.16673,3.421295,-35.28989,2.800629,0.6568949,0.5391165,1.0,0.01313782,0.01853943,0.9997406,35.38177,5.045029,-31.06261,3.222473,0.4051703,0.4255061,0.1008258,1.251947,-0.1700059,-0.01591906,0.7207448,0.03121744,0.2408612,-43.7753,35.07
2,-0.01353455,0.01182556,0.9998322,1.0,-0.118515,-0.01469421,0.9928284,-35.16673,3.421295,-35.28989,2.800629,0.6568949,0.5391165,1.0,0.01313782,0.01853943,0.9997406,35.38177,5.045029,-31.06261,3.222473,0.4051703,0.4255061,0.1008258,1.251947,-0.1700059,-0.01591906,0.7207448,0.03121744,0.2408612,-43.7753,35.07
2,-0.01353455,0.01182556,0.9998322,1.0,-0.118515,-0.01469421,0.9928284,-35.16673,3.421295,-35.28989,2.800629,0.6568949,0.5391165,1.0,0.01313782,0.01853943,0.9997406,35.38177,5.045029,-31.06261,3.222473,0.4051703,0.4255061,0.1008258,1.251947,-0.1700059,-0.01591906,0.7207448,0.03121744,0.2408612,-43.7753,35.07
3,-0.01353455,0.01182556,0.9998322,1.0,-0.118515,-0.01469421,0.9928284,-35.16673,3.421295,-35.28989,2.800629,0.6568949,0.5391165,1.0,0.01313782,0.01853943,0.9997406,35.38177,5.045029,-31.06261,3.222473,0.4051703,0.4255061,0.1006713,1.251982,-0.1701723,-0.01633418,0.7209435,0.03087414,0.2408612,-43.7753,35.07
3,-0.01353455,0.01182556,0.9998322,1.0,-0.118515,-0.01469421,0.9928284,-35.16673,3.421295,-35.28989,2.800629,0.6568949,0.5391165,1.0,0.01313782,0.01853943,0.9997406,35.38177,5.045029,-31.06261,3.222473,0.4051703,0.4255061,0.1006713,1.251982,-0.1701723,-0.01633418,0.7209435,0.03087414,0.2408612,-43.7753,35.07
3,-0.01353455,0.01182556,0.9998322,1.0,-0.118515,-0.01469421,0.9928284,-35.16673,3.421295,-35.28989,2.800629,0.6568949,0.5391165,1.0,0.01313782,0.01853943,0.9997406,35.38177,5.045029,-31.06261,3.222473,0.4051703,0.4255061,0.1006713,1.251982,-0.1701723,-0.01633418,0.7209435,0.03087414,0.2408612,-43.7753,35.07
3,-0.005889893,0.01634216,0.9998474,1.0,-0.1153412,-0.01486206,0.9932098,-35.16632,3.393997,-35.18649,2.801895,0.6562931,0.5391233,1.0,0.01264954,0.02160645,0.9996796,35.38586,5.043381,-31.0621,3.223343,0.4050913,0.4251888,0.1005774,1.251922,-0.1703992,-0.01655685,0.721028,0.03084432,0.2408612,-43.7753,35.07
3,-0.005889893,0.01634216,0.9998474,1.0,-0.1153412,-0.01486206,0.9932098,-35.16632,3.393997,-35.18649,2.801895,0.6562931,0.5391233,1.0,0.01264954,0.02160645,0.9996796,35.38586,5.043381,-31.0621,3.223343,0.4050913,0.4251888,0.1005774,1.251922,-0.1703992,-0.01655685,0.721028,0.03084432,0.2408612,-43.7753,35.07
3,-0.005889893,0.01634216,0.9998474,1.0,-0.1153412,-0.01486206,0.9932098,-35.16632,3.393997,-35.18649,2.801895,0.6562931,0.5391233,1.0,0.01264954,0.02160645,0.9996796,35.38586,5.043381,-31.0621,3.223343,0.4050913,0.4251888,0.1005774,1.251922,-0.1703992,-0.01655685,0.721028,0.03084432,0.2408612,-43.7753,35.07
3,-0.005889893,0.01634216,0.9998474,1.0,-0.1153412,-0.01486206,0.9932098,-35.16632,3.393997,-35.18649,2.801895,0.6562931,0.5391233,1.0,0.01264954,0.02160645,0.9996796,35.38586,5.043381,-31.0621,3.223343,0.4050913,0.4251888,0.1004918,1.251819,-0.1705255,-0.0165278,0.7209908,0.03045893,0.2408612,-43.7753,35.07
3,-0.005889893,0.01634216,0.9998474,1.0,-0.1153412,-0.01486206,0.9932098,-35.16632,3.393997,-35.18649,2.801895,0.6562931,0.5391233,1.0,0.01264954,0.02160645,0.9996796,35.38586,5.043381,-31.0621,3.223343,0.4050913,0.4251888,0.1004918,1.251819,-0.1705255,-0.0165278,0.7209908,0.03045893,0.2408612,-43.7753,35.07
3,-0.005889893,0.01634216,0.9998474,1.0,-0.1153412,-0.01486206,0.9932098,-35.16632,3.393997,-35.18649,2.801895,0.6562931,0.5391233,1.0,0.01264954,0.02160645,0.9996796,35.38586,5.043381,-31.0621,3.223343,0.4050913,0.4251888,0.1004918,1.251819,-0.1705255,-0.0165278,0.7209908,0.03045893,0.2408612,-43.7753,35.07
3,0.0241394,0.03225708,0.999176,1.0,-0.09893799,-0.006378174,0.9950714,-35.13377,3.345963,-34.86864,2.766312,0.6523816,0.5366499,1.0,0.02565002,0.0327301,0.9991302,35.47084,4.999664,-30.67206,3.167313,0.4010188,0.4220325,0.1004264,1.251769,-0.1707061,-0.01662085,0.7209044,0.03033957,0.2408612,9.137726,35.07
3,0.0241394,0.03225708,0.999176,1.0,-0.09893799,-0.006378174,0.9950714,-35.13377,3.345963,-34.86864,2.766312,0.6523816,0.5366499,1.0,0.02565002,0.0327301,0.9991302,35.47084,4.999664,-30.67206,3.167313,0.4010188,0.4220325,0.1004264,1.251769,-0.1707061,-0.01662085,0.7209044,0.03033957,0.2408612,9.137726,35.07
3,0.0241394,0.03225708,0.999176,1.0,-0.09893799,-0.006378174,0.9950714,-35.13377,3.345963,-34.86864,2.766312,0.6523816,0.5366499,1.0,0.02565002,0.0327301,0.9991302,35.47084,4.999664,-30.67206,3.167313,0.4010188,0.4220325,0.1004264,1.251769,-0.1707061,-0.01662085,0.7209044,0.03033957,0.2408612,9.137726,35.07
3,0.01977539,0.04095459,0.9989624,1.0,-0.08638,0.008407593,0.9962158,-35.10194,3.314743,-34.70236,2.712936,0.6492441,0.5342146,1.0,0.03843689,0.04663086,0.9981689,35.52957,4.997894,-30.50522,3.169052,0.3976156,0.4190053,0.1004262,1.251564,-0.1709087,-0.01651246,0.7208989,0.03036387,0.2408612,9.137726,35.07
3,0.01977539,0.04095459,0.9989624,1.0,-0.08638,0.008407593,0.9962158,-35.10194,3.314743,-34.70236,2.712936,0.6492441,0.5342146,1.0,0.03843689,0.04663086,0.9981689,35.52957,4.997894,-30.50522,3.169052,0.3976156,0.4190053,0.1004262,1.251564,-0.1709087,-0.01651246,0.7208989,0.03036387,0.2408612,9.137726,35.07
3,0.01977539,0.04095459,0.9989624,1.0,-0.08638,0.008407593,0.9962158,-35.10194,3.314743,-34.70236,2.712936,0.6492441,0.5342146,1.0,0.03843689,0.04663086,0.9981689,35.52957,4.997894,-30.50522,3.169052,0.3976156,0.4190053,0.1004262,1.251564,-0.1709087,-0.01651246,0.7208989,0.03036387,0.2408612,9.137726,35.07
3,-0.02838135,0.02249146,0.9993286,1.0,-0.08399963,0.00617981,0.9964447,-35.09634,3.335022,-34.74707,2.726486,0.6488112,0.5342146,1.0,0.0403595,0.04252625,0.9982758,35.53673,5.000992,-30.47987,3.227921,0.3970926,0.4192313,0.1004345,1.251382,-0.1709889,-0.01610611,0.7206559,0.03054137,0.2408612,9.137726,35.07
3,-0.02838135,0.02249146,0.9993286,1.0,-0.08399963,0.00617981,0.9964447,-35.09634,3.335022,-34.74707,2.726486,0.6488112,0.5342146,1.0,0.0403595,0.04252625,0.9982758,35.53673,5.000992,-30.47987,3.227921,0.3970926,0.4192313,0.1004345,1.251382,-0.1709889,-0.01610611,0.7206559,0.03054137,0.2408612,9.137726,35.07
3,-0.02838135,0.02249146,0.9993286,1.0,-0.08399963,0.00617981,0.9964447,-35.09634,3.335022,-34.74707,2.726486,0.6488112,0.5342146,1.0,0.0403595,0.04252625,0.9982758,35.53673,5.000992,-30.47987,3.227921,0.3970926,0.4192313,0.1004345,1.251382,-0.1709889,-0.01610611,0.7206559,0.03054137,0.2408612,9.137726,35.07
3,-0.04490662,0.01821899,0.9988098,1.0,-0.08416748,0.006500244,0.9964294,-35.09442,3.339432,-34.75168,2.750885,0.6487994,0.5340843,1.0,0.03948975,0.04324341,0.9982758,35.53931,5.001999,-30.48238,3.196533,0.3971428,0.41911,0.100683,1.251449,-0.171038,-0.01617904,0.7206057,0.03033183,0.2408612,9.137726,35.07
3,-0.04490662,0.01821899,0.9988098,1.0,-0.08416748,0.006500244,0.9964294,-35.09442,3.339432,-34.75168,2.750885,0.6487994,0.5340843,1.0,0.03948975,0.04324341,0.9982758,35.53931,5.001999,-30.48238,3.196533,0.3971428,0.41911,0.100683,1.251449,-0.171038,-0.01617904,0.7206057,0.03033183,0.2408612,9.137726,35.07
3,-0.04490662,0.01821899,0.9988098,1.0,-0.08416748,0.006500244,0.9964294,-35.09442,3.339432,-34.75168,2.750885,0.6487994,0.5340843,1.0,0.03948975,0.04324341,0.9982758,35.53931,5.001999,-30.48238,3.196533,0.3971428,0.41911,0.100683,1.251449,-0.171038,-0.01617904,0.7206057,0.03033183,0.2408612,9.137726,35.07
3,-0.04490662,0.01821899,0.9988098,1.0,-0.08416748,0.006500244,0.9964294,-35.09442,3.339432,-34.75168,2.750885,0.6487994,0.5340843,1.0,0.03948975,0.04324341,0.9982758,35.53931,5.001999,-30.48238,3.196533,0.3971428,0.41911,0.1007407,1.251317,-0.1711908,-0.01651765,0.7206867,0.0297287,0.2408612,9.137726,35.07
3,-0.04490662,0.01821899,0.9988098,1.0,-0.08416748,0.006500244,0.9964294,-35.09442,3.339432,-34.75168,2.750885,0.6487994,0.5340843,1.0,0.03948975,0.04324341,0.9982758,35.53931,5.001999,-30.48238,3.196533,0.3971428,0.41911,0.1007407,1.251317,-0.1711908,-0.01651765,0.7206867,0.0297287,0.2408612,9.137726,35.07
3,-0.04490662,0.01821899,0.9988098,1.0,-0.08416748,0.006500244,0.9964294,-35.09442,3.339432,-34.75168,2.750885,0.6487994,0.5340843,1.0,0.03948975,0.04324341,0.9982758,35.53931,5.001999,-30.48238,3.196533,0.3971428,0.41911,0.1007407,1.251317,-0.1711908,-0.01651765,0.7206867,0.0297287,0.2408612,9.137726,35.07
3,0.09959412,-0.1198273,0.9877777,0.9501701,-0.03057861,-0.1308441,0.990921,-34.7998,2.449753,-33.38135,2.963837,0.6295719,0.5705352,0.9576781,0.0997467,-0.119812,0.9877625,35.73412,4.578644,-30.8974,3.349197,0.3821819,0.4569121,0.100894,1.251093,-0.1714216,-0.01623443,0.720782,0.02958613,0.2408612,6.646881,35.07
3,0.09959412,-0.1198273,0.9877777,0.9501701,-0.03057861,-0.1308441,0.990921,-34.7998,2.449753,-33.38135,2.963837,0.6295719,0.5705352,0.9576781,0.0997467,-0.119812,0.9877625,35.73412,4.578644,-30.8974,3.349197,0.3821819,0.4569121,0.100894,1.251093,-0.1714216,-0.01623443,0.720782,0.02958613,0.2408612,6.646881,35.07
3,0.09959412,-0.1198273,0.9877777,0.9501701,-0.03057861,-0.1308441,0.990921,-34.7998,2.449753,-33.38135,2.963837,0.6295719,0.5705352,0.9576781,0.0997467,-0.119812,0.9877625,35.73412,4.578644,-30.8974,3.349197,0.3821819,0.4569121,0.100894,1.251093,-0.1714216,-0.01623443,0.720782,0.02958613,0.2408612,6.646881,35.07
3,0.1059113,-0.1194458,0.9871674,0.9719166,-0.03120422,-0.1185913,0.9924469,-34.81604,2.483124,-33.61891,2.917084,0.6305001,0.5700318,0.9630398,0.1059113,-0.1194458,0.9871674,35.73607,4.584213,-30.92421,3.412979,0.3812694,0.4569121,0.100853,1.250906,-0.171604,-0.01632551,0.7207703,0.02944755,0.2408612,6.646881,35.07
3,0.1059113,-0.1194458,0.9871674,0.9719166,-0.03120422,-0.1185913,0.9924469,-34.81604,2.483124,-33.61891,2.917084,0.6305001,0.5700318,0.9630398,0.1059113,-0.1194458,0.9871674,35.73607,4.584213,-30.92421,3.412979,0.3812694,0.4569121,0.100853,1.250906,-0.171604,-0.01632551,0.7207703,0.02944755,0.2408612,6.646881,35.07
3,0.1059113,-0.1194458,0.9871674,0.9719166,-0.03120422,-0.1185913,0.9924469,-34.81604,2.483124,-33.61891,2.917084,0.6305001,0.5700318,0.9630398,0.1059113,-0.1194458,0.9871674,35.73607,4.584213,-30.92421,3.412979,0.3812694,0.4569121,0.100853,1.250906,-0.171604,-0.01632551,0.7207703,0.02944755,0.2408612,6.646881,35.07
3,0.1069031,-0.1194153,0.9870605,0.9719166,-0.03544617,-0.12117,0.9919891,-34.82043,2.437347,-33.41464,2.948853,0.6309578,0.5700318,0.9630398,0.1069336,-0.1194153,0.9870605,35.73842,4.584213,-30.92421,3.42067,0.3810557,0.4569121,0.1008382,1.250847,-0.1716291,-0.01610519,0.7207436,0.02932268,0.2408612,6.646881,35.07
3,0.1069031,-0.1194153,0.9870605,0.9719166,-0.03544617,-0.12117,0.9919891,-34.82043,2.437347,-33.41464,2.948853,0.6309578,0.5700318,0.9630398,0.1069336,-0.1194153,0.9870605,35.73842,4.584213,-30.92421,3.42067,0.3810557,0.4569121,0.1008382,1.250847,-0.1716291,-0.01610519,0.7207436,0.02932268,0.2408612,6.646881,35.07
3,0.1069031,-0.1194153,0.9870605,0.9719166,-0.03544617,-0.12117,0.9919891,-34.82043,2.437347,-33.41464,2.948853,0.6309578,0.5700318,0.9630398,0.1069336,-0.1194153,0.9870605,35.73842,4.584213,-30.92421,3.42067,0.3810557,0.4569121,0.1008382,1.250847,-0.1716291,-0.01610519,0.7207436,0.02932268,0.2408612,6.646881,35.07
3,0.1073151,-0.1204834,0.9868927,0.9516894,-0.03512573,-0.1215668,0.9919586,-34.8223,2.437485,-33.41701,2.971542,0.6310174,0.5701236,0.9736013,0.1075592,-0.1204834,0.9868622,35.73891,4.583542,-30.91266,3.424026,0.3809698,0.4569758,0.1008451,1.250856,-0.171632,-0.01613661,0.7206983,0.02935518,0.2408612,6.646881,35.07
3,0.1073151,-0.1204834,0.9868927,0.9516894,-0.03512573,-0.1215668,0.9919586,-34.8223,2.437485,-33.41701,2.971542,0.6310174,0.5701236,0.9736013,0.1075592,-0.1204834,0.9868622,35.73891,4.583542,-30.91266,3.424026,0.3809698,0.4569758,0.1008451,1.250856,-0.171632,-0.01613661,0.7206983,0.02935518,0.2408612,6.646881,35.07
3,0.1073151,-0.1204834,0.9868927,0.9516894,-0.03512573,-0.1215668,0.9919586,-34.8223,2.437485,-33.41701,2.971542,0.6310174,0.5701236,0.9736013,0.1075592,-0.1204834,0.9868622,35.73891,4.583542,-30.91266,3.424026,0.3809698,0.4569758,0.1008451,1.250856,-0.171632,-0.01613661,0.7206983,0.02935518,0.2408612,6.646881,35.07
3,0.1053772,-0.1194458,0.9872284,0.9516894,-0.03515625,-0.1206665,0.9920654,-34.82335,2.443161,-33.44028,2.973038,0.6310914,0.5700318,0.9736013,0.1082458,-0.1194,0.9869232,35.74109,4.584213,-30.92421,3.420746,0.3808016,0.4569121,0.101047,1.250938,-0.1716139,-0.01592023,0.7207224,0.02961784,0.2408612,9.352814,35.07
3,0.1053772,-0.1194458,0.9872284,0.9516894,-0.03515625,-0.1206665,0.9920654,-34.82335,2.443161,-33.44028,2.973038,0.6310914,0.5700318,0.9736013,0.1082458,-0.1194,0.9869232,35.74109,4.584213,-30.92421,3.420746,0.3808016,0.4569121,0.101047,1.250938,-0.1716139,-0.01592023,0.7207224,0.02961784,0.2408612,9.352814,35.07
3,0.1053772,-0.1194458,0.9872284,0.9516894,-0.03515625,-0.1206665,0.9920654,-34.82335,2.443161,-33.44028,2.973038,0.6310914,0.5700318,0.9736013,0.1082458,-0.1194,0.9869232,35.74109,4.584213,-30.92421,3.420746,0.3808016,0.4569121,0.101047,1.250938,-0.1716139,-0.01592023,0.7207224,0.02961784,0.2408612,9.352814,35.07
3,-0.03338623,-0.1287689,0.9911041,0.9622697,-0.0344696,-0.128952,0.9910431,-34.84262,2.47998,-33.56525,3.009094,0.6319258,0.57103,0.9834887,0.09547424,-0.106308,0.9897308,35.82285,4.696518,-31.57074,3.525696,0.3787079,0.4568744,0.1009557,1.25089,-0.1716661,-0.01575889,0.7207024,0.02997317,0.2408612,9.352814,35.07
3,-0.03338623,-0.1287689,0.9911041,0.9622697,-0.0344696,-0.128952,0.9910431,-34.84262,2.47998,-33.56525,3.009094,0.6319258,0.57103,0.9834887,0.09547424,-0.106308,0.9897308,35.82285,4.696518,-31.57074,3.525696,0.3787079,0.4568744,0.1009557,1.25089,-0.1716661,-0.01575889,0.7207024,0.02997317,0.2408612,9.352814,35.07
3,-0.03338623,-0.1287689,0.9911041,0.9622697,-0.0344696,-0.128952,0.9910431,-34.84262,2.47998,-33.56525,3.009094,0.6319258,0.57103,0.9834887,0.09547424,-0.106308,0.9897308,35.82285,4.696518,-31.57074,3.525696,0.3787079,0.4568744,0.1009557,1.25089,-0.1716661,-0.01575889,0.7207024,0.02997317,0.2408612,9.352814,35.07
3,0.01579285,-0.1202698,0.9926147,0.9524081,-0.03215027,-0.1282349,0.9912109,-34.84946,2.484833,-33.59219,3.008682,0.6319129,0.57103,0.9657533,0.09840393,-0.1058655,0.9894867,35.82481,4.691818,-31.58592,3.515182,0.3782715,0.4570967,0.100831,1.250793,-0.171672,-0.01552526,0.7207787,0.02986871,0.2408612,9.352814,35.07
3,0.01579285,-0.1202698,0.9926147,0.9524081,-0.03215027,-0.1282349,0.9912109,-34.84946,2.484833,-33.59219,3.008682,0.6319129,0.57103,0.9657533,0.09840393,-0.1058655,0.9894867,35.82481,4.691818,-31.58592,3.515182,0.3782715,0.4570967,0.100831,1.250793,-0.171672,-0.01552526,0.7207787,0.02986871,0.2408612,9.352814,35.07
3,0.01579285,-0.1202698,0.9926147,0.9524081,-0.03215027,-0.1282349,0.9912109,-34.84946,2.484833,-33.59219,3.008682,0.6319129,0.57103,0.9657533,0.09840393,-0.1058655,0.9894867,35.82481,4.691818,-31.58592,3.515182,0.3782715,0.4570967,0.100831,1.250793,-0.171672,-0.01552526,0.7207787,0.02986871,0.2408612,9.352814,35.07
3,0.04827881,-0.1167297,0.9919739,0.9515209,-0.03239441,-0.1333618,0.9905243,-34.85271,2.483231,-33.57222,2.996353,0.6320238,0.5715588,0.9744005,0.09931946,-0.1057739,0.9894104,35.83057,4.688004,-31.57491,3.50383,0.3779817,0.457117,0.1008689,1.250755,-0.1717151,-0.0155715,0.720896,0.02973559,0.2408612,9.352814,35.07
3,0.04827881,-0.1167297,0.9919739,0.9515209,-0.03239441,-0.1333618,0.9905243,-34.85271,2.483231,-33.57222,2.996353,0.6320238,0.5715588,0.9744005,0.09931946,-0.1057739,0.9894104,35.83057,4.688004,-31.57491,3.50383,0.3779817,0.457117,0.1008689,1.250755,-0.1717151,-0.0155715,0.720896,0.02973559,0.2408612,9.352814,35.07
3,0.04827881,-0.1167297,0.9919739,0.9515209,-0.03239441,-0.1333618,0.9905243,-34.85271,2.483231,-33.57222,2.996353,0.6320238,0.5715588,0.9744005,0.09931946,-0.1057739,0.9894104,35.83057,4.688004,-31.57491,3.50383,0.3779817,0.457117,0.1008689,1.250755,-0.1717151,-0.0155715,0.720896,0.02973559,0.2408612,9.352814,35.07
3,0.0476532,-0.1183777,0.9918213,0.9586936,-0.03520203,-0.1349792,0.9902191,-34.85751,2.475723,-33.57222,2.985291,0.6325479,0.5720254,0.9730684,0.09992981,-0.1074371,0.9891663,35.83337,4.682663,-31.57356,3.48877,0.3778223,0.4574876,0.1009045,1.250697,-0.1717426,-0.01537359,0.7209713,0.02975488,0.2408612,-35.79947,35.07
3,0.0476532,-0.1183777,0.9918213,0.9586936,-0.03520203,-0.1349792,0.9902191,-34.85751,2.475723,-33.57222,2.985291,0.6325479,0.5720254,0.9730684,0.09992981,-0.1074371,0.9891663,35.83337,4.682663,-31.57356,3.48877,0.3778223,0.4574876,0.1009045,1.250697,-0.1717426,-0.01537359,0.7209713,0.02975488,0.2408612,-35.79947,35.07
3,0.0476532,-0.1183777,0.9918213,0.9586936,-0.03520203,-0.1349792,0.9902191,-34.85751,2.475723,-33.57222,2.985291,0.6325479,0.5720254,0.9730684,0.09992981,-0.1074371,0.9891663,35.83337,4.682663,-31.57356,3.48877,0.3778223,0.4574876,0.1009045,1.250697,-0.1717426,-0.01537359,0.7209713,0.02975488,0.2408612,-35.79947,35.07
3,0.03926086,-0.1215973,0.9917908,0.9576858,-0.03581238,-0.1351318,0.9901733,-34.86084,2.475784,-33.57207,2.979446,0.6327372,0.5720436,0.9672281,0.101944,-0.109726,0.9887085,35.83395,4.666641,-31.48798,3.477905,0.3776618,0.4575904,0.1009698,1.250647,-0.1717579,-0.01514016,0.7210197,0.02986983,0.2408612,-35.79947,35.07
3,0.03926086,-0.1215973,0.9917908,0.9576858,-0.03581238,-0.1351318,0.9901733,-34.86084,2.475784,-33.57207,2.979446,0.6327372,0.5720436,0.9672281,0.101944,-0.109726,0.9887085,35.83395,4.666641,-31.48798,3.477905,0.3776618,0.4575904,0.1009698,1.250647,-0.1717579,-0.01514016,0.7210197,0.02986983,0.2408612,-35.79947,35.07
3,0.03926086,-0.1215973,0.9917908,0.9576858,-0.03581238,-0.1351318,0.9901733,-34.86084,2.475784,-33.57207,2.979446,0.6327372,0.5720436,0.9672281,0.101944,-0.109726,0.9887085,35.83395,4.666641,-31.48798,3.477905,0.3776618,0.4575904,0.1009698,1.250647,-0.1717579,-0.01514016,0.7210197,0.02986983,0.2408612,-35.79947,35.07
3,0.03114319,-0.1219177,0.9920502,0.9676672,-0.03486633,-0.1335449,0.9904175,-34.86084,2.475784,-33.57207,2.959534,0.6325904,0.5718266,0.9729275,0.1013947,-0.1089172,0.9888611,35.8409,4.654648,-31.45473,3.436325,0.3775666,0.457612,0.1009653,1.250571,-0.1717611,-0.0150268,0.7211752,0.02988268,0.2408612,-35.79947,35.07
3,0.03114319,-0.1219177,0.9920502,0.9676672,-0.03486633,-0.1335449,0.9904175,-34.86084,2.475784,-33.57207,2.959534,0.6325904,0.5718266,0.9729275,0.1013947,-0.1089172,0.9888611,35.8409,4.654648,-31.45473,3.436325,0.3775666,0.457612,0.1009653,1.250571,-0.1717611,-0.0150268,0.7211752,0.02988268,0.2408612,-35.79947,35.07
3,0.03114319,-0.1219177,0.9920502,0.9676672,-0.03486633,-0.1335449,0.9904175,-34.86084,2.475784,-33.57207,2.959534,0.6325904,0.5718266,0.9729275,0.1013947,-0.1089172,0.9888611,35.8409,4.654648,-31.45473,3.436325,0.3775666,0.457612,0.1009653,1.250571,-0.1717611,-0.0150268,0.7211752,0.02988268,0.2408612,-35.79947,35.07
3,0.03114319,-0.1219177,0.9920502,0.9676672,-0.03486633,-0.1335449,0.9904175,-34.86084,2.475784,-33.57207,2.959534,0.6325904,0.5718266,0.9729275,0.1013947,-0.1089172,0.9888611,35.8409,4.654648,-31.45473,3.436325,0.3775666,0.457612,0.101202,1.250569,-0.171614,-0.01465632,0.7212808,0.03010426,0.2408612,-35.79947,35.07
3,0.03114319,-0.1219177,0.9920502,0.9676672,-0.03486633,-0.1335449,0.9904175,-34.86084,2.475784,-33.57207,2.959534,0.6325904,0.5718266,0.9729275,0.1013947,-0.1089172,0.9888611,35.8409,4.654648,-31.45473,3.436325,0.3775666,0.457612,0.101202,1.250569,-0.171614,-0.01465632,0.7212808,0.03010426,0.2408612,-35.79947,35.07
3,0.03114319,-0.1219177,0.9920502,0.9676672,-0.03486633,-0.1335449,0.9904175,-34.86084,2.475784,-33.57207,2.959534,0.6325904,0.5718266,0.9729275,0.1013947,-0.1089172,0.9888611,35.8409,4.654648,-31.45473,3.436325,0.3775666,0.457612,0.101202,1.250569,-0.171614,-0.01465632,0.7212808,0.03010426,0.2408612,-35.79947,35.07
3,0.03114319,-0.1219177,0.9920502,0.9676672,-0.03486633,-0.1335449,0.9904175,-34.86084,2.475784,-33.57207,2.959534,0.6325904,0.5718266,0.9729275,0.1013947,-0.1089172,0.9888611,35.8409,4.654648,-31.45473,3.436325,0.3775666,0.457612,0.1013386,1.250506,-0.1715743,-0.01402747,0.7211875,0.0303091,0.2408612,-35.79947,35.07
3,0.03114319,-0.1219177,0.9920502,0.9676672,-0.03486633,-0.1335449,0.9904175,-34.86084,2.475784,-33.57207,2.959534,0.6325904,0.5718266,0.9729275,0.1013947,-0.1089172,0.9888611,35.8409,4.654648,-31.45473,3.436325,0.3775666,0.457612,0.1013386,1.250506,-0.1715743,-0.01402747,0.7211875,0.0303091,0.2408612,-35.79947,35.07
3,0.03114319,-0.1219177,0.9920502,0.9676672,-0.03486633,-0.1335449,0.9904175,-34.86084,2.475784,-33.57207,2.959534,0.6325904,0.5718266,0.9729275,0.1013947,-0.1089172,0.9888611,35.8409,4.654648,-31.45473,3.436325,0.3775666,0.457612,0.1013386,1.250506,-0.1715743,-0.01402747,0.7211875,0.0303091,0.2408612,-35.79947,35.07
3,0.03642273,-0.1212158,0.9919434,0.9634457,-0.03495789,-0.1340027,0.9903564,-34.85956,2.478424,-33.57668,2.947403,0.6325479,0.5718266,0.9760781,0.1006165,-0.1091309,0.9889069,35.84709,4.648804,-31.42928,3.428696,0.3774841,0.457612,0.1013024,1.25046,-0.1715245,-0.01366615,0.7210853,0.03043654,0.2408612,-57.39465,35.07
3,0.03642273,-0.1212158,0.9919434,0.9634457,-0.03495789,-0.1340027,0.9903564,-34.85956,2.478424,-33.57668,2.947403,0.6325479,0.5718266,0.9760781,0.1006165,-0.1091309,0.9889069,35.84709,4.648804,-31.42928,3.428696,0.3774841,0.457612,0.1013024,1.25046,-0.1715245,-0.01366615,0.7210853,0.03043654,0.2408612,-57.39465,35.07
3,0.03642273,-0.1212158,0.9919434,0.9634457,-0.03495789,-0.1340027,0.9903564,-34.85956,2.478424,-33.57668,2.947403,0.6325479,0.5718266,0.9760781,0.1006165,-0.1091309,0.9889069,35.84709,4.648804,-31.42928,3.428696,0.3774841,0.457612,0.1013024,1.25046,-0.1715245,-0.01366615,0.7210853,0.03043654,0.2408612,-57.39465,35.07
3,0.03642273,-0.1212158,0.9919434,0.9634457,-0.03495789,-0.1340027,0.9903564,-34.85956,2.478424,-33.57668,2.947403,0.6325479,0.5718266,0.9760781,0.1006165,-0.1091309,0.9889069,35.84709,4.648804,-31.42928,3.428696,0.3774841,0.457612,0.1010473,1.250354,-0.1716097,-0.01354485,0.7208685,0.03062578,0.2408612,-57.39465,35.07
3,0.03642273,-0.1212158,0.9919434,0.9634457,-0.03495789,-0.1340027,0.9903564,-34.85956,2.478424,-33.57668,2.947403,0.6325479,0.5718266,0.9760781,0.1006165,-0.1091309,0.9889069,35.84709,4.648804,-31.42928,3.428696,0.3774841,0.457612,0.1010473,1.250354,-0.1716097,-0.01354485,0.7208685,0.03062578,0.2408612,-57.39465,35.07
3,0.03642273,-0.1212158,0.9919434,0.9634457,-0.03495789,-0.1340027,0.9903564,-34.85956,2.478424,-33.57668,2.947403,0.6325479,0.5718266,0.9760781,0.1006165,-0.1091309,0.9889069,35.84709,4.648804,-31.42928,3.428696,0.3774841,0.457612,0.1010473,1.250354,-0.1716097,-0.01354485,0.7208685,0.03062578,0.2408612,-57.39465,35.07
3,-0.04647827,-0.1148376,0.9922943,0.9644258,-0.06414795,-0.1182861,0.9908905,-34.8974,2.777008,-34.00035,2.792191,0.6380581,0.5631601,0.9673802,0.07832336,-0.08944702,0.9929047,35.74313,4.658966,-30.64574,3.272278,0.3849156,0.4482889,0.1008773,1.250334,-0.1716053,-0.01337548,0.720726,0.03114875,0.2408612,-57.39465,35.07
3,-0.04647827,-0.1148376,0.9922943,0.9644258,-0.06414795,-0.1182861,0.9908905,-34.8974,2.777008,-34.00035,2.792191,0.6380581,0.5631601,0.9673802,0.07832336,-0.08944702,0.9929047,35.74313,4.658966,-30.64574,3.272278,0.3849156,0.4482889,0.1008773,1.250334,-0.1716053,-0.01337548,0.720726,0.03114875,0.2408612,-57.39465,35.07
3,-0.04647827,-0.1148376,0.9922943,0.9644258,-0.06414795,-0.1182861,0.9908905,-34.8974,2.777008,-34.00035,2.792191,0.6380581,0.5631601,0.9673802,0.07832336,-0.08944702,0.9929047,35.74313,4.658966,-30.64574,3.272278,0.3849156,0.4482889,0.1008773,1.250334,-0.1716053,-0.01337548,0.720726,0.03114875,0.2408612,-57.39465,35.07
3,0.06704712,-0.07957458,0.9945679,0.9049652,-0.08349609,-0.1077576,0.9906616,-34.88046,2.960922,-34.37968,2.71727,0.6404117,0.5588498,0.9567344,0.08158875,-0.07673645,0.9936981,35.65628,4.854721,-31.29916,3.183456,0.3869469,0.4453918,0.100898,1.250238,-0.171685,-0.01359043,0.7205337,0.03160395,0.2408612,-57.39465,35.07
3,0.06704712,-0.07957458,0.9945679,0.9049652,-0.08349609,-0.1077576,0.9906616,-34.88046,2.960922,-34.37968,2.71727,0.6404117,0.5588498,0.9567344,0.08158875,-0.07673645,0.9936981,35.65628,4.854721,-31.29916,3.183456,0.3869469,0.4453918,0.100898,1.250238,-0.171685,-0.01359043,0.7205337,0.03160395,0.2408612,-57.39465,35.07
3,0.06704712,-0.07957458,0.9945679,0.9049652,-0.08349609,-0.1077576,0.9906616,-34.88046,2.960922,-34.37968,2.71727,0.6404117,0.5588498,0.9567344,0.08158875,-0.07673645,0.9936981,35.65628,4.854721,-31.29916,3.183456,0.3869469,0.4453918,0.100898,1.250238,-0.171685,-0.01359043,0.7205337,0.03160395,0.2408612,-57.39465,35.07
3,0.06854248,-0.07398987,0.9948883,0.9114239,-0.07684326,-0.1056824,0.9914246,-34.89174,2.946762,-34.33617,2.718811,0.6398888,0.5586556,0.9506539,0.07272339,-0.07304382,0.9946594,35.65852,4.862137,-31.33798,3.210114,0.3878945,0.4450381,0.1008928,1.250129,-0.1716868,-0.0133065,0.7204468,0.03166484,0.2408612,-57.39465,35.07
3,0.06854248,-0.07398987,0.9948883,0.9114239,-0.07684326,-0.1056824,0.9914246,-34.89174,2.946762,-34.33617,2.718811,0.6398888,0.5586556,0.9506539,0.07272339,-0.07304382,0.9946594,35.65852,4.862137,-31.33798,3.210114,0.3878945,0.4450381,0.1008928,1.250129,-0.1716868,-0.0133065,0.7204468,0.03166484,0.2408612,-57.39465,35.07
3,0.06854248,-0.07398987,0.9948883,0.9114239,-0.07684326,-0.1056824,0.9914246,-34.89174,2.946762,-34.33617,2.718811,0.6398888,0.5586556,0.9506539,0.07272339,-0.07304382,0.9946594,35.65852,4.862137,-31.33798,3.210114,0.3878945,0.4450381,0.1008928,1.250129,-0.1716868,-0.0133065,0.7204468,0.03166484,0.2408612,-57.39465,35.07
3,0.06854248,-0.07398987,0.9948883,0.9114239,-0.07684326,-0.1056824,0.9914246,-34.89174,2.946762,-34.33617,2.718811,0.6398888,0.5586556,0.9506539,0.07272339,-0.07304382,0.9946594,35.65852,4.862137,-31.33798,3.210114,0.3878945,0.4450381,0.1010387,1.250266,-0.1717435,-0.01323999,0.7204673,0.03186994,0.2408612,-57.39465,35.07
3,0.06854248,-0.07398987,0.9948883,0.9114239,-0.07684326,-0.1056824,0.9914246,-34.89174,2.946762,-34.33617,2.718811,0.6398888,0.5586556,0.9506539,0.07272339,-0.07304382,0.9946594,35.65852,4.862137,-31.33798,3.210114,0.3878945,0.4450381,0.1010387,1.250266,-0.1717435,-0.01323999,0.7204673,0.03186994,0.2408612,-57.39465,35.07
3,0.06854248,-0.07398987,0.9948883,0.9114239,-0.07684326,-0.1056824,0.9914246,-34.89174,2.946762,-34.33617,2.718811,0.6398888,0.5586556,0.9506539,0.07272339,-0.07304382,0.9946594,35.65852,4.862137,-31.33798,3.210114,0.3878945,0.4450381,0.1010387,1.250266,-0.1717435,-0.01323999,0.7204673,0.03186994,0.2408612,-57.39465,35.07
4,-0.002960205,-0.09233093,0.9957123,0.9128385,-0.08013916,-0.1072998,0.9909821,-34.9043,2.930725,-34.27545,2.730927,0.640701,0.5588683,0.9518859,0.07331848,-0.07698059,0.9943237,35.659,4.863663,-31.33873,3.187454,0.3878242,0.4454621,0.1011312,1.250393,-0.1717901,-0.01358468,0.7208046,0.03165778,0.2408612,32.5094,35.07
4,-0.002960205,-0.09233093,0.9957123,0.9128385,-0.08013916,-0.1072998,0.9909821,-34.9043,2.930725,-34.27545,2.730927,0.640701,0.5588683,0.9518859,0.07331848,-0.07698059,0.9943237,35.659,4.863663,-31.33873,3.187454,0.3878242,0.4454621,0.1011312,1.250393,-0.1717901,-0.01358468,0.7208046,0.03165778,0.2408612,32.5094,35.07
4,-0.002960205,-0.09233093,0.9957123,0.9128385,-0.08013916,-0.1072998,0.9909821,-34.9043,2.930725,-34.27545,2.730927,0.640701,0.5588683,0.9518859,0.07331848,-0.07698059,0.9943237,35.659,4.863663,-31.33873,3.187454,0.3878242,0.4454621,0.1011312,1.250393,-0.1717901,-0.01358468,0.7208046,0.03165778,0.2408612,32.5094,35.07
4,-0.002960205,-0.09233093,0.9957123,0.9128385,-0.08013916,-0.1072998,0.9909821,-34.9043,2.930725,-34.27545,2.730927,0.640701,0.5588683,0.9518859,0.07331848,-0.07698059,0.9943237,35.659,4.863663,-31.33873,3.187454,0.3878242,0.4454621,0.1009946,1.250271,-0.1719452,-0.01322422,0.7208803,0.03186339,0.2395801,32.5094,35.07
4,-0.002960205,-0.09233093,0.9957123,0.9128385,-0.08013916,-0.1072998,0.9909821,-34.9043,2.930725,-34.27545,2.730927,0.640701,0.5588683,0.9518859,0.07331848,-0.07698059,0.9943237,35.659,4.863663,-31.33873,3.187454,0.3878242,0.4454621,0.1009946,1.250271,-0.1719452,-0.01322422,0.7208803,0.03186339,0.2395801,32.5094,35.07
4,-0.002960205,-0.09233093,0.9957123,0.9128385,-0.08013916,-0.1072998,0.9909821,-34.9043,2.930725,-34.27545,2.730927,0.640701,0.5588683,0.9518859,0.07331848,-0.07698059,0.9943237,35.659,4.863663,-31.33873,3.187454,0.3878242,0.4454621,0.1009946,1.250271,-0.1719452,-0.01322422,0.7208803,0.03186339,0.2395801,32.5094,35.07
4,0.06054688,-0.08129883,0.9948425,0.9026031,-0.07397461,-0.09802246,0.9924164,-34.94682,2.811569,-33.96124,2.747803,0.6409903,0.5588847,0.9568354,0.07223511,-0.07975769,0.9941864,35.66148,4.864136,-31.33948,3.174545,0.3878809,0.4457952,0.1007099,1.250153,-0.1720667,-0.01284873,0.7210981,0.03183883,0.2395801,32.5094,35.07
4,0.06054688,-0.08129883,0.9948425,0.9026031,-0.07397461,-0.09802246,0.9924164,-34.94682,2.811569,-33.96124,2.747803,0.6409903,0.5588847,0.9568354,0.07223511,-0.07975769,0.9941864,35.66148,4.864136,-31.33948,3.174545,0.3878809,0.4457952,0.1007099,1.250153,-0.1720667,-0.01284873,0.7210981,0.03183883,0.2395801,32.5094,35.07
4,0.06054688,-0.08129883,0.9948425,0.9026031,-0.07397461,-0.09802246,0.9924164,-34.94682,2.811569,-33.96124,2.747803,0.6409903,0.5588847,0.9568354,0.07223511,-0.07975769,0.9941864,35.66148,4.864136,-31.33948,3.174545,0.3878809,0.4457952,0.1007099,1.250153,-0.1720667,-0.01284873,0.7210981,0.03183883,0.2395801,32.5094,35.07
4,0.06694031,-0.07992554,0.9945374,0.9026031,-0.07286072,-0.0975647,0.9925537,-34.94928,2.808975,-33.95889,2.7388,0.6409212,0.5588858,0.9568354,0.07278442,-0.07914734,0.9941864,35.66173,4.863663,-31.33873,3.165131,0.3878174,0.4457269,0.1005831,1.250035,-0.1721914,-0.0128139,0.721298,0.03196774,0.2395801,32.5094,35.07
4,0.06694031,-0.07992554,0.9945374,0.9026031,-0.07286072,-0.0975647,0.9925537,-34.94928,2.808975,-33.95889,2.7388,0.6409212,0.5588858,0.9568354,0.07278442,-0.07914734,0.9941864,35.66173,4.863663,-31.33873,3.165131,0.3878174,0.4457269,0.1005831,1.250035,-0.1721914,-0.0128139,0.721298,0.03196774,0.2395801,32.5094,35.07
4,0.06694031,-0.07992554,0.9945374,0.9026031,-0.07286072,-0.0975647,0.9925537,-34.94928,2.808975,-33.95889,2.7388,0.6409212,0.5588858,0.9568354,0.07278442,-0.07914734,0.9941864,35.66173,4.863663,-31.33873,3.165131,0.3878174,0.4457269,0.1005831,1.250035,-0.1721914,-0.0128139,0.721298,0.03196774,0.2395801,32.5094,35.07
4,0.07859802,-0.09010315,0.9928131,0.9151638,-0.07051086,-0.09979248,0.9924927,-34.95638,2.805695,-33.95027,2.729614,0.640852,0.559212,0.9670564,0.08226013,-0.08984375,0.9925385,35.68929,4.82666,-31.29739,3.016815,0.3858714,0.4478741,0.1004553,1.249987,-0.1723418,-0.01273867,0.7214423,0.03219649,0.2395801,24.55826,35.07
4,0.07859802,-0.09010315,0.9928131,0.9151638,-0.07051086,-0.09979248,0.9924927,-34.95638,2.805695,-33.95027,2.729614,0.640852,0.559212,0.9670564,0.08226013,-0.08984375,0.9925385,35.68929,4.82666,-31.29739,3.016815,0.3858714,0.4478741,0.1004553,1.249987,-0.1723418,-0.01273867,0.7214423,0.03219649,0.2395801,24.55826,35.07
4,0.07859802,-0.09010315,0.9928131,0.9151638,-0.07051086,-0.09979248,0.9924927,-34.95638,2.805695,-33.95027,2.729614,0.640852,0.559212,0.9670564,0.08226013,-0.08984375,0.9925385,35.68929,4.82666,-31.29739,3.016815,0.3858714,0.4478741,0.1004553,1.249987,-0.1723418,-0.01273867,0.7214423,0.03219649,0.2395801,24.55826,35.07
4,0.03131104,-0.09394836,0.9950714,0.9177932,-0.0668335,-0.1023865,0.9924927,-34.96231,2.79277,-33.90955,2.723251,0.6405242,0.5596052,0.9542423,0.08406067,-0.08901978,0.9924622,35.69153,4.826645,-31.29416,3.036331,0.3855551,0.447749,0.1004412,1.249998,-0.1723195,-0.01280401,0.7214941,0.03231107,0.2395801,24.55826,35.07
4,0.03131104,-0.09394836,0.9950714,0.9177932,-0.0668335,-0.1023865,0.9924927,-34.96231,2.79277,-33.90955,2.723251,0.6405242,0.5596052,0.9542423,0.08406067,-0.08901978,0.9924622,35.69153,4.826645,-31.29416,3.036331,0.3855551,0.447749,0.1004412,1.249998,-0.1723195,-0.01280401,0.7214941,0.03231107,0.2395801,24.55826,35.07
4,0.03131104,-0.09394836,0.9950714,0.9177932,-0.0668335,-0.1023865,0.9924927,-34.96231,2.79277,-33.90955,2.723251,0.6405242,0.5596052,0.9542423,0.08406067,-0.08901978,0.9924622,35.69153,4.826645,-31.29416,3.036331,0.3855551,0.447749,0.1004412,1.249998,-0.1723195,-0.01280401,0.7214941,0.03231107,0.2395801,24.55826,35.07
4,0.03796387,-0.09127808,0.9950867,0.9178182,-0.06115723,-0.1001434,0.9930878,-34.96231,2.757919,-33.87306,2.688293,0.6396959,0.5601713,0.9619056,0.08441162,-0.08680725,0.99263,35.69301,4.826523,-31.29416,3.022797,0.3854761,0.4474672,0.1004307,1.250046,-0.1722837,-0.01254981,0.7214511,0.03246669,0.2395801,24.55826,35.07
4,0.03796387,-0.09127808,0.9950867,0.9178182,-0.06115723,-0.1001434,0.9930878,-34.96231,2.757919,-33.87306,2.688293,0.6396959,0.5601713,0.9619056,0.08441162,-0.08680725,0.99263,35.69301,4.826523,-31.29416,3.022797,0.3854761,0.4474672,0.1004307,1.250046,-0.1722837,-0.01254981,0.7214511,0.03246669,0.2395801,24.55826,35.07
4,0.03796387,-0.09127808,0.9950867,0.9178182,-0.06115723,-0.1001434,0.9930878,-34.96231,2.757919,-33.87306,2.688293,0.6396959,0.5601713,0.9619056,0.08441162,-0.08680725,0.99263,35.69301,4.826523,-31.29416,3.022797,0.3854761,0.4474672,0.1004307,1.250046,-0.1722837,-0.01254981,0.7214511,0.03246669,0.2395801,24.55826,35.07
4,0.03326416,-0.09353638,0.9950562,0.9141691,-0.06010437,-0.1025696,0.9929047,-34.95375,2.757355,-33.85786,2.672272,0.6392096,0.5603561,0.9639661,0.08602905,-0.08804321,0.9923859,35.69716,4.823486,-31.2888,3.032486,0.3851278,0.4476838,0.1004093,1.250152,-0.1722959,-0.01268797,0.7214239,0.03261551,0.2395801,24.55826,35.07
4,0.03326416,-0.09353638,0.9950562,0.9141691,-0.06010437,-0.1025696,0.9929047,-34.95375,2.757355,-33.85786,2.672272,0.6392096,0.5603561,0.9639661,0.08602905,-0.08804321,0.9923859,35.69716,4.823486,-31.2888,3.032486,0.3851278,0.4476838,0.1004093,1.250152,-0.1722959,-0.01268797,0.7214239,0.03261551,0.2395801,24.55826,35.07
4,0.03326416,-0.09353638,0.9950562,0.9141691,-0.06010437,-0.1025696,0.9929047,-34.95375,2.757355,-33.85786,2.672272,0.6392096,0.5603561,0.9639661,0.08602905,-0.08804321,0.9923859,35.69716,4.823486,-31.2888,3.032486,0.3851278,0.4476838,0.1004093,1.250152,-0.1722959,-0.01268797,0.7214239,0.03261551,0.2395801,24.55826,35.07
4,0.02867126,-0.09570313,0.9949951,0.9302925,-0.06063843,-0.1049805,0.9926147,-34.94839,2.758942,-33.87306,2.66449,0.6391007,0.5607501,0.9656079,0.08712769,-0.08921814,0.9921875,35.70432,4.817932,-31.26419,3.046799,0.3847546,0.4478117,0.1003919,1.250169,-0.1723706,-0.01273867,0.7212019,0.03285212,0.2395801,24.55826,35.07
4,0.02867126,-0.09570313,0.9949951,0.9302925,-0.06063843,-0.1049805,0.9926147,-34.94839,2.758942,-33.87306,2.66449,0.6391007,0.5607501,0.9656079,0.08712769,-0.08921814,0.9921875,35.70432,4.817932,-31.26419,3.046799,0.3847546,0.4478117,0.1003919,1.250169,-0.1723706,-0.01273867,0.7212019,0.03285212,0.2395801,24.55826,35.07
4,0.02867126,-0.09570313,0.9949951,0.9302925,-0.06063843,-0.1049805,0.9926147,-34.94839,2.758942,-33.87306,2.66449,0.6391007,0.5607501,0.9656079,0.08712769,-0.08921814,0.9921875,35.70432,4.817932,-31.26419,3.046799,0.3847546,0.4478117,0.1003919,1.250169,-0.1723706,-0.01273867,0.7212019,0.03285212,0.2395801,24.55826,35.07
4,-0.05058289,-0.1057587,0.9930878,0.931336,-0.05996704,-0.1063385,0.9925079,-34.94839,2.758347,-33.87082,2.664276,0.6390114,0.5609256,0.9623582,0.09057617,-0.09609985,0.9912262,35.70827,4.735855,-30.83504,3.056473,0.3846355,0.4479252,0.1002343,1.250126,-0.1724861,-0.01267123,0.7211941,0.03281922,0.2395801,24.55826,35.07
4,-0.05058289,-0.1057587,0.9930878,0.931336,-0.05996704,-0.1063385,0.9925079,-34.94839,2.758347,-33.87082,2.664276,0.6390114,0.5609256,0.9623582,0.09057617,-0.09609985,0.9912262,35.70827,4.735855,-30.83504,3.056473,0.3846355,0.4479252,0.1002343,1.250126,-0.1724861,-0.01267123,0.7211941,0.03281922,0.2395801,24.55826,35.07
4,-0.05058289,-0.1057587,0.9930878,0.931336,-0.05996704,-0.1063385,0.9925079,-34.94839,2.758347,-33.87082,2.664276,0.6390114,0.5609256,0.9623582,0.09057617,-0.09609985,0.9912262,35.70827,4.735855,-30.83504,3.056473,0.3846355,0.4479252,0.1002343,1.250126,-0.1724861,-0.01267123,0.7211941,0.03281922,0.2395801,24.55826,35.07
4,-0.07165527,-0.08946228,0.9934082,0.9299241,-0.07278442,-0.08956909,0.9933014,-34.9879,2.910614,-34.13495,2.672302,0.642485,0.5558705,0.9554278,0.07746887,-0.07380676,0.9942474,35.65211,4.748611,-30.57428,3.153458,0.3884023,0.442667,0.1002142,1.250121,-0.1726002,-0.01291005,0.7211617,0.03286731,0.2395801,-3.090271,35.07
4,-0.07165527,-0.08946228,0.9934082,0.9299241,-0.07278442,-0.08956909,0.9933014,-34.9879,2.910614,-34.13495,2.672302,0.642485,0.5558705,0.9554278,0.07746887,-0.07380676,0.9942474,35.65211,4.748611,-30.57428,3.153458,0.3884023,0.442667,0.1002142,1.250121,-0.1726002,-0.01291005,0.7211617,0.03286731,0.2395801,-3.090271,35.07
4,-0.07165527,-0.08946228,0.9934082,0.9299241,-0.07278442,-0.08956909,0.9933014,-34.9879,2.910614,-34.13495,2.672302,0.642485,0.5558705,0.9554278,0.07746887,-0.07380676,0.9942474,35.65211,4.748611,-30.57428,3.153458,0.3884023,0.442667,0.1002142,1.250121,-0.1726002,-0.01291005,0.7211617,0.03286731,0.2395801,-3.090271,35.07
4,-0.1060791,-0.04267883,0.9934387,0.9220071,-0.1062164,-0.04273987,0.9934235,-35.14702,3.007095,-33.48294,2.796478,0.6516791,0.5403221,0.9409014,0.04048157,0.01896667,0.9989929,35.39418,5.10498,-31.18857,3.105774,0.4014282,0.4242364,0.100137,1.250178,-0.17272,-0.01322281,0.7211968,0.03305391,0.2395801,-3.090271,35.07
4,-0.1060791,-0.04267883,0.9934387,0.9220071,-0.1062164,-0.04273987,0.9934235,-35.14702,3.007095,-33.48294,2.796478,0.6516791,0.5403221,0.9409014,0.04048157,0.01896667,0.9989929,35.39418,5.10498,-31.18857,3.105774,0.4014282,0.4242364,0.100137,1.250178,-0.17272,-0.01322281,0.7211968,0.03305391,0.2395801,-3.090271,35.07
4,-0.1060791,-0.04267883,0.9934387,0.9220071,-0.1062164,-0.04273987,0.9934235,-35.14702,3.007095,-33.48294,2.796478,0.6516791,0.5403221,0.9409014,0.04048157,0.01896667,0.9989929,35.39418,5.10498,-31.18857,3.105774,0.4014282,0.4242364,0.100137,1.250178,-0.17272,-0.01322281,0.7211968,0.03305391,0.2395801,-3.090271,35.07
4,-0.09042358,-0.02923584,0.9954681,0.9337151,-0.1101074,-0.03762817,0.9931946,-35.15535,3.008377,-33.48019,2.833038,0.6525183,0.5396389,0.9564217,0.03820801,0.02554321,0.9989319,35.40675,5.133606,-31.31671,3.048325,0.4012238,0.4234408,0.1002584,1.250269,-0.1728281,-0.01365252,0.7212024,0.03280252,0.2395801,-3.090271,35.07
4,-0.09042358,-0.02923584,0.9954681,0.9337151,-0.1101074,-0.03762817,0.9931946,-35.15535,3.008377,-33.48019,2.833038,0.6525183,0.5396389,0.9564217,0.03820801,0.02554321,0.9989319,35.40675,5.133606,-31.31671,3.048325,0.4012238,0.4234408,0.1002584,1.250269,-0.1728281,-0.01365252,0.7212024,0.03280252,0.2395801,-3.090271,35.07
4,-0.09042358,-0.02923584,0.9954681,0.9337151,-0.1101074,-0.03762817,0.9931946,-35.15535,3.008377,-33.48019,2.833038,0.6525183,0.5396389,0.9564217,0.03820801,0.02554321,0.9989319,35.40675,5.133606,-31.31671,3.048325,0.4012238,0.4234408,0.1002584,1.250269,-0.1728281,-0.01365252,0.7212024,0.03280252,0.2395801,-3.090271,35.07
4,-0.1064301,-0.03681946,0.9936371,0.9615165,-0.1073761,-0.0372467,0.993515,-35.16936,2.966064,-33.32745,2.780182,0.6523754,0.5395916,0.9724643,0.02941895,0.02503967,0.9992523,35.48982,4.963226,-30.71396,3.127747,0.3998985,0.4245084,0.1002736,1.250322,-0.1724375,-0.01470859,0.7195309,0.03191141,0.2395801,-46.65921,35.07
4,-0.1064301,-0.03681946,0.9936371,0.9615165,-0.1073761,-0.0372467,0.993515,-35.16936,2.966064,-33.32745,2.780182,0.6523754,0.5395916,0.9724643,0.02941895,0.02503967,0.9992523,35.48982,4.963226,-30.71396,3.127747,0.3998985,0.4245084,0.1002736,1.250322,-0.1724375,-0.01470859,0.7195309,0.03191141,0.2395801,-46.65921,35.07
