Second,eye_comb_direction_x,eye_comb_direction_y,eye_comb_direction_z,eye_r_openness,eye_r_direction_x,eye_r_direction_y,eye_r_direction_z,eye_r_origin_x,eye_r_origin_y,eye_r_origin_z,eye_r_pupil_diameter,eye_r_pupil_position_x,eye_r_pupil_position_y,eye_l_openness,eye_l_direction_x,eye_l_direction_y,eye_l_direction_z,eye_l_origin_x,eye_l_origin_y,eye_l_origin_z,eye_l_pupil_diameter,eye_l_pupil_position_x,eye_l_pupil_position_y,head_position_x,head_position_y,head_position_z,head_rotation_roll,head_rotation_pitch,head_rotation_yaw,EDA,BVP,TMP
0,0.2280579,-0.08395386,0.9700165,0.9733514,0.1020966,-0.09976196,0.9897461,-34.19553,3.03244,-34.72208,3.9048,0.5939314,0.5594451,0.9134364,0.3089752,-0.07279968,0.9482727,36.60074,4.644226,-31.04749,4.864288,0.3245914,0.4505186,0.09606123,1.248481,-0.1929352,-0.02919804,0.7916841,0.04761337,0.2485483,-0.4524117206544436,34.525798319327734
0,0.2280579,-0.08395386,0.9700165,0.9733514,0.1020966,-0.09976196,0.9897461,-34.19553,3.03244,-34.72208,3.9048,0.5939314,0.5594451,0.9134364,0.3089752,-0.07279968,0.9482727,36.60074,4.644226,-31.04749,4.864288,0.3245914,0.4505186,0.09606123,1.248481,-0.1929352,-0.02919804,0.7916841,0.04761337,0.2485483,-0.4524117206544436,34.525798319327734
0,0.2280579,-0.08395386,0.9700165,0.9733514,0.1020966,-0.09976196,0.9897461,-34.19553,3.03244,-34.72208,3.9048,0.5939314,0.5594451,0.9134364,0.3089752,-0.07279968,0.9482727,36.60074,4.644226,-31.04749,4.864288,0.3245914,0.4505186,0.09606123,1.248481,-0.1929352,-0.02919804,0.7916841,0.04761337,0.2485483,-0.4524117206544436,34.525798319327734
0,0.2231598,-0.08648682,0.970932,0.9820754,0.1023865,-0.1046143,0.989212,-34.20154,3.031616,-34.71252,3.862137,0.5940356,0.5599747,0.9239553,0.3082123,-0.07258606,0.9485321,36.60283,4.644226,-31.0563,4.752167,0.3246856,0.4505186,0.09630203,1.248606,-0.1923419,-0.02903067,0.7905657,0.0480892,0.2485483,-0.4524117206544436,34.525798319327734
0,0.2231598,-0.08648682,0.970932,0.9820754,0.1023865,-0.1046143,0.989212,-34.20154,3.031616,-34.71252,3.862137,0.5940356,0.5599747,0.9239553,0.3082123,-0.07258606,0.9485321,36.60283,4.644226,-31.0563,4.752167,0.3246856,0.4505186,0.09630203,1.248606,-0.1923419,-0.02903067,0.7905657,0.0480892,0.2485483,-0.4524117206544436,34.525798319327734
0,0.2231598,-0.08648682,0.970932,0.9820754,0.1023865,-0.1046143,0.989212,-34.20154,3.031616,-34.71252,3.862137,0.5940356,0.5599747,0.9239553,0.3082123,-0.07258606,0.9485321,36.60283,4.644226,-31.0563,4.752167,0.3246856,0.4505186,0.09630203,1.248606,-0.1923419,-0.02903067,0.7905657,0.0480892,0.2485483,-0.4524117206544436,34.525798319327734
0,0.2194366,-0.08680725,0.9717407,0.9728628,0.1005249,-0.1047821,0.9893951,-34.20279,3.03154,-34.71204,3.828201,0.5942618,0.5599747,0.9145513,0.3057709,-0.07261658,0.9493256,36.60283,4.644226,-31.05681,4.732574,0.3250049,0.4505186,0.09640288,1.248565,-0.1916931,-0.02837918,0.7889429,0.04877744,0.2485483,-0.4524117206544436,34.525798319327734
0,0.2194366,-0.08680725,0.9717407,0.9728628,0.1005249,-0.1047821,0.9893951,-34.20279,3.03154,-34.71204,3.828201,0.5942618,0.5599747,0.9145513,0.3057709,-0.07261658,0.9493256,36.60283,4.644226,-31.05681,4.732574,0.3250049,0.4505186,0.09640288,1.248565,-0.1916931,-0.02837918,0.7889429,0.04877744,0.2485483,-0.4524117206544436,34.525798319327734
0,0.2194366,-0.08680725,0.9717407,0.9728628,0.1005249,-0.1047821,0.9893951,-34.20279,3.03154,-34.71204,3.828201,0.5942618,0.5599747,0.9145513,0.3057709,-0.07261658,0.9493256,36.60283,4.644226,-31.05681,4.732574,0.3250049,0.4505186,0.09640288,1.248565,-0.1916931,-0.02837918,0.7889429,0.04877744,0.2485483,-0.4524117206544436,34.525798319327734
0,0.2155914,-0.08903503,0.9724121,0.9729647,0.09429932,-0.1070709,0.9897614,-34.20786,3.030319,-34.69606,3.764587,0.5951098,0.5600848,0.9203091,0.3015137,-0.07510376,0.9504852,36.60049,4.643997,-31.0591,4.68367,0.325655,0.4508133,0.0966506,1.248663,-0.1909831,-0.02799924,0.7871161,0.04952618,0.2485483,-0.4524117206544436,34.525798319327734
0,0.2155914,-0.08903503,0.9724121,0.9729647,0.09429932,-0.1070709,0.9897614,-34.20786,3.030319,-34.69606,3.764587,0.5951098,0.5600848,0.9203091,0.3015137,-0.07510376,0.9504852,36.60049,4.643997,-31.0591,4.68367,0.325655,0.4508133,0.0966506,1.248663,-0.1909831,-0.02799924,0.7871161,0.04952618,0.2485483,-0.4524117206544436,34.525798319327734
0,0.2155914,-0.08903503,0.9724121,0.9729647,0.09429932,-0.1070709,0.9897614,-34.20786,3.030319,-34.69606,3.764587,0.5951098,0.5600848,0.9203091,0.3015137,-0.07510376,0.9504852,36.60049,4.643997,-31.0591,4.68367,0.325655,0.4508133,0.0966506,1.248663,-0.1909831,-0.02799924,0.7871161,0.04952618,0.2485483,-0.4524117206544436,34.525798319327734
0,0.2155914,-0.08903503,0.9724121,0.9729647,0.09429932,-0.1070709,0.9897614,-34.20786,3.030319,-34.69606,3.764587,0.5951098,0.5600848,0.9203091,0.3015137,-0.07510376,0.9504852,36.60049,4.643997,-31.0591,4.68367,0.325655,0.4508133,0.09685016,1.248723,-0.1905057,-0.02800949,0.7858982,0.04976233,0.2485483,-0.4524117206544436,34.525798319327734
0,0.2155914,-0.08903503,0.9724121,0.9729647,0.09429932,-0.1070709,0.9897614,-34.20786,3.030319,-34.69606,3.764587,0.5951098,0.5600848,0.9203091,0.3015137,-0.07510376,0.9504852,36.60049,4.643997,-31.0591,4.68367,0.325655,0.4508133,0.09685016,1.248723,-0.1905057,-0.02800949,0.7858982,0.04976233,0.2485483,-0.4524117206544436,34.525798319327734
0,0.2155914,-0.08903503,0.9724121,0.9729647,0.09429932,-0.1070709,0.9897614,-34.20786,3.030319,-34.69606,3.764587,0.5951098,0.5600848,0.9203091,0.3015137,-0.07510376,0.9504852,36.60049,4.643997,-31.0591,4.68367,0.325655,0.4508133,0.09685016,1.248723,-0.1905057,-0.02800949,0.7858982,0.04976233,0.2485483,-0.4524117206544436,34.525798319327734
0,0.2410431,-0.0819397,0.967041,0.9729647,0.09355164,-0.1096954,0.9895477,-34.21181,3.004822,-34.59418,3.750015,0.5952118,0.5603401,0.9203091,0.3010101,-0.06977844,0.9510498,36.59946,4.642441,-31.06355,4.675995,0.3257592,0.4502513,0.09705663,1.248729,-0.1897165,-0.02766071,0.7841052,0.05004853,0.2485483,-0.4524117206544436,34.525798319327734
0,0.2410431,-0.0819397,0.967041,0.9729647,0.09355164,-0.1096954,0.9895477,-34.21181,3.004822,-34.59418,3.750015,0.5952118,0.5603401,0.9203091,0.3010101,-0.06977844,0.9510498,36.59946,4.642441,-31.06355,4.675995,0.3257592,0.4502513,0.09705663,1.248729,-0.1897165,-0.02766071,0.7841052,0.05004853,0.2485483,-0.4524117206544436,34.525798319327734
0,0.2410431,-0.0819397,0.967041,0.9729647,0.09355164,-0.1096954,0.9895477,-34.21181,3.004822,-34.59418,3.750015,0.5952118,0.5603401,0.9203091,0.3010101,-0.06977844,0.9510498,36.59946,4.642441,-31.06355,4.675995,0.3257592,0.4502513,0.09705663,1.248729,-0.1897165,-0.02766071,0.7841052,0.05004853,0.2485483,-0.4524117206544436,34.525798319327734
0,0.2410431,-0.0819397,0.967041,0.9729647,0.09355164,-0.1096954,0.9895477,-34.21181,3.004822,-34.59418,3.750015,0.5952118,0.5603401,0.9203091,0.3010101,-0.06977844,0.9510498,36.59946,4.642441,-31.06355,4.675995,0.3257592,0.4502513,0.09701204,1.248716,-0.1890838,-0.02712324,0.7823977,0.05045596,0.2485483,-0.4524117206544436,34.525798319327734
0,0.2410431,-0.0819397,0.967041,0.9729647,0.09355164,-0.1096954,0.9895477,-34.21181,3.004822,-34.59418,3.750015,0.5952118,0.5603401,0.9203091,0.3010101,-0.06977844,0.9510498,36.59946,4.642441,-31.06355,4.675995,0.3257592,0.4502513,0.09701204,1.248716,-0.1890838,-0.02712324,0.7823977,0.05045596,0.2485483,-0.4524117206544436,34.525798319327734
0,0.2410431,-0.0819397,0.967041,0.9729647,0.09355164,-0.1096954,0.9895477,-34.21181,3.004822,-34.59418,3.750015,0.5952118,0.5603401,0.9203091,0.3010101,-0.06977844,0.9510498,36.59946,4.642441,-31.06355,4.675995,0.3257592,0.4502513,0.09701204,1.248716,-0.1890838,-0.02712324,0.7823977,0.05045596,0.2485483,-0.4524117206544436,34.525798319327734
0,0.253067,-0.07835388,0.9642639,0.9776673,0.09138489,-0.1108093,0.989624,-34.21202,2.999908,-34.56438,3.720245,0.5954132,0.5603401,0.9274211,0.3013153,-0.06793213,0.9510956,36.59848,4.642853,-31.06558,4.667618,0.3257592,0.45003,0.0970304,1.248753,-0.1887273,-0.02677072,0.7815533,0.05059943,0.2485483,-0.4524117206544436,34.525798319327734
0,0.253067,-0.07835388,0.9642639,0.9776673,0.09138489,-0.1108093,0.989624,-34.21202,2.999908,-34.56438,3.720245,0.5954132,0.5603401,0.9274211,0.3013153,-0.06793213,0.9510956,36.59848,4.642853,-31.06558,4.667618,0.3257592,0.45003,0.0970304,1.248753,-0.1887273,-0.02677072,0.7815533,0.05059943,0.2485483,-0.4524117206544436,34.525798319327734
0,0.253067,-0.07835388,0.9642639,0.9776673,0.09138489,-0.1108093,0.989624,-34.21202,2.999908,-34.56438,3.720245,0.5954132,0.5603401,0.9274211,0.3013153,-0.06793213,0.9510956,36.59848,4.642853,-31.06558,4.667618,0.3257592,0.45003,0.0970304,1.248753,-0.1887273,-0.02677072,0.7815533,0.05059943,0.2485483,-0.4524117206544436,34.525798319327734
0,0.253067,-0.07835388,0.9642639,0.9776673,0.09138489,-0.1108093,0.989624,-34.21202,2.999908,-34.56438,3.720245,0.5954132,0.5603401,0.9274211,0.3013153,-0.06793213,0.9510956,36.59848,4.642853,-31.06558,4.667618,0.3257592,0.45003,0.09700632,1.248831,-0.1881563,-0.02636719,0.7804903,0.05122883,0.2485483,-0.4524117206544436,34.525798319327734
0,0.253067,-0.07835388,0.9642639,0.9776673,0.09138489,-0.1108093,0.989624,-34.21202,2.999908,-34.56438,3.720245,0.5954132,0.5603401,0.9274211,0.3013153,-0.06793213,0.9510956,36.59848,4.642853,-31.06558,4.667618,0.3257592,0.45003,0.09700632,1.248831,-0.1881563,-0.02636719,0.7804903,0.05122883,0.2485483,-0.4524117206544436,34.525798319327734
0,0.253067,-0.07835388,0.9642639,0.9776673,0.09138489,-0.1108093,0.989624,-34.21202,2.999908,-34.56438,3.720245,0.5954132,0.5603401,0.9274211,0.3013153,-0.06793213,0.9510956,36.59848,4.642853,-31.06558,4.667618,0.3257592,0.45003,0.09700632,1.248831,-0.1881563,-0.02636719,0.7804903,0.05122883,0.2485483,-0.4524117206544436,34.525798319327734
0,0.253067,-0.07835388,0.9642639,0.9776673,0.09138489,-0.1108093,0.989624,-34.21202,2.999908,-34.56438,3.720245,0.5954132,0.5603401,0.9274211,0.3013153,-0.06793213,0.9510956,36.59848,4.642853,-31.06558,4.667618,0.3257592,0.45003,0.09704208,1.248842,-0.187791,-0.02606737,0.7800168,0.05165536,0.2485483,-0.4524117206544436,34.525798319327734
0,0.253067,-0.07835388,0.9642639,0.9776673,0.09138489,-0.1108093,0.989624,-34.21202,2.999908,-34.56438,3.720245,0.5954132,0.5603401,0.9274211,0.3013153,-0.06793213,0.9510956,36.59848,4.642853,-31.06558,4.667618,0.3257592,0.45003,0.09704208,1.248842,-0.187791,-0.02606737,0.7800168,0.05165536,0.2485483,-0.4524117206544436,34.525798319327734
0,0.253067,-0.07835388,0.9642639,0.9776673,0.09138489,-0.1108093,0.989624,-34.21202,2.999908,-34.56438,3.720245,0.5954132,0.5603401,0.9274211,0.3013153,-0.06793213,0.9510956,36.59848,4.642853,-31.06558,4.667618,0.3257592,0.45003,0.09704208,1.248842,-0.187791,-0.02606737,0.7800168,0.05165536,0.2485483,-0.4524117206544436,34.525798319327734
0,0.253067,-0.07835388,0.9642639,0.9776673,0.09138489,-0.1108093,0.989624,-34.21202,2.999908,-34.56438,3.720245,0.5954132,0.5603401,0.9274211,0.3013153,-0.06793213,0.9510956,36.59848,4.642853,-31.06558,4.667618,0.3257592,0.45003,0.0970428,1.248907,-0.1874211,-0.02557424,0.7794009,0.05243542,0.2485483,-0.4524117206544436,34.525798319327734
0,0.253067,-0.07835388,0.9642639,0.9776673,0.09138489,-0.1108093,0.989624,-34.21202,2.999908,-34.56438,3.720245,0.5954132,0.5603401,0.9274211,0.3013153,-0.06793213,0.9510956,36.59848,4.642853,-31.06558,4.667618,0.3257592,0.45003,0.0970428,1.248907,-0.1874211,-0.02557424,0.7794009,0.05243542,0.2485483,-0.4524117206544436,34.525798319327734
0,0.253067,-0.07835388,0.9642639,0.9776673,0.09138489,-0.1108093,0.989624,-34.21202,2.999908,-34.56438,3.720245,0.5954132,0.5603401,0.9274211,0.3013153,-0.06793213,0.9510956,36.59848,4.642853,-31.06558,4.667618,0.3257592,0.45003,0.0970428,1.248907,-0.1874211,-0.02557424,0.7794009,0.05243542,0.2485483,-0.4524117206544436,34.525798319327734
0,0.2367859,-0.04222107,0.9706268,0.9778193,0.0785675,-0.122818,0.9893036,-34.33224,2.929062,-34.37476,3.561905,0.6009204,0.5624592,0.9278898,0.2625122,-0.02861023,0.9644928,36.53801,4.688797,-31.1696,4.473602,0.3327849,0.4443993,0.09711456,1.248954,-0.1870911,-0.02495793,0.7790775,0.05319465,0.2485483,16.66138,34.525798319327734
0,0.2367859,-0.04222107,0.9706268,0.9778193,0.0785675,-0.122818,0.9893036,-34.33224,2.929062,-34.37476,3.561905,0.6009204,0.5624592,0.9278898,0.2625122,-0.02861023,0.9644928,36.53801,4.688797,-31.1696,4.473602,0.3327849,0.4443993,0.09711456,1.248954,-0.1870911,-0.02495793,0.7790775,0.05319465,0.2485483,16.66138,34.525798319327734
0,0.2367859,-0.04222107,0.9706268,0.9778193,0.0785675,-0.122818,0.9893036,-34.33224,2.929062,-34.37476,3.561905,0.6009204,0.5624592,0.9278898,0.2625122,-0.02861023,0.9644928,36.53801,4.688797,-31.1696,4.473602,0.3327849,0.4443993,0.09711456,1.248954,-0.1870911,-0.02495793,0.7790775,0.05319465,0.2485483,16.66138,34.525798319327734
0,0.05194092,-0.117691,0.991684,0.967211,0.05128479,-0.1178894,0.9916992,-34.50679,2.950851,-34.46068,3.541595,0.6107489,0.5618292,0.9207487,0.2209015,-0.06538391,0.9730988,36.34792,4.94931,-32.23253,4.348999,0.3431771,0.4487013,0.09712195,1.248916,-0.1869875,-0.0247959,0.7789097,0.05361611,0.2485483,16.66138,34.525798319327734
0,0.05194092,-0.117691,0.991684,0.967211,0.05128479,-0.1178894,0.9916992,-34.50679,2.950851,-34.46068,3.541595,0.6107489,0.5618292,0.9207487,0.2209015,-0.06538391,0.9730988,36.34792,4.94931,-32.23253,4.348999,0.3431771,0.4487013,0.09712195,1.248916,-0.1869875,-0.0247959,0.7789097,0.05361611,0.2485483,16.66138,34.525798319327734
0,0.05194092,-0.117691,0.991684,0.967211,0.05128479,-0.1178894,0.9916992,-34.50679,2.950851,-34.46068,3.541595,0.6107489,0.5618292,0.9207487,0.2209015,-0.06538391,0.9730988,36.34792,4.94931,-32.23253,4.348999,0.3431771,0.4487013,0.09712195,1.248916,-0.1869875,-0.0247959,0.7789097,0.05361611,0.2485483,16.66138,34.525798319327734
0,0.05337524,-0.09884644,0.9936676,0.9505355,0.05337524,-0.09884644,0.9936676,-34.51408,2.954102,-34.46863,3.54274,0.6107509,0.559352,0.9297754,0.2136841,-0.06143188,0.9749603,36.32797,4.976486,-32.35973,4.268005,0.3446337,0.4482668,0.09723115,1.248999,-0.18677,-0.02468357,0.7788558,0.05383868,0.2485483,16.66138,34.525798319327734
0,0.05337524,-0.09884644,0.9936676,0.9505355,0.05337524,-0.09884644,0.9936676,-34.51408,2.954102,-34.46863,3.54274,0.6107509,0.559352,0.9297754,0.2136841,-0.06143188,0.9749603,36.32797,4.976486,-32.35973,4.268005,0.3446337,0.4482668,0.09723115,1.248999,-0.18677,-0.02468357,0.7788558,0.05383868,0.2485483,16.66138,34.525798319327734
0,0.05337524,-0.09884644,0.9936676,0.9505355,0.05337524,-0.09884644,0.9936676,-34.51408,2.954102,-34.46863,3.54274,0.6107509,0.559352,0.9297754,0.2136841,-0.06143188,0.9749603,36.32797,4.976486,-32.35973,4.268005,0.3446337,0.4482668,0.09723115,1.248999,-0.18677,-0.02468357,0.7788558,0.05383868,0.2485483,16.66138,34.525798319327734
0,0.118866,-0.08625793,0.989151,0.9616233,0.05244446,-0.1048126,0.993103,-34.51602,2.955566,-34.46593,3.510666,0.6108895,0.5600131,0.9263599,0.2118988,-0.0592804,0.9754791,36.32228,4.955597,-32.26187,4.236786,0.3452352,0.4479051,0.09729242,1.249001,-0.1864699,-0.02436412,0.778724,0.05418238,0.2485483,16.66138,34.525798319327734
0,0.118866,-0.08625793,0.989151,0.9616233,0.05244446,-0.1048126,0.993103,-34.51602,2.955566,-34.46593,3.510666,0.6108895,0.5600131,0.9263599,0.2118988,-0.0592804,0.9754791,36.32228,4.955597,-32.26187,4.236786,0.3452352,0.4479051,0.09729242,1.249001,-0.1864699,-0.02436412,0.778724,0.05418238,0.2485483,16.66138,34.525798319327734
0,0.118866,-0.08625793,0.989151,0.9616233,0.05244446,-0.1048126,0.993103,-34.51602,2.955566,-34.46593,3.510666,0.6108895,0.5600131,0.9263599,0.2118988,-0.0592804,0.9754791,36.32228,4.955597,-32.26187,4.236786,0.3452352,0.4479051,0.09729242,1.249001,-0.1864699,-0.02436412,0.778724,0.05418238,0.2485483,16.66138,34.525798319327734
0,0.104126,-0.09329224,0.9901733,0.9554971,0.05075073,-0.1105194,0.992569,-34.51517,2.958939,-34.46323,3.479507,0.6110281,0.560581,0.9344221,0.2113647,-0.05743408,0.975708,36.31746,4.944,-32.20302,4.133881,0.3456557,0.4475434,0.09731007,1.248965,-0.1863996,-0.02425024,0.7785099,0.05421997,0.2485483,16.66138,34.525798319327734
0,0.104126,-0.09329224,0.9901733,0.9554971,0.05075073,-0.1105194,0.992569,-34.51517,2.958939,-34.46323,3.479507,0.6110281,0.560581,0.9344221,0.2113647,-0.05743408,0.975708,36.31746,4.944,-32.20302,4.133881,0.3456557,0.4475434,0.09731007,1.248965,-0.1863996,-0.02425024,0.7785099,0.05421997,0.2485483,16.66138,34.525798319327734
0,0.104126,-0.09329224,0.9901733,0.9554971,0.05075073,-0.1105194,0.992569,-34.51517,2.958939,-34.46323,3.479507,0.6110281,0.560581,0.9344221,0.2113647,-0.05743408,0.975708,36.31746,4.944,-32.20302,4.133881,0.3456557,0.4475434,0.09731007,1.248965,-0.1863996,-0.02425024,0.7785099,0.05421997,0.2485483,16.66138,34.525798319327734
0,0.104126,-0.09329224,0.9901733,0.9554971,0.05075073,-0.1105194,0.992569,-34.51517,2.958939,-34.46323,3.479507,0.6110281,0.560581,0.9344221,0.2113647,-0.05743408,0.975708,36.31746,4.944,-32.20302,4.133881,0.3456557,0.4475434,0.09743309,1.248933,-0.1861972,-0.02416776,0.7783206,0.05419001,0.2485483,16.66138,34.525798319327734
0,0.104126,-0.09329224,0.9901733,0.9554971,0.05075073,-0.1105194,0.992569,-34.51517,2.958939,-34.46323,3.479507,0.6110281,0.560581,0.9344221,0.2113647,-0.05743408,0.975708,36.31746,4.944,-32.20302,4.133881,0.3456557,0.4475434,0.09743309,1.248933,-0.1861972,-0.02416776,0.7783206,0.05419001,0.2485483,16.66138,34.525798319327734
0,0.104126,-0.09329224,0.9901733,0.9554971,0.05075073,-0.1105194,0.992569,-34.51517,2.958939,-34.46323,3.479507,0.6110281,0.560581,0.9344221,0.2113647,-0.05743408,0.975708,36.31746,4.944,-32.20302,4.133881,0.3456557,0.4475434,0.09743309,1.248933,-0.1861972,-0.02416776,0.7783206,0.05419001,0.2485483,16.66138,34.525798319327734
0,0.104126,-0.09329224,0.9901733,0.9554971,0.05075073,-0.1105194,0.992569,-34.51517,2.958939,-34.46323,3.479507,0.6110281,0.560581,0.9344221,0.2113647,-0.05743408,0.975708,36.31746,4.944,-32.20302,4.133881,0.3456557,0.4475434,0.09747601,1.248866,-0.1861826,-0.02411916,0.7781734,0.0541184,0.2485483,16.66138,34.525798319327734
0,0.104126,-0.09329224,0.9901733,0.9554971,0.05075073,-0.1105194,0.992569,-34.51517,2.958939,-34.46323,3.479507,0.6110281,0.560581,0.9344221,0.2113647,-0.05743408,0.975708,36.31746,4.944,-32.20302,4.133881,0.3456557,0.4475434,0.09747601,1.248866,-0.1861826,-0.02411916,0.7781734,0.0541184,0.2485483,16.66138,34.525798319327734
0,0.104126,-0.09329224,0.9901733,0.9554971,0.05075073,-0.1105194,0.992569,-34.51517,2.958939,-34.46323,3.479507,0.6110281,0.560581,0.9344221,0.2113647,-0.05743408,0.975708,36.31746,4.944,-32.20302,4.133881,0.3456557,0.4475434,0.09747601,1.248866,-0.1861826,-0.02411916,0.7781734,0.0541184,0.2485483,16.66138,34.525798319327734
0,0.1057434,-0.09208679,0.9901123,0.9554971,0.051651,-0.1109314,0.9924774,-34.51463,2.959015,-34.46194,3.47641,0.6108895,0.5606189,0.9344221,0.2084198,-0.05513,0.9764709,36.31628,4.943848,-32.19273,4.166245,0.3460551,0.4471886,0.09766054,1.248843,-0.1860881,-0.02406721,0.7780524,0.0540757,0.2485483,7.989471,34.525798319327734
0,0.1057434,-0.09208679,0.9901123,0.9554971,0.051651,-0.1109314,0.9924774,-34.51463,2.959015,-34.46194,3.47641,0.6108895,0.5606189,0.9344221,0.2084198,-0.05513,0.9764709,36.31628,4.943848,-32.19273,4.166245,0.3460551,0.4471886,0.09766054,1.248843,-0.1860881,-0.02406721,0.7780524,0.0540757,0.2485483,7.989471,34.525798319327734
0,0.1057434,-0.09208679,0.9901123,0.9554971,0.051651,-0.1109314,0.9924774,-34.51463,2.959015,-34.46194,3.47641,0.6108895,0.5606189,0.9344221,0.2084198,-0.05513,0.9764709,36.31628,4.943848,-32.19273,4.166245,0.3460551,0.4471886,0.09766054,1.248843,-0.1860881,-0.02406721,0.7780524,0.0540757,0.2485483,7.989471,34.525798319327734
0,0.2729034,-0.07952881,0.9587402,0.9444846,0.166275,-0.1107635,0.9798279,-33.80855,3.090942,-34.54184,3.339249,0.5707681,0.5568477,0.8673739,0.3574524,-0.05323792,0.9324036,36.93396,4.949646,-31.8643,4.168503,0.3054905,0.4438953,0.09789562,1.248746,-0.1859077,-0.02393995,0.7776621,0.05395377,0.2485483,7.989471,34.525798319327734
0,0.2729034,-0.07952881,0.9587402,0.9444846,0.166275,-0.1107635,0.9798279,-33.80855,3.090942,-34.54184,3.339249,0.5707681,0.5568477,0.8673739,0.3574524,-0.05323792,0.9324036,36.93396,4.949646,-31.8643,4.168503,0.3054905,0.4438953,0.09789562,1.248746,-0.1859077,-0.02393995,0.7776621,0.05395377,0.2485483,7.989471,34.525798319327734
0,0.2729034,-0.07952881,0.9587402,0.9444846,0.166275,-0.1107635,0.9798279,-33.80855,3.090942,-34.54184,3.339249,0.5707681,0.5568477,0.8673739,0.3574524,-0.05323792,0.9324036,36.93396,4.949646,-31.8643,4.168503,0.3054905,0.4438953,0.09789562,1.248746,-0.1859077,-0.02393995,0.7776621,0.05395377,0.2485483,7.989471,34.525798319327734
0,0.4006653,-0.04615784,0.9150543,0.9475444,0.2186737,-0.1004791,0.9705963,-33.60503,3.128799,-34.55626,3.311234,0.55677,0.5545737,0.8876098,0.4329834,-0.03579712,0.9006805,37.02998,4.989807,-31.93127,4.236267,0.2917709,0.4412311,0.09799814,1.248701,-0.1857715,-0.02386732,0.7774425,0.0539967,0.2485483,7.989471,34.525798319327734
0,0.4006653,-0.04615784,0.9150543,0.9475444,0.2186737,-0.1004791,0.9705963,-33.60503,3.128799,-34.55626,3.311234,0.55677,0.5545737,0.8876098,0.4329834,-0.03579712,0.9006805,37.02998,4.989807,-31.93127,4.236267,0.2917709,0.4412311,0.09799814,1.248701,-0.1857715,-0.02386732,0.7774425,0.0539967,0.2485483,7.989471,34.525798319327734
0,0.4006653,-0.04615784,0.9150543,0.9475444,0.2186737,-0.1004791,0.9705963,-33.60503,3.128799,-34.55626,3.311234,0.55677,0.5545737,0.8876098,0.4329834,-0.03579712,0.9006805,37.02998,4.989807,-31.93127,4.236267,0.2917709,0.4412311,0.09799814,1.248701,-0.1857715,-0.02386732,0.7774425,0.0539967,0.2485483,7.989471,34.525798319327734
0,0.3483124,-0.0692749,0.9347992,0.9476769,0.218277,-0.1024628,0.9704895,-33.60542,3.135712,-34.55708,3.308884,0.5568298,0.5545762,0.889762,0.434082,-0.04562378,0.899704,37.03035,4.987732,-31.92636,4.200089,0.2916399,0.4424746,0.09799314,1.248648,-0.1856288,-0.02355403,0.7766984,0.05408342,0.2485483,7.989471,34.525798319327734
0,0.3483124,-0.0692749,0.9347992,0.9476769,0.218277,-0.1024628,0.9704895,-33.60542,3.135712,-34.55708,3.308884,0.5568298,0.5545762,0.889762,0.434082,-0.04562378,0.899704,37.03035,4.987732,-31.92636,4.200089,0.2916399,0.4424746,0.09799314,1.248648,-0.1856288,-0.02355403,0.7766984,0.05408342,0.2485483,7.989471,34.525798319327734
0,0.3483124,-0.0692749,0.9347992,0.9476769,0.218277,-0.1024628,0.9704895,-33.60542,3.135712,-34.55708,3.308884,0.5568298,0.5545762,0.889762,0.434082,-0.04562378,0.899704,37.03035,4.987732,-31.92636,4.200089,0.2916399,0.4424746,0.09799314,1.248648,-0.1856288,-0.02355403,0.7766984,0.05408342,0.2485483,7.989471,34.525798319327734
0,0.346756,-0.07765198,0.9347229,0.9406672,0.2167664,-0.1043701,0.9706268,-33.60674,3.136826,-34.55766,3.307999,0.5570681,0.5547907,0.9092337,0.4351196,-0.05778503,0.8984985,37.01955,4.982285,-31.92081,4.177399,0.2919172,0.4441456,0.09818101,1.248565,-0.1855237,-0.02335885,0.7760013,0.05402974,0.2485483,7.989471,34.525798319327734
0,0.346756,-0.07765198,0.9347229,0.9406672,0.2167664,-0.1043701,0.9706268,-33.60674,3.136826,-34.55766,3.307999,0.5570681,0.5547907,0.9092337,0.4351196,-0.05778503,0.8984985,37.01955,4.982285,-31.92081,4.177399,0.2919172,0.4441456,0.09818101,1.248565,-0.1855237,-0.02335885,0.7760013,0.05402974,0.2485483,7.989471,34.525798319327734
0,0.346756,-0.07765198,0.9347229,0.9406672,0.2167664,-0.1043701,0.9706268,-33.60674,3.136826,-34.55766,3.307999,0.5570681,0.5547907,0.9092337,0.4351196,-0.05778503,0.8984985,37.01955,4.982285,-31.92081,4.177399,0.2919172,0.4441456,0.09818101,1.248565,-0.1855237,-0.02335885,0.7760013,0.05402974,0.2485483,7.989471,34.525798319327734
1,0.3478241,-0.07704163,0.9343719,0.9542385,0.2156677,-0.1035004,0.9709625,-33.60791,3.132507,-34.55872,3.305969,0.5572467,0.5548365,0.9164844,0.4352112,-0.05787659,0.8984528,37.02385,4.976868,-31.91341,4.164688,0.2917709,0.4442793,0.09846282,1.248444,-0.1853179,-0.02316909,0.7751019,0.05386434,0.2485483,-0.4729919,34.525798319327734
1,0.3478241,-0.07704163,0.9343719,0.9542385,0.2156677,-0.1035004,0.9709625,-33.60791,3.132507,-34.55872,3.305969,0.5572467,0.5548365,0.9164844,0.4352112,-0.05787659,0.8984528,37.02385,4.976868,-31.91341,4.164688,0.2917709,0.4442793,0.09846282,1.248444,-0.1853179,-0.02316909,0.7751019,0.05386434,0.2485483,-0.4729919,34.525798319327734
1,0.3478241,-0.07704163,0.9343719,0.9542385,0.2156677,-0.1035004,0.9709625,-33.60791,3.132507,-34.55872,3.305969,0.5572467,0.5548365,0.9164844,0.4352112,-0.05787659,0.8984528,37.02385,4.976868,-31.91341,4.164688,0.2917709,0.4442793,0.09846282,1.248444,-0.1853179,-0.02316909,0.7751019,0.05386434,0.2485483,-0.4729919,34.525798319327734
1,0.3466644,-0.07699585,0.9348145,0.9619898,0.2130127,-0.1035004,0.9715424,-33.60953,3.132507,-34.562,3.305145,0.5576426,0.5548385,0.9133586,0.4330902,-0.05821228,0.8994598,37.02385,4.976868,-31.9106,4.164352,0.2920636,0.4442793,0.0986402,1.248331,-0.1850561,-0.02275785,0.7738745,0.05367111,0.2485483,-0.4729919,34.525798319327734
1,0.3466644,-0.07699585,0.9348145,0.9619898,0.2130127,-0.1035004,0.9715424,-33.60953,3.132507,-34.562,3.305145,0.5576426,0.5548385,0.9133586,0.4330902,-0.05821228,0.8994598,37.02385,4.976868,-31.9106,4.164352,0.2920636,0.4442793,0.0986402,1.248331,-0.1850561,-0.02275785,0.7738745,0.05367111,0.2485483,-0.4729919,34.525798319327734
1,0.3466644,-0.07699585,0.9348145,0.9619898,0.2130127,-0.1035004,0.9715424,-33.60953,3.132507,-34.562,3.305145,0.5576426,0.5548385,0.9133586,0.4330902,-0.05821228,0.8994598,37.02385,4.976868,-31.9106,4.164352,0.2920636,0.4442793,0.0986402,1.248331,-0.1850561,-0.02275785,0.7738745,0.05367111,0.2485483,-0.4729919,34.525798319327734
1,0.3466644,-0.07699585,0.9348145,0.9619898,0.2130127,-0.1035004,0.9715424,-33.60953,3.132507,-34.562,3.305145,0.5576426,0.5548385,0.9133586,0.4330902,-0.05821228,0.8994598,37.02385,4.976868,-31.9106,4.164352,0.2920636,0.4442793,0.09897137,1.248284,-0.1848454,-0.02299511,0.772633,0.05316895,0.2485483,-0.4729919,34.525798319327734
1,0.3466644,-0.07699585,0.9348145,0.9619898,0.2130127,-0.1035004,0.9715424,-33.60953,3.132507,-34.562,3.305145,0.5576426,0.5548385,0.9133586,0.4330902,-0.05821228,0.8994598,37.02385,4.976868,-31.9106,4.164352,0.2920636,0.4442793,0.09897137,1.248284,-0.1848454,-0.02299511,0.772633,0.05316895,0.2485483,-0.4729919,34.525798319327734
1,0.3466644,-0.07699585,0.9348145,0.9619898,0.2130127,-0.1035004,0.9715424,-33.60953,3.132507,-34.562,3.305145,0.5576426,0.5548385,0.9133586,0.4330902,-0.05821228,0.8994598,37.02385,4.976868,-31.9106,4.164352,0.2920636,0.4442793,0.09897137,1.248284,-0.1848454,-0.02299511,0.772633,0.05316895,0.2485483,-0.4729919,34.525798319327734
1,0.3283539,-0.09056091,0.9401855,0.9606732,0.2128448,-0.1048889,0.9714355,-33.61015,3.132233,-34.56497,3.306168,0.5576897,0.5550659,0.9119266,0.4052429,-0.07991028,0.9107056,37.0784,5.000778,-31.88562,4.201553,0.2938462,0.4457124,0.09930325,1.248176,-0.1846638,-0.02306725,0.7712393,0.05264975,0.2485483,-0.4729919,34.525798319327734
1,0.3283539,-0.09056091,0.9401855,0.9606732,0.2128448,-0.1048889,0.9714355,-33.61015,3.132233,-34.56497,3.306168,0.5576897,0.5550659,0.9119266,0.4052429,-0.07991028,0.9107056,37.0784,5.000778,-31.88562,4.201553,0.2938462,0.4457124,0.09930325,1.248176,-0.1846638,-0.02306725,0.7712393,0.05264975,0.2485483,-0.4729919,34.525798319327734
1,0.3283539,-0.09056091,0.9401855,0.9606732,0.2128448,-0.1048889,0.9714355,-33.61015,3.132233,-34.56497,3.306168,0.5576897,0.5550659,0.9119266,0.4052429,-0.07991028,0.9107056,37.0784,5.000778,-31.88562,4.201553,0.2938462,0.4457124,0.09930325,1.248176,-0.1846638,-0.02306725,0.7712393,0.05264975,0.2485483,-0.4729919,34.525798319327734
1,0.3244781,-0.08979797,0.9416046,0.9655904,0.2131195,-0.1041412,0.9714508,-33.61092,3.131119,-34.56708,3.309525,0.5576897,0.5550348,0.9111027,0.4001465,-0.07899475,0.9130249,37.07266,4.996979,-31.88535,4.201416,0.2947398,0.4457124,0.09953451,1.248024,-0.1843643,-0.02296561,0.7696204,0.05220379,0.2485483,-11.62524,34.525798319327734
1,0.3244781,-0.08979797,0.9416046,0.9655904,0.2131195,-0.1041412,0.9714508,-33.61092,3.131119,-34.56708,3.309525,0.5576897,0.5550348,0.9111027,0.4001465,-0.07899475,0.9130249,37.07266,4.996979,-31.88535,4.201416,0.2947398,0.4457124,0.09953451,1.248024,-0.1843643,-0.02296561,0.7696204,0.05220379,0.2485483,-11.62524,34.525798319327734
1,0.3244781,-0.08979797,0.9416046,0.9655904,0.2131195,-0.1041412,0.9714508,-33.61092,3.131119,-34.56708,3.309525,0.5576897,0.5550348,0.9111027,0.4001465,-0.07899475,0.9130249,37.07266,4.996979,-31.88535,4.201416,0.2947398,0.4457124,0.09953451,1.248024,-0.1843643,-0.02296561,0.7696204,0.05220379,0.2485483,-11.62524,34.525798319327734
1,0.3244781,-0.08979797,0.9416046,0.9655904,0.2131195,-0.1041412,0.9714508,-33.61092,3.131119,-34.56708,3.309525,0.5576897,0.5550348,0.9111027,0.4001465,-0.07899475,0.9130249,37.07266,4.996979,-31.88535,4.201416,0.2947398,0.4457124,0.09978342,1.247918,-0.183945,-0.02297761,0.7678515,0.05191283,0.2485483,-11.62524,35.31
1,0.3244781,-0.08979797,0.9416046,0.9655904,0.2131195,-0.1041412,0.9714508,-33.61092,3.131119,-34.56708,3.309525,0.5576897,0.5550348,0.9111027,0.4001465,-0.07899475,0.9130249,37.07266,4.996979,-31.88535,4.201416,0.2947398,0.4457124,0.09978342,1.247918,-0.183945,-0.02297761,0.7678515,0.05191283,0.2485483,-11.62524,35.31
1,0.3244781,-0.08979797,0.9416046,0.9655904,0.2131195,-0.1041412,0.9714508,-33.61092,3.131119,-34.56708,3.309525,0.5576897,0.5550348,0.9111027,0.4001465,-0.07899475,0.9130249,37.07266,4.996979,-31.88535,4.201416,0.2947398,0.4457124,0.09978342,1.247918,-0.183945,-0.02297761,0.7678515,0.05191283,0.2485483,-11.62524,35.31
1,0.3228302,-0.06712341,0.9440613,0.9520761,0.2113495,-0.1011047,0.9721527,-33.62189,3.1297,-34.57315,3.352859,0.5583952,0.5547617,0.9215626,0.3975983,-0.04293823,0.9165344,37.07027,4.961868,-31.90608,4.184418,0.295149,0.442616,0.1001925,1.247775,-0.1830899,-0.0233108,0.7640486,0.05233237,0.2485483,-11.62524,35.31
1,0.3228302,-0.06712341,0.9440613,0.9520761,0.2113495,-0.1011047,0.9721527,-33.62189,3.1297,-34.57315,3.352859,0.5583952,0.5547617,0.9215626,0.3975983,-0.04293823,0.9165344,37.07027,4.961868,-31.90608,4.184418,0.295149,0.442616,0.1001925,1.247775,-0.1830899,-0.0233108,0.7640486,0.05233237,0.2485483,-11.62524,35.31
1,0.3228302,-0.06712341,0.9440613,0.9520761,0.2113495,-0.1011047,0.9721527,-33.62189,3.1297,-34.57315,3.352859,0.5583952,0.5547617,0.9215626,0.3975983,-0.04293823,0.9165344,37.07027,4.961868,-31.90608,4.184418,0.295149,0.442616,0.1001925,1.247775,-0.1830899,-0.0233108,0.7640486,0.05233237,0.2485483,-11.62524,35.31
1,0.3227539,-0.06945801,0.943924,0.9608867,0.2098999,-0.1009674,0.9724884,-33.62366,3.1297,-34.575,3.362717,0.5586627,0.5547617,0.9106408,0.3977203,-0.04716492,0.9162903,37.07246,4.96199,-31.90573,4.16478,0.2950676,0.4431186,0.1003656,1.247774,-0.1825604,-0.02362305,0.7619147,0.05231763,0.2485483,-11.62524,35.31
1,0.3227539,-0.06945801,0.943924,0.9608867,0.2098999,-0.1009674,0.9724884,-33.62366,3.1297,-34.575,3.362717,0.5586627,0.5547617,0.9106408,0.3977203,-0.04716492,0.9162903,37.07246,4.96199,-31.90573,4.16478,0.2950676,0.4431186,0.1003656,1.247774,-0.1825604,-0.02362305,0.7619147,0.05231763,0.2485483,-11.62524,35.31
1,0.3227539,-0.06945801,0.943924,0.9608867,0.2098999,-0.1009674,0.9724884,-33.62366,3.1297,-34.575,3.362717,0.5586627,0.5547617,0.9106408,0.3977203,-0.04716492,0.9162903,37.07246,4.96199,-31.90573,4.16478,0.2950676,0.4431186,0.1003656,1.247774,-0.1825604,-0.02362305,0.7619147,0.05231763,0.2485483,-11.62524,35.31
1,0.3227539,-0.06945801,0.943924,0.9608867,0.2098999,-0.1009674,0.9724884,-33.62366,3.1297,-34.575,3.362717,0.5586627,0.5547617,0.9106408,0.3977203,-0.04716492,0.9162903,37.07246,4.96199,-31.90573,4.16478,0.2950676,0.4431186,0.1008201,1.247648,-0.181281,-0.02378304,0.7568039,0.05197458,0.2485483,-11.62524,35.31
1,0.3227539,-0.06945801,0.943924,0.9608867,0.2098999,-0.1009674,0.9724884,-33.62366,3.1297,-34.575,3.362717,0.5586627,0.5547617,0.9106408,0.3977203,-0.04716492,0.9162903,37.07246,4.96199,-31.90573,4.16478,0.2950676,0.4431186,0.1008201,1.247648,-0.181281,-0.02378304,0.7568039,0.05197458,0.2485483,-11.62524,35.31
1,0.3227539,-0.06945801,0.943924,0.9608867,0.2098999,-0.1009674,0.9724884,-33.62366,3.1297,-34.575,3.362717,0.5586627,0.5547617,0.9106408,0.3977203,-0.04716492,0.9162903,37.07246,4.96199,-31.90573,4.16478,0.2950676,0.4431186,0.1008201,1.247648,-0.181281,-0.02378304,0.7568039,0.05197458,0.2485483,-11.62524,35.31
1,0.3206635,-0.06919861,0.9446564,0.9531391,0.2038574,-0.1007233,0.9738007,-33.62831,3.1297,-34.57738,3.375641,0.5596205,0.5547141,0.9060372,0.3972626,-0.0471344,0.9164886,37.07417,4.96199,-31.90659,4.160828,0.2950676,0.4431186,0.101079,1.247648,-0.1806825,-0.02392391,0.7541009,0.05191477,0.2485483,-11.62524,35.31
1,0.3206635,-0.06919861,0.9446564,0.9531391,0.2038574,-0.1007233,0.9738007,-33.62831,3.1297,-34.57738,3.375641,0.5596205,0.5547141,0.9060372,0.3972626,-0.0471344,0.9164886,37.07417,4.96199,-31.90659,4.160828,0.2950676,0.4431186,0.101079,1.247648,-0.1806825,-0.02392391,0.7541009,0.05191477,0.2485483,-11.62524,35.31
1,0.3206635,-0.06919861,0.9446564,0.9531391,0.2038574,-0.1007233,0.9738007,-33.62831,3.1297,-34.57738,3.375641,0.5596205,0.5547141,0.9060372,0.3972626,-0.0471344,0.9164886,37.07417,4.96199,-31.90659,4.160828,0.2950676,0.4431186,0.101079,1.247648,-0.1806825,-0.02392391,0.7541009,0.05191477,0.2485483,-11.62524,35.31
1,0.3206635,-0.06919861,0.9446564,0.9531391,0.2038574,-0.1007233,0.9738007,-33.62831,3.1297,-34.57738,3.375641,0.5596205,0.5547141,0.9060372,0.3972626,-0.0471344,0.9164886,37.07417,4.96199,-31.90659,4.160828,0.2950676,0.4431186,0.1013887,1.247556,-0.1796332,-0.02413769,0.7499732,0.05138747,0.2485483,21.06693,35.31
1,0.3206635,-0.06919861,0.9446564,0.9531391,0.2038574,-0.1007233,0.9738007,-33.62831,3.1297,-34.57738,3.375641,0.5596205,0.5547141,0.9060372,0.3972626,-0.0471344,0.9164886,37.07417,4.96199,-31.90659,4.160828,0.2950676,0.4431186,0.1013887,1.247556,-0.1796332,-0.02413769,0.7499732,0.05138747,0.2485483,21.06693,35.31
1,0.3206635,-0.06919861,0.9446564,0.9531391,0.2038574,-0.1007233,0.9738007,-33.62831,3.1297,-34.57738,3.375641,0.5596205,0.5547141,0.9060372,0.3972626,-0.0471344,0.9164886,37.07417,4.96199,-31.90659,4.160828,0.2950676,0.4431186,0.1013887,1.247556,-0.1796332,-0.02413769,0.7499732,0.05138747,0.2485483,21.06693,35.31
1,0.2797546,-0.06277466,0.9580078,0.9697699,0.1613007,-0.0854187,0.9831848,-33.75545,3.089783,-34.60507,3.432297,0.5697047,0.5542595,0.916823,0.3656311,-0.04519653,0.929657,36.95547,4.959946,-31.85388,4.125626,0.3036878,0.442454,0.1015925,1.247542,-0.1784914,-0.02437695,0.745715,0.050923,0.2485483,21.06693,35.31
1,0.2797546,-0.06277466,0.9580078,0.9697699,0.1613007,-0.0854187,0.9831848,-33.75545,3.089783,-34.60507,3.432297,0.5697047,0.5542595,0.916823,0.3656311,-0.04519653,0.929657,36.95547,4.959946,-31.85388,4.125626,0.3036878,0.442454,0.1015925,1.247542,-0.1784914,-0.02437695,0.745715,0.050923,0.2485483,21.06693,35.31
1,0.2797546,-0.06277466,0.9580078,0.9697699,0.1613007,-0.0854187,0.9831848,-33.75545,3.089783,-34.60507,3.432297,0.5697047,0.5542595,0.916823,0.3656311,-0.04519653,0.929657,36.95547,4.959946,-31.85388,4.125626,0.3036878,0.442454,0.1015925,1.247542,-0.1784914,-0.02437695,0.745715,0.050923,0.2485483,21.06693,35.31
1,0.2763367,-0.07337952,0.958252,0.9713302,0.1447144,-0.08204651,0.9860535,-33.84818,3.12149,-34.70851,3.447693,0.5752634,0.5536423,0.938229,0.3316345,-0.06921387,0.9408569,36.86746,4.988846,-31.7921,4.254745,0.3113126,0.4438816,0.1021464,1.247397,-0.1762953,-0.02502412,0.7370746,0.05069021,0.2485483,21.06693,35.31
1,0.2763367,-0.07337952,0.958252,0.9713302,0.1447144,-0.08204651,0.9860535,-33.84818,3.12149,-34.70851,3.447693,0.5752634,0.5536423,0.938229,0.3316345,-0.06921387,0.9408569,36.86746,4.988846,-31.7921,4.254745,0.3113126,0.4438816,0.1021464,1.247397,-0.1762953,-0.02502412,0.7370746,0.05069021,0.2485483,21.06693,35.31
1,0.2763367,-0.07337952,0.958252,0.9713302,0.1447144,-0.08204651,0.9860535,-33.84818,3.12149,-34.70851,3.447693,0.5752634,0.5536423,0.938229,0.3316345,-0.06921387,0.9408569,36.86746,4.988846,-31.7921,4.254745,0.3113126,0.4438816,0.1021464,1.247397,-0.1762953,-0.02502412,0.7370746,0.05069021,0.2485483,21.06693,35.31
1,0.3298187,-0.06365967,0.9418945,0.9629084,0.1276855,-0.08433533,0.9882202,-33.89554,3.222763,-35.06572,3.403107,0.5794032,0.5536556,0.94934,0.3576202,-0.06047058,0.9319,36.75908,4.991989,-31.78757,4.446762,0.3117086,0.4429325,0.1024923,1.247406,-0.1751884,-0.02542244,0.7326595,0.05050931,0.2485483,21.06693,35.31
1,0.3298187,-0.06365967,0.9418945,0.9629084,0.1276855,-0.08433533,0.9882202,-33.89554,3.222763,-35.06572,3.403107,0.5794032,0.5536556,0.94934,0.3576202,-0.06047058,0.9319,36.75908,4.991989,-31.78757,4.446762,0.3117086,0.4429325,0.1024923,1.247406,-0.1751884,-0.02542244,0.7326595,0.05050931,0.2485483,21.06693,35.31
1,0.3298187,-0.06365967,0.9418945,0.9629084,0.1276855,-0.08433533,0.9882202,-33.89554,3.222763,-35.06572,3.403107,0.5794032,0.5536556,0.94934,0.3576202,-0.06047058,0.9319,36.75908,4.991989,-31.78757,4.446762,0.3117086,0.4429325,0.1024923,1.247406,-0.1751884,-0.02542244,0.7326595,0.05050931,0.2485483,21.06693,35.31
1,0.3123932,-0.0397644,0.9491119,0.9609611,0.1102905,-0.0789032,0.9907532,-33.98941,3.263046,-35.22284,3.453125,0.5852468,0.5530203,0.9497042,0.3130798,-0.03961182,0.9488831,36.67459,4.964493,-31.76498,4.165894,0.3207469,0.4409289,0.1027169,1.247319,-0.1739967,-0.02551678,0.7285848,0.05073061,0.2485483,6.651459,35.31
1,0.3123932,-0.0397644,0.9491119,0.9609611,0.1102905,-0.0789032,0.9907532,-33.98941,3.263046,-35.22284,3.453125,0.5852468,0.5530203,0.9497042,0.3130798,-0.03961182,0.9488831,36.67459,4.964493,-31.76498,4.165894,0.3207469,0.4409289,0.1027169,1.247319,-0.1739967,-0.02551678,0.7285848,0.05073061,0.2485483,6.651459,35.31
1,0.3123932,-0.0397644,0.9491119,0.9609611,0.1102905,-0.0789032,0.9907532,-33.98941,3.263046,-35.22284,3.453125,0.5852468,0.5530203,0.9497042,0.3130798,-0.03961182,0.9488831,36.67459,4.964493,-31.76498,4.165894,0.3207469,0.4409289,0.1027169,1.247319,-0.1739967,-0.02551678,0.7285848,0.05073061,0.2485483,6.651459,35.31
1,0.2882843,-0.0350647,0.9568939,0.9487084,0.1078339,-0.06570435,0.9919891,-34.08058,3.214539,-35.09723,3.434723,0.5886992,0.5518398,0.9583676,0.3089752,-0.03137207,0.9505463,36.54672,4.964188,-31.7442,4.230347,0.3258319,0.4398786,0.1028602,1.247266,-0.1730022,-0.02534775,0.7245244,0.05110068,0.2575165,6.651459,35.31
1,0.2882843,-0.0350647,0.9568939,0.9487084,0.1078339,-0.06570435,0.9919891,-34.08058,3.214539,-35.09723,3.434723,0.5886992,0.5518398,0.9583676,0.3089752,-0.03137207,0.9505463,36.54672,4.964188,-31.7442,4.230347,0.3258319,0.4398786,0.1028602,1.247266,-0.1730022,-0.02534775,0.7245244,0.05110068,0.2575165,6.651459,35.31
1,0.2882843,-0.0350647,0.9568939,0.9487084,0.1078339,-0.06570435,0.9919891,-34.08058,3.214539,-35.09723,3.434723,0.5886992,0.5518398,0.9583676,0.3089752,-0.03137207,0.9505463,36.54672,4.964188,-31.7442,4.230347,0.3258319,0.4398786,0.1028602,1.247266,-0.1730022,-0.02534775,0.7245244,0.05110068,0.2575165,6.651459,35.31
1,0.2923279,-0.003936768,0.9562988,0.9530249,0.08287048,-0.07781982,0.993515,-34.19336,3.125732,-34.79657,3.468979,0.5956734,0.5536469,0.9572066,0.2926483,-0.003814697,0.9562073,36.41782,4.963623,-31.77972,4.229126,0.3324535,0.436893,0.1030064,1.247286,-0.1721342,-0.0254826,0.7209413,0.05139175,0.2575165,6.651459,35.31
1,0.2923279,-0.003936768,0.9562988,0.9530249,0.08287048,-0.07781982,0.993515,-34.19336,3.125732,-34.79657,3.468979,0.5956734,0.5536469,0.9572066,0.2926483,-0.003814697,0.9562073,36.41782,4.963623,-31.77972,4.229126,0.3324535,0.436893,0.1030064,1.247286,-0.1721342,-0.0254826,0.7209413,0.05139175,0.2575165,6.651459,35.31
1,0.2923279,-0.003936768,0.9562988,0.9530249,0.08287048,-0.07781982,0.993515,-34.19336,3.125732,-34.79657,3.468979,0.5956734,0.5536469,0.9572066,0.2926483,-0.003814697,0.9562073,36.41782,4.963623,-31.77972,4.229126,0.3324535,0.436893,0.1030064,1.247286,-0.1721342,-0.0254826,0.7209413,0.05139175,0.2575165,6.651459,35.31
1,0.261261,0.004669189,0.9652405,0.9533429,0.08093262,-0.08952332,0.9926758,-34.26865,3.053162,-34.56281,3.431061,0.5983233,0.555469,0.9523565,0.2620239,0.005081177,0.9650421,36.4223,4.949509,-31.70233,4.388123,0.3361618,0.435681,0.103008,1.247166,-0.1714843,-0.02563331,0.7184126,0.05118852,0.2575165,6.651459,35.31
1,0.261261,0.004669189,0.9652405,0.9533429,0.08093262,-0.08952332,0.9926758,-34.26865,3.053162,-34.56281,3.431061,0.5983233,0.555469,0.9523565,0.2620239,0.005081177,0.9650421,36.4223,4.949509,-31.70233,4.388123,0.3361618,0.435681,0.103008,1.247166,-0.1714843,-0.02563331,0.7184126,0.05118852,0.2575165,6.651459,35.31
1,0.261261,0.004669189,0.9652405,0.9533429,0.08093262,-0.08952332,0.9926758,-34.26865,3.053162,-34.56281,3.431061,0.5983233,0.555469,0.9523565,0.2620239,0.005081177,0.9650421,36.4223,4.949509,-31.70233,4.388123,0.3361618,0.435681,0.103008,1.247166,-0.1714843,-0.02563331,0.7184126,0.05118852,0.2575165,6.651459,35.31
1,0.205719,-0.06756592,0.9762726,0.9691685,0.05805969,-0.09036255,0.9942017,-34.36592,3.014725,-34.44328,3.564529,0.6047903,0.5558541,0.959356,0.2484741,-0.06053162,0.9667358,36.34729,4.871124,-31.48999,4.265015,0.340926,0.444589,0.1032224,1.247024,-0.1711671,-0.02565249,0.7167766,0.05103051,0.2575165,6.651459,35.31
1,0.205719,-0.06756592,0.9762726,0.9691685,0.05805969,-0.09036255,0.9942017,-34.36592,3.014725,-34.44328,3.564529,0.6047903,0.5558541,0.959356,0.2484741,-0.06053162,0.9667358,36.34729,4.871124,-31.48999,4.265015,0.340926,0.444589,0.1032224,1.247024,-0.1711671,-0.02565249,0.7167766,0.05103051,0.2575165,6.651459,35.31
1,0.205719,-0.06756592,0.9762726,0.9691685,0.05805969,-0.09036255,0.9942017,-34.36592,3.014725,-34.44328,3.564529,0.6047903,0.5558541,0.959356,0.2484741,-0.06053162,0.9667358,36.34729,4.871124,-31.48999,4.265015,0.340926,0.444589,0.1032224,1.247024,-0.1711671,-0.02565249,0.7167766,0.05103051,0.2575165,6.651459,35.31
1,0.1217194,-0.05657959,0.9909363,0.9645985,0.0612793,-0.08325195,0.9946289,-34.39479,3.019272,-34.45413,3.589157,0.6054751,0.5549207,0.9653286,0.1981049,-0.02215576,0.9799194,36.32433,4.902847,-31.5603,4.225998,0.3479607,0.4393474,0.1033924,1.246956,-0.1709679,-0.02586422,0.7155421,0.05116698,0.2575165,-23.84857,35.31
1,0.1217194,-0.05657959,0.9909363,0.9645985,0.0612793,-0.08325195,0.9946289,-34.39479,3.019272,-34.45413,3.589157,0.6054751,0.5549207,0.9653286,0.1981049,-0.02215576,0.9799194,36.32433,4.902847,-31.5603,4.225998,0.3479607,0.4393474,0.1033924,1.246956,-0.1709679,-0.02586422,0.7155421,0.05116698,0.2575165,-23.84857,35.31
1,0.1217194,-0.05657959,0.9909363,0.9645985,0.0612793,-0.08325195,0.9946289,-34.39479,3.019272,-34.45413,3.589157,0.6054751,0.5549207,0.9653286,0.1981049,-0.02215576,0.9799194,36.32433,4.902847,-31.5603,4.225998,0.3479607,0.4393474,0.1033924,1.246956,-0.1709679,-0.02586422,0.7155421,0.05116698,0.2575165,-23.84857,35.31
1,0.0501709,-0.08259583,0.9953156,0.9495691,0.05014038,-0.08259583,0.9953156,-34.41626,3.013229,-34.41675,3.60321,0.6076294,0.5546886,0.9580517,0.2225037,-0.03239441,0.9743805,36.30954,4.656296,-30.5999,4.201645,0.3468816,0.4412063,0.1035073,1.246808,-0.1708563,-0.02602232,0.7146159,0.05096732,0.2575165,-23.84857,35.31
1,0.0501709,-0.08259583,0.9953156,0.9495691,0.05014038,-0.08259583,0.9953156,-34.41626,3.013229,-34.41675,3.60321,0.6076294,0.5546886,0.9580517,0.2225037,-0.03239441,0.9743805,36.30954,4.656296,-30.5999,4.201645,0.3468816,0.4412063,0.1035073,1.246808,-0.1708563,-0.02602232,0.7146159,0.05096732,0.2575165,-23.84857,35.31
1,0.0501709,-0.08259583,0.9953156,0.9495691,0.05014038,-0.08259583,0.9953156,-34.41626,3.013229,-34.41675,3.60321,0.6076294,0.5546886,0.9580517,0.2225037,-0.03239441,0.9743805,36.30954,4.656296,-30.5999,4.201645,0.3468816,0.4412063,0.1035073,1.246808,-0.1708563,-0.02602232,0.7146159,0.05096732,0.2575165,-23.84857,35.31
1,0.04382324,-0.08374023,0.9955139,0.9517625,0.04382324,-0.08374023,0.9955139,-34.43959,3.020203,-34.45413,3.586945,0.6092941,0.5549207,0.9622365,0.1965332,-0.04161072,0.979599,36.24536,4.692825,-30.58528,4.298203,0.3522418,0.4410053,0.1037798,1.246717,-0.1707239,-0.02581405,0.7140475,0.05060149,0.2575165,-23.84857,35.31
1,0.04382324,-0.08374023,0.9955139,0.9517625,0.04382324,-0.08374023,0.9955139,-34.43959,3.020203,-34.45413,3.586945,0.6092941,0.5549207,0.9622365,0.1965332,-0.04161072,0.979599,36.24536,4.692825,-30.58528,4.298203,0.3522418,0.4410053,0.1037798,1.246717,-0.1707239,-0.02581405,0.7140475,0.05060149,0.2575165,-23.84857,35.31
1,0.04382324,-0.08374023,0.9955139,0.9517625,0.04382324,-0.08374023,0.9955139,-34.43959,3.020203,-34.45413,3.586945,0.6092941,0.5549207,0.9622365,0.1965332,-0.04161072,0.979599,36.24536,4.692825,-30.58528,4.298203,0.3522418,0.4410053,0.1037798,1.246717,-0.1707239,-0.02581405,0.7140475,0.05060149,0.2575165,-23.84857,35.31
1,0.04411316,-0.08493042,0.9954071,0.962449,0.04411316,-0.08493042,0.9954071,-34.4444,3.024597,-34.45468,3.591217,0.6094383,0.5549316,0.9751275,0.1774139,-0.04814148,0.9829407,36.23666,4.638885,-30.34666,4.286148,0.355205,0.4416693,0.104089,1.246679,-0.1708296,-0.02636563,0.7139354,0.04938397,0.2575165,-23.84857,35.31
1,0.04411316,-0.08493042,0.9954071,0.962449,0.04411316,-0.08493042,0.9954071,-34.4444,3.024597,-34.45468,3.591217,0.6094383,0.5549316,0.9751275,0.1774139,-0.04814148,0.9829407,36.23666,4.638885,-30.34666,4.286148,0.355205,0.4416693,0.104089,1.246679,-0.1708296,-0.02636563,0.7139354,0.04938397,0.2575165,-23.84857,35.31
1,0.04411316,-0.08493042,0.9954071,0.962449,0.04411316,-0.08493042,0.9954071,-34.4444,3.024597,-34.45468,3.591217,0.6094383,0.5549316,0.9751275,0.1774139,-0.04814148,0.9829407,36.23666,4.638885,-30.34666,4.286148,0.355205,0.4416693,0.104089,1.246679,-0.1708296,-0.02636563,0.7139354,0.04938397,0.2575165,-23.84857,35.31
1,0.04411316,-0.08493042,0.9954071,0.962449,0.04411316,-0.08493042,0.9954071,-34.4444,3.024597,-34.45468,3.591217,0.6094383,0.5549316,0.9751275,0.1774139,-0.04814148,0.9829407,36.23666,4.638885,-30.34666,4.286148,0.355205,0.4416693,0.1043139,1.246491,-0.1709573,-0.02599438,0.7138741,0.04827043,0.2575165,-23.84857,35.31
1,0.04411316,-0.08493042,0.9954071,0.962449,0.04411316,-0.08493042,0.9954071,-34.4444,3.024597,-34.45468,3.591217,0.6094383,0.5549316,0.9751275,0.1774139,-0.04814148,0.9829407,36.23666,4.638885,-30.34666,4.286148,0.355205,0.4416693,0.1043139,1.246491,-0.1709573,-0.02599438,0.7138741,0.04827043,0.2575165,-23.84857,35.31
1,0.04411316,-0.08493042,0.9954071,0.962449,0.04411316,-0.08493042,0.9954071,-34.4444,3.024597,-34.45468,3.591217,0.6094383,0.5549316,0.9751275,0.1774139,-0.04814148,0.9829407,36.23666,4.638885,-30.34666,4.286148,0.355205,0.4416693,0.1043139,1.246491,-0.1709573,-0.02599438,0.7138741,0.04827043,0.2575165,-23.84857,35.31
1,0.0397644,-0.08535767,0.9955444,0.9595771,0.03974915,-0.08535767,0.9955444,-34.45317,3.031265,-34.47394,3.584839,0.6103202,0.5549207,0.9622509,0.1909332,-0.04356384,0.9806213,36.22299,4.670975,-30.48087,4.22084,0.3539293,0.4411079,0.1044867,1.246112,-0.1711038,-0.02503766,0.7137612,0.04688334,0.2575165,27.53793,35.31
1,0.0397644,-0.08535767,0.9955444,0.9595771,0.03974915,-0.08535767,0.9955444,-34.45317,3.031265,-34.47394,3.584839,0.6103202,0.5549207,0.9622509,0.1909332,-0.04356384,0.9806213,36.22299,4.670975,-30.48087,4.22084,0.3539293,0.4411079,0.1044867,1.246112,-0.1711038,-0.02503766,0.7137612,0.04688334,0.2575165,27.53793,35.31
1,0.0397644,-0.08535767,0.9955444,0.9595771,0.03974915,-0.08535767,0.9955444,-34.45317,3.031265,-34.47394,3.584839,0.6103202,0.5549207,0.9622509,0.1909332,-0.04356384,0.9806213,36.22299,4.670975,-30.48087,4.22084,0.3539293,0.4411079,0.1044867,1.246112,-0.1711038,-0.02503766,0.7137612,0.04688334,0.2575165,27.53793,35.31
1,0.0397644,-0.08535767,0.9955444,0.9595771,0.03974915,-0.08535767,0.9955444,-34.45317,3.031265,-34.47394,3.584839,0.6103202,0.5549207,0.9622509,0.1909332,-0.04356384,0.9806213,36.22299,4.670975,-30.48087,4.22084,0.3539293,0.4411079,0.1047437,1.245638,-0.1712678,-0.02369155,0.7138183,0.04542107,0.2575165,27.53793,35.31
1,0.0397644,-0.08535767,0.9955444,0.9595771,0.03974915,-0.08535767,0.9955444,-34.45317,3.031265,-34.47394,3.584839,0.6103202,0.5549207,0.9622509,0.1909332,-0.04356384,0.9806213,36.22299,4.670975,-30.48087,4.22084,0.3539293,0.4411079,0.1047437,1.245638,-0.1712678,-0.02369155,0.7138183,0.04542107,0.2575165,27.53793,35.31
1,0.0397644,-0.08535767,0.9955444,0.9595771,0.03974915,-0.08535767,0.9955444,-34.45317,3.031265,-34.47394,3.584839,0.6103202,0.5549207,0.9622509,0.1909332,-0.04356384,0.9806213,36.22299,4.670975,-30.48087,4.22084,0.3539293,0.4411079,0.1047437,1.245638,-0.1712678,-0.02369155,0.7138183,0.04542107,0.2575165,27.53793,35.31
1,0.0381012,-0.08430481,0.995697,0.9595771,0.03720093,-0.08456421,0.9957123,-34.45621,3.032013,-34.48727,3.584152,0.6107676,0.5549207,0.9622509,0.1889496,-0.04045105,0.9811401,36.21948,4.677109,-30.50807,4.246017,0.3542368,0.4407552,0.1051221,1.245278,-0.1711989,-0.02229379,0.7133822,0.04446175,0.2575165,27.53793,35.31
1,0.0381012,-0.08430481,0.995697,0.9595771,0.03720093,-0.08456421,0.9957123,-34.45621,3.032013,-34.48727,3.584152,0.6107676,0.5549207,0.9622509,0.1889496,-0.04045105,0.9811401,36.21948,4.677109,-30.50807,4.246017,0.3542368,0.4407552,0.1051221,1.245278,-0.1711989,-0.02229379,0.7133822,0.04446175,0.2575165,27.53793,35.31
1,0.0381012,-0.08430481,0.995697,0.9595771,0.03720093,-0.08456421,0.9957123,-34.45621,3.032013,-34.48727,3.584152,0.6107676,0.5549207,0.9622509,0.1889496,-0.04045105,0.9811401,36.21948,4.677109,-30.50807,4.246017,0.3542368,0.4407552,0.1051221,1.245278,-0.1711989,-0.02229379,0.7133822,0.04446175,0.2575165,27.53793,35.31
1,0.0381012,-0.08430481,0.995697,0.9595771,0.03720093,-0.08456421,0.9957123,-34.45621,3.032013,-34.48727,3.584152,0.6107676,0.5549207,0.9622509,0.1889496,-0.04045105,0.9811401,36.21948,4.677109,-30.50807,4.246017,0.3542368,0.4407552,0.105366,1.244957,-0.1712148,-0.02104023,0.7126673,0.04314344,0.2575165,27.53793,35.31
1,0.0381012,-0.08430481,0.995697,0.9595771,0.03720093,-0.08456421,0.9957123,-34.45621,3.032013,-34.48727,3.584152,0.6107676,0.5549207,0.9622509,0.1889496,-0.04045105,0.9811401,36.21948,4.677109,-30.50807,4.246017,0.3542368,0.4407552,0.105366,1.244957,-0.1712148,-0.02104023,0.7126673,0.04314344,0.2575165,27.53793,35.31
1,0.0381012,-0.08430481,0.995697,0.9595771,0.03720093,-0.08456421,0.9957123,-34.45621,3.032013,-34.48727,3.584152,0.6107676,0.5549207,0.9622509,0.1889496,-0.04045105,0.9811401,36.21948,4.677109,-30.50807,4.246017,0.3542368,0.4407552,0.105366,1.244957,-0.1712148,-0.02104023,0.7126673,0.04314344,0.2575165,27.53793,35.31
1,-0.02372742,-0.09887695,0.994812,0.9418129,-0.02372742,-0.09887695,0.994812,-34.70142,2.846741,-34.23174,3.466049,0.6268941,0.5608174,0.9739074,0.1178741,-0.07543945,0.9901428,35.98991,4.879883,-31.812,4.166046,0.3692417,0.4489321,0.1059227,1.244802,-0.1710094,-0.0198414,0.7116917,0.04140911,0.2575165,27.53793,35.31
1,-0.02372742,-0.09887695,0.994812,0.9418129,-0.02372742,-0.09887695,0.994812,-34.70142,2.846741,-34.23174,3.466049,0.6268941,0.5608174,0.9739074,0.1178741,-0.07543945,0.9901428,35.98991,4.879883,-31.812,4.166046,0.3692417,0.4489321,0.1059227,1.244802,-0.1710094,-0.0198414,0.7116917,0.04140911,0.2575165,27.53793,35.31
1,-0.02372742,-0.09887695,0.994812,0.9418129,-0.02372742,-0.09887695,0.994812,-34.70142,2.846741,-34.23174,3.466049,0.6268941,0.5608174,0.9739074,0.1178741,-0.07543945,0.9901428,35.98991,4.879883,-31.812,4.166046,0.3692417,0.4489321,0.1059227,1.244802,-0.1710094,-0.0198414,0.7116917,0.04140911,0.2575165,27.53793,35.31
2,-0.02372742,-0.09887695,0.994812,0.9418129,-0.02372742,-0.09887695,0.994812,-34.70142,2.846741,-34.23174,3.466049,0.6268941,0.5608174,0.9739074,0.1178741,-0.07543945,0.9901428,35.98991,4.879883,-31.812,4.166046,0.3692417,0.4489321,0.1065259,1.244496,-0.1707825,-0.01831034,0.7107062,0.04000043,0.2575165,-1.987946,35.31
2,-0.02372742,-0.09887695,0.994812,0.9418129,-0.02372742,-0.09887695,0.994812,-34.70142,2.846741,-34.23174,3.466049,0.6268941,0.5608174,0.9739074,0.1178741,-0.07543945,0.9901428,35.98991,4.879883,-31.812,4.166046,0.3692417,0.4489321,0.1065259,1.244496,-0.1707825,-0.01831034,0.7107062,0.04000043,0.2575165,-1.987946,35.31
2,-0.02372742,-0.09887695,0.994812,0.9418129,-0.02372742,-0.09887695,0.994812,-34.70142,2.846741,-34.23174,3.466049,0.6268941,0.5608174,0.9739074,0.1178741,-0.07543945,0.9901428,35.98991,4.879883,-31.812,4.166046,0.3692417,0.4489321,0.1065259,1.244496,-0.1707825,-0.01831034,0.7107062,0.04000043,0.2575165,-1.987946,35.31
2,-0.01780701,-0.07914734,0.9966888,0.9403438,-0.01780701,-0.07914734,0.9966888,-34.74062,2.900742,-33.7793,3.554611,0.6270284,0.5520738,0.9686614,0.1108093,-0.05535889,0.9922943,35.98952,5.005463,-31.75967,4.076889,0.3703242,0.441652,0.1065822,1.243764,-0.1707414,-0.01710531,0.7095097,0.03796573,0.2575165,-1.987946,35.31
2,-0.01780701,-0.07914734,0.9966888,0.9403438,-0.01780701,-0.07914734,0.9966888,-34.74062,2.900742,-33.7793,3.554611,0.6270284,0.5520738,0.9686614,0.1108093,-0.05535889,0.9922943,35.98952,5.005463,-31.75967,4.076889,0.3703242,0.441652,0.1065822,1.243764,-0.1707414,-0.01710531,0.7095097,0.03796573,0.2575165,-1.987946,35.31
2,-0.01780701,-0.07914734,0.9966888,0.9403438,-0.01780701,-0.07914734,0.9966888,-34.74062,2.900742,-33.7793,3.554611,0.6270284,0.5520738,0.9686614,0.1108093,-0.05535889,0.9922943,35.98952,5.005463,-31.75967,4.076889,0.3703242,0.441652,0.1065822,1.243764,-0.1707414,-0.01710531,0.7095097,0.03796573,0.2575165,-1.987946,35.31
2,0.07206726,-0.05072021,0.996109,0.9482685,-0.01872253,-0.08169556,0.9964752,-34.74857,2.901093,-33.76169,3.549332,0.627403,0.5522175,0.953075,0.1133575,-0.03639221,0.9928741,35.98686,5.01001,-31.76195,4.138382,0.3700578,0.4392315,0.1064069,1.242934,-0.1708719,-0.01519469,0.7083154,0.03539829,0.2575165,-1.987946,35.31
2,0.07206726,-0.05072021,0.996109,0.9482685,-0.01872253,-0.08169556,0.9964752,-34.74857,2.901093,-33.76169,3.549332,0.627403,0.5522175,0.953075,0.1133575,-0.03639221,0.9928741,35.98686,5.01001,-31.76195,4.138382,0.3700578,0.4392315,0.1064069,1.242934,-0.1708719,-0.01519469,0.7083154,0.03539829,0.2575165,-1.987946,35.31
2,0.07206726,-0.05072021,0.996109,0.9482685,-0.01872253,-0.08169556,0.9964752,-34.74857,2.901093,-33.76169,3.549332,0.627403,0.5522175,0.953075,0.1133575,-0.03639221,0.9928741,35.98686,5.01001,-31.76195,4.138382,0.3700578,0.4392315,0.1064069,1.242934,-0.1708719,-0.01519469,0.7083154,0.03539829,0.2575165,-1.987946,35.31
2,0.1098022,-0.03587341,0.9933014,0.9380344,-0.02095032,-0.07925415,0.9966278,-34.75034,2.901428,-33.7793,3.553848,0.6277776,0.5520738,0.9739875,0.1120453,-0.03511047,0.9930725,35.98419,5.014542,-31.76421,4.126694,0.3703242,0.4389381,0.106353,1.24218,-0.1711554,-0.01383601,0.706739,0.0332195,0.2575165,-1.987946,35.31
2,0.1098022,-0.03587341,0.9933014,0.9380344,-0.02095032,-0.07925415,0.9966278,-34.75034,2.901428,-33.7793,3.553848,0.6277776,0.5520738,0.9739875,0.1120453,-0.03511047,0.9930725,35.98419,5.014542,-31.76421,4.126694,0.3703242,0.4389381,0.106353,1.24218,-0.1711554,-0.01383601,0.706739,0.0332195,0.2575165,-1.987946,35.31
2,0.1098022,-0.03587341,0.9933014,0.9380344,-0.02095032,-0.07925415,0.9966278,-34.75034,2.901428,-33.7793,3.553848,0.6277776,0.5520738,0.9739875,0.1120453,-0.03511047,0.9930725,35.98419,5.014542,-31.76421,4.126694,0.3703242,0.4389381,0.106353,1.24218,-0.1711554,-0.01383601,0.706739,0.0332195,0.2575165,-1.987946,35.31
2,0.09562683,-0.02192688,0.995163,0.9415283,-0.02400208,-0.05232239,0.9983368,-34.80385,2.975555,-33.89058,3.546082,0.6302225,0.5470793,0.9677713,0.1010284,-0.02053833,0.9946594,35.95981,5.020691,-31.48369,4.067703,0.3729352,0.434618,0.1063049,1.241547,-0.1715114,-0.01358495,0.7051393,0.03039061,0.2575165,-1.987946,35.31
2,0.09562683,-0.02192688,0.995163,0.9415283,-0.02400208,-0.05232239,0.9983368,-34.80385,2.975555,-33.89058,3.546082,0.6302225,0.5470793,0.9677713,0.1010284,-0.02053833,0.9946594,35.95981,5.020691,-31.48369,4.067703,0.3729352,0.434618,0.1063049,1.241547,-0.1715114,-0.01358495,0.7051393,0.03039061,0.2575165,-1.987946,35.31
2,0.09562683,-0.02192688,0.995163,0.9415283,-0.02400208,-0.05232239,0.9983368,-34.80385,2.975555,-33.89058,3.546082,0.6302225,0.5470793,0.9677713,0.1010284,-0.02053833,0.9946594,35.95981,5.020691,-31.48369,4.067703,0.3729352,0.434618,0.1063049,1.241547,-0.1715114,-0.01358495,0.7051393,0.03039061,0.2575165,-1.987946,35.31
2,0.03431702,-0.03768921,0.9986877,0.9391611,-0.03216553,-0.05383301,0.9980316,-34.82121,3.01799,-33.9763,3.498947,0.6319442,0.5465413,0.9593713,0.1081848,-0.01951599,0.993927,35.94231,5.070465,-31.55952,4.093201,0.3725752,0.433418,0.1062138,1.240579,-0.1723896,-0.01423258,0.7019551,0.0255888,0.2575165,-9.320007,35.31
2,0.03431702,-0.03768921,0.9986877,0.9391611,-0.03216553,-0.05383301,0.9980316,-34.82121,3.01799,-33.9763,3.498947,0.6319442,0.5465413,0.9593713,0.1081848,-0.01951599,0.993927,35.94231,5.070465,-31.55952,4.093201,0.3725752,0.433418,0.1062138,1.240579,-0.1723896,-0.01423258,0.7019551,0.0255888,0.2575165,-9.320007,35.31
2,0.03431702,-0.03768921,0.9986877,0.9391611,-0.03216553,-0.05383301,0.9980316,-34.82121,3.01799,-33.9763,3.498947,0.6319442,0.5465413,0.9593713,0.1081848,-0.01951599,0.993927,35.94231,5.070465,-31.55952,4.093201,0.3725752,0.433418,0.1062138,1.240579,-0.1723896,-0.01423258,0.7019551,0.0255888,0.2575165,-9.320007,35.31
2,0.03431702,-0.03768921,0.9986877,0.9391611,-0.03216553,-0.05383301,0.9980316,-34.82121,3.01799,-33.9763,3.498947,0.6319442,0.5465413,0.9593713,0.1081848,-0.01951599,0.993927,35.94231,5.070465,-31.55952,4.093201,0.3725752,0.433418,0.1062138,1.240579,-0.1723896,-0.01423258,0.7019551,0.0255888,0.2575165,-9.320007,35.31
2,0.03431702,-0.03768921,0.9986877,0.9391611,-0.03216553,-0.05383301,0.9980316,-34.82121,3.01799,-33.9763,3.498947,0.6319442,0.5465413,0.9593713,0.1081848,-0.01951599,0.993927,35.94231,5.070465,-31.55952,4.093201,0.3725752,0.433418,0.1062138,1.240579,-0.1723896,-0.01423258,0.7019551,0.0255888,0.2575165,-9.320007,35.31
2,0.03431702,-0.03768921,0.9986877,0.9391611,-0.03216553,-0.05383301,0.9980316,-34.82121,3.01799,-33.9763,3.498947,0.6319442,0.5465413,0.9593713,0.1081848,-0.01951599,0.993927,35.94231,5.070465,-31.55952,4.093201,0.3725752,0.433418,0.1062138,1.240579,-0.1723896,-0.01423258,0.7019551,0.0255888,0.2575165,-9.320007,35.31
2,-0.0177002,-0.03968811,0.999054,0.9629673,-0.03512573,-0.04360962,0.9984283,-34.92024,3.037262,-33.63928,3.535538,0.6354599,0.5413815,0.9632843,0.08869934,-0.01557922,0.9959259,35.85663,5.069641,-31.02519,4.184158,0.3784817,0.4287318,0.1062646,1.24027,-0.1728023,-0.01529025,0.7001772,0.02351129,0.2575165,-9.320007,35.31
2,-0.0177002,-0.03968811,0.999054,0.9629673,-0.03512573,-0.04360962,0.9984283,-34.92024,3.037262,-33.63928,3.535538,0.6354599,0.5413815,0.9632843,0.08869934,-0.01557922,0.9959259,35.85663,5.069641,-31.02519,4.184158,0.3784817,0.4287318,0.1062646,1.24027,-0.1728023,-0.01529025,0.7001772,0.02351129,0.2575165,-9.320007,35.31
2,-0.0177002,-0.03968811,0.999054,0.9629673,-0.03512573,-0.04360962,0.9984283,-34.92024,3.037262,-33.63928,3.535538,0.6354599,0.5413815,0.9632843,0.08869934,-0.01557922,0.9959259,35.85663,5.069641,-31.02519,4.184158,0.3784817,0.4287318,0.1062646,1.24027,-0.1728023,-0.01529025,0.7001772,0.02351129,0.2575165,-9.320007,35.31
2,0.01278687,-0.03497314,0.9992981,0.9662045,-0.03688049,-0.04681396,0.9982147,-34.92386,3.045059,-33.61401,3.534988,0.6357775,0.5412734,0.9570164,0.08735657,-0.01702881,0.9960175,35.84998,5.065643,-30.99379,4.163773,0.3789331,0.4287863,0.106184,1.239909,-0.1733117,-0.01639018,0.6983595,0.02094422,0.2575165,-9.320007,35.31
2,0.01278687,-0.03497314,0.9992981,0.9662045,-0.03688049,-0.04681396,0.9982147,-34.92386,3.045059,-33.61401,3.534988,0.6357775,0.5412734,0.9570164,0.08735657,-0.01702881,0.9960175,35.84998,5.065643,-30.99379,4.163773,0.3789331,0.4287863,0.106184,1.239909,-0.1733117,-0.01639018,0.6983595,0.02094422,0.2575165,-9.320007,35.31
2,0.01278687,-0.03497314,0.9992981,0.9662045,-0.03688049,-0.04681396,0.9982147,-34.92386,3.045059,-33.61401,3.534988,0.6357775,0.5412734,0.9570164,0.08735657,-0.01702881,0.9960175,35.84998,5.065643,-30.99379,4.163773,0.3789331,0.4287863,0.106184,1.239909,-0.1733117,-0.01639018,0.6983595,0.02094422,0.2575165,-9.320007,35.31
2,0.01278687,-0.03497314,0.9992981,0.9662045,-0.03688049,-0.04681396,0.9982147,-34.92386,3.045059,-33.61401,3.534988,0.6357775,0.5412734,0.9570164,0.08735657,-0.01702881,0.9960175,35.84998,5.065643,-30.99379,4.163773,0.3789331,0.4287863,0.1062086,1.239551,-0.1736212,-0.0172396,0.6965601,0.01856312,0.2575165,-9.320007,35.31
2,0.01278687,-0.03497314,0.9992981,0.9662045,-0.03688049,-0.04681396,0.9982147,-34.92386,3.045059,-33.61401,3.534988,0.6357775,0.5412734,0.9570164,0.08735657,-0.01702881,0.9960175,35.84998,5.065643,-30.99379,4.163773,0.3789331,0.4287863,0.1062086,1.239551,-0.1736212,-0.0172396,0.6965601,0.01856312,0.2575165,-9.320007,35.31
2,0.01278687,-0.03497314,0.9992981,0.9662045,-0.03688049,-0.04681396,0.9982147,-34.92386,3.045059,-33.61401,3.534988,0.6357775,0.5412734,0.9570164,0.08735657,-0.01702881,0.9960175,35.84998,5.065643,-30.99379,4.163773,0.3789331,0.4287863,0.1062086,1.239551,-0.1736212,-0.0172396,0.6965601,0.01856312,0.2575165,-9.320007,35.31
2,0.02804565,-0.02998352,0.9991455,0.9662045,-0.03855896,-0.0458374,0.9981995,-34.92647,3.041412,-33.60925,3.53598,0.6360775,0.5412422,0.9570164,0.08755493,-0.01567078,0.9960327,35.84644,5.068008,-31.00383,4.196808,0.378988,0.4286391,0.1061275,1.239291,-0.1740227,-0.01827837,0.6946427,0.01745264,0.2575165,-37.52896,35.31
2,0.02804565,-0.02998352,0.9991455,0.9662045,-0.03855896,-0.0458374,0.9981995,-34.92647,3.041412,-33.60925,3.53598,0.6360775,0.5412422,0.9570164,0.08755493,-0.01567078,0.9960327,35.84644,5.068008,-31.00383,4.196808,0.378988,0.4286391,0.1061275,1.239291,-0.1740227,-0.01827837,0.6946427,0.01745264,0.2575165,-37.52896,35.31
2,0.02804565,-0.02998352,0.9991455,0.9662045,-0.03855896,-0.0458374,0.9981995,-34.92647,3.041412,-33.60925,3.53598,0.6360775,0.5412422,0.9570164,0.08755493,-0.01567078,0.9960327,35.84644,5.068008,-31.00383,4.196808,0.378988,0.4286391,0.1061275,1.239291,-0.1740227,-0.01827837,0.6946427,0.01745264,0.2575165,-37.52896,35.31
2,0.02804565,-0.02998352,0.9991455,0.9662045,-0.03855896,-0.0458374,0.9981995,-34.92647,3.041412,-33.60925,3.53598,0.6360775,0.5412422,0.9570164,0.08755493,-0.01567078,0.9960327,35.84644,5.068008,-31.00383,4.196808,0.378988,0.4286391,0.1060228,1.239103,-0.1744964,-0.01933418,0.6929567,0.01706105,0.2575165,-37.52896,35.31
2,0.02804565,-0.02998352,0.9991455,0.9662045,-0.03855896,-0.0458374,0.9981995,-34.92647,3.041412,-33.60925,3.53598,0.6360775,0.5412422,0.9570164,0.08755493,-0.01567078,0.9960327,35.84644,5.068008,-31.00383,4.196808,0.378988,0.4286391,0.1060228,1.239103,-0.1744964,-0.01933418,0.6929567,0.01706105,0.2575165,-37.52896,35.31
2,0.02804565,-0.02998352,0.9991455,0.9662045,-0.03855896,-0.0458374,0.9981995,-34.92647,3.041412,-33.60925,3.53598,0.6360775,0.5412422,0.9570164,0.08755493,-0.01567078,0.9960327,35.84644,5.068008,-31.00383,4.196808,0.378988,0.4286391,0.1060228,1.239103,-0.1744964,-0.01933418,0.6929567,0.01706105,0.2575165,-37.52896,35.31
2,-0.1112671,0.007095337,0.9937592,0.9895467,-0.1133423,0.007217407,0.993515,-35.12991,3.05722,-33.56767,3.872009,0.6532625,0.5340605,0.966431,0.05514526,-0.002441406,0.9984741,35.6456,5.014236,-30.9261,4.266388,0.3898449,0.4284841,0.1058726,1.238902,-0.1750627,-0.02002251,0.6919913,0.01720802,0.2575165,-37.52896,35.31
2,-0.1112671,0.007095337,0.9937592,0.9895467,-0.1133423,0.007217407,0.993515,-35.12991,3.05722,-33.56767,3.872009,0.6532625,0.5340605,0.966431,0.05514526,-0.002441406,0.9984741,35.6456,5.014236,-30.9261,4.266388,0.3898449,0.4284841,0.1058726,1.238902,-0.1750627,-0.02002251,0.6919913,0.01720802,0.2575165,-37.52896,35.31
2,-0.1112671,0.007095337,0.9937592,0.9895467,-0.1133423,0.007217407,0.993515,-35.12991,3.05722,-33.56767,3.872009,0.6532625,0.5340605,0.966431,0.05514526,-0.002441406,0.9984741,35.6456,5.014236,-30.9261,4.266388,0.3898449,0.4284841,0.1058726,1.238902,-0.1750627,-0.02002251,0.6919913,0.01720802,0.2575165,-37.52896,35.31
2,-0.1205139,-0.006698608,0.9926758,0.9948791,-0.1220551,-0.006698608,0.9924927,-35.16861,3.052002,-33.56767,3.794373,0.6556991,0.5359136,0.9771723,0.05709839,-0.00617981,0.9983368,35.56795,4.997711,-31.03275,4.229172,0.3922503,0.4304113,0.1056869,1.238852,-0.1756871,-0.02020808,0.6918816,0.01798415,0.2575165,-37.52896,35.31
2,-0.1205139,-0.006698608,0.9926758,0.9948791,-0.1220551,-0.006698608,0.9924927,-35.16861,3.052002,-33.56767,3.794373,0.6556991,0.5359136,0.9771723,0.05709839,-0.00617981,0.9983368,35.56795,4.997711,-31.03275,4.229172,0.3922503,0.4304113,0.1056869,1.238852,-0.1756871,-0.02020808,0.6918816,0.01798415,0.2575165,-37.52896,35.31
2,-0.1205139,-0.006698608,0.9926758,0.9948791,-0.1220551,-0.006698608,0.9924927,-35.16861,3.052002,-33.56767,3.794373,0.6556991,0.5359136,0.9771723,0.05709839,-0.00617981,0.9983368,35.56795,4.997711,-31.03275,4.229172,0.3922503,0.4304113,0.1056869,1.238852,-0.1756871,-0.02020808,0.6918816,0.01798415,0.2575165,-37.52896,35.31
2,-0.0463562,-0.01147461,0.9988556,0.9930987,-0.1235352,-0.0141449,0.9922333,-35.18619,3.075714,-33.66272,3.787659,0.656679,0.5368996,0.9864353,0.05807495,-0.007797241,0.9982758,35.5472,5.004181,-31.05595,4.27272,0.3927783,0.4306048,0.1055806,1.238926,-0.1764262,-0.02154584,0.6925045,0.0185934,0.2575165,-37.52896,35.31
2,-0.0463562,-0.01147461,0.9988556,0.9930987,-0.1235352,-0.0141449,0.9922333,-35.18619,3.075714,-33.66272,3.787659,0.656679,0.5368996,0.9864353,0.05807495,-0.007797241,0.9982758,35.5472,5.004181,-31.05595,4.27272,0.3927783,0.4306048,0.1055806,1.238926,-0.1764262,-0.02154584,0.6925045,0.0185934,0.2575165,-37.52896,35.31
2,-0.0463562,-0.01147461,0.9988556,0.9930987,-0.1235352,-0.0141449,0.9922333,-35.18619,3.075714,-33.66272,3.787659,0.656679,0.5368996,0.9864353,0.05807495,-0.007797241,0.9982758,35.5472,5.004181,-31.05595,4.27272,0.3927783,0.4306048,0.1055806,1.238926,-0.1764262,-0.02154584,0.6925045,0.0185934,0.2575165,-37.52896,35.31
2,-0.1286621,-0.01699829,0.9915314,1.0,-0.1295776,-0.0171051,0.9914093,-35.19218,3.075714,-33.66272,3.792267,0.6576761,0.5372779,1.0,0.03292847,0.00163269,0.9994507,35.62401,4.783691,-30.47169,4.297134,0.3936787,0.4323251,0.105516,1.239043,-0.1769539,-0.02426422,0.6917446,0.01911541,0.2575165,-37.52896,35.31
2,-0.1286621,-0.01699829,0.9915314,1.0,-0.1295776,-0.0171051,0.9914093,-35.19218,3.075714,-33.66272,3.792267,0.6576761,0.5372779,1.0,0.03292847,0.00163269,0.9994507,35.62401,4.783691,-30.47169,4.297134,0.3936787,0.4323251,0.105516,1.239043,-0.1769539,-0.02426422,0.6917446,0.01911541,0.2575165,-37.52896,35.31
2,-0.1286621,-0.01699829,0.9915314,1.0,-0.1295776,-0.0171051,0.9914093,-35.19218,3.075714,-33.66272,3.792267,0.6576761,0.5372779,1.0,0.03292847,0.00163269,0.9994507,35.62401,4.783691,-30.47169,4.297134,0.3936787,0.4323251,0.105516,1.239043,-0.1769539,-0.02426422,0.6917446,0.01911541,0.2575165,-37.52896,35.31
2,-0.1286621,-0.01699829,0.9915314,1.0,-0.1295776,-0.0171051,0.9914093,-35.19218,3.075714,-33.66272,3.792267,0.6576761,0.5372779,1.0,0.03292847,0.00163269,0.9994507,35.62401,4.783691,-30.47169,4.297134,0.3936787,0.4323251,0.105516,1.239043,-0.1769539,-0.02426422,0.6917446,0.01911541,0.2575165,-37.52896,35.31
2,-0.1286621,-0.01699829,0.9915314,1.0,-0.1295776,-0.0171051,0.9914093,-35.19218,3.075714,-33.66272,3.792267,0.6576761,0.5372779,1.0,0.03292847,0.00163269,0.9994507,35.62401,4.783691,-30.47169,4.297134,0.3936787,0.4323251,0.105516,1.239043,-0.1769539,-0.02426422,0.6917446,0.01911541,0.2575165,-37.52896,35.31
2,-0.1286621,-0.01699829,0.9915314,1.0,-0.1295776,-0.0171051,0.9914093,-35.19218,3.075714,-33.66272,3.792267,0.6576761,0.5372779,1.0,0.03292847,0.00163269,0.9994507,35.62401,4.783691,-30.47169,4.297134,0.3936787,0.4323251,0.105516,1.239043,-0.1769539,-0.02426422,0.6917446,0.01911541,0.2575165,-37.52896,35.31
2,-0.1286621,-0.01699829,0.9915314,1.0,-0.1295776,-0.0171051,0.9914093,-35.19218,3.075714,-33.66272,3.792267,0.6576761,0.5372779,1.0,0.03292847,0.00163269,0.9994507,35.62401,4.783691,-30.47169,4.297134,0.3936787,0.4323251,0.1055188,1.238929,-0.1767574,-0.02506368,0.6899772,0.01872695,0.2575165,-37.52896,35.31
2,-0.1286621,-0.01699829,0.9915314,1.0,-0.1295776,-0.0171051,0.9914093,-35.19218,3.075714,-33.66272,3.792267,0.6576761,0.5372779,1.0,0.03292847,0.00163269,0.9994507,35.62401,4.783691,-30.47169,4.297134,0.3936787,0.4323251,0.1055188,1.238929,-0.1767574,-0.02506368,0.6899772,0.01872695,0.2575165,-37.52896,35.31
2,-0.1286621,-0.01699829,0.9915314,1.0,-0.1295776,-0.0171051,0.9914093,-35.19218,3.075714,-33.66272,3.792267,0.6576761,0.5372779,1.0,0.03292847,0.00163269,0.9994507,35.62401,4.783691,-30.47169,4.297134,0.3936787,0.4323251,0.1055188,1.238929,-0.1767574,-0.02506368,0.6899772,0.01872695,0.2575165,-37.52896,35.31
2,-0.1351776,-0.03938293,0.990036,1.0,-0.136322,-0.03981018,0.9898529,-35.16612,2.960129,-33.43298,3.835587,0.6572754,0.5421127,1.0,0.0316925,0.02235413,0.9992371,35.66216,4.713135,-30.42705,4.498978,0.392325,0.4320559,0.1054976,1.238824,-0.1760371,-0.02612704,0.6865673,0.01886608,0.2575165,31.04169,35.31
2,-0.1351776,-0.03938293,0.990036,1.0,-0.136322,-0.03981018,0.9898529,-35.16612,2.960129,-33.43298,3.835587,0.6572754,0.5421127,1.0,0.0316925,0.02235413,0.9992371,35.66216,4.713135,-30.42705,4.498978,0.392325,0.4320559,0.1054976,1.238824,-0.1760371,-0.02612704,0.6865673,0.01886608,0.2575165,31.04169,35.31
2,-0.1351776,-0.03938293,0.990036,1.0,-0.136322,-0.03981018,0.9898529,-35.16612,2.960129,-33.43298,3.835587,0.6572754,0.5421127,1.0,0.0316925,0.02235413,0.9992371,35.66216,4.713135,-30.42705,4.498978,0.392325,0.4320559,0.1054976,1.238824,-0.1760371,-0.02612704,0.6865673,0.01886608,0.2575165,31.04169,35.31
2,0.002700806,-0.003005981,0.9999847,0.9944856,-0.1297607,-0.04133606,0.9906769,-35.16507,2.956802,-33.44281,3.816528,0.6563959,0.5424883,0.9862255,0.01928711,0.00177002,0.9998016,35.66507,4.706833,-30.42908,4.42746,0.3937545,0.4347085,0.1056559,1.238939,-0.1748942,-0.02712132,0.6822131,0.01925889,0.2575165,31.04169,35.31
2,0.002700806,-0.003005981,0.9999847,0.9944856,-0.1297607,-0.04133606,0.9906769,-35.16507,2.956802,-33.44281,3.816528,0.6563959,0.5424883,0.9862255,0.01928711,0.00177002,0.9998016,35.66507,4.706833,-30.42908,4.42746,0.3937545,0.4347085,0.1056559,1.238939,-0.1748942,-0.02712132,0.6822131,0.01925889,0.2575165,31.04169,35.31
2,0.002700806,-0.003005981,0.9999847,0.9944856,-0.1297607,-0.04133606,0.9906769,-35.16507,2.956802,-33.44281,3.816528,0.6563959,0.5424883,0.9862255,0.01928711,0.00177002,0.9998016,35.66507,4.706833,-30.42908,4.42746,0.3937545,0.4347085,0.1056559,1.238939,-0.1748942,-0.02712132,0.6822131,0.01925889,0.2575165,31.04169,35.31
2,-0.007995605,-0.003295898,0.9999542,1.0,-0.1387329,-0.03718567,0.989624,-35.31021,2.794449,-33.00912,3.823532,0.6621306,0.5436676,1.0,0.002670288,-0.000534058,0.9999847,35.55795,4.745895,-30.71361,4.45015,0.3991067,0.4360907,0.1058164,1.239204,-0.1719744,-0.03015878,0.6715749,0.02033231,0.2575165,6.296875,35.31
2,-0.007995605,-0.003295898,0.9999542,1.0,-0.1387329,-0.03718567,0.989624,-35.31021,2.794449,-33.00912,3.823532,0.6621306,0.5436676,1.0,0.002670288,-0.000534058,0.9999847,35.55795,4.745895,-30.71361,4.45015,0.3991067,0.4360907,0.1058164,1.239204,-0.1719744,-0.03015878,0.6715749,0.02033231,0.2575165,6.296875,35.31
2,-0.007995605,-0.003295898,0.9999542,1.0,-0.1387329,-0.03718567,0.989624,-35.31021,2.794449,-33.00912,3.823532,0.6621306,0.5436676,1.0,0.002670288,-0.000534058,0.9999847,35.55795,4.745895,-30.71361,4.45015,0.3991067,0.4360907,0.1058164,1.239204,-0.1719744,-0.03015878,0.6715749,0.02033231,0.2575165,6.296875,35.31
2,-0.00730896,-0.007797241,0.999939,1.0,-0.1286469,-0.03959656,0.9908905,-35.35358,2.797195,-33.08466,3.776016,0.6624985,0.5445176,1.0,0.005966187,-0.004302979,0.9999695,35.49971,4.763718,-30.79848,4.441605,0.4006569,0.4366426,0.106014,1.239527,-0.1703637,-0.03257791,0.6662299,0.02057455,0.2575165,6.296875,35.31
2,-0.00730896,-0.007797241,0.999939,1.0,-0.1286469,-0.03959656,0.9908905,-35.35358,2.797195,-33.08466,3.776016,0.6624985,0.5445176,1.0,0.005966187,-0.004302979,0.9999695,35.49971,4.763718,-30.79848,4.441605,0.4006569,0.4366426,0.106014,1.239527,-0.1703637,-0.03257791,0.6662299,0.02057455,0.2575165,6.296875,35.31
2,-0.00730896,-0.007797241,0.999939,1.0,-0.1286469,-0.03959656,0.9908905,-35.35358,2.797195,-33.08466,3.776016,0.6624985,0.5445176,1.0,0.005966187,-0.004302979,0.9999695,35.49971,4.763718,-30.79848,4.441605,0.4006569,0.4366426,0.106014,1.239527,-0.1703637,-0.03257791,0.6662299,0.02057455,0.2575165,6.296875,35.31
2,-0.06568909,-0.04019165,0.9970245,1.0,-0.1220551,-0.05491638,0.9909973,-35.40291,2.706497,-32.77606,3.776917,0.6629552,0.54671,1.0,0.0242157,-0.01652527,0.9995575,35.4016,5.013123,-31.63094,4.401764,0.4011624,0.4363421,0.106009,1.23974,-0.1686527,-0.03474161,0.660302,0.02145279,0.2575165,6.296875,35.31
2,-0.06568909,-0.04019165,0.9970245,1.0,-0.1220551,-0.05491638,0.9909973,-35.40291,2.706497,-32.77606,3.776917,0.6629552,0.54671,1.0,0.0242157,-0.01652527,0.9995575,35.4016,5.013123,-31.63094,4.401764,0.4011624,0.4363421,0.106009,1.23974,-0.1686527,-0.03474161,0.660302,0.02145279,0.2575165,6.296875,35.31
2,-0.06568909,-0.04019165,0.9970245,1.0,-0.1220551,-0.05491638,0.9909973,-35.40291,2.706497,-32.77606,3.776917,0.6629552,0.54671,1.0,0.0242157,-0.01652527,0.9995575,35.4016,5.013123,-31.63094,4.401764,0.4011624,0.4363421,0.106009,1.23974,-0.1686527,-0.03474161,0.660302,0.02145279,0.2575165,6.296875,35.31
2,-0.1897736,-0.03285217,0.9812622,1.0,-0.1897736,-0.03285217,0.9812622,-35.55492,2.568604,-32.40868,3.926346,0.6766394,0.5457281,1.0,-0.02429199,-0.01881409,0.999527,35.27499,5.006653,-31.76695,4.319412,0.4113,0.4381153,0.1059256,1.240072,-0.1663508,-0.03795729,0.6518033,0.02205878,0.2575165,6.296875,35.31
2,-0.1897736,-0.03285217,0.9812622,1.0,-0.1897736,-0.03285217,0.9812622,-35.55492,2.568604,-32.40868,3.926346,0.6766394,0.5457281,1.0,-0.02429199,-0.01881409,0.999527,35.27499,5.006653,-31.76695,4.319412,0.4113,0.4381153,0.1059256,1.240072,-0.1663508,-0.03795729,0.6518033,0.02205878,0.2575165,6.296875,35.31
2,-0.1897736,-0.03285217,0.9812622,1.0,-0.1897736,-0.03285217,0.9812622,-35.55492,2.568604,-32.40868,3.926346,0.6766394,0.5457281,1.0,-0.02429199,-0.01881409,0.999527,35.27499,5.006653,-31.76695,4.319412,0.4113,0.4381153,0.1059256,1.240072,-0.1663508,-0.03795729,0.6518033,0.02205878,0.2575165,6.296875,35.31
2,-0.1673126,-0.05244446,0.9844971,1.0,-0.1673126,-0.05244446,0.9844971,-35.5815,2.49231,-32.25156,3.753433,0.6742654,0.5491491,1.0,-0.02871704,-0.02294922,0.9993134,35.23203,5.00827,-31.90227,4.385742,0.4131154,0.4397652,0.1059556,1.240438,-0.1639189,-0.04091341,0.642736,0.02156123,0.2575165,6.296875,35.31
2,-0.1673126,-0.05244446,0.9844971,1.0,-0.1673126,-0.05244446,0.9844971,-35.5815,2.49231,-32.25156,3.753433,0.6742654,0.5491491,1.0,-0.02871704,-0.02294922,0.9993134,35.23203,5.00827,-31.90227,4.385742,0.4131154,0.4397652,0.1059556,1.240438,-0.1639189,-0.04091341,0.642736,0.02156123,0.2575165,6.296875,35.31
2,-0.1673126,-0.05244446,0.9844971,1.0,-0.1673126,-0.05244446,0.9844971,-35.5815,2.49231,-32.25156,3.753433,0.6742654,0.5491491,1.0,-0.02871704,-0.02294922,0.9993134,35.23203,5.00827,-31.90227,4.385742,0.4131154,0.4397652,0.1059556,1.240438,-0.1639189,-0.04091341,0.642736,0.02156123,0.2575165,6.296875,35.31
2,-0.1673126,-0.05244446,0.9844971,1.0,-0.1673126,-0.05244446,0.9844971,-35.5815,2.49231,-32.25156,3.753433,0.6742654,0.5491491,1.0,-0.02871704,-0.02294922,0.9993134,35.23203,5.00827,-31.90227,4.385742,0.4131154,0.4397652,0.1056564,1.240643,-0.1616635,-0.04376285,0.634241,0.02049255,0.2575165,-13.22116,35.31
2,-0.1673126,-0.05244446,0.9844971,1.0,-0.1673126,-0.05244446,0.9844971,-35.5815,2.49231,-32.25156,3.753433,0.6742654,0.5491491,1.0,-0.02871704,-0.02294922,0.9993134,35.23203,5.00827,-31.90227,4.385742,0.4131154,0.4397652,0.1056564,1.240643,-0.1616635,-0.04376285,0.634241,0.02049255,0.2575165,-13.22116,35.31
2,-0.1673126,-0.05244446,0.9844971,1.0,-0.1673126,-0.05244446,0.9844971,-35.5815,2.49231,-32.25156,3.753433,0.6742654,0.5491491,1.0,-0.02871704,-0.02294922,0.9993134,35.23203,5.00827,-31.90227,4.385742,0.4131154,0.4397652,0.1056564,1.240643,-0.1616635,-0.04376285,0.634241,0.02049255,0.2575165,-13.22116,35.31
2,-0.289505,-0.02696228,0.9567871,1.0,-0.289505,-0.02696228,0.9567871,-35.8367,2.70311,-33.26396,3.821487,0.7016871,0.5488474,1.0,-0.04759216,-0.03762817,0.9981537,34.72655,5.497864,-34.03188,4.113159,0.4318548,0.4425155,0.1053243,1.240684,-0.1579733,-0.04680223,0.6200239,0.01841422,0.2575165,-13.22116,35.31
2,-0.289505,-0.02696228,0.9567871,1.0,-0.289505,-0.02696228,0.9567871,-35.8367,2.70311,-33.26396,3.821487,0.7016871,0.5488474,1.0,-0.04759216,-0.03762817,0.9981537,34.72655,5.497864,-34.03188,4.113159,0.4318548,0.4425155,0.1053243,1.240684,-0.1579733,-0.04680223,0.6200239,0.01841422,0.2575165,-13.22116,35.31
2,-0.289505,-0.02696228,0.9567871,1.0,-0.289505,-0.02696228,0.9567871,-35.8367,2.70311,-33.26396,3.821487,0.7016871,0.5488474,1.0,-0.04759216,-0.03762817,0.9981537,34.72655,5.497864,-34.03188,4.113159,0.4318548,0.4425155,0.1053243,1.240684,-0.1579733,-0.04680223,0.6200239,0.01841422,0.2575165,-13.22116,35.31
2,-0.289505,-0.02696228,0.9567871,1.0,-0.289505,-0.02696228,0.9567871,-35.8367,2.70311,-33.26396,3.821487,0.7016871,0.5488474,1.0,-0.04759216,-0.03762817,0.9981537,34.72655,5.497864,-34.03188,4.113159,0.4318548,0.4425155,0.1049063,1.240578,-0.1570296,-0.0482109,0.6159443,0.0181041,0.2575165,-13.22116,35.31
2,-0.289505,-0.02696228,0.9567871,1.0,-0.289505,-0.02696228,0.9567871,-35.8367,2.70311,-33.26396,3.821487,0.7016871,0.5488474,1.0,-0.04759216,-0.03762817,0.9981537,34.72655,5.497864,-34.03188,4.113159,0.4318548,0.4425155,0.1049063,1.240578,-0.1570296,-0.0482109,0.6159443,0.0181041,0.2575165,-13.22116,35.31
2,-0.289505,-0.02696228,0.9567871,1.0,-0.289505,-0.02696228,0.9567871,-35.8367,2.70311,-33.26396,3.821487,0.7016871,0.5488474,1.0,-0.04759216,-0.03762817,0.9981537,34.72655,5.497864,-34.03188,4.113159,0.4318548,0.4425155,0.1049063,1.240578,-0.1570296,-0.0482109,0.6159443,0.0181041,0.2575165,-13.22116,35.31
2,-0.289505,-0.02696228,0.9567871,1.0,-0.289505,-0.02696228,0.9567871,-35.8367,2.70311,-33.26396,3.821487,0.7016871,0.5488474,1.0,-0.04759216,-0.03762817,0.9981537,34.72655,5.497864,-34.03188,4.113159,0.4318548,0.4425155,0.1045775,1.24048,-0.1565041,-0.04910019,0.6129748,0.01807465,0.2575165,-13.22116,35.31
2,-0.289505,-0.02696228,0.9567871,1.0,-0.289505,-0.02696228,0.9567871,-35.8367,2.70311,-33.26396,3.821487,0.7016871,0.5488474,1.0,-0.04759216,-0.03762817,0.9981537,34.72655,5.497864,-34.03188,4.113159,0.4318548,0.4425155,0.1045775,1.24048,-0.1565041,-0.04910019,0.6129748,0.01807465,0.2575165,-13.22116,35.31
2,-0.289505,-0.02696228,0.9567871,1.0,-0.289505,-0.02696228,0.9567871,-35.8367,2.70311,-33.26396,3.821487,0.7016871,0.5488474,1.0,-0.04759216,-0.03762817,0.9981537,34.72655,5.497864,-34.03188,4.113159,0.4318548,0.4425155,0.1045775,1.24048,-0.1565041,-0.04910019,0.6129748,0.01807465,0.2575165,-13.22116,35.31
3,-0.3023071,-0.04624939,0.9520721,1.0,-0.3023071,-0.04624939,0.9520721,-36.13577,2.714371,-33.28152,3.634399,0.7145097,0.5509967,1.0,-0.1165009,-0.04426575,0.9922028,34.51196,5.172607,-32.53818,4.242844,0.4484674,0.4426309,0.1043465,1.240479,-0.1559985,-0.05035826,0.6102747,0.01819257,0.2421424,-32.72101,35.31
3,-0.3023071,-0.04624939,0.9520721,1.0,-0.3023071,-0.04624939,0.9520721,-36.13577,2.714371,-33.28152,3.634399,0.7145097,0.5509967,1.0,-0.1165009,-0.04426575,0.9922028,34.51196,5.172607,-32.53818,4.242844,0.4484674,0.4426309,0.1043465,1.240479,-0.1559985,-0.05035826,0.6102747,0.01819257,0.2421424,-32.72101,35.31
3,-0.3023071,-0.04624939,0.9520721,1.0,-0.3023071,-0.04624939,0.9520721,-36.13577,2.714371,-33.28152,3.634399,0.7145097,0.5509967,1.0,-0.1165009,-0.04426575,0.9922028,34.51196,5.172607,-32.53818,4.242844,0.4484674,0.4426309,0.1043465,1.240479,-0.1559985,-0.05035826,0.6102747,0.01819257,0.2421424,-32.72101,35.31
3,-0.340744,-0.05918884,0.9382782,1.0,-0.340744,-0.05918884,0.9382782,-36.14264,2.716354,-33.29945,3.803009,0.7202139,0.5532272,1.0,-0.1304016,-0.04232788,0.9905548,34.51004,5.178589,-32.53604,4.233002,0.4502214,0.4422554,0.1039722,1.240419,-0.1558574,-0.05127026,0.6083102,0.01805774,0.2421424,-32.72101,35.31
3,-0.340744,-0.05918884,0.9382782,1.0,-0.340744,-0.05918884,0.9382782,-36.14264,2.716354,-33.29945,3.803009,0.7202139,0.5532272,1.0,-0.1304016,-0.04232788,0.9905548,34.51004,5.178589,-32.53604,4.233002,0.4502214,0.4422554,0.1039722,1.240419,-0.1558574,-0.05127026,0.6083102,0.01805774,0.2421424,-32.72101,35.31
3,-0.340744,-0.05918884,0.9382782,1.0,-0.340744,-0.05918884,0.9382782,-36.14264,2.716354,-33.29945,3.803009,0.7202139,0.5532272,1.0,-0.1304016,-0.04232788,0.9905548,34.51004,5.178589,-32.53604,4.233002,0.4502214,0.4422554,0.1039722,1.240419,-0.1558574,-0.05127026,0.6083102,0.01805774,0.2421424,-32.72101,35.31
3,-0.2575684,-0.04862976,0.9650269,1.0,-0.368927,-0.04563904,0.9283295,-36.1434,2.696732,-33.30998,3.906021,0.7242182,0.5526733,1.0,-0.1417847,-0.05096436,0.9885712,34.50352,5.169418,-32.45076,4.233185,0.4518521,0.4429846,0.1037812,1.240413,-0.1560152,-0.05145781,0.6079263,0.01797877,0.2421424,-32.72101,35.31
3,-0.2575684,-0.04862976,0.9650269,1.0,-0.368927,-0.04563904,0.9283295,-36.1434,2.696732,-33.30998,3.906021,0.7242182,0.5526733,1.0,-0.1417847,-0.05096436,0.9885712,34.50352,5.169418,-32.45076,4.233185,0.4518521,0.4429846,0.1037812,1.240413,-0.1560152,-0.05145781,0.6079263,0.01797877,0.2421424,-32.72101,35.31
3,-0.2575684,-0.04862976,0.9650269,1.0,-0.368927,-0.04563904,0.9283295,-36.1434,2.696732,-33.30998,3.906021,0.7242182,0.5526733,1.0,-0.1417847,-0.05096436,0.9885712,34.50352,5.169418,-32.45076,4.233185,0.4518521,0.4429846,0.1037812,1.240413,-0.1560152,-0.05145781,0.6079263,0.01797877,0.2421424,-32.72101,35.31
3,-0.2373352,-0.04359436,0.9704437,1.0,-0.3750763,-0.03866577,0.926178,-36.15977,2.69075,-33.31647,3.930481,0.7257193,0.5521487,1.0,-0.1429443,-0.0463562,0.9886322,34.49446,5.159424,-32.45398,4.222794,0.452325,0.4428054,0.1036513,1.240357,-0.1566096,-0.05081447,0.6090988,0.01841422,0.2421424,-32.72101,35.31
3,-0.2373352,-0.04359436,0.9704437,1.0,-0.3750763,-0.03866577,0.926178,-36.15977,2.69075,-33.31647,3.930481,0.7257193,0.5521487,1.0,-0.1429443,-0.0463562,0.9886322,34.49446,5.159424,-32.45398,4.222794,0.452325,0.4428054,0.1036513,1.240357,-0.1566096,-0.05081447,0.6090988,0.01841422,0.2421424,-32.72101,35.31
3,-0.2373352,-0.04359436,0.9704437,1.0,-0.3750763,-0.03866577,0.926178,-36.15977,2.69075,-33.31647,3.930481,0.7257193,0.5521487,1.0,-0.1429443,-0.0463562,0.9886322,34.49446,5.159424,-32.45398,4.222794,0.452325,0.4428054,0.1036513,1.240357,-0.1566096,-0.05081447,0.6090988,0.01841422,0.2421424,-32.72101,35.31
3,-0.2304688,-0.04554749,0.9720001,1.0,-0.3779602,-0.03775024,0.9250488,-36.16689,2.687973,-33.32793,3.92836,0.7264132,0.5522659,1.0,-0.1485901,-0.04930115,0.9876556,34.47949,5.155746,-32.45398,4.20932,0.4535393,0.4433335,0.1033893,1.240191,-0.1577466,-0.04939837,0.6113285,0.01937537,0.2421424,-32.72101,35.29
3,-0.2304688,-0.04554749,0.9720001,1.0,-0.3779602,-0.03775024,0.9250488,-36.16689,2.687973,-33.32793,3.92836,0.7264132,0.5522659,1.0,-0.1485901,-0.04930115,0.9876556,34.47949,5.155746,-32.45398,4.20932,0.4535393,0.4433335,0.1033893,1.240191,-0.1577466,-0.04939837,0.6113285,0.01937537,0.2421424,-32.72101,35.29
3,-0.2304688,-0.04554749,0.9720001,1.0,-0.3779602,-0.03775024,0.9250488,-36.16689,2.687973,-33.32793,3.92836,0.7264132,0.5522659,1.0,-0.1485901,-0.04930115,0.9876556,34.47949,5.155746,-32.45398,4.20932,0.4535393,0.4433335,0.1033893,1.240191,-0.1577466,-0.04939837,0.6113285,0.01937537,0.2421424,-32.72101,35.29
3,-0.2244873,-0.04330444,0.9735107,1.0,-0.376297,-0.03718567,0.9257355,-36.17937,2.687973,-33.33643,3.9366,0.7266832,0.5522659,1.0,-0.1396179,-0.0461731,0.9891205,34.51292,5.181976,-32.45718,4.209061,0.4513042,0.4419934,0.1031392,1.240301,-0.1590678,-0.04965539,0.614338,0.01962202,0.2421424,-32.72101,35.29
3,-0.2244873,-0.04330444,0.9735107,1.0,-0.376297,-0.03718567,0.9257355,-36.17937,2.687973,-33.33643,3.9366,0.7266832,0.5522659,1.0,-0.1396179,-0.0461731,0.9891205,34.51292,5.181976,-32.45718,4.209061,0.4513042,0.4419934,0.1031392,1.240301,-0.1590678,-0.04965539,0.614338,0.01962202,0.2421424,-32.72101,35.29
3,-0.2244873,-0.04330444,0.9735107,1.0,-0.376297,-0.03718567,0.9257355,-36.17937,2.687973,-33.33643,3.9366,0.7266832,0.5522659,1.0,-0.1396179,-0.0461731,0.9891205,34.51292,5.181976,-32.45718,4.209061,0.4513042,0.4419934,0.1031392,1.240301,-0.1590678,-0.04965539,0.614338,0.01962202,0.2421424,-32.72101,35.29
3,-0.2235565,-0.04689026,0.9735565,1.0,-0.3258514,-0.03916931,0.9445953,-36.08876,2.723175,-33.28543,3.616058,0.7159318,0.550001,1.0,-0.1213684,-0.05389404,0.9911346,34.56618,5.210449,-32.59061,4.219116,0.4471605,0.4429352,0.1029377,1.240252,-0.1604359,-0.04909579,0.6174033,0.01976295,0.2421424,19.44379,35.29
3,-0.2235565,-0.04689026,0.9735565,1.0,-0.3258514,-0.03916931,0.9445953,-36.08876,2.723175,-33.28543,3.616058,0.7159318,0.550001,1.0,-0.1213684,-0.05389404,0.9911346,34.56618,5.210449,-32.59061,4.219116,0.4471605,0.4429352,0.1029377,1.240252,-0.1604359,-0.04909579,0.6174033,0.01976295,0.2421424,19.44379,35.29
3,-0.2235565,-0.04689026,0.9735565,1.0,-0.3258514,-0.03916931,0.9445953,-36.08876,2.723175,-33.28543,3.616058,0.7159318,0.550001,1.0,-0.1213684,-0.05389404,0.9911346,34.56618,5.210449,-32.59061,4.219116,0.4471605,0.4429352,0.1029377,1.240252,-0.1604359,-0.04909579,0.6174033,0.01976295,0.2421424,19.44379,35.29
3,-0.239502,-0.02967834,0.9704285,1.0,-0.3096771,-0.01277161,0.9507446,-36.07516,2.70726,-33.28995,3.700851,0.713275,0.5471967,1.0,-0.1049957,-0.0607605,0.9925995,34.62967,5.224945,-32.74951,4.041931,0.4431218,0.4443884,0.1023774,1.240066,-0.1620374,-0.04838136,0.620645,0.02038848,0.2421424,19.44379,35.29
3,-0.239502,-0.02967834,0.9704285,1.0,-0.3096771,-0.01277161,0.9507446,-36.07516,2.70726,-33.28995,3.700851,0.713275,0.5471967,1.0,-0.1049957,-0.0607605,0.9925995,34.62967,5.224945,-32.74951,4.041931,0.4431218,0.4443884,0.1023774,1.240066,-0.1620374,-0.04838136,0.620645,0.02038848,0.2421424,19.44379,35.29
3,-0.239502,-0.02967834,0.9704285,1.0,-0.3096771,-0.01277161,0.9507446,-36.07516,2.70726,-33.28995,3.700851,0.713275,0.5471967,1.0,-0.1049957,-0.0607605,0.9925995,34.62967,5.224945,-32.74951,4.041931,0.4431218,0.4443884,0.1023774,1.240066,-0.1620374,-0.04838136,0.620645,0.02038848,0.2421424,19.44379,35.29
3,-0.3069,-0.03140259,0.9512177,1.0,-0.3141479,-0.0305481,0.9488678,-36.04018,2.718262,-33.27771,3.740387,0.712587,0.5490104,1.0,-0.08891296,-0.05543518,0.9944916,34.64925,5.339935,-33.19275,4.059464,0.4402093,0.4433536,0.1019001,1.240021,-0.1637369,-0.0477067,0.6243756,0.02153668,0.2421424,19.44379,35.29
3,-0.3069,-0.03140259,0.9512177,1.0,-0.3141479,-0.0305481,0.9488678,-36.04018,2.718262,-33.27771,3.740387,0.712587,0.5490104,1.0,-0.08891296,-0.05543518,0.9944916,34.64925,5.339935,-33.19275,4.059464,0.4402093,0.4433536,0.1019001,1.240021,-0.1637369,-0.0477067,0.6243756,0.02153668,0.2421424,19.44379,35.29
3,-0.3069,-0.03140259,0.9512177,1.0,-0.3141479,-0.0305481,0.9488678,-36.04018,2.718262,-33.27771,3.740387,0.712587,0.5490104,1.0,-0.08891296,-0.05543518,0.9944916,34.64925,5.339935,-33.19275,4.059464,0.4402093,0.4433536,0.1019001,1.240021,-0.1637369,-0.0477067,0.6243756,0.02153668,0.2421424,19.44379,35.29
3,-0.2868958,-0.0390625,0.9571533,1.0,-0.2868958,-0.0390625,0.9571533,-35.9818,2.743347,-33.24663,3.791763,0.7067013,0.5487148,1.0,-0.06356812,-0.05329895,0.9965515,34.70657,5.51976,-33.85483,4.117966,0.434615,0.4422658,0.1015153,1.239978,-0.1656422,-0.04709937,0.6285664,0.02277225,0.2421424,19.44379,35.29
3,-0.2868958,-0.0390625,0.9571533,1.0,-0.2868958,-0.0390625,0.9571533,-35.9818,2.743347,-33.24663,3.791763,0.7067013,0.5487148,1.0,-0.06356812,-0.05329895,0.9965515,34.70657,5.51976,-33.85483,4.117966,0.434615,0.4422658,0.1015153,1.239978,-0.1656422,-0.04709937,0.6285664,0.02277225,0.2421424,19.44379,35.29
3,-0.2868958,-0.0390625,0.9571533,1.0,-0.2868958,-0.0390625,0.9571533,-35.9818,2.743347,-33.24663,3.791763,0.7067013,0.5487148,1.0,-0.06356812,-0.05329895,0.9965515,34.70657,5.51976,-33.85483,4.117966,0.434615,0.4422658,0.1015153,1.239978,-0.1656422,-0.04709937,0.6285664,0.02277225,0.2421424,19.44379,35.29
3,-0.2876892,-0.04185486,0.9568024,1.0,-0.2890778,-0.04187012,0.9563751,-35.91521,2.753189,-33.23984,3.959717,0.7046415,0.5488096,1.0,-0.05584717,-0.03833008,0.9976959,34.74713,5.481979,-33.61636,4.131409,0.4324101,0.439675,0.1010962,1.240087,-0.1677319,-0.04706487,0.6330391,0.02409675,0.2421424,19.44379,35.29
3,-0.2876892,-0.04185486,0.9568024,1.0,-0.2890778,-0.04187012,0.9563751,-35.91521,2.753189,-33.23984,3.959717,0.7046415,0.5488096,1.0,-0.05584717,-0.03833008,0.9976959,34.74713,5.481979,-33.61636,4.131409,0.4324101,0.439675,0.1010962,1.240087,-0.1677319,-0.04706487,0.6330391,0.02409675,0.2421424,19.44379,35.29
3,-0.2876892,-0.04185486,0.9568024,1.0,-0.2890778,-0.04187012,0.9563751,-35.91521,2.753189,-33.23984,3.959717,0.7046415,0.5488096,1.0,-0.05584717,-0.03833008,0.9976959,34.74713,5.481979,-33.61636,4.131409,0.4324101,0.439675,0.1010962,1.240087,-0.1677319,-0.04706487,0.6330391,0.02409675,0.2421424,19.44379,35.29
3,-0.2763519,-0.05342102,0.9595642,1.0,-0.2763519,-0.05342102,0.9595642,-35.81757,2.776337,-33.22421,3.932388,0.6992491,0.5491642,1.0,-0.06433105,-0.05819702,0.9962158,34.97697,5.183563,-32.18027,4.241501,0.4262333,0.4404798,0.1008649,1.240224,-0.1697883,-0.04735849,0.6376993,0.02520641,0.2421424,6.056091,35.29
3,-0.2763519,-0.05342102,0.9595642,1.0,-0.2763519,-0.05342102,0.9595642,-35.81757,2.776337,-33.22421,3.932388,0.6992491,0.5491642,1.0,-0.06433105,-0.05819702,0.9962158,34.97697,5.183563,-32.18027,4.241501,0.4262333,0.4404798,0.1008649,1.240224,-0.1697883,-0.04735849,0.6376993,0.02520641,0.2421424,6.056091,35.29
3,-0.2763519,-0.05342102,0.9595642,1.0,-0.2763519,-0.05342102,0.9595642,-35.81757,2.776337,-33.22421,3.932388,0.6992491,0.5491642,1.0,-0.06433105,-0.05819702,0.9962158,34.97697,5.183563,-32.18027,4.241501,0.4262333,0.4404798,0.1008649,1.240224,-0.1697883,-0.04735849,0.6376993,0.02520641,0.2421424,6.056091,35.29
3,-0.2530212,-0.06604004,0.9651947,1.0,-0.2530212,-0.06604004,0.9651947,-35.7502,2.78241,-33.21606,3.840195,0.6935616,0.5502358,1.0,-0.03288269,-0.04278564,0.9985352,34.93918,5.508987,-33.58606,4.200333,0.4227865,0.4388765,0.1004517,1.240364,-0.171794,-0.04789926,0.6418372,0.02599768,0.2421424,6.056091,35.29
3,-0.2530212,-0.06604004,0.9651947,1.0,-0.2530212,-0.06604004,0.9651947,-35.7502,2.78241,-33.21606,3.840195,0.6935616,0.5502358,1.0,-0.03288269,-0.04278564,0.9985352,34.93918,5.508987,-33.58606,4.200333,0.4227865,0.4388765,0.1004517,1.240364,-0.171794,-0.04789926,0.6418372,0.02599768,0.2421424,6.056091,35.29
3,-0.2530212,-0.06604004,0.9651947,1.0,-0.2530212,-0.06604004,0.9651947,-35.7502,2.78241,-33.21606,3.840195,0.6935616,0.5502358,1.0,-0.03288269,-0.04278564,0.9985352,34.93918,5.508987,-33.58606,4.200333,0.4227865,0.4388765,0.1004517,1.240364,-0.171794,-0.04789926,0.6418372,0.02599768,0.2421424,6.056091,35.29
3,-0.1989441,-0.08183289,0.9765778,1.0,-0.1989441,-0.08183289,0.9765778,-35.67377,2.788132,-33.19211,3.672394,0.6834375,0.5513706,1.0,-0.01123047,-0.05252075,0.9985504,35.03935,5.507278,-33.57625,4.225296,0.4165841,0.439925,0.09998512,1.240503,-0.1737273,-0.0485388,0.6453404,0.02626881,0.2421424,6.056091,35.29
3,-0.1989441,-0.08183289,0.9765778,1.0,-0.1989441,-0.08183289,0.9765778,-35.67377,2.788132,-33.19211,3.672394,0.6834375,0.5513706,1.0,-0.01123047,-0.05252075,0.9985504,35.03935,5.507278,-33.57625,4.225296,0.4165841,0.439925,0.09998512,1.240503,-0.1737273,-0.0485388,0.6453404,0.02626881,0.2421424,6.056091,35.29
3,-0.1989441,-0.08183289,0.9765778,1.0,-0.1989441,-0.08183289,0.9765778,-35.67377,2.788132,-33.19211,3.672394,0.6834375,0.5513706,1.0,-0.01123047,-0.05252075,0.9985504,35.03935,5.507278,-33.57625,4.225296,0.4165841,0.439925,0.09998512,1.240503,-0.1737273,-0.0485388,0.6453404,0.02626881,0.2421424,6.056091,35.29
3,-0.1594391,-0.1114655,0.9808807,1.0,-0.1594391,-0.1114655,0.9808807,-35.62544,2.548401,-32.32886,3.576431,0.6749252,0.5551576,1.0,-0.01753235,-0.04878235,0.998642,35.27301,4.895172,-31.23636,4.329788,0.4109914,0.4411752,0.09954262,1.240628,-0.175378,-0.04866244,0.6480959,0.02596169,0.2421424,6.056091,35.29
3,-0.1594391,-0.1114655,0.9808807,1.0,-0.1594391,-0.1114655,0.9808807,-35.62544,2.548401,-32.32886,3.576431,0.6749252,0.5551576,1.0,-0.01753235,-0.04878235,0.998642,35.27301,4.895172,-31.23636,4.329788,0.4109914,0.4411752,0.09954262,1.240628,-0.175378,-0.04866244,0.6480959,0.02596169,0.2421424,6.056091,35.29
3,-0.1594391,-0.1114655,0.9808807,1.0,-0.1594391,-0.1114655,0.9808807,-35.62544,2.548401,-32.32886,3.576431,0.6749252,0.5551576,1.0,-0.01753235,-0.04878235,0.998642,35.27301,4.895172,-31.23636,4.329788,0.4109914,0.4411752,0.09954262,1.240628,-0.175378,-0.04866244,0.6480959,0.02596169,0.2421424,6.056091,35.29
3,-0.1016846,-0.1097717,0.988739,1.0,-0.1017151,-0.1097717,0.9887238,-34.99077,2.719269,-33.36678,3.724533,0.6463447,0.558707,1.0,0.06361389,-0.07455444,0.9951782,35.79071,4.836853,-31.63799,4.352707,0.3828063,0.4491682,0.09902334,1.240449,-0.1766011,-0.04834169,0.6487173,0.02517846,0.2421424,6.056091,35.29
3,-0.1016846,-0.1097717,0.988739,1.0,-0.1017151,-0.1097717,0.9887238,-34.99077,2.719269,-33.36678,3.724533,0.6463447,0.558707,1.0,0.06361389,-0.07455444,0.9951782,35.79071,4.836853,-31.63799,4.352707,0.3828063,0.4491682,0.09902334,1.240449,-0.1766011,-0.04834169,0.6487173,0.02517846,0.2421424,6.056091,35.29
3,-0.1016846,-0.1097717,0.988739,1.0,-0.1017151,-0.1097717,0.9887238,-34.99077,2.719269,-33.36678,3.724533,0.6463447,0.558707,1.0,0.06361389,-0.07455444,0.9951782,35.79071,4.836853,-31.63799,4.352707,0.3828063,0.4491682,0.09902334,1.240449,-0.1766011,-0.04834169,0.6487173,0.02517846,0.2421424,6.056091,35.29
3,0.05712891,-0.07221985,0.9957428,1.0,-0.08465576,-0.1122589,0.9900513,-34.85388,2.810028,-33.91989,3.724823,0.6400462,0.56108,1.0,0.08532715,-0.06404114,0.994278,35.9492,4.691849,-31.31465,4.329285,0.3750312,0.4500481,0.09838128,1.240088,-0.1768222,-0.04702774,0.6456997,0.02448461,0.2421424,-17.21707,35.29
3,0.05712891,-0.07221985,0.9957428,1.0,-0.08465576,-0.1122589,0.9900513,-34.85388,2.810028,-33.91989,3.724823,0.6400462,0.56108,1.0,0.08532715,-0.06404114,0.994278,35.9492,4.691849,-31.31465,4.329285,0.3750312,0.4500481,0.09838128,1.240088,-0.1768222,-0.04702774,0.6456997,0.02448461,0.2421424,-17.21707,35.29
3,0.05712891,-0.07221985,0.9957428,1.0,-0.08465576,-0.1122589,0.9900513,-34.85388,2.810028,-33.91989,3.724823,0.6400462,0.56108,1.0,0.08532715,-0.06404114,0.994278,35.9492,4.691849,-31.31465,4.329285,0.3750312,0.4500481,0.09838128,1.240088,-0.1768222,-0.04702774,0.6456997,0.02448461,0.2421424,-17.21707,35.29
3,0.05712891,-0.07221985,0.9957428,1.0,-0.08465576,-0.1122589,0.9900513,-34.85388,2.810028,-33.91989,3.724823,0.6400462,0.56108,1.0,0.08532715,-0.06404114,0.994278,35.9492,4.691849,-31.31465,4.329285,0.3750312,0.4500481,0.09785533,1.23987,-0.1760476,-0.0469529,0.6387103,0.02290031,0.2421424,-17.21707,35.29
3,0.05712891,-0.07221985,0.9957428,1.0,-0.08465576,-0.1122589,0.9900513,-34.85388,2.810028,-33.91989,3.724823,0.6400462,0.56108,1.0,0.08532715,-0.06404114,0.994278,35.9492,4.691849,-31.31465,4.329285,0.3750312,0.4500481,0.09785533,1.23987,-0.1760476,-0.0469529,0.6387103,0.02290031,0.2421424,-17.21707,35.29
3,0.05712891,-0.07221985,0.9957428,1.0,-0.08465576,-0.1122589,0.9900513,-34.85388,2.810028,-33.91989,3.724823,0.6400462,0.56108,1.0,0.08532715,-0.06404114,0.994278,35.9492,4.691849,-31.31465,4.329285,0.3750312,0.4500481,0.09785533,1.23987,-0.1760476,-0.0469529,0.6387103,0.02290031,0.2421424,-17.21707,35.29
3,0.07304382,-0.07426453,0.9945526,0.9667385,-0.08387756,-0.1139526,0.9899292,-34.7607,2.699829,-33.61139,3.733887,0.6361277,0.5622413,0.9712958,0.07304382,-0.07426453,0.9945526,36.07567,4.738159,-31.53291,4.194687,0.3719925,0.4514087,0.09713554,1.239612,-0.1743215,-0.04644796,0.6282977,0.02127336,0.2421424,-17.21707,35.29
3,0.07304382,-0.07426453,0.9945526,0.9667385,-0.08387756,-0.1139526,0.9899292,-34.7607,2.699829,-33.61139,3.733887,0.6361277,0.5622413,0.9712958,0.07304382,-0.07426453,0.9945526,36.07567,4.738159,-31.53291,4.194687,0.3719925,0.4514087,0.09713554,1.239612,-0.1743215,-0.04644796,0.6282977,0.02127336,0.2421424,-17.21707,35.29
3,0.07304382,-0.07426453,0.9945526,0.9667385,-0.08387756,-0.1139526,0.9899292,-34.7607,2.699829,-33.61139,3.733887,0.6361277,0.5622413,0.9712958,0.07304382,-0.07426453,0.9945526,36.07567,4.738159,-31.53291,4.194687,0.3719925,0.4514087,0.09713554,1.239612,-0.1743215,-0.04644796,0.6282977,0.02127336,0.2421424,-17.21707,35.29
3,0.2630463,-0.09408569,0.9601746,0.9912902,0.07626343,-0.1608276,0.984024,-33.81416,2.877304,-34.51213,3.692978,0.5828527,0.570533,0.9305328,0.2630768,-0.09407043,0.9601746,36.93852,4.818298,-32.42862,4.59436,0.3160454,0.4581608,0.09599304,1.239055,-0.1719614,-0.04412289,0.6138687,0.01966677,0.2421424,-17.21707,35.29
3,0.2630463,-0.09408569,0.9601746,0.9912902,0.07626343,-0.1608276,0.984024,-33.81416,2.877304,-34.51213,3.692978,0.5828527,0.570533,0.9305328,0.2630768,-0.09407043,0.9601746,36.93852,4.818298,-32.42862,4.59436,0.3160454,0.4581608,0.09599304,1.239055,-0.1719614,-0.04412289,0.6138687,0.01966677,0.2421424,-17.21707,35.29
3,0.2630463,-0.09408569,0.9601746,0.9912902,0.07626343,-0.1608276,0.984024,-33.81416,2.877304,-34.51213,3.692978,0.5828527,0.570533,0.9305328,0.2630768,-0.09407043,0.9601746,36.93852,4.818298,-32.42862,4.59436,0.3160454,0.4581608,0.09599304,1.239055,-0.1719614,-0.04412289,0.6138687,0.01966677,0.2421424,-17.21707,35.29
3,0.2630463,-0.09408569,0.9601746,0.9912902,0.07626343,-0.1608276,0.984024,-33.81416,2.877304,-34.51213,3.692978,0.5828527,0.570533,0.9305328,0.2630768,-0.09407043,0.9601746,36.93852,4.818298,-32.42862,4.59436,0.3160454,0.4581608,0.0945127,1.238091,-0.1688202,-0.04076555,0.5973294,0.01634216,0.2421424,-17.21707,35.29
3,0.2630463,-0.09408569,0.9601746,0.9912902,0.07626343,-0.1608276,0.984024,-33.81416,2.877304,-34.51213,3.692978,0.5828527,0.570533,0.9305328,0.2630768,-0.09407043,0.9601746,36.93852,4.818298,-32.42862,4.59436,0.3160454,0.4581608,0.0945127,1.238091,-0.1688202,-0.04076555,0.5973294,0.01634216,0.2421424,-17.21707,35.29
3,0.2630463,-0.09408569,0.9601746,0.9912902,0.07626343,-0.1608276,0.984024,-33.81416,2.877304,-34.51213,3.692978,0.5828527,0.570533,0.9305328,0.2630768,-0.09407043,0.9601746,36.93852,4.818298,-32.42862,4.59436,0.3160454,0.4581608,0.0945127,1.238091,-0.1688202,-0.04076555,0.5973294,0.01634216,0.2421424,-17.21707,35.29
3,0.4736786,-0.1578979,0.8664093,1.0,0.2781525,-0.2492371,0.9276276,-32.93387,2.287842,-33.57527,3.663132,0.5249854,0.595093,1.0,0.4737091,-0.1578827,0.8664093,37.77795,4.472946,-32.77454,4.579071,0.2560906,0.481822,0.09303117,1.236878,-0.1648565,-0.0357918,0.5768362,0.01224846,0.2421424,-42.48846,35.29
3,0.4736786,-0.1578979,0.8664093,1.0,0.2781525,-0.2492371,0.9276276,-32.93387,2.287842,-33.57527,3.663132,0.5249854,0.595093,1.0,0.4737091,-0.1578827,0.8664093,37.77795,4.472946,-32.77454,4.579071,0.2560906,0.481822,0.09303117,1.236878,-0.1648565,-0.0357918,0.5768362,0.01224846,0.2421424,-42.48846,35.29
3,0.4736786,-0.1578979,0.8664093,1.0,0.2781525,-0.2492371,0.9276276,-32.93387,2.287842,-33.57527,3.663132,0.5249854,0.595093,1.0,0.4737091,-0.1578827,0.8664093,37.77795,4.472946,-32.77454,4.579071,0.2560906,0.481822,0.09303117,1.236878,-0.1648565,-0.0357918,0.5768362,0.01224846,0.2421424,-42.48846,35.29
3,0.4091949,-0.3031006,0.860611,0.970763,0.4091949,-0.3031006,0.860611,-32.30031,2.112442,-33.88611,3.647293,0.485408,0.6135685,0.7897716,0.0,0.0,0.0,38.39726,4.303513,-33.21716,-1.0,0.2071768,0.5033215,0.09093165,1.235122,-0.1608375,-0.02954102,0.5549101,0.007358724,0.2421424,-42.48846,35.29
3,0.4091949,-0.3031006,0.860611,0.970763,0.4091949,-0.3031006,0.860611,-32.30031,2.112442,-33.88611,3.647293,0.485408,0.6135685,0.7897716,0.0,0.0,0.0,38.39726,4.303513,-33.21716,-1.0,0.2071768,0.5033215,0.09093165,1.235122,-0.1608375,-0.02954102,0.5549101,0.007358724,0.2421424,-42.48846,35.29
3,0.4091949,-0.3031006,0.860611,0.970763,0.4091949,-0.3031006,0.860611,-32.30031,2.112442,-33.88611,3.647293,0.485408,0.6135685,0.7897716,0.0,0.0,0.0,38.39726,4.303513,-33.21716,-1.0,0.2071768,0.5033215,0.09093165,1.235122,-0.1608375,-0.02954102,0.5549101,0.007358724,0.2421424,-42.48846,35.29
3,0.4091949,-0.3031006,0.860611,0.9624736,0.4091949,-0.3031006,0.860611,-32.30031,2.112442,-33.88611,3.647293,0.485408,0.6135685,0.7787057,0.0,0.0,0.0,38.39726,4.303513,-33.21716,-1.0,0.2071768,0.5033215,0.0886817,1.233604,-0.1567011,-0.02493643,0.532936,0.002277192,0.2421424,-42.48846,35.29
3,0.4091949,-0.3031006,0.860611,0.9624736,0.4091949,-0.3031006,0.860611,-32.30031,2.112442,-33.88611,3.647293,0.485408,0.6135685,0.7787057,0.0,0.0,0.0,38.39726,4.303513,-33.21716,-1.0,0.2071768,0.5033215,0.0886817,1.233604,-0.1567011,-0.02493643,0.532936,0.002277192,0.2421424,-42.48846,35.29
3,0.4091949,-0.3031006,0.860611,0.9624736,0.4091949,-0.3031006,0.860611,-32.30031,2.112442,-33.88611,3.647293,0.485408,0.6135685,0.7787057,0.0,0.0,0.0,38.39726,4.303513,-33.21716,-1.0,0.2071768,0.5033215,0.0886817,1.233604,-0.1567011,-0.02493643,0.532936,0.002277192,0.2421424,-42.48846,35.29
3,0.4091949,-0.3031006,0.860611,0.9624736,0.4091949,-0.3031006,0.860611,-32.30031,2.112442,-33.88611,3.647293,0.485408,0.6135685,0.7787057,0.0,0.0,0.0,38.39726,4.303513,-33.21716,-1.0,0.2071768,0.5033215,0.08565736,1.23176,-0.1532301,-0.02063855,0.5115502,-0.002370177,0.2421424,-42.48846,35.29
3,0.4091949,-0.3031006,0.860611,0.9624736,0.4091949,-0.3031006,0.860611,-32.30031,2.112442,-33.88611,3.647293,0.485408,0.6135685,0.7787057,0.0,0.0,0.0,38.39726,4.303513,-33.21716,-1.0,0.2071768,0.5033215,0.08565736,1.23176,-0.1532301,-0.02063855,0.5115502,-0.002370177,0.2421424,-42.48846,35.29
3,0.4091949,-0.3031006,0.860611,0.9624736,0.4091949,-0.3031006,0.860611,-32.30031,2.112442,-33.88611,3.647293,0.485408,0.6135685,0.7787057,0.0,0.0,0.0,38.39726,4.303513,-33.21716,-1.0,0.2071768,0.5033215,0.08565736,1.23176,-0.1532301,-0.02063855,0.5115502,-0.002370177,0.2421424,-42.48846,35.29
3,0.4400024,-0.2776642,0.8539734,0.9357581,0.4400024,-0.2776642,0.8539734,-32.37668,2.217331,-33.8672,3.783478,0.484519,0.6066359,0.7710488,0.0,0.0,0.0,38.34004,4.423584,-33.15506,-1.0,0.2109163,0.4972192,0.08277178,1.230278,-0.1498192,-0.017237,0.4911485,-0.006327671,0.2421424,-42.48846,35.29
3,0.4400024,-0.2776642,0.8539734,0.9357581,0.4400024,-0.2776642,0.8539734,-32.37668,2.217331,-33.8672,3.783478,0.484519,0.6066359,0.7710488,0.0,0.0,0.0,38.34004,4.423584,-33.15506,-1.0,0.2109163,0.4972192,0.08277178,1.230278,-0.1498192,-0.017237,0.4911485,-0.006327671,0.2421424,-42.48846,35.29
3,0.4400024,-0.2776642,0.8539734,0.9357581,0.4400024,-0.2776642,0.8539734,-32.37668,2.217331,-33.8672,3.783478,0.484519,0.6066359,0.7710488,0.0,0.0,0.0,38.34004,4.423584,-33.15506,-1.0,0.2109163,0.4972192,0.08277178,1.230278,-0.1498192,-0.017237,0.4911485,-0.006327671,0.2421424,-42.48846,35.29
3,0.4553528,-0.2317352,0.8596039,0.9450141,0.3690186,-0.2639618,0.8911438,-32.69167,2.293304,-33.68449,3.728531,0.5048936,0.5990759,0.8118251,0.535141,-0.198288,0.8211517,38.01819,4.48764,-32.90141,4.542358,0.2376243,0.4881268,0.07920384,1.228547,-0.1470918,-0.01277721,0.4706268,-0.00905956,0.2421424,-42.48846,35.29
3,0.4553528,-0.2317352,0.8596039,0.9450141,0.3690186,-0.2639618,0.8911438,-32.69167,2.293304,-33.68449,3.728531,0.5048936,0.5990759,0.8118251,0.535141,-0.198288,0.8211517,38.01819,4.48764,-32.90141,4.542358,0.2376243,0.4881268,0.07920384,1.228547,-0.1470918,-0.01277721,0.4706268,-0.00905956,0.2421424,-42.48846,35.29
3,0.4553528,-0.2317352,0.8596039,0.9450141,0.3690186,-0.2639618,0.8911438,-32.69167,2.293304,-33.68449,3.728531,0.5048936,0.5990759,0.8118251,0.535141,-0.198288,0.8211517,38.01819,4.48764,-32.90141,4.542358,0.2376243,0.4881268,0.07920384,1.228547,-0.1470918,-0.01277721,0.4706268,-0.00905956,0.2421424,-42.48846,35.29
3,0.3732605,-0.2121735,0.9031219,1.0,0.2907257,-0.2407227,0.9260101,-33.05653,2.32222,-33.52344,3.601822,0.5276486,0.5923691,1.0,0.4642792,-0.1772614,0.8677521,37.63217,4.539917,-32.70583,4.623077,0.2629848,0.4813776,0.07579136,1.227132,-0.1442166,-0.009258855,0.4505791,-0.01405824,0.2421424,35.83478,35.29
3,0.3732605,-0.2121735,0.9031219,1.0,0.2907257,-0.2407227,0.9260101,-33.05653,2.32222,-33.52344,3.601822,0.5276486,0.5923691,1.0,0.4642792,-0.1772614,0.8677521,37.63217,4.539917,-32.70583,4.623077,0.2629848,0.4813776,0.07579136,1.227132,-0.1442166,-0.009258855,0.4505791,-0.01405824,0.2421424,35.83478,35.29
3,0.3732605,-0.2121735,0.9031219,1.0,0.2907257,-0.2407227,0.9260101,-33.05653,2.32222,-33.52344,3.601822,0.5276486,0.5923691,1.0,0.4642792,-0.1772614,0.8677521,37.63217,4.539917,-32.70583,4.623077,0.2629848,0.4813776,0.07579136,1.227132,-0.1442166,-0.009258855,0.4505791,-0.01405824,0.2421424,35.83478,35.29
3,0.3732605,-0.2121735,0.9031219,1.0,0.2907257,-0.2407227,0.9260101,-33.05653,2.32222,-33.52344,3.601822,0.5276486,0.5923691,1.0,0.4642792,-0.1772614,0.8677521,37.63217,4.539917,-32.70583,4.623077,0.2629848,0.4813776,0.07516742,1.228015,-0.1397234,-0.006684952,0.429313,-0.01788111,0.2421424,35.83478,35.29
3,0.3732605,-0.2121735,0.9031219,1.0,0.2907257,-0.2407227,0.9260101,-33.05653,2.32222,-33.52344,3.601822,0.5276486,0.5923691,1.0,0.4642792,-0.1772614,0.8677521,37.63217,4.539917,-32.70583,4.623077,0.2629848,0.4813776,0.07516742,1.228015,-0.1397234,-0.006684952,0.429313,-0.01788111,0.2421424,35.83478,35.29
3,0.3732605,-0.2121735,0.9031219,1.0,0.2907257,-0.2407227,0.9260101,-33.05653,2.32222,-33.52344,3.601822,0.5276486,0.5923691,1.0,0.4642792,-0.1772614,0.8677521,37.63217,4.539917,-32.70583,4.623077,0.2629848,0.4813776,0.07516742,1.228015,-0.1397234,-0.006684952,0.429313,-0.01788111,0.2421424,35.83478,35.29
3,0.3732605,-0.2121735,0.9031219,1.0,0.2907257,-0.2407227,0.9260101,-33.05653,2.32222,-33.52344,3.601822,0.5276486,0.5923691,1.0,0.4642792,-0.1772614,0.8677521,37.63217,4.539917,-32.70583,4.623077,0.2629848,0.4813776,0.07107759,1.226618,-0.1369668,-0.00507143,0.4073512,-0.02317344,0.2421424,35.83478,35.29
3,0.3732605,-0.2121735,0.9031219,1.0,0.2907257,-0.2407227,0.9260101,-33.05653,2.32222,-33.52344,3.601822,0.5276486,0.5923691,1.0,0.4642792,-0.1772614,0.8677521,37.63217,4.539917,-32.70583,4.623077,0.2629848,0.4813776,0.07107759,1.226618,-0.1369668,-0.00507143,0.4073512,-0.02317344,0.2421424,35.83478,35.29
3,0.3732605,-0.2121735,0.9031219,1.0,0.2907257,-0.2407227,0.9260101,-33.05653,2.32222,-33.52344,3.601822,0.5276486,0.5923691,1.0,0.4642792,-0.1772614,0.8677521,37.63217,4.539917,-32.70583,4.623077,0.2629848,0.4813776,0.07107759,1.226618,-0.1369668,-0.00507143,0.4073512,-0.02317344,0.2421424,35.83478,35.29
4,0.222702,-0.193634,0.9554596,1.0,0.1581726,-0.2086792,0.9651031,-33.59682,2.404907,-33.34125,3.717758,0.5637277,0.5824465,1.0,0.3287659,-0.1664276,0.9296112,37.04202,4.631592,-32.46306,4.500732,0.3037205,0.4741647,0.0664618,1.225705,-0.1343964,-0.004596721,0.3863738,-0.02633043,0.2421424,35.83478,35.29
4,0.222702,-0.193634,0.9554596,1.0,0.1581726,-0.2086792,0.9651031,-33.59682,2.404907,-33.34125,3.717758,0.5637277,0.5824465,1.0,0.3287659,-0.1664276,0.9296112,37.04202,4.631592,-32.46306,4.500732,0.3037205,0.4741647,0.0664618,1.225705,-0.1343964,-0.004596721,0.3863738,-0.02633043,0.2421424,35.83478,35.29
4,0.222702,-0.193634,0.9554596,1.0,0.1581726,-0.2086792,0.9651031,-33.59682,2.404907,-33.34125,3.717758,0.5637277,0.5824465,1.0,0.3287659,-0.1664276,0.9296112,37.04202,4.631592,-32.46306,4.500732,0.3037205,0.4741647,0.0664618,1.225705,-0.1343964,-0.004596721,0.3863738,-0.02633043,0.2421424,35.83478,35.29
4,0.2745972,-0.1830902,0.9439545,1.0,0.1829071,-0.2046204,0.9615936,-33.29198,2.578186,-33.3678,3.751144,0.5498417,0.5761073,1.0,0.3851929,-0.1539307,0.9098969,37.28508,4.75383,-32.53011,4.505417,0.2873061,0.4689649,0.06233215,1.225744,-0.1314933,-0.006289879,0.3636342,-0.02666419,0.2421424,12.01361,35.29
4,0.2745972,-0.1830902,0.9439545,1.0,0.1829071,-0.2046204,0.9615936,-33.29198,2.578186,-33.3678,3.751144,0.5498417,0.5761073,1.0,0.3851929,-0.1539307,0.9098969,37.28508,4.75383,-32.53011,4.505417,0.2873061,0.4689649,0.06233215,1.225744,-0.1314933,-0.006289879,0.3636342,-0.02666419,0.2421424,12.01361,35.29
4,0.2745972,-0.1830902,0.9439545,1.0,0.1829071,-0.2046204,0.9615936,-33.29198,2.578186,-33.3678,3.751144,0.5498417,0.5761073,1.0,0.3851929,-0.1539307,0.9098969,37.28508,4.75383,-32.53011,4.505417,0.2873061,0.4689649,0.06233215,1.225744,-0.1314933,-0.006289879,0.3636342,-0.02666419,0.2421424,12.01361,35.29
4,0.3731384,-0.147522,0.9159546,0.9546934,0.2934265,-0.1710358,0.9405518,-32.82852,2.753433,-33.50034,3.640457,0.5193928,0.5675598,0.8408828,0.4958191,-0.1072388,0.8617706,37.6969,4.839325,-32.71967,4.656937,0.2561537,0.462065,0.05715466,1.225563,-0.1291139,-0.008681595,0.3411519,-0.02879463,0.2421424,12.01361,35.29
4,0.3731384,-0.147522,0.9159546,0.9546934,0.2934265,-0.1710358,0.9405518,-32.82852,2.753433,-33.50034,3.640457,0.5193928,0.5675598,0.8408828,0.4958191,-0.1072388,0.8617706,37.6969,4.839325,-32.71967,4.656937,0.2561537,0.462065,0.05715466,1.225563,-0.1291139,-0.008681595,0.3411519,-0.02879463,0.2421424,12.01361,35.29
4,0.3731384,-0.147522,0.9159546,0.9546934,0.2934265,-0.1710358,0.9405518,-32.82852,2.753433,-33.50034,3.640457,0.5193928,0.5675598,0.8408828,0.4958191,-0.1072388,0.8617706,37.6969,4.839325,-32.71967,4.656937,0.2561537,0.462065,0.05715466,1.225563,-0.1291139,-0.008681595,0.3411519,-0.02879463,0.2421424,12.01361,35.29
4,0.3170929,-0.1369781,0.938446,0.9919169,0.253067,-0.1456146,0.9564209,-33.09171,2.712433,-33.46158,3.596909,0.5337732,0.5650008,0.8911298,0.3866272,-0.1266632,0.9134827,37.52483,4.853912,-32.55956,4.229843,0.2784573,0.4619177,0.05226374,1.226453,-0.1266646,-0.01321182,0.318666,-0.02928467,0.2421424,12.01361,35.29
4,0.3170929,-0.1369781,0.938446,0.9919169,0.253067,-0.1456146,0.9564209,-33.09171,2.712433,-33.46158,3.596909,0.5337732,0.5650008,0.8911298,0.3866272,-0.1266632,0.9134827,37.52483,4.853912,-32.55956,4.229843,0.2784573,0.4619177,0.05226374,1.226453,-0.1266646,-0.01321182,0.318666,-0.02928467,0.2421424,12.01361,35.29
4,0.3170929,-0.1369781,0.938446,0.9919169,0.253067,-0.1456146,0.9564209,-33.09171,2.712433,-33.46158,3.596909,0.5337732,0.5650008,0.8911298,0.3866272,-0.1266632,0.9134827,37.52483,4.853912,-32.55956,4.229843,0.2784573,0.4619177,0.05226374,1.226453,-0.1266646,-0.01321182,0.318666,-0.02928467,0.2421424,12.01361,35.29
4,0.297287,-0.1485443,0.9431458,1.0,0.2121124,-0.1687164,0.9625549,-33.28107,2.717438,-33.401,3.632645,0.5456629,0.5669746,1.0,0.4046326,-0.1204834,0.9064941,37.32751,4.860397,-32.54506,4.493225,0.2831448,0.4611648,0.04699326,1.227107,-0.1242128,-0.01793187,0.2944502,-0.02996646,0.2421424,12.01361,35.29
4,0.297287,-0.1485443,0.9431458,1.0,0.2121124,-0.1687164,0.9625549,-33.28107,2.717438,-33.401,3.632645,0.5456629,0.5669746,1.0,0.4046326,-0.1204834,0.9064941,37.32751,4.860397,-32.54506,4.493225,0.2831448,0.4611648,0.04699326,1.227107,-0.1242128,-0.01793187,0.2944502,-0.02996646,0.2421424,12.01361,35.29
4,0.297287,-0.1485443,0.9431458,1.0,0.2121124,-0.1687164,0.9625549,-33.28107,2.717438,-33.401,3.632645,0.5456629,0.5669746,1.0,0.4046326,-0.1204834,0.9064941,37.32751,4.860397,-32.54506,4.493225,0.2831448,0.4611648,0.04699326,1.227107,-0.1242128,-0.01793187,0.2944502,-0.02996646,0.2421424,12.01361,35.29
4,0.2197113,-0.1461334,0.9645538,0.9968206,0.1187286,-0.1646271,0.9791718,-33.63242,2.627563,-33.37103,3.772842,0.5700486,0.5689629,0.9571422,0.2991791,-0.130127,0.9452667,36.99048,4.783066,-32.42535,4.634918,0.3094603,0.4639024,0.0411644,1.228048,-0.1216719,-0.02448354,0.2690254,-0.03153008,0.2421424,12.01361,35.29
4,0.2197113,-0.1461334,0.9645538,0.9968206,0.1187286,-0.1646271,0.9791718,-33.63242,2.627563,-33.37103,3.772842,0.5700486,0.5689629,0.9571422,0.2991791,-0.130127,0.9452667,36.99048,4.783066,-32.42535,4.634918,0.3094603,0.4639024,0.0411644,1.228048,-0.1216719,-0.02448354,0.2690254,-0.03153008,0.2421424,12.01361,35.29
4,0.2197113,-0.1461334,0.9645538,0.9968206,0.1187286,-0.1646271,0.9791718,-33.63242,2.627563,-33.37103,3.772842,0.5700486,0.5689629,0.9571422,0.2991791,-0.130127,0.9452667,36.99048,4.783066,-32.42535,4.634918,0.3094603,0.4639024,0.0411644,1.228048,-0.1216719,-0.02448354,0.2690254,-0.03153008,0.2421424,12.01361,35.29
4,0.1764069,-0.1564026,0.9718018,0.9881967,0.08030701,-0.1807861,0.9802246,-33.72542,2.665527,-33.43208,3.684464,0.5780801,0.5701361,0.963344,0.2641296,-0.1323395,0.9553528,36.87726,4.785934,-32.39255,4.587372,0.3181407,0.4637748,0.03441262,1.229692,-0.1189509,-0.03352092,0.2394622,-0.03168024,0.2421424,12.01361,35.29
4,0.1764069,-0.1564026,0.9718018,0.9881967,0.08030701,-0.1807861,0.9802246,-33.72542,2.665527,-33.43208,3.684464,0.5780801,0.5701361,0.963344,0.2641296,-0.1323395,0.9553528,36.87726,4.785934,-32.39255,4.587372,0.3181407,0.4637748,0.03441262,1.229692,-0.1189509,-0.03352092,0.2394622,-0.03168024,0.2421424,12.01361,35.29
4,0.1764069,-0.1564026,0.9718018,0.9881967,0.08030701,-0.1807861,0.9802246,-33.72542,2.665527,-33.43208,3.684464,0.5780801,0.5701361,0.963344,0.2641296,-0.1323395,0.9553528,36.87726,4.785934,-32.39255,4.587372,0.3181407,0.4637748,0.03441262,1.229692,-0.1189509,-0.03352092,0.2394622,-0.03168024,0.2421424,12.01361,35.29
4,0.1764069,-0.1564026,0.9718018,0.9881967,0.08030701,-0.1807861,0.9802246,-33.72542,2.665527,-33.43208,3.684464,0.5780801,0.5701361,0.963344,0.2641296,-0.1323395,0.9553528,36.87726,4.785934,-32.39255,4.587372,0.3181407,0.4637748,0.02755666,1.231001,-0.1162812,-0.04095636,0.207442,-0.03359707,0.2421424,0.349884,35.29
4,0.1764069,-0.1564026,0.9718018,0.9881967,0.08030701,-0.1807861,0.9802246,-33.72542,2.665527,-33.43208,3.684464,0.5780801,0.5701361,0.963344,0.2641296,-0.1323395,0.9553528,36.87726,4.785934,-32.39255,4.587372,0.3181407,0.4637748,0.02755666,1.231001,-0.1162812,-0.04095636,0.207442,-0.03359707,0.2421424,0.349884,35.29
4,0.1764069,-0.1564026,0.9718018,0.9881967,0.08030701,-0.1807861,0.9802246,-33.72542,2.665527,-33.43208,3.684464,0.5780801,0.5701361,0.963344,0.2641296,-0.1323395,0.9553528,36.87726,4.785934,-32.39255,4.587372,0.3181407,0.4637748,0.02755666,1.231001,-0.1162812,-0.04095636,0.207442,-0.03359707,0.2421424,0.349884,35.29
4,0.1643372,-0.1464996,0.9754486,0.9881967,0.05787659,-0.1806946,0.9818268,-33.7608,2.702133,-33.55876,3.665787,0.5822433,0.5699965,0.963344,0.2360535,-0.1220398,0.964035,36.83118,4.79483,-32.38155,4.607574,0.3233704,0.462074,0.02068639,1.232202,-0.1140057,-0.04786246,0.178022,-0.03466238,0.2421424,0.349884,35.29
4,0.1643372,-0.1464996,0.9754486,0.9881967,0.05787659,-0.1806946,0.9818268,-33.7608,2.702133,-33.55876,3.665787,0.5822433,0.5699965,0.963344,0.2360535,-0.1220398,0.964035,36.83118,4.79483,-32.38155,4.607574,0.3233704,0.462074,0.02068639,1.232202,-0.1140057,-0.04786246,0.178022,-0.03466238,0.2421424,0.349884,35.29
4,0.1643372,-0.1464996,0.9754486,0.9881967,0.05787659,-0.1806946,0.9818268,-33.7608,2.702133,-33.55876,3.665787,0.5822433,0.5699965,0.963344,0.2360535,-0.1220398,0.964035,36.83118,4.79483,-32.38155,4.607574,0.3233704,0.462074,0.02068639,1.232202,-0.1140057,-0.04786246,0.178022,-0.03466238,0.2421424,0.349884,35.29
4,0.1643372,-0.1464996,0.9754486,0.9881967,0.05787659,-0.1806946,0.9818268,-33.7608,2.702133,-33.55876,3.665787,0.5822433,0.5699965,0.963344,0.2360535,-0.1220398,0.964035,36.83118,4.79483,-32.38155,4.607574,0.3233704,0.462074,0.01425719,1.23273,-0.1125043,-0.04990049,0.1522935,-0.03543678,0.2421424,0.349884,35.29
4,0.1643372,-0.1464996,0.9754486,0.9881967,0.05787659,-0.1806946,0.9818268,-33.7608,2.702133,-33.55876,3.665787,0.5822433,0.5699965,0.963344,0.2360535,-0.1220398,0.964035,36.83118,4.79483,-32.38155,4.607574,0.3233704,0.462074,0.01425719,1.23273,-0.1125043,-0.04990049,0.1522935,-0.03543678,0.2421424,0.349884,35.29
4,0.1643372,-0.1464996,0.9754486,0.9881967,0.05787659,-0.1806946,0.9818268,-33.7608,2.702133,-33.55876,3.665787,0.5822433,0.5699965,0.963344,0.2360535,-0.1220398,0.964035,36.83118,4.79483,-32.38155,4.607574,0.3233704,0.462074,0.01425719,1.23273,-0.1125043,-0.04990049,0.1522935,-0.03543678,0.2421424,0.349884,35.29
4,0.4276123,-0.09773254,0.8986511,0.9077843,0.4146881,-0.1008148,0.9043427,-32.39481,2.805939,-33.77934,3.922638,0.489261,0.5607629,0.8658677,0.5946503,-0.05360413,0.8021851,38.18007,4.85257,-32.98598,4.654907,0.2221375,0.4574214,0.008756399,1.232836,-0.1111913,-0.04990138,0.1338432,-0.03444352,0.2421424,0.349884,35.29
4,0.4276123,-0.09773254,0.8986511,0.9077843,0.4146881,-0.1008148,0.9043427,-32.39481,2.805939,-33.77934,3.922638,0.489261,0.5607629,0.8658677,0.5946503,-0.05360413,0.8021851,38.18007,4.85257,-32.98598,4.654907,0.2221375,0.4574214,0.008756399,1.232836,-0.1111913,-0.04990138,0.1338432,-0.03444352,0.2421424,0.349884,35.29
4,0.4276123,-0.09773254,0.8986511,0.9077843,0.4146881,-0.1008148,0.9043427,-32.39481,2.805939,-33.77934,3.922638,0.489261,0.5607629,0.8658677,0.5946503,-0.05360413,0.8021851,38.18007,4.85257,-32.98598,4.654907,0.2221375,0.4574214,0.008756399,1.232836,-0.1111913,-0.04990138,0.1338432,-0.03444352,0.2421424,0.349884,35.29
4,0.3634338,-0.09495544,0.9267578,0.9490308,0.359726,-0.09529114,0.9281616,-32.73904,2.777313,-33.65543,3.873245,0.5084312,0.5592318,0.9000902,0.5135651,-0.07943726,0.8543549,37.89261,4.886948,-32.77994,4.788269,0.2458703,0.4572621,0.003503561,1.233359,-0.1099779,-0.05033843,0.1173477,-0.03337792,0.2421424,0.349884,35.29
4,0.3634338,-0.09495544,0.9267578,0.9490308,0.359726,-0.09529114,0.9281616,-32.73904,2.777313,-33.65543,3.873245,0.5084312,0.5592318,0.9000902,0.5135651,-0.07943726,0.8543549,37.89261,4.886948,-32.77994,4.788269,0.2458703,0.4572621,0.003503561,1.233359,-0.1099779,-0.05033843,0.1173477,-0.03337792,0.2421424,0.349884,35.29
4,0.3634338,-0.09495544,0.9267578,0.9490308,0.359726,-0.09529114,0.9281616,-32.73904,2.777313,-33.65543,3.873245,0.5084312,0.5592318,0.9000902,0.5135651,-0.07943726,0.8543549,37.89261,4.886948,-32.77994,4.788269,0.2458703,0.4572621,0.003503561,1.233359,-0.1099779,-0.05033843,0.1173477,-0.03337792,0.2421424,0.349884,35.29
4,0.380722,-0.07069397,0.9219666,0.9534659,0.3257141,-0.09686279,0.9404907,-32.87761,2.75296,-33.6068,3.837631,0.5175831,0.5594675,0.9013759,0.4874115,-0.01681519,0.8730011,37.71281,4.901733,-32.73927,4.744324,0.2565868,0.4485143,-0.001626492,1.233872,-0.1093916,-0.04973688,0.1017464,-0.03528634,0.2421424,-18.79535,35.29
4,0.380722,-0.07069397,0.9219666,0.9534659,0.3257141,-0.09686279,0.9404907,-32.87761,2.75296,-33.6068,3.837631,0.5175831,0.5594675,0.9013759,0.4874115,-0.01681519,0.8730011,37.71281,4.901733,-32.73927,4.744324,0.2565868,0.4485143,-0.001626492,1.233872,-0.1093916,-0.04973688,0.1017464,-0.03528634,0.2421424,-18.79535,35.29
4,0.380722,-0.07069397,0.9219666,0.9534659,0.3257141,-0.09686279,0.9404907,-32.87761,2.75296,-33.6068,3.837631,0.5175831,0.5594675,0.9013759,0.4874115,-0.01681519,0.8730011,37.71281,4.901733,-32.73927,4.744324,0.2565868,0.4485143,-0.001626492,1.233872,-0.1093916,-0.04973688,0.1017464,-0.03528634,0.2421424,-18.79535,35.29
4,0.380722,-0.07069397,0.9219666,0.9534659,0.3257141,-0.09686279,0.9404907,-32.87761,2.75296,-33.6068,3.837631,0.5175831,0.5594675,0.9013759,0.4874115,-0.01681519,0.8730011,37.71281,4.901733,-32.73927,4.744324,0.2565868,0.4485143,-0.005789518,1.234599,-0.1094654,-0.05062211,0.09090371,-0.03674195,0.2421424,-18.79535,35.29
