Second,eye_comb_direction_x,eye_comb_direction_y,eye_comb_direction_z,eye_r_openness,eye_r_direction_x,eye_r_direction_y,eye_r_direction_z,eye_r_origin_x,eye_r_origin_y,eye_r_origin_z,eye_r_pupil_diameter,eye_r_pupil_position_x,eye_r_pupil_position_y,eye_l_openness,eye_l_direction_x,eye_l_direction_y,eye_l_direction_z,eye_l_origin_x,eye_l_origin_y,eye_l_origin_z,eye_l_pupil_diameter,eye_l_pupil_position_x,eye_l_pupil_position_y,head_position_x,head_position_y,head_position_z,head_rotation_roll,head_rotation_pitch,head_rotation_yaw,EDA,BVP,TMP
0,0.03875732,-0.1179198999999999,0.9922638,0.8888943000000001,0.02851868,-0.1292419,0.9911957,-28.88051,4.680191000000001,-22.03992,4.912949,0.3999267,0.3934953,0.8483207,0.04820251,-0.1074523999999999,0.9930267,33.65417,5.209198000000001,-25.06958,4.9329220000000005,0.4597505999999999,0.3941989999999999,-0.2887044,1.23954,-0.1072366,-0.05407222,0.7711524000000001,0.06167955,0.08713049,0.15492418232526178,33.10777333999002
0,0.03875732,-0.1179198999999999,0.9922638,0.8888943000000001,0.02851868,-0.1292419,0.9911957,-28.88051,4.680191000000001,-22.03992,4.912949,0.3999267,0.3934953,0.8483207,0.04820251,-0.1074523999999999,0.9930267,33.65417,5.209198000000001,-25.06958,4.9329220000000005,0.4597505999999999,0.3941989999999999,-0.2887044,1.23954,-0.1072366,-0.05407222,0.7711524000000001,0.06167955,0.08713049,0.15492418232526178,33.10777333999002
0,0.03875732,-0.1179198999999999,0.9922638,0.8888943000000001,0.02851868,-0.1292419,0.9911957,-28.88051,4.680191000000001,-22.03992,4.912949,0.3999267,0.3934953,0.8483207,0.04820251,-0.1074523999999999,0.9930267,33.65417,5.209198000000001,-25.06958,4.9329220000000005,0.4597505999999999,0.3941989999999999,-0.2887044,1.23954,-0.1072366,-0.05407222,0.7711524000000001,0.06167955,0.08713049,0.15492418232526178,33.10777333999002
0,0.03875732,-0.1179198999999999,0.9922638,0.8888943000000001,0.02851868,-0.1292419,0.9911957,-28.88051,4.680191000000001,-22.03992,4.912949,0.3999267,0.3934953,0.8483207,0.04820251,-0.1074523999999999,0.9930267,33.65417,5.209198000000001,-25.06958,4.9329220000000005,0.4597505999999999,0.3941989999999999,-0.2887044,1.23954,-0.1072366,-0.05407222,0.7711524000000001,0.06167955,0.08713049,0.15492418232526178,33.10777333999002
0,0.0388031,-0.1166077,0.9924164,0.9239209,0.02938843,-0.1264954,0.9915161,-28.8877,4.672775,-21.94481,4.914139,0.4000752,0.3925464,0.8646215,0.04806519,-0.1068573,0.993103,33.64597,5.19252,-25.01645,4.914185,0.460052,0.3942212,-0.2886732,1.239661,-0.1073201,-0.05406244,0.7711278,0.06175259,0.08713049,0.15492418232526178,33.10777333999002
0,0.0388031,-0.1166077,0.9924164,0.9239209,0.02938843,-0.1264954,0.9915161,-28.8877,4.672775,-21.94481,4.914139,0.4000752,0.3925464,0.8646215,0.04806519,-0.1068573,0.993103,33.64597,5.19252,-25.01645,4.914185,0.460052,0.3942212,-0.2886732,1.239661,-0.1073201,-0.05406244,0.7711278,0.06175259,0.08713049,0.15492418232526178,33.10777333999002
0,0.0388031,-0.1166077,0.9924164,0.9239209,0.02938843,-0.1264954,0.9915161,-28.8877,4.672775,-21.94481,4.914139,0.4000752,0.3925464,0.8646215,0.04806519,-0.1068573,0.993103,33.64597,5.19252,-25.01645,4.914185,0.460052,0.3942212,-0.2886732,1.239661,-0.1073201,-0.05406244,0.7711278,0.06175259,0.08713049,0.15492418232526178,33.10777333999002
0,0.03994751,-0.1156158,0.9924774,0.9102801,0.02981567,-0.1265259,0.9915009,-28.88959,4.672775,-21.94481,4.874603,0.4000752,0.3925464,0.8829594000000001,0.04833984,-0.1065368999999999,0.9931183,33.64206,5.187531,-25.01312,4.891891,0.4601364,0.3943004,-0.2886264,1.239649,-0.1074384,-0.05409092,0.7711539000000001,0.06171146,0.08713049,0.15492418232526178,33.10777333999002
0,0.03994751,-0.1156158,0.9924774,0.9102801,0.02981567,-0.1265259,0.9915009,-28.88959,4.672775,-21.94481,4.874603,0.4000752,0.3925464,0.8829594000000001,0.04833984,-0.1065368999999999,0.9931183,33.64206,5.187531,-25.01312,4.891891,0.4601364,0.3943004,-0.2886264,1.239649,-0.1074384,-0.05409092,0.7711539000000001,0.06171146,0.08713049,0.15492418232526178,33.10777333999002
0,0.03994751,-0.1156158,0.9924774,0.9102801,0.02981567,-0.1265259,0.9915009,-28.88959,4.672775,-21.94481,4.874603,0.4000752,0.3925464,0.8829594000000001,0.04833984,-0.1065368999999999,0.9931183,33.64206,5.187531,-25.01312,4.891891,0.4601364,0.3943004,-0.2886264,1.239649,-0.1074384,-0.05409092,0.7711539000000001,0.06171146,0.08713049,0.15492418232526178,33.10777333999002
0,0.04008484,-0.1181641,0.9921722,0.9346781,0.02998352,-0.1250763,0.991684,-28.8963,4.672775,-21.94481,4.857986,0.4002680999999999,0.3923124,0.8806690999999999,0.05543518,-0.1076355,0.99263,33.60225,5.148499,-24.83115,4.816330000000001,0.4603265,0.3943004,-0.2886225999999999,1.239673,-0.1075,-0.05409691,0.7713131,0.06158583,0.08713049,0.15492418232526178,33.10777333999002
0,0.04008484,-0.1181641,0.9921722,0.9346781,0.02998352,-0.1250763,0.991684,-28.8963,4.672775,-21.94481,4.857986,0.4002680999999999,0.3923124,0.8806690999999999,0.05543518,-0.1076355,0.99263,33.60225,5.148499,-24.83115,4.816330000000001,0.4603265,0.3943004,-0.2886225999999999,1.239673,-0.1075,-0.05409691,0.7713131,0.06158583,0.08713049,0.15492418232526178,33.10777333999002
0,0.04008484,-0.1181641,0.9921722,0.9346781,0.02998352,-0.1250763,0.991684,-28.8963,4.672775,-21.94481,4.857986,0.4002680999999999,0.3923124,0.8806690999999999,0.05543518,-0.1076355,0.99263,33.60225,5.148499,-24.83115,4.816330000000001,0.4603265,0.3943004,-0.2886225999999999,1.239673,-0.1075,-0.05409691,0.7713131,0.06158583,0.08713049,0.15492418232526178,33.10777333999002
0,0.03674316,-0.1205444,0.9920197,0.9392549,0.03216553,-0.1233978,0.9918213,-28.90201,4.681702,-22.01256,4.771118,0.4000752,0.3922632,0.9050333,0.05581665,-0.1086121,0.9925079,33.594559999999994,5.143219,-24.79451,4.742447,0.4605162,0.3943267,-0.288612,1.239643,-0.1074841,-0.05413856,0.7714295,0.06160029,0.08713049,0.15492418232526178,33.10777333999002
0,0.03674316,-0.1205444,0.9920197,0.9392549,0.03216553,-0.1233978,0.9918213,-28.90201,4.681702,-22.01256,4.771118,0.4000752,0.3922632,0.9050333,0.05581665,-0.1086121,0.9925079,33.594559999999994,5.143219,-24.79451,4.742447,0.4605162,0.3943267,-0.288612,1.239643,-0.1074841,-0.05413856,0.7714295,0.06160029,0.08713049,0.15492418232526178,33.10777333999002
0,0.03674316,-0.1205444,0.9920197,0.9392549,0.03216553,-0.1233978,0.9918213,-28.90201,4.681702,-22.01256,4.771118,0.4000752,0.3922632,0.9050333,0.05581665,-0.1086121,0.9925079,33.594559999999994,5.143219,-24.79451,4.742447,0.4605162,0.3943267,-0.288612,1.239643,-0.1074841,-0.05413856,0.7714295,0.06160029,0.08713049,0.15492418232526178,33.10777333999002
0,0.04632568,-0.1140137,0.9923859,0.9425134,0.03343201,-0.123291,0.9917908,-28.90807,4.696625,-22.07785,4.71994,0.400036,0.3922632,0.9090087,0.05444336,-0.1081543,0.99263,33.594559999999994,5.143448,-24.78432,4.679108,0.4607369,0.3941514,-0.2886089,1.239603,-0.1074529999999999,-0.05402725,0.7712833,0.06168731,0.08713049,0.15492418232526178,33.10777333999002
0,0.04632568,-0.1140137,0.9923859,0.9425134,0.03343201,-0.123291,0.9917908,-28.90807,4.696625,-22.07785,4.71994,0.400036,0.3922632,0.9090087,0.05444336,-0.1081543,0.99263,33.594559999999994,5.143448,-24.78432,4.679108,0.4607369,0.3941514,-0.2886089,1.239603,-0.1074529999999999,-0.05402725,0.7712833,0.06168731,0.08713049,0.15492418232526178,33.10777333999002
0,0.04632568,-0.1140137,0.9923859,0.9425134,0.03343201,-0.123291,0.9917908,-28.90807,4.696625,-22.07785,4.71994,0.400036,0.3922632,0.9090087,0.05444336,-0.1081543,0.99263,33.594559999999994,5.143448,-24.78432,4.679108,0.4607369,0.3941514,-0.2886089,1.239603,-0.1074529999999999,-0.05402725,0.7712833,0.06168731,0.08713049,0.15492418232526178,33.10777333999002
0,0.04634094,-0.1138306,0.9924164,0.9545768,0.03427124,-0.1261749,0.9914093,-28.90973,4.707443,-22.093770000000003,4.606857,0.3999504,0.3924917999999999,0.9103747,0.05473328,-0.1052246,0.9929352,33.59317,5.1390080000000005,-24.75586,4.62294,0.4607369,0.3935592,-0.288587,1.239547,-0.1074207,-0.0539431,0.7712339,0.06177563,0.08713049,0.15492418232526178,33.10777333999002
0,0.04634094,-0.1138306,0.9924164,0.9545768,0.03427124,-0.1261749,0.9914093,-28.90973,4.707443,-22.093770000000003,4.606857,0.3999504,0.3924917999999999,0.9103747,0.05473328,-0.1052246,0.9929352,33.59317,5.1390080000000005,-24.75586,4.62294,0.4607369,0.3935592,-0.288587,1.239547,-0.1074207,-0.0539431,0.7712339,0.06177563,0.08713049,0.15492418232526178,33.10777333999002
0,0.04634094,-0.1138306,0.9924164,0.9545768,0.03427124,-0.1261749,0.9914093,-28.90973,4.707443,-22.093770000000003,4.606857,0.3999504,0.3924917999999999,0.9103747,0.05473328,-0.1052246,0.9929352,33.59317,5.1390080000000005,-24.75586,4.62294,0.4607369,0.3935592,-0.288587,1.239547,-0.1074207,-0.0539431,0.7712339,0.06177563,0.08713049,0.15492418232526178,33.10777333999002
0,0.04721069,-0.1137085,0.9923859,0.9545768,0.0375824,-0.1244049,0.9915161,-28.910840000000004,4.722244,-22.15083,4.509445,0.3994367,0.3921539,0.9103747,0.05526733,-0.1047516,0.9929504,33.59258,5.137497,-24.72905,4.532349,0.4606641999999999,0.3932910999999999,-0.2886728,1.239557,-0.1074898999999999,-0.05410398,0.7713278,0.06159222,0.08713049,0.15492418232526178,33.10777333999002
0,0.04721069,-0.1137085,0.9923859,0.9545768,0.0375824,-0.1244049,0.9915161,-28.910840000000004,4.722244,-22.15083,4.509445,0.3994367,0.3921539,0.9103747,0.05526733,-0.1047516,0.9929504,33.59258,5.137497,-24.72905,4.532349,0.4606641999999999,0.3932910999999999,-0.2886728,1.239557,-0.1074898999999999,-0.05410398,0.7713278,0.06159222,0.08713049,0.15492418232526178,33.10777333999002
0,0.04721069,-0.1137085,0.9923859,0.9545768,0.0375824,-0.1244049,0.9915161,-28.910840000000004,4.722244,-22.15083,4.509445,0.3994367,0.3921539,0.9103747,0.05526733,-0.1047516,0.9929504,33.59258,5.137497,-24.72905,4.532349,0.4606641999999999,0.3932910999999999,-0.2886728,1.239557,-0.1074898999999999,-0.05410398,0.7713278,0.06159222,0.08713049,0.15492418232526178,33.10777333999002
0,0.04743958,-0.1121979,0.9925385,0.9437222,0.0355835,-0.1229857999999999,0.9917603000000002,-28.91518,4.729019,-22.19446,4.428635,0.3998691,0.3920210999999999,0.910812,0.05651855,-0.1038971,0.9929657,33.5907,5.130157,-24.69525,4.52356,0.4605241,0.3931158,-0.2887225,1.239614,-0.1074603,-0.05421441,0.7713573,0.06143297,0.08713049,0.15492418232526178,33.10777333999002
0,0.04743958,-0.1121979,0.9925385,0.9437222,0.0355835,-0.1229857999999999,0.9917603000000002,-28.91518,4.729019,-22.19446,4.428635,0.3998691,0.3920210999999999,0.910812,0.05651855,-0.1038971,0.9929657,33.5907,5.130157,-24.69525,4.52356,0.4605241,0.3931158,-0.2887225,1.239614,-0.1074603,-0.05421441,0.7713573,0.06143297,0.08713049,0.15492418232526178,33.10777333999002
0,0.04743958,-0.1121979,0.9925385,0.9437222,0.0355835,-0.1229857999999999,0.9917603000000002,-28.91518,4.729019,-22.19446,4.428635,0.3998691,0.3920210999999999,0.910812,0.05651855,-0.1038971,0.9929657,33.5907,5.130157,-24.69525,4.52356,0.4605241,0.3931158,-0.2887225,1.239614,-0.1074603,-0.05421441,0.7713573,0.06143297,0.08713049,0.15492418232526178,33.10777333999002
0,0.04818726,-0.1119994999999999,0.9925385,0.9600149,0.03552246,-0.1233520999999999,0.9917145,-28.91766,4.734497,-22.21066,4.288727,0.3999504,0.392013,0.9031888,0.05877686,-0.1024475,0.9929962,33.5907,5.130157,-24.69525,4.4142,0.4601451,0.3928473,-0.2887658,1.23958,-0.1074347,-0.05398573,0.7713029,0.06144492,0.08713049,0.15492418232526178,33.10777333999002
0,0.04818726,-0.1119994999999999,0.9925385,0.9600149,0.03552246,-0.1233520999999999,0.9917145,-28.91766,4.734497,-22.21066,4.288727,0.3999504,0.392013,0.9031888,0.05877686,-0.1024475,0.9929962,33.5907,5.130157,-24.69525,4.4142,0.4601451,0.3928473,-0.2887658,1.23958,-0.1074347,-0.05398573,0.7713029,0.06144492,0.08713049,0.15492418232526178,33.10777333999002
0,0.04818726,-0.1119994999999999,0.9925385,0.9600149,0.03552246,-0.1233520999999999,0.9917145,-28.91766,4.734497,-22.21066,4.288727,0.3999504,0.392013,0.9031888,0.05877686,-0.1024475,0.9929962,33.5907,5.130157,-24.69525,4.4142,0.4601451,0.3928473,-0.2887658,1.23958,-0.1074347,-0.05398573,0.7713029,0.06144492,0.08713049,0.15492418232526178,33.10777333999002
0,0.04624939,-0.1120911,0.9926146999999998,0.9888604,0.03189087,-0.1220856,0.9920044,-28.91977,4.73671,-22.22028,4.19928,0.4005915,0.3917860999999999,0.888849,0.05982971,-0.1025847999999999,0.9929199,33.5907,5.130157,-24.69525,4.359009,0.4599662,0.3928566,-0.2887435,1.239643,-0.1073339999999999,-0.05378732,0.7710456,0.06152743,0.08713049,21.5737,33.10777333999002
0,0.04624939,-0.1120911,0.9926146999999998,0.9888604,0.03189087,-0.1220856,0.9920044,-28.91977,4.73671,-22.22028,4.19928,0.4005915,0.3917860999999999,0.888849,0.05982971,-0.1025847999999999,0.9929199,33.5907,5.130157,-24.69525,4.359009,0.4599662,0.3928566,-0.2887435,1.239643,-0.1073339999999999,-0.05378732,0.7710456,0.06152743,0.08713049,21.5737,33.10777333999002
0,0.04624939,-0.1120911,0.9926146999999998,0.9888604,0.03189087,-0.1220856,0.9920044,-28.91977,4.73671,-22.22028,4.19928,0.4005915,0.3917860999999999,0.888849,0.05982971,-0.1025847999999999,0.9929199,33.5907,5.130157,-24.69525,4.359009,0.4599662,0.3928566,-0.2887435,1.239643,-0.1073339999999999,-0.05378732,0.7710456,0.06152743,0.08713049,21.5737,33.10777333999002
0,0.04429626,-0.1154022,0.9923248,0.9666389,0.02990723,-0.1218414,0.9920959,-28.92021,4.753662,-22.23083,4.108185,0.400919,0.3912640999999999,0.9609238,0.05776978,-0.1093597,0.9923096,33.60411,5.1434940000000005,-24.69194,4.279694,0.4598478,0.3935021999999999,-0.2886149,1.239693,-0.1073021,-0.05385733,0.7707719,0.06140819,0.08713049,21.5737,33.10777333999002
0,0.04429626,-0.1154022,0.9923248,0.9666389,0.02990723,-0.1218414,0.9920959,-28.92021,4.753662,-22.23083,4.108185,0.400919,0.3912640999999999,0.9609238,0.05776978,-0.1093597,0.9923096,33.60411,5.1434940000000005,-24.69194,4.279694,0.4598478,0.3935021999999999,-0.2886149,1.239693,-0.1073021,-0.05385733,0.7707719,0.06140819,0.08713049,21.5737,33.10777333999002
0,0.04429626,-0.1154022,0.9923248,0.9666389,0.02990723,-0.1218414,0.9920959,-28.92021,4.753662,-22.23083,4.108185,0.400919,0.3912640999999999,0.9609238,0.05776978,-0.1093597,0.9923096,33.60411,5.1434940000000005,-24.69194,4.279694,0.4598478,0.3935021999999999,-0.2886149,1.239693,-0.1073021,-0.05385733,0.7707719,0.06140819,0.08713049,21.5737,33.10777333999002
0,0.0430603,-0.1139068999999999,0.9925537,1.0,0.02760315,-0.1207886,0.9922791,-28.92041,4.774414,-22.23083,4.038101,0.401296,0.3904152,1.0,0.05770874,-0.1073607999999999,0.9925385,33.60411,5.143646,-24.69194,4.168976,0.4598478,0.3931315,-0.2886212,1.239696,-0.1073877999999999,-0.05404028,0.770658,0.06134619,0.08713049,21.5737,33.10777333999002
0,0.0430603,-0.1139068999999999,0.9925537,1.0,0.02760315,-0.1207886,0.9922791,-28.92041,4.774414,-22.23083,4.038101,0.401296,0.3904152,1.0,0.05770874,-0.1073607999999999,0.9925385,33.60411,5.143646,-24.69194,4.168976,0.4598478,0.3931315,-0.2886212,1.239696,-0.1073877999999999,-0.05404028,0.770658,0.06134619,0.08713049,21.5737,33.10777333999002
0,0.0430603,-0.1139068999999999,0.9925537,1.0,0.02760315,-0.1207886,0.9922791,-28.92041,4.774414,-22.23083,4.038101,0.401296,0.3904152,1.0,0.05770874,-0.1073607999999999,0.9925385,33.60411,5.143646,-24.69194,4.168976,0.4598478,0.3931315,-0.2886212,1.239696,-0.1073877999999999,-0.05404028,0.770658,0.06134619,0.08713049,21.5737,33.10777333999002
0,0.03903198,-0.1161194,0.9924622,1.0,0.02293396,-0.1194153,0.992569,-28.923540000000003,4.788605,-22.20511,3.984146,0.4021555,0.3895250999999999,1.0,0.05776978,-0.1122283999999999,0.9919891,33.60388,5.143097,-24.63379,4.145080999999999,0.4598478,0.3935021999999999,-0.2885518,1.239582,-0.1072545,-0.05412872,0.7705691,0.06155546,0.08713049,21.5737,33.10777333999002
0,0.03903198,-0.1161194,0.9924622,1.0,0.02293396,-0.1194153,0.992569,-28.923540000000003,4.788605,-22.20511,3.984146,0.4021555,0.3895250999999999,1.0,0.05776978,-0.1122283999999999,0.9919891,33.60388,5.143097,-24.63379,4.145080999999999,0.4598478,0.3935021999999999,-0.2885518,1.239582,-0.1072545,-0.05412872,0.7705691,0.06155546,0.08713049,21.5737,33.10777333999002
0,0.03903198,-0.1161194,0.9924622,1.0,0.02293396,-0.1194153,0.992569,-28.923540000000003,4.788605,-22.20511,3.984146,0.4021555,0.3895250999999999,1.0,0.05776978,-0.1122283999999999,0.9919891,33.60388,5.143097,-24.63379,4.145080999999999,0.4598478,0.3935021999999999,-0.2885518,1.239582,-0.1072545,-0.05412872,0.7705691,0.06155546,0.08713049,21.5737,33.10777333999002
0,0.03712463,-0.1155395999999999,0.9925995,0.9909772,0.02322388,-0.1172028,0.9928284,-28.92671,4.788605,-22.19487,3.925934,0.4022231,0.3890665,0.9762822,0.05834961,-0.1129456,0.9918823,33.59949,5.125397,-24.54918,4.077499,0.4599018,0.3935021999999999,-0.2886662,1.239524,-0.1071946999999999,-0.05391436,0.7706378,0.06156348,0.08713049,21.5737,33.10777333999002
0,0.03712463,-0.1155395999999999,0.9925995,0.9909772,0.02322388,-0.1172028,0.9928284,-28.92671,4.788605,-22.19487,3.925934,0.4022231,0.3890665,0.9762822,0.05834961,-0.1129456,0.9918823,33.59949,5.125397,-24.54918,4.077499,0.4599018,0.3935021999999999,-0.2886662,1.239524,-0.1071946999999999,-0.05391436,0.7706378,0.06156348,0.08713049,21.5737,33.10777333999002
0,0.03712463,-0.1155395999999999,0.9925995,0.9909772,0.02322388,-0.1172028,0.9928284,-28.92671,4.788605,-22.19487,3.925934,0.4022231,0.3890665,0.9762822,0.05834961,-0.1129456,0.9918823,33.59949,5.125397,-24.54918,4.077499,0.4599018,0.3935021999999999,-0.2886662,1.239524,-0.1071946999999999,-0.05391436,0.7706378,0.06156348,0.08713049,21.5737,33.10777333999002
0,0.03649902,-0.1135101,0.9928589,1.0,0.02284241,-0.115921,0.992981,-28.93477,4.779541,-22.18297,3.818115,0.4025518,0.3890359,1.0,0.05912781,-0.1094512999999999,0.992218,33.5871,5.087692,-24.4929,3.947693,0.4601732,0.3936699999999999,-0.2887252999999999,1.239607,-0.1073269999999999,-0.05397296,0.7707460999999999,0.06139743,0.08713049,-2.894836,33.10777333999002
0,0.03649902,-0.1135101,0.9928589,1.0,0.02284241,-0.115921,0.992981,-28.93477,4.779541,-22.18297,3.818115,0.4025518,0.3890359,1.0,0.05912781,-0.1094512999999999,0.992218,33.5871,5.087692,-24.4929,3.947693,0.4601732,0.3936699999999999,-0.2887252999999999,1.239607,-0.1073269999999999,-0.05397296,0.7707460999999999,0.06139743,0.08713049,-2.894836,33.10777333999002
0,0.03649902,-0.1135101,0.9928589,1.0,0.02284241,-0.115921,0.992981,-28.93477,4.779541,-22.18297,3.818115,0.4025518,0.3890359,1.0,0.05912781,-0.1094512999999999,0.992218,33.5871,5.087692,-24.4929,3.947693,0.4601732,0.3936699999999999,-0.2887252999999999,1.239607,-0.1073269999999999,-0.05397296,0.7707460999999999,0.06139743,0.08713049,-2.894836,33.10777333999002
0,0.03933716,-0.1126556,0.9928436,1.0,0.02441406,-0.1145019999999999,0.9931183,-28.94058,4.769577,-22.17245,3.810837,0.402495,0.3890359,1.0,0.06016541,-0.1100463999999999,0.9920959,33.58072,5.075241,-24.45613,3.940506,0.4602172,0.3938889,-0.2887704,1.239603,-0.1072993,-0.05421911,0.7709079000000001,0.06141644,0.08713049,-2.894836,33.10777333999002
0,0.03933716,-0.1126556,0.9928436,1.0,0.02441406,-0.1145019999999999,0.9931183,-28.94058,4.769577,-22.17245,3.810837,0.402495,0.3890359,1.0,0.06016541,-0.1100463999999999,0.9920959,33.58072,5.075241,-24.45613,3.940506,0.4602172,0.3938889,-0.2887704,1.239603,-0.1072993,-0.05421911,0.7709079000000001,0.06141644,0.08713049,-2.894836,33.10777333999002
0,0.03933716,-0.1126556,0.9928436,1.0,0.02441406,-0.1145019999999999,0.9931183,-28.94058,4.769577,-22.17245,3.810837,0.402495,0.3890359,1.0,0.06016541,-0.1100463999999999,0.9920959,33.58072,5.075241,-24.45613,3.940506,0.4602172,0.3938889,-0.2887704,1.239603,-0.1072993,-0.05421911,0.7709079000000001,0.06141644,0.08713049,-2.894836,33.10777333999002
0,0.03904724,-0.1125031,0.9928741,1.0,0.02407837,-0.1138153,0.9931946,-28.94371,4.766678,-22.16757,3.757034,0.4026535999999999,0.3889616,1.0,0.05879211,-0.110733,0.9920959,33.57556,5.060593,-24.42084,3.847809,0.4606041,0.3941714,-0.2887704,1.239603,-0.1072993,-0.05421911,0.7709079000000001,0.06141644,0.08713049,-2.894836,33.10777333999002
0,0.03904724,-0.1125031,0.9928741,1.0,0.02407837,-0.1138153,0.9931946,-28.94371,4.766678,-22.16757,3.757034,0.4026535999999999,0.3889616,1.0,0.05879211,-0.110733,0.9920959,33.57556,5.060593,-24.42084,3.847809,0.4606041,0.3941714,-0.2887704,1.239603,-0.1072993,-0.05421911,0.7709079000000001,0.06141644,0.08713049,-2.894836,33.10777333999002
0,0.03904724,-0.1125031,0.9928741,1.0,0.02407837,-0.1138153,0.9931946,-28.94371,4.766678,-22.16757,3.757034,0.4026535999999999,0.3889616,1.0,0.05879211,-0.110733,0.9920959,33.57556,5.060593,-24.42084,3.847809,0.4606041,0.3941714,-0.2887704,1.239603,-0.1072993,-0.05421911,0.7709079000000001,0.06141644,0.08713049,-2.894836,33.10777333999002
0,0.03865051,-0.1128235,0.9928589,0.9998915,0.02514648,-0.1132813,0.9932404,-28.943790000000003,4.762283,-22.15895,3.674118,0.402495,0.3889297,0.9870666,0.05783081,-0.1121520999999999,0.9920044,33.57434,5.059113,-24.38452,3.819626,0.460804,0.3941714,-0.2888771,1.239619,-0.1073145,-0.0542009,0.7707881999999999,0.06165382,0.08713049,-2.894836,33.10777333999002
0,0.03865051,-0.1128235,0.9928589,0.9998915,0.02514648,-0.1132813,0.9932404,-28.943790000000003,4.762283,-22.15895,3.674118,0.402495,0.3889297,0.9870666,0.05783081,-0.1121520999999999,0.9920044,33.57434,5.059113,-24.38452,3.819626,0.460804,0.3941714,-0.2888771,1.239619,-0.1073145,-0.0542009,0.7707881999999999,0.06165382,0.08713049,-2.894836,33.10777333999002
0,0.03865051,-0.1128235,0.9928589,0.9998915,0.02514648,-0.1132813,0.9932404,-28.943790000000003,4.762283,-22.15895,3.674118,0.402495,0.3889297,0.9870666,0.05783081,-0.1121520999999999,0.9920044,33.57434,5.059113,-24.38452,3.819626,0.460804,0.3941714,-0.2888771,1.239619,-0.1073145,-0.0542009,0.7707881999999999,0.06165382,0.08713049,-2.894836,33.10777333999002
0,0.03991699,-0.1113128999999999,0.992981,0.9932226,0.0243988,-0.1134948999999999,0.9932251,-28.93144,4.777237,-22.02246,3.689407,0.4022933,0.3874277,0.9534455,0.05479431,-0.1091766,0.9925079,33.58719,5.0887910000000005,-24.38817,3.756454,0.4608787,0.3926936,-0.2889487,1.239634,-0.1073025,-0.05417299,0.7707562,0.0615734,0.08713049,-2.894836,33.10777333999002
0,0.03991699,-0.1113128999999999,0.992981,0.9932226,0.0243988,-0.1134948999999999,0.9932251,-28.93144,4.777237,-22.02246,3.689407,0.4022933,0.3874277,0.9534455,0.05479431,-0.1091766,0.9925079,33.58719,5.0887910000000005,-24.38817,3.756454,0.4608787,0.3926936,-0.2889487,1.239634,-0.1073025,-0.05417299,0.7707562,0.0615734,0.08713049,-2.894836,33.10777333999002
0,0.03991699,-0.1113128999999999,0.992981,0.9932226,0.0243988,-0.1134948999999999,0.9932251,-28.93144,4.777237,-22.02246,3.689407,0.4022933,0.3874277,0.9534455,0.05479431,-0.1091766,0.9925079,33.58719,5.0887910000000005,-24.38817,3.756454,0.4608787,0.3926936,-0.2889487,1.239634,-0.1073025,-0.05417299,0.7707562,0.0615734,0.08713049,-2.894836,33.10777333999002
0,0.155304,0.01887512,0.9876709,0.9144012,0.1594543,0.01812744,0.98703,-28.39827,5.054016000000001,-20.18356,3.625244,0.3650399,0.3434184,0.8099055000000001,0.155304,0.01887512,0.9876709,33.962270000000004,5.763611,-23.98347,3.675018,0.4319722,0.3456330999999999,-0.2889287,1.239673,-0.1074755,-0.05424969,0.7708341,0.06154509,0.08713049,-2.894836,33.10777333999002
0,0.155304,0.01887512,0.9876709,0.9144012,0.1594543,0.01812744,0.98703,-28.39827,5.054016000000001,-20.18356,3.625244,0.3650399,0.3434184,0.8099055000000001,0.155304,0.01887512,0.9876709,33.962270000000004,5.763611,-23.98347,3.675018,0.4319722,0.3456330999999999,-0.2889287,1.239673,-0.1074755,-0.05424969,0.7708341,0.06154509,0.08713049,-2.894836,33.10777333999002
0,0.155304,0.01887512,0.9876709,0.9144012,0.1594543,0.01812744,0.98703,-28.39827,5.054016000000001,-20.18356,3.625244,0.3650399,0.3434184,0.8099055000000001,0.155304,0.01887512,0.9876709,33.962270000000004,5.763611,-23.98347,3.675018,0.4319722,0.3456330999999999,-0.2889287,1.239673,-0.1074755,-0.05424969,0.7708341,0.06154509,0.08713049,-2.894836,33.10777333999002
0,0.1872559,0.07989502,0.9790497,0.967348,0.166153,0.02664185,0.985733,-28.20915,5.73851,-22.90665,3.3830410000000004,0.3553783,0.3399995,0.8197803,0.1872559,0.07989502,0.9790497,34.13609,5.703659,-23.86688,3.740555,0.4208923,0.3367324,-0.2887328,1.239699,-0.1074029,-0.05421832,0.7708199,0.06147777,0.08713049,-2.894836,33.10777333999002
0,0.1872559,0.07989502,0.9790497,0.967348,0.166153,0.02664185,0.985733,-28.20915,5.73851,-22.90665,3.3830410000000004,0.3553783,0.3399995,0.8197803,0.1872559,0.07989502,0.9790497,34.13609,5.703659,-23.86688,3.740555,0.4208923,0.3367324,-0.2887328,1.239699,-0.1074029,-0.05421832,0.7708199,0.06147777,0.08713049,-13.47062,33.10777333999002
0,0.1872559,0.07989502,0.9790497,0.967348,0.166153,0.02664185,0.985733,-28.20915,5.73851,-22.90665,3.3830410000000004,0.3553783,0.3399995,0.8197803,0.1872559,0.07989502,0.9790497,34.13609,5.703659,-23.86688,3.740555,0.4208923,0.3367324,-0.2887328,1.239699,-0.1074029,-0.05421832,0.7708199,0.06147777,0.08713049,-28.12785,33.10777333999002
0,0.1725769,0.07461548,0.9821625,1.0,0.1607666,0.04464722,0.9859772,-28.22687,5.6008,-22.49603,3.579651,0.3572214,0.3385349,1.0,0.1725769,0.07461548,0.9821625,34.19563,5.664932,-23.82976,3.857788,0.4214499,0.3386163,-0.2886939,1.239635,-0.1073425,-0.05405693,0.7709458,0.06148779,0.08713049,-60.79325,33.10777333999002
0,0.1725769,0.07461548,0.9821625,1.0,0.1607666,0.04464722,0.9859772,-28.22687,5.6008,-22.49603,3.579651,0.3572214,0.3385349,1.0,0.1725769,0.07461548,0.9821625,34.19563,5.664932,-23.82976,3.857788,0.4214499,0.3386163,-0.2886939,1.239635,-0.1073425,-0.05405693,0.7709458,0.06148779,0.08713049,-60.79325,33.10777333999002
0,0.1725769,0.07461548,0.9821625,1.0,0.1607666,0.04464722,0.9859772,-28.22687,5.6008,-22.49603,3.579651,0.3572214,0.3385349,1.0,0.1725769,0.07461548,0.9821625,34.19563,5.664932,-23.82976,3.857788,0.4214499,0.3386163,-0.2886939,1.239635,-0.1073425,-0.05405693,0.7709458,0.06148779,0.08713049,-60.79325,33.10777333999002
0,0.1724854,0.07081604,0.9824524,1.0,0.1569366,0.04463196,0.9865875,-28.23409,5.586487,-22.50351,3.486938,0.3580776,0.3390225,1.0,0.1724854,0.07081604,0.9824524,34.22948,5.688217,-24.01419,3.804825,0.4202331,0.3398049,-0.2888672,1.239514,-0.1072407,-0.05405021,0.7709116,0.06152931,0.08713049,-60.79325,33.10777333999002
0,0.1724854,0.07081604,0.9824524,1.0,0.1569366,0.04463196,0.9865875,-28.23409,5.586487,-22.50351,3.486938,0.3580776,0.3390225,1.0,0.1724854,0.07081604,0.9824524,34.22948,5.688217,-24.01419,3.804825,0.4202331,0.3398049,-0.2888672,1.239514,-0.1072407,-0.05405021,0.7709116,0.06152931,0.08713049,-60.79325,33.10777333999002
0,0.1724854,0.07081604,0.9824524,1.0,0.1569366,0.04463196,0.9865875,-28.23409,5.586487,-22.50351,3.486938,0.3580776,0.3390225,1.0,0.1724854,0.07081604,0.9824524,34.22948,5.688217,-24.01419,3.804825,0.4202331,0.3398049,-0.2888672,1.239514,-0.1072407,-0.05405021,0.7709116,0.06152931,0.08713049,-60.79325,33.10777333999002
0,0.1787567,0.0717926,0.9812622,1.0,0.1406859999999999,0.05274963,0.9886322,-28.16327,5.83226,-23.65567,3.5214540000000003,0.3573235999999999,0.338127,1.0,0.1787567,0.07180786,0.9812622,34.19579,5.612503,-23.74622,3.833176,0.420434,0.3401758,-0.2888693,1.239449,-0.1070913,-0.05409843,0.7707225999999999,0.06163916,0.08713049,-60.79325,33.10777333999002
0,0.1787567,0.0717926,0.9812622,1.0,0.1406859999999999,0.05274963,0.9886322,-28.16327,5.83226,-23.65567,3.5214540000000003,0.3573235999999999,0.338127,1.0,0.1787567,0.07180786,0.9812622,34.19579,5.612503,-23.74622,3.833176,0.420434,0.3401758,-0.2888693,1.239449,-0.1070913,-0.05409843,0.7707225999999999,0.06163916,0.08713049,-60.79325,33.10777333999002
0,0.1787567,0.0717926,0.9812622,1.0,0.1406859999999999,0.05274963,0.9886322,-28.16327,5.83226,-23.65567,3.5214540000000003,0.3573235999999999,0.338127,1.0,0.1787567,0.07180786,0.9812622,34.19579,5.612503,-23.74622,3.833176,0.420434,0.3401758,-0.2888693,1.239449,-0.1070913,-0.05409843,0.7707225999999999,0.06163916,0.08713049,-60.79325,33.10777333999002
0,0.1790161,0.0723877,0.9811707,1.0,0.143219,0.05621338,0.9880829,-28.174640000000004,5.825485,-23.59741,3.542389,0.3573235999999999,0.3373612,1.0,0.1790313999999999,0.07240295,0.9811707,34.19373,5.612274,-23.78183,3.821304,0.420434,0.3403505,-0.2888915999999999,1.2394459999999998,-0.1071216999999999,-0.05424,0.7704673000000001,0.06159718,0.08713049,-60.79325,33.10777333999002
0,0.1790161,0.0723877,0.9811707,1.0,0.143219,0.05621338,0.9880829,-28.174640000000004,5.825485,-23.59741,3.542389,0.3573235999999999,0.3373612,1.0,0.1790313999999999,0.07240295,0.9811707,34.19373,5.612274,-23.78183,3.821304,0.420434,0.3403505,-0.2888915999999999,1.2394459999999998,-0.1071216999999999,-0.05424,0.7704673000000001,0.06159718,0.08713049,-60.79325,33.10777333999002
0,0.1790161,0.0723877,0.9811707,1.0,0.143219,0.05621338,0.9880829,-28.174640000000004,5.825485,-23.59741,3.542389,0.3573235999999999,0.3373612,1.0,0.1790313999999999,0.07240295,0.9811707,34.19373,5.612274,-23.78183,3.821304,0.420434,0.3403505,-0.2888915999999999,1.2394459999999998,-0.1071216999999999,-0.05424,0.7704673000000001,0.06159718,0.08713049,-60.79325,33.10777333999002
0,0.1796722,0.07467651,0.9808807,1.0,0.1595459,0.05433655,0.9856873,-28.23624,5.584717,-22.48747,3.5962370000000004,0.3577341,0.3374390999999999,1.0,0.1796722,0.07467651,0.9808807,34.1915,5.606949,-23.797,3.830261,0.4203903,0.3402697,-0.2889430999999999,1.239459,-0.1071312,-0.0542898,0.7703024,0.06157216,0.08713049,-1.881084,33.10777333999002
0,0.1796722,0.07467651,0.9808807,1.0,0.1595459,0.05433655,0.9856873,-28.23624,5.584717,-22.48747,3.5962370000000004,0.3577341,0.3374390999999999,1.0,0.1796722,0.07467651,0.9808807,34.1915,5.606949,-23.797,3.830261,0.4203903,0.3402697,-0.2889430999999999,1.239459,-0.1071312,-0.0542898,0.7703024,0.06157216,0.08713049,-1.881084,33.10777333999002
0,0.1796722,0.07467651,0.9808807,1.0,0.1595459,0.05433655,0.9856873,-28.23624,5.584717,-22.48747,3.5962370000000004,0.3577341,0.3374390999999999,1.0,0.1796722,0.07467651,0.9808807,34.1915,5.606949,-23.797,3.830261,0.4203903,0.3402697,-0.2889430999999999,1.239459,-0.1071312,-0.0542898,0.7703024,0.06157216,0.08713049,-1.881084,33.10777333999002
0,0.177597,0.07850647,0.980957,1.0,0.2136536,0.0725708,0.9741974,-28.45915,5.009567,-20.22818,3.71698,0.3582425,0.336889,1.0,0.177597,0.07850647,0.980957,34.19373,5.612274,-23.91408,3.841156,0.4206083,0.3403505,-0.2890185,1.239532,-0.1070813999999999,-0.05434563,0.7702435999999999,0.06135846,0.08713049,-1.881084,33.10777333999002
0,0.177597,0.07850647,0.980957,1.0,0.2136536,0.0725708,0.9741974,-28.45915,5.009567,-20.22818,3.71698,0.3582425,0.336889,1.0,0.177597,0.07850647,0.980957,34.19373,5.612274,-23.91408,3.841156,0.4206083,0.3403505,-0.2890185,1.239532,-0.1070813999999999,-0.05434563,0.7702435999999999,0.06135846,0.08713049,-1.881084,33.10777333999002
0,0.177597,0.07850647,0.980957,1.0,0.2136536,0.0725708,0.9741974,-28.45915,5.009567,-20.22818,3.71698,0.3582425,0.336889,1.0,0.177597,0.07850647,0.980957,34.19373,5.612274,-23.91408,3.841156,0.4206083,0.3403505,-0.2890185,1.239532,-0.1070813999999999,-0.05434563,0.7702435999999999,0.06135846,0.08713049,-1.881084,33.10777333999002
0,0.1772766,0.08087158,0.9808197,1.0,0.2099304,0.0743103,0.974884,-28.45915,5.00174,-20.211270000000003,3.717407,0.3588551,0.3367193,1.0,0.1772766,0.08087158,0.9808197,34.194520000000004,5.616089,-23.961270000000003,3.853363,0.4206083,0.3401889,-0.289018,1.239491,-0.1071124,-0.05419894,0.7701020000000001,0.06145461,0.08713049,-1.881084,33.10777333999002
0,0.1772766,0.08087158,0.9808197,1.0,0.2099304,0.0743103,0.974884,-28.45915,5.00174,-20.211270000000003,3.717407,0.3588551,0.3367193,1.0,0.1772766,0.08087158,0.9808197,34.194520000000004,5.616089,-23.961270000000003,3.853363,0.4206083,0.3401889,-0.289018,1.239491,-0.1071124,-0.05419894,0.7701020000000001,0.06145461,0.08713049,-1.881084,33.10777333999002
0,0.1772766,0.08087158,0.9808197,1.0,0.2099304,0.0743103,0.974884,-28.45915,5.00174,-20.211270000000003,3.717407,0.3588551,0.3367193,1.0,0.1772766,0.08087158,0.9808197,34.194520000000004,5.616089,-23.961270000000003,3.853363,0.4206083,0.3401889,-0.289018,1.239491,-0.1071124,-0.05419894,0.7701020000000001,0.06145461,0.08713049,-1.881084,33.10777333999002
1,0.2036743,0.07226563,0.9763641,1.0,0.2078247,0.07237244,0.9754791,-28.44633,5.00174,-20.13403,3.717514,0.3588672,0.3364627,1.0,0.1594696,0.07115173,0.9846344,34.275220000000004,5.747345,-24.3376,3.835037,0.4207532999999999,0.3401889,-0.2890162,1.239536,-0.107,-0.05433027,0.7700715,0.06136793,0.08713049,-1.881084,33.10777333999002
1,0.2036743,0.07226563,0.9763641,1.0,0.2078247,0.07237244,0.9754791,-28.44633,5.00174,-20.13403,3.717514,0.3588672,0.3364627,1.0,0.1594696,0.07115173,0.9846344,34.275220000000004,5.747345,-24.3376,3.835037,0.4207532999999999,0.3401889,-0.2890162,1.239536,-0.107,-0.05433027,0.7700715,0.06136793,0.08713049,-1.881084,33.10777333999002
1,0.2036743,0.07226563,0.9763641,1.0,0.2078247,0.07237244,0.9754791,-28.44633,5.00174,-20.13403,3.717514,0.3588672,0.3364627,1.0,0.1594696,0.07115173,0.9846344,34.275220000000004,5.747345,-24.3376,3.835037,0.4207532999999999,0.3401889,-0.2890162,1.239536,-0.107,-0.05433027,0.7700715,0.06136793,0.08713049,-1.881084,33.10777333999002
1,0.2068481,0.07298279,0.9756317,1.0,0.2075348,0.07299805,0.9754944,-28.44507,5.006836,-20.13995,3.717346,0.3588656,0.3362427,1.0,0.1582947,0.07125854,0.9848021999999998,34.27762,5.750319999999999,-24.35258,3.818527,0.420856,0.3401695,-0.2889354,1.2395120000000002,-0.1069486,-0.05438435,0.7701165,0.0612658,0.08713049,-1.881084,33.10777333999002
1,0.2068481,0.07298279,0.9756317,1.0,0.2075348,0.07299805,0.9754944,-28.44507,5.006836,-20.13995,3.717346,0.3588656,0.3362427,1.0,0.1582947,0.07125854,0.9848021999999998,34.27762,5.750319999999999,-24.35258,3.818527,0.420856,0.3401695,-0.2889354,1.2395120000000002,-0.1069486,-0.05438435,0.7701165,0.0612658,0.08713049,-1.881084,33.10777333999002
1,0.2068481,0.07298279,0.9756317,1.0,0.2075348,0.07299805,0.9754944,-28.44507,5.006836,-20.13995,3.717346,0.3588656,0.3362427,1.0,0.1582947,0.07125854,0.9848021999999998,34.27762,5.750319999999999,-24.35258,3.818527,0.420856,0.3401695,-0.2889354,1.2395120000000002,-0.1069486,-0.05438435,0.7701165,0.0612658,0.08713049,-1.881084,33.10777333999002
1,0.1872711,0.07301331,0.9795837,1.0,0.2049103,0.07435608,0.9759369,-28.44231,5.016006,-20.17601,3.671524,0.3591505,0.3359548,1.0,0.1567535,0.07064819,0.9850922,34.27995,5.780838,-24.45204,3.810959,0.4209898,0.3399920999999999,-0.2889194,1.239557,-0.1068643,-0.05420138,0.7700679,0.06133305,0.08713049,-1.881084,33.10777333999002
1,0.1872711,0.07301331,0.9795837,1.0,0.2049103,0.07435608,0.9759369,-28.44231,5.016006,-20.17601,3.671524,0.3591505,0.3359548,1.0,0.1567535,0.07064819,0.9850922,34.27995,5.780838,-24.45204,3.810959,0.4209898,0.3399920999999999,-0.2889194,1.239557,-0.1068643,-0.05420138,0.7700679,0.06133305,0.08713049,-1.881084,33.10777333999002
1,0.1872711,0.07301331,0.9795837,1.0,0.2049103,0.07435608,0.9759369,-28.44231,5.016006,-20.17601,3.671524,0.3591505,0.3359548,1.0,0.1567535,0.07064819,0.9850922,34.27995,5.780838,-24.45204,3.810959,0.4209898,0.3399920999999999,-0.2889194,1.239557,-0.1068643,-0.05420138,0.7700679,0.06133305,0.08713049,-1.881084,33.10777333999002
1,0.1837921,0.07359314,0.9801940999999998,1.0,0.2053222999999999,0.07498169,0.9758148,-28.44142,5.039612,-20.25208,3.657669,0.358984,0.3356533,1.0,0.155777,0.07173157,0.9851685,34.28198,5.7865910000000005,-24.45204,3.808121,0.4210849,0.3396181,-0.2890379,1.239409,-0.1068615,-0.05428294,0.7699437,0.06140883,0.08713049,35.5473,33.10777333999002
1,0.1837921,0.07359314,0.9801940999999998,1.0,0.2053222999999999,0.07498169,0.9758148,-28.44142,5.039612,-20.25208,3.657669,0.358984,0.3356533,1.0,0.155777,0.07173157,0.9851685,34.28198,5.7865910000000005,-24.45204,3.808121,0.4210849,0.3396181,-0.2890379,1.239409,-0.1068615,-0.05428294,0.7699437,0.06140883,0.08713049,35.5473,33.10777333999002
1,0.1837921,0.07359314,0.9801940999999998,1.0,0.2053222999999999,0.07498169,0.9758148,-28.44142,5.039612,-20.25208,3.657669,0.358984,0.3356533,1.0,0.155777,0.07173157,0.9851685,34.28198,5.7865910000000005,-24.45204,3.808121,0.4210849,0.3396181,-0.2890379,1.239409,-0.1068615,-0.05428294,0.7699437,0.06140883,0.08713049,35.5473,33.10777333999002
1,0.1681213,0.07585144,0.9828339,1.0,0.2026367,0.07247925,0.9765625,-28.435440000000003,5.075302,-20.3289,3.645523,0.3591505,0.3354435,1.0,0.1537628,0.07720947,0.9850769,34.28363,5.795074,-24.462020000000003,3.783127,0.4213501,0.3384698,-0.2890474,1.239436,-0.1069,-0.05449288,0.7700604,0.06132233,0.08713049,35.5473,33.10777333999002
1,0.1681213,0.07585144,0.9828339,1.0,0.2026367,0.07247925,0.9765625,-28.435440000000003,5.075302,-20.3289,3.645523,0.3591505,0.3354435,1.0,0.1537628,0.07720947,0.9850769,34.28363,5.795074,-24.462020000000003,3.783127,0.4213501,0.3384698,-0.2890474,1.239436,-0.1069,-0.05449288,0.7700604,0.06132233,0.08713049,35.5473,33.10777333999002
1,0.1681213,0.07585144,0.9828339,1.0,0.2026367,0.07247925,0.9765625,-28.435440000000003,5.075302,-20.3289,3.645523,0.3591505,0.3354435,1.0,0.1537628,0.07720947,0.9850769,34.28363,5.795074,-24.462020000000003,3.783127,0.4213501,0.3384698,-0.2890474,1.239436,-0.1069,-0.05449288,0.7700604,0.06132233,0.08713049,35.5473,33.10777333999002
1,0.1692047,0.07641602,0.982605,1.0,0.2004547,0.07444763,0.9768524,-28.43361,5.098236,-20.39958,3.574417,0.3593481,0.3348566,1.0,0.1530609,0.07739258,0.9851685,34.28479,5.808289,-24.47066,3.760925,0.4214206,0.3380495,-0.2892890999999999,1.239542,-0.1067202,-0.05450996,0.7698959,0.06090012,0.08713049,35.5473,33.10777333999002
1,0.1692047,0.07641602,0.982605,1.0,0.2004547,0.07444763,0.9768524,-28.43361,5.098236,-20.39958,3.574417,0.3593481,0.3348566,1.0,0.1530609,0.07739258,0.9851685,34.28479,5.808289,-24.47066,3.760925,0.4214206,0.3380495,-0.2892890999999999,1.239542,-0.1067202,-0.05450996,0.7698959,0.06090012,0.08713049,35.5473,33.10777333999002
1,0.1692047,0.07641602,0.982605,1.0,0.2004547,0.07444763,0.9768524,-28.43361,5.098236,-20.39958,3.574417,0.3593481,0.3348566,1.0,0.1530609,0.07739258,0.9851685,34.28479,5.808289,-24.47066,3.760925,0.4214206,0.3380495,-0.2892890999999999,1.239542,-0.1067202,-0.05450996,0.7698959,0.06090012,0.08713049,35.5473,33.10777333999002
1,0.1774292,-0.02149963,0.9838867,1.0,0.1708068999999999,-0.005233765,0.9852753,-27.97888,4.931534,-22.17889,3.437531,0.3480783,0.3659158,1.0,0.1774292,-0.02149963,0.9838867,34.27182,5.349213,-24.61835,3.700012,0.4177219,0.3711909,-0.2893269,1.239717,-0.1067131,-0.05403532,0.7697136,0.06090299,0.08713049,35.5473,33.10777333999002
1,0.1774292,-0.02149963,0.9838867,1.0,0.1708068999999999,-0.005233765,0.9852753,-27.97888,4.931534,-22.17889,3.437531,0.3480783,0.3659158,1.0,0.1774292,-0.02149963,0.9838867,34.27182,5.349213,-24.61835,3.700012,0.4177219,0.3711909,-0.2893269,1.239717,-0.1067131,-0.05403532,0.7697136,0.06090299,0.08713049,35.5473,33.10777333999002
1,0.1774292,-0.02149963,0.9838867,1.0,0.1708068999999999,-0.005233765,0.9852753,-27.97888,4.931534,-22.17889,3.437531,0.3480783,0.3659158,1.0,0.1774292,-0.02149963,0.9838867,34.27182,5.349213,-24.61835,3.700012,0.4177219,0.3711909,-0.2893269,1.239717,-0.1067131,-0.05403532,0.7697136,0.06090299,0.08713049,35.5473,33.10777333999002
1,0.1769562,-0.1659546,0.9701233,0.9275174,0.1984711,-0.1636505,0.9663391,-28.0517,4.301132,-22.51668,3.377014,0.3454459,0.41506,0.9449449,0.1769562,-0.1659546,0.9701233,33.946659999999994,4.589264,-24.42929,3.605225,0.4285164000000001,0.4194706,-0.2892179,1.239701,-0.1065772,-0.05401315,0.7694502,0.06085952,0.08713049,36.72701,33.10777333999002
1,0.1769562,-0.1659546,0.9701233,0.9275174,0.1984711,-0.1636505,0.9663391,-28.0517,4.301132,-22.51668,3.377014,0.3454459,0.41506,0.9449449,0.1769562,-0.1659546,0.9701233,33.946659999999994,4.589264,-24.42929,3.605225,0.4285164000000001,0.4194706,-0.2892179,1.239701,-0.1065772,-0.05401315,0.7694502,0.06085952,0.08713049,36.72701,33.10777333999002
1,0.1769562,-0.1659546,0.9701233,0.9275174,0.1984711,-0.1636505,0.9663391,-28.0517,4.301132,-22.51668,3.377014,0.3454459,0.41506,0.9449449,0.1769562,-0.1659546,0.9701233,33.946659999999994,4.589264,-24.42929,3.605225,0.4285164000000001,0.4194706,-0.2892179,1.239701,-0.1065772,-0.05401315,0.7694502,0.06085952,0.08713049,36.72701,33.10777333999002
1,0.1177979,-0.3454895,0.9309845,0.699024,0.1249847,-0.3455962999999999,0.9300079,-28.362640000000003,3.706329,-22.64856,3.3620910000000004,0.3669553,0.4662327,0.7353908,0.1156464,-0.345459,0.9312744,33.6084,3.889969,-24.60724,3.417892,0.4494866,0.475554,-0.2892327,1.239696,-0.1065833999999999,-0.0542086,0.7692489,0.06105685,0.08713049,36.72701,33.10777333999002
1,0.1177979,-0.3454895,0.9309845,0.699024,0.1249847,-0.3455962999999999,0.9300079,-28.362640000000003,3.706329,-22.64856,3.3620910000000004,0.3669553,0.4662327,0.7353908,0.1156464,-0.345459,0.9312744,33.6084,3.889969,-24.60724,3.417892,0.4494866,0.475554,-0.2892327,1.239696,-0.1065833999999999,-0.0542086,0.7692489,0.06105685,0.08713049,36.72701,33.10777333999002
1,0.1177979,-0.3454895,0.9309845,0.699024,0.1249847,-0.3455962999999999,0.9300079,-28.362640000000003,3.706329,-22.64856,3.3620910000000004,0.3669553,0.4662327,0.7353908,0.1156464,-0.345459,0.9312744,33.6084,3.889969,-24.60724,3.417892,0.4494866,0.475554,-0.2892327,1.239696,-0.1065833999999999,-0.0542086,0.7692489,0.06105685,0.08713049,36.72701,33.10777333999002
1,0.1230621,-0.3339081,0.9345245,0.6492919,0.1295012999999999,-0.3304749,0.9348755,-28.412370000000003,3.666946,-22.65512,3.4251400000000003,0.367867,0.4649015999999999,0.5059116,0.1130523999999999,-0.3392029,0.9338837,33.647,3.889587,-24.60571,3.402924,0.4486343,0.4743977,-0.2892525,1.239687,-0.1065913,-0.05427954,0.7693105,0.06110217,0.08713049,36.72701,33.10777333999002
1,0.1230621,-0.3339081,0.9345245,0.6492919,0.1295012999999999,-0.3304749,0.9348755,-28.412370000000003,3.666946,-22.65512,3.4251400000000003,0.367867,0.4649015999999999,0.5059116,0.1130523999999999,-0.3392029,0.9338837,33.647,3.889587,-24.60571,3.402924,0.4486343,0.4743977,-0.2892525,1.239687,-0.1065913,-0.05427954,0.7693105,0.06110217,0.08713049,36.72701,33.10777333999002
1,0.1230621,-0.3339081,0.9345245,0.6492919,0.1295012999999999,-0.3304749,0.9348755,-28.412370000000003,3.666946,-22.65512,3.4251400000000003,0.367867,0.4649015999999999,0.5059116,0.1130523999999999,-0.3392029,0.9338837,33.647,3.889587,-24.60571,3.402924,0.4486343,0.4743977,-0.2892525,1.239687,-0.1065913,-0.05427954,0.7693105,0.06110217,0.08713049,36.72701,33.10777333999002
1,0.1152648999999999,-0.3309021,0.9365845,0.6637791000000001,0.1210327,-0.3253325999999999,0.9378052,-28.44806,3.627304,-22.66768,3.301743,0.3703462,0.4653724,0.5477046,0.1099242999999999,-0.3360138,0.9354095,33.70465,3.874725,-24.62144,3.4064940000000004,0.4472252,0.4744185999999999,-0.2892241,1.239661,-0.1067422,-0.05417725,0.7695017,0.06090437,0.08713049,36.72701,33.10777333999002
1,0.1152648999999999,-0.3309021,0.9365845,0.6637791000000001,0.1210327,-0.3253325999999999,0.9378052,-28.44806,3.627304,-22.66768,3.301743,0.3703462,0.4653724,0.5477046,0.1099242999999999,-0.3360138,0.9354095,33.70465,3.874725,-24.62144,3.4064940000000004,0.4472252,0.4744185999999999,-0.2892241,1.239661,-0.1067422,-0.05417725,0.7695017,0.06090437,0.08713049,36.72701,33.10777333999002
1,0.1152648999999999,-0.3309021,0.9365845,0.6637791000000001,0.1210327,-0.3253325999999999,0.9378052,-28.44806,3.627304,-22.66768,3.301743,0.3703462,0.4653724,0.5477046,0.1099242999999999,-0.3360138,0.9354095,33.70465,3.874725,-24.62144,3.4064940000000004,0.4472252,0.4744185999999999,-0.2892241,1.239661,-0.1067422,-0.05417725,0.7695017,0.06090437,0.08713049,36.72701,33.10777333999002
1,0.1134948999999999,-0.3291473,0.9374237,0.7027498000000001,0.1181183,-0.3222809,0.9392395,-28.45862,3.620193,-22.66563,3.336777,0.3711684,0.4650329000000001,0.5193002,0.1089478,-0.3358612,0.9355774,33.72952,3.87709,-24.63445,3.432907,0.446563,0.4744185999999999,-0.2892594,1.23965,-0.1067634,-0.05406792,0.7694551,0.06100829,0.08713049,36.72701,33.10777333999002
1,0.1134948999999999,-0.3291473,0.9374237,0.7027498000000001,0.1181183,-0.3222809,0.9392395,-28.45862,3.620193,-22.66563,3.336777,0.3711684,0.4650329000000001,0.5193002,0.1089478,-0.3358612,0.9355774,33.72952,3.87709,-24.63445,3.432907,0.446563,0.4744185999999999,-0.2892594,1.23965,-0.1067634,-0.05406792,0.7694551,0.06100829,0.08713049,36.72701,33.10777333999002
1,0.1134948999999999,-0.3291473,0.9374237,0.7027498000000001,0.1181183,-0.3222809,0.9392395,-28.45862,3.620193,-22.66563,3.336777,0.3711684,0.4650329000000001,0.5193002,0.1089478,-0.3358612,0.9355774,33.72952,3.87709,-24.63445,3.432907,0.446563,0.4744185999999999,-0.2892594,1.23965,-0.1067634,-0.05406792,0.7694551,0.06100829,0.08713049,36.72701,33.10777333999002
1,0.1146698,-0.328476,0.9375153,0.7271591,0.1189728,-0.3222198,0.9391479,-28.47052,3.618988,-22.6597,3.3305050000000005,0.3714175,0.4650165,0.607642,0.110199,-0.3349457,0.9357605,33.74493,3.872833,-24.63849,3.434769,0.4458428,0.4744228,-0.2893232,1.239724,-0.1067039,-0.05407897,0.7693726,0.06095084,0.08713049,36.72701,33.10777333999002
1,0.1146698,-0.328476,0.9375153,0.7271591,0.1189728,-0.3222198,0.9391479,-28.47052,3.618988,-22.6597,3.3305050000000005,0.3714175,0.4650165,0.607642,0.110199,-0.3349457,0.9357605,33.74493,3.872833,-24.63849,3.434769,0.4458428,0.4744228,-0.2893232,1.239724,-0.1067039,-0.05407897,0.7693726,0.06095084,0.08713049,36.72701,33.10777333999002
1,0.1146698,-0.328476,0.9375153,0.7271591,0.1189728,-0.3222198,0.9391479,-28.47052,3.618988,-22.6597,3.3305050000000005,0.3714175,0.4650165,0.607642,0.110199,-0.3349457,0.9357605,33.74493,3.872833,-24.63849,3.434769,0.4458428,0.4744228,-0.2893232,1.239724,-0.1067039,-0.05407897,0.7693726,0.06095084,0.08713049,36.72701,33.10777333999002
1,0.1174011,-0.329361,0.9368591,0.747119,0.119278,-0.3223114,0.9390716999999998,-28.48413,3.617996,-22.654770000000003,3.337921,0.3718147,0.4650329000000001,0.6110642,0.1157226999999999,-0.3355864999999999,0.9348602,33.77283,3.876312,-24.64268,3.452774,0.4440015999999999,0.4744779,-0.2894166999999999,1.239734,-0.1066335,-0.05415311,0.7692972,0.06093415,0.08713049,-18.42654,33.10777333999002
1,0.1174011,-0.329361,0.9368591,0.747119,0.119278,-0.3223114,0.9390716999999998,-28.48413,3.617996,-22.654770000000003,3.337921,0.3718147,0.4650329000000001,0.6110642,0.1157226999999999,-0.3355864999999999,0.9348602,33.77283,3.876312,-24.64268,3.452774,0.4440015999999999,0.4744779,-0.2894166999999999,1.239734,-0.1066335,-0.05415311,0.7692972,0.06093415,0.08713049,-18.42654,33.10777333999002
1,0.1174011,-0.329361,0.9368591,0.747119,0.119278,-0.3223114,0.9390716999999998,-28.48413,3.617996,-22.654770000000003,3.337921,0.3718147,0.4650329000000001,0.6110642,0.1157226999999999,-0.3355864999999999,0.9348602,33.77283,3.876312,-24.64268,3.452774,0.4440015999999999,0.4744779,-0.2894166999999999,1.239734,-0.1066335,-0.05415311,0.7692972,0.06093415,0.08713049,-18.42654,33.10777333999002
1,0.1278381,-0.3228912,0.9377441,0.7653429,0.1427307,-0.3077545,0.9406891,-28.6322,3.541122,-22.5995,3.360611,0.3728724,0.464631,0.6020795999999999,0.1154174999999999,-0.3353729,0.9349823,33.80203,3.87709,-24.65141,3.457901,0.4430785,0.4744779,-0.2893659,1.239727,-0.1066907,-0.05451981,0.7691996,0.06096517,0.08841182,-18.42654,33.10777333999002
1,0.1278381,-0.3228912,0.9377441,0.7653429,0.1427307,-0.3077545,0.9406891,-28.6322,3.541122,-22.5995,3.360611,0.3728724,0.464631,0.6020795999999999,0.1154174999999999,-0.3353729,0.9349823,33.80203,3.87709,-24.65141,3.457901,0.4430785,0.4744779,-0.2893659,1.239727,-0.1066907,-0.05451981,0.7691996,0.06096517,0.08841182,-18.42654,33.10777333999002
1,0.1278381,-0.3228912,0.9377441,0.7653429,0.1427307,-0.3077545,0.9406891,-28.6322,3.541122,-22.5995,3.360611,0.3728724,0.464631,0.6020795999999999,0.1154174999999999,-0.3353729,0.9349823,33.80203,3.87709,-24.65141,3.457901,0.4430785,0.4744779,-0.2893659,1.239727,-0.1066907,-0.05451981,0.7691996,0.06096517,0.08841182,-18.42654,33.10777333999002
1,0.1271515,-0.320694,0.9385986,0.7641286,0.1435394,-0.3054962,0.9412994,-28.64983,3.533524,-22.5966,3.381577,0.3733232999999999,0.4644515,0.6265227,0.1143951,-0.3323669,0.9361725,33.81808,3.887161,-24.66084,3.460281,0.4427153,0.4736787,-0.2892437,1.239815,-0.1067737,-0.05448987,0.7692124,0.06089608,0.08841182,-18.42654,33.10777333999002
1,0.1271515,-0.320694,0.9385986,0.7641286,0.1435394,-0.3054962,0.9412994,-28.64983,3.533524,-22.5966,3.381577,0.3733232999999999,0.4644515,0.6265227,0.1143951,-0.3323669,0.9361725,33.81808,3.887161,-24.66084,3.460281,0.4427153,0.4736787,-0.2892437,1.239815,-0.1067737,-0.05448987,0.7692124,0.06089608,0.08841182,-18.42654,33.10777333999002
1,0.1271515,-0.320694,0.9385986,0.7641286,0.1435394,-0.3054962,0.9412994,-28.64983,3.533524,-22.5966,3.381577,0.3733232999999999,0.4644515,0.6265227,0.1143951,-0.3323669,0.9361725,33.81808,3.887161,-24.66084,3.460281,0.4427153,0.4736787,-0.2892437,1.239815,-0.1067737,-0.05448987,0.7692124,0.06089608,0.08841182,-18.42654,33.10777333999002
1,0.1177521,-0.3153992,0.9416199,0.7850998,0.1213530999999999,-0.2992859,0.9464111,-28.58629,3.512634,-22.68108,3.4950410000000005,0.3748105,0.4646034,0.6605688,0.1149597,-0.327713,0.9377441,33.82898,3.887161,-24.66483,3.501785,0.4422768,0.4728625,-0.2891719,1.239702,-0.1066942999999999,-0.05463489,0.7689807,0.06104199,0.08841182,-18.42654,33.10777333999002
1,0.1177521,-0.3153992,0.9416199,0.7850998,0.1213530999999999,-0.2992859,0.9464111,-28.58629,3.512634,-22.68108,3.4950410000000005,0.3748105,0.4646034,0.6605688,0.1149597,-0.327713,0.9377441,33.82898,3.887161,-24.66483,3.501785,0.4422768,0.4728625,-0.2891719,1.239702,-0.1066942999999999,-0.05463489,0.7689807,0.06104199,0.08841182,-18.42654,33.10777333999002
1,0.1177521,-0.3153992,0.9416199,0.7850998,0.1213530999999999,-0.2992859,0.9464111,-28.58629,3.512634,-22.68108,3.4950410000000005,0.3748105,0.4646034,0.6605688,0.1149597,-0.327713,0.9377441,33.82898,3.887161,-24.66483,3.501785,0.4422768,0.4728625,-0.2891719,1.239702,-0.1066942999999999,-0.05463489,0.7689807,0.06104199,0.08841182,-18.42654,33.10777333999002
1,0.1210327,-0.3082428,0.943573,0.8000585,0.1227569999999999,-0.2993774,0.9461975,-28.58768,3.511642,-22.6853,3.495331,0.374627,0.4647007999999999,0.6836553000000001,0.1196594,-0.3153534,0.941391,33.8311,3.827209,-24.69232,3.561615,0.4414364,0.4728625,-0.2891265999999999,1.239666,-0.1064823999999999,-0.0547418999999999,0.7689607,0.06100518,0.08841182,-74.48329,33.10777333999002
1,0.1210327,-0.3082428,0.943573,0.8000585,0.1227569999999999,-0.2993774,0.9461975,-28.58768,3.511642,-22.6853,3.495331,0.374627,0.4647007999999999,0.6836553000000001,0.1196594,-0.3153534,0.941391,33.8311,3.827209,-24.69232,3.561615,0.4414364,0.4728625,-0.2891265999999999,1.239666,-0.1064823999999999,-0.0547418999999999,0.7689607,0.06100518,0.08841182,-74.48329,33.10777333999002
1,0.1210327,-0.3082428,0.943573,0.8000585,0.1227569999999999,-0.2993774,0.9461975,-28.58768,3.511642,-22.6853,3.495331,0.374627,0.4647007999999999,0.6836553000000001,0.1196594,-0.3153534,0.941391,33.8311,3.827209,-24.69232,3.561615,0.4414364,0.4728625,-0.2891265999999999,1.239666,-0.1064823999999999,-0.0547418999999999,0.7689607,0.06100518,0.08841182,-74.48329,33.10777333999002
1,0.1136168999999999,-0.3105164,0.9437408000000002,0.8041168000000001,0.1086884,-0.3057404,0.9458771,-28.51276,3.552948,-22.72928,3.5335690000000004,0.3744377,0.4647669,0.685747,0.1178131,-0.3145905,0.9418793,33.85278,3.820908,-24.7057,3.623276,0.4410300999999999,0.473018,-0.2891035999999999,1.239762,-0.1062886,-0.0545416999999999,0.7680809000000001,0.06097467,0.08841182,-74.48329,34.33
1,0.1136168999999999,-0.3105164,0.9437408000000002,0.8041168000000001,0.1086884,-0.3057404,0.9458771,-28.51276,3.552948,-22.72928,3.5335690000000004,0.3744377,0.4647669,0.685747,0.1178131,-0.3145905,0.9418793,33.85278,3.820908,-24.7057,3.623276,0.4410300999999999,0.473018,-0.2891035999999999,1.239762,-0.1062886,-0.0545416999999999,0.7680809000000001,0.06097467,0.08841182,-74.48329,34.33
1,0.1136168999999999,-0.3105164,0.9437408000000002,0.8041168000000001,0.1086884,-0.3057404,0.9458771,-28.51276,3.552948,-22.72928,3.5335690000000004,0.3744377,0.4647669,0.685747,0.1178131,-0.3145905,0.9418793,33.85278,3.820908,-24.7057,3.623276,0.4410300999999999,0.473018,-0.2891035999999999,1.239762,-0.1062886,-0.0545416999999999,0.7680809000000001,0.06097467,0.08841182,-74.48329,34.33
1,0.1128692999999999,-0.3097687,0.9440765,0.8168581,0.1097412,-0.305603,0.9458008,-28.5144,3.552109,-22.73477,3.582367,0.374328,0.4648123999999999,0.6952656999999999,0.1161194,-0.3140564,0.9422607,33.857479999999995,3.815018,-24.7123,3.659988,0.4411627,0.4731644,-0.2891544,1.239739,-0.106169,-0.05467394,0.7676535,0.06094836,0.08841182,-74.48329,34.33
1,0.1128692999999999,-0.3097687,0.9440765,0.8168581,0.1097412,-0.305603,0.9458008,-28.5144,3.552109,-22.73477,3.582367,0.374328,0.4648123999999999,0.6952656999999999,0.1161194,-0.3140564,0.9422607,33.857479999999995,3.815018,-24.7123,3.659988,0.4411627,0.4731644,-0.2891544,1.239739,-0.106169,-0.05467394,0.7676535,0.06094836,0.08841182,-74.48329,34.33
1,0.1128692999999999,-0.3097687,0.9440765,0.8168581,0.1097412,-0.305603,0.9458008,-28.5144,3.552109,-22.73477,3.582367,0.374328,0.4648123999999999,0.6952656999999999,0.1161194,-0.3140564,0.9422607,33.857479999999995,3.815018,-24.7123,3.659988,0.4411627,0.4731644,-0.2891544,1.239739,-0.106169,-0.05467394,0.7676535,0.06094836,0.08841182,-74.48329,34.33
1,0.1127166999999999,-0.3087616,0.9444275,0.802614,0.1103058,-0.3049622,0.9459534,-28.521590000000003,3.551041000000001,-22.74197,3.616928,0.3744716,0.4647931999999999,0.6748778,0.1151732999999999,-0.3126220999999999,0.9428558,33.857479999999995,3.803329,-24.72328,3.666519,0.4413159,0.4733812,-0.2890469,1.239785,-0.1060396,-0.05517882,0.7667878,0.06070412,0.08841182,-74.48329,34.33
1,0.1127166999999999,-0.3087616,0.9444275,0.802614,0.1103058,-0.3049622,0.9459534,-28.521590000000003,3.551041000000001,-22.74197,3.616928,0.3744716,0.4647931999999999,0.6748778,0.1151732999999999,-0.3126220999999999,0.9428558,33.857479999999995,3.803329,-24.72328,3.666519,0.4413159,0.4733812,-0.2890469,1.239785,-0.1060396,-0.05517882,0.7667878,0.06070412,0.08841182,-74.48329,34.33
1,0.1127166999999999,-0.3087616,0.9444275,0.802614,0.1103058,-0.3049622,0.9459534,-28.521590000000003,3.551041000000001,-22.74197,3.616928,0.3744716,0.4647931999999999,0.6748778,0.1151732999999999,-0.3126220999999999,0.9428558,33.857479999999995,3.803329,-24.72328,3.666519,0.4413159,0.4733812,-0.2890469,1.239785,-0.1060396,-0.05517882,0.7667878,0.06070412,0.08841182,-74.48329,34.33
1,0.1105347,-0.307663,0.9450378,0.8117965,0.1058043999999999,-0.3034972999999999,0.9469299,-28.52328,3.5503690000000003,-22.74715,3.678329,0.3752575999999999,0.4645685999999999,0.6949681999999999,0.1154174999999999,-0.3119659,0.9430389,33.860409999999995,3.800827,-24.73651,3.735962,0.4411936999999999,0.4734552999999999,-0.2889769,1.239841,-0.1059238,-0.0554725,0.7663418000000001,0.06052408,0.08841182,-74.48329,34.33
1,0.1105347,-0.307663,0.9450378,0.8117965,0.1058043999999999,-0.3034972999999999,0.9469299,-28.52328,3.5503690000000003,-22.74715,3.678329,0.3752575999999999,0.4645685999999999,0.6949681999999999,0.1154174999999999,-0.3119659,0.9430389,33.860409999999995,3.800827,-24.73651,3.735962,0.4411936999999999,0.4734552999999999,-0.2889769,1.239841,-0.1059238,-0.0554725,0.7663418000000001,0.06052408,0.08841182,-74.48329,34.33
1,0.1105347,-0.307663,0.9450378,0.8117965,0.1058043999999999,-0.3034972999999999,0.9469299,-28.52328,3.5503690000000003,-22.74715,3.678329,0.3752575999999999,0.4645685999999999,0.6949681999999999,0.1154174999999999,-0.3119659,0.9430389,33.860409999999995,3.800827,-24.73651,3.735962,0.4411936999999999,0.4734552999999999,-0.2889769,1.239841,-0.1059238,-0.0554725,0.7663418000000001,0.06052408,0.08841182,-74.48329,34.33
1,0.1082458,-0.3076172,0.9453278,0.8113271,0.101532,-0.3023987,0.9477539,-28.52699,3.550064,-22.7504,3.683838,0.3760613,0.4644087,0.7026365,0.1152344,-0.3130188,0.9427185,33.85841,3.812393,-24.752370000000003,3.795944,0.4413048,0.4733812,-0.2888926,1.23977,-0.1057299,-0.05559502,0.7652865,0.06052343,0.08841182,45.45198,34.33
1,0.1082458,-0.3076172,0.9453278,0.8113271,0.101532,-0.3023987,0.9477539,-28.52699,3.550064,-22.7504,3.683838,0.3760613,0.4644087,0.7026365,0.1152344,-0.3130188,0.9427185,33.85841,3.812393,-24.752370000000003,3.795944,0.4413048,0.4733812,-0.2888926,1.23977,-0.1057299,-0.05559502,0.7652865,0.06052343,0.08841182,45.45198,34.33
1,0.1082458,-0.3076172,0.9453278,0.8113271,0.101532,-0.3023987,0.9477539,-28.52699,3.550064,-22.7504,3.683838,0.3760613,0.4644087,0.7026365,0.1152344,-0.3130188,0.9427185,33.85841,3.812393,-24.752370000000003,3.795944,0.4413048,0.4733812,-0.2888926,1.23977,-0.1057299,-0.05559502,0.7652865,0.06052343,0.08841182,45.45198,34.33
1,0.1054535,-0.307373,0.9457245,0.7923475,0.09709167,-0.3012543,0.9485779,-28.532870000000003,3.550064,-22.75279,3.695679,0.3769634,0.464211,0.6512438,0.1143798999999999,-0.3138732999999999,0.9425354,33.85841,3.816391,-24.75923,3.842911,0.4414565,0.4734552999999999,-0.2888725,1.239764,-0.1056232999999999,-0.05553656,0.7648835,0.06040686,0.08841182,45.45198,34.33
1,0.1054535,-0.307373,0.9457245,0.7923475,0.09709167,-0.3012543,0.9485779,-28.532870000000003,3.550064,-22.75279,3.695679,0.3769634,0.464211,0.6512438,0.1143798999999999,-0.3138732999999999,0.9425354,33.85841,3.816391,-24.75923,3.842911,0.4414565,0.4734552999999999,-0.2888725,1.239764,-0.1056232999999999,-0.05553656,0.7648835,0.06040686,0.08841182,45.45198,34.33
1,0.1054535,-0.307373,0.9457245,0.7923475,0.09709167,-0.3012543,0.9485779,-28.532870000000003,3.550064,-22.75279,3.695679,0.3769634,0.464211,0.6512438,0.1143798999999999,-0.3138732999999999,0.9425354,33.85841,3.816391,-24.75923,3.842911,0.4414565,0.4734552999999999,-0.2888725,1.239764,-0.1056232999999999,-0.05553656,0.7648835,0.06040686,0.08841182,45.45198,34.33
1,0.1022797,-0.3074188,0.9460449,0.7793663000000001,0.09541321,-0.300354,0.9490356,-28.54434,3.555878,-22.75575,3.704239,0.3776038,0.4638842000000001,0.6685085999999999,0.1095276,-0.3148499,0.9427948,33.85841,3.821243,-24.7677,3.891815,0.4422689,0.4735166,-0.2890283,1.239801,-0.1054118999999999,-0.05575227,0.7641815,0.06020115,0.08841182,45.45198,34.33
1,0.1022797,-0.3074188,0.9460449,0.7793663000000001,0.09541321,-0.300354,0.9490356,-28.54434,3.555878,-22.75575,3.704239,0.3776038,0.4638842000000001,0.6685085999999999,0.1095276,-0.3148499,0.9427948,33.85841,3.821243,-24.7677,3.891815,0.4422689,0.4735166,-0.2890283,1.239801,-0.1054118999999999,-0.05575227,0.7641815,0.06020115,0.08841182,45.45198,34.33
1,0.1022797,-0.3074188,0.9460449,0.7793663000000001,0.09541321,-0.300354,0.9490356,-28.54434,3.555878,-22.75575,3.704239,0.3776038,0.4638842000000001,0.6685085999999999,0.1095276,-0.3148499,0.9427948,33.85841,3.821243,-24.7677,3.891815,0.4422689,0.4735166,-0.2890283,1.239801,-0.1054118999999999,-0.05575227,0.7641815,0.06020115,0.08841182,45.45198,34.33
1,0.1210327,-0.3726044,0.9200592,0.7825171,0.1196747,-0.3667603,0.9225769,-28.38861,3.192215,-22.95102,4.144241,0.3684183,0.4888047,0.6561608,0.1219635,-0.3765869,0.9183044,33.82124,3.551025,-24.900270000000003,3.887924,0.4412621,0.4948896,-0.289055,1.2398049999999998,-0.1052318,-0.05612925,0.7637138000000001,0.06013893,0.08841182,45.45198,34.33
1,0.1210327,-0.3726044,0.9200592,0.7825171,0.1196747,-0.3667603,0.9225769,-28.38861,3.192215,-22.95102,4.144241,0.3684183,0.4888047,0.6561608,0.1219635,-0.3765869,0.9183044,33.82124,3.551025,-24.900270000000003,3.887924,0.4412621,0.4948896,-0.289055,1.2398049999999998,-0.1052318,-0.05612925,0.7637138000000001,0.06013893,0.08841182,45.45198,34.33
1,0.1210327,-0.3726044,0.9200592,0.7825171,0.1196747,-0.3667603,0.9225769,-28.38861,3.192215,-22.95102,4.144241,0.3684183,0.4888047,0.6561608,0.1219635,-0.3765869,0.9183044,33.82124,3.551025,-24.900270000000003,3.887924,0.4412621,0.4948896,-0.289055,1.2398049999999998,-0.1052318,-0.05612925,0.7637138000000001,0.06013893,0.08841182,45.45198,34.33
1,0.1313477,-0.3836823,0.9140625,0.7556748000000001,0.1415558,-0.3845978,0.9121552,-28.5032,3.275269,-22.84264,4.127701,0.3687132,0.4884954999999999,0.620499,0.1243744,-0.3830414,0.9152985,33.85875,3.532242,-24.91153,3.972763,0.4396172,0.4967607,-0.2890507,1.239873,-0.1051367999999999,-0.05614309,0.7633564,0.05958829,0.08841182,45.45198,34.33
1,0.1313477,-0.3836823,0.9140625,0.7556748000000001,0.1415558,-0.3845978,0.9121552,-28.5032,3.275269,-22.84264,4.127701,0.3687132,0.4884954999999999,0.620499,0.1243744,-0.3830414,0.9152985,33.85875,3.532242,-24.91153,3.972763,0.4396172,0.4967607,-0.2890507,1.239873,-0.1051367999999999,-0.05614309,0.7633564,0.05958829,0.08841182,45.45198,34.33
1,0.1313477,-0.3836823,0.9140625,0.7556748000000001,0.1415558,-0.3845978,0.9121552,-28.5032,3.275269,-22.84264,4.127701,0.3687132,0.4884954999999999,0.620499,0.1243744,-0.3830414,0.9152985,33.85875,3.532242,-24.91153,3.972763,0.4396172,0.4967607,-0.2890507,1.239873,-0.1051367999999999,-0.05614309,0.7633564,0.05958829,0.08841182,45.45198,34.33
1,0.1323089999999999,-0.3861237,0.9129028,0.7271369000000001,0.1461334,-0.3952789,0.9068451,-28.52588,3.283813,-22.82758,4.191147,0.3687301,0.4900007,0.6305313,0.1233978,-0.3801727,0.9166412,33.86267,3.5308230000000003,-24.91235,3.937439,0.4396390999999999,0.4963014,-0.2889468,1.240028,-0.1050365,-0.05582986,0.7624251,0.0591406999999999,0.08841182,45.45198,34.33
1,0.1323089999999999,-0.3861237,0.9129028,0.7271369000000001,0.1461334,-0.3952789,0.9068451,-28.52588,3.283813,-22.82758,4.191147,0.3687301,0.4900007,0.6305313,0.1233978,-0.3801727,0.9166412,33.86267,3.5308230000000003,-24.91235,3.937439,0.4396390999999999,0.4963014,-0.2889468,1.240028,-0.1050365,-0.05582986,0.7624251,0.0591406999999999,0.08841182,45.45198,34.33
1,0.1323089999999999,-0.3861237,0.9129028,0.7271369000000001,0.1461334,-0.3952789,0.9068451,-28.52588,3.283813,-22.82758,4.191147,0.3687301,0.4900007,0.6305313,0.1233978,-0.3801727,0.9166412,33.86267,3.5308230000000003,-24.91235,3.937439,0.4396390999999999,0.4963014,-0.2889468,1.240028,-0.1050365,-0.05582986,0.7624251,0.0591406999999999,0.08841182,45.45198,34.33
1,0.1263885,-0.3850098,0.9142151,0.7338906999999999,0.1282348999999999,-0.3955994,0.9094238,-28.47707,3.2882839999999995,-22.85077,4.187668,0.3699764,0.4900007,0.5763736,0.1246948,-0.3752747,0.9184723,33.87057,3.532425,-24.91374,3.969635,0.4391776,0.4953547,-0.2889313,1.240088,-0.1049051999999999,-0.05588454,0.7619198,0.05892261,0.08841182,36.02536,34.33
1,0.1263885,-0.3850098,0.9142151,0.7338906999999999,0.1282348999999999,-0.3955994,0.9094238,-28.47707,3.2882839999999995,-22.85077,4.187668,0.3699764,0.4900007,0.5763736,0.1246948,-0.3752747,0.9184723,33.87057,3.532425,-24.91374,3.969635,0.4391776,0.4953547,-0.2889313,1.240088,-0.1049051999999999,-0.05588454,0.7619198,0.05892261,0.08841182,36.02536,34.33
1,0.1263885,-0.3850098,0.9142151,0.7338906999999999,0.1282348999999999,-0.3955994,0.9094238,-28.47707,3.2882839999999995,-22.85077,4.187668,0.3699764,0.4900007,0.5763736,0.1246948,-0.3752747,0.9184723,33.87057,3.532425,-24.91374,3.969635,0.4391776,0.4953547,-0.2889313,1.240088,-0.1049051999999999,-0.05588454,0.7619198,0.05892261,0.08841182,36.02536,34.33
2,0.1260833999999999,-0.3836212,0.9148254,0.7338906999999999,0.1277161,-0.3923798,0.9108887,-28.48804,3.288528,-22.84151,4.175446,0.3704274,0.4893459,0.5763736,0.1245117,-0.3752289,0.9185181,33.87811,3.545135,-24.91431,3.988480000000001,0.4389653,0.4949170999999999,-0.2888635,1.239974,-0.1045258,-0.05589258,0.7607459,0.05883602,0.08841182,36.02536,34.33
2,0.1260833999999999,-0.3836212,0.9148254,0.7338906999999999,0.1277161,-0.3923798,0.9108887,-28.48804,3.288528,-22.84151,4.175446,0.3704274,0.4893459,0.5763736,0.1245117,-0.3752289,0.9185181,33.87811,3.545135,-24.91431,3.988480000000001,0.4389653,0.4949170999999999,-0.2888635,1.239974,-0.1045258,-0.05589258,0.7607459,0.05883602,0.08841182,36.02536,34.33
2,0.1260833999999999,-0.3836212,0.9148254,0.7338906999999999,0.1277161,-0.3923798,0.9108887,-28.48804,3.288528,-22.84151,4.175446,0.3704274,0.4893459,0.5763736,0.1245117,-0.3752289,0.9185181,33.87811,3.545135,-24.91431,3.988480000000001,0.4389653,0.4949170999999999,-0.2888635,1.239974,-0.1045258,-0.05589258,0.7607459,0.05883602,0.08841182,36.02536,34.33
2,0.1245117,-0.3841553,0.9148254,0.7612693,0.126297,-0.3921204,0.9111938,-28.49626,3.288971,-22.8335,4.175629,0.3709264,0.4892101,0.5843039000000001,0.1228484999999999,-0.3766784999999999,0.9181519,33.88811,3.567047,-24.91498,3.988495,0.43891,0.4944532,-0.288892,1.23993,-0.1043359,-0.05600231,0.7601207,0.05889323,0.08841182,36.02536,34.33
2,0.1245117,-0.3841553,0.9148254,0.7612693,0.126297,-0.3921204,0.9111938,-28.49626,3.288971,-22.8335,4.175629,0.3709264,0.4892101,0.5843039000000001,0.1228484999999999,-0.3766784999999999,0.9181519,33.88811,3.567047,-24.91498,3.988495,0.43891,0.4944532,-0.288892,1.23993,-0.1043359,-0.05600231,0.7601207,0.05889323,0.08841182,36.02536,34.33
2,0.1245117,-0.3841553,0.9148254,0.7612693,0.126297,-0.3921204,0.9111938,-28.49626,3.288971,-22.8335,4.175629,0.3709264,0.4892101,0.5843039000000001,0.1228484999999999,-0.3766784999999999,0.9181519,33.88811,3.567047,-24.91498,3.988495,0.43891,0.4944532,-0.288892,1.23993,-0.1043359,-0.05600231,0.7601207,0.05889323,0.08841182,36.02536,34.33
2,0.1247559,-0.3807983,0.9161987,0.7332613,0.1270599,-0.3893433,0.9122772,-28.50401,3.290314,-22.82861,4.223541,0.3710776,0.4886175,0.5956199999999999,0.1225586,-0.3726196,0.9198456,33.890840000000004,3.577652,-24.91701,4.018875,0.4388833,0.4933694999999999,-0.2888771,1.2400520000000002,-0.1042257,-0.05620304,0.7592966999999999,0.05829771,0.08841182,36.02536,34.33
2,0.1247559,-0.3807983,0.9161987,0.7332613,0.1270599,-0.3893433,0.9122772,-28.50401,3.290314,-22.82861,4.223541,0.3710776,0.4886175,0.5956199999999999,0.1225586,-0.3726196,0.9198456,33.890840000000004,3.577652,-24.91701,4.018875,0.4388833,0.4933694999999999,-0.2888771,1.2400520000000002,-0.1042257,-0.05620304,0.7592966999999999,0.05829771,0.08841182,36.02536,34.33
2,0.1247559,-0.3807983,0.9161987,0.7332613,0.1270599,-0.3893433,0.9122772,-28.50401,3.290314,-22.82861,4.223541,0.3710776,0.4886175,0.5956199999999999,0.1225586,-0.3726196,0.9198456,33.890840000000004,3.577652,-24.91701,4.018875,0.4388833,0.4933694999999999,-0.2888771,1.2400520000000002,-0.1042257,-0.05620304,0.7592966999999999,0.05829771,0.08841182,36.02536,34.33
2,0.1201476999999999,-0.3829040999999999,0.9159241,0.7569744,0.1181946,-0.3895416,0.9133759,-28.50908,3.2886050000000004,-22.82481,4.235657,0.3726549,0.4886175,0.6112038000000001,0.121994,-0.3765410999999999,0.9183197,33.891740000000006,3.616684,-24.91824,4.019516,0.4389515,0.4927914,-0.2890115,1.240105,-0.1041288,-0.05629364,0.7586546999999999,0.05780796,0.08841182,25.6363,34.33
2,0.1201476999999999,-0.3829040999999999,0.9159241,0.7569744,0.1181946,-0.3895416,0.9133759,-28.50908,3.2886050000000004,-22.82481,4.235657,0.3726549,0.4886175,0.6112038000000001,0.121994,-0.3765410999999999,0.9183197,33.891740000000006,3.616684,-24.91824,4.019516,0.4389515,0.4927914,-0.2890115,1.240105,-0.1041288,-0.05629364,0.7586546999999999,0.05780796,0.08841182,25.6363,34.33
2,0.1201476999999999,-0.3829040999999999,0.9159241,0.7569744,0.1181946,-0.3895416,0.9133759,-28.50908,3.2886050000000004,-22.82481,4.235657,0.3726549,0.4886175,0.6112038000000001,0.121994,-0.3765410999999999,0.9183197,33.891740000000006,3.616684,-24.91824,4.019516,0.4389515,0.4927914,-0.2890115,1.240105,-0.1041288,-0.05629364,0.7586546999999999,0.05780796,0.08841182,25.6363,34.33
2,0.1199799,-0.3838348,0.9155579,0.7661226,0.1187897,-0.3897247,0.9132233,-28.53773,3.288727,-22.80991,4.238739,0.3735033,0.4885311,0.5745475,0.121109,-0.3781738,0.9177704,33.891740000000006,3.626343,-24.91722,4.006104,0.4390929,0.4927601,-0.2890457,1.2401209999999998,-0.1041134,-0.05639213,0.7580648,0.05750911,0.08841182,25.6363,34.33
2,0.1199799,-0.3838348,0.9155579,0.7661226,0.1187897,-0.3897247,0.9132233,-28.53773,3.288727,-22.80991,4.238739,0.3735033,0.4885311,0.5745475,0.121109,-0.3781738,0.9177704,33.891740000000006,3.626343,-24.91722,4.006104,0.4390929,0.4927601,-0.2890457,1.2401209999999998,-0.1041134,-0.05639213,0.7580648,0.05750911,0.08841182,25.6363,34.33
2,0.1199799,-0.3838348,0.9155579,0.7661226,0.1187897,-0.3897247,0.9132233,-28.53773,3.288727,-22.80991,4.238739,0.3735033,0.4885311,0.5745475,0.121109,-0.3781738,0.9177704,33.891740000000006,3.626343,-24.91722,4.006104,0.4390929,0.4927601,-0.2890457,1.2401209999999998,-0.1041134,-0.05639213,0.7580648,0.05750911,0.08841182,25.6363,34.33
2,0.1238098,-0.3816986,0.9159393,0.7528931,0.1239471,-0.3889770999999999,0.9128571,-28.56752,3.3027800000000003,-22.80521,4.258286,0.3736625,0.4879352,0.5452121,0.1236724999999999,-0.3747101,0.9188538,33.87833,3.639725,-24.90903,4.0324860000000005,0.4391411,0.4916248,-0.289089,1.240229,-0.1039738,-0.05628603,0.7574005,0.05712046,0.08841182,25.6363,34.33
2,0.1238098,-0.3816986,0.9159393,0.7528931,0.1239471,-0.3889770999999999,0.9128571,-28.56752,3.3027800000000003,-22.80521,4.258286,0.3736625,0.4879352,0.5452121,0.1236724999999999,-0.3747101,0.9188538,33.87833,3.639725,-24.90903,4.0324860000000005,0.4391411,0.4916248,-0.289089,1.240229,-0.1039738,-0.05628603,0.7574005,0.05712046,0.08841182,25.6363,34.33
2,0.1238098,-0.3816986,0.9159393,0.7528931,0.1239471,-0.3889770999999999,0.9128571,-28.56752,3.3027800000000003,-22.80521,4.258286,0.3736625,0.4879352,0.5452121,0.1236724999999999,-0.3747101,0.9188538,33.87833,3.639725,-24.90903,4.0324860000000005,0.4391411,0.4916248,-0.289089,1.240229,-0.1039738,-0.05628603,0.7574005,0.05712046,0.08841182,25.6363,34.33
2,0.1298369999999999,-0.4164885999999999,0.8998108,0.7402241,0.1448974999999999,-0.4280853,0.8920288000000001,-28.53476,3.188141,-22.86958,4.321609,0.3691234,0.4992537,0.5705729,0.110199,-0.4011535999999999,0.9093475,33.77441,3.375809,-25.04277,4.023499,0.4446785,0.5063987,-0.2891582,1.24023,-0.1038935,-0.05584373,0.7568585,0.05677273,0.08841182,25.6363,34.33
2,0.1298369999999999,-0.4164885999999999,0.8998108,0.7402241,0.1448974999999999,-0.4280853,0.8920288000000001,-28.53476,3.188141,-22.86958,4.321609,0.3691234,0.4992537,0.5705729,0.110199,-0.4011535999999999,0.9093475,33.77441,3.375809,-25.04277,4.023499,0.4446785,0.5063987,-0.2891582,1.24023,-0.1038935,-0.05584373,0.7568585,0.05677273,0.08841182,25.6363,34.33
2,0.1298369999999999,-0.4164885999999999,0.8998108,0.7402241,0.1448974999999999,-0.4280853,0.8920288000000001,-28.53476,3.188141,-22.86958,4.321609,0.3691234,0.4992537,0.5705729,0.110199,-0.4011535999999999,0.9093475,33.77441,3.375809,-25.04277,4.023499,0.4446785,0.5063987,-0.2891582,1.24023,-0.1038935,-0.05584373,0.7568585,0.05677273,0.08841182,25.6363,34.33
2,0.1240692,-0.4449768,0.8868866,0.6334335,0.1286774,-0.4509125,0.8832245000000001,-28.50375,3.139053,-22.90471,4.185654,0.3705578,0.5052587000000001,0.556453,0.1143341,-0.4323729999999999,0.8944091999999999,33.7558,3.24884,-25.12309,4.250717,0.4445809,0.5170847,-0.2892822,1.240381,-0.1035138999999999,-0.05435797,0.755286,0.05474871,0.08841182,25.6363,34.33
2,0.1240692,-0.4449768,0.8868866,0.6334335,0.1286774,-0.4509125,0.8832245000000001,-28.50375,3.139053,-22.90471,4.185654,0.3705578,0.5052587000000001,0.556453,0.1143341,-0.4323729999999999,0.8944091999999999,33.7558,3.24884,-25.12309,4.250717,0.4445809,0.5170847,-0.2892822,1.240381,-0.1035138999999999,-0.05435797,0.755286,0.05474871,0.08841182,25.6363,34.33
2,0.1240692,-0.4449768,0.8868866,0.6334335,0.1286774,-0.4509125,0.8832245000000001,-28.50375,3.139053,-22.90471,4.185654,0.3705578,0.5052587000000001,0.556453,0.1143341,-0.4323729999999999,0.8944091999999999,33.7558,3.24884,-25.12309,4.250717,0.4445809,0.5170847,-0.2892822,1.240381,-0.1035138999999999,-0.05435797,0.755286,0.05474871,0.08841182,25.6363,34.33
2,0.1238556,-0.4409943,0.8889007999999999,0.6393243000000001,0.140625,-0.4444426999999999,0.8846893,-28.55667,3.059357,-22.93414,4.24176,0.3703662,0.5069622,0.5815906999999999,0.1082153,-0.4376678,0.8925934000000001,33.78552,3.278366000000001,-25.12634,4.242493,0.4445809,0.5170847,-0.2892644,1.240422,-0.1033398999999999,-0.05315805,0.7542397,0.05312896,0.08841182,-35.14437,34.33
2,0.1238556,-0.4409943,0.8889007999999999,0.6393243000000001,0.140625,-0.4444426999999999,0.8846893,-28.55667,3.059357,-22.93414,4.24176,0.3703662,0.5069622,0.5815906999999999,0.1082153,-0.4376678,0.8925934000000001,33.78552,3.278366000000001,-25.12634,4.242493,0.4445809,0.5170847,-0.2892644,1.240422,-0.1033398999999999,-0.05315805,0.7542397,0.05312896,0.08841182,-35.14437,34.33
2,0.1238556,-0.4409943,0.8889007999999999,0.6393243000000001,0.140625,-0.4444426999999999,0.8846893,-28.55667,3.059357,-22.93414,4.24176,0.3703662,0.5069622,0.5815906999999999,0.1082153,-0.4376678,0.8925934000000001,33.78552,3.278366000000001,-25.12634,4.242493,0.4445809,0.5170847,-0.2892644,1.240422,-0.1033398999999999,-0.05315805,0.7542397,0.05312896,0.08841182,-35.14437,34.33
2,0.122345,-0.440033,0.8896027,0.625106,0.1392975,-0.4402008,0.8870239,-28.56052,3.057663,-22.93004,4.241821,0.370716,0.5062028000000001,0.5627228,0.1072083,-0.4397582999999999,0.8916779,33.79005,3.278397,-25.12733,4.229202,0.4445878,0.5174896999999999,-0.2894187,1.240415,-0.1030698999999999,-0.05162867,0.7530034000000001,0.05120584,0.08841182,-35.14437,34.33
2,0.122345,-0.440033,0.8896027,0.625106,0.1392975,-0.4402008,0.8870239,-28.56052,3.057663,-22.93004,4.241821,0.370716,0.5062028000000001,0.5627228,0.1072083,-0.4397582999999999,0.8916779,33.79005,3.278397,-25.12733,4.229202,0.4445878,0.5174896999999999,-0.2894187,1.240415,-0.1030698999999999,-0.05162867,0.7530034000000001,0.05120584,0.08841182,-35.14437,34.33
2,0.122345,-0.440033,0.8896027,0.625106,0.1392975,-0.4402008,0.8870239,-28.56052,3.057663,-22.93004,4.241821,0.370716,0.5062028000000001,0.5627228,0.1072083,-0.4397582999999999,0.8916779,33.79005,3.278397,-25.12733,4.229202,0.4445878,0.5174896999999999,-0.2894187,1.240415,-0.1030698999999999,-0.05162867,0.7530034000000001,0.05120584,0.08841182,-35.14437,34.33
2,0.1135864,-0.437851,0.8918304,0.6132517,0.1252289,-0.4367675999999999,0.8908081,-28.573390000000003,3.05455,-22.93323,4.285614,0.3733879,0.5056037999999999,0.5758884,0.1037903,-0.4387207,0.8925934000000001,33.79201,3.281006,-25.14243,4.24176,0.4450827999999999,0.5173226,-0.2896572,1.240604,-0.1026762,-0.04951084,0.7515653,0.04805642,0.08841182,-35.14437,34.33
2,0.1135864,-0.437851,0.8918304,0.6132517,0.1252289,-0.4367675999999999,0.8908081,-28.573390000000003,3.05455,-22.93323,4.285614,0.3733879,0.5056037999999999,0.5758884,0.1037903,-0.4387207,0.8925934000000001,33.79201,3.281006,-25.14243,4.24176,0.4450827999999999,0.5173226,-0.2896572,1.240604,-0.1026762,-0.04951084,0.7515653,0.04805642,0.08841182,-35.14437,34.33
2,0.1135864,-0.437851,0.8918304,0.6132517,0.1252289,-0.4367675999999999,0.8908081,-28.573390000000003,3.05455,-22.93323,4.285614,0.3733879,0.5056037999999999,0.5758884,0.1037903,-0.4387207,0.8925934000000001,33.79201,3.281006,-25.14243,4.24176,0.4450827999999999,0.5173226,-0.2896572,1.240604,-0.1026762,-0.04951084,0.7515653,0.04805642,0.08841182,-35.14437,34.33
2,0.1090546,-0.4373932,0.8926238999999999,0.6641345000000001,0.1187134,-0.4340057,0.8930359,-28.58243,3.05455,-22.93004,4.287659,0.3747253,0.5050468,0.5901645999999999,0.09988403,-0.4405823,0.8921203999999999,33.79013,3.295898,-25.14392,4.236404,0.4457872,0.5171683,-0.2897525,1.24046,-0.1023195,-0.04691234,0.7499226,0.04479748,0.08841182,-35.14437,34.33
2,0.1090546,-0.4373932,0.8926238999999999,0.6641345000000001,0.1187134,-0.4340057,0.8930359,-28.58243,3.05455,-22.93004,4.287659,0.3747253,0.5050468,0.5901645999999999,0.09988403,-0.4405823,0.8921203999999999,33.79013,3.295898,-25.14392,4.236404,0.4457872,0.5171683,-0.2897525,1.24046,-0.1023195,-0.04691234,0.7499226,0.04479748,0.08841182,-35.14437,34.33
2,0.1090546,-0.4373932,0.8926238999999999,0.6641345000000001,0.1187134,-0.4340057,0.8930359,-28.58243,3.05455,-22.93004,4.287659,0.3747253,0.5050468,0.5901645999999999,0.09988403,-0.4405823,0.8921203999999999,33.79013,3.295898,-25.14392,4.236404,0.4457872,0.5171683,-0.2897525,1.24046,-0.1023195,-0.04691234,0.7499226,0.04479748,0.08841182,-35.14437,34.33
2,0.09703064,-0.4275665,0.8987427,0.6589901,0.1101073999999999,-0.4350281,0.8936462,-28.59322,3.102448,-22.92503,4.305603,0.3764578,0.5035842,0.5848966999999999,0.08207703,-0.4188995,0.9042969,33.74593,3.3956760000000004,-25.09509,4.054169,0.4502260999999999,0.5093901,-0.2897921,1.240261,-0.1019763,-0.04429765,0.7480249,0.04147652,0.08841182,-35.14437,34.33
2,0.09703064,-0.4275665,0.8987427,0.6589901,0.1101073999999999,-0.4350281,0.8936462,-28.59322,3.102448,-22.92503,4.305603,0.3764578,0.5035842,0.5848966999999999,0.08207703,-0.4188995,0.9042969,33.74593,3.3956760000000004,-25.09509,4.054169,0.4502260999999999,0.5093901,-0.2897921,1.240261,-0.1019763,-0.04429765,0.7480249,0.04147652,0.08841182,-35.14437,34.33
2,0.09703064,-0.4275665,0.8987427,0.6589901,0.1101073999999999,-0.4350281,0.8936462,-28.59322,3.102448,-22.92503,4.305603,0.3764578,0.5035842,0.5848966999999999,0.08207703,-0.4188995,0.9042969,33.74593,3.3956760000000004,-25.09509,4.054169,0.4502260999999999,0.5093901,-0.2897921,1.240261,-0.1019763,-0.04429765,0.7480249,0.04147652,0.08841182,-35.14437,34.33
2,0.08119202,-0.410553,0.9082031,0.6743343,0.08227539,-0.4076995999999999,0.9093933,-28.66624,3.248367,-22.83252,4.327042,0.3834019,0.4930685999999999,0.6099368000000001,0.08030701,-0.4129180999999999,0.9072113000000002,33.71576,3.449066,-25.06987,4.169205000000001,0.4515839,0.5062172,-0.2895997,1.2399209999999998,-0.1017463,-0.04194759,0.7463352,0.03804586,0.08841182,-66.16826,34.33
2,0.08119202,-0.410553,0.9082031,0.6743343,0.08227539,-0.4076995999999999,0.9093933,-28.66624,3.248367,-22.83252,4.327042,0.3834019,0.4930685999999999,0.6099368000000001,0.08030701,-0.4129180999999999,0.9072113000000002,33.71576,3.449066,-25.06987,4.169205000000001,0.4515839,0.5062172,-0.2895997,1.2399209999999998,-0.1017463,-0.04194759,0.7463352,0.03804586,0.08841182,-66.16826,34.33
2,0.08119202,-0.410553,0.9082031,0.6743343,0.08227539,-0.4076995999999999,0.9093933,-28.66624,3.248367,-22.83252,4.327042,0.3834019,0.4930685999999999,0.6099368000000001,0.08030701,-0.4129180999999999,0.9072113000000002,33.71576,3.449066,-25.06987,4.169205000000001,0.4515839,0.5062172,-0.2895997,1.2399209999999998,-0.1017463,-0.04194759,0.7463352,0.03804586,0.08841182,-66.16826,34.33
2,0.08287048,-0.4096069,0.9084778,0.6886269,0.0880127,-0.4122925,0.9067841,-28.69827,3.288895,-22.82304,4.344452,0.3835407,0.4925148,0.6314004,0.07777405,-0.4069061,0.910141,33.69157,3.51532,-25.04349,4.148438,0.4528393,0.5026758,-0.289269,1.239387,-0.1014982,-0.03853088,0.7450281,0.03477703,0.08841182,-66.16826,34.33
2,0.08287048,-0.4096069,0.9084778,0.6886269,0.0880127,-0.4122925,0.9067841,-28.69827,3.288895,-22.82304,4.344452,0.3835407,0.4925148,0.6314004,0.07777405,-0.4069061,0.910141,33.69157,3.51532,-25.04349,4.148438,0.4528393,0.5026758,-0.289269,1.239387,-0.1014982,-0.03853088,0.7450281,0.03477703,0.08841182,-66.16826,34.33
2,0.08287048,-0.4096069,0.9084778,0.6886269,0.0880127,-0.4122925,0.9067841,-28.69827,3.288895,-22.82304,4.344452,0.3835407,0.4925148,0.6314004,0.07777405,-0.4069061,0.910141,33.69157,3.51532,-25.04349,4.148438,0.4528393,0.5026758,-0.289269,1.239387,-0.1014982,-0.03853088,0.7450281,0.03477703,0.08841182,-66.16826,34.33
2,0.0874939,-0.3981628,0.9131165,0.6821878,0.08856201,-0.4004211,0.9120331,-28.70755,3.3195650000000003,-22.8237,4.410126,0.383797,0.4893978,0.6078545,0.08616638,-0.3952942,0.9144896999999998,33.66174,3.580276,-25.01859,4.215744,0.4525215999999999,0.4981585999999999,-0.2889792,1.238674,-0.1012,-0.03499173,0.7441938,0.03202444,0.08841182,-66.16826,34.33
2,0.0874939,-0.3981628,0.9131165,0.6821878,0.08856201,-0.4004211,0.9120331,-28.70755,3.3195650000000003,-22.8237,4.410126,0.383797,0.4893978,0.6078545,0.08616638,-0.3952942,0.9144896999999998,33.66174,3.580276,-25.01859,4.215744,0.4525215999999999,0.4981585999999999,-0.2889792,1.238674,-0.1012,-0.03499173,0.7441938,0.03202444,0.08841182,-66.16826,34.33
2,0.0874939,-0.3981628,0.9131165,0.6821878,0.08856201,-0.4004211,0.9120331,-28.70755,3.3195650000000003,-22.8237,4.410126,0.383797,0.4893978,0.6078545,0.08616638,-0.3952942,0.9144896999999998,33.66174,3.580276,-25.01859,4.215744,0.4525215999999999,0.4981585999999999,-0.2889792,1.238674,-0.1012,-0.03499173,0.7441938,0.03202444,0.08841182,-66.16826,34.33
2,0.08006287,-0.4031372,0.9116211,0.7048484,0.07525635,-0.4024658,0.912323,-28.71526,3.3551940000000005,-22.76746,4.462418,0.3861918,0.4880599,0.6389268,0.08494568,-0.4038085999999999,0.9108887,33.63362,3.647812,-25.00229,4.469879,0.453731,0.4972303,-0.2885998,1.238223,-0.1011425,-0.031641,0.7437024999999999,0.03016835,0.08841182,-66.16826,34.33
2,0.08006287,-0.4031372,0.9116211,0.7048484,0.07525635,-0.4024658,0.912323,-28.71526,3.3551940000000005,-22.76746,4.462418,0.3861918,0.4880599,0.6389268,0.08494568,-0.4038085999999999,0.9108887,33.63362,3.647812,-25.00229,4.469879,0.453731,0.4972303,-0.2885998,1.238223,-0.1011425,-0.031641,0.7437024999999999,0.03016835,0.08841182,-66.16826,34.33
2,0.08006287,-0.4031372,0.9116211,0.7048484,0.07525635,-0.4024658,0.912323,-28.71526,3.3551940000000005,-22.76746,4.462418,0.3861918,0.4880599,0.6389268,0.08494568,-0.4038085999999999,0.9108887,33.63362,3.647812,-25.00229,4.469879,0.453731,0.4972303,-0.2885998,1.238223,-0.1011425,-0.031641,0.7437024999999999,0.03016835,0.08841182,-66.16826,34.33
2,0.0793457,-0.3841095,0.9198608,0.7133443,0.07566833,-0.3878632,0.9185944,-28.74274,3.3762510000000003,-22.75632,4.390334999999999,0.387055,0.484742,0.6255748000000001,0.08239746,-0.3809967,0.9208832,33.62825,3.70282,-24.97028,4.393326,0.4543622999999999,0.4909739000000001,-0.2882019,1.237967,-0.1009279,-0.028671,0.7433783,0.02919363,0.08841182,-66.16826,34.33
2,0.0793457,-0.3841095,0.9198608,0.7133443,0.07566833,-0.3878632,0.9185944,-28.74274,3.3762510000000003,-22.75632,4.390334999999999,0.387055,0.484742,0.6255748000000001,0.08239746,-0.3809967,0.9208832,33.62825,3.70282,-24.97028,4.393326,0.4543622999999999,0.4909739000000001,-0.2882019,1.237967,-0.1009279,-0.028671,0.7433783,0.02919363,0.08841182,-66.16826,34.33
2,0.0793457,-0.3841095,0.9198608,0.7133443,0.07566833,-0.3878632,0.9185944,-28.74274,3.3762510000000003,-22.75632,4.390334999999999,0.387055,0.484742,0.6255748000000001,0.08239746,-0.3809967,0.9208832,33.62825,3.70282,-24.97028,4.393326,0.4543622999999999,0.4909739000000001,-0.2882019,1.237967,-0.1009279,-0.028671,0.7433783,0.02919363,0.08841182,-66.16826,34.33
2,0.08088684,-0.3813324,0.9208832,0.7053324000000001,0.07962036,-0.3820496,0.9207001,-28.7581,3.371078,-22.75684,4.419815,0.3869420999999999,0.4838986,0.6112765,0.0821228,-0.3806305,0.9210663,33.62256,3.701645,-24.97325,4.38707,0.4545962,0.4909739000000001,-0.2878549,1.237861,-0.1007296,-0.02660874,0.7429597,0.02894206,0.08841182,35.89904,34.33
2,0.08088684,-0.3813324,0.9208832,0.7053324000000001,0.07962036,-0.3820496,0.9207001,-28.7581,3.371078,-22.75684,4.419815,0.3869420999999999,0.4838986,0.6112765,0.0821228,-0.3806305,0.9210663,33.62256,3.701645,-24.97325,4.38707,0.4545962,0.4909739000000001,-0.2878549,1.237861,-0.1007296,-0.02660874,0.7429597,0.02894206,0.08841182,35.89904,34.33
2,0.08088684,-0.3813324,0.9208832,0.7053324000000001,0.07962036,-0.3820496,0.9207001,-28.7581,3.371078,-22.75684,4.419815,0.3869420999999999,0.4838986,0.6112765,0.0821228,-0.3806305,0.9210663,33.62256,3.701645,-24.97325,4.38707,0.4545962,0.4909739000000001,-0.2878549,1.237861,-0.1007296,-0.02660874,0.7429597,0.02894206,0.08841182,35.89904,34.33
2,0.07556152,-0.3737183,0.9244537,0.7289386999999999,0.07344055,-0.363739,0.9285889,-28.78143,3.422699,-22.71619,4.602859,0.3887685,0.4786032,0.5851935,0.07746887,-0.3827057,0.9206085,33.60875,3.782181,-24.97035,4.336426,0.4558263,0.4886579000000001,-0.2871869999999999,1.237694,-0.1003466,-0.02471736,0.7437045999999999,0.02710621,0.08841182,35.89904,34.33
2,0.07556152,-0.3737183,0.9244537,0.7289386999999999,0.07344055,-0.363739,0.9285889,-28.78143,3.422699,-22.71619,4.602859,0.3887685,0.4786032,0.5851935,0.07746887,-0.3827057,0.9206085,33.60875,3.782181,-24.97035,4.336426,0.4558263,0.4886579000000001,-0.2871869999999999,1.237694,-0.1003466,-0.02471736,0.7437045999999999,0.02710621,0.08841182,35.89904,34.33
2,0.07556152,-0.3737183,0.9244537,0.7289386999999999,0.07344055,-0.363739,0.9285889,-28.78143,3.422699,-22.71619,4.602859,0.3887685,0.4786032,0.5851935,0.07746887,-0.3827057,0.9206085,33.60875,3.782181,-24.97035,4.336426,0.4558263,0.4886579000000001,-0.2871869999999999,1.237694,-0.1003466,-0.02471736,0.7437045999999999,0.02710621,0.08841182,35.89904,34.33
2,0.07344055,-0.3754578,0.9239044,0.7028741,0.07170105,-0.3740845,0.9246063,-28.78929,3.449234,-22.71019,4.578217,0.3892817999999999,0.4795036,0.6238313,0.07502747,-0.3767242,0.9232788,33.60849,3.795532,-24.97191,4.335846,0.4562454999999999,0.4871354,-0.2868659,1.237485,-0.1003432,-0.02434316,0.7446212,0.0261315999999999,0.08841182,35.89904,34.33
2,0.07344055,-0.3754578,0.9239044,0.7028741,0.07170105,-0.3740845,0.9246063,-28.78929,3.449234,-22.71019,4.578217,0.3892817999999999,0.4795036,0.6238313,0.07502747,-0.3767242,0.9232788,33.60849,3.795532,-24.97191,4.335846,0.4562454999999999,0.4871354,-0.2868659,1.237485,-0.1003432,-0.02434316,0.7446212,0.0261315999999999,0.08841182,35.89904,34.33
2,0.07344055,-0.3754578,0.9239044,0.7028741,0.07170105,-0.3740845,0.9246063,-28.78929,3.449234,-22.71019,4.578217,0.3892817999999999,0.4795036,0.6238313,0.07502747,-0.3767242,0.9232788,33.60849,3.795532,-24.97191,4.335846,0.4562454999999999,0.4871354,-0.2868659,1.237485,-0.1003432,-0.02434316,0.7446212,0.0261315999999999,0.08841182,35.89904,34.33
2,0.07315063,-0.3748627,0.9241791,0.7008911999999999,0.07217407,-0.3751220999999999,0.9241486,-28.79501,3.45459,-22.70872,4.578506,0.389393,0.4795036,0.6234316999999999,0.0741271999999999,-0.3746033,0.9242096,33.60875,3.788589,-24.97198,4.335129,0.4563863,0.4869771,-0.2863189,1.237206,-0.100565,-0.02382428,0.7455046999999999,0.02474966,0.08841182,35.89904,34.33
2,0.07315063,-0.3748627,0.9241791,0.7008911999999999,0.07217407,-0.3751220999999999,0.9241486,-28.79501,3.45459,-22.70872,4.578506,0.389393,0.4795036,0.6234316999999999,0.0741271999999999,-0.3746033,0.9242096,33.60875,3.788589,-24.97198,4.335129,0.4563863,0.4869771,-0.2863189,1.237206,-0.100565,-0.02382428,0.7455046999999999,0.02474966,0.08841182,35.89904,34.33
2,0.07315063,-0.3748627,0.9241791,0.7008911999999999,0.07217407,-0.3751220999999999,0.9241486,-28.79501,3.45459,-22.70872,4.578506,0.389393,0.4795036,0.6234316999999999,0.0741271999999999,-0.3746033,0.9242096,33.60875,3.788589,-24.97198,4.335129,0.4563863,0.4869771,-0.2863189,1.237206,-0.100565,-0.02382428,0.7455046999999999,0.02474966,0.08841182,35.89904,34.33
2,0.07183838,-0.3711853,0.925766,0.6774514,0.0710143999999999,-0.3709412,0.9259186,-28.79825,3.466629,-22.70305,4.545624,0.3896893,0.4783479999999999,0.6363031,0.07261658,-0.3714142,0.9256134,33.61006,3.781815,-24.98882,4.335556,0.4565879,0.4867654,-0.285834,1.236928,-0.1007322,-0.02307476,0.7466559,0.02361619,0.08841182,35.89904,34.33
2,0.07183838,-0.3711853,0.925766,0.6774514,0.0710143999999999,-0.3709412,0.9259186,-28.79825,3.466629,-22.70305,4.545624,0.3896893,0.4783479999999999,0.6363031,0.07261658,-0.3714142,0.9256134,33.61006,3.781815,-24.98882,4.335556,0.4565879,0.4867654,-0.285834,1.236928,-0.1007322,-0.02307476,0.7466559,0.02361619,0.08841182,35.89904,34.33
2,0.07183838,-0.3711853,0.925766,0.6774514,0.0710143999999999,-0.3709412,0.9259186,-28.79825,3.466629,-22.70305,4.545624,0.3896893,0.4783479999999999,0.6363031,0.07261658,-0.3714142,0.9256134,33.61006,3.781815,-24.98882,4.335556,0.4565879,0.4867654,-0.285834,1.236928,-0.1007322,-0.02307476,0.7466559,0.02361619,0.08841182,35.89904,34.33
2,0.08248901,-0.4299315999999999,0.8990783999999999,0.6584425,0.08609009,-0.4367064999999999,0.8954620000000001,-28.61932,3.285049,-22.83403,4.616348,0.3812577,0.4969447,0.6222243000000001,0.07798767,-0.4214325,0.9034882,33.59995,3.502762,-25.12166,4.357147,0.4558794,0.5064103,-0.2855667,1.236627,-0.1009677,-0.02184803,0.7478087,0.02195519,0.08841182,22.78444,34.33
2,0.08248901,-0.4299315999999999,0.8990783999999999,0.6584425,0.08609009,-0.4367064999999999,0.8954620000000001,-28.61932,3.285049,-22.83403,4.616348,0.3812577,0.4969447,0.6222243000000001,0.07798767,-0.4214325,0.9034882,33.59995,3.502762,-25.12166,4.357147,0.4558794,0.5064103,-0.2855667,1.236627,-0.1009677,-0.02184803,0.7478087,0.02195519,0.08841182,22.78444,34.33
2,0.08248901,-0.4299315999999999,0.8990783999999999,0.6584425,0.08609009,-0.4367064999999999,0.8954620000000001,-28.61932,3.285049,-22.83403,4.616348,0.3812577,0.4969447,0.6222243000000001,0.07798767,-0.4214325,0.9034882,33.59995,3.502762,-25.12166,4.357147,0.4558794,0.5064103,-0.2855667,1.236627,-0.1009677,-0.02184803,0.7478087,0.02195519,0.08841182,22.78444,34.33
2,0.0914917,-0.4244537,0.9008026,0.6711593000000001,0.1092224,-0.4359436,0.8933105,-28.634690000000003,3.286163,-22.84413,4.739243,0.3781284,0.4968952,0.6003718000000001,0.07778931,-0.4154358,0.9062805,33.62683,3.49791,-25.128020000000003,4.252396,0.4549949,0.5055601,-0.2853587999999999,1.236213,-0.1013028,-0.02002511,0.7490246,0.02068038,0.08841182,22.78444,34.33
2,0.0914917,-0.4244537,0.9008026,0.6711593000000001,0.1092224,-0.4359436,0.8933105,-28.634690000000003,3.286163,-22.84413,4.739243,0.3781284,0.4968952,0.6003718000000001,0.07778931,-0.4154358,0.9062805,33.62683,3.49791,-25.128020000000003,4.252396,0.4549949,0.5055601,-0.2853587999999999,1.236213,-0.1013028,-0.02002511,0.7490246,0.02068038,0.08841182,22.78444,34.33
2,0.0914917,-0.4244537,0.9008026,0.6711593000000001,0.1092224,-0.4359436,0.8933105,-28.634690000000003,3.286163,-22.84413,4.739243,0.3781284,0.4968952,0.6003718000000001,0.07778931,-0.4154358,0.9062805,33.62683,3.49791,-25.128020000000003,4.252396,0.4549949,0.5055601,-0.2853587999999999,1.236213,-0.1013028,-0.02002511,0.7490246,0.02068038,0.08841182,22.78444,34.33
2,0.07801819,-0.4184875,0.9048462,0.6657385,0.07914734,-0.4266662999999999,0.9009247,-28.648670000000003,3.286163,-22.83377,4.629761,0.3833256,0.4950848,0.6278715,0.0769043,-0.4103699,0.9086609,33.64906,3.506317,-25.11942,4.30426,0.4544169,0.504239,-0.285226,1.235798,-0.1016567,-0.01847975,0.7504964,0.01890327,0.08841182,22.78444,34.33
2,0.07801819,-0.4184875,0.9048462,0.6657385,0.07914734,-0.4266662999999999,0.9009247,-28.648670000000003,3.286163,-22.83377,4.629761,0.3833256,0.4950848,0.6278715,0.0769043,-0.4103699,0.9086609,33.64906,3.506317,-25.11942,4.30426,0.4544169,0.504239,-0.285226,1.235798,-0.1016567,-0.01847975,0.7504964,0.01890327,0.08841182,22.78444,34.33
2,0.07801819,-0.4184875,0.9048462,0.6657385,0.07914734,-0.4266662999999999,0.9009247,-28.648670000000003,3.286163,-22.83377,4.629761,0.3833256,0.4950848,0.6278715,0.0769043,-0.4103699,0.9086609,33.64906,3.506317,-25.11942,4.30426,0.4544169,0.504239,-0.285226,1.235798,-0.1016567,-0.01847975,0.7504964,0.01890327,0.08841182,22.78444,34.33
2,0.08329773,-0.4116974,0.907486,0.6398041999999999,0.08583069,-0.4188232,0.9039917,-28.6469,3.287186,-22.82271,4.594193,0.3822397,0.4936007,0.6401533,0.08056641,-0.4040375,0.9111786,33.67174,3.529953,-25.11575,4.320953,0.453076,0.502252,-0.2849388,1.235479,-0.1020281,-0.01656551,0.7519786,0.01732119,0.08841182,22.78444,34.33
2,0.08329773,-0.4116974,0.907486,0.6398041999999999,0.08583069,-0.4188232,0.9039917,-28.6469,3.287186,-22.82271,4.594193,0.3822397,0.4936007,0.6401533,0.08056641,-0.4040375,0.9111786,33.67174,3.529953,-25.11575,4.320953,0.453076,0.502252,-0.2849388,1.235479,-0.1020281,-0.01656551,0.7519786,0.01732119,0.08841182,22.78444,34.33
2,0.08329773,-0.4116974,0.907486,0.6398041999999999,0.08583069,-0.4188232,0.9039917,-28.6469,3.287186,-22.82271,4.594193,0.3822397,0.4936007,0.6401533,0.08056641,-0.4040375,0.9111786,33.67174,3.529953,-25.11575,4.320953,0.453076,0.502252,-0.2849388,1.235479,-0.1020281,-0.01656551,0.7519786,0.01732119,0.08841182,22.78444,34.33
2,0.08392334,-0.4062805,0.9098663,0.6820436,0.08560181,-0.4100189,0.9080353,-28.63823,3.3108980000000003,-22.81038,4.570953,0.3820254,0.4911702,0.6100004,0.08229065,-0.4026489,0.9116364,33.71013,3.564163,-25.11009,4.322083,0.4515189,0.5007952,-0.2846707,1.235196,-0.1025019,-0.01372898,0.7534055000000001,0.01560066,0.08841182,-1.647671,34.33
2,0.08392334,-0.4062805,0.9098663,0.6820436,0.08560181,-0.4100189,0.9080353,-28.63823,3.3108980000000003,-22.81038,4.570953,0.3820254,0.4911702,0.6100004,0.08229065,-0.4026489,0.9116364,33.71013,3.564163,-25.11009,4.322083,0.4515189,0.5007952,-0.2846707,1.235196,-0.1025019,-0.01372898,0.7534055000000001,0.01560066,0.08841182,-1.647671,34.33
2,0.08392334,-0.4062805,0.9098663,0.6820436,0.08560181,-0.4100189,0.9080353,-28.63823,3.3108980000000003,-22.81038,4.570953,0.3820254,0.4911702,0.6100004,0.08229065,-0.4026489,0.9116364,33.71013,3.564163,-25.11009,4.322083,0.4515189,0.5007952,-0.2846707,1.235196,-0.1025019,-0.01372898,0.7534055000000001,0.01560066,0.08841182,-1.647671,34.33
3,0.08636475,-0.4084015,0.9086914,0.7037653,0.08589172,-0.4100494,0.9080048,-28.57336,3.407684,-22.74879,4.648804,0.3799509,0.4874789,0.6305582,0.08685303,-0.4067383,0.9093933,33.82181,3.701614,-25.07523,4.298264,0.4470632,0.4966622,-0.2844225999999999,1.2345620000000002,-0.1027582,-0.01041361,0.7548639,0.01356382,0.08713049,-1.647671,34.33
3,0.08636475,-0.4084015,0.9086914,0.7037653,0.08589172,-0.4100494,0.9080048,-28.57336,3.407684,-22.74879,4.648804,0.3799509,0.4874789,0.6305582,0.08685303,-0.4067383,0.9093933,33.82181,3.701614,-25.07523,4.298264,0.4470632,0.4966622,-0.2844225999999999,1.2345620000000002,-0.1027582,-0.01041361,0.7548639,0.01356382,0.08713049,-1.647671,34.33
3,0.08636475,-0.4084015,0.9086914,0.7037653,0.08589172,-0.4100494,0.9080048,-28.57336,3.407684,-22.74879,4.648804,0.3799509,0.4874789,0.6305582,0.08685303,-0.4067383,0.9093933,33.82181,3.701614,-25.07523,4.298264,0.4470632,0.4966622,-0.2844225999999999,1.2345620000000002,-0.1027582,-0.01041361,0.7548639,0.01356382,0.08713049,-1.647671,34.33
3,0.09385681,-0.4039764,0.9099274,0.7023799,0.09272766,-0.4129639,0.9060059,-28.55634,3.5092769999999995,-22.718000000000004,4.635681,0.3783635,0.48448,0.6146252,0.09468079,-0.3973694,0.9127502,33.879870000000004,3.819778,-25.04117,4.490738,0.4439382,0.4906515,-0.2841814,1.23402,-0.1030729,-0.007717268,0.7562151999999999,0.01144942,0.08713049,-1.647671,34.33
3,0.09385681,-0.4039764,0.9099274,0.7023799,0.09272766,-0.4129639,0.9060059,-28.55634,3.5092769999999995,-22.718000000000004,4.635681,0.3783635,0.48448,0.6146252,0.09468079,-0.3973694,0.9127502,33.879870000000004,3.819778,-25.04117,4.490738,0.4439382,0.4906515,-0.2841814,1.23402,-0.1030729,-0.007717268,0.7562151999999999,0.01144942,0.08713049,-1.647671,34.33
3,0.09385681,-0.4039764,0.9099274,0.7023799,0.09272766,-0.4129639,0.9060059,-28.55634,3.5092769999999995,-22.718000000000004,4.635681,0.3783635,0.48448,0.6146252,0.09468079,-0.3973694,0.9127502,33.879870000000004,3.819778,-25.04117,4.490738,0.4439382,0.4906515,-0.2841814,1.23402,-0.1030729,-0.007717268,0.7562151999999999,0.01144942,0.08713049,-1.647671,34.33
3,0.1018523999999999,-0.4008942,0.9104309000000002,0.7122858,0.1079712,-0.4005432,0.9098815999999998,-28.545790000000004,3.542938,-22.7049,4.603301999999999,0.3756592,0.4811582,0.5992975,0.09686279,-0.4011688,0.9108582,33.90477,3.87886,-25.03185,4.40004,0.4427395999999999,0.4893367,-0.2836703,1.233588,-0.1034206999999999,-0.006282472,0.7575734000000001,0.009612795,0.08713049,-1.647671,34.33
3,0.1018523999999999,-0.4008942,0.9104309000000002,0.7122858,0.1079712,-0.4005432,0.9098815999999998,-28.545790000000004,3.542938,-22.7049,4.603301999999999,0.3756592,0.4811582,0.5992975,0.09686279,-0.4011688,0.9108582,33.90477,3.87886,-25.03185,4.40004,0.4427395999999999,0.4893367,-0.2836703,1.233588,-0.1034206999999999,-0.006282472,0.7575734000000001,0.009612795,0.08713049,-1.647671,34.33
3,0.1018523999999999,-0.4008942,0.9104309000000002,0.7122858,0.1079712,-0.4005432,0.9098815999999998,-28.545790000000004,3.542938,-22.7049,4.603301999999999,0.3756592,0.4811582,0.5992975,0.09686279,-0.4011688,0.9108582,33.90477,3.87886,-25.03185,4.40004,0.4427395999999999,0.4893367,-0.2836703,1.233588,-0.1034206999999999,-0.006282472,0.7575734000000001,0.009612795,0.08713049,-1.647671,34.33
3,0.1024475,-0.3892212,0.9154205,0.7173543000000001,0.1066283999999999,-0.3877716,0.9155579,-28.52936,3.557114,-22.687620000000003,4.6077580000000005,0.3753825999999999,0.4782915,0.5843351,0.09858704,-0.3905487,0.9152832,33.91626,3.845978,-25.04115,4.440857,0.4420865,0.4885542999999999,-0.2832755,1.233282,-0.1036293,-0.005147258,0.7587531,0.008235903,0.08713049,-1.647671,34.33
3,0.1024475,-0.3892212,0.9154205,0.7173543000000001,0.1066283999999999,-0.3877716,0.9155579,-28.52936,3.557114,-22.687620000000003,4.6077580000000005,0.3753825999999999,0.4782915,0.5843351,0.09858704,-0.3905487,0.9152832,33.91626,3.845978,-25.04115,4.440857,0.4420865,0.4885542999999999,-0.2832755,1.233282,-0.1036293,-0.005147258,0.7587531,0.008235903,0.08713049,-1.647671,34.33
3,0.1024475,-0.3892212,0.9154205,0.7173543000000001,0.1066283999999999,-0.3877716,0.9155579,-28.52936,3.557114,-22.687620000000003,4.6077580000000005,0.3753825999999999,0.4782915,0.5843351,0.09858704,-0.3905487,0.9152832,33.91626,3.845978,-25.04115,4.440857,0.4420865,0.4885542999999999,-0.2832755,1.233282,-0.1036293,-0.005147258,0.7587531,0.008235903,0.08713049,-1.647671,34.33
3,0.1029053,-0.3890381,0.9154358,0.7254136999999999,0.1069489,-0.3880768,0.91539,-28.52654,3.558563,-22.68369,4.607819,0.3752446,0.4782648,0.6348928,0.09906006,-0.3899535999999999,0.9154816,33.9164,3.845261,-25.04222,4.445755,0.4420072,0.4884901,-0.2830254,1.233026,-0.1038733999999999,-0.00455193,0.7596104,0.007654013,0.08713049,-1.647671,34.33
3,0.1029053,-0.3890381,0.9154358,0.7254136999999999,0.1069489,-0.3880768,0.91539,-28.52654,3.558563,-22.68369,4.607819,0.3752446,0.4782648,0.6348928,0.09906006,-0.3899535999999999,0.9154816,33.9164,3.845261,-25.04222,4.445755,0.4420072,0.4884901,-0.2830254,1.233026,-0.1038733999999999,-0.00455193,0.7596104,0.007654013,0.08713049,-1.647671,34.33
3,0.1029053,-0.3890381,0.9154358,0.7254136999999999,0.1069489,-0.3880768,0.91539,-28.52654,3.558563,-22.68369,4.607819,0.3752446,0.4782648,0.6348928,0.09906006,-0.3899535999999999,0.9154816,33.9164,3.845261,-25.04222,4.445755,0.4420072,0.4884901,-0.2830254,1.233026,-0.1038733999999999,-0.00455193,0.7596104,0.007654013,0.08713049,-1.647671,34.33
3,0.1033936,-0.3848877,0.9171448,0.7303379,0.1054535,-0.3852080999999999,0.9167786,-28.50143,3.55864,-22.68065,4.607147,0.3746765999999999,0.4777124,0.5683098000000001,0.1013794,-0.3845825,0.9174957,33.9238,3.825485,-25.05226,4.444672,0.4413792,0.4882623,-0.2829029,1.233041,-0.1041132,-0.004005599,0.7601513000000001,0.007315313,0.08713049,-61.32036,34.33
3,0.1033936,-0.3848877,0.9171448,0.7303379,0.1054535,-0.3852080999999999,0.9167786,-28.50143,3.55864,-22.68065,4.607147,0.3746765999999999,0.4777124,0.5683098000000001,0.1013794,-0.3845825,0.9174957,33.9238,3.825485,-25.05226,4.444672,0.4413792,0.4882623,-0.2829029,1.233041,-0.1041132,-0.004005599,0.7601513000000001,0.007315313,0.08713049,-61.32036,34.33
3,0.1033936,-0.3848877,0.9171448,0.7303379,0.1054535,-0.3852080999999999,0.9167786,-28.50143,3.55864,-22.68065,4.607147,0.3746765999999999,0.4777124,0.5683098000000001,0.1013794,-0.3845825,0.9174957,33.9238,3.825485,-25.05226,4.444672,0.4413792,0.4882623,-0.2829029,1.233041,-0.1041132,-0.004005599,0.7601513000000001,0.007315313,0.08713049,-61.32036,34.33
3,0.1088561999999999,-0.379303,0.9188385,0.7106604999999999,0.109848,-0.3806,0.9181824,-28.492490000000004,3.55864,-22.66728,4.60733,0.3737147,0.4768129,0.5784057,0.1078948999999999,-0.378006,0.9194794,33.93196,3.806534,-25.05832,4.463455000000001,0.4400497,0.4877686,-0.2828418,1.233008,-0.1042784,-0.003407599,0.7603701,0.007466024,0.08713049,-61.32036,34.33
3,0.1088561999999999,-0.379303,0.9188385,0.7106604999999999,0.109848,-0.3806,0.9181824,-28.492490000000004,3.55864,-22.66728,4.60733,0.3737147,0.4768129,0.5784057,0.1078948999999999,-0.378006,0.9194794,33.93196,3.806534,-25.05832,4.463455000000001,0.4400497,0.4877686,-0.2828418,1.233008,-0.1042784,-0.003407599,0.7603701,0.007466024,0.08713049,-61.32036,34.33
3,0.1088561999999999,-0.379303,0.9188385,0.7106604999999999,0.109848,-0.3806,0.9181824,-28.492490000000004,3.55864,-22.66728,4.60733,0.3737147,0.4768129,0.5784057,0.1078948999999999,-0.378006,0.9194794,33.93196,3.806534,-25.05832,4.463455000000001,0.4400497,0.4877686,-0.2828418,1.233008,-0.1042784,-0.003407599,0.7603701,0.007466024,0.08713049,-61.32036,34.33
3,0.1138306,-0.3763732999999999,0.9194336,0.7323793000000001,0.113678,-0.3776245,0.9189453000000002,-28.492490000000004,3.5583339999999994,-22.66309,4.612503,0.3731217,0.4762804,0.5968838000000001,0.1139678999999999,-0.3751678,0.9199066,33.93906,3.806534,-25.06017,4.4833680000000005,0.4388260999999999,0.4872922999999999,-0.2828592,1.233,-0.1044396,-0.0033652459999999,0.7607147,0.007174163,0.08713049,-61.32036,34.33
3,0.1138306,-0.3763732999999999,0.9194336,0.7323793000000001,0.113678,-0.3776245,0.9189453000000002,-28.492490000000004,3.5583339999999994,-22.66309,4.612503,0.3731217,0.4762804,0.5968838000000001,0.1139678999999999,-0.3751678,0.9199066,33.93906,3.806534,-25.06017,4.4833680000000005,0.4388260999999999,0.4872922999999999,-0.2828592,1.233,-0.1044396,-0.0033652459999999,0.7607147,0.007174163,0.08713049,-61.32036,34.33
3,0.1138306,-0.3763732999999999,0.9194336,0.7323793000000001,0.113678,-0.3776245,0.9189453000000002,-28.492490000000004,3.5583339999999994,-22.66309,4.612503,0.3731217,0.4762804,0.5968838000000001,0.1139678999999999,-0.3751678,0.9199066,33.93906,3.806534,-25.06017,4.4833680000000005,0.4388260999999999,0.4872922999999999,-0.2828592,1.233,-0.1044396,-0.0033652459999999,0.7607147,0.007174163,0.08713049,-61.32036,34.33
3,0.1179047,-0.3748015999999999,0.9195709,0.7608839,0.1179656999999999,-0.3759765999999999,0.9190826,-28.48618,3.5583339999999994,-22.61839,4.672607,0.3722911,0.4756104,0.5952436,0.1178588999999999,-0.3737183,0.9200134,33.95375,3.811386,-25.06033,4.492203,0.4377031,0.4868863,-0.2827338,1.232944,-0.1046446,-0.003559977,0.7609233,0.006539028,0.08713049,-61.32036,34.33
3,0.1179047,-0.3748015999999999,0.9195709,0.7608839,0.1179656999999999,-0.3759765999999999,0.9190826,-28.48618,3.5583339999999994,-22.61839,4.672607,0.3722911,0.4756104,0.5952436,0.1178588999999999,-0.3737183,0.9200134,33.95375,3.811386,-25.06033,4.492203,0.4377031,0.4868863,-0.2827338,1.232944,-0.1046446,-0.003559977,0.7609233,0.006539028,0.08713049,-61.32036,34.33
3,0.1179047,-0.3748015999999999,0.9195709,0.7608839,0.1179656999999999,-0.3759765999999999,0.9190826,-28.48618,3.5583339999999994,-22.61839,4.672607,0.3722911,0.4756104,0.5952436,0.1178588999999999,-0.3737183,0.9200134,33.95375,3.811386,-25.06033,4.492203,0.4377031,0.4868863,-0.2827338,1.232944,-0.1046446,-0.003559977,0.7609233,0.006539028,0.08713049,-61.32036,34.33
3,0.1236724999999999,-0.3735504,0.9193115,0.7424628000000001,0.1281586,-0.3727417,0.9190369,-28.47253,3.5722660000000004,-22.60793,4.790039,0.370287,0.4745113,0.571855,0.1199951,-0.3742065,0.9195404,33.97818,3.850357,-25.06268,4.5418400000000005,0.4365592,0.4856806999999999,-0.2825364,1.232815,-0.1049964999999999,-0.0034612909999999,0.7613049,0.005723002,0.08713049,-61.32036,34.33
3,0.1236724999999999,-0.3735504,0.9193115,0.7424628000000001,0.1281586,-0.3727417,0.9190369,-28.47253,3.5722660000000004,-22.60793,4.790039,0.370287,0.4745113,0.571855,0.1199951,-0.3742065,0.9195404,33.97818,3.850357,-25.06268,4.5418400000000005,0.4365592,0.4856806999999999,-0.2825364,1.232815,-0.1049964999999999,-0.0034612909999999,0.7613049,0.005723002,0.08713049,-61.32036,34.33
3,0.1236724999999999,-0.3735504,0.9193115,0.7424628000000001,0.1281586,-0.3727417,0.9190369,-28.47253,3.5722660000000004,-22.60793,4.790039,0.370287,0.4745113,0.571855,0.1199951,-0.3742065,0.9195404,33.97818,3.850357,-25.06268,4.5418400000000005,0.4365592,0.4856806999999999,-0.2825364,1.232815,-0.1049964999999999,-0.0034612909999999,0.7613049,0.005723002,0.08713049,-61.32036,34.33
3,0.1227875,-0.3736725,0.9193878,0.7491124,0.1253815,-0.3752289,0.918396,-28.45222,3.5839540000000003,-22.60593,4.841537000000001,0.3700744,0.4745113,0.5609121,0.1202698,-0.3721771,0.9203339,33.99278,3.856201,-25.0621,4.55127,0.436033,0.4851057,-0.2824728,1.232657,-0.1052222999999999,-0.00298636,0.7616071,0.00519839,0.08713049,26.32721,34.33
3,0.1227875,-0.3736725,0.9193878,0.7491124,0.1253815,-0.3752289,0.918396,-28.45222,3.5839540000000003,-22.60593,4.841537000000001,0.3700744,0.4745113,0.5609121,0.1202698,-0.3721771,0.9203339,33.99278,3.856201,-25.0621,4.55127,0.436033,0.4851057,-0.2824728,1.232657,-0.1052222999999999,-0.00298636,0.7616071,0.00519839,0.08713049,26.32721,34.33
3,0.1227875,-0.3736725,0.9193878,0.7491124,0.1253815,-0.3752289,0.918396,-28.45222,3.5839540000000003,-22.60593,4.841537000000001,0.3700744,0.4745113,0.5609121,0.1202698,-0.3721771,0.9203339,33.99278,3.856201,-25.0621,4.55127,0.436033,0.4851057,-0.2824728,1.232657,-0.1052222999999999,-0.00298636,0.7616071,0.00519839,0.08713049,26.32721,34.33
3,0.1253204,-0.3719025,0.919754,0.7658596999999999,0.1274719,-0.3759765999999999,0.9178162,-28.44458,3.6021730000000005,-22.60347,4.8585970000000005,0.3695079,0.4740345,0.6076276999999999,0.1232147,-0.3678894,0.9216614,34.01189,3.879807,-25.06091,4.617828,0.4349438,0.4835304,-0.2825236,1.2324700000000002,-0.1053963999999999,-0.002018779,0.7617845,0.004222469,0.08713049,26.32721,34.33
3,0.1253204,-0.3719025,0.919754,0.7658596999999999,0.1274719,-0.3759765999999999,0.9178162,-28.44458,3.6021730000000005,-22.60347,4.8585970000000005,0.3695079,0.4740345,0.6076276999999999,0.1232147,-0.3678894,0.9216614,34.01189,3.879807,-25.06091,4.617828,0.4349438,0.4835304,-0.2825236,1.2324700000000002,-0.1053963999999999,-0.002018779,0.7617845,0.004222469,0.08713049,26.32721,34.33
3,0.1253204,-0.3719025,0.919754,0.7658596999999999,0.1274719,-0.3759765999999999,0.9178162,-28.44458,3.6021730000000005,-22.60347,4.8585970000000005,0.3695079,0.4740345,0.6076276999999999,0.1232147,-0.3678894,0.9216614,34.01189,3.879807,-25.06091,4.617828,0.4349438,0.4835304,-0.2825236,1.2324700000000002,-0.1053963999999999,-0.002018779,0.7617845,0.004222469,0.08713049,26.32721,34.33
3,0.1274261,-0.3717345999999999,0.9195404,0.7439815,0.1296387,-0.3729858,0.9187317,-28.43755,3.620804,-22.58737,4.909408999999999,0.3689719,0.4727724,0.5688694999999999,0.1252898999999999,-0.3705444,0.9203186,34.026540000000004,3.913849,-25.0605,4.637756,0.4341259,0.4828634,-0.2824159,1.232275,-0.1057718,-0.000418436,0.7620051999999999,0.002965706,0.08713049,26.32721,34.33
3,0.1274261,-0.3717345999999999,0.9195404,0.7439815,0.1296387,-0.3729858,0.9187317,-28.43755,3.620804,-22.58737,4.909408999999999,0.3689719,0.4727724,0.5688694999999999,0.1252898999999999,-0.3705444,0.9203186,34.026540000000004,3.913849,-25.0605,4.637756,0.4341259,0.4828634,-0.2824159,1.232275,-0.1057718,-0.000418436,0.7620051999999999,0.002965706,0.08713049,26.32721,34.33
3,0.1274261,-0.3717345999999999,0.9195404,0.7439815,0.1296387,-0.3729858,0.9187317,-28.43755,3.620804,-22.58737,4.909408999999999,0.3689719,0.4727724,0.5688694999999999,0.1252898999999999,-0.3705444,0.9203186,34.026540000000004,3.913849,-25.0605,4.637756,0.4341259,0.4828634,-0.2824159,1.232275,-0.1057718,-0.000418436,0.7620051999999999,0.002965706,0.08713049,26.32721,34.33
3,0.127243,-0.3718262,0.9195251,0.7436691999999999,0.1303253,-0.3723907,0.918869,-28.43266,3.632004,-22.58737,4.913513,0.3687097,0.4723069,0.5833235,0.1243438999999999,-0.3712920999999999,0.9201355,34.0329,3.927124,-25.0605,4.648987,0.4340721999999999,0.4825594,-0.282466,1.231917,-0.1059594,0.0015307539999999,0.7620981,0.001417015,0.08713049,26.32721,34.33
3,0.127243,-0.3718262,0.9195251,0.7436691999999999,0.1303253,-0.3723907,0.918869,-28.43266,3.632004,-22.58737,4.913513,0.3687097,0.4723069,0.5833235,0.1243438999999999,-0.3712920999999999,0.9201355,34.0329,3.927124,-25.0605,4.648987,0.4340721999999999,0.4825594,-0.282466,1.231917,-0.1059594,0.0015307539999999,0.7620981,0.001417015,0.08713049,26.32721,34.33
3,0.127243,-0.3718262,0.9195251,0.7436691999999999,0.1303253,-0.3723907,0.918869,-28.43266,3.632004,-22.58737,4.913513,0.3687097,0.4723069,0.5833235,0.1243438999999999,-0.3712920999999999,0.9201355,34.0329,3.927124,-25.0605,4.648987,0.4340721999999999,0.4825594,-0.282466,1.231917,-0.1059594,0.0015307539999999,0.7620981,0.001417015,0.08713049,26.32721,34.33
3,0.128418,-0.3752289,0.917984,0.7591814,0.1321563999999999,-0.3695374,0.919754,-28.42581,3.647476,-22.58586,4.915924,0.3682092,0.4713059,0.5788269,0.124588,-0.3810425,0.9161072,34.075,4.024445,-25.04704,4.692032,0.4326496,0.4809395999999999,-0.2823656,1.231509,-0.1060911,0.003807244,0.7621163000000001,-0.0005627163,0.08713049,26.32721,34.33
3,0.128418,-0.3752289,0.917984,0.7591814,0.1321563999999999,-0.3695374,0.919754,-28.42581,3.647476,-22.58586,4.915924,0.3682092,0.4713059,0.5788269,0.124588,-0.3810425,0.9161072,34.075,4.024445,-25.04704,4.692032,0.4326496,0.4809395999999999,-0.2823656,1.231509,-0.1060911,0.003807244,0.7621163000000001,-0.0005627163,0.08713049,26.32721,34.33
3,0.128418,-0.3752289,0.917984,0.7591814,0.1321563999999999,-0.3695374,0.919754,-28.42581,3.647476,-22.58586,4.915924,0.3682092,0.4713059,0.5788269,0.124588,-0.3810425,0.9161072,34.075,4.024445,-25.04704,4.692032,0.4326496,0.4809395999999999,-0.2823656,1.231509,-0.1060911,0.003807244,0.7621163000000001,-0.0005627163,0.08713049,26.32721,34.33
3,0.1243134,-0.3648529,0.9227142,0.7517169,0.1178436,-0.3688202,0.9219971,-28.34967,3.649063,-22.58508,4.919739,0.3679937,0.4710359999999999,0.5810677,0.1322479,-0.3599395999999999,0.9235382,34.07228,4.056259,-25.02316,4.786896,0.4315693,0.475875,-0.2823330999999999,1.231222,-0.1062123,0.0069015619999999,0.7621505000000001,-0.002755384,0.08713049,-1.579544,34.33
3,0.1243134,-0.3648529,0.9227142,0.7517169,0.1178436,-0.3688202,0.9219971,-28.34967,3.649063,-22.58508,4.919739,0.3679937,0.4710359999999999,0.5810677,0.1322479,-0.3599395999999999,0.9235382,34.07228,4.056259,-25.02316,4.786896,0.4315693,0.475875,-0.2823330999999999,1.231222,-0.1062123,0.0069015619999999,0.7621505000000001,-0.002755384,0.08713049,-1.579544,34.33
3,0.1243134,-0.3648529,0.9227142,0.7517169,0.1178436,-0.3688202,0.9219971,-28.34967,3.649063,-22.58508,4.919739,0.3679937,0.4710359999999999,0.5810677,0.1322479,-0.3599395999999999,0.9235382,34.07228,4.056259,-25.02316,4.786896,0.4315693,0.475875,-0.2823330999999999,1.231222,-0.1062123,0.0069015619999999,0.7621505000000001,-0.002755384,0.08713049,-1.579544,34.33
3,0.1220551,-0.3636475,0.9234924,0.7447643,0.1142577999999999,-0.3659058,0.9235992,-28.29903,3.788879,-22.54233,4.934051999999999,0.3669844,0.4656344,0.5476104,0.1313782,-0.3609314,0.9232788,34.08533,4.095016,-25.03365,4.735336,0.4312627999999999,0.4748635999999999,-0.2824466,1.2307290000000002,-0.1062632,0.009996172,0.7620232,-0.00633385,0.08713049,-1.579544,34.33
3,0.1220551,-0.3636475,0.9234924,0.7447643,0.1142577999999999,-0.3659058,0.9235992,-28.29903,3.788879,-22.54233,4.934051999999999,0.3669844,0.4656344,0.5476104,0.1313782,-0.3609314,0.9232788,34.08533,4.095016,-25.03365,4.735336,0.4312627999999999,0.4748635999999999,-0.2824466,1.2307290000000002,-0.1062632,0.009996172,0.7620232,-0.00633385,0.08713049,-1.579544,34.33
3,0.1220551,-0.3636475,0.9234924,0.7447643,0.1142577999999999,-0.3659058,0.9235992,-28.29903,3.788879,-22.54233,4.934051999999999,0.3669844,0.4656344,0.5476104,0.1313782,-0.3609314,0.9232788,34.08533,4.095016,-25.03365,4.735336,0.4312627999999999,0.4748635999999999,-0.2824466,1.2307290000000002,-0.1062632,0.009996172,0.7620232,-0.00633385,0.08713049,-1.579544,34.33
3,0.1290588,-0.3567962999999999,0.9252167,0.7431495,0.1263123,-0.3507385,0.9279022,-28.3434,3.798782,-22.50473,4.982834,0.3666034999999999,0.4624375,0.5320905,0.1312713999999999,-0.3616333,0.9230194,34.08353,4.106979,-25.02086,4.743744,0.4313524999999999,0.4744736,-0.2822946,1.23025,-0.1065525,0.01211575,0.7622237,-0.00985902,0.08713049,-1.579544,34.33
3,0.1290588,-0.3567962999999999,0.9252167,0.7431495,0.1263123,-0.3507385,0.9279022,-28.3434,3.798782,-22.50473,4.982834,0.3666034999999999,0.4624375,0.5320905,0.1312713999999999,-0.3616333,0.9230194,34.08353,4.106979,-25.02086,4.743744,0.4313524999999999,0.4744736,-0.2822946,1.23025,-0.1065525,0.01211575,0.7622237,-0.00985902,0.08713049,-1.579544,34.33
3,0.1290588,-0.3567962999999999,0.9252167,0.7431495,0.1263123,-0.3507385,0.9279022,-28.3434,3.798782,-22.50473,4.982834,0.3666034999999999,0.4624375,0.5320905,0.1312713999999999,-0.3616333,0.9230194,34.08353,4.106979,-25.02086,4.743744,0.4313524999999999,0.4744736,-0.2822946,1.23025,-0.1065525,0.01211575,0.7622237,-0.00985902,0.08713049,-1.579544,34.33
3,0.1417083999999999,-0.3540802,0.924408,0.7359078,0.1376494999999999,-0.3296509,0.9340057,-28.211170000000003,3.607803,-22.58969,4.9726870000000005,0.3604616,0.4656866,0.5444769,0.1444092,-0.3705597,0.9174957,34.02081,3.964752,-25.08765,4.779785,0.4312452999999999,0.4814804,-0.2820542,1.229734,-0.1067706,0.0140187,0.7622026,-0.01293225,0.08713049,-1.579544,34.33
3,0.1417083999999999,-0.3540802,0.924408,0.7359078,0.1376494999999999,-0.3296509,0.9340057,-28.211170000000003,3.607803,-22.58969,4.9726870000000005,0.3604616,0.4656866,0.5444769,0.1444092,-0.3705597,0.9174957,34.02081,3.964752,-25.08765,4.779785,0.4312452999999999,0.4814804,-0.2820542,1.229734,-0.1067706,0.0140187,0.7622026,-0.01293225,0.08713049,-1.579544,34.33
3,0.1417083999999999,-0.3540802,0.924408,0.7359078,0.1376494999999999,-0.3296509,0.9340057,-28.211170000000003,3.607803,-22.58969,4.9726870000000005,0.3604616,0.4656866,0.5444769,0.1444092,-0.3705597,0.9174957,34.02081,3.964752,-25.08765,4.779785,0.4312452999999999,0.4814804,-0.2820542,1.229734,-0.1067706,0.0140187,0.7622026,-0.01293225,0.08713049,-1.579544,34.33
3,0.1500397,-0.4203795999999999,0.8948517,0.6247531,0.1459656,-0.4130249,0.898941,-28.15022,3.344437,-22.76079,4.953049,0.3567848,0.4901917999999999,0.4588573,0.1520538,-0.4240112,0.8927917,33.99243,3.621078,-25.24644,4.834152,0.4307242,0.5041445999999999,-0.2818341,1.229341,-0.107041,0.01743502,0.7616835,-0.01657832,0.08713049,-1.579544,34.33
3,0.1500397,-0.4203795999999999,0.8948517,0.6247531,0.1459656,-0.4130249,0.898941,-28.15022,3.344437,-22.76079,4.953049,0.3567848,0.4901917999999999,0.4588573,0.1520538,-0.4240112,0.8927917,33.99243,3.621078,-25.24644,4.834152,0.4307242,0.5041445999999999,-0.2818341,1.229341,-0.107041,0.01743502,0.7616835,-0.01657832,0.08713049,-1.579544,34.33
3,0.1500397,-0.4203795999999999,0.8948517,0.6247531,0.1459656,-0.4130249,0.898941,-28.15022,3.344437,-22.76079,4.953049,0.3567848,0.4901917999999999,0.4588573,0.1520538,-0.4240112,0.8927917,33.99243,3.621078,-25.24644,4.834152,0.4307242,0.5041445999999999,-0.2818341,1.229341,-0.107041,0.01743502,0.7616835,-0.01657832,0.08713049,-1.579544,34.33
3,0.1543121,-0.4244995,0.8921661,0.5896009,0.1581572999999999,-0.4276581,0.8899841000000001,-28.168470000000003,3.354248,-22.77545,5.157744999999999,0.3554602,0.4925887,0.4431004,0.1497802999999999,-0.4207611,0.8947144,34.04045,3.62973,-25.25446,4.786011,0.4294674,0.50333,-0.2820611,1.22882,-0.1073365,0.02211192,0.7611758000000001,-0.02135707,0.08713049,-13.53127,34.33
3,0.1543121,-0.4244995,0.8921661,0.5896009,0.1581572999999999,-0.4276581,0.8899841000000001,-28.168470000000003,3.354248,-22.77545,5.157744999999999,0.3554602,0.4925887,0.4431004,0.1497802999999999,-0.4207611,0.8947144,34.04045,3.62973,-25.25446,4.786011,0.4294674,0.50333,-0.2820611,1.22882,-0.1073365,0.02211192,0.7611758000000001,-0.02135707,0.08713049,-13.53127,34.33
3,0.1543121,-0.4244995,0.8921661,0.5896009,0.1581572999999999,-0.4276581,0.8899841000000001,-28.168470000000003,3.354248,-22.77545,5.157744999999999,0.3554602,0.4925887,0.4431004,0.1497802999999999,-0.4207611,0.8947144,34.04045,3.62973,-25.25446,4.786011,0.4294674,0.50333,-0.2820611,1.22882,-0.1073365,0.02211192,0.7611758000000001,-0.02135707,0.08713049,-13.53127,34.33
3,0.151062,-0.4157867,0.8968200999999999,0.6101278,0.1475677,-0.4129791,0.8986969000000001,-28.17714,3.388657,-22.75798,5.012543,0.3574364,0.4887278,0.484401,0.1547394,-0.4187164,0.8948212,34.05458,3.650391,-25.24991,4.786896,0.4281935,0.5022495,-0.2820185,1.22853,-0.1074869,0.02546381,0.7605743,-0.02615561,0.08713049,-13.53127,34.33
3,0.151062,-0.4157867,0.8968200999999999,0.6101278,0.1475677,-0.4129791,0.8986969000000001,-28.17714,3.388657,-22.75798,5.012543,0.3574364,0.4887278,0.484401,0.1547394,-0.4187164,0.8948212,34.05458,3.650391,-25.24991,4.786896,0.4281935,0.5022495,-0.2820185,1.22853,-0.1074869,0.02546381,0.7605743,-0.02615561,0.08713049,-13.53127,34.33
3,0.151062,-0.4157867,0.8968200999999999,0.6101278,0.1475677,-0.4129791,0.8986969000000001,-28.17714,3.388657,-22.75798,5.012543,0.3574364,0.4887278,0.484401,0.1547394,-0.4187164,0.8948212,34.05458,3.650391,-25.24991,4.786896,0.4281935,0.5022495,-0.2820185,1.22853,-0.1074869,0.02546381,0.7605743,-0.02615561,0.08713049,-13.53127,34.33
3,0.1531372,-0.4134369,0.8975525,0.6232004,0.1520233,-0.401535,0.9031219,-28.24568,3.468735,-22.68509,4.950012,0.3590551,0.4835654,0.4701198,0.1539307,-0.4221344,0.8933563,34.06361,3.700806,-25.23253,4.806473,0.4280452999999999,0.5010197,-0.2818748,1.228031,-0.10751,0.02943996,0.7596588000000001,-0.03130479,0.08713049,-13.53127,34.33
3,0.1531372,-0.4134369,0.8975525,0.6232004,0.1520233,-0.401535,0.9031219,-28.24568,3.468735,-22.68509,4.950012,0.3590551,0.4835654,0.4701198,0.1539307,-0.4221344,0.8933563,34.06361,3.700806,-25.23253,4.806473,0.4280452999999999,0.5010197,-0.2818748,1.228031,-0.10751,0.02943996,0.7596588000000001,-0.03130479,0.08713049,-13.53127,34.33
3,0.1531372,-0.4134369,0.8975525,0.6232004,0.1520233,-0.401535,0.9031219,-28.24568,3.468735,-22.68509,4.950012,0.3590551,0.4835654,0.4701198,0.1539307,-0.4221344,0.8933563,34.06361,3.700806,-25.23253,4.806473,0.4280452999999999,0.5010197,-0.2818748,1.228031,-0.10751,0.02943996,0.7596588000000001,-0.03130479,0.08713049,-13.53127,34.33
3,0.1533356,-0.4210051999999999,0.8939971999999999,0.6632709,0.1511382999999999,-0.4064484,0.9010773,-28.247190000000003,3.494888,-22.68509,5.010391,0.3592541999999999,0.4835654,0.4840348,0.1550292999999999,-0.4323729999999999,0.8882599,34.07567,3.781891,-25.21825,4.822067,0.4274778,0.5000814,-0.2818834,1.227494,-0.1076462,0.0341539,0.7581826,-0.03683294,0.08713049,-13.53127,34.33
3,0.1533356,-0.4210051999999999,0.8939971999999999,0.6632709,0.1511382999999999,-0.4064484,0.9010773,-28.247190000000003,3.494888,-22.68509,5.010391,0.3592541999999999,0.4835654,0.4840348,0.1550292999999999,-0.4323729999999999,0.8882599,34.07567,3.781891,-25.21825,4.822067,0.4274778,0.5000814,-0.2818834,1.227494,-0.1076462,0.0341539,0.7581826,-0.03683294,0.08713049,-13.53127,34.33
3,0.1533356,-0.4210051999999999,0.8939971999999999,0.6632709,0.1511382999999999,-0.4064484,0.9010773,-28.247190000000003,3.494888,-22.68509,5.010391,0.3592541999999999,0.4835654,0.4840348,0.1550292999999999,-0.4323729999999999,0.8882599,34.07567,3.781891,-25.21825,4.822067,0.4274778,0.5000814,-0.2818834,1.227494,-0.1076462,0.0341539,0.7581826,-0.03683294,0.08713049,-13.53127,34.33
3,0.1463928,-0.3982239,0.9055176,0.6545455,0.1509094,-0.4156189,0.8969116,-28.25543,3.565613,-22.65967,5.024826,0.3595788,0.4826787999999999,0.5001042,0.1413269,-0.3788147,0.9145966,34.12305,3.950714,-25.13385,4.700348,0.4282547,0.4838374,-0.2815849,1.226817,-0.1075964,0.03832527,0.7562289000000001,-0.04198842,0.08713049,-13.53127,34.33
