Second,eye_comb_direction_x,eye_comb_direction_y,eye_comb_direction_z,eye_r_openness,eye_r_direction_x,eye_r_direction_y,eye_r_direction_z,eye_r_origin_x,eye_r_origin_y,eye_r_origin_z,eye_r_pupil_diameter,eye_r_pupil_position_x,eye_r_pupil_position_y,eye_l_openness,eye_l_direction_x,eye_l_direction_y,eye_l_direction_z,eye_l_origin_x,eye_l_origin_y,eye_l_origin_z,eye_l_pupil_diameter,eye_l_pupil_position_x,eye_l_pupil_position_y,head_position_x,head_position_y,head_position_z,head_rotation_roll,head_rotation_pitch,head_rotation_yaw,EDA,BVP,TMP
0,-0.002548218,-0.07116699,0.9974518,1.0,-0.02497864,-0.03894043,0.9989166,-32.14543,0.6602325,-27.73552,4.598236,0.5141743,0.5596566999999999,1.0,0.07286072,-0.1787109,0.9811859,31.86981,1.611145,-28.1339,3.538895,0.5150478000000001,0.5545247,-0.3123364,1.038979,-0.07990572,-0.02706577,0.7599855999999999,-0.01915026,0.03912498254299114,0.43589300770192824,31.369658676393954
0,-0.002548218,-0.07116699,0.9974518,1.0,-0.02497864,-0.03894043,0.9989166,-32.14543,0.6602325,-27.73552,4.598236,0.5141743,0.5596566999999999,1.0,0.07286072,-0.1787109,0.9811859,31.86981,1.611145,-28.1339,3.538895,0.5150478000000001,0.5545247,-0.3123364,1.038979,-0.07990572,-0.02706577,0.7599855999999999,-0.01915026,0.03912498254299114,0.43589300770192824,31.369658676393954
0,-0.002548218,-0.07116699,0.9974518,1.0,-0.02497864,-0.03894043,0.9989166,-32.14543,0.6602325,-27.73552,4.598236,0.5141743,0.5596566999999999,1.0,0.07286072,-0.1787109,0.9811859,31.86981,1.611145,-28.1339,3.538895,0.5150478000000001,0.5545247,-0.3123364,1.038979,-0.07990572,-0.02706577,0.7599855999999999,-0.01915026,0.03912498254299114,0.43589300770192824,31.369658676393954
0,-0.002548218,-0.07116699,0.9974518,1.0,-0.02497864,-0.03894043,0.9989166,-32.14543,0.6602325,-27.73552,4.598236,0.5141743,0.5596566999999999,1.0,0.07286072,-0.1787109,0.9811859,31.86981,1.611145,-28.1339,3.538895,0.5150478000000001,0.5545247,-0.3123364,1.038979,-0.07990572,-0.02706577,0.7599855999999999,-0.01915026,0.03912498254299114,0.43589300770192824,31.369658676393954
0,-0.0007324219,-0.06892395,0.9976196,1.0,-0.02445984,-0.03793335,0.9989777,-32.14622,0.6601256999999999,-27.73409,4.577438,0.5141157999999999,0.5594589,1.0,0.078125,-0.1711272999999999,0.982132,31.866640000000004,1.610855,-28.13249,3.541824,0.5142616,0.5531742,-0.3122649,1.038911,-0.07989952,-0.02718443,0.7599018,-0.01930063,0.03912498254299114,0.43589300770192824,31.369658676393954
0,-0.0007324219,-0.06892395,0.9976196,1.0,-0.02445984,-0.03793335,0.9989777,-32.14622,0.6601256999999999,-27.73409,4.577438,0.5141157999999999,0.5594589,1.0,0.078125,-0.1711272999999999,0.982132,31.866640000000004,1.610855,-28.13249,3.541824,0.5142616,0.5531742,-0.3122649,1.038911,-0.07989952,-0.02718443,0.7599018,-0.01930063,0.03912498254299114,0.43589300770192824,31.369658676393954
0,-0.0007324219,-0.06892395,0.9976196,1.0,-0.02445984,-0.03793335,0.9989777,-32.14622,0.6601256999999999,-27.73409,4.577438,0.5141157999999999,0.5594589,1.0,0.078125,-0.1711272999999999,0.982132,31.866640000000004,1.610855,-28.13249,3.541824,0.5142616,0.5531742,-0.3122649,1.038911,-0.07989952,-0.02718443,0.7599018,-0.01930063,0.03912498254299114,0.43589300770192824,31.369658676393954
0,0.002578735,-0.07220459,0.9973755,1.0,-0.02441406,-0.0378418,0.9989777,-32.14647,0.6577911,-27.727840000000004,4.570053,0.5141157999999999,0.5594589,1.0,0.07301331,-0.1612091,0.9842072,31.86389,1.611145,-28.12907,3.544769,0.5152314,0.5513376,-0.3122373,1.038846,-0.07998356,-0.02715344,0.7598149000000001,-0.01953659,0.03912498254299114,0.43589300770192824,31.369658676393954
0,0.002578735,-0.07220459,0.9973755,1.0,-0.02441406,-0.0378418,0.9989777,-32.14647,0.6577911,-27.727840000000004,4.570053,0.5141157999999999,0.5594589,1.0,0.07301331,-0.1612091,0.9842072,31.86389,1.611145,-28.12907,3.544769,0.5152314,0.5513376,-0.3122373,1.038846,-0.07998356,-0.02715344,0.7598149000000001,-0.01953659,0.03912498254299114,0.43589300770192824,31.369658676393954
0,0.002578735,-0.07220459,0.9973755,1.0,-0.02441406,-0.0378418,0.9989777,-32.14647,0.6577911,-27.727840000000004,4.570053,0.5141157999999999,0.5594589,1.0,0.07301331,-0.1612091,0.9842072,31.86389,1.611145,-28.12907,3.544769,0.5152314,0.5513376,-0.3122373,1.038846,-0.07998356,-0.02715344,0.7598149000000001,-0.01953659,0.03912498254299114,0.43589300770192824,31.369658676393954
0,0.003509521,-0.06086731,0.9981384,1.0,-0.02455139,-0.03218079,0.999176,-32.1474,0.651413,-27.7029,4.553314,0.5141629,0.5584673000000001,1.0,0.07646179,-0.135025,0.9878845,31.84688,1.606201,-28.12534,3.549698,0.5152314,0.5468028,-0.3122429,1.038667,-0.07994348,-0.02678268,0.7596025,-0.01972937,0.03912498254299114,0.43589300770192824,31.369658676393954
0,0.003509521,-0.06086731,0.9981384,1.0,-0.02455139,-0.03218079,0.999176,-32.1474,0.651413,-27.7029,4.553314,0.5141629,0.5584673000000001,1.0,0.07646179,-0.135025,0.9878845,31.84688,1.606201,-28.12534,3.549698,0.5152314,0.5468028,-0.3122429,1.038667,-0.07994348,-0.02678268,0.7596025,-0.01972937,0.03912498254299114,0.43589300770192824,31.369658676393954
0,0.003509521,-0.06086731,0.9981384,1.0,-0.02455139,-0.03218079,0.999176,-32.1474,0.651413,-27.7029,4.553314,0.5141629,0.5584673000000001,1.0,0.07646179,-0.135025,0.9878845,31.84688,1.606201,-28.12534,3.549698,0.5152314,0.5468028,-0.3122429,1.038667,-0.07994348,-0.02678268,0.7596025,-0.01972937,0.03912498254299114,0.43589300770192824,31.369658676393954
0,0.003509521,-0.06086731,0.9981384,1.0,-0.02455139,-0.03218079,0.999176,-32.1474,0.651413,-27.7029,4.553314,0.5141629,0.5584673000000001,1.0,0.07646179,-0.135025,0.9878845,31.84688,1.606201,-28.12534,3.549698,0.5152314,0.5468028,-0.3122119,1.038628,-0.07996124,-0.02666657,0.7595008000000001,-0.01971521,0.03912498254299114,0.43589300770192824,31.369658676393954
0,0.003509521,-0.06086731,0.9981384,1.0,-0.02455139,-0.03218079,0.999176,-32.1474,0.651413,-27.7029,4.553314,0.5141629,0.5584673000000001,1.0,0.07646179,-0.135025,0.9878845,31.84688,1.606201,-28.12534,3.549698,0.5152314,0.5468028,-0.3122119,1.038628,-0.07996124,-0.02666657,0.7595008000000001,-0.01971521,0.03912498254299114,0.43589300770192824,31.369658676393954
0,0.003509521,-0.06086731,0.9981384,1.0,-0.02455139,-0.03218079,0.999176,-32.1474,0.651413,-27.7029,4.553314,0.5141629,0.5584673000000001,1.0,0.07646179,-0.135025,0.9878845,31.84688,1.606201,-28.12534,3.549698,0.5152314,0.5468028,-0.3122119,1.038628,-0.07996124,-0.02666657,0.7595008000000001,-0.01971521,0.03912498254299114,0.43589300770192824,31.369658676393954
0,0.003509521,-0.06086731,0.9981384,1.0,-0.02455139,-0.03218079,0.999176,-32.1474,0.651413,-27.7029,4.553314,0.5141629,0.5584673000000001,1.0,0.07646179,-0.135025,0.9878845,31.84688,1.606201,-28.12534,3.549698,0.5152314,0.5468028,-0.3121789,1.0385950000000002,-0.08004972,-0.02658444,0.7594814000000001,-0.01945174,0.03912498254299114,0.43589300770192824,31.369658676393954
0,0.003509521,-0.06086731,0.9981384,1.0,-0.02455139,-0.03218079,0.999176,-32.1474,0.651413,-27.7029,4.553314,0.5141629,0.5584673000000001,1.0,0.07646179,-0.135025,0.9878845,31.84688,1.606201,-28.12534,3.549698,0.5152314,0.5468028,-0.3121789,1.0385950000000002,-0.08004972,-0.02658444,0.7594814000000001,-0.01945174,0.03912498254299114,0.43589300770192824,31.369658676393954
0,0.003509521,-0.06086731,0.9981384,1.0,-0.02455139,-0.03218079,0.999176,-32.1474,0.651413,-27.7029,4.553314,0.5141629,0.5584673000000001,1.0,0.07646179,-0.135025,0.9878845,31.84688,1.606201,-28.12534,3.549698,0.5152314,0.5468028,-0.3121789,1.0385950000000002,-0.08004972,-0.02658444,0.7594814000000001,-0.01945174,0.03912498254299114,0.43589300770192824,31.369658676393954
0,0.006835938,-0.06480408,0.9978638,1.0,-0.02584839,-0.03384399,0.9990845,-32.14894,0.6437988,-27.69786,4.521605999999999,0.5144274,0.5589303000000001,1.0,0.0813446,-0.1348877,0.9875031,31.84399,1.606201,-28.12582,3.550278,0.5144956,0.5468028,-0.3120890999999999,1.03859,-0.08011007,-0.02654756,0.7596111999999999,-0.01959048,0.03912498254299114,0.43589300770192824,31.369658676393954
0,0.006835938,-0.06480408,0.9978638,1.0,-0.02584839,-0.03384399,0.9990845,-32.14894,0.6437988,-27.69786,4.521605999999999,0.5144274,0.5589303000000001,1.0,0.0813446,-0.1348877,0.9875031,31.84399,1.606201,-28.12582,3.550278,0.5144956,0.5468028,-0.3120890999999999,1.03859,-0.08011007,-0.02654756,0.7596111999999999,-0.01959048,0.03912498254299114,0.43589300770192824,31.369658676393954
0,0.006835938,-0.06480408,0.9978638,1.0,-0.02584839,-0.03384399,0.9990845,-32.14894,0.6437988,-27.69786,4.521605999999999,0.5144274,0.5589303000000001,1.0,0.0813446,-0.1348877,0.9875031,31.84399,1.606201,-28.12582,3.550278,0.5144956,0.5468028,-0.3120890999999999,1.03859,-0.08011007,-0.02654756,0.7596111999999999,-0.01959048,0.03912498254299114,0.43589300770192824,31.369658676393954
0,0.006835938,-0.06480408,0.9978638,1.0,-0.02584839,-0.03384399,0.9990845,-32.14894,0.6437988,-27.69786,4.521605999999999,0.5144274,0.5589303000000001,1.0,0.0813446,-0.1348877,0.9875031,31.84399,1.606201,-28.12582,3.550278,0.5144956,0.5468028,-0.3120269,1.038436,-0.08019879,-0.02594604,0.7599306,-0.0199085,0.03912498254299114,0.43589300770192824,31.369658676393954
0,0.006835938,-0.06480408,0.9978638,1.0,-0.02584839,-0.03384399,0.9990845,-32.14894,0.6437988,-27.69786,4.521605999999999,0.5144274,0.5589303000000001,1.0,0.0813446,-0.1348877,0.9875031,31.84399,1.606201,-28.12582,3.550278,0.5144956,0.5468028,-0.3120269,1.038436,-0.08019879,-0.02594604,0.7599306,-0.0199085,0.03912498254299114,0.43589300770192824,31.369658676393954
0,0.006835938,-0.06480408,0.9978638,1.0,-0.02584839,-0.03384399,0.9990845,-32.14894,0.6437988,-27.69786,4.521605999999999,0.5144274,0.5589303000000001,1.0,0.0813446,-0.1348877,0.9875031,31.84399,1.606201,-28.12582,3.550278,0.5144956,0.5468028,-0.3120269,1.038436,-0.08019879,-0.02594604,0.7599306,-0.0199085,0.03912498254299114,0.43589300770192824,31.369658676393954
0,0.1706542999999999,-0.3460083,0.9225769,0.307351,0.1705475,-0.3458862,0.9226379,-31.01678,-1.210281,-27.8838,2.250824,0.4424685,0.6789813,0.6627626,0.2840118,-0.4731903,0.8339081,32.91005,-0.03419495,-29.00101,4.537354,0.4427624,0.6778611999999999,-0.3118957,1.038509,-0.08031249,-0.02607337,0.7601869000000001,-0.02023276,0.03912498254299114,0.43589300770192824,31.369658676393954
0,0.1706542999999999,-0.3460083,0.9225769,0.307351,0.1705475,-0.3458862,0.9226379,-31.01678,-1.210281,-27.8838,2.250824,0.4424685,0.6789813,0.6627626,0.2840118,-0.4731903,0.8339081,32.91005,-0.03419495,-29.00101,4.537354,0.4427624,0.6778611999999999,-0.3118957,1.038509,-0.08031249,-0.02607337,0.7601869000000001,-0.02023276,0.03912498254299114,0.43589300770192824,31.369658676393954
0,0.1706542999999999,-0.3460083,0.9225769,0.307351,0.1705475,-0.3458862,0.9226379,-31.01678,-1.210281,-27.8838,2.250824,0.4424685,0.6789813,0.6627626,0.2840118,-0.4731903,0.8339081,32.91005,-0.03419495,-29.00101,4.537354,0.4427624,0.6778611999999999,-0.3118957,1.038509,-0.08031249,-0.02607337,0.7601869000000001,-0.02023276,0.03912498254299114,0.43589300770192824,31.369658676393954
0,0.1706542999999999,-0.3460083,0.9225769,0.307351,0.1705475,-0.3458862,0.9226379,-31.01678,-1.210281,-27.8838,2.250824,0.4424685,0.6789813,0.6627626,0.2840118,-0.4731903,0.8339081,32.91005,-0.03419495,-29.00101,4.537354,0.4427624,0.6778611999999999,-0.3118573,1.038536,-0.08034271,-0.02631132,0.7603359000000001,-0.02046399,0.03912498254299114,0.43589300770192824,31.369658676393954
0,0.1706542999999999,-0.3460083,0.9225769,0.307351,0.1705475,-0.3458862,0.9226379,-31.01678,-1.210281,-27.8838,2.250824,0.4424685,0.6789813,0.6627626,0.2840118,-0.4731903,0.8339081,32.91005,-0.03419495,-29.00101,4.537354,0.4427624,0.6778611999999999,-0.3118573,1.038536,-0.08034271,-0.02631132,0.7603359000000001,-0.02046399,0.03912498254299114,0.43589300770192824,31.369658676393954
0,0.1706542999999999,-0.3460083,0.9225769,0.307351,0.1705475,-0.3458862,0.9226379,-31.01678,-1.210281,-27.8838,2.250824,0.4424685,0.6789813,0.6627626,0.2840118,-0.4731903,0.8339081,32.91005,-0.03419495,-29.00101,4.537354,0.4427624,0.6778611999999999,-0.3118573,1.038536,-0.08034271,-0.02631132,0.7603359000000001,-0.02046399,0.03912498254299114,0.43589300770192824,31.369658676393954
0,0.2111053,-0.4991912999999999,0.8403778000000001,0.307351,0.0,0.0,0.0,-31.01678,-1.210281,-27.8838,-1.0,0.4658673,0.6799084,0.6627626,0.2111053,-0.4991912999999999,0.8403778000000001,32.53076,-0.1857605,-28.98506,3.499985,0.4679326,0.6877859000000001,-0.3118729,1.038481,-0.08043632,-0.02595064,0.7601346,-0.02023221,0.03912498254299114,0.43589300770192824,31.369658676393954
0,0.2111053,-0.4991912999999999,0.8403778000000001,0.307351,0.0,0.0,0.0,-31.01678,-1.210281,-27.8838,-1.0,0.4658673,0.6799084,0.6627626,0.2111053,-0.4991912999999999,0.8403778000000001,32.53076,-0.1857605,-28.98506,3.499985,0.4679326,0.6877859000000001,-0.3118729,1.038481,-0.08043632,-0.02595064,0.7601346,-0.02023221,0.03912498254299114,0.43589300770192824,31.369658676393954
0,0.2111053,-0.4991912999999999,0.8403778000000001,0.307351,0.0,0.0,0.0,-31.01678,-1.210281,-27.8838,-1.0,0.4658673,0.6799084,0.6627626,0.2111053,-0.4991912999999999,0.8403778000000001,32.53076,-0.1857605,-28.98506,3.499985,0.4679326,0.6877859000000001,-0.3118729,1.038481,-0.08043632,-0.02595064,0.7601346,-0.02023221,0.03912498254299114,0.43589300770192824,31.369658676393954
0,0.2111053,-0.4991912999999999,0.8403778000000001,0.307351,0.0,0.0,0.0,-31.01678,-1.210281,-27.8838,-1.0,0.4658673,0.6799084,0.6627626,0.2111053,-0.4991912999999999,0.8403778000000001,32.53076,-0.1857605,-28.98506,3.499985,0.4679326,0.6877859000000001,-0.3118816,1.038507,-0.08034381,-0.02593412,0.7600887,-0.0201131,0.03912498254299114,0.43589300770192824,31.369658676393954
0,0.2111053,-0.4991912999999999,0.8403778000000001,0.307351,0.0,0.0,0.0,-31.01678,-1.210281,-27.8838,-1.0,0.4658673,0.6799084,0.6627626,0.2111053,-0.4991912999999999,0.8403778000000001,32.53076,-0.1857605,-28.98506,3.499985,0.4679326,0.6877859000000001,-0.3118816,1.038507,-0.08034381,-0.02593412,0.7600887,-0.0201131,0.03912498254299114,0.43589300770192824,31.369658676393954
0,0.2111053,-0.4991912999999999,0.8403778000000001,0.307351,0.0,0.0,0.0,-31.01678,-1.210281,-27.8838,-1.0,0.4658673,0.6799084,0.6627626,0.2111053,-0.4991912999999999,0.8403778000000001,32.53076,-0.1857605,-28.98506,3.499985,0.4679326,0.6877859000000001,-0.3118816,1.038507,-0.08034381,-0.02593412,0.7600887,-0.0201131,0.03912498254299114,0.43589300770192824,31.369658676393954
0,-0.048172,-0.01104736,0.998764,1.0,-0.05764771,-0.005767822,0.9983063,-32.50432,1.414108,-29.13098,4.408737,0.5323207,0.5419979,1.0,0.1253967,-0.1069183,0.9863129,31.63121,1.438187,-26.16637,3.306625,0.5135894,0.5291725,-0.3120579,1.038587,-0.08011979,-0.02571819,0.7597621999999999,-0.0199085,0.03912498254299114,0.43589300770192824,31.369658676393954
0,-0.048172,-0.01104736,0.998764,1.0,-0.05764771,-0.005767822,0.9983063,-32.50432,1.414108,-29.13098,4.408737,0.5323207,0.5419979,1.0,0.1253967,-0.1069183,0.9863129,31.63121,1.438187,-26.16637,3.306625,0.5135894,0.5291725,-0.3120579,1.038587,-0.08011979,-0.02571819,0.7597621999999999,-0.0199085,0.03912498254299114,0.43589300770192824,31.369658676393954
0,-0.048172,-0.01104736,0.998764,1.0,-0.05764771,-0.005767822,0.9983063,-32.50432,1.414108,-29.13098,4.408737,0.5323207,0.5419979,1.0,0.1253967,-0.1069183,0.9863129,31.63121,1.438187,-26.16637,3.306625,0.5135894,0.5291725,-0.3120579,1.038587,-0.08011979,-0.02571819,0.7597621999999999,-0.0199085,0.03912498254299114,0.43589300770192824,31.369658676393954
0,-0.05513,0.0199585,0.9982758,1.0,-0.05549622,0.02020264,0.9982452,-32.5076,1.361084,-28.99979,4.373596,0.5320348000000001,0.5381014000000001,1.0,0.1057434,-0.08914185,0.990387,31.71231,1.864929,-28.00211,3.042923,0.5146834,0.5285525,-0.3122233,1.038667,-0.08012521,-0.0259524999999999,0.7597949,-0.01995691,0.03912498254299114,0.43589300770192824,31.369658676393954
0,-0.05513,0.0199585,0.9982758,1.0,-0.05549622,0.02020264,0.9982452,-32.5076,1.361084,-28.99979,4.373596,0.5320348000000001,0.5381014000000001,1.0,0.1057434,-0.08914185,0.990387,31.71231,1.864929,-28.00211,3.042923,0.5146834,0.5285525,-0.3122233,1.038667,-0.08012521,-0.0259524999999999,0.7597949,-0.01995691,0.03912498254299114,0.43589300770192824,31.369658676393954
0,-0.05513,0.0199585,0.9982758,1.0,-0.05549622,0.02020264,0.9982452,-32.5076,1.361084,-28.99979,4.373596,0.5320348000000001,0.5381014000000001,1.0,0.1057434,-0.08914185,0.990387,31.71231,1.864929,-28.00211,3.042923,0.5146834,0.5285525,-0.3122233,1.038667,-0.08012521,-0.0259524999999999,0.7597949,-0.01995691,0.03912498254299114,0.43589300770192824,31.369658676393954
0,-0.05513,0.0199585,0.9982758,1.0,-0.05549622,0.02020264,0.9982452,-32.5076,1.361084,-28.99979,4.373596,0.5320348000000001,0.5381014000000001,1.0,0.1057434,-0.08914185,0.990387,31.71231,1.864929,-28.00211,3.042923,0.5146834,0.5285525,-0.312274,1.038656,-0.08016178,-0.0258634999999999,0.7599319,-0.01982788,0.03912498254299114,0.43589300770192824,31.369658676393954
0,-0.05513,0.0199585,0.9982758,1.0,-0.05549622,0.02020264,0.9982452,-32.5076,1.361084,-28.99979,4.373596,0.5320348000000001,0.5381014000000001,1.0,0.1057434,-0.08914185,0.990387,31.71231,1.864929,-28.00211,3.042923,0.5146834,0.5285525,-0.312274,1.038656,-0.08016178,-0.0258634999999999,0.7599319,-0.01982788,0.03912498254299114,0.43589300770192824,31.369658676393954
0,-0.05513,0.0199585,0.9982758,1.0,-0.05549622,0.02020264,0.9982452,-32.5076,1.361084,-28.99979,4.373596,0.5320348000000001,0.5381014000000001,1.0,0.1057434,-0.08914185,0.990387,31.71231,1.864929,-28.00211,3.042923,0.5146834,0.5285525,-0.312274,1.038656,-0.08016178,-0.0258634999999999,0.7599319,-0.01982788,0.03912498254299114,0.43589300770192824,31.369658676393954
0,-0.05426025,0.03939819,0.9977417,1.0,-0.05458069,0.03964233,0.9977112,-32.51344,1.37088,-29.05348,4.583817,0.5321026,0.535199,1.0,0.1023865,-0.08110046,0.9914246,31.686290000000003,1.728348,-27.48721,3.168167,0.5160152,0.5270111,-0.3123243,1.038592,-0.08019859,-0.02573499,0.7600821,-0.019759,0.03912498254299114,0.43589300770192824,31.369658676393954
0,-0.05426025,0.03939819,0.9977417,1.0,-0.05458069,0.03964233,0.9977112,-32.51344,1.37088,-29.05348,4.583817,0.5321026,0.535199,1.0,0.1023865,-0.08110046,0.9914246,31.686290000000003,1.728348,-27.48721,3.168167,0.5160152,0.5270111,-0.3123243,1.038592,-0.08019859,-0.02573499,0.7600821,-0.019759,0.03912498254299114,0.43589300770192824,31.369658676393954
0,-0.05426025,0.03939819,0.9977417,1.0,-0.05458069,0.03964233,0.9977112,-32.51344,1.37088,-29.05348,4.583817,0.5321026,0.535199,1.0,0.1023865,-0.08110046,0.9914246,31.686290000000003,1.728348,-27.48721,3.168167,0.5160152,0.5270111,-0.3123243,1.038592,-0.08019859,-0.02573499,0.7600821,-0.019759,0.03912498254299114,0.43589300770192824,31.369658676393954
0,-0.05426025,0.03939819,0.9977417,1.0,-0.05458069,0.03964233,0.9977112,-32.51344,1.37088,-29.05348,4.583817,0.5321026,0.535199,1.0,0.1023865,-0.08110046,0.9914246,31.686290000000003,1.728348,-27.48721,3.168167,0.5160152,0.5270111,-0.3124202,1.038665,-0.08016285,-0.02581116,0.7603446999999999,-0.01980889,0.03912498254299114,0.43589300770192824,31.369658676393954
0,-0.05426025,0.03939819,0.9977417,1.0,-0.05458069,0.03964233,0.9977112,-32.51344,1.37088,-29.05348,4.583817,0.5321026,0.535199,1.0,0.1023865,-0.08110046,0.9914246,31.686290000000003,1.728348,-27.48721,3.168167,0.5160152,0.5270111,-0.3124202,1.038665,-0.08016285,-0.02581116,0.7603446999999999,-0.01980889,0.03912498254299114,0.43589300770192824,31.369658676393954
0,-0.05426025,0.03939819,0.9977417,1.0,-0.05458069,0.03964233,0.9977112,-32.51344,1.37088,-29.05348,4.583817,0.5321026,0.535199,1.0,0.1023865,-0.08110046,0.9914246,31.686290000000003,1.728348,-27.48721,3.168167,0.5160152,0.5270111,-0.3124202,1.038665,-0.08016285,-0.02581116,0.7603446999999999,-0.01980889,0.03912498254299114,0.43589300770192824,31.369658676393954
0,-0.03773499,0.03816223,0.9985504,1.0,-0.03773499,0.03816223,0.9985504,-32.42805,1.316666,-29.069440000000004,4.373917,0.5263973000000001,0.5371746999999999,1.0,0.1031952,-0.02690125,0.9942932,31.74506,1.601227,-27.28481,3.5927580000000003,0.5139314,0.5202187,-0.3124697999999999,1.038697,-0.0802426,-0.02582674,0.7603970999999999,-0.01967227,0.03912498254299114,0.43589300770192824,31.369658676393954
0,-0.03773499,0.03816223,0.9985504,1.0,-0.03773499,0.03816223,0.9985504,-32.42805,1.316666,-29.069440000000004,4.373917,0.5263973000000001,0.5371746999999999,1.0,0.1031952,-0.02690125,0.9942932,31.74506,1.601227,-27.28481,3.5927580000000003,0.5139314,0.5202187,-0.3124697999999999,1.038697,-0.0802426,-0.02582674,0.7603970999999999,-0.01967227,0.03912498254299114,0.43589300770192824,31.369658676393954
0,-0.03773499,0.03816223,0.9985504,1.0,-0.03773499,0.03816223,0.9985504,-32.42805,1.316666,-29.069440000000004,4.373917,0.5263973000000001,0.5371746999999999,1.0,0.1031952,-0.02690125,0.9942932,31.74506,1.601227,-27.28481,3.5927580000000003,0.5139314,0.5202187,-0.3124697999999999,1.038697,-0.0802426,-0.02582674,0.7603970999999999,-0.01967227,0.03912498254299114,0.43589300770192824,31.369658676393954
0,0.08872986,-0.01416016,0.9959412,1.0,-0.03390503,0.04870605,0.99823,-32.367020000000004,1.486588,-29.58476,4.458618,0.5239108,0.5345688,1.0,0.09851074,-0.01919556,0.9949493,31.7562,1.636093,-27.40932,3.666321,0.5144135,0.5189168,-0.3126079,1.038805,-0.08014983,-0.02620605,0.7605866,-0.01963037,0.03912498254299114,0.43589300770192824,31.369658676393954
0,0.08872986,-0.01416016,0.9959412,1.0,-0.03390503,0.04870605,0.99823,-32.367020000000004,1.486588,-29.58476,4.458618,0.5239108,0.5345688,1.0,0.09851074,-0.01919556,0.9949493,31.7562,1.636093,-27.40932,3.666321,0.5144135,0.5189168,-0.3126079,1.038805,-0.08014983,-0.02620605,0.7605866,-0.01963037,0.03912498254299114,0.43589300770192824,31.369658676393954
0,0.08872986,-0.01416016,0.9959412,1.0,-0.03390503,0.04870605,0.99823,-32.367020000000004,1.486588,-29.58476,4.458618,0.5239108,0.5345688,1.0,0.09851074,-0.01919556,0.9949493,31.7562,1.636093,-27.40932,3.666321,0.5144135,0.5189168,-0.3126079,1.038805,-0.08014983,-0.02620605,0.7605866,-0.01963037,0.03912498254299114,0.43589300770192824,31.369658676393954
0,0.08387756,-0.01095581,0.9964142,1.0,-0.03430176,0.04841614,0.99823,-32.38712,1.592163,-29.779740000000004,4.407608,0.5247449000000001,0.5328446,1.0,0.08776855,-0.01292419,0.996048,31.74821,1.670929,-27.37393,3.5672300000000003,0.5164848,0.516221,-0.312788,1.038908,-0.0800871,-0.02667523,0.7606381999999999,-0.01916212,0.03912498254299114,0.43589300770192824,31.369658676393954
0,0.08387756,-0.01095581,0.9964142,1.0,-0.03430176,0.04841614,0.99823,-32.38712,1.592163,-29.779740000000004,4.407608,0.5247449000000001,0.5328446,1.0,0.08776855,-0.01292419,0.996048,31.74821,1.670929,-27.37393,3.5672300000000003,0.5164848,0.516221,-0.312788,1.038908,-0.0800871,-0.02667523,0.7606381999999999,-0.01916212,0.03912498254299114,0.43589300770192824,31.369658676393954
0,0.08387756,-0.01095581,0.9964142,1.0,-0.03430176,0.04841614,0.99823,-32.38712,1.592163,-29.779740000000004,4.407608,0.5247449000000001,0.5328446,1.0,0.08776855,-0.01292419,0.996048,31.74821,1.670929,-27.37393,3.5672300000000003,0.5164848,0.516221,-0.312788,1.038908,-0.0800871,-0.02667523,0.7606381999999999,-0.01916212,0.03912498254299114,0.43589300770192824,31.369658676393954
0,0.08387756,-0.01095581,0.9964142,1.0,-0.03430176,0.04841614,0.99823,-32.38712,1.592163,-29.779740000000004,4.407608,0.5247449000000001,0.5328446,1.0,0.08776855,-0.01292419,0.996048,31.74821,1.670929,-27.37393,3.5672300000000003,0.5164848,0.516221,-0.3129607,1.039134,-0.07982758,-0.0269959,0.7606746999999999,-0.01867097,0.03912498254299114,0.43589300770192824,31.369658676393954
0,0.08387756,-0.01095581,0.9964142,1.0,-0.03430176,0.04841614,0.99823,-32.38712,1.592163,-29.779740000000004,4.407608,0.5247449000000001,0.5328446,1.0,0.08776855,-0.01292419,0.996048,31.74821,1.670929,-27.37393,3.5672300000000003,0.5164848,0.516221,-0.3129607,1.039134,-0.07982758,-0.0269959,0.7606746999999999,-0.01867097,0.03912498254299114,0.43589300770192824,31.369658676393954
0,0.08387756,-0.01095581,0.9964142,1.0,-0.03430176,0.04841614,0.99823,-32.38712,1.592163,-29.779740000000004,4.407608,0.5247449000000001,0.5328446,1.0,0.08776855,-0.01292419,0.996048,31.74821,1.670929,-27.37393,3.5672300000000003,0.5164848,0.516221,-0.3129607,1.039134,-0.07982758,-0.0269959,0.7606746999999999,-0.01867097,0.03912498254299114,0.43589300770192824,31.369658676393954
0,-0.05371094,0.151474,0.9869843,1.0,-0.05371094,0.151474,0.9869843,-32.58109,1.7966919999999995,-29.30251,4.309647,0.534515,0.5042524,1.0,0.09170532,0.08204651,0.9923859,31.57043,2.607864,-29.25351,3.656479,0.5226972,0.4855327999999999,-0.3130506,1.039367,-0.07984948,-0.02751488,0.7608441,-0.01805568,0.03912498254299114,0.43589300770192824,31.369658676393954
0,-0.05371094,0.151474,0.9869843,1.0,-0.05371094,0.151474,0.9869843,-32.58109,1.7966919999999995,-29.30251,4.309647,0.534515,0.5042524,1.0,0.09170532,0.08204651,0.9923859,31.57043,2.607864,-29.25351,3.656479,0.5226972,0.4855327999999999,-0.3130506,1.039367,-0.07984948,-0.02751488,0.7608441,-0.01805568,0.03912498254299114,0.43589300770192824,31.369658676393954
0,-0.05371094,0.151474,0.9869843,1.0,-0.05371094,0.151474,0.9869843,-32.58109,1.7966919999999995,-29.30251,4.309647,0.534515,0.5042524,1.0,0.09170532,0.08204651,0.9923859,31.57043,2.607864,-29.25351,3.656479,0.5226972,0.4855327999999999,-0.3130506,1.039367,-0.07984948,-0.02751488,0.7608441,-0.01805568,0.03912498254299114,0.43589300770192824,31.369658676393954
0,-0.06367493,0.1270142,0.9898529,1.0,-0.06367493,0.1270142,0.9898529,-32.53645,1.981842,-29.812040000000003,4.35376,0.5349351,0.506785,1.0,0.09709167,0.08058167,0.9920044,31.46381,1.918594,-27.12413,3.612,0.5245214,0.489747,-0.3134192999999999,1.039749,-0.07984042,-0.02787737,0.7609680999999999,-0.01712229,0.03912498254299114,0.43589300770192824,31.369658676393954
0,-0.06367493,0.1270142,0.9898529,1.0,-0.06367493,0.1270142,0.9898529,-32.53645,1.981842,-29.812040000000003,4.35376,0.5349351,0.506785,1.0,0.09709167,0.08058167,0.9920044,31.46381,1.918594,-27.12413,3.612,0.5245214,0.489747,-0.3134192999999999,1.039749,-0.07984042,-0.02787737,0.7609680999999999,-0.01712229,0.03912498254299114,0.43589300770192824,31.369658676393954
0,-0.06367493,0.1270142,0.9898529,1.0,-0.06367493,0.1270142,0.9898529,-32.53645,1.981842,-29.812040000000003,4.35376,0.5349351,0.506785,1.0,0.09709167,0.08058167,0.9920044,31.46381,1.918594,-27.12413,3.612,0.5245214,0.489747,-0.3134192999999999,1.039749,-0.07984042,-0.02787737,0.7609680999999999,-0.01712229,0.03912498254299114,0.43589300770192824,31.369658676393954
0,-0.06231689,0.1347961,0.9889069,1.0,-0.06231689,0.1347961,0.9889069,-32.52219,1.979324,-29.80235,4.303589,0.5342236,0.5054294,1.0,0.1112518,0.0761261,0.99086,31.47386,1.898956,-27.05569,3.749557,0.5217801,0.4907149,-0.313486,1.0399459999999998,-0.07964259,-0.02814826,0.7608409,-0.01648627,0.03912498254299114,0.43589300770192824,31.369658676393954
0,-0.06231689,0.1347961,0.9889069,1.0,-0.06231689,0.1347961,0.9889069,-32.52219,1.979324,-29.80235,4.303589,0.5342236,0.5054294,1.0,0.1112518,0.0761261,0.99086,31.47386,1.898956,-27.05569,3.749557,0.5217801,0.4907149,-0.313486,1.0399459999999998,-0.07964259,-0.02814826,0.7608409,-0.01648627,0.03912498254299114,0.43589300770192824,31.369658676393954
0,-0.06231689,0.1347961,0.9889069,1.0,-0.06231689,0.1347961,0.9889069,-32.52219,1.979324,-29.80235,4.303589,0.5342236,0.5054294,1.0,0.1112518,0.0761261,0.99086,31.47386,1.898956,-27.05569,3.749557,0.5217801,0.4907149,-0.313486,1.0399459999999998,-0.07964259,-0.02814826,0.7608409,-0.01648627,0.03912498254299114,0.43589300770192824,31.369658676393954
0,-0.06231689,0.1347961,0.9889069,1.0,-0.06231689,0.1347961,0.9889069,-32.52219,1.979324,-29.80235,4.303589,0.5342236,0.5054294,1.0,0.1112518,0.0761261,0.99086,31.47386,1.898956,-27.05569,3.749557,0.5217801,0.4907149,-0.3135632,1.040018,-0.07960159,-0.02866418,0.7606341999999999,-0.01621331,0.03912498254299114,0.43589300770192824,31.369658676393954
0,-0.06231689,0.1347961,0.9889069,1.0,-0.06231689,0.1347961,0.9889069,-32.52219,1.979324,-29.80235,4.303589,0.5342236,0.5054294,1.0,0.1112518,0.0761261,0.99086,31.47386,1.898956,-27.05569,3.749557,0.5217801,0.4907149,-0.3135632,1.040018,-0.07960159,-0.02866418,0.7606341999999999,-0.01621331,0.03912498254299114,0.43589300770192824,31.369658676393954
0,-0.06231689,0.1347961,0.9889069,1.0,-0.06231689,0.1347961,0.9889069,-32.52219,1.979324,-29.80235,4.303589,0.5342236,0.5054294,1.0,0.1112518,0.0761261,0.99086,31.47386,1.898956,-27.05569,3.749557,0.5217801,0.4907149,-0.3135632,1.040018,-0.07960159,-0.02866418,0.7606341999999999,-0.01621331,0.03912498254299114,0.43589300770192824,31.369658676393954
0,-0.04225159,0.1489868,0.9879303,1.0,-0.04225159,0.1489868,0.9879303,-32.484390000000005,1.751251,-29.22345,4.443848,0.5292656,0.5055149,1.0,0.04678345,0.06524658,0.9967651,31.93774,3.379318,-32.13542,3.659485,0.518897,0.4883698,-0.3137135,1.040148,-0.0795151,-0.0291329,0.7603543,-0.0154355,0.03912498254299114,0.43589300770192824,31.369658676393954
0,-0.04225159,0.1489868,0.9879303,1.0,-0.04225159,0.1489868,0.9879303,-32.484390000000005,1.751251,-29.22345,4.443848,0.5292656,0.5055149,1.0,0.04678345,0.06524658,0.9967651,31.93774,3.379318,-32.13542,3.659485,0.518897,0.4883698,-0.3137135,1.040148,-0.0795151,-0.0291329,0.7603543,-0.0154355,0.03912498254299114,0.43589300770192824,31.369658676393954
0,-0.04225159,0.1489868,0.9879303,1.0,-0.04225159,0.1489868,0.9879303,-32.484390000000005,1.751251,-29.22345,4.443848,0.5292656,0.5055149,1.0,0.04678345,0.06524658,0.9967651,31.93774,3.379318,-32.13542,3.659485,0.518897,0.4883698,-0.3137135,1.040148,-0.0795151,-0.0291329,0.7603543,-0.0154355,0.03912498254299114,0.43589300770192824,31.369658676393954
0,-0.04388428,0.1214599999999999,0.9916229,1.0,-0.04388428,0.1214599999999999,0.9916229,-32.456509999999994,2.143127,-30.22821,4.33075,0.5290402,0.5059826,1.0,0.04801941,0.07194519,0.9962463,31.93924,3.3866120000000004,-32.16451,3.693298,0.5186451,0.4872364,-0.3138142,1.040505,-0.07952338,-0.02982053,0.7603106,-0.01489183,0.03912498254299114,0.43589300770192824,31.369658676393954
0,-0.04388428,0.1214599999999999,0.9916229,1.0,-0.04388428,0.1214599999999999,0.9916229,-32.456509999999994,2.143127,-30.22821,4.33075,0.5290402,0.5059826,1.0,0.04801941,0.07194519,0.9962463,31.93924,3.3866120000000004,-32.16451,3.693298,0.5186451,0.4872364,-0.3138142,1.040505,-0.07952338,-0.02982053,0.7603106,-0.01489183,0.03912498254299114,0.43589300770192824,31.369658676393954
0,-0.04388428,0.1214599999999999,0.9916229,1.0,-0.04388428,0.1214599999999999,0.9916229,-32.456509999999994,2.143127,-30.22821,4.33075,0.5290402,0.5059826,1.0,0.04801941,0.07194519,0.9962463,31.93924,3.3866120000000004,-32.16451,3.693298,0.5186451,0.4872364,-0.3138142,1.040505,-0.07952338,-0.02982053,0.7603106,-0.01489183,0.03912498254299114,0.43589300770192824,31.369658676393954
0,-0.02947998,0.1435852,0.9891968,1.0,-0.02947998,0.1435852,0.9891968,-32.39006,2.092834,-30.07076,4.467209,0.5242623,0.5026758,1.0,0.02342224,0.04180908,0.9988403,32.10783,4.181824,-34.44937,3.673065,0.5179252999999999,0.4860458,-0.31389,1.040656,-0.07963198,-0.03011205,0.7601131,-0.01427231,0.03912498254299114,0.43589300770192824,31.369658676393954
0,-0.02947998,0.1435852,0.9891968,1.0,-0.02947998,0.1435852,0.9891968,-32.39006,2.092834,-30.07076,4.467209,0.5242623,0.5026758,1.0,0.02342224,0.04180908,0.9988403,32.10783,4.181824,-34.44937,3.673065,0.5179252999999999,0.4860458,-0.31389,1.040656,-0.07963198,-0.03011205,0.7601131,-0.01427231,0.03912498254299114,0.43589300770192824,31.369658676393954
0,-0.02947998,0.1435852,0.9891968,1.0,-0.02947998,0.1435852,0.9891968,-32.39006,2.092834,-30.07076,4.467209,0.5242623,0.5026758,1.0,0.02342224,0.04180908,0.9988403,32.10783,4.181824,-34.44937,3.673065,0.5179252999999999,0.4860458,-0.31389,1.040656,-0.07963198,-0.03011205,0.7601131,-0.01427231,0.03912498254299114,0.43589300770192824,31.369658676393954
1,-0.03062439,0.1375579999999999,0.9900055,1.0,-0.03062439,0.1375579999999999,0.9900055,-32.392,2.102859,-30.07504,4.520752,0.5245168,0.5034488,1.0,0.02359009,0.04199219,0.9988251,32.11165,4.181824,-34.44937,3.696152,0.5177605,0.4860305,-0.3141026,1.04086,-0.07986343,-0.03107679,0.7601452,-0.01400168,0.03912498254299114,0.43589300770192824,31.369658676393954
1,-0.03062439,0.1375579999999999,0.9900055,1.0,-0.03062439,0.1375579999999999,0.9900055,-32.392,2.102859,-30.07504,4.520752,0.5245168,0.5034488,1.0,0.02359009,0.04199219,0.9988251,32.11165,4.181824,-34.44937,3.696152,0.5177605,0.4860305,-0.3141026,1.04086,-0.07986343,-0.03107679,0.7601452,-0.01400168,0.03912498254299114,0.43589300770192824,31.369658676393954
1,-0.03062439,0.1375579999999999,0.9900055,1.0,-0.03062439,0.1375579999999999,0.9900055,-32.392,2.102859,-30.07504,4.520752,0.5245168,0.5034488,1.0,0.02359009,0.04199219,0.9988251,32.11165,4.181824,-34.44937,3.696152,0.5177605,0.4860305,-0.3141026,1.04086,-0.07986343,-0.03107679,0.7601452,-0.01400168,0.03912498254299114,0.43589300770192824,31.369658676393954
1,-0.03062439,0.1375579999999999,0.9900055,1.0,-0.03062439,0.1375579999999999,0.9900055,-32.392,2.102859,-30.07504,4.520752,0.5245168,0.5034488,1.0,0.02359009,0.04199219,0.9988251,32.11165,4.181824,-34.44937,3.696152,0.5177605,0.4860305,-0.3142992,1.041003,-0.08010966,-0.0319562,0.7605031999999999,-0.01345462,0.03912498254299114,0.43589300770192824,31.369658676393954
1,-0.03062439,0.1375579999999999,0.9900055,1.0,-0.03062439,0.1375579999999999,0.9900055,-32.392,2.102859,-30.07504,4.520752,0.5245168,0.5034488,1.0,0.02359009,0.04199219,0.9988251,32.11165,4.181824,-34.44937,3.696152,0.5177605,0.4860305,-0.3142992,1.041003,-0.08010966,-0.0319562,0.7605031999999999,-0.01345462,0.03912498254299114,0.43589300770192824,31.369658676393954
1,-0.03062439,0.1375579999999999,0.9900055,1.0,-0.03062439,0.1375579999999999,0.9900055,-32.392,2.102859,-30.07504,4.520752,0.5245168,0.5034488,1.0,0.02359009,0.04199219,0.9988251,32.11165,4.181824,-34.44937,3.696152,0.5177605,0.4860305,-0.3142992,1.041003,-0.08010966,-0.0319562,0.7605031999999999,-0.01345462,0.03912498254299114,0.43589300770192824,31.369658676393954
1,-0.02384949,0.1299286,0.9912261999999998,1.0,-0.02384949,0.1299286,0.9912261999999998,-32.39952,2.077179,-29.98193,4.5334010000000005,0.5235742999999999,0.5047479,1.0,0.02487183,0.04455566,0.9986877,32.11206,4.181824,-34.44937,3.698212,0.5175173,0.4855789000000001,-0.3145229,1.041203,-0.08049956,-0.0327029999999999,0.7609691999999999,-0.01290832,0.03912498254299114,0.43589300770192824,31.369658676393954
1,-0.02384949,0.1299286,0.9912261999999998,1.0,-0.02384949,0.1299286,0.9912261999999998,-32.39952,2.077179,-29.98193,4.5334010000000005,0.5235742999999999,0.5047479,1.0,0.02487183,0.04455566,0.9986877,32.11206,4.181824,-34.44937,3.698212,0.5175173,0.4855789000000001,-0.3145229,1.041203,-0.08049956,-0.0327029999999999,0.7609691999999999,-0.01290832,0.03912498254299114,0.43589300770192824,31.369658676393954
1,-0.02384949,0.1299286,0.9912261999999998,1.0,-0.02384949,0.1299286,0.9912261999999998,-32.39952,2.077179,-29.98193,4.5334010000000005,0.5235742999999999,0.5047479,1.0,0.02487183,0.04455566,0.9986877,32.11206,4.181824,-34.44937,3.698212,0.5175173,0.4855789000000001,-0.3145229,1.041203,-0.08049956,-0.0327029999999999,0.7609691999999999,-0.01290832,0.03912498254299114,0.43589300770192824,31.369658676393954
1,-0.0118866,0.1395264,0.9901428,1.0,-0.0118866,0.1395264,0.9901428,-32.38017,2.024551,-29.87346,4.656998000000001,0.5208629,0.5040014,1.0,0.07455444,0.09049988,0.9930878,31.98785,3.200699,-31.295440000000003,4.013992,0.5120353,0.4827484,-0.3148794,1.041564,-0.08120522,-0.03386852,0.762166,-0.01188855,0.03912498254299114,0.43589300770192824,31.369658676393954
1,-0.0118866,0.1395264,0.9901428,1.0,-0.0118866,0.1395264,0.9901428,-32.38017,2.024551,-29.87346,4.656998000000001,0.5208629,0.5040014,1.0,0.07455444,0.09049988,0.9930878,31.98785,3.200699,-31.295440000000003,4.013992,0.5120353,0.4827484,-0.3148794,1.041564,-0.08120522,-0.03386852,0.762166,-0.01188855,0.03912498254299114,0.43589300770192824,31.369658676393954
1,-0.0118866,0.1395264,0.9901428,1.0,-0.0118866,0.1395264,0.9901428,-32.38017,2.024551,-29.87346,4.656998000000001,0.5208629,0.5040014,1.0,0.07455444,0.09049988,0.9930878,31.98785,3.200699,-31.295440000000003,4.013992,0.5120353,0.4827484,-0.3148794,1.041564,-0.08120522,-0.03386852,0.762166,-0.01188855,0.03912498254299114,0.43589300770192824,31.369658676393954
1,-0.001785278,0.1340027,0.9909668,1.0,-0.001785278,0.1340027,0.9909668,-32.28111,1.996735,-29.81683,4.674057,0.5157525,0.5053809,1.0,0.08654785,0.09156799,0.9920197,32.058820000000004,3.036865,-30.79831,4.159317,0.5073321,0.4837401,-0.3150948,1.04178,-0.08157745,-0.03490944,0.762717,-0.01173559,0.03912498254299114,0.43589300770192824,31.369658676393954
1,-0.001785278,0.1340027,0.9909668,1.0,-0.001785278,0.1340027,0.9909668,-32.28111,1.996735,-29.81683,4.674057,0.5157525,0.5053809,1.0,0.08654785,0.09156799,0.9920197,32.058820000000004,3.036865,-30.79831,4.159317,0.5073321,0.4837401,-0.3150948,1.04178,-0.08157745,-0.03490944,0.762717,-0.01173559,0.03912498254299114,0.43589300770192824,31.369658676393954
1,-0.001785278,0.1340027,0.9909668,1.0,-0.001785278,0.1340027,0.9909668,-32.28111,1.996735,-29.81683,4.674057,0.5157525,0.5053809,1.0,0.08654785,0.09156799,0.9920197,32.058820000000004,3.036865,-30.79831,4.159317,0.5073321,0.4837401,-0.3150948,1.04178,-0.08157745,-0.03490944,0.762717,-0.01173559,0.03912498254299114,0.43589300770192824,31.369658676393954
1,0.007766724,0.2727355999999999,0.9620514,1.0,0.007766724,0.2727355999999999,0.9620514,-31.95937,2.7364040000000003,-29.71169,4.798645,0.5033564,0.4564960999999999,1.0,0.06123352,0.1880646,0.9802399,32.23022,4.44986,-33.49156,4.175629,0.5067065,0.4420861,-0.3153147,1.042085,-0.0820432,-0.03688413,0.7635109999999999,-0.0107467,0.03912498254299114,0.43589300770192824,31.369658676393954
1,0.007766724,0.2727355999999999,0.9620514,1.0,0.007766724,0.2727355999999999,0.9620514,-31.95937,2.7364040000000003,-29.71169,4.798645,0.5033564,0.4564960999999999,1.0,0.06123352,0.1880646,0.9802399,32.23022,4.44986,-33.49156,4.175629,0.5067065,0.4420861,-0.3153147,1.042085,-0.0820432,-0.03688413,0.7635109999999999,-0.0107467,0.03912498254299114,0.43589300770192824,31.369658676393954
1,0.007766724,0.2727355999999999,0.9620514,1.0,0.007766724,0.2727355999999999,0.9620514,-31.95937,2.7364040000000003,-29.71169,4.798645,0.5033564,0.4564960999999999,1.0,0.06123352,0.1880646,0.9802399,32.23022,4.44986,-33.49156,4.175629,0.5067065,0.4420861,-0.3153147,1.042085,-0.0820432,-0.03688413,0.7635109999999999,-0.0107467,0.03912498254299114,0.43589300770192824,31.369658676393954
1,0.01637268,0.2939453,0.9556732,1.0,0.01637268,0.2939453,0.9556732,-31.9733,2.7074130000000003,-29.74176,4.880371,0.5023761,0.4543264,1.0,0.06881714,0.2012329,0.9771118,32.22331,4.239441,-32.76501,4.199997,0.5053968,0.4407204,-0.3154296,1.0422280000000002,-0.08228609,-0.03772615,0.7641197,-0.01039857,0.03912498254299114,0.43589300770192824,31.369658676393954
1,0.01637268,0.2939453,0.9556732,1.0,0.01637268,0.2939453,0.9556732,-31.9733,2.7074130000000003,-29.74176,4.880371,0.5023761,0.4543264,1.0,0.06881714,0.2012329,0.9771118,32.22331,4.239441,-32.76501,4.199997,0.5053968,0.4407204,-0.3154296,1.0422280000000002,-0.08228609,-0.03772615,0.7641197,-0.01039857,0.03912498254299114,0.43589300770192824,31.369658676393954
1,0.01637268,0.2939453,0.9556732,1.0,0.01637268,0.2939453,0.9556732,-31.9733,2.7074130000000003,-29.74176,4.880371,0.5023761,0.4543264,1.0,0.06881714,0.2012329,0.9771118,32.22331,4.239441,-32.76501,4.199997,0.5053968,0.4407204,-0.3154296,1.0422280000000002,-0.08228609,-0.03772615,0.7641197,-0.01039857,0.03912498254299114,0.43589300770192824,31.369658676393954
1,0.01637268,0.2939453,0.9556732,1.0,0.01637268,0.2939453,0.9556732,-31.9733,2.7074130000000003,-29.74176,4.880371,0.5023761,0.4543264,1.0,0.06881714,0.2012329,0.9771118,32.22331,4.239441,-32.76501,4.199997,0.5053968,0.4407204,-0.3157125999999999,1.042405,-0.08236387,-0.03786886,0.7646187,-0.01010791,0.03912498254299114,0.43589300770192824,31.369658676393954
1,0.01637268,0.2939453,0.9556732,1.0,0.01637268,0.2939453,0.9556732,-31.9733,2.7074130000000003,-29.74176,4.880371,0.5023761,0.4543264,1.0,0.06881714,0.2012329,0.9771118,32.22331,4.239441,-32.76501,4.199997,0.5053968,0.4407204,-0.3157125999999999,1.042405,-0.08236387,-0.03786886,0.7646187,-0.01010791,0.03912498254299114,0.43589300770192824,31.369658676393954
1,0.01637268,0.2939453,0.9556732,1.0,0.01637268,0.2939453,0.9556732,-31.9733,2.7074130000000003,-29.74176,4.880371,0.5023761,0.4543264,1.0,0.06881714,0.2012329,0.9771118,32.22331,4.239441,-32.76501,4.199997,0.5053968,0.4407204,-0.3157125999999999,1.042405,-0.08236387,-0.03786886,0.7646187,-0.01010791,0.03912498254299114,0.43589300770192824,31.369658676393954
1,-0.004486084,0.2911682,0.9566498,1.0,-0.004486084,0.2911682,0.9566498,-31.83966,2.498291,-29.68436,4.799072,0.5013721999999999,0.4612289,1.0,0.08044434,0.2159882,0.9730682,32.19293,3.888275,-31.2894,4.495833999999999,0.5040859999999999,0.4375535,-0.3160794,1.0428620000000002,-0.08230042,-0.03907652,0.7648847,-0.009163002,0.03912498254299114,0.43589300770192824,31.369658676393954
1,-0.004486084,0.2911682,0.9566498,1.0,-0.004486084,0.2911682,0.9566498,-31.83966,2.498291,-29.68436,4.799072,0.5013721999999999,0.4612289,1.0,0.08044434,0.2159882,0.9730682,32.19293,3.888275,-31.2894,4.495833999999999,0.5040859999999999,0.4375535,-0.3160794,1.0428620000000002,-0.08230042,-0.03907652,0.7648847,-0.009163002,0.03912498254299114,0.43589300770192824,31.369658676393954
1,-0.004486084,0.2911682,0.9566498,1.0,-0.004486084,0.2911682,0.9566498,-31.83966,2.498291,-29.68436,4.799072,0.5013721999999999,0.4612289,1.0,0.08044434,0.2159882,0.9730682,32.19293,3.888275,-31.2894,4.495833999999999,0.5040859999999999,0.4375535,-0.3160794,1.0428620000000002,-0.08230042,-0.03907652,0.7648847,-0.009163002,0.03912498254299114,0.43589300770192824,31.369658676393954
1,0.01997375,0.2862396,0.9579468,1.0,0.01480103,0.2929382,0.9560089,-31.81335,2.467636,-29.65479,4.936858999999999,0.4971706,0.4618693,1.0,0.07331848,0.2156982,0.9736938,32.23335,3.931976,-31.52757,4.494858,0.5039831,0.4381944,-0.3162592,1.043007,-0.0820448999999999,-0.03956623,0.7646930000000001,-0.00825939,0.03912498254299114,0.43589300770192824,31.369658676393954
1,0.01997375,0.2862396,0.9579468,1.0,0.01480103,0.2929382,0.9560089,-31.81335,2.467636,-29.65479,4.936858999999999,0.4971706,0.4618693,1.0,0.07331848,0.2156982,0.9736938,32.23335,3.931976,-31.52757,4.494858,0.5039831,0.4381944,-0.3162592,1.043007,-0.0820448999999999,-0.03956623,0.7646930000000001,-0.00825939,0.03912498254299114,0.43589300770192824,31.369658676393954
1,0.01997375,0.2862396,0.9579468,1.0,0.01480103,0.2929382,0.9560089,-31.81335,2.467636,-29.65479,4.936858999999999,0.4971706,0.4618693,1.0,0.07331848,0.2156982,0.9736938,32.23335,3.931976,-31.52757,4.494858,0.5039831,0.4381944,-0.3162592,1.043007,-0.0820448999999999,-0.03956623,0.7646930000000001,-0.00825939,0.03912498254299114,0.43589300770192824,31.369658676393954
1,0.05400085,0.2350922,0.970459,1.0,0.04039001,0.2498168999999999,0.9674377,-31.91545,2.59285,-29.66568,4.8014220000000005,0.4962609,0.4647162999999999,1.0,0.07087708,0.2166748,0.9736633,32.259370000000004,3.891525,-31.43391,4.541153,0.5034829000000001,0.438651,-0.3164464,1.043202,-0.08181474,-0.03987759,0.7644031,-0.007495157,0.03912498254299114,0.43589300770192824,31.369658676393954
1,0.05400085,0.2350922,0.970459,1.0,0.04039001,0.2498168999999999,0.9674377,-31.91545,2.59285,-29.66568,4.8014220000000005,0.4962609,0.4647162999999999,1.0,0.07087708,0.2166748,0.9736633,32.259370000000004,3.891525,-31.43391,4.541153,0.5034829000000001,0.438651,-0.3164464,1.043202,-0.08181474,-0.03987759,0.7644031,-0.007495157,0.03912498254299114,0.43589300770192824,31.369658676393954
1,0.05400085,0.2350922,0.970459,1.0,0.04039001,0.2498168999999999,0.9674377,-31.91545,2.59285,-29.66568,4.8014220000000005,0.4962609,0.4647162999999999,1.0,0.07087708,0.2166748,0.9736633,32.259370000000004,3.891525,-31.43391,4.541153,0.5034829000000001,0.438651,-0.3164464,1.043202,-0.08181474,-0.03987759,0.7644031,-0.007495157,0.03912498254299114,0.43589300770192824,31.369658676393954
1,0.05293274,0.2303162,0.9716644,1.0,0.0369873,0.2466431,0.9683838,-31.90991,2.590393,-29.68163,4.824066,0.4966561,0.4654933,1.0,0.07191467,0.2106627999999999,0.9748993,32.28719,3.891235,-31.38744,4.53981,0.5023164999999999,0.4392657999999999,-0.3166025,1.043427,-0.08156636,-0.04054122,0.7640121,-0.006853898,0.03912498254299114,0.43589300770192824,31.369658676393954
1,0.05293274,0.2303162,0.9716644,1.0,0.0369873,0.2466431,0.9683838,-31.90991,2.590393,-29.68163,4.824066,0.4966561,0.4654933,1.0,0.07191467,0.2106627999999999,0.9748993,32.28719,3.891235,-31.38744,4.53981,0.5023164999999999,0.4392657999999999,-0.3166025,1.043427,-0.08156636,-0.04054122,0.7640121,-0.006853898,0.03912498254299114,0.43589300770192824,31.369658676393954
1,0.05293274,0.2303162,0.9716644,1.0,0.0369873,0.2466431,0.9683838,-31.90991,2.590393,-29.68163,4.824066,0.4966561,0.4654933,1.0,0.07191467,0.2106627999999999,0.9748993,32.28719,3.891235,-31.38744,4.53981,0.5023164999999999,0.4392657999999999,-0.3166025,1.043427,-0.08156636,-0.04054122,0.7640121,-0.006853898,0.03912498254299114,0.43589300770192824,31.369658676393954
1,0.05375671,0.2301941,0.9716492,1.0,0.03868103,0.2482605,0.9679108,-31.91052,2.583969,-29.68097,4.871719000000001,0.4963949,0.4654933,1.0,0.07254028,0.2074432,0.9755402,32.29225,3.877518,-31.36829,4.561783,0.5020249,0.440156,-0.3167572,1.0436040000000002,-0.08142865,-0.04067415,0.7638520000000001,-0.005805724,0.03912498254299114,0.43589300770192824,31.369658676393954
1,0.05375671,0.2301941,0.9716492,1.0,0.03868103,0.2482605,0.9679108,-31.91052,2.583969,-29.68097,4.871719000000001,0.4963949,0.4654933,1.0,0.07254028,0.2074432,0.9755402,32.29225,3.877518,-31.36829,4.561783,0.5020249,0.440156,-0.3167572,1.0436040000000002,-0.08142865,-0.04067415,0.7638520000000001,-0.005805724,0.03912498254299114,0.43589300770192824,31.369658676393954
1,0.05375671,0.2301941,0.9716492,1.0,0.03868103,0.2482605,0.9679108,-31.91052,2.583969,-29.68097,4.871719000000001,0.4963949,0.4654933,1.0,0.07254028,0.2074432,0.9755402,32.29225,3.877518,-31.36829,4.561783,0.5020249,0.440156,-0.3167572,1.0436040000000002,-0.08142865,-0.04067415,0.7638520000000001,-0.005805724,0.03912498254299114,0.43589300770192824,31.369658676393954
1,0.05220032,0.2339325,0.9708405,1.0,0.03752136,0.2553558,0.9661102,-31.90721,2.548676,-29.68097,4.946884,0.4964850999999999,0.4656054,1.0,0.07064819,0.2067413,0.9758301,32.30655,3.841751,-31.26961,4.544341999999999,0.5018278,0.4406111,-0.3168931,1.044019,-0.08125445,-0.04168929,0.7640029,-0.004902609,0.03912498254299114,0.43589300770192824,31.369658676393954
1,0.05220032,0.2339325,0.9708405,1.0,0.03752136,0.2553558,0.9661102,-31.90721,2.548676,-29.68097,4.946884,0.4964850999999999,0.4656054,1.0,0.07064819,0.2067413,0.9758301,32.30655,3.841751,-31.26961,4.544341999999999,0.5018278,0.4406111,-0.3168931,1.044019,-0.08125445,-0.04168929,0.7640029,-0.004902609,0.03912498254299114,0.43589300770192824,31.369658676393954
1,0.05220032,0.2339325,0.9708405,1.0,0.03752136,0.2553558,0.9661102,-31.90721,2.548676,-29.68097,4.946884,0.4964850999999999,0.4656054,1.0,0.07064819,0.2067413,0.9758301,32.30655,3.841751,-31.26961,4.544341999999999,0.5018278,0.4406111,-0.3168931,1.044019,-0.08125445,-0.04168929,0.7640029,-0.004902609,0.03912498254299114,0.43589300770192824,31.369658676393954
1,0.04684448,0.2415619,0.9692383,1.0,0.0375061,0.2547455,0.9662628,-31.90347,2.542618,-29.67113,4.973679,0.4963605,0.4658590999999999,1.0,0.07286072,0.2043304,0.976181,32.31148,3.827576,-31.17592,4.5982970000000005,0.5012581,0.4407402,-0.3171844,1.044407,-0.08104861,-0.0418354,0.7639334,-0.004004204,0.03912498254299114,0.43589300770192824,31.369658676393954
1,0.04684448,0.2415619,0.9692383,1.0,0.0375061,0.2547455,0.9662628,-31.90347,2.542618,-29.67113,4.973679,0.4963605,0.4658590999999999,1.0,0.07286072,0.2043304,0.976181,32.31148,3.827576,-31.17592,4.5982970000000005,0.5012581,0.4407402,-0.3171844,1.044407,-0.08104861,-0.0418354,0.7639334,-0.004004204,0.03912498254299114,0.43589300770192824,31.369658676393954
1,0.04684448,0.2415619,0.9692383,1.0,0.0375061,0.2547455,0.9662628,-31.90347,2.542618,-29.67113,4.973679,0.4963605,0.4658590999999999,1.0,0.07286072,0.2043304,0.976181,32.31148,3.827576,-31.17592,4.5982970000000005,0.5012581,0.4407402,-0.3171844,1.044407,-0.08104861,-0.0418354,0.7639334,-0.004004204,0.03912498254299114,0.43589300770192824,31.369658676393954
1,0.0348053,0.252243,0.9670258,1.0,0.02494812,0.2637024,0.9642639,-31.82571,2.4750520000000003,-29.60477,5.001587000000001,0.4958448,0.4660951,1.0,0.07693481,0.2025146,0.9762421,32.31731,3.768707,-30.97276,4.636383,0.5002987,0.4413332,-0.3174619999999999,1.04462,-0.0809567,-0.04223616,0.7638813,-0.003162069,0.03912498254299114,0.43589300770192824,31.369658676393954
1,0.0348053,0.252243,0.9670258,1.0,0.02494812,0.2637024,0.9642639,-31.82571,2.4750520000000003,-29.60477,5.001587000000001,0.4958448,0.4660951,1.0,0.07693481,0.2025146,0.9762421,32.31731,3.768707,-30.97276,4.636383,0.5002987,0.4413332,-0.3174619999999999,1.04462,-0.0809567,-0.04223616,0.7638813,-0.003162069,0.03912498254299114,0.43589300770192824,31.369658676393954
1,0.0348053,0.252243,0.9670258,1.0,0.02494812,0.2637024,0.9642639,-31.82571,2.4750520000000003,-29.60477,5.001587000000001,0.4958448,0.4660951,1.0,0.07693481,0.2025146,0.9762421,32.31731,3.768707,-30.97276,4.636383,0.5002987,0.4413332,-0.3174619999999999,1.04462,-0.0809567,-0.04223616,0.7638813,-0.003162069,0.03912498254299114,0.43589300770192824,31.369658676393954
1,0.08770752,0.1105042,0.9899902,1.0,0.0,0.0,0.0,-31.82355,2.612564,-29.61729,-1.0,0.4943401,0.464209,1.0,0.08770752,0.1105042,0.9899902,32.37669,3.5024870000000004,-30.08211,3.972824,0.4960085999999999,0.4576095,-0.3177105999999999,1.044848,-0.08083162,-0.04245012,0.7638041999999999,-0.002563477,0.03912498254299114,0.43589300770192824,31.369658676393954
1,0.08770752,0.1105042,0.9899902,1.0,0.0,0.0,0.0,-31.82355,2.612564,-29.61729,-1.0,0.4943401,0.464209,1.0,0.08770752,0.1105042,0.9899902,32.37669,3.5024870000000004,-30.08211,3.972824,0.4960085999999999,0.4576095,-0.3177105999999999,1.044848,-0.08083162,-0.04245012,0.7638041999999999,-0.002563477,0.03912498254299114,0.43589300770192824,31.369658676393954
1,0.08770752,0.1105042,0.9899902,1.0,0.0,0.0,0.0,-31.82355,2.612564,-29.61729,-1.0,0.4943401,0.464209,1.0,0.08770752,0.1105042,0.9899902,32.37669,3.5024870000000004,-30.08211,3.972824,0.4960085999999999,0.4576095,-0.3177105999999999,1.044848,-0.08083162,-0.04245012,0.7638041999999999,-0.002563477,0.03912498254299114,0.43589300770192824,31.369658676393954
1,-1.0,-1.0,-1.0,0.792209,0.0,0.0,0.0,-32.00955,4.770203,-37.44867,-1.0,0.4893299,0.5208781,0.8717630999999999,0.0,0.0,0.0,32.58382,9.249908,-53.92906,-1.0,0.4788878,0.5278175,-0.3179088,1.045008,-0.08077332,-0.04236983,0.7633886,-0.00210726,0.03912498254299114,0.43589300770192824,31.369658676393954
1,-1.0,-1.0,-1.0,0.792209,0.0,0.0,0.0,-32.00955,4.770203,-37.44867,-1.0,0.4893299,0.5208781,0.8717630999999999,0.0,0.0,0.0,32.58382,9.249908,-53.92906,-1.0,0.4788878,0.5278175,-0.3179088,1.045008,-0.08077332,-0.04236983,0.7633886,-0.00210726,0.03912498254299114,0.43589300770192824,31.369658676393954
1,-1.0,-1.0,-1.0,0.792209,0.0,0.0,0.0,-32.00955,4.770203,-37.44867,-1.0,0.4893299,0.5208781,0.8717630999999999,0.0,0.0,0.0,32.58382,9.249908,-53.92906,-1.0,0.4788878,0.5278175,-0.3179088,1.045008,-0.08077332,-0.04236983,0.7633886,-0.00210726,0.03912498254299114,0.43589300770192824,31.369658676393954
1,-1.0,-1.0,-1.0,0.3303007,0.0,0.0,0.0,-30.9705,-0.1288452,-29.79025,-1.0,0.4365861,0.6379395999999999,0.6130085,0.0,0.0,0.0,32.58382,9.249908,-53.92906,-1.0,0.4537262999999999,0.6127843000000001,-0.3179691,1.045038,-0.08070177,-0.04248836,0.763111,-0.002193872,0.03912498254299114,0.43589300770192824,31.369658676393954
1,-1.0,-1.0,-1.0,0.3303007,0.0,0.0,0.0,-30.9705,-0.1288452,-29.79025,-1.0,0.4365861,0.6379395999999999,0.6130085,0.0,0.0,0.0,32.58382,9.249908,-53.92906,-1.0,0.4537262999999999,0.6127843000000001,-0.3179691,1.045038,-0.08070177,-0.04248836,0.763111,-0.002193872,0.03912498254299114,0.43589300770192824,31.369658676393954
1,-1.0,-1.0,-1.0,0.3303007,0.0,0.0,0.0,-30.9705,-0.1288452,-29.79025,-1.0,0.4365861,0.6379395999999999,0.6130085,0.0,0.0,0.0,32.58382,9.249908,-53.92906,-1.0,0.4537262999999999,0.6127843000000001,-0.3179691,1.045038,-0.08070177,-0.04248836,0.763111,-0.002193872,0.03912498254299114,0.43589300770192824,31.369658676393954
1,-1.0,-1.0,-1.0,0.4664454,0.0,0.0,0.0,-31.1692,0.317337,-29.65077,-1.0,0.4495935,0.606611,0.7173691,0.0,0.0,0.0,32.35114,2.129135,-31.07074,-1.0,0.4543702,0.5843449000000001,-0.3180932,1.0450780000000002,-0.08112594,-0.04315604,0.7630638000000001,-0.001841199,0.03912498254299114,0.43589300770192824,31.369658676393954
1,-1.0,-1.0,-1.0,0.4664454,0.0,0.0,0.0,-31.1692,0.317337,-29.65077,-1.0,0.4495935,0.606611,0.7173691,0.0,0.0,0.0,32.35114,2.129135,-31.07074,-1.0,0.4543702,0.5843449000000001,-0.3180932,1.0450780000000002,-0.08112594,-0.04315604,0.7630638000000001,-0.001841199,0.03912498254299114,0.43589300770192824,31.369658676393954
1,-1.0,-1.0,-1.0,0.4664454,0.0,0.0,0.0,-31.1692,0.317337,-29.65077,-1.0,0.4495935,0.606611,0.7173691,0.0,0.0,0.0,32.35114,2.129135,-31.07074,-1.0,0.4543702,0.5843449000000001,-0.3180932,1.0450780000000002,-0.08112594,-0.04315604,0.7630638000000001,-0.001841199,0.03912498254299114,0.43589300770192824,31.369658676393954
1,-1.0,-1.0,-1.0,0.7380804,0.0,0.0,0.0,-30.40375,1.514557,-29.55824,-1.0,0.4184343,0.5536781999999999,0.8633078000000002,0.0,0.0,0.0,33.29868,2.57579,-30.887220000000003,-1.0,0.4555619000000001,0.5466291,-0.3180866,1.04503,-0.08140129,-0.043483,0.7632536,-0.0015751329999999,0.03912498254299114,0.43589300770192824,31.369658676393954
1,-1.0,-1.0,-1.0,0.7380804,0.0,0.0,0.0,-30.40375,1.514557,-29.55824,-1.0,0.4184343,0.5536781999999999,0.8633078000000002,0.0,0.0,0.0,33.29868,2.57579,-30.887220000000003,-1.0,0.4555619000000001,0.5466291,-0.3180866,1.04503,-0.08140129,-0.043483,0.7632536,-0.0015751329999999,0.03912498254299114,0.43589300770192824,31.369658676393954
1,-1.0,-1.0,-1.0,0.7380804,0.0,0.0,0.0,-30.40375,1.514557,-29.55824,-1.0,0.4184343,0.5536781999999999,0.8633078000000002,0.0,0.0,0.0,33.29868,2.57579,-30.887220000000003,-1.0,0.4555619000000001,0.5466291,-0.3180866,1.04503,-0.08140129,-0.043483,0.7632536,-0.0015751329999999,0.03912498254299114,0.43589300770192824,31.369658676393954
1,0.1557922,-0.1529846,0.9758606,0.8346003000000001,0.0,0.0,0.0,-30.40675,1.490677,-29.7393,-1.0,0.4018511,0.5316224,0.8824004999999999,0.1557922,-0.1529846,0.9758606,33.35989,2.749329,-31.01169,3.460709,0.4493557999999999,0.5385652,-0.3180866,1.04503,-0.08140129,-0.043483,0.7632536,-0.0015751329999999,0.03912498254299114,0.43589300770192824,31.369658676393954
1,0.1557922,-0.1529846,0.9758606,0.8346003000000001,0.0,0.0,0.0,-30.40675,1.490677,-29.7393,-1.0,0.4018511,0.5316224,0.8824004999999999,0.1557922,-0.1529846,0.9758606,33.35989,2.749329,-31.01169,3.460709,0.4493557999999999,0.5385652,-0.3180866,1.04503,-0.08140129,-0.043483,0.7632536,-0.0015751329999999,0.03912498254299114,0.43589300770192824,31.369658676393954
1,0.1557922,-0.1529846,0.9758606,0.8346003000000001,0.0,0.0,0.0,-30.40675,1.490677,-29.7393,-1.0,0.4018511,0.5316224,0.8824004999999999,0.1557922,-0.1529846,0.9758606,33.35989,2.749329,-31.01169,3.460709,0.4493557999999999,0.5385652,-0.3180866,1.04503,-0.08140129,-0.043483,0.7632536,-0.0015751329999999,0.03912498254299114,0.43589300770192824,31.369658676393954
1,0.1796265,-0.06387329,0.9816437,0.937563,0.240036,0.0075378419999999,0.9707336,-30.41756,1.3914030000000002,-29.65295,4.833038,0.4114471999999999,0.5461573000000001,0.9001235000000001,0.1103363,-0.1428986,0.9835663,33.50543,2.620361,-30.9637,3.147568,0.4521285,0.5403485,-0.3181192,1.045043,-0.08196279,-0.04394692,0.7641239000000001,-0.0015751329999999,0.03912498254299114,0.43589300770192824,31.369658676393954
1,0.1796265,-0.06387329,0.9816437,0.937563,0.240036,0.0075378419999999,0.9707336,-30.41756,1.3914030000000002,-29.65295,4.833038,0.4114471999999999,0.5461573000000001,0.9001235000000001,0.1103363,-0.1428986,0.9835663,33.50543,2.620361,-30.9637,3.147568,0.4521285,0.5403485,-0.3181192,1.045043,-0.08196279,-0.04394692,0.7641239000000001,-0.0015751329999999,0.03912498254299114,0.43589300770192824,31.369658676393954
1,0.1796265,-0.06387329,0.9816437,0.937563,0.240036,0.0075378419999999,0.9707336,-30.41756,1.3914030000000002,-29.65295,4.833038,0.4114471999999999,0.5461573000000001,0.9001235000000001,0.1103363,-0.1428986,0.9835663,33.50543,2.620361,-30.9637,3.147568,0.4521285,0.5403485,-0.3181192,1.045043,-0.08196279,-0.04394692,0.7641239000000001,-0.0015751329999999,0.03912498254299114,0.43589300770192824,31.369658676393954
1,0.213913,-0.01350403,0.9767456,1.0,0.2623900999999999,0.04772949,0.9637756,-30.3996,1.374084,-29.70311,5.063994999999999,0.4070278,0.5408195,1.0,0.1381989,-0.1057892,0.984726,33.442370000000004,2.623917,-31.00281,3.453888,0.4495525999999999,0.534122,-0.3182125999999999,1.045082,-0.08213684,-0.04430404,0.7645056,-0.0017068029999999,0.03912498254299114,0.43589300770192824,31.369658676393954
1,0.213913,-0.01350403,0.9767456,1.0,0.2623900999999999,0.04772949,0.9637756,-30.3996,1.374084,-29.70311,5.063994999999999,0.4070278,0.5408195,1.0,0.1381989,-0.1057892,0.984726,33.442370000000004,2.623917,-31.00281,3.453888,0.4495525999999999,0.534122,-0.3182125999999999,1.045082,-0.08213684,-0.04430404,0.7645056,-0.0017068029999999,0.03912498254299114,0.43589300770192824,31.369658676393954
1,0.213913,-0.01350403,0.9767456,1.0,0.2623900999999999,0.04772949,0.9637756,-30.3996,1.374084,-29.70311,5.063994999999999,0.4070278,0.5408195,1.0,0.1381989,-0.1057892,0.984726,33.442370000000004,2.623917,-31.00281,3.453888,0.4495525999999999,0.534122,-0.3182125999999999,1.045082,-0.08213684,-0.04430404,0.7645056,-0.0017068029999999,0.03912498254299114,0.43589300770192824,31.369658676393954
1,0.1857452,-0.02186584,0.9823456,1.0,0.2150116,0.02139282,0.9763641,-30.38864,1.290314,-29.67143,4.893829,0.4147008,0.5472566,1.0,0.1356506,-0.09407043,0.9862671,33.4827,2.577011,-31.012940000000004,3.379364,0.4485513,0.5336694000000001,-0.3183532,1.045227,-0.08227208,-0.04479232,0.7647289,-0.001664817,0.03912498254299114,0.43589300770192824,31.369658676393954
1,0.1857452,-0.02186584,0.9823456,1.0,0.2150116,0.02139282,0.9763641,-30.38864,1.290314,-29.67143,4.893829,0.4147008,0.5472566,1.0,0.1356506,-0.09407043,0.9862671,33.4827,2.577011,-31.012940000000004,3.379364,0.4485513,0.5336694000000001,-0.3183532,1.045227,-0.08227208,-0.04479232,0.7647289,-0.001664817,0.03912498254299114,0.43589300770192824,31.369658676393954
1,0.1857452,-0.02186584,0.9823456,1.0,0.2150116,0.02139282,0.9763641,-30.38864,1.290314,-29.67143,4.893829,0.4147008,0.5472566,1.0,0.1356506,-0.09407043,0.9862671,33.4827,2.577011,-31.012940000000004,3.379364,0.4485513,0.5336694000000001,-0.3183532,1.045227,-0.08227208,-0.04479232,0.7647289,-0.001664817,0.03912498254299114,0.43589300770192824,31.369658676393954
1,0.1858368,-0.01789856,0.9824066,1.0,0.2093201,0.02076721,0.9776154,-30.38553,1.29071,-29.66728,4.861908000000001,0.4155526,0.5472384,1.0,0.1407318,-0.09037781,0.9859009,33.49756,2.57782,-31.00786,3.364624,0.4471335,0.5329347,-0.3184633,1.045334,-0.0823006,-0.04530265,0.764946,-0.001630907,0.03912498254299114,0.43589300770192824,31.369658676393954
1,0.1858368,-0.01789856,0.9824066,1.0,0.2093201,0.02076721,0.9776154,-30.38553,1.29071,-29.66728,4.861908000000001,0.4155526,0.5472384,1.0,0.1407318,-0.09037781,0.9859009,33.49756,2.57782,-31.00786,3.364624,0.4471335,0.5329347,-0.3184633,1.045334,-0.0823006,-0.04530265,0.764946,-0.001630907,0.03912498254299114,0.43589300770192824,31.369658676393954
1,0.1858368,-0.01789856,0.9824066,1.0,0.2093201,0.02076721,0.9776154,-30.38553,1.29071,-29.66728,4.861908000000001,0.4155526,0.5472384,1.0,0.1407318,-0.09037781,0.9859009,33.49756,2.57782,-31.00786,3.364624,0.4471335,0.5329347,-0.3184633,1.045334,-0.0823006,-0.04530265,0.764946,-0.001630907,0.03912498254299114,0.43589300770192824,31.369658676393954
2,0.1856995,-0.02627563,0.9822388,1.0,0.2008362,-0.00239563,0.9796143,-30.372190000000003,1.277924,-29.65512,4.793945,0.4165376,0.5513658,1.0,0.15242,-0.07795715,0.9852295,33.50224,2.5457,-31.00786,3.3688050000000005,0.4449026,0.5318729,-0.3185496,1.045406,-0.08236212,-0.04579321,0.7650971,-0.00153197,0.03912498254299114,0.43589300770192824,31.369658676393954
2,0.1856995,-0.02627563,0.9822388,1.0,0.2008362,-0.00239563,0.9796143,-30.372190000000003,1.277924,-29.65512,4.793945,0.4165376,0.5513658,1.0,0.15242,-0.07795715,0.9852295,33.50224,2.5457,-31.00786,3.3688050000000005,0.4449026,0.5318729,-0.3185496,1.045406,-0.08236212,-0.04579321,0.7650971,-0.00153197,0.03912498254299114,0.43589300770192824,31.369658676393954
2,0.1856995,-0.02627563,0.9822388,1.0,0.2008362,-0.00239563,0.9796143,-30.372190000000003,1.277924,-29.65512,4.793945,0.4165376,0.5513658,1.0,0.15242,-0.07795715,0.9852295,33.50224,2.5457,-31.00786,3.3688050000000005,0.4449026,0.5318729,-0.3185496,1.045406,-0.08236212,-0.04579321,0.7650971,-0.00153197,0.03912498254299114,0.43589300770192824,31.369658676393954
2,0.192749,-0.01757813,0.9810791,1.0,0.2026977999999999,0.008758545,0.979187,-30.3618,1.253448,-29.66286,4.843613,0.4158667,0.5504325,1.0,0.1710662999999999,-0.07357788,0.9824982,33.51405,2.541428,-31.0211,3.401138,0.4412005,0.5314908,-0.3185979,1.045349,-0.08241361,-0.04631535,0.7652936,-0.001359317,0.03912498254299114,0.43589300770192824,31.369658676393954
2,0.192749,-0.01757813,0.9810791,1.0,0.2026977999999999,0.008758545,0.979187,-30.3618,1.253448,-29.66286,4.843613,0.4158667,0.5504325,1.0,0.1710662999999999,-0.07357788,0.9824982,33.51405,2.541428,-31.0211,3.401138,0.4412005,0.5314908,-0.3185979,1.045349,-0.08241361,-0.04631535,0.7652936,-0.001359317,0.03912498254299114,0.43589300770192824,31.369658676393954
2,0.192749,-0.01757813,0.9810791,1.0,0.2026977999999999,0.008758545,0.979187,-30.3618,1.253448,-29.66286,4.843613,0.4158667,0.5504325,1.0,0.1710662999999999,-0.07357788,0.9824982,33.51405,2.541428,-31.0211,3.401138,0.4412005,0.5314908,-0.3185979,1.045349,-0.08241361,-0.04631535,0.7652936,-0.001359317,0.03912498254299114,0.43589300770192824,31.369658676393954
2,0.2034148999999999,-0.02090454,0.9788666,1.0,0.2026062,0.003753662,0.979248,-30.36942,1.247665,-29.655140000000003,4.819946,0.4161382999999999,0.5513829,1.0,0.2046204,-0.06730652,0.9765167,33.55713,2.532227,-31.02905,3.5746,0.4338278,0.5310931999999999,-0.3187072,1.045488,-0.08239609,-0.0466731,0.7653005999999999,-0.0009094034,0.03912498254299114,0.43589300770192824,31.369658676393954
2,0.2034148999999999,-0.02090454,0.9788666,1.0,0.2026062,0.003753662,0.979248,-30.36942,1.247665,-29.655140000000003,4.819946,0.4161382999999999,0.5513829,1.0,0.2046204,-0.06730652,0.9765167,33.55713,2.532227,-31.02905,3.5746,0.4338278,0.5310931999999999,-0.3187072,1.045488,-0.08239609,-0.0466731,0.7653005999999999,-0.0009094034,0.03912498254299114,0.43589300770192824,31.369658676393954
2,0.2034148999999999,-0.02090454,0.9788666,1.0,0.2026062,0.003753662,0.979248,-30.36942,1.247665,-29.655140000000003,4.819946,0.4161382999999999,0.5513829,1.0,0.2046204,-0.06730652,0.9765167,33.55713,2.532227,-31.02905,3.5746,0.4338278,0.5310931999999999,-0.3187072,1.045488,-0.08239609,-0.0466731,0.7653005999999999,-0.0009094034,0.03912498254299114,0.43589300770192824,31.369658676393954
2,0.1984406,-0.01455688,0.9799957,1.0,0.2038574,0.01132202,0.9789276,-30.33641,1.233139,-29.721770000000003,4.900238,0.4147874,0.5513041999999999,1.0,0.1868134,-0.0680542,0.9800261999999998,33.5481,2.530228,-31.0632,3.564484,0.4372776,0.5314908,-0.3187512,1.0455450000000002,-0.0822826,-0.04691321,0.7649763,-0.0002283727,0.03912498254299114,0.43589300770192824,31.369658676393954
2,0.1984406,-0.01455688,0.9799957,1.0,0.2038574,0.01132202,0.9789276,-30.33641,1.233139,-29.721770000000003,4.900238,0.4147874,0.5513041999999999,1.0,0.1868134,-0.0680542,0.9800261999999998,33.5481,2.530228,-31.0632,3.564484,0.4372776,0.5314908,-0.3187512,1.0455450000000002,-0.0822826,-0.04691321,0.7649763,-0.0002283727,0.03912498254299114,0.43589300770192824,31.369658676393954
2,0.1984406,-0.01455688,0.9799957,1.0,0.2038574,0.01132202,0.9789276,-30.33641,1.233139,-29.721770000000003,4.900238,0.4147874,0.5513041999999999,1.0,0.1868134,-0.0680542,0.9800261999999998,33.5481,2.530228,-31.0632,3.564484,0.4372776,0.5314908,-0.3187512,1.0455450000000002,-0.0822826,-0.04691321,0.7649763,-0.0002283727,0.03912498254299114,0.43589300770192824,31.369658676393954
2,0.1911621,-0.00881958,0.9815063,1.0,0.1963654,0.01837158,0.9803467,-30.33652,1.234512,-29.74057,4.922546,0.4160571,0.5502135,1.0,0.1808929,-0.0602416999999999,0.9816437,33.53172,2.527939,-31.0632,3.521652,0.4388799,0.5301036,-0.319069,1.045829,-0.08203587,-0.04740503,0.7648399,0.0007170008,0.03912498254299114,0.43589300770192824,31.369658676393954
2,0.1911621,-0.00881958,0.9815063,1.0,0.1963654,0.01837158,0.9803467,-30.33652,1.234512,-29.74057,4.922546,0.4160571,0.5502135,1.0,0.1808929,-0.0602416999999999,0.9816437,33.53172,2.527939,-31.0632,3.521652,0.4388799,0.5301036,-0.319069,1.045829,-0.08203587,-0.04740503,0.7648399,0.0007170008,0.03912498254299114,0.43589300770192824,31.369658676393954
2,0.1911621,-0.00881958,0.9815063,1.0,0.1963654,0.01837158,0.9803467,-30.33652,1.234512,-29.74057,4.922546,0.4160571,0.5502135,1.0,0.1808929,-0.0602416999999999,0.9816437,33.53172,2.527939,-31.0632,3.521652,0.4388799,0.5301036,-0.319069,1.045829,-0.08203587,-0.04740503,0.7648399,0.0007170008,0.03912498254299114,0.43589300770192824,31.369658676393954
2,0.1396942,0.1841125,0.9729156,1.0,0.1396942,0.1841125,0.9729156,-30.68488,2.126755,-29.60799,4.786911,0.4375523,0.4906404,1.0,0.2303314,0.03590393,0.9724426,32.726040000000005,2.125732,-26.44374,3.915176,0.459217,0.4849319,-0.3194099999999999,1.046089,-0.08195999,-0.04743449,0.7648384,0.001605584,0.03912498254299114,0.43589300770192824,31.369658676393954
2,0.1396942,0.1841125,0.9729156,1.0,0.1396942,0.1841125,0.9729156,-30.68488,2.126755,-29.60799,4.786911,0.4375523,0.4906404,1.0,0.2303314,0.03590393,0.9724426,32.726040000000005,2.125732,-26.44374,3.915176,0.459217,0.4849319,-0.3194099999999999,1.046089,-0.08195999,-0.04743449,0.7648384,0.001605584,0.03912498254299114,0.43589300770192824,31.369658676393954
2,0.1396942,0.1841125,0.9729156,1.0,0.1396942,0.1841125,0.9729156,-30.68488,2.126755,-29.60799,4.786911,0.4375523,0.4906404,1.0,0.2303314,0.03590393,0.9724426,32.726040000000005,2.125732,-26.44374,3.915176,0.459217,0.4849319,-0.3194099999999999,1.046089,-0.08195999,-0.04743449,0.7648384,0.001605584,0.03912498254299114,0.43589300770192824,31.369658676393954
2,0.1349182,0.2055359,0.9692993,1.0,0.1349182,0.2055359,0.9692993,-30.92714,2.112747,-29.45885,5.101334,0.4466872999999999,0.4866978,1.0,0.2015686,0.0610199,0.9775696,32.6951,1.772934,-25.66051,3.958771,0.4651747999999999,0.4853703,-0.3199261,1.046468,-0.08189362,-0.04805999,0.7647467,0.0029813659999999,0.03912498254299114,0.43589300770192824,31.369658676393954
2,0.1349182,0.2055359,0.9692993,1.0,0.1349182,0.2055359,0.9692993,-30.92714,2.112747,-29.45885,5.101334,0.4466872999999999,0.4866978,1.0,0.2015686,0.0610199,0.9775696,32.6951,1.772934,-25.66051,3.958771,0.4651747999999999,0.4853703,-0.3199261,1.046468,-0.08189362,-0.04805999,0.7647467,0.0029813659999999,0.03912498254299114,0.43589300770192824,31.369658676393954
2,0.1349182,0.2055359,0.9692993,1.0,0.1349182,0.2055359,0.9692993,-30.92714,2.112747,-29.45885,5.101334,0.4466872999999999,0.4866978,1.0,0.2015686,0.0610199,0.9775696,32.6951,1.772934,-25.66051,3.958771,0.4651747999999999,0.4853703,-0.3199261,1.046468,-0.08189362,-0.04805999,0.7647467,0.0029813659999999,0.03912498254299114,0.43589300770192824,31.369658676393954
2,0.141449,0.1882324,0.9718781,1.0,0.141449,0.1882324,0.9718781,-30.94946,1.994202,-29.23067,5.039352,0.4463818,0.4914197,1.0,0.1815032999999999,0.05236816,0.9819794,32.91702,2.5569,-28.3988,3.855835,0.4608704,0.4848181,-0.320217,1.046482,-0.08188245,-0.04809113,0.764724,0.003485957,0.03912498254299114,0.43589300770192824,31.369658676393954
2,0.141449,0.1882324,0.9718781,1.0,0.141449,0.1882324,0.9718781,-30.94946,1.994202,-29.23067,5.039352,0.4463818,0.4914197,1.0,0.1815032999999999,0.05236816,0.9819794,32.91702,2.5569,-28.3988,3.855835,0.4608704,0.4848181,-0.320217,1.046482,-0.08188245,-0.04809113,0.764724,0.003485957,0.03912498254299114,0.43589300770192824,31.369658676393954
2,0.141449,0.1882324,0.9718781,1.0,0.141449,0.1882324,0.9718781,-30.94946,1.994202,-29.23067,5.039352,0.4463818,0.4914197,1.0,0.1815032999999999,0.05236816,0.9819794,32.91702,2.5569,-28.3988,3.855835,0.4608704,0.4848181,-0.320217,1.046482,-0.08188245,-0.04809113,0.764724,0.003485957,0.03912498254299114,0.43589300770192824,31.369658676393954
2,0.1801453,0.07658386,0.9806366,1.0,0.1360626,0.2041931,0.9694214,-30.98503,1.850143,-28.95285,4.973175,0.4484887999999999,0.4910081,1.0,0.1838073999999999,0.06546021,0.9807739,32.91422,2.536728,-28.35893,3.902557,0.4605774,0.4829528,-0.3205002,1.0466030000000002,-0.0819129,-0.04826225,0.7646368,0.003489162,0.03912498254299114,0.43589300770192824,31.369658676393954
2,0.1801453,0.07658386,0.9806366,1.0,0.1360626,0.2041931,0.9694214,-30.98503,1.850143,-28.95285,4.973175,0.4484887999999999,0.4910081,1.0,0.1838073999999999,0.06546021,0.9807739,32.91422,2.536728,-28.35893,3.902557,0.4605774,0.4829528,-0.3205002,1.0466030000000002,-0.0819129,-0.04826225,0.7646368,0.003489162,0.03912498254299114,0.43589300770192824,31.369658676393954
2,0.1801453,0.07658386,0.9806366,1.0,0.1360626,0.2041931,0.9694214,-30.98503,1.850143,-28.95285,4.973175,0.4484887999999999,0.4910081,1.0,0.1838073999999999,0.06546021,0.9807739,32.91422,2.536728,-28.35893,3.902557,0.4605774,0.4829528,-0.3205002,1.0466030000000002,-0.0819129,-0.04826225,0.7646368,0.003489162,0.03912498254299114,0.43589300770192824,31.369658676393954
2,0.1839447,0.07711792,0.9798889,1.0,0.1309052,0.2019348,0.9705963,-31.00655,1.7919310000000002,-28.80875,4.878555,0.4500872,0.4919156,1.0,0.1861877,0.07167053,0.9798889,32.90367,2.516968,-28.2627,3.997482,0.4605774,0.4817971,-0.320727,1.046665,-0.08216432,-0.04801291,0.7645416,0.003966816,0.03912498254299114,0.43589300770192824,31.369658676393954
2,0.1839447,0.07711792,0.9798889,1.0,0.1309052,0.2019348,0.9705963,-31.00655,1.7919310000000002,-28.80875,4.878555,0.4500872,0.4919156,1.0,0.1861877,0.07167053,0.9798889,32.90367,2.516968,-28.2627,3.997482,0.4605774,0.4817971,-0.320727,1.046665,-0.08216432,-0.04801291,0.7645416,0.003966816,0.03912498254299114,0.43589300770192824,31.369658676393954
2,0.1839447,0.07711792,0.9798889,1.0,0.1309052,0.2019348,0.9705963,-31.00655,1.7919310000000002,-28.80875,4.878555,0.4500872,0.4919156,1.0,0.1861877,0.07167053,0.9798889,32.90367,2.516968,-28.2627,3.997482,0.4605774,0.4817971,-0.320727,1.046665,-0.08216432,-0.04801291,0.7645416,0.003966816,0.03912498254299114,0.43589300770192824,31.369658676393954
2,0.1426544,0.1819916,0.9728851,1.0,0.1325377999999999,0.2017517,0.9704132,-31.01773,1.7806240000000002,-28.81332,4.8700410000000005,0.4501832999999999,0.4923710999999999,1.0,0.1895142,0.08744812,0.9779663,32.88734,2.4251400000000003,-28.04233,4.047882,0.4605774,0.4803035,-0.3212041,1.04676,-0.08258644,-0.04811065,0.7650585,0.0037969559999999,0.03912498254299114,0.43589300770192824,31.369658676393954
2,0.1426544,0.1819916,0.9728851,1.0,0.1325377999999999,0.2017517,0.9704132,-31.01773,1.7806240000000002,-28.81332,4.8700410000000005,0.4501832999999999,0.4923710999999999,1.0,0.1895142,0.08744812,0.9779663,32.88734,2.4251400000000003,-28.04233,4.047882,0.4605774,0.4803035,-0.3212041,1.04676,-0.08258644,-0.04811065,0.7650585,0.0037969559999999,0.03912498254299114,0.43589300770192824,31.369658676393954
2,0.1426544,0.1819916,0.9728851,1.0,0.1325377999999999,0.2017517,0.9704132,-31.01773,1.7806240000000002,-28.81332,4.8700410000000005,0.4501832999999999,0.4923710999999999,1.0,0.1895142,0.08744812,0.9779663,32.88734,2.4251400000000003,-28.04233,4.047882,0.4605774,0.4803035,-0.3212041,1.04676,-0.08258644,-0.04811065,0.7650585,0.0037969559999999,0.03912498254299114,0.43589300770192824,31.369658676393954
2,0.1479339999999999,0.1767578,0.9730682,1.0,0.1327819999999999,0.2033997,0.970047,-31.026020000000003,1.767181,-28.83234,4.843948,0.4504051999999999,0.4926854,1.0,0.192627,0.09562683,0.976593,32.88713,2.4251400000000003,-28.04233,4.038986,0.4600324,0.4789227,-0.3213696,1.046708,-0.08284691,-0.04834609,0.7654499,0.003753538,0.03912498254299114,0.43589300770192824,31.369658676393954
2,0.1479339999999999,0.1767578,0.9730682,1.0,0.1327819999999999,0.2033997,0.970047,-31.026020000000003,1.767181,-28.83234,4.843948,0.4504051999999999,0.4926854,1.0,0.192627,0.09562683,0.976593,32.88713,2.4251400000000003,-28.04233,4.038986,0.4600324,0.4789227,-0.3213696,1.046708,-0.08284691,-0.04834609,0.7654499,0.003753538,0.03912498254299114,0.43589300770192824,31.369658676393954
2,0.1479339999999999,0.1767578,0.9730682,1.0,0.1327819999999999,0.2033997,0.970047,-31.026020000000003,1.767181,-28.83234,4.843948,0.4504051999999999,0.4926854,1.0,0.192627,0.09562683,0.976593,32.88713,2.4251400000000003,-28.04233,4.038986,0.4600324,0.4789227,-0.3213696,1.046708,-0.08284691,-0.04834609,0.7654499,0.003753538,0.03912498254299114,0.43589300770192824,31.369658676393954
2,0.1555634,0.160141,0.9747467,1.0,0.1333312999999999,0.2010345,0.970459,-31.03435,1.763596,-28.83406,4.796875,0.450583,0.4931536,1.0,0.1907196,0.09347534,0.9771729,32.88708,2.451431,-28.10196,4.035721,0.4603622,0.4789227,-0.3215507999999999,1.046821,-0.08310682,-0.04863434,0.7657843000000001,0.003636589,0.03912498254299114,0.43589300770192824,31.369658676393954
2,0.1555634,0.160141,0.9747467,1.0,0.1333312999999999,0.2010345,0.970459,-31.03435,1.763596,-28.83406,4.796875,0.450583,0.4931536,1.0,0.1907196,0.09347534,0.9771729,32.88708,2.451431,-28.10196,4.035721,0.4603622,0.4789227,-0.3215507999999999,1.046821,-0.08310682,-0.04863434,0.7657843000000001,0.003636589,0.03912498254299114,0.43589300770192824,31.369658676393954
2,0.1555634,0.160141,0.9747467,1.0,0.1333312999999999,0.2010345,0.970459,-31.03435,1.763596,-28.83406,4.796875,0.450583,0.4931536,1.0,0.1907196,0.09347534,0.9771729,32.88708,2.451431,-28.10196,4.035721,0.4603622,0.4789227,-0.3215507999999999,1.046821,-0.08310682,-0.04863434,0.7657843000000001,0.003636589,0.03912498254299114,0.43589300770192824,31.369658676393954
2,0.1578522,0.1547088999999999,0.9752502,1.0,0.1367645,0.1870727999999999,0.9727631,-31.03844,1.733948,-28.73982,4.610733,0.4501189999999999,0.4953873,1.0,0.1889191,0.1059265,0.9762573,32.88255,2.4434970000000003,-28.06593,4.040801999999999,0.4608185,0.4767443,-0.3216873,1.0468540000000002,-0.08327463,-0.04887404,0.7660519,0.003676323,0.03912498254299114,0.43589300770192824,31.369658676393954
2,0.1578522,0.1547088999999999,0.9752502,1.0,0.1367645,0.1870727999999999,0.9727631,-31.03844,1.733948,-28.73982,4.610733,0.4501189999999999,0.4953873,1.0,0.1889191,0.1059265,0.9762573,32.88255,2.4434970000000003,-28.06593,4.040801999999999,0.4608185,0.4767443,-0.3216873,1.0468540000000002,-0.08327463,-0.04887404,0.7660519,0.003676323,0.03912498254299114,0.43589300770192824,31.369658676393954
2,0.1578522,0.1547088999999999,0.9752502,1.0,0.1367645,0.1870727999999999,0.9727631,-31.03844,1.733948,-28.73982,4.610733,0.4501189999999999,0.4953873,1.0,0.1889191,0.1059265,0.9762573,32.88255,2.4434970000000003,-28.06593,4.040801999999999,0.4608185,0.4767443,-0.3216873,1.0468540000000002,-0.08327463,-0.04887404,0.7660519,0.003676323,0.03912498254299114,0.43589300770192824,31.369658676393954
2,0.1413878999999999,0.1907348999999999,0.9713898,1.0,0.1290588,0.2077637,0.9696198,-31.02576,1.745621,-28.75662,4.5976870000000005,0.4509628,0.4916813,1.0,0.2075042999999999,0.09637451,0.973465,32.8098,2.529068,-28.38643,3.817123000000001,0.4599529,0.478271,-0.3216873,1.0468540000000002,-0.08327463,-0.04887404,0.7660519,0.003676323,0.03912498254299114,0.43589300770192824,31.369658676393954
2,0.1413878999999999,0.1907348999999999,0.9713898,1.0,0.1290588,0.2077637,0.9696198,-31.02576,1.745621,-28.75662,4.5976870000000005,0.4509628,0.4916813,1.0,0.2075042999999999,0.09637451,0.973465,32.8098,2.529068,-28.38643,3.817123000000001,0.4599529,0.478271,-0.3216873,1.0468540000000002,-0.08327463,-0.04887404,0.7660519,0.003676323,0.03912498254299114,0.43589300770192824,31.369658676393954
2,0.1413878999999999,0.1907348999999999,0.9713898,1.0,0.1290588,0.2077637,0.9696198,-31.02576,1.745621,-28.75662,4.5976870000000005,0.4509628,0.4916813,1.0,0.2075042999999999,0.09637451,0.973465,32.8098,2.529068,-28.38643,3.817123000000001,0.4599529,0.478271,-0.3216873,1.0468540000000002,-0.08327463,-0.04887404,0.7660519,0.003676323,0.03912498254299114,0.43589300770192824,31.369658676393954
2,0.1000671,0.1903687,0.976593,1.0,0.09991455,0.1907959,0.9765167,-30.94814,1.836182,-28.95421,4.361115,0.4532409,0.4928318,1.0,0.145874,0.05519104,0.9877472,33.008959999999995,2.922333,-29.447370000000003,3.345764,0.4636339,0.4807258,-0.3217968,1.046961,-0.08345363,-0.04911666,0.7662207,0.00361192,0.03912498254299114,0.43589300770192824,31.369658676393954
2,0.1000671,0.1903687,0.976593,1.0,0.09991455,0.1907959,0.9765167,-30.94814,1.836182,-28.95421,4.361115,0.4532409,0.4928318,1.0,0.145874,0.05519104,0.9877472,33.008959999999995,2.922333,-29.447370000000003,3.345764,0.4636339,0.4807258,-0.3217968,1.046961,-0.08345363,-0.04911666,0.7662207,0.00361192,0.03912498254299114,0.43589300770192824,31.369658676393954
2,0.1000671,0.1903687,0.976593,1.0,0.09991455,0.1907959,0.9765167,-30.94814,1.836182,-28.95421,4.361115,0.4532409,0.4928318,1.0,0.145874,0.05519104,0.9877472,33.008959999999995,2.922333,-29.447370000000003,3.345764,0.4636339,0.4807258,-0.3217968,1.046961,-0.08345363,-0.04911666,0.7662207,0.00361192,0.03912498254299114,0.43589300770192824,31.369658676393954
2,0.1927185,0.01374817,0.9811401,1.0,0.0,0.0,0.0,-30.9868,1.957077,-28.94797,-1.0,0.4515456,0.4946474,1.0,0.1927185,0.01374817,0.9811401,32.83003,2.6148990000000003,-27.86993,3.260468,0.4617414000000001,0.484361,-0.3219107,1.047123,-0.08363777,-0.04954251,0.7661643,0.00385634,0.03912498254299114,0.43589300770192824,31.369658676393954
2,0.1927185,0.01374817,0.9811401,1.0,0.0,0.0,0.0,-30.9868,1.957077,-28.94797,-1.0,0.4515456,0.4946474,1.0,0.1927185,0.01374817,0.9811401,32.83003,2.6148990000000003,-27.86993,3.260468,0.4617414000000001,0.484361,-0.3219107,1.047123,-0.08363777,-0.04954251,0.7661643,0.00385634,0.03912498254299114,0.43589300770192824,31.369658676393954
2,0.1927185,0.01374817,0.9811401,1.0,0.0,0.0,0.0,-30.9868,1.957077,-28.94797,-1.0,0.4515456,0.4946474,1.0,0.1927185,0.01374817,0.9811401,32.83003,2.6148990000000003,-27.86993,3.260468,0.4617414000000001,0.484361,-0.3219107,1.047123,-0.08363777,-0.04954251,0.7661643,0.00385634,0.03912498254299114,0.43589300770192824,31.369658676393954
2,-1.0,-1.0,-1.0,0.9915711,0.0,0.0,0.0,-31.01587,2.312103,-29.81583,-1.0,0.457201,0.5235758,0.9270196,0.0,0.0,0.0,32.89377,2.587296,-28.08224,-1.0,0.4597983,0.5258989000000001,-0.3219792999999999,1.047186,-0.08380532,-0.04958753,0.7660792,0.0041656209999999,0.03912498254299114,0.43589300770192824,31.369658676393954
2,-1.0,-1.0,-1.0,0.9915711,0.0,0.0,0.0,-31.01587,2.312103,-29.81583,-1.0,0.457201,0.5235758,0.9270196,0.0,0.0,0.0,32.89377,2.587296,-28.08224,-1.0,0.4597983,0.5258989000000001,-0.3219792999999999,1.047186,-0.08380532,-0.04958753,0.7660792,0.0041656209999999,0.03912498254299114,0.43589300770192824,31.369658676393954
2,-1.0,-1.0,-1.0,0.9915711,0.0,0.0,0.0,-31.01587,2.312103,-29.81583,-1.0,0.457201,0.5235758,0.9270196,0.0,0.0,0.0,32.89377,2.587296,-28.08224,-1.0,0.4597983,0.5258989000000001,-0.3219792999999999,1.047186,-0.08380532,-0.04958753,0.7660792,0.0041656209999999,0.03912498254299114,0.43589300770192824,31.369658676393954
2,-1.0,-1.0,-1.0,0.4875777,0.0,0.0,0.0,-31.49353,4.6628110000000005,-39.79272,-1.0,0.4793673,0.5717299,0.8407639000000001,0.0,0.0,0.0,34.480909999999994,1.977005,-29.06091,-1.0,0.356359,0.5292279000000001,-0.3221908,1.04722,-0.08400893,-0.0495592,0.7663153,0.004035712,0.03912498254299114,0.43589300770192824,31.369658676393954
2,-1.0,-1.0,-1.0,0.4875777,0.0,0.0,0.0,-31.49353,4.6628110000000005,-39.79272,-1.0,0.4793673,0.5717299,0.8407639000000001,0.0,0.0,0.0,34.480909999999994,1.977005,-29.06091,-1.0,0.356359,0.5292279000000001,-0.3221908,1.04722,-0.08400893,-0.0495592,0.7663153,0.004035712,0.03912498254299114,0.43589300770192824,31.369658676393954
2,-1.0,-1.0,-1.0,0.4875777,0.0,0.0,0.0,-31.49353,4.6628110000000005,-39.79272,-1.0,0.4793673,0.5717299,0.8407639000000001,0.0,0.0,0.0,34.480909999999994,1.977005,-29.06091,-1.0,0.356359,0.5292279000000001,-0.3221908,1.04722,-0.08400893,-0.0495592,0.7663153,0.004035712,0.03912498254299114,0.43589300770192824,31.369658676393954
2,-1.0,-1.0,-1.0,0.6364074000000001,0.0,0.0,0.0,-31.09866,2.141266,-28.92381,-1.0,0.4513161,0.4941180999999999,0.9148107,0.0,0.0,0.0,32.93338,2.456421,-26.90431,-1.0,0.4695857,0.4890839,-0.3223147999999999,1.047079,-0.08420467,-0.049206,0.7667722,0.00385634,0.03912498254299114,0.43589300770192824,31.369658676393954
2,-1.0,-1.0,-1.0,0.6364074000000001,0.0,0.0,0.0,-31.09866,2.141266,-28.92381,-1.0,0.4513161,0.4941180999999999,0.9148107,0.0,0.0,0.0,32.93338,2.456421,-26.90431,-1.0,0.4695857,0.4890839,-0.3223147999999999,1.047079,-0.08420467,-0.049206,0.7667722,0.00385634,0.03912498254299114,0.43589300770192824,31.369658676393954
2,-1.0,-1.0,-1.0,0.6364074000000001,0.0,0.0,0.0,-31.09866,2.141266,-28.92381,-1.0,0.4513161,0.4941180999999999,0.9148107,0.0,0.0,0.0,32.93338,2.456421,-26.90431,-1.0,0.4695857,0.4890839,-0.3223147999999999,1.047079,-0.08420467,-0.049206,0.7667722,0.00385634,0.03912498254299114,0.43589300770192824,31.369658676393954
2,-1.0,-1.0,-1.0,0.6965281,0.0,0.0,0.0,-31.09866,2.141266,-28.92381,-1.0,0.4513161,0.4941180999999999,0.9465226,0.0,0.0,0.0,32.93338,2.456421,-26.90431,-1.0,0.4695857,0.4890839,-0.3223147999999999,1.047079,-0.08420467,-0.049206,0.7667722,0.00385634,0.03912498254299114,0.43589300770192824,31.369658676393954
2,-1.0,-1.0,-1.0,0.6965281,0.0,0.0,0.0,-31.09866,2.141266,-28.92381,-1.0,0.4513161,0.4941180999999999,0.9465226,0.0,0.0,0.0,32.93338,2.456421,-26.90431,-1.0,0.4695857,0.4890839,-0.3223147999999999,1.047079,-0.08420467,-0.049206,0.7667722,0.00385634,0.03912498254299114,0.43589300770192824,31.369658676393954
2,-1.0,-1.0,-1.0,0.6965281,0.0,0.0,0.0,-31.09866,2.141266,-28.92381,-1.0,0.4513161,0.4941180999999999,0.9465226,0.0,0.0,0.0,32.93338,2.456421,-26.90431,-1.0,0.4695857,0.4890839,-0.3223147999999999,1.047079,-0.08420467,-0.049206,0.7667722,0.00385634,0.03912498254299114,0.43589300770192824,31.369658676393954
2,-1.0,-1.0,-1.0,0.8008347,0.0,0.0,0.0,-31.22523,1.851089,-27.30449,-1.0,0.4606592,0.4926840999999999,0.9485248,0.0,0.0,0.0,32.95062,3.5929260000000003,-33.87381,-1.0,0.4661391,0.4883702,-0.3223115,1.047077,-0.08421922,-0.04934495,0.7672749,0.003433194,0.03912498254299114,0.43589300770192824,31.369658676393954
2,-1.0,-1.0,-1.0,0.8008347,0.0,0.0,0.0,-31.22523,1.851089,-27.30449,-1.0,0.4606592,0.4926840999999999,0.9485248,0.0,0.0,0.0,32.95062,3.5929260000000003,-33.87381,-1.0,0.4661391,0.4883702,-0.3223115,1.047077,-0.08421922,-0.04934495,0.7672749,0.003433194,0.03912498254299114,0.43589300770192824,31.369658676393954
2,-1.0,-1.0,-1.0,0.8008347,0.0,0.0,0.0,-31.22523,1.851089,-27.30449,-1.0,0.4606592,0.4926840999999999,0.9485248,0.0,0.0,0.0,32.95062,3.5929260000000003,-33.87381,-1.0,0.4661391,0.4883702,-0.3223115,1.047077,-0.08421922,-0.04934495,0.7672749,0.003433194,0.03912498254299114,0.43589300770192824,31.369658676393954
2,-1.0,-1.0,-1.0,0.8008347,0.0,0.0,0.0,-31.22523,1.851089,-27.30449,-1.0,0.4606592,0.4926840999999999,0.9485248,0.0,0.0,0.0,32.95062,3.5929260000000003,-33.87381,-1.0,0.4661391,0.4883702,-0.3223261,1.047146,-0.08413002,-0.04936744,0.7674350999999999,0.00346989,0.03912498254299114,0.43589300770192824,31.369658676393954
2,-1.0,-1.0,-1.0,0.8008347,0.0,0.0,0.0,-31.22523,1.851089,-27.30449,-1.0,0.4606592,0.4926840999999999,0.9485248,0.0,0.0,0.0,32.95062,3.5929260000000003,-33.87381,-1.0,0.4661391,0.4883702,-0.3223261,1.047146,-0.08413002,-0.04936744,0.7674350999999999,0.00346989,0.03912498254299114,0.43589300770192824,31.369658676393954
2,-1.0,-1.0,-1.0,0.8008347,0.0,0.0,0.0,-31.22523,1.851089,-27.30449,-1.0,0.4606592,0.4926840999999999,0.9485248,0.0,0.0,0.0,32.95062,3.5929260000000003,-33.87381,-1.0,0.4661391,0.4883702,-0.3223261,1.047146,-0.08413002,-0.04936744,0.7674350999999999,0.00346989,0.03912498254299114,0.43589300770192824,31.369658676393954
2,-1.0,-1.0,-1.0,0.8008347,0.0,0.0,0.0,-31.22523,1.851089,-27.30449,-1.0,0.4606592,0.4926840999999999,0.9485248,0.0,0.0,0.0,32.95062,3.5929260000000003,-33.87381,-1.0,0.4661391,0.4883702,-0.3223632999999999,1.047129,-0.08399498,-0.04908972,0.7672564000000001,0.003688463,0.03912498254299114,0.43589300770192824,31.369658676393954
2,-1.0,-1.0,-1.0,0.8008347,0.0,0.0,0.0,-31.22523,1.851089,-27.30449,-1.0,0.4606592,0.4926840999999999,0.9485248,0.0,0.0,0.0,32.95062,3.5929260000000003,-33.87381,-1.0,0.4661391,0.4883702,-0.3223632999999999,1.047129,-0.08399498,-0.04908972,0.7672564000000001,0.003688463,0.03912498254299114,0.43589300770192824,31.369658676393954
2,-1.0,-1.0,-1.0,0.8008347,0.0,0.0,0.0,-31.22523,1.851089,-27.30449,-1.0,0.4606592,0.4926840999999999,0.9485248,0.0,0.0,0.0,32.95062,3.5929260000000003,-33.87381,-1.0,0.4661391,0.4883702,-0.3223632999999999,1.047129,-0.08399498,-0.04908972,0.7672564000000001,0.003688463,0.03912498254299114,0.43589300770192824,31.369658676393954
2,0.1028289999999999,0.1638947,0.9810944,1.0,0.09104919,0.2012787,0.9752808,-31.22656,1.810226,-28.9301,3.997314,0.4640598,0.4913515,1.0,0.1170807,0.1175537,0.9861298,32.924240000000005,3.2235720000000003,-31.04002,3.441147,0.471591,0.4741345,-0.3222214,1.047097,-0.08380386,-0.04943433,0.767456,0.003496627,0.03912498254299114,0.43589300770192824,31.369658676393954
2,0.1028289999999999,0.1638947,0.9810944,1.0,0.09104919,0.2012787,0.9752808,-31.22656,1.810226,-28.9301,3.997314,0.4640598,0.4913515,1.0,0.1170807,0.1175537,0.9861298,32.924240000000005,3.2235720000000003,-31.04002,3.441147,0.471591,0.4741345,-0.3222214,1.047097,-0.08380386,-0.04943433,0.767456,0.003496627,0.03912498254299114,0.43589300770192824,31.369658676393954
2,0.1028289999999999,0.1638947,0.9810944,1.0,0.09104919,0.2012787,0.9752808,-31.22656,1.810226,-28.9301,3.997314,0.4640598,0.4913515,1.0,0.1170807,0.1175537,0.9861298,32.924240000000005,3.2235720000000003,-31.04002,3.441147,0.471591,0.4741345,-0.3222214,1.047097,-0.08380386,-0.04943433,0.767456,0.003496627,0.03912498254299114,0.43589300770192824,31.369658676393954
2,0.1127014,0.1199188,0.9863586,1.0,0.1055298,0.2081146,0.9723815999999998,-31.34183,1.402374,-27.77177,3.982468,0.4654871,0.4934265999999999,1.0,0.1127014,0.1199188,0.9863586,32.89992,3.223145,-31.20425,3.394882,0.4731933,0.4751776,-0.3222948,1.047048,-0.08366013,-0.04867155,0.7675068,0.00373164,0.03912498254299114,0.43589300770192824,31.369658676393954
2,0.1127014,0.1199188,0.9863586,1.0,0.1055298,0.2081146,0.9723815999999998,-31.34183,1.402374,-27.77177,3.982468,0.4654871,0.4934265999999999,1.0,0.1127014,0.1199188,0.9863586,32.89992,3.223145,-31.20425,3.394882,0.4731933,0.4751776,-0.3222948,1.047048,-0.08366013,-0.04867155,0.7675068,0.00373164,0.03912498254299114,0.43589300770192824,31.369658676393954
2,0.1127014,0.1199188,0.9863586,1.0,0.1055298,0.2081146,0.9723815999999998,-31.34183,1.402374,-27.77177,3.982468,0.4654871,0.4934265999999999,1.0,0.1127014,0.1199188,0.9863586,32.89992,3.223145,-31.20425,3.394882,0.4731933,0.4751776,-0.3222948,1.047048,-0.08366013,-0.04867155,0.7675068,0.00373164,0.03912498254299114,0.43589300770192824,31.369658676393954
2,0.1001281999999999,0.2104492,0.9724579,1.0,0.1001281999999999,0.2104492,0.9724579,-31.36227,1.281372,-27.45381,4.037262,0.4671015,0.4942537999999999,1.0,0.1483458999999999,0.1260986,0.9808502,32.7245,2.567352,-28.59908,3.525497,0.4730050999999999,0.473222,-0.3222575,1.047128,-0.08352691,-0.04842854,0.7675481,0.003456983,0.03912498254299114,0.43589300770192824,31.369658676393954
2,0.1001281999999999,0.2104492,0.9724579,1.0,0.1001281999999999,0.2104492,0.9724579,-31.36227,1.281372,-27.45381,4.037262,0.4671015,0.4942537999999999,1.0,0.1483458999999999,0.1260986,0.9808502,32.7245,2.567352,-28.59908,3.525497,0.4730050999999999,0.473222,-0.3222575,1.047128,-0.08352691,-0.04842854,0.7675481,0.003456983,0.03912498254299114,0.43589300770192824,31.369658676393954
2,0.1001281999999999,0.2104492,0.9724579,1.0,0.1001281999999999,0.2104492,0.9724579,-31.36227,1.281372,-27.45381,4.037262,0.4671015,0.4942537999999999,1.0,0.1483458999999999,0.1260986,0.9808502,32.7245,2.567352,-28.59908,3.525497,0.4730050999999999,0.473222,-0.3222575,1.047128,-0.08352691,-0.04842854,0.7675481,0.003456983,0.03912498254299114,0.43589300770192824,31.369658676393954
2,0.09927368,0.2123717999999999,0.9721222,1.0,0.09927368,0.2123717999999999,0.9721222,-31.36571,1.308945,-27.54242,4.056595,0.4673617999999999,0.4938393,1.0,0.1483307,0.1263123,0.980835,32.7245,2.5521700000000003,-28.55508,3.526199,0.4730050999999999,0.4732964,-0.3223103,1.047158,-0.08336973,-0.04825639,0.7675466,0.003581885,0.03912498254299114,0.43589300770192824,31.369658676393954
2,0.09927368,0.2123717999999999,0.9721222,1.0,0.09927368,0.2123717999999999,0.9721222,-31.36571,1.308945,-27.54242,4.056595,0.4673617999999999,0.4938393,1.0,0.1483307,0.1263123,0.980835,32.7245,2.5521700000000003,-28.55508,3.526199,0.4730050999999999,0.4732964,-0.3223103,1.047158,-0.08336973,-0.04825639,0.7675466,0.003581885,0.03912498254299114,0.43589300770192824,31.369658676393954
3,0.09927368,0.2123717999999999,0.9721222,1.0,0.09927368,0.2123717999999999,0.9721222,-31.36571,1.308945,-27.54242,4.056595,0.4673617999999999,0.4938393,1.0,0.1483307,0.1263123,0.980835,32.7245,2.5521700000000003,-28.55508,3.526199,0.4730050999999999,0.4732964,-0.3223103,1.047158,-0.08336973,-0.04825639,0.7675466,0.003581885,0.03912498254299114,0.43589300770192824,31.369658676393954
3,0.1221923999999999,0.1649628,0.9786987,1.0,0.09536743,0.2081757,0.9734192,-31.36571,1.329315,-27.59814,4.069808999999999,0.4680316,0.4943701,1.0,0.1483612,0.1218719,0.9813843,32.72446,2.533539,-28.46437,3.527161,0.4730050999999999,0.4738646999999999,-0.3223092999999999,1.047214,-0.08316132,-0.04811638,0.767405,0.003530556,0.03912498254299114,0.43589300770192824,31.369658676393954
3,0.1221923999999999,0.1649628,0.9786987,1.0,0.09536743,0.2081757,0.9734192,-31.36571,1.329315,-27.59814,4.069808999999999,0.4680316,0.4943701,1.0,0.1483612,0.1218719,0.9813843,32.72446,2.533539,-28.46437,3.527161,0.4730050999999999,0.4738646999999999,-0.3223092999999999,1.047214,-0.08316132,-0.04811638,0.767405,0.003530556,0.03912498254299114,0.43589300770192824,31.369658676393954
3,0.1221923999999999,0.1649628,0.9786987,1.0,0.09536743,0.2081757,0.9734192,-31.36571,1.329315,-27.59814,4.069808999999999,0.4680316,0.4943701,1.0,0.1483612,0.1218719,0.9813843,32.72446,2.533539,-28.46437,3.527161,0.4730050999999999,0.4738646999999999,-0.3223092999999999,1.047214,-0.08316132,-0.04811638,0.767405,0.003530556,0.03912498254299114,0.43589300770192824,31.369658676393954
3,0.1221923999999999,0.1649628,0.9786987,1.0,0.09536743,0.2081757,0.9734192,-31.36571,1.329315,-27.59814,4.069808999999999,0.4680316,0.4943701,1.0,0.1483612,0.1218719,0.9813843,32.72446,2.533539,-28.46437,3.527161,0.4730050999999999,0.4738646999999999,-0.3224034,1.047127,-0.08294931,-0.04757462,0.7671406999999999,0.003515752,0.03912498254299114,0.43589300770192824,31.369658676393954
3,0.1221923999999999,0.1649628,0.9786987,1.0,0.09536743,0.2081757,0.9734192,-31.36571,1.329315,-27.59814,4.069808999999999,0.4680316,0.4943701,1.0,0.1483612,0.1218719,0.9813843,32.72446,2.533539,-28.46437,3.527161,0.4730050999999999,0.4738646999999999,-0.3224034,1.047127,-0.08294931,-0.04757462,0.7671406999999999,0.003515752,0.03912498254299114,0.43589300770192824,31.369658676393954
3,0.1221923999999999,0.1649628,0.9786987,1.0,0.09536743,0.2081757,0.9734192,-31.36571,1.329315,-27.59814,4.069808999999999,0.4680316,0.4943701,1.0,0.1483612,0.1218719,0.9813843,32.72446,2.533539,-28.46437,3.527161,0.4730050999999999,0.4738646999999999,-0.3224034,1.047127,-0.08294931,-0.04757462,0.7671406999999999,0.003515752,0.03912498254299114,0.43589300770192824,31.369658676393954
3,0.1221923999999999,0.1649628,0.9786987,1.0,0.09536743,0.2081757,0.9734192,-31.36571,1.329315,-27.59814,4.069808999999999,0.4680316,0.4943701,1.0,0.1483612,0.1218719,0.9813843,32.72446,2.533539,-28.46437,3.527161,0.4730050999999999,0.4738646999999999,-0.32254,1.046966,-0.08268508,-0.04691941,0.7667691,0.003798918,0.03912498254299114,0.43589300770192824,31.369658676393954
3,0.1221923999999999,0.1649628,0.9786987,1.0,0.09536743,0.2081757,0.9734192,-31.36571,1.329315,-27.59814,4.069808999999999,0.4680316,0.4943701,1.0,0.1483612,0.1218719,0.9813843,32.72446,2.533539,-28.46437,3.527161,0.4730050999999999,0.4738646999999999,-0.32254,1.046966,-0.08268508,-0.04691941,0.7667691,0.003798918,0.03912498254299114,0.43589300770192824,31.369658676393954
3,0.1221923999999999,0.1649628,0.9786987,1.0,0.09536743,0.2081757,0.9734192,-31.36571,1.329315,-27.59814,4.069808999999999,0.4680316,0.4943701,1.0,0.1483612,0.1218719,0.9813843,32.72446,2.533539,-28.46437,3.527161,0.4730050999999999,0.4738646999999999,-0.32254,1.046966,-0.08268508,-0.04691941,0.7667691,0.003798918,0.03912498254299114,0.43589300770192824,31.369658676393954
3,0.1493987999999999,0.1172791,0.981781,1.0,0.06814575,0.2077942,0.9757843,-31.43028,1.556641,-28.30672,4.149337999999999,0.4748372999999999,0.4933104999999999,1.0,0.1497192,0.1169128,0.981781,32.67087,2.516068,-28.32996,3.631607,0.4746515999999999,0.4742332999999999,-0.3227544,1.046846,-0.08243418,-0.04673165,0.7664661,0.003891919,0.03912498254299114,0.43589300770192824,31.369658676393954
3,0.1493987999999999,0.1172791,0.981781,1.0,0.06814575,0.2077942,0.9757843,-31.43028,1.556641,-28.30672,4.149337999999999,0.4748372999999999,0.4933104999999999,1.0,0.1497192,0.1169128,0.981781,32.67087,2.516068,-28.32996,3.631607,0.4746515999999999,0.4742332999999999,-0.3227544,1.046846,-0.08243418,-0.04673165,0.7664661,0.003891919,0.03912498254299114,0.43589300770192824,31.369658676393954
3,0.1493987999999999,0.1172791,0.981781,1.0,0.06814575,0.2077942,0.9757843,-31.43028,1.556641,-28.30672,4.149337999999999,0.4748372999999999,0.4933104999999999,1.0,0.1497192,0.1169128,0.981781,32.67087,2.516068,-28.32996,3.631607,0.4746515999999999,0.4742332999999999,-0.3227544,1.046846,-0.08243418,-0.04673165,0.7664661,0.003891919,0.03912498254299114,0.43589300770192824,31.369658676393954
3,0.1138,0.1191864,0.9863129,1.0,0.06388855,0.206665,0.9763184,-31.43521,1.54689,-28.26994,4.247986,0.475739,0.4936214,1.0,0.1197205,0.1085968,0.9868469,32.60132,2.503311,-28.10416,3.840302,0.4823055999999999,0.4741607,-0.3230107,1.046897,-0.0824863,-0.04664907,0.7663340999999999,0.00406331,0.03912498254299114,0.43589300770192824,31.369658676393954
3,0.1138,0.1191864,0.9863129,1.0,0.06388855,0.206665,0.9763184,-31.43521,1.54689,-28.26994,4.247986,0.475739,0.4936214,1.0,0.1197205,0.1085968,0.9868469,32.60132,2.503311,-28.10416,3.840302,0.4823055999999999,0.4741607,-0.3230107,1.046897,-0.0824863,-0.04664907,0.7663340999999999,0.00406331,0.03912498254299114,0.43589300770192824,31.369658676393954
3,0.1138,0.1191864,0.9863129,1.0,0.06388855,0.206665,0.9763184,-31.43521,1.54689,-28.26994,4.247986,0.475739,0.4936214,1.0,0.1197205,0.1085968,0.9868469,32.60132,2.503311,-28.10416,3.840302,0.4823055999999999,0.4741607,-0.3230107,1.046897,-0.0824863,-0.04664907,0.7663340999999999,0.00406331,0.03912498254299114,0.43589300770192824,31.369658676393954
3,0.1186676,0.1041869999999999,0.987442,1.0,0.05950928,0.1899567,0.9799805,-31.53276,1.497635,-28.1216,4.26561,0.4797484999999999,0.4968452999999999,1.0,0.1186676,0.1041869999999999,0.987442,32.58432,2.511398,-28.0451,3.892365,0.4830859999999999,0.4741607,-0.3231626999999999,1.046913,-0.08241794,-0.04689526,0.7665703,0.004147697,0.03912498254299114,0.43589300770192824,31.369658676393954
3,0.1186676,0.1041869999999999,0.987442,1.0,0.05950928,0.1899567,0.9799805,-31.53276,1.497635,-28.1216,4.26561,0.4797484999999999,0.4968452999999999,1.0,0.1186676,0.1041869999999999,0.987442,32.58432,2.511398,-28.0451,3.892365,0.4830859999999999,0.4741607,-0.3231626999999999,1.046913,-0.08241794,-0.04689526,0.7665703,0.004147697,0.03912498254299114,0.43589300770192824,31.369658676393954
3,0.1186676,0.1041869999999999,0.987442,1.0,0.05950928,0.1899567,0.9799805,-31.53276,1.497635,-28.1216,4.26561,0.4797484999999999,0.4968452999999999,1.0,0.1186676,0.1041869999999999,0.987442,32.58432,2.511398,-28.0451,3.892365,0.4830859999999999,0.4741607,-0.3231626999999999,1.046913,-0.08241794,-0.04689526,0.7665703,0.004147697,0.03912498254299114,0.43589300770192824,31.369658676393954
3,0.109024,0.1053771999999999,0.9884338,1.0,0.05212402,0.1785278,0.9825439,-31.56242,1.454468,-27.91232,4.261124,0.4819806,0.4981417999999999,1.0,0.109024,0.1053771999999999,0.9884338,32.533190000000005,2.547562,-28.22496,3.919022,0.4865161,0.4743515,-0.3232513,1.047071,-0.08253741,-0.04711566,0.7671347,0.0043123829999999,0.03912498254299114,0.43589300770192824,31.369658676393954
3,0.109024,0.1053771999999999,0.9884338,1.0,0.05212402,0.1785278,0.9825439,-31.56242,1.454468,-27.91232,4.261124,0.4819806,0.4981417999999999,1.0,0.109024,0.1053771999999999,0.9884338,32.533190000000005,2.547562,-28.22496,3.919022,0.4865161,0.4743515,-0.3232513,1.047071,-0.08253741,-0.04711566,0.7671347,0.0043123829999999,0.03912498254299114,0.43589300770192824,31.369658676393954
3,0.109024,0.1053771999999999,0.9884338,1.0,0.05212402,0.1785278,0.9825439,-31.56242,1.454468,-27.91232,4.261124,0.4819806,0.4981417999999999,1.0,0.109024,0.1053771999999999,0.9884338,32.533190000000005,2.547562,-28.22496,3.919022,0.4865161,0.4743515,-0.3232513,1.047071,-0.08253741,-0.04711566,0.7671347,0.0043123829999999,0.03912498254299114,0.43589300770192824,31.369658676393954
3,0.09753418,0.1182708999999999,0.9881744,1.0,0.05148315,0.1787567,0.9825287,-31.5583,1.5004879999999998,-28.08125,4.302185,0.4819695,0.4981417999999999,1.0,0.09754944,0.1182404,0.9881744,32.52878,2.726166,-29.18964,3.901993,0.4887440999999999,0.4747549,-0.3233559,1.047204,-0.08261332,-0.04701601,0.7674181,0.004599152,0.03912498254299114,0.43589300770192824,31.369658676393954
3,0.09753418,0.1182708999999999,0.9881744,1.0,0.05148315,0.1787567,0.9825287,-31.5583,1.5004879999999998,-28.08125,4.302185,0.4819695,0.4981417999999999,1.0,0.09754944,0.1182404,0.9881744,32.52878,2.726166,-29.18964,3.901993,0.4887440999999999,0.4747549,-0.3233559,1.047204,-0.08261332,-0.04701601,0.7674181,0.004599152,0.03912498254299114,0.43589300770192824,31.369658676393954
3,0.09753418,0.1182708999999999,0.9881744,1.0,0.05148315,0.1787567,0.9825287,-31.5583,1.5004879999999998,-28.08125,4.302185,0.4819695,0.4981417999999999,1.0,0.09754944,0.1182404,0.9881744,32.52878,2.726166,-29.18964,3.901993,0.4887440999999999,0.4747549,-0.3233559,1.047204,-0.08261332,-0.04701601,0.7674181,0.004599152,0.03912498254299114,0.43589300770192824,31.369658676393954
3,0.09605408,0.1144714,0.9887695,1.0,0.05180359,0.1824188,0.981842,-31.56036,1.485947,-28.07597,4.302185,0.4819825,0.4979814,1.0,0.0974883999999999,0.1122436999999999,0.9888763,32.52113,2.881897,-29.68013,3.895737,0.4890909,0.4749017,-0.3235022999999999,1.047287,-0.08257243,-0.04701712,0.7672254,0.005185475,0.03912498254299114,0.43589300770192824,31.369658676393954
3,0.09605408,0.1144714,0.9887695,1.0,0.05180359,0.1824188,0.981842,-31.56036,1.485947,-28.07597,4.302185,0.4819825,0.4979814,1.0,0.0974883999999999,0.1122436999999999,0.9888763,32.52113,2.881897,-29.68013,3.895737,0.4890909,0.4749017,-0.3235022999999999,1.047287,-0.08257243,-0.04701712,0.7672254,0.005185475,0.03912498254299114,0.43589300770192824,31.369658676393954
3,0.09605408,0.1144714,0.9887695,1.0,0.05180359,0.1824188,0.981842,-31.56036,1.485947,-28.07597,4.302185,0.4819825,0.4979814,1.0,0.0974883999999999,0.1122436999999999,0.9888763,32.52113,2.881897,-29.68013,3.895737,0.4890909,0.4749017,-0.3235022999999999,1.047287,-0.08257243,-0.04701712,0.7672254,0.005185475,0.03912498254299114,0.43589300770192824,31.369658676393954
3,0.05310059,0.1808014,0.9820709,1.0,0.05305481,0.1808777,0.9820709,-31.57033,1.462662,-27.9816,4.311249,0.4820981,0.498171,1.0,0.0958252,0.1030731,0.990036,32.51118,2.924026,-29.77089,3.903305000000001,0.4897451,0.4758670999999999,-0.323586,1.047473,-0.08251899,-0.04777131,0.7668279,0.005427669,0.03912498254299114,0.43589300770192824,31.369658676393954
3,0.05310059,0.1808014,0.9820709,1.0,0.05305481,0.1808777,0.9820709,-31.57033,1.462662,-27.9816,4.311249,0.4820981,0.498171,1.0,0.0958252,0.1030731,0.990036,32.51118,2.924026,-29.77089,3.903305000000001,0.4897451,0.4758670999999999,-0.323586,1.047473,-0.08251899,-0.04777131,0.7668279,0.005427669,0.03912498254299114,0.43589300770192824,31.369658676393954
3,0.05310059,0.1808014,0.9820709,1.0,0.05305481,0.1808777,0.9820709,-31.57033,1.462662,-27.9816,4.311249,0.4820981,0.498171,1.0,0.0958252,0.1030731,0.990036,32.51118,2.924026,-29.77089,3.903305000000001,0.4897451,0.4758670999999999,-0.323586,1.047473,-0.08251899,-0.04777131,0.7668279,0.005427669,0.03912498254299114,0.43589300770192824,31.369658676393954
3,0.0640564,0.1543121,0.9859314,1.0,0.04751587,0.1829376,0.9819641,-31.64993,1.3745120000000002,-27.791,4.376129,0.4856785,0.4991359999999999,1.0,0.09382629,0.1020508,0.9903412,32.504940000000005,2.966949,-29.96944,3.90535,0.4903364,0.4763797999999999,-0.3237002,1.047469,-0.0824916999999999,-0.04817983,0.7663361,0.005852378,0.03912498254299114,0.43589300770192824,31.369658676393954
3,0.0640564,0.1543121,0.9859314,1.0,0.04751587,0.1829376,0.9819641,-31.64993,1.3745120000000002,-27.791,4.376129,0.4856785,0.4991359999999999,1.0,0.09382629,0.1020508,0.9903412,32.504940000000005,2.966949,-29.96944,3.90535,0.4903364,0.4763797999999999,-0.3237002,1.047469,-0.0824916999999999,-0.04817983,0.7663361,0.005852378,0.03912498254299114,0.43589300770192824,31.369658676393954
3,0.0640564,0.1543121,0.9859314,1.0,0.04751587,0.1829376,0.9819641,-31.64993,1.3745120000000002,-27.791,4.376129,0.4856785,0.4991359999999999,1.0,0.09382629,0.1020508,0.9903412,32.504940000000005,2.966949,-29.96944,3.90535,0.4903364,0.4763797999999999,-0.3237002,1.047469,-0.0824916999999999,-0.04817983,0.7663361,0.005852378,0.03912498254299114,0.43589300770192824,31.369658676393954
3,0.07408142,0.1973267,0.9775238000000002,1.0,0.07408142,0.1973267,0.9775238000000002,-31.494740000000004,0.9534302,-26.73528,4.522614,0.475977,0.5014675000000001,1.0,0.08068848,0.08937073,0.9927216,32.72905,3.3937230000000005,-32.0849,3.853607,0.485041,0.4832188,-0.3236680999999999,1.047617,-0.08280224,-0.04884971,0.7664551,0.005985803,0.03912498254299114,0.43589300770192824,31.369658676393954
3,0.07408142,0.1973267,0.9775238000000002,1.0,0.07408142,0.1973267,0.9775238000000002,-31.494740000000004,0.9534302,-26.73528,4.522614,0.475977,0.5014675000000001,1.0,0.08068848,0.08937073,0.9927216,32.72905,3.3937230000000005,-32.0849,3.853607,0.485041,0.4832188,-0.3236680999999999,1.047617,-0.08280224,-0.04884971,0.7664551,0.005985803,0.03912498254299114,0.43589300770192824,31.369658676393954
3,0.07408142,0.1973267,0.9775238000000002,1.0,0.07408142,0.1973267,0.9775238000000002,-31.494740000000004,0.9534302,-26.73528,4.522614,0.475977,0.5014675000000001,1.0,0.08068848,0.08937073,0.9927216,32.72905,3.3937230000000005,-32.0849,3.853607,0.485041,0.4832188,-0.3236680999999999,1.047617,-0.08280224,-0.04884971,0.7664551,0.005985803,0.03912498254299114,0.43589300770192824,31.369658676393954
3,0.07081604,0.1786652,0.9813538,1.0,0.07081604,0.1786652,0.9813538,-31.406340000000004,1.166245,-27.54242,4.381668,0.4735895,0.5044872,1.0,0.1194305,0.1158295,0.9860535,32.59215,2.513962,-29.339,3.950256,0.4827257,0.4838692,-0.3236241,1.047774,-0.0830611,-0.04955378,0.7669865,0.006244705,0.03912498254299114,0.43589300770192824,31.369658676393954
3,0.07081604,0.1786652,0.9813538,1.0,0.07081604,0.1786652,0.9813538,-31.406340000000004,1.166245,-27.54242,4.381668,0.4735895,0.5044872,1.0,0.1194305,0.1158295,0.9860535,32.59215,2.513962,-29.339,3.950256,0.4827257,0.4838692,-0.3236241,1.047774,-0.0830611,-0.04955378,0.7669865,0.006244705,0.03912498254299114,0.43589300770192824,31.369658676393954
3,0.07081604,0.1786652,0.9813538,1.0,0.07081604,0.1786652,0.9813538,-31.406340000000004,1.166245,-27.54242,4.381668,0.4735895,0.5044872,1.0,0.1194305,0.1158295,0.9860535,32.59215,2.513962,-29.339,3.950256,0.4827257,0.4838692,-0.3236241,1.047774,-0.0830611,-0.04955378,0.7669865,0.006244705,0.03912498254299114,0.43589300770192824,31.369658676393954
3,0.07826233,0.1762237999999999,0.9812317,1.0,0.07826233,0.1762237999999999,0.9812317,-31.50386,0.7672424,-26.38475,4.334518,0.475531,0.5076248999999999,1.0,0.1132202,0.1115112,0.9872894,32.61354,2.619583,-29.84322,3.984436,0.4831187,0.4856298,-0.3236849,1.04788,-0.0836837,-0.04999834,0.7680958999999999,0.006235153,0.03912498254299114,0.43589300770192824,31.369658676393954
3,0.07826233,0.1762237999999999,0.9812317,1.0,0.07826233,0.1762237999999999,0.9812317,-31.50386,0.7672424,-26.38475,4.334518,0.475531,0.5076248999999999,1.0,0.1132202,0.1115112,0.9872894,32.61354,2.619583,-29.84322,3.984436,0.4831187,0.4856298,-0.3236849,1.04788,-0.0836837,-0.04999834,0.7680958999999999,0.006235153,0.03912498254299114,0.43589300770192824,31.369658676393954
3,0.07826233,0.1762237999999999,0.9812317,1.0,0.07826233,0.1762237999999999,0.9812317,-31.50386,0.7672424,-26.38475,4.334518,0.475531,0.5076248999999999,1.0,0.1132202,0.1115112,0.9872894,32.61354,2.619583,-29.84322,3.984436,0.4831187,0.4856298,-0.3236849,1.04788,-0.0836837,-0.04999834,0.7680958999999999,0.006235153,0.03912498254299114,0.43589300770192824,31.369658676393954
3,0.1097107,0.1098175,0.9878693,1.0,0.07752991,0.1779937999999999,0.980957,-31.51268,0.7160339,-26.24112,4.346069,0.4759393,0.5077212000000001,1.0,0.1097107,0.1098175,0.9878693,32.62082,2.646347,-30.005,3.9814,0.4834893,0.4864752,-0.3237442,1.0480120000000002,-0.0838338999999999,-0.05008573,0.7682459,0.006546429,0.03912498254299114,0.43589300770192824,31.369658676393954
3,0.1097107,0.1098175,0.9878693,1.0,0.07752991,0.1779937999999999,0.980957,-31.51268,0.7160339,-26.24112,4.346069,0.4759393,0.5077212000000001,1.0,0.1097107,0.1098175,0.9878693,32.62082,2.646347,-30.005,3.9814,0.4834893,0.4864752,-0.3237442,1.0480120000000002,-0.0838338999999999,-0.05008573,0.7682459,0.006546429,0.03912498254299114,0.43589300770192824,31.369658676393954
3,0.1097107,0.1098175,0.9878693,1.0,0.07752991,0.1779937999999999,0.980957,-31.51268,0.7160339,-26.24112,4.346069,0.4759393,0.5077212000000001,1.0,0.1097107,0.1098175,0.9878693,32.62082,2.646347,-30.005,3.9814,0.4834893,0.4864752,-0.3237442,1.0480120000000002,-0.0838338999999999,-0.05008573,0.7682459,0.006546429,0.03912498254299114,0.43589300770192824,31.369658676393954
3,0.08032227,0.1674194,0.982605,1.0,0.0763855,0.1781616,0.9810181,-31.51338,0.7244568,-26.276490000000003,4.365524,0.4761587,0.5077515,1.0,0.1056366,0.0970458999999999,0.9896545,32.63033,2.73056,-30.18652,4.022995,0.4839141999999999,0.4874835,-0.3237864,1.048045,-0.0839929,-0.05068293,0.7682899000000001,0.006809183,0.03912498254299114,0.43589300770192824,31.369658676393954
3,0.08032227,0.1674194,0.982605,1.0,0.0763855,0.1781616,0.9810181,-31.51338,0.7244568,-26.276490000000003,4.365524,0.4761587,0.5077515,1.0,0.1056366,0.0970458999999999,0.9896545,32.63033,2.73056,-30.18652,4.022995,0.4839141999999999,0.4874835,-0.3237864,1.048045,-0.0839929,-0.05068293,0.7682899000000001,0.006809183,0.03912498254299114,0.43589300770192824,31.369658676393954
3,0.08032227,0.1674194,0.982605,1.0,0.0763855,0.1781616,0.9810181,-31.51338,0.7244568,-26.276490000000003,4.365524,0.4761587,0.5077515,1.0,0.1056366,0.0970458999999999,0.9896545,32.63033,2.73056,-30.18652,4.022995,0.4839141999999999,0.4874835,-0.3237864,1.048045,-0.0839929,-0.05068293,0.7682899000000001,0.006809183,0.03912498254299114,0.43589300770192824,31.369658676393954
3,0.07373047,0.1764984,0.9815216,1.0,0.07373047,0.1764984,0.9815216,-31.51672,0.7332153,-26.28333,4.396927,0.4767177999999999,0.5078351,1.0,0.08563232,0.07807922,0.9932556,32.723009999999995,3.247025,-31.86539,3.958008,0.4843536,0.4883619,-0.3238894,1.048114,-0.08415145,-0.05123603,0.7684611,0.0066754719999999,0.03912498254299114,0.43589300770192824,31.369658676393954
3,0.07373047,0.1764984,0.9815216,1.0,0.07373047,0.1764984,0.9815216,-31.51672,0.7332153,-26.28333,4.396927,0.4767177999999999,0.5078351,1.0,0.08563232,0.07807922,0.9932556,32.723009999999995,3.247025,-31.86539,3.958008,0.4843536,0.4883619,-0.3238894,1.048114,-0.08415145,-0.05123603,0.7684611,0.0066754719999999,0.03912498254299114,0.43589300770192824,31.369658676393954
3,0.07373047,0.1764984,0.9815216,1.0,0.07373047,0.1764984,0.9815216,-31.51672,0.7332153,-26.28333,4.396927,0.4767177999999999,0.5078351,1.0,0.08563232,0.07807922,0.9932556,32.723009999999995,3.247025,-31.86539,3.958008,0.4843536,0.4883619,-0.3238894,1.048114,-0.08415145,-0.05123603,0.7684611,0.0066754719999999,0.03912498254299114,0.43589300770192824,31.369658676393954
3,0.07226563,0.1784667999999999,0.9812775,1.0,0.07226563,0.1784667999999999,0.9812775,-31.51875,0.7275848,-26.31833,4.406569999999999,0.477029,0.5080268,1.0,0.08256531,0.07637024,0.9936523000000002,32.723009999999995,3.247025,-31.86539,3.982651,0.484902,0.4886819,-0.3239288,1.048151,-0.08426324,-0.05157294,0.7688264,0.006681608,0.03912498254299114,0.43589300770192824,31.369658676393954
3,0.07226563,0.1784667999999999,0.9812775,1.0,0.07226563,0.1784667999999999,0.9812775,-31.51875,0.7275848,-26.31833,4.406569999999999,0.477029,0.5080268,1.0,0.08256531,0.07637024,0.9936523000000002,32.723009999999995,3.247025,-31.86539,3.982651,0.484902,0.4886819,-0.3239288,1.048151,-0.08426324,-0.05157294,0.7688264,0.006681608,0.03912498254299114,0.43589300770192824,31.369658676393954
3,0.07226563,0.1784667999999999,0.9812775,1.0,0.07226563,0.1784667999999999,0.9812775,-31.51875,0.7275848,-26.31833,4.406569999999999,0.477029,0.5080268,1.0,0.08256531,0.07637024,0.9936523000000002,32.723009999999995,3.247025,-31.86539,3.982651,0.484902,0.4886819,-0.3239288,1.048151,-0.08426324,-0.05157294,0.7688264,0.006681608,0.03912498254299114,0.43589300770192824,31.369658676393954
3,0.0728302,0.1780852999999999,0.981308,1.0,0.0728302,0.1780852999999999,0.981308,-31.53383,0.7275848,-26.31833,4.412247,0.4774354,0.5080984000000001,1.0,0.08262634,0.07852173,0.9934692,32.72017,3.224915,-31.83049,4.000504,0.4849890999999999,0.4887751,-0.3241534,1.048089,-0.08443943,-0.05204291,0.7690524000000001,0.0065578009999999,0.03912498254299114,45.62955,31.369658676393954
3,0.0728302,0.1780852999999999,0.981308,1.0,0.0728302,0.1780852999999999,0.981308,-31.53383,0.7275848,-26.31833,4.412247,0.4774354,0.5080984000000001,1.0,0.08262634,0.07852173,0.9934692,32.72017,3.224915,-31.83049,4.000504,0.4849890999999999,0.4887751,-0.3241534,1.048089,-0.08443943,-0.05204291,0.7690524000000001,0.0065578009999999,0.03912498254299114,45.62955,31.369658676393954
3,0.0728302,0.1780852999999999,0.981308,1.0,0.0728302,0.1780852999999999,0.981308,-31.53383,0.7275848,-26.31833,4.412247,0.4774354,0.5080984000000001,1.0,0.08262634,0.07852173,0.9934692,32.72017,3.224915,-31.83049,4.000504,0.4849890999999999,0.4887751,-0.3241534,1.048089,-0.08443943,-0.05204291,0.7690524000000001,0.0065578009999999,0.03912498254299114,45.62955,31.369658676393954
3,0.0728302,0.1780852999999999,0.981308,1.0,0.0728302,0.1780852999999999,0.981308,-31.53383,0.7275848,-26.31833,4.412247,0.4774354,0.5080984000000001,1.0,0.08262634,0.07852173,0.9934692,32.72017,3.224915,-31.83049,4.000504,0.4849890999999999,0.4887751,-0.3241189,1.048017,-0.08445877,-0.05254734,0.7691991,0.006454161,0.03912498254299114,-41.1825,31.369658676393954
3,0.0728302,0.1780852999999999,0.981308,1.0,0.0728302,0.1780852999999999,0.981308,-31.53383,0.7275848,-26.31833,4.412247,0.4774354,0.5080984000000001,1.0,0.08262634,0.07852173,0.9934692,32.72017,3.224915,-31.83049,4.000504,0.4849890999999999,0.4887751,-0.3241189,1.048017,-0.08445877,-0.05254734,0.7691991,0.006454161,0.03912498254299114,-41.1825,31.369658676393954
3,0.0728302,0.1780852999999999,0.981308,1.0,0.0728302,0.1780852999999999,0.981308,-31.53383,0.7275848,-26.31833,4.412247,0.4774354,0.5080984000000001,1.0,0.08262634,0.07852173,0.9934692,32.72017,3.224915,-31.83049,4.000504,0.4849890999999999,0.4887751,-0.3241189,1.048017,-0.08445877,-0.05254734,0.7691991,0.006454161,0.03912498254299114,-41.1825,31.369658676393954
3,0.07707214,0.1320037999999999,0.9882355,1.0,0.07264709,0.1777191,0.9813843,-31.54561,0.7275848,-26.31833,4.426346,0.4778594,0.5081815,1.0,0.0821991,0.07620239,0.9936829,32.71393,3.2197880000000003,-31.809490000000004,4.029968,0.4852873,0.4891900999999999,-0.32419,1.04804,-0.08442619,-0.05276785,0.7693253000000001,0.006520201,0.03912498254299114,-41.1825,31.369658676393954
3,0.07707214,0.1320037999999999,0.9882355,1.0,0.07264709,0.1777191,0.9813843,-31.54561,0.7275848,-26.31833,4.426346,0.4778594,0.5081815,1.0,0.0821991,0.07620239,0.9936829,32.71393,3.2197880000000003,-31.809490000000004,4.029968,0.4852873,0.4891900999999999,-0.32419,1.04804,-0.08442619,-0.05276785,0.7693253000000001,0.006520201,0.03912498254299114,-41.1825,31.369658676393954
3,0.07707214,0.1320037999999999,0.9882355,1.0,0.07264709,0.1777191,0.9813843,-31.54561,0.7275848,-26.31833,4.426346,0.4778594,0.5081815,1.0,0.0821991,0.07620239,0.9936829,32.71393,3.2197880000000003,-31.809490000000004,4.029968,0.4852873,0.4891900999999999,-0.32419,1.04804,-0.08442619,-0.05276785,0.7693253000000001,0.006520201,0.03912498254299114,-41.1825,31.369658676393954
3,0.07707214,0.1320037999999999,0.9882355,1.0,0.07264709,0.1777191,0.9813843,-31.54561,0.7275848,-26.31833,4.426346,0.4778594,0.5081815,1.0,0.0821991,0.07620239,0.9936829,32.71393,3.2197880000000003,-31.809490000000004,4.029968,0.4852873,0.4891900999999999,-0.3242185999999999,1.048134,-0.08458981,-0.05296199,0.7696583,0.006651992,0.03912498254299114,-41.1825,31.369658676393954
3,0.07707214,0.1320037999999999,0.9882355,1.0,0.07264709,0.1777191,0.9813843,-31.54561,0.7275848,-26.31833,4.426346,0.4778594,0.5081815,1.0,0.0821991,0.07620239,0.9936829,32.71393,3.2197880000000003,-31.809490000000004,4.029968,0.4852873,0.4891900999999999,-0.3242185999999999,1.048134,-0.08458981,-0.05296199,0.7696583,0.006651992,0.03912498254299114,-41.1825,31.369658676393954
3,0.07707214,0.1320037999999999,0.9882355,1.0,0.07264709,0.1777191,0.9813843,-31.54561,0.7275848,-26.31833,4.426346,0.4778594,0.5081815,1.0,0.0821991,0.07620239,0.9936829,32.71393,3.2197880000000003,-31.809490000000004,4.029968,0.4852873,0.4891900999999999,-0.3242185999999999,1.048134,-0.08458981,-0.05296199,0.7696583,0.006651992,0.03912498254299114,-41.1825,31.369658676393954
3,0.07769775,0.1305847,0.9883728,1.0,0.07366943,0.1769104,0.9814606,-31.55362,0.7275848,-26.31833,4.432419,0.4779542999999999,0.5083161,1.0,0.08226013,0.07511902,0.9937744,32.71266,3.218536,-31.80048,4.033859,0.4853214,0.4893382,-0.3242185999999999,1.048134,-0.08458981,-0.05296199,0.7696583,0.006651992,0.03912498254299114,0.1707153,31.369658676393954
3,0.07769775,0.1305847,0.9883728,1.0,0.07366943,0.1769104,0.9814606,-31.55362,0.7275848,-26.31833,4.432419,0.4779542999999999,0.5083161,1.0,0.08226013,0.07511902,0.9937744,32.71266,3.218536,-31.80048,4.033859,0.4853214,0.4893382,-0.3242185999999999,1.048134,-0.08458981,-0.05296199,0.7696583,0.006651992,0.03912498254299114,0.1707153,31.369658676393954
3,0.07769775,0.1305847,0.9883728,1.0,0.07366943,0.1769104,0.9814606,-31.55362,0.7275848,-26.31833,4.432419,0.4779542999999999,0.5083161,1.0,0.08226013,0.07511902,0.9937744,32.71266,3.218536,-31.80048,4.033859,0.4853214,0.4893382,-0.3242185999999999,1.048134,-0.08458981,-0.05296199,0.7696583,0.006651992,0.03912498254299114,0.1707153,31.369658676393954
3,0.1158142,0.1308441,0.9846039,1.0,0.1096497,0.1670532,0.9798279,-31.17123,0.9952545,-26.95178,4.458221,0.459288,0.506831,1.0,0.1281891,0.0546875,0.9902344,32.911640000000006,3.127533,-31.1042,3.802292,0.4701742,0.4894386999999999,-0.3242915,1.048276,-0.08464018,-0.05345551,0.7703956999999999,0.006819569,0.03912498254299114,0.1707153,31.369658676393954
3,0.1158142,0.1308441,0.9846039,1.0,0.1096497,0.1670532,0.9798279,-31.17123,0.9952545,-26.95178,4.458221,0.459288,0.506831,1.0,0.1281891,0.0546875,0.9902344,32.911640000000006,3.127533,-31.1042,3.802292,0.4701742,0.4894386999999999,-0.3242915,1.048276,-0.08464018,-0.05345551,0.7703956999999999,0.006819569,0.03912498254299114,0.1707153,31.369658676393954
3,0.1158142,0.1308441,0.9846039,1.0,0.1096497,0.1670532,0.9798279,-31.17123,0.9952545,-26.95178,4.458221,0.459288,0.506831,1.0,0.1281891,0.0546875,0.9902344,32.911640000000006,3.127533,-31.1042,3.802292,0.4701742,0.4894386999999999,-0.3242915,1.048276,-0.08464018,-0.05345551,0.7703956999999999,0.006819569,0.03912498254299114,0.1707153,31.369658676393954
3,0.1037444999999999,0.1531372,0.9827423,1.0,0.1037444999999999,0.1531372,0.9827423,-31.20389,1.030167,-27.03773,4.375931,0.4613491,0.5086363,1.0,0.1621552,0.09091187,0.9825592,32.75946,2.345093,-28.90813,3.875153,0.4694932,0.4900406,-0.3243308,1.048291,-0.08442131,-0.05351332,0.7703842,0.007174163,0.03912498254299114,0.1707153,31.369658676393954
3,0.1037444999999999,0.1531372,0.9827423,1.0,0.1037444999999999,0.1531372,0.9827423,-31.20389,1.030167,-27.03773,4.375931,0.4613491,0.5086363,1.0,0.1621552,0.09091187,0.9825592,32.75946,2.345093,-28.90813,3.875153,0.4694932,0.4900406,-0.3243308,1.048291,-0.08442131,-0.05351332,0.7703842,0.007174163,0.03912498254299114,0.1707153,31.369658676393954
3,0.1037444999999999,0.1531372,0.9827423,1.0,0.1037444999999999,0.1531372,0.9827423,-31.20389,1.030167,-27.03773,4.375931,0.4613491,0.5086363,1.0,0.1621552,0.09091187,0.9825592,32.75946,2.345093,-28.90813,3.875153,0.4694932,0.4900406,-0.3243308,1.048291,-0.08442131,-0.05351332,0.7703842,0.007174163,0.03912498254299114,0.1707153,31.369658676393954
3,0.1046753,0.1542511,0.9824677,1.0,0.1046753,0.1542511,0.9824677,-31.21291,1.010635,-26.9722,4.380569,0.4614962,0.5085179,1.0,0.1581879,0.09069824,0.9832306,32.74904,2.247604,-28.52412,3.909637000000001,0.4705579000000001,0.4898733,-0.3244202,1.048392,-0.08430284,-0.05379944,0.7701281999999999,0.007235691,0.03912498254299114,0.1707153,31.369658676393954
3,0.1046753,0.1542511,0.9824677,1.0,0.1046753,0.1542511,0.9824677,-31.21291,1.010635,-26.9722,4.380569,0.4614962,0.5085179,1.0,0.1581879,0.09069824,0.9832306,32.74904,2.247604,-28.52412,3.909637000000001,0.4705579000000001,0.4898733,-0.3244202,1.048392,-0.08430284,-0.05379944,0.7701281999999999,0.007235691,0.03912498254299114,0.1707153,31.369658676393954
3,0.1046753,0.1542511,0.9824677,1.0,0.1046753,0.1542511,0.9824677,-31.21291,1.010635,-26.9722,4.380569,0.4614962,0.5085179,1.0,0.1581879,0.09069824,0.9832306,32.74904,2.247604,-28.52412,3.909637000000001,0.4705579000000001,0.4898733,-0.3244202,1.048392,-0.08430284,-0.05379944,0.7701281999999999,0.007235691,0.03912498254299114,0.1707153,31.369658676393954
3,0.1040344,0.1568604,0.9821167,1.0,0.1040344,0.1568756,0.9821167,-31.22278,0.998764,-26.96321,4.387772,0.4619314,0.5083995,1.0,0.1674652,0.09564209,0.9812164,32.66539,2.054916,-27.85097,3.984161,0.4718403,0.4895661,-0.3244628,1.048391,-0.08416304,-0.0539770999999999,0.7698513000000001,0.0074857069999999,0.03912498254299114,0.1080933,31.369658676393954
