Second,eye_comb_direction_x,eye_comb_direction_y,eye_comb_direction_z,eye_r_openness,eye_r_direction_x,eye_r_direction_y,eye_r_direction_z,eye_r_origin_x,eye_r_origin_y,eye_r_origin_z,eye_r_pupil_diameter,eye_r_pupil_position_x,eye_r_pupil_position_y,eye_l_openness,eye_l_direction_x,eye_l_direction_y,eye_l_direction_z,eye_l_origin_x,eye_l_origin_y,eye_l_origin_z,eye_l_pupil_diameter,eye_l_pupil_position_x,eye_l_pupil_position_y,head_position_x,head_position_y,head_position_z,head_rotation_roll,head_rotation_pitch,head_rotation_yaw,EDA,BVP,TMP
0,-0.02731323,-0.02059937,0.9994049,1.0,-0.03259277,-0.01916504,0.9992828,-33.60313,0.2452239999999999,-29.70493,5.2506260000000005,0.5658807,0.5903298,1.0,0.04649353,-0.0405426,0.9980927,35.07687,3.323669,-28.52959,5.67807,0.4100805999999999,0.4760318,-0.3914529,1.069567,-0.1212726,0.02944458,0.7535986,-0.004836434,3.935305861274635e-05,-0.6429019973419502,30.99015101100589
0,-0.02731323,-0.02059937,0.9994049,1.0,-0.03259277,-0.01916504,0.9992828,-33.60313,0.2452239999999999,-29.70493,5.2506260000000005,0.5658807,0.5903298,1.0,0.04649353,-0.0405426,0.9980927,35.07687,3.323669,-28.52959,5.67807,0.4100805999999999,0.4760318,-0.3914529,1.069567,-0.1212726,0.02944458,0.7535986,-0.004836434,3.935305861274635e-05,-0.6429019973419502,30.99015101100589
0,-0.02731323,-0.02059937,0.9994049,1.0,-0.03259277,-0.01916504,0.9992828,-33.60313,0.2452239999999999,-29.70493,5.2506260000000005,0.5658807,0.5903298,1.0,0.04649353,-0.0405426,0.9980927,35.07687,3.323669,-28.52959,5.67807,0.4100805999999999,0.4760318,-0.3914529,1.069567,-0.1212726,0.02944458,0.7535986,-0.004836434,3.935305861274635e-05,-0.6429019973419502,30.99015101100589
0,-0.02731323,-0.02059937,0.9994049,1.0,-0.03259277,-0.01916504,0.9992828,-33.60313,0.2452239999999999,-29.70493,5.2506260000000005,0.5658807,0.5903298,1.0,0.04649353,-0.0405426,0.9980927,35.07687,3.323669,-28.52959,5.67807,0.4100805999999999,0.4760318,-0.3914529,1.069567,-0.1212726,0.02944458,0.7535986,-0.004836434,3.935305861274635e-05,-0.6429019973419502,30.99015101100589
0,-0.03347778,-0.01708984,0.9992828,1.0,-0.03543091,-0.01672363,0.9992218,-33.608259999999994,0.2106171,-29.64915,5.229095,0.566484,0.5905236,1.0,0.04133606,-0.03137207,0.998642,35.05594,3.3287660000000003,-28.54558,5.612717,0.4116715,0.4744282999999999,-0.391819,1.06971,-0.1206789,0.02889639,0.7531706,-0.004387744,3.935305861274635e-05,-0.6429019973419502,30.99015101100589
0,-0.03347778,-0.01708984,0.9992828,1.0,-0.03543091,-0.01672363,0.9992218,-33.608259999999994,0.2106171,-29.64915,5.229095,0.566484,0.5905236,1.0,0.04133606,-0.03137207,0.998642,35.05594,3.3287660000000003,-28.54558,5.612717,0.4116715,0.4744282999999999,-0.391819,1.06971,-0.1206789,0.02889639,0.7531706,-0.004387744,3.935305861274635e-05,-0.6429019973419502,30.99015101100589
0,-0.03347778,-0.01708984,0.9992828,1.0,-0.03543091,-0.01672363,0.9992218,-33.608259999999994,0.2106171,-29.64915,5.229095,0.566484,0.5905236,1.0,0.04133606,-0.03137207,0.998642,35.05594,3.3287660000000003,-28.54558,5.612717,0.4116715,0.4744282999999999,-0.391819,1.06971,-0.1206789,0.02889639,0.7531706,-0.004387744,3.935305861274635e-05,-0.6429019973419502,30.99015101100589
0,-0.01538086,-0.02114868,0.999649,1.0,-0.03787231,-0.016922,0.9991302,-33.61963,0.2040404999999999,-29.62666,5.2061,0.5672628000000001,0.5905461,1.0,0.03970337,-0.03147888,0.998703,35.048359999999995,3.331924,-28.55608,5.599838,0.4122012,0.4744282999999999,-0.3921700999999999,1.069863,-0.1200965,0.0286923,0.7528973000000001,-0.00364733,3.935305861274635e-05,-0.6429019973419502,30.99015101100589
0,-0.01538086,-0.02114868,0.999649,1.0,-0.03787231,-0.016922,0.9991302,-33.61963,0.2040404999999999,-29.62666,5.2061,0.5672628000000001,0.5905461,1.0,0.03970337,-0.03147888,0.998703,35.048359999999995,3.331924,-28.55608,5.599838,0.4122012,0.4744282999999999,-0.3921700999999999,1.069863,-0.1200965,0.0286923,0.7528973000000001,-0.00364733,3.935305861274635e-05,-0.6429019973419502,30.99015101100589
0,-0.01538086,-0.02114868,0.999649,1.0,-0.03787231,-0.016922,0.9991302,-33.61963,0.2040404999999999,-29.62666,5.2061,0.5672628000000001,0.5905461,1.0,0.03970337,-0.03147888,0.998703,35.048359999999995,3.331924,-28.55608,5.599838,0.4122012,0.4744282999999999,-0.3921700999999999,1.069863,-0.1200965,0.0286923,0.7528973000000001,-0.00364733,3.935305861274635e-05,-0.6429019973419502,30.99015101100589
0,0.03404236,-0.02911377,0.9989929,1.0,-0.04043579,-0.01016235,0.999115,-33.6342,-0.01821899,-28.98357,5.200516,0.5676981,0.5905885999999999,1.0,0.0403595,-0.03071594,0.998703,35.03885,3.330734,-28.56342,5.589111,0.4124181999999999,0.4744027,-0.3925079,1.070105,-0.1195743,0.02835489,0.7526308,-0.002686934,3.935305861274635e-05,-0.6429019973419502,30.99015101100589
0,0.03404236,-0.02911377,0.9989929,1.0,-0.04043579,-0.01016235,0.999115,-33.6342,-0.01821899,-28.98357,5.200516,0.5676981,0.5905885999999999,1.0,0.0403595,-0.03071594,0.998703,35.03885,3.330734,-28.56342,5.589111,0.4124181999999999,0.4744027,-0.3925079,1.070105,-0.1195743,0.02835489,0.7526308,-0.002686934,3.935305861274635e-05,-0.6429019973419502,30.99015101100589
0,0.03404236,-0.02911377,0.9989929,1.0,-0.04043579,-0.01016235,0.999115,-33.6342,-0.01821899,-28.98357,5.200516,0.5676981,0.5905885999999999,1.0,0.0403595,-0.03071594,0.998703,35.03885,3.330734,-28.56342,5.589111,0.4124181999999999,0.4744027,-0.3925079,1.070105,-0.1195743,0.02835489,0.7526308,-0.002686934,3.935305861274635e-05,-0.6429019973419502,30.99015101100589
0,0.03305054,-0.03048706,0.9989777,1.0,-0.04580688,-0.01055908,0.9988861,-33.641420000000004,-0.0453186,-28.91277,5.093001999999999,0.5687651999999999,0.5907727,1.0,0.03305054,-0.03048706,0.9989777,35.02718,3.326706,-28.56258,5.537781,0.4140476999999999,0.4744659,-0.3930367,1.070365,-0.1188273999999999,0.02802085,0.7523221,-0.00142488,3.935305861274635e-05,-0.6429019973419502,30.99015101100589
0,0.03305054,-0.03048706,0.9989777,1.0,-0.04580688,-0.01055908,0.9988861,-33.641420000000004,-0.0453186,-28.91277,5.093001999999999,0.5687651999999999,0.5907727,1.0,0.03305054,-0.03048706,0.9989777,35.02718,3.326706,-28.56258,5.537781,0.4140476999999999,0.4744659,-0.3930367,1.070365,-0.1188273999999999,0.02802085,0.7523221,-0.00142488,3.935305861274635e-05,-0.6429019973419502,30.99015101100589
0,0.03305054,-0.03048706,0.9989777,1.0,-0.04580688,-0.01055908,0.9988861,-33.641420000000004,-0.0453186,-28.91277,5.093001999999999,0.5687651999999999,0.5907727,1.0,0.03305054,-0.03048706,0.9989777,35.02718,3.326706,-28.56258,5.537781,0.4140476999999999,0.4744659,-0.3930367,1.070365,-0.1188273999999999,0.02802085,0.7523221,-0.00142488,3.935305861274635e-05,-0.6429019973419502,30.99015101100589
0,0.03417969,-0.03076172,0.9989319,1.0,-0.04472351,-0.009780884,0.9989471,-33.646770000000004,-0.0539093,-28.90945,5.061523,0.5687651999999999,0.590867,1.0,0.03421021,-0.03076172,0.9989319,35.01599,3.32608,-28.55644,5.512039,0.4142464,0.4744659,-0.3934196,1.070484,-0.1183196,0.02790822,0.7519978,-0.0006796588,3.935305861274635e-05,-0.6429019973419502,30.99015101100589
0,0.03417969,-0.03076172,0.9989319,1.0,-0.04472351,-0.009780884,0.9989471,-33.646770000000004,-0.0539093,-28.90945,5.061523,0.5687651999999999,0.590867,1.0,0.03421021,-0.03076172,0.9989319,35.01599,3.32608,-28.55644,5.512039,0.4142464,0.4744659,-0.3934196,1.070484,-0.1183196,0.02790822,0.7519978,-0.0006796588,3.935305861274635e-05,-0.6429019973419502,30.99015101100589
0,0.03417969,-0.03076172,0.9989319,1.0,-0.04472351,-0.009780884,0.9989471,-33.646770000000004,-0.0539093,-28.90945,5.061523,0.5687651999999999,0.590867,1.0,0.03421021,-0.03076172,0.9989319,35.01599,3.32608,-28.55644,5.512039,0.4142464,0.4744659,-0.3934196,1.070484,-0.1183196,0.02790822,0.7519978,-0.0006796588,3.935305861274635e-05,-0.6429019973419502,30.99015101100589
0,-0.004638672,-0.02542114,0.9996643,1.0,-0.04536438,-0.01361084,0.9988708,-33.65218,-0.05709839,-28.90045,5.005096,0.5690454,0.591481,1.0,0.02984619,-0.03540039,0.9989166,35.0032,3.32251,-28.55634,5.467056,0.4154157,0.4753617,-0.3938506,1.070665,-0.1174946,0.02787035,0.7514251999999999,0.0002024307,3.935305861274635e-05,-0.6429019973419502,30.99015101100589
0,-0.004638672,-0.02542114,0.9996643,1.0,-0.04536438,-0.01361084,0.9988708,-33.65218,-0.05709839,-28.90045,5.005096,0.5690454,0.591481,1.0,0.02984619,-0.03540039,0.9989166,35.0032,3.32251,-28.55634,5.467056,0.4154157,0.4753617,-0.3938506,1.070665,-0.1174946,0.02787035,0.7514251999999999,0.0002024307,3.935305861274635e-05,-0.6429019973419502,30.99015101100589
0,-0.004638672,-0.02542114,0.9996643,1.0,-0.04536438,-0.01361084,0.9988708,-33.65218,-0.05709839,-28.90045,5.005096,0.5690454,0.591481,1.0,0.02984619,-0.03540039,0.9989166,35.0032,3.32251,-28.55634,5.467056,0.4154157,0.4753617,-0.3938506,1.070665,-0.1174946,0.02787035,0.7514251999999999,0.0002024307,3.935305861274635e-05,-0.6429019973419502,30.99015101100589
0,-0.01069641,-0.02424622,0.9996338,1.0,-0.04508972,-0.01513672,0.9988556,-33.65253,-0.06356812,-28.90045,4.935074,0.5690109999999999,0.5919026,1.0,0.0244750999999999,-0.03352356,0.9991302,35.0032,3.300674,-28.53188,5.402695,0.4163305999999999,0.4755162,-0.3943274,1.0707950000000002,-0.116656,0.02787176,0.7507073000000001,0.0008760192999999,3.935305861274635e-05,-0.6429019973419502,30.99015101100589
0,-0.01069641,-0.02424622,0.9996338,1.0,-0.04508972,-0.01513672,0.9988556,-33.65253,-0.06356812,-28.90045,4.935074,0.5690109999999999,0.5919026,1.0,0.0244750999999999,-0.03352356,0.9991302,35.0032,3.300674,-28.53188,5.402695,0.4163305999999999,0.4755162,-0.3943274,1.0707950000000002,-0.116656,0.02787176,0.7507073000000001,0.0008760192999999,3.935305861274635e-05,-0.6429019973419502,30.99015101100589
0,-0.01069641,-0.02424622,0.9996338,1.0,-0.04508972,-0.01513672,0.9988556,-33.65253,-0.06356812,-28.90045,4.935074,0.5690109999999999,0.5919026,1.0,0.0244750999999999,-0.03352356,0.9991302,35.0032,3.300674,-28.53188,5.402695,0.4163305999999999,0.4755162,-0.3943274,1.0707950000000002,-0.116656,0.02787176,0.7507073000000001,0.0008760192999999,3.935305861274635e-05,-0.6429019973419502,30.99015101100589
0,-0.01683044,-0.02561951,0.999527,1.0,-0.04533386,-0.01786804,0.9988098,-33.65312,-0.06665039,-28.89301,4.905487,0.5690663,0.5923684,1.0,0.02053833,-0.03575134,0.9991455,35.01311,3.258316,-28.48163,5.350739,0.416668,0.4768647,-0.3948699,1.070757,-0.1158516,0.0279572999999999,0.7498024999999999,0.001013992,3.935305861274635e-05,-0.6429019973419502,30.99015101100589
0,-0.01683044,-0.02561951,0.999527,1.0,-0.04533386,-0.01786804,0.9988098,-33.65312,-0.06665039,-28.89301,4.905487,0.5690663,0.5923684,1.0,0.02053833,-0.03575134,0.9991455,35.01311,3.258316,-28.48163,5.350739,0.416668,0.4768647,-0.3948699,1.070757,-0.1158516,0.0279572999999999,0.7498024999999999,0.001013992,3.935305861274635e-05,-0.6429019973419502,30.99015101100589
0,-0.01683044,-0.02561951,0.999527,1.0,-0.04533386,-0.01786804,0.9988098,-33.65312,-0.06665039,-28.89301,4.905487,0.5690663,0.5923684,1.0,0.02053833,-0.03575134,0.9991455,35.01311,3.258316,-28.48163,5.350739,0.416668,0.4768647,-0.3948699,1.070757,-0.1158516,0.0279572999999999,0.7498024999999999,0.001013992,3.935305861274635e-05,-0.6429019973419502,30.99015101100589
0,-0.02508545,-0.02610779,0.9993439,1.0,-0.04919434,-0.01980591,0.9985809,-33.65361,-0.06860352,-28.89027,4.896088,0.5697236999999999,0.5927411,1.0,0.01731873,-0.03715515,0.9991455,35.01311,3.23201,-28.38667,5.340622,0.4172497999999999,0.4771374,-0.3953041,1.070777,-0.1152762,0.02806423,0.7492113,0.001013992,3.935305861274635e-05,-0.6429019973419502,30.99015101100589
0,-0.02508545,-0.02610779,0.9993439,1.0,-0.04919434,-0.01980591,0.9985809,-33.65361,-0.06860352,-28.89027,4.896088,0.5697236999999999,0.5927411,1.0,0.01731873,-0.03715515,0.9991455,35.01311,3.23201,-28.38667,5.340622,0.4172497999999999,0.4771374,-0.3953041,1.070777,-0.1152762,0.02806423,0.7492113,0.001013992,3.935305861274635e-05,-0.6429019973419502,30.99015101100589
0,-0.02508545,-0.02610779,0.9993439,1.0,-0.04919434,-0.01980591,0.9985809,-33.65361,-0.06860352,-28.89027,4.896088,0.5697236999999999,0.5927411,1.0,0.01731873,-0.03715515,0.9991455,35.01311,3.23201,-28.38667,5.340622,0.4172497999999999,0.4771374,-0.3953041,1.070777,-0.1152762,0.02806423,0.7492113,0.001013992,3.935305861274635e-05,-0.6429019973419502,30.99015101100589
0,-0.02957153,-0.02697754,0.9991913,1.0,-0.05116272,-0.01771545,0.9985199,-33.657090000000004,-0.06860352,-28.90097,4.752014,0.5701786,0.5923684,1.0,0.01416016,-0.0456543,0.9988556,35.01311,3.21991,-28.36226,5.225708,0.4177885,0.4787077,-0.3958309,1.070793,-0.1145441,0.02804132,0.7482035,0.0009236295,3.935305861274635e-05,-14.80701,30.99015101100589
0,-0.02957153,-0.02697754,0.9991913,1.0,-0.05116272,-0.01771545,0.9985199,-33.657090000000004,-0.06860352,-28.90097,4.752014,0.5701786,0.5923684,1.0,0.01416016,-0.0456543,0.9988556,35.01311,3.21991,-28.36226,5.225708,0.4177885,0.4787077,-0.3958309,1.070793,-0.1145441,0.02804132,0.7482035,0.0009236295,3.935305861274635e-05,-14.80701,30.99015101100589
0,-0.02957153,-0.02697754,0.9991913,1.0,-0.05116272,-0.01771545,0.9985199,-33.657090000000004,-0.06860352,-28.90097,4.752014,0.5701786,0.5923684,1.0,0.01416016,-0.0456543,0.9988556,35.01311,3.21991,-28.36226,5.225708,0.4177885,0.4787077,-0.3958309,1.070793,-0.1145441,0.02804132,0.7482035,0.0009236295,3.935305861274635e-05,-14.80701,30.99015101100589
0,-0.01274109,-0.03379822,0.9993439,1.0,-0.0476532,-0.01689148,0.9987183,-33.67848,-0.01504517,-29.06866,4.64505,0.5704481,0.591969,1.0,0.01248169,-0.04597473,0.9988556,34.994640000000004,3.21991,-28.36226,5.1825410000000005,0.4187117999999999,0.4787460999999999,-0.3966044,1.070806,-0.1135799,0.02792537,0.7465703,0.001478765,3.935305861274635e-05,-14.80701,30.99015101100589
0,-0.01274109,-0.03379822,0.9993439,1.0,-0.0476532,-0.01689148,0.9987183,-33.67848,-0.01504517,-29.06866,4.64505,0.5704481,0.591969,1.0,0.01248169,-0.04597473,0.9988556,34.994640000000004,3.21991,-28.36226,5.1825410000000005,0.4187117999999999,0.4787460999999999,-0.3966044,1.070806,-0.1135799,0.02792537,0.7465703,0.001478765,3.935305861274635e-05,-14.80701,30.99015101100589
0,-0.01274109,-0.03379822,0.9993439,1.0,-0.0476532,-0.01689148,0.9987183,-33.67848,-0.01504517,-29.06866,4.64505,0.5704481,0.591969,1.0,0.01248169,-0.04597473,0.9988556,34.994640000000004,3.21991,-28.36226,5.1825410000000005,0.4187117999999999,0.4787460999999999,-0.3966044,1.070806,-0.1135799,0.02792537,0.7465703,0.001478765,3.935305861274635e-05,-14.80701,30.99015101100589
0,0.0070343019999999,-0.04449463,0.9989777,1.0,-0.04920959,-0.01776123,0.9986267,-33.6946,0.002426147,-29.115040000000004,4.614426,0.5712976,0.591969,1.0,0.01644897,-0.0489501999999999,0.9986572,34.95261,3.245407,-28.4048,5.149277,0.4194769,0.4787571,-0.397041,1.070937,-0.1129269,0.02809434,0.7453546,0.002242575,3.935305861274635e-05,-14.80701,30.99015101100589
0,0.0070343019999999,-0.04449463,0.9989777,1.0,-0.04920959,-0.01776123,0.9986267,-33.6946,0.002426147,-29.115040000000004,4.614426,0.5712976,0.591969,1.0,0.01644897,-0.0489501999999999,0.9986572,34.95261,3.245407,-28.4048,5.149277,0.4194769,0.4787571,-0.397041,1.070937,-0.1129269,0.02809434,0.7453546,0.002242575,3.935305861274635e-05,-14.80701,30.99015101100589
0,0.0070343019999999,-0.04449463,0.9989777,1.0,-0.04920959,-0.01776123,0.9986267,-33.6946,0.002426147,-29.115040000000004,4.614426,0.5712976,0.591969,1.0,0.01644897,-0.0489501999999999,0.9986572,34.95261,3.245407,-28.4048,5.149277,0.4194769,0.4787571,-0.397041,1.070937,-0.1129269,0.02809434,0.7453546,0.002242575,3.935305861274635e-05,-14.80701,30.99015101100589
0,-0.0023498539999999,-0.04928589,0.9987793,1.0,-0.05574036,-0.03619385,0.9977875,-33.52704,0.1200256,-29.425890000000003,4.470749,0.5669228000000001,0.594076,1.0,0.02345276,-0.05557251,0.9981689,35.04645,3.3064120000000004,-28.54677,4.968689,0.4150174,0.4789516,-0.3974487,1.071048,-0.1121648999999999,0.02806257,0.7436999,0.002781623,3.935305861274635e-05,-14.80701,30.99015101100589
0,-0.0023498539999999,-0.04928589,0.9987793,1.0,-0.05574036,-0.03619385,0.9977875,-33.52704,0.1200256,-29.425890000000003,4.470749,0.5669228000000001,0.594076,1.0,0.02345276,-0.05557251,0.9981689,35.04645,3.3064120000000004,-28.54677,4.968689,0.4150174,0.4789516,-0.3974487,1.071048,-0.1121648999999999,0.02806257,0.7436999,0.002781623,3.935305861274635e-05,-14.80701,30.99015101100589
0,-0.0023498539999999,-0.04928589,0.9987793,1.0,-0.05574036,-0.03619385,0.9977875,-33.52704,0.1200256,-29.425890000000003,4.470749,0.5669228000000001,0.594076,1.0,0.02345276,-0.05557251,0.9981689,35.04645,3.3064120000000004,-28.54677,4.968689,0.4150174,0.4789516,-0.3974487,1.071048,-0.1121648999999999,0.02806257,0.7436999,0.002781623,3.935305861274635e-05,-14.80701,30.99015101100589
0,0.1188507,-0.03607178,0.9922485,1.0,0.0428009,-0.03173828,0.9985657,-32.92027,0.5647736,-30.63593,4.264587000000001,0.5302071999999999,0.5897694,1.0,0.1198883,-0.03613281,0.9921265,35.56877,3.444397,-28.70673,5.077286,0.3805301,0.4722674,-0.3982359,1.0713700000000002,-0.1102243999999999,0.02773381,0.739019,0.004693361,3.935305861274635e-05,-43.99196,30.99015101100589
0,0.1188507,-0.03607178,0.9922485,1.0,0.0428009,-0.03173828,0.9985657,-32.92027,0.5647736,-30.63593,4.264587000000001,0.5302071999999999,0.5897694,1.0,0.1198883,-0.03613281,0.9921265,35.56877,3.444397,-28.70673,5.077286,0.3805301,0.4722674,-0.3982359,1.0713700000000002,-0.1102243999999999,0.02773381,0.739019,0.004693361,3.935305861274635e-05,-43.99196,30.99015101100589
0,0.1188507,-0.03607178,0.9922485,1.0,0.0428009,-0.03173828,0.9985657,-32.92027,0.5647736,-30.63593,4.264587000000001,0.5302071999999999,0.5897694,1.0,0.1198883,-0.03613281,0.9921265,35.56877,3.444397,-28.70673,5.077286,0.3805301,0.4722674,-0.3982359,1.0713700000000002,-0.1102243999999999,0.02773381,0.739019,0.004693361,3.935305861274635e-05,-43.99196,30.99015101100589
0,0.1188507,-0.03607178,0.9922485,1.0,0.0428009,-0.03173828,0.9985657,-32.92027,0.5647736,-30.63593,4.264587000000001,0.5302071999999999,0.5897694,1.0,0.1198883,-0.03613281,0.9921265,35.56877,3.444397,-28.70673,5.077286,0.3805301,0.4722674,-0.3988829,1.071796,-0.1083605,0.02673277,0.7334847,0.0062354509999999,3.935305861274635e-05,-43.99196,30.99015101100589
0,0.1188507,-0.03607178,0.9922485,1.0,0.0428009,-0.03173828,0.9985657,-32.92027,0.5647736,-30.63593,4.264587000000001,0.5302071999999999,0.5897694,1.0,0.1198883,-0.03613281,0.9921265,35.56877,3.444397,-28.70673,5.077286,0.3805301,0.4722674,-0.3988829,1.071796,-0.1083605,0.02673277,0.7334847,0.0062354509999999,3.935305861274635e-05,-43.99196,30.99015101100589
0,0.1188507,-0.03607178,0.9922485,1.0,0.0428009,-0.03173828,0.9985657,-32.92027,0.5647736,-30.63593,4.264587000000001,0.5302071999999999,0.5897694,1.0,0.1198883,-0.03613281,0.9921265,35.56877,3.444397,-28.70673,5.077286,0.3805301,0.4722674,-0.3988829,1.071796,-0.1083605,0.02673277,0.7334847,0.0062354509999999,3.935305861274635e-05,-43.99196,30.99015101100589
0,0.4131317,-0.0017242429999999,0.9106598,1.0,0.3459625,-0.01438904,0.9381256,-31.448940000000004,0.2701111,-29.7735,4.362289,0.4277566,0.5903273,1.0,0.4132385,-0.001708984,0.910614,37.173770000000005,3.630646,-29.07672,5.193604,0.2712448,0.4645593,-0.3995804,1.072075,-0.1058606,0.02515108,0.7260751999999999,0.007343014,3.935305861274635e-05,-43.99196,30.99015101100589
0,0.4131317,-0.0017242429999999,0.9106598,1.0,0.3459625,-0.01438904,0.9381256,-31.448940000000004,0.2701111,-29.7735,4.362289,0.4277566,0.5903273,1.0,0.4132385,-0.001708984,0.910614,37.173770000000005,3.630646,-29.07672,5.193604,0.2712448,0.4645593,-0.3995804,1.072075,-0.1058606,0.02515108,0.7260751999999999,0.007343014,3.935305861274635e-05,-43.99196,30.99015101100589
0,0.4131317,-0.0017242429999999,0.9106598,1.0,0.3459625,-0.01438904,0.9381256,-31.448940000000004,0.2701111,-29.7735,4.362289,0.4277566,0.5903273,1.0,0.4132385,-0.001708984,0.910614,37.173770000000005,3.630646,-29.07672,5.193604,0.2712448,0.4645593,-0.3995804,1.072075,-0.1058606,0.02515108,0.7260751999999999,0.007343014,3.935305861274635e-05,-43.99196,30.99015101100589
0,0.3892059,-0.002182007,0.9211426,1.0,0.3283690999999999,-0.0146637,0.9444275,-31.51031,0.2496033,-29.7475,4.335433999999999,0.4329089,0.5905406,1.0,0.3898163,-0.002059937,0.9208832,37.19098,3.605789,-29.06096,5.063019000000001,0.2749917999999999,0.4649807999999999,-0.4001937,1.072686,-0.1028021,0.02225265,0.715644,0.009484636,3.935305861274635e-05,-43.99196,30.99015101100589
0,0.3892059,-0.002182007,0.9211426,1.0,0.3283690999999999,-0.0146637,0.9444275,-31.51031,0.2496033,-29.7475,4.335433999999999,0.4329089,0.5905406,1.0,0.3898163,-0.002059937,0.9208832,37.19098,3.605789,-29.06096,5.063019000000001,0.2749917999999999,0.4649807999999999,-0.4001937,1.072686,-0.1028021,0.02225265,0.715644,0.009484636,3.935305861274635e-05,-43.99196,30.99015101100589
0,0.3892059,-0.002182007,0.9211426,1.0,0.3283690999999999,-0.0146637,0.9444275,-31.51031,0.2496033,-29.7475,4.335433999999999,0.4329089,0.5905406,1.0,0.3898163,-0.002059937,0.9208832,37.19098,3.605789,-29.06096,5.063019000000001,0.2749917999999999,0.4649807999999999,-0.4001937,1.072686,-0.1028021,0.02225265,0.715644,0.009484636,3.935305861274635e-05,-43.99196,30.99015101100589
0,0.3892059,-0.002182007,0.9211426,1.0,0.3283690999999999,-0.0146637,0.9444275,-31.51031,0.2496033,-29.7475,4.335433999999999,0.4329089,0.5905406,1.0,0.3898163,-0.002059937,0.9208832,37.19098,3.605789,-29.06096,5.063019000000001,0.2749917999999999,0.4649807999999999,-0.4001937,1.072686,-0.1028021,0.02225265,0.715644,0.009484636,3.935305861274635e-05,-43.99196,30.99015101100589
0,0.3892059,-0.002182007,0.9211426,1.0,0.3283690999999999,-0.0146637,0.9444275,-31.51031,0.2496033,-29.7475,4.335433999999999,0.4329089,0.5905406,1.0,0.3898163,-0.002059937,0.9208832,37.19098,3.605789,-29.06096,5.063019000000001,0.2749917999999999,0.4649807999999999,-0.4001937,1.072686,-0.1028021,0.02225265,0.715644,0.009484636,3.935305861274635e-05,-41.45277,30.99015101100589
0,0.3892059,-0.002182007,0.9211426,1.0,0.3283690999999999,-0.0146637,0.9444275,-31.51031,0.2496033,-29.7475,4.335433999999999,0.4329089,0.5905406,1.0,0.3898163,-0.002059937,0.9208832,37.19098,3.605789,-29.06096,5.063019000000001,0.2749917999999999,0.4649807999999999,-0.4001937,1.072686,-0.1028021,0.02225265,0.715644,0.009484636,3.935305861274635e-05,-18.16636,30.99015101100589
0,0.2805634,-0.02653503,0.9594574,1.0,0.2632294,-0.02607727,0.9643707,-31.90443,0.1802826,-29.64575,4.172836,0.4575699,0.5930092,1.0,0.3120422,-0.02735901,0.9496613000000002,36.81033,3.5137629999999995,-28.88802,4.996109,0.3032655,0.4704688,-0.4017285,1.073632,-0.09548637,0.01493292,0.6886054,0.01103589,3.935305861274635e-05,-18.16636,30.99015101100589
0,0.2805634,-0.02653503,0.9594574,1.0,0.2632294,-0.02607727,0.9643707,-31.90443,0.1802826,-29.64575,4.172836,0.4575699,0.5930092,1.0,0.3120422,-0.02735901,0.9496613000000002,36.81033,3.5137629999999995,-28.88802,4.996109,0.3032655,0.4704688,-0.4017285,1.073632,-0.09548637,0.01493292,0.6886054,0.01103589,3.935305861274635e-05,-18.16636,30.99015101100589
0,0.2805634,-0.02653503,0.9594574,1.0,0.2632294,-0.02607727,0.9643707,-31.90443,0.1802826,-29.64575,4.172836,0.4575699,0.5930092,1.0,0.3120422,-0.02735901,0.9496613000000002,36.81033,3.5137629999999995,-28.88802,4.996109,0.3032655,0.4704688,-0.4017285,1.073632,-0.09548637,0.01493292,0.6886054,0.01103589,3.935305861274635e-05,-18.16636,30.99015101100589
0,0.2257232999999999,-0.04429626,0.973175,1.0,0.2054749,-0.03944397,0.9778595,-32.2299,0.1398926,-29.62054,4.146255,0.4785753,0.5959437,1.0,0.2503815,-0.05020142,0.9668427,36.46901,3.414108,-28.795720000000003,4.893433,0.3264485,0.4766798,-0.4027672,1.074027,-0.09159583,0.01243306,0.6739767,0.01141619,3.935305861274635e-05,-18.16636,30.99015101100589
0,0.2257232999999999,-0.04429626,0.973175,1.0,0.2054749,-0.03944397,0.9778595,-32.2299,0.1398926,-29.62054,4.146255,0.4785753,0.5959437,1.0,0.2503815,-0.05020142,0.9668427,36.46901,3.414108,-28.795720000000003,4.893433,0.3264485,0.4766798,-0.4027672,1.074027,-0.09159583,0.01243306,0.6739767,0.01141619,3.935305861274635e-05,-18.16636,30.99015101100589
0,0.2257232999999999,-0.04429626,0.973175,1.0,0.2054749,-0.03944397,0.9778595,-32.2299,0.1398926,-29.62054,4.146255,0.4785753,0.5959437,1.0,0.2503815,-0.05020142,0.9668427,36.46901,3.414108,-28.795720000000003,4.893433,0.3264485,0.4766798,-0.4027672,1.074027,-0.09159583,0.01243306,0.6739767,0.01141619,3.935305861274635e-05,-18.16636,30.99015101100589
0,0.1996307,-0.04986572,0.9785919,1.0,0.1473693999999999,-0.04527283,0.9880371,-32.43802,0.4656676999999999,-30.64645,4.046982,0.4957382999999999,0.5956629,1.0,0.200119,-0.0499115,0.9784851,36.23756,3.350464,-28.748,4.844482,0.3433943,0.4781567,-0.4038727,1.074298,-0.08772556,0.01101664,0.6594565,0.01258287,3.935305861274635e-05,-18.16636,30.99015101100589
0,0.1996307,-0.04986572,0.9785919,1.0,0.1473693999999999,-0.04527283,0.9880371,-32.43802,0.4656676999999999,-30.64645,4.046982,0.4957382999999999,0.5956629,1.0,0.200119,-0.0499115,0.9784851,36.23756,3.350464,-28.748,4.844482,0.3433943,0.4781567,-0.4038727,1.074298,-0.08772556,0.01101664,0.6594565,0.01258287,3.935305861274635e-05,-18.16636,30.99015101100589
0,0.1996307,-0.04986572,0.9785919,1.0,0.1473693999999999,-0.04527283,0.9880371,-32.43802,0.4656676999999999,-30.64645,4.046982,0.4957382999999999,0.5956629,1.0,0.200119,-0.0499115,0.9784851,36.23756,3.350464,-28.748,4.844482,0.3433943,0.4781567,-0.4038727,1.074298,-0.08772556,0.01101664,0.6594565,0.01258287,3.935305861274635e-05,-18.16636,30.99015101100589
0,0.1657257,-0.06167603,0.9842377,1.0,0.1052094,-0.04450989,0.9934387,-32.69832,0.3772278,-30.50519,4.028732,0.5118402,0.5970107,1.0,0.1657257,-0.06167603,0.9842377,35.9348,3.3958440000000003,-28.94197,4.629669,0.3597066,0.4802669,-0.4051301,1.074435,-0.08443533,0.009677489,0.6466814999999999,0.01370616,3.935305861274635e-05,-18.16636,30.99015101100589
0,0.1657257,-0.06167603,0.9842377,1.0,0.1052094,-0.04450989,0.9934387,-32.69832,0.3772278,-30.50519,4.028732,0.5118402,0.5970107,1.0,0.1657257,-0.06167603,0.9842377,35.9348,3.3958440000000003,-28.94197,4.629669,0.3597066,0.4802669,-0.4051301,1.074435,-0.08443533,0.009677489,0.6466814999999999,0.01370616,3.935305861274635e-05,-18.16636,30.99015101100589
0,0.1657257,-0.06167603,0.9842377,1.0,0.1052094,-0.04450989,0.9934387,-32.69832,0.3772278,-30.50519,4.028732,0.5118402,0.5970107,1.0,0.1657257,-0.06167603,0.9842377,35.9348,3.3958440000000003,-28.94197,4.629669,0.3597066,0.4802669,-0.4051301,1.074435,-0.08443533,0.009677489,0.6466814999999999,0.01370616,3.935305861274635e-05,-18.16636,30.99015101100589
0,0.125885,-0.07060242,0.9895172,1.0,0.06510925,-0.05744934,0.9962158,-32.93336,0.4547882,-30.77365,4.006577,0.5268738000000001,0.5992403000000001,1.0,0.1273651,-0.07092285,0.9893036,35.62051,3.3247379999999995,-28.71005,4.663696,0.3774290999999999,0.4821938,-0.406328,1.074571,-0.08190776,0.009041036,0.6368189000000001,0.01486579,3.935305861274635e-05,2.237196,30.99015101100589
0,0.125885,-0.07060242,0.9895172,1.0,0.06510925,-0.05744934,0.9962158,-32.93336,0.4547882,-30.77365,4.006577,0.5268738000000001,0.5992403000000001,1.0,0.1273651,-0.07092285,0.9893036,35.62051,3.3247379999999995,-28.71005,4.663696,0.3774290999999999,0.4821938,-0.406328,1.074571,-0.08190776,0.009041036,0.6368189000000001,0.01486579,3.935305861274635e-05,2.237196,30.99015101100589
0,0.125885,-0.07060242,0.9895172,1.0,0.06510925,-0.05744934,0.9962158,-32.93336,0.4547882,-30.77365,4.006577,0.5268738000000001,0.5992403000000001,1.0,0.1273651,-0.07092285,0.9893036,35.62051,3.3247379999999995,-28.71005,4.663696,0.3774290999999999,0.4821938,-0.406328,1.074571,-0.08190776,0.009041036,0.6368189000000001,0.01486579,3.935305861274635e-05,2.237196,30.99015101100589
1,0.03199768,-0.06549072,0.9973297,1.0,0.03184509,-0.06549072,0.9973297,-33.23624,0.3410645,-30.400540000000003,4.070465,0.5427837,0.6008746,1.0,0.06796265,-0.06552124,0.9955292,35.37175,3.5918730000000005,-29.67686,4.500961,0.3955697999999999,0.4808122,-0.4074267,1.074753,-0.08027403,0.008622174,0.6308258000000001,0.01588744,3.935305861274635e-05,2.237196,30.99015101100589
1,0.03199768,-0.06549072,0.9973297,1.0,0.03184509,-0.06549072,0.9973297,-33.23624,0.3410645,-30.400540000000003,4.070465,0.5427837,0.6008746,1.0,0.06796265,-0.06552124,0.9955292,35.37175,3.5918730000000005,-29.67686,4.500961,0.3955697999999999,0.4808122,-0.4074267,1.074753,-0.08027403,0.008622174,0.6308258000000001,0.01588744,3.935305861274635e-05,2.237196,30.99015101100589
1,0.03199768,-0.06549072,0.9973297,1.0,0.03184509,-0.06549072,0.9973297,-33.23624,0.3410645,-30.400540000000003,4.070465,0.5427837,0.6008746,1.0,0.06796265,-0.06552124,0.9955292,35.37175,3.5918730000000005,-29.67686,4.500961,0.3955697999999999,0.4808122,-0.4074267,1.074753,-0.08027403,0.008622174,0.6308258000000001,0.01588744,3.935305861274635e-05,2.237196,30.99015101100589
1,0.02134705,-0.06600952,0.9975891,1.0,0.02081299,-0.06599426,0.9975891,-33.2473,0.3466187,-30.31969,4.162003,0.5450075,0.6000281999999999,1.0,0.05911255,-0.06686401,0.9960022,35.36537,3.706345,-29.91496,4.555939,0.3971727,0.4793077999999999,-0.4082469,1.074972,-0.07951459,0.008539471,0.6286798000000001,0.01721678,3.935305861274635e-05,2.237196,30.99015101100589
1,0.02134705,-0.06600952,0.9975891,1.0,0.02081299,-0.06599426,0.9975891,-33.2473,0.3466187,-30.31969,4.162003,0.5450075,0.6000281999999999,1.0,0.05911255,-0.06686401,0.9960022,35.36537,3.706345,-29.91496,4.555939,0.3971727,0.4793077999999999,-0.4082469,1.074972,-0.07951459,0.008539471,0.6286798000000001,0.01721678,3.935305861274635e-05,2.237196,30.99015101100589
1,0.02134705,-0.06600952,0.9975891,1.0,0.02081299,-0.06599426,0.9975891,-33.2473,0.3466187,-30.31969,4.162003,0.5450075,0.6000281999999999,1.0,0.05911255,-0.06686401,0.9960022,35.36537,3.706345,-29.91496,4.555939,0.3971727,0.4793077999999999,-0.4082469,1.074972,-0.07951459,0.008539471,0.6286798000000001,0.01721678,3.935305861274635e-05,2.237196,30.99015101100589
1,0.1591644,0.0003662109,0.9872437,1.0,0.1316376,0.02468872,0.9909821,-32.76549,0.5782928,-30.2327,4.119934,0.5095195,0.5756187,1.0,0.1671143,-0.006698608,0.9859009,35.83992,4.005798,-29.82961,4.579391,0.3620016,0.4577172,-0.4094897999999999,1.075168,-0.07911049,0.009339576,0.6294266,0.01958924,3.935305861274635e-05,2.237196,30.99015101100589
1,0.1591644,0.0003662109,0.9872437,1.0,0.1316376,0.02468872,0.9909821,-32.76549,0.5782928,-30.2327,4.119934,0.5095195,0.5756187,1.0,0.1671143,-0.006698608,0.9859009,35.83992,4.005798,-29.82961,4.579391,0.3620016,0.4577172,-0.4094897999999999,1.075168,-0.07911049,0.009339576,0.6294266,0.01958924,3.935305861274635e-05,2.237196,30.99015101100589
1,0.1591644,0.0003662109,0.9872437,1.0,0.1316376,0.02468872,0.9909821,-32.76549,0.5782928,-30.2327,4.119934,0.5095195,0.5756187,1.0,0.1671143,-0.006698608,0.9859009,35.83992,4.005798,-29.82961,4.579391,0.3620016,0.4577172,-0.4094897999999999,1.075168,-0.07911049,0.009339576,0.6294266,0.01958924,3.935305861274635e-05,2.237196,30.99015101100589
1,0.1470642,-0.0006866455,0.9891205,1.0,0.1185303,0.01477051,0.9928284,-32.77382,0.6204376,-30.32909,4.125290000000001,0.5120906,0.5767924,1.0,0.1551361,-0.005081177,0.9878693,35.83957,3.88826,-29.4409,4.580139,0.3644756,0.4579854999999999,-0.4100344,1.075168,-0.07857899,0.008895442,0.6287545999999999,0.01948991,3.935305861274635e-05,2.237196,30.99015101100589
1,0.1470642,-0.0006866455,0.9891205,1.0,0.1185303,0.01477051,0.9928284,-32.77382,0.6204376,-30.32909,4.125290000000001,0.5120906,0.5767924,1.0,0.1551361,-0.005081177,0.9878693,35.83957,3.88826,-29.4409,4.580139,0.3644756,0.4579854999999999,-0.4100344,1.075168,-0.07857899,0.008895442,0.6287545999999999,0.01948991,3.935305861274635e-05,1.758633,30.99015101100589
1,0.1470642,-0.0006866455,0.9891205,1.0,0.1185303,0.01477051,0.9928284,-32.77382,0.6204376,-30.32909,4.125290000000001,0.5120906,0.5767924,1.0,0.1551361,-0.005081177,0.9878693,35.83957,3.88826,-29.4409,4.580139,0.3644756,0.4579854999999999,-0.4100344,1.075168,-0.07857899,0.008895442,0.6287545999999999,0.01948991,3.935305861274635e-05,1.758633,30.99015101100589
1,0.1134033,0.01591492,0.9934082,1.0,0.1133728,0.01593018,0.9934235,-32.77675,0.6532439999999999,-30.44896,4.120605,0.5131087999999999,0.5766304,1.0,0.1620483,-0.01304626,0.9866943,35.800740000000005,3.730133,-28.86305,4.572403,0.3651559,0.4596727,-0.4106260999999999,1.07504,-0.07773879,0.008653228,0.6269091999999999,0.01885147,3.935305861274635e-05,1.758633,30.99015101100589
1,0.1134033,0.01591492,0.9934082,1.0,0.1133728,0.01593018,0.9934235,-32.77675,0.6532439999999999,-30.44896,4.120605,0.5131087999999999,0.5766304,1.0,0.1620483,-0.01304626,0.9866943,35.800740000000005,3.730133,-28.86305,4.572403,0.3651559,0.4596727,-0.4106260999999999,1.07504,-0.07773879,0.008653228,0.6269091999999999,0.01885147,3.935305861274635e-05,1.758633,30.99015101100589
1,0.1134033,0.01591492,0.9934082,1.0,0.1133728,0.01593018,0.9934235,-32.77675,0.6532439999999999,-30.44896,4.120605,0.5131087999999999,0.5766304,1.0,0.1620483,-0.01304626,0.9866943,35.800740000000005,3.730133,-28.86305,4.572403,0.3651559,0.4596727,-0.4106260999999999,1.07504,-0.07773879,0.008653228,0.6269091999999999,0.01885147,3.935305861274635e-05,1.758633,30.99015101100589
1,0.1119232,0.01438904,0.9936066,1.0,0.1117553999999999,0.01446533,0.9936218,-32.77921,0.6581878999999999,-30.453190000000003,4.117996,0.5134701,0.5767544,1.0,0.161377,-0.01130676,0.9868164,35.80301,3.699051,-28.78751,4.567535,0.3652554,0.4597594,-0.4111725999999999,1.074985,-0.07690924,0.0081341809999999,0.6233258,0.01767524,3.935305861274635e-05,1.758633,30.99015101100589
1,0.1119232,0.01438904,0.9936066,1.0,0.1117553999999999,0.01446533,0.9936218,-32.77921,0.6581878999999999,-30.453190000000003,4.117996,0.5134701,0.5767544,1.0,0.161377,-0.01130676,0.9868164,35.80301,3.699051,-28.78751,4.567535,0.3652554,0.4597594,-0.4111725999999999,1.074985,-0.07690924,0.0081341809999999,0.6233258,0.01767524,3.935305861274635e-05,1.758633,30.99015101100589
1,0.1119232,0.01438904,0.9936066,1.0,0.1117553999999999,0.01446533,0.9936218,-32.77921,0.6581878999999999,-30.453190000000003,4.117996,0.5134701,0.5767544,1.0,0.161377,-0.01130676,0.9868164,35.80301,3.699051,-28.78751,4.567535,0.3652554,0.4597594,-0.4111725999999999,1.074985,-0.07690924,0.0081341809999999,0.6233258,0.01767524,3.935305861274635e-05,1.758633,30.99015101100589
1,0.100769,-0.00390625,0.9948883,1.0,0.09396362,-0.003295898,0.9955597,-32.86603,0.5577545,-30.13568,4.122589,0.5193800999999999,0.5800804,1.0,0.138855,-0.007339478,0.9902802,35.7682,3.584976,-28.54884,4.564377,0.3705513,0.4608014,-0.4117672,1.074629,-0.07576354,0.008424399,0.6187866,0.01608702,3.935305861274635e-05,1.758633,30.99015101100589
1,0.100769,-0.00390625,0.9948883,1.0,0.09396362,-0.003295898,0.9955597,-32.86603,0.5577545,-30.13568,4.122589,0.5193800999999999,0.5800804,1.0,0.138855,-0.007339478,0.9902802,35.7682,3.584976,-28.54884,4.564377,0.3705513,0.4608014,-0.4117672,1.074629,-0.07576354,0.008424399,0.6187866,0.01608702,3.935305861274635e-05,1.758633,30.99015101100589
1,0.100769,-0.00390625,0.9948883,1.0,0.09396362,-0.003295898,0.9955597,-32.86603,0.5577545,-30.13568,4.122589,0.5193800999999999,0.5800804,1.0,0.138855,-0.007339478,0.9902802,35.7682,3.584976,-28.54884,4.564377,0.3705513,0.4608014,-0.4117672,1.074629,-0.07576354,0.008424399,0.6187866,0.01608702,3.935305861274635e-05,1.758633,30.99015101100589
1,0.1170349,-0.004440308,0.993103,1.0,0.08627319,-0.004013062,0.9962616,-32.90355,0.5320587,-30.05426,4.138901000000001,0.5219473,0.5802748999999999,1.0,0.1280365,-0.004577637,0.991745,35.74435,3.5762480000000005,-28.514940000000003,4.649948,0.3732749,0.4603554,-0.4123471999999999,1.074203,-0.07488033,0.009029284,0.6145215999999999,0.01461419,3.935305861274635e-05,1.758633,30.99015101100589
1,0.1170349,-0.004440308,0.993103,1.0,0.08627319,-0.004013062,0.9962616,-32.90355,0.5320587,-30.05426,4.138901000000001,0.5219473,0.5802748999999999,1.0,0.1280365,-0.004577637,0.991745,35.74435,3.5762480000000005,-28.514940000000003,4.649948,0.3732749,0.4603554,-0.4123471999999999,1.074203,-0.07488033,0.009029284,0.6145215999999999,0.01461419,3.935305861274635e-05,1.758633,30.99015101100589
1,0.1170349,-0.004440308,0.993103,1.0,0.08627319,-0.004013062,0.9962616,-32.90355,0.5320587,-30.05426,4.138901000000001,0.5219473,0.5802748999999999,1.0,0.1280365,-0.004577637,0.991745,35.74435,3.5762480000000005,-28.514940000000003,4.649948,0.3732749,0.4603554,-0.4123471999999999,1.074203,-0.07488033,0.009029284,0.6145215999999999,0.01461419,3.935305861274635e-05,1.758633,30.99015101100589
1,0.1170349,-0.004440308,0.993103,1.0,0.08627319,-0.004013062,0.9962616,-32.90355,0.5320587,-30.05426,4.138901000000001,0.5219473,0.5802748999999999,1.0,0.1280365,-0.004577637,0.991745,35.74435,3.5762480000000005,-28.514940000000003,4.649948,0.3732749,0.4603554,-0.4128745,1.073776,-0.0740075,0.01034433,0.6108729,0.0128881,3.935305861274635e-05,1.758633,30.99015101100589
1,0.1170349,-0.004440308,0.993103,1.0,0.08627319,-0.004013062,0.9962616,-32.90355,0.5320587,-30.05426,4.138901000000001,0.5219473,0.5802748999999999,1.0,0.1280365,-0.004577637,0.991745,35.74435,3.5762480000000005,-28.514940000000003,4.649948,0.3732749,0.4603554,-0.4128745,1.073776,-0.0740075,0.01034433,0.6108729,0.0128881,3.935305861274635e-05,1.758633,30.99015101100589
1,0.1170349,-0.004440308,0.993103,1.0,0.08627319,-0.004013062,0.9962616,-32.90355,0.5320587,-30.05426,4.138901000000001,0.5219473,0.5802748999999999,1.0,0.1280365,-0.004577637,0.991745,35.74435,3.5762480000000005,-28.514940000000003,4.649948,0.3732749,0.4603554,-0.4128745,1.073776,-0.0740075,0.01034433,0.6108729,0.0128881,3.935305861274635e-05,1.758633,30.99015101100589
1,0.0932312,-0.0055236819999999,0.9956207,1.0,0.06338501,0.009506226,0.9979401,-33.094159999999995,0.5570221,-30.0414,4.022551999999999,0.5323024000000001,0.5768460999999999,1.0,0.09909058,-0.0084838869999999,0.9950409,35.595290000000006,3.592346,-28.52434,4.637802,0.3834079999999999,0.4605636999999999,-0.4132624,1.073302,-0.07327615,0.01205008,0.6082781999999999,0.01143265,3.935305861274635e-05,1.758633,30.99015101100589
1,0.0932312,-0.0055236819999999,0.9956207,1.0,0.06338501,0.009506226,0.9979401,-33.094159999999995,0.5570221,-30.0414,4.022551999999999,0.5323024000000001,0.5768460999999999,1.0,0.09909058,-0.0084838869999999,0.9950409,35.595290000000006,3.592346,-28.52434,4.637802,0.3834079999999999,0.4605636999999999,-0.4132624,1.073302,-0.07327615,0.01205008,0.6082781999999999,0.01143265,3.935305861274635e-05,1.758633,30.99015101100589
1,0.0932312,-0.0055236819999999,0.9956207,1.0,0.06338501,0.009506226,0.9979401,-33.094159999999995,0.5570221,-30.0414,4.022551999999999,0.5323024000000001,0.5768460999999999,1.0,0.09909058,-0.0084838869999999,0.9950409,35.595290000000006,3.592346,-28.52434,4.637802,0.3834079999999999,0.4605636999999999,-0.4132624,1.073302,-0.07327615,0.01205008,0.6082781999999999,0.01143265,3.935305861274635e-05,1.758633,30.99015101100589
1,0.05516052,0.006958008,0.9984436,1.0,0.05114746,0.00692749,0.9986572,-33.14996,0.6293945,-30.1423,3.918381,0.5363243000000001,0.5757194999999999,1.0,0.09927368,0.00730896,0.9950256,35.53558,3.505096,-28.17416,4.622681,0.3856797999999999,0.4577393,-0.413618,1.073085,-0.07261643,0.01306609,0.6053892,0.01167863,3.935305861274635e-05,-21.74251,30.99015101100589
1,0.05516052,0.006958008,0.9984436,1.0,0.05114746,0.00692749,0.9986572,-33.14996,0.6293945,-30.1423,3.918381,0.5363243000000001,0.5757194999999999,1.0,0.09927368,0.00730896,0.9950256,35.53558,3.505096,-28.17416,4.622681,0.3856797999999999,0.4577393,-0.413618,1.073085,-0.07261643,0.01306609,0.6053892,0.01167863,3.935305861274635e-05,-21.74251,30.99015101100589
1,0.05516052,0.006958008,0.9984436,1.0,0.05114746,0.00692749,0.9986572,-33.14996,0.6293945,-30.1423,3.918381,0.5363243000000001,0.5757194999999999,1.0,0.09927368,0.00730896,0.9950256,35.53558,3.505096,-28.17416,4.622681,0.3856797999999999,0.4577393,-0.413618,1.073085,-0.07261643,0.01306609,0.6053892,0.01167863,3.935305861274635e-05,-21.74251,30.99015101100589
1,0.05058289,0.009658813,0.9986725,1.0,0.04507446,0.00881958,0.9989319,-33.1922,0.6496887,-30.14328,3.928665,0.5388038,0.5747294,1.0,0.07785034,0.0138092,0.9968567,35.49879,3.562775,-28.35432,4.701416,0.3904848,0.4563029,-0.4138688,1.072851,-0.07187709,0.01382119,0.6017494999999999,0.01220612,3.935305861274635e-05,-21.74251,30.99015101100589
1,0.05058289,0.009658813,0.9986725,1.0,0.04507446,0.00881958,0.9989319,-33.1922,0.6496887,-30.14328,3.928665,0.5388038,0.5747294,1.0,0.07785034,0.0138092,0.9968567,35.49879,3.562775,-28.35432,4.701416,0.3904848,0.4563029,-0.4138688,1.072851,-0.07187709,0.01382119,0.6017494999999999,0.01220612,3.935305861274635e-05,-21.74251,30.99015101100589
1,0.05058289,0.009658813,0.9986725,1.0,0.04507446,0.00881958,0.9989319,-33.1922,0.6496887,-30.14328,3.928665,0.5388038,0.5747294,1.0,0.07785034,0.0138092,0.9968567,35.49879,3.562775,-28.35432,4.701416,0.3904848,0.4563029,-0.4138688,1.072851,-0.07187709,0.01382119,0.6017494999999999,0.01220612,3.935305861274635e-05,-21.74251,30.99015101100589
1,0.02957153,0.009216309,0.9995117,1.0,0.0295105,0.009216309,0.9995117,-33.26331,0.5652465999999999,-29.861420000000003,4.078933999999999,0.5437557,0.5749118000000001,1.0,0.05282593,0.009490967,0.9985504,35.43741,3.781342,-29.13126,4.639343,0.3963714,0.4564342999999999,-0.4141053,1.072779,-0.07080862,0.01436078,0.5971974,0.01261643,3.935305861274635e-05,-21.74251,30.99015101100589
1,0.02957153,0.009216309,0.9995117,1.0,0.0295105,0.009216309,0.9995117,-33.26331,0.5652465999999999,-29.861420000000003,4.078933999999999,0.5437557,0.5749118000000001,1.0,0.05282593,0.009490967,0.9985504,35.43741,3.781342,-29.13126,4.639343,0.3963714,0.4564342999999999,-0.4141053,1.072779,-0.07080862,0.01436078,0.5971974,0.01261643,3.935305861274635e-05,-21.74251,30.99015101100589
1,0.02957153,0.009216309,0.9995117,1.0,0.0295105,0.009216309,0.9995117,-33.26331,0.5652465999999999,-29.861420000000003,4.078933999999999,0.5437557,0.5749118000000001,1.0,0.05282593,0.009490967,0.9985504,35.43741,3.781342,-29.13126,4.639343,0.3963714,0.4564342999999999,-0.4141053,1.072779,-0.07080862,0.01436078,0.5971974,0.01261643,3.935305861274635e-05,-21.74251,30.99015101100589
1,0.01812744,0.00163269,0.9998322,1.0,0.01797485,0.00163269,0.9998322,-33.31987,0.7089844,-30.28952,4.114288,0.5479114,0.5755751,1.0,0.04231262,0.00151062,0.9990997,35.38448,3.851715,-29.44778,4.542374,0.3998143,0.4581789,-0.4143754,1.072555,-0.06959988,0.01564192,0.5902797,0.01418145,3.935305861274635e-05,-21.74251,30.99015101100589
1,0.01812744,0.00163269,0.9998322,1.0,0.01797485,0.00163269,0.9998322,-33.31987,0.7089844,-30.28952,4.114288,0.5479114,0.5755751,1.0,0.04231262,0.00151062,0.9990997,35.38448,3.851715,-29.44778,4.542374,0.3998143,0.4581789,-0.4143754,1.072555,-0.06959988,0.01564192,0.5902797,0.01418145,3.935305861274635e-05,-21.74251,30.99015101100589
1,0.01812744,0.00163269,0.9998322,1.0,0.01797485,0.00163269,0.9998322,-33.31987,0.7089844,-30.28952,4.114288,0.5479114,0.5755751,1.0,0.04231262,0.00151062,0.9990997,35.38448,3.851715,-29.44778,4.542374,0.3998143,0.4581789,-0.4143754,1.072555,-0.06959988,0.01564192,0.5902797,0.01418145,3.935305861274635e-05,-21.74251,30.99015101100589
1,0.01812744,0.00163269,0.9998322,1.0,0.01797485,0.00163269,0.9998322,-33.31987,0.7089844,-30.28952,4.114288,0.5479114,0.5755751,1.0,0.04231262,0.00151062,0.9990997,35.38448,3.851715,-29.44778,4.542374,0.3998143,0.4581789,-0.4149100999999999,1.072835,-0.06713966,0.01611559,0.5759858,0.02019996,3.935305861274635e-05,-4.182365,30.99015101100589
1,0.01812744,0.00163269,0.9998322,1.0,0.01797485,0.00163269,0.9998322,-33.31987,0.7089844,-30.28952,4.114288,0.5479114,0.5755751,1.0,0.04231262,0.00151062,0.9990997,35.38448,3.851715,-29.44778,4.542374,0.3998143,0.4581789,-0.4149100999999999,1.072835,-0.06713966,0.01611559,0.5759858,0.02019996,3.935305861274635e-05,-4.182365,30.99015101100589
1,0.01812744,0.00163269,0.9998322,1.0,0.01797485,0.00163269,0.9998322,-33.31987,0.7089844,-30.28952,4.114288,0.5479114,0.5755751,1.0,0.04231262,0.00151062,0.9990997,35.38448,3.851715,-29.44778,4.542374,0.3998143,0.4581789,-0.4149100999999999,1.072835,-0.06713966,0.01611559,0.5759858,0.02019996,3.935305861274635e-05,-4.182365,30.99015101100589
1,0.01812744,0.00163269,0.9998322,1.0,0.01797485,0.00163269,0.9998322,-33.31987,0.7089844,-30.28952,4.114288,0.5479114,0.5755751,1.0,0.04231262,0.00151062,0.9990997,35.38448,3.851715,-29.44778,4.542374,0.3998143,0.4581789,-0.4164308,1.073166,-0.06320587,0.01478916,0.553726,0.02237186,3.935305861274635e-05,-4.182365,30.99015101100589
1,0.01812744,0.00163269,0.9998322,1.0,0.01797485,0.00163269,0.9998322,-33.31987,0.7089844,-30.28952,4.114288,0.5479114,0.5755751,1.0,0.04231262,0.00151062,0.9990997,35.38448,3.851715,-29.44778,4.542374,0.3998143,0.4581789,-0.4164308,1.073166,-0.06320587,0.01478916,0.553726,0.02237186,3.935305861274635e-05,-4.182365,30.99015101100589
1,0.01812744,0.00163269,0.9998322,1.0,0.01797485,0.00163269,0.9998322,-33.31987,0.7089844,-30.28952,4.114288,0.5479114,0.5755751,1.0,0.04231262,0.00151062,0.9990997,35.38448,3.851715,-29.44778,4.542374,0.3998143,0.4581789,-0.4164308,1.073166,-0.06320587,0.01478916,0.553726,0.02237186,3.935305861274635e-05,-4.182365,30.99015101100589
1,0.1788025,0.01620483,0.9837494,1.0,0.1784363,0.01611328,0.9838104,-32.10138,0.7003937,-30.29716,3.980759,0.478758,0.5735613,1.0,0.2332611,0.03057861,0.9719238,36.53917,3.716797,-28.8755,4.699341,0.3267826,0.4527167,-0.4185241,1.07295,-0.0590544,0.01391307,0.5288571999999999,0.02059392,3.935305861274635e-05,-4.182365,30.99015101100589
1,0.1788025,0.01620483,0.9837494,1.0,0.1784363,0.01611328,0.9838104,-32.10138,0.7003937,-30.29716,3.980759,0.478758,0.5735613,1.0,0.2332611,0.03057861,0.9719238,36.53917,3.716797,-28.8755,4.699341,0.3267826,0.4527167,-0.4185241,1.07295,-0.0590544,0.01391307,0.5288571999999999,0.02059392,3.935305861274635e-05,-4.182365,30.99015101100589
1,0.1788025,0.01620483,0.9837494,1.0,0.1784363,0.01611328,0.9838104,-32.10138,0.7003937,-30.29716,3.980759,0.478758,0.5735613,1.0,0.2332611,0.03057861,0.9719238,36.53917,3.716797,-28.8755,4.699341,0.3267826,0.4527167,-0.4185241,1.07295,-0.0590544,0.01391307,0.5288571999999999,0.02059392,3.935305861274635e-05,-4.182365,30.99015101100589
1,0.1344452,0.02148438,0.9906769,1.0,0.1213989,0.02340698,0.9923248,-32.56821,0.6343536,-30.40555,4.078156,0.5045575,0.5755045,1.0,0.1626128999999999,0.01730347,0.9865265,36.0744,3.641205,-28.85812,4.677048,0.3554935,0.4573751,-0.4208031,1.0720610000000002,-0.05601929,0.01501366,0.5075625,0.01667545,3.935305861274635e-05,-4.182365,30.99015101100589
1,0.1344452,0.02148438,0.9906769,1.0,0.1213989,0.02340698,0.9923248,-32.56821,0.6343536,-30.40555,4.078156,0.5045575,0.5755045,1.0,0.1626128999999999,0.01730347,0.9865265,36.0744,3.641205,-28.85812,4.677048,0.3554935,0.4573751,-0.4208031,1.0720610000000002,-0.05601929,0.01501366,0.5075625,0.01667545,3.935305861274635e-05,-4.182365,30.99015101100589
1,0.1344452,0.02148438,0.9906769,1.0,0.1213989,0.02340698,0.9923248,-32.56821,0.6343536,-30.40555,4.078156,0.5045575,0.5755045,1.0,0.1626128999999999,0.01730347,0.9865265,36.0744,3.641205,-28.85812,4.677048,0.3554935,0.4573751,-0.4208031,1.0720610000000002,-0.05601929,0.01501366,0.5075625,0.01667545,3.935305861274635e-05,-4.182365,30.99015101100589
1,0.06256104,0.02165222,0.9978027,1.0,0.06196594,0.02210999,0.9978333,-33.03033,0.5664520000000001,-30.16168,4.0740050000000005,0.5304241,0.5755754,1.0,0.08573914,0.004379272,0.9963074,35.67439,3.889481,-29.67137,4.702133,0.3820560999999999,0.458358,-0.4226323,1.071443,-0.05412248,0.01720585,0.4920429,0.01453355,3.935305861274635e-05,-4.182365,30.99015101100589
1,0.06256104,0.02165222,0.9978027,1.0,0.06196594,0.02210999,0.9978333,-33.03033,0.5664520000000001,-30.16168,4.0740050000000005,0.5304241,0.5755754,1.0,0.08573914,0.004379272,0.9963074,35.67439,3.889481,-29.67137,4.702133,0.3820560999999999,0.458358,-0.4226323,1.071443,-0.05412248,0.01720585,0.4920429,0.01453355,3.935305861274635e-05,-4.182365,30.99015101100589
1,0.06256104,0.02165222,0.9978027,1.0,0.06196594,0.02210999,0.9978333,-33.03033,0.5664520000000001,-30.16168,4.0740050000000005,0.5304241,0.5755754,1.0,0.08573914,0.004379272,0.9963074,35.67439,3.889481,-29.67137,4.702133,0.3820560999999999,0.458358,-0.4226323,1.071443,-0.05412248,0.01720585,0.4920429,0.01453355,3.935305861274635e-05,-4.182365,30.99015101100589
1,0.02151489,0.01602173,0.9996338,1.0,0.02151489,0.01602173,0.9996338,-33.38908,0.5754241999999999,-30.097240000000003,4.099883999999999,0.5495496,0.5757604000000001,1.0,0.06169128,0.02349854,0.997818,35.242,3.4455720000000003,-27.95679,4.727233999999999,0.4023183,0.4552449999999999,-0.4237567,1.070966,-0.05341099,0.01997333,0.4826119,0.01432962,3.935305861274635e-05,22.73808,30.99015101100589
1,0.02151489,0.01602173,0.9996338,1.0,0.02151489,0.01602173,0.9996338,-33.38908,0.5754241999999999,-30.097240000000003,4.099883999999999,0.5495496,0.5757604000000001,1.0,0.06169128,0.02349854,0.997818,35.242,3.4455720000000003,-27.95679,4.727233999999999,0.4023183,0.4552449999999999,-0.4237567,1.070966,-0.05341099,0.01997333,0.4826119,0.01432962,3.935305861274635e-05,22.73808,30.99015101100589
1,0.02151489,0.01602173,0.9996338,1.0,0.02151489,0.01602173,0.9996338,-33.38908,0.5754241999999999,-30.097240000000003,4.099883999999999,0.5495496,0.5757604000000001,1.0,0.06169128,0.02349854,0.997818,35.242,3.4455720000000003,-27.95679,4.727233999999999,0.4023183,0.4552449999999999,-0.4237567,1.070966,-0.05341099,0.01997333,0.4826119,0.01432962,3.935305861274635e-05,22.73808,30.99015101100589
1,-0.03392029,0.01391602,0.9993134,1.0,-0.03440857,0.01382446,0.9992981,-33.67966,0.3818512,-29.31425,4.180756,0.5684226,0.5752387,1.0,0.01824951,0.02400208,0.9995421999999998,34.911770000000004,3.469757,-27.9906,4.780777,0.4209619,0.4548058,-0.4242269,1.07069,-0.05333234,0.02322706,0.4766608,0.01729655,3.935305861274635e-05,22.73808,30.99015101100589
1,-0.03392029,0.01391602,0.9993134,1.0,-0.03440857,0.01382446,0.9992981,-33.67966,0.3818512,-29.31425,4.180756,0.5684226,0.5752387,1.0,0.01824951,0.02400208,0.9995421999999998,34.911770000000004,3.469757,-27.9906,4.780777,0.4209619,0.4548058,-0.4242269,1.07069,-0.05333234,0.02322706,0.4766608,0.01729655,3.935305861274635e-05,22.73808,30.99015101100589
1,-0.03392029,0.01391602,0.9993134,1.0,-0.03440857,0.01382446,0.9992981,-33.67966,0.3818512,-29.31425,4.180756,0.5684226,0.5752387,1.0,0.01824951,0.02400208,0.9995421999999998,34.911770000000004,3.469757,-27.9906,4.780777,0.4209619,0.4548058,-0.4242269,1.07069,-0.05333234,0.02322706,0.4766608,0.01729655,3.935305861274635e-05,22.73808,30.99015101100589
1,-0.001296997,0.01982117,0.9998016,1.0,-0.04917908,0.01885986,0.9985962,-33.7455,0.3973236,-29.347490000000004,4.188828,0.5731931,0.5742218000000001,1.0,-0.0005950928,0.01983643,0.9998016,34.8647,3.402771,-27.79826,4.787903,0.4258167,0.4561310999999999,-0.4246805999999999,1.07001,-0.05348283,0.02804909,0.4714594,0.01991505,3.935305861274635e-05,22.73808,30.99015101100589
1,-0.001296997,0.01982117,0.9998016,1.0,-0.04917908,0.01885986,0.9985962,-33.7455,0.3973236,-29.347490000000004,4.188828,0.5731931,0.5742218000000001,1.0,-0.0005950928,0.01983643,0.9998016,34.8647,3.402771,-27.79826,4.787903,0.4258167,0.4561310999999999,-0.4246805999999999,1.07001,-0.05348283,0.02804909,0.4714594,0.01991505,3.935305861274635e-05,22.73808,30.99015101100589
1,-0.001296997,0.01982117,0.9998016,1.0,-0.04917908,0.01885986,0.9985962,-33.7455,0.3973236,-29.347490000000004,4.188828,0.5731931,0.5742218000000001,1.0,-0.0005950928,0.01983643,0.9998016,34.8647,3.402771,-27.79826,4.787903,0.4258167,0.4561310999999999,-0.4246805999999999,1.07001,-0.05348283,0.02804909,0.4714594,0.01991505,3.935305861274635e-05,22.73808,30.99015101100589
1,-0.06352234,0.03877258,0.9972229,1.0,-0.07992554,0.04063416,0.9959564,-33.89154,0.2905120999999999,-29.13701,4.092194,0.5832198000000001,0.5721142,1.0,-0.04621887,0.03678894,0.9982452,34.7794,3.346191,-27.54736,4.831116000000001,0.4365023,0.4531534,-0.4250555,1.069237,-0.05417314,0.03181519,0.4687235999999999,0.0196680999999999,3.935305861274635e-05,22.73808,30.99015101100589
1,-0.06352234,0.03877258,0.9972229,1.0,-0.07992554,0.04063416,0.9959564,-33.89154,0.2905120999999999,-29.13701,4.092194,0.5832198000000001,0.5721142,1.0,-0.04621887,0.03678894,0.9982452,34.7794,3.346191,-27.54736,4.831116000000001,0.4365023,0.4531534,-0.4250555,1.069237,-0.05417314,0.03181519,0.4687235999999999,0.0196680999999999,3.935305861274635e-05,22.73808,30.99015101100589
1,-0.06352234,0.03877258,0.9972229,1.0,-0.07992554,0.04063416,0.9959564,-33.89154,0.2905120999999999,-29.13701,4.092194,0.5832198000000001,0.5721142,1.0,-0.04621887,0.03678894,0.9982452,34.7794,3.346191,-27.54736,4.831116000000001,0.4365023,0.4531534,-0.4250555,1.069237,-0.05417314,0.03181519,0.4687235999999999,0.0196680999999999,3.935305861274635e-05,22.73808,30.99015101100589
1,0.1186981,0.03384399,0.9923401,1.0,0.05770874,0.03108215,0.9978485,-33.09686,0.7522278,-30.25175,4.162659,0.5334858,0.5686911,1.0,0.1192168999999999,0.03387451,0.9922791,35.481120000000004,3.874557,-28.922490000000003,4.698119999999999,0.3836737,0.4473241,-0.4252095999999999,1.068983,-0.05495557,0.03452174,0.4660585,0.02095951,3.935305861274635e-05,22.73808,30.99015101100589
1,0.1186981,0.03384399,0.9923401,1.0,0.05770874,0.03108215,0.9978485,-33.09686,0.7522278,-30.25175,4.162659,0.5334858,0.5686911,1.0,0.1192168999999999,0.03387451,0.9922791,35.481120000000004,3.874557,-28.922490000000003,4.698119999999999,0.3836737,0.4473241,-0.4252095999999999,1.068983,-0.05495557,0.03452174,0.4660585,0.02095951,3.935305861274635e-05,22.73808,30.99015101100589
1,0.1186981,0.03384399,0.9923401,1.0,0.05770874,0.03108215,0.9978485,-33.09686,0.7522278,-30.25175,4.162659,0.5334858,0.5686911,1.0,0.1192168999999999,0.03387451,0.9922791,35.481120000000004,3.874557,-28.922490000000003,4.698119999999999,0.3836737,0.4473241,-0.4252095999999999,1.068983,-0.05495557,0.03452174,0.4660585,0.02095951,3.935305861274635e-05,22.73808,30.99015101100589
1,0.1160889,0.04957581,0.9919891,1.0,0.06617737,0.04176331,0.9969177,-33.11638,0.6699066,-29.95564,4.201416,0.5325713000000001,0.5668234999999999,1.0,0.116272,0.04960632,0.9919739,35.465709999999994,3.603180000000001,-27.92453,4.658051,0.3854024,0.4451102,-0.4253757999999999,1.068608,-0.05578472,0.03637142,0.4641031,0.02141873,3.935305861274635e-05,17.08456,31.97
1,0.1160889,0.04957581,0.9919891,1.0,0.06617737,0.04176331,0.9969177,-33.11638,0.6699066,-29.95564,4.201416,0.5325713000000001,0.5668234999999999,1.0,0.116272,0.04960632,0.9919739,35.465709999999994,3.603180000000001,-27.92453,4.658051,0.3854024,0.4451102,-0.4253757999999999,1.068608,-0.05578472,0.03637142,0.4641031,0.02141873,3.935305861274635e-05,17.08456,31.97
1,0.1160889,0.04957581,0.9919891,1.0,0.06617737,0.04176331,0.9969177,-33.11638,0.6699066,-29.95564,4.201416,0.5325713000000001,0.5668234999999999,1.0,0.116272,0.04960632,0.9919739,35.465709999999994,3.603180000000001,-27.92453,4.658051,0.3854024,0.4451102,-0.4253757999999999,1.068608,-0.05578472,0.03637142,0.4641031,0.02141873,3.935305861274635e-05,17.08456,31.97
1,0.05844116,0.0428772,0.9973602,1.0,0.0521697999999999,0.04089355,0.9977875,-33.20712,0.6594543,-29.84483,4.178406,0.5379853,0.5662222,1.0,0.09396362,0.05410767,0.9940948,35.42119,3.693893,-28.16052,4.715225,0.3905855,0.4433357,-0.4256192,1.068273,-0.05682726,0.03721363,0.4631941,0.02084295,3.935305861274635e-05,17.08456,31.97
1,0.05844116,0.0428772,0.9973602,1.0,0.0521697999999999,0.04089355,0.9977875,-33.20712,0.6594543,-29.84483,4.178406,0.5379853,0.5662222,1.0,0.09396362,0.05410767,0.9940948,35.42119,3.693893,-28.16052,4.715225,0.3905855,0.4433357,-0.4256192,1.068273,-0.05682726,0.03721363,0.4631941,0.02084295,3.935305861274635e-05,17.08456,31.97
1,0.05844116,0.0428772,0.9973602,1.0,0.0521697999999999,0.04089355,0.9977875,-33.20712,0.6594543,-29.84483,4.178406,0.5379853,0.5662222,1.0,0.09396362,0.05410767,0.9940948,35.42119,3.693893,-28.16052,4.715225,0.3905855,0.4433357,-0.4256192,1.068273,-0.05682726,0.03721363,0.4631941,0.02084295,3.935305861274635e-05,17.08456,31.97
1,0.03105164,0.04954529,0.9982758,1.0,0.03105164,0.04954529,0.9982758,-33.28163,0.6218719,-29.68369,4.164902,0.5440173,0.5644414000000001,1.0,0.0594635,0.04299927,0.9972992,35.436890000000005,4.106537,-29.68015,4.638672,0.394945,0.4443539000000001,-0.425493,1.068063,-0.05822806,0.03814438,0.4641416,0.01995579,3.935305861274635e-05,17.08456,31.97
1,0.03105164,0.04954529,0.9982758,1.0,0.03105164,0.04954529,0.9982758,-33.28163,0.6218719,-29.68369,4.164902,0.5440173,0.5644414000000001,1.0,0.0594635,0.04299927,0.9972992,35.436890000000005,4.106537,-29.68015,4.638672,0.394945,0.4443539000000001,-0.425493,1.068063,-0.05822806,0.03814438,0.4641416,0.01995579,3.935305861274635e-05,17.08456,31.97
1,0.03105164,0.04954529,0.9982758,1.0,0.03105164,0.04954529,0.9982758,-33.28163,0.6218719,-29.68369,4.164902,0.5440173,0.5644414000000001,1.0,0.0594635,0.04299927,0.9972992,35.436890000000005,4.106537,-29.68015,4.638672,0.394945,0.4443539000000001,-0.425493,1.068063,-0.05822806,0.03814438,0.4641416,0.01995579,3.935305861274635e-05,17.08456,31.97
1,0.03129578,0.05027771,0.99823,1.0,0.03129578,0.05027771,0.99823,-33.30194,0.6542053000000001,-29.72536,4.132217,0.5446835,0.5635996,1.0,0.05496216,0.03884888,0.9977264,35.43164,4.128952,-29.74133,4.617416,0.3958658,0.4448245,-0.4252782,1.067973,-0.059797,0.03851062,0.4656909999999999,0.01904727,3.935305861274635e-05,17.08456,31.97
1,0.03129578,0.05027771,0.99823,1.0,0.03129578,0.05027771,0.99823,-33.30194,0.6542053000000001,-29.72536,4.132217,0.5446835,0.5635996,1.0,0.05496216,0.03884888,0.9977264,35.43164,4.128952,-29.74133,4.617416,0.3958658,0.4448245,-0.4252782,1.067973,-0.059797,0.03851062,0.4656909999999999,0.01904727,3.935305861274635e-05,17.08456,31.97
1,0.03129578,0.05027771,0.99823,1.0,0.03129578,0.05027771,0.99823,-33.30194,0.6542053000000001,-29.72536,4.132217,0.5446835,0.5635996,1.0,0.05496216,0.03884888,0.9977264,35.43164,4.128952,-29.74133,4.617416,0.3958658,0.4448245,-0.4252782,1.067973,-0.059797,0.03851062,0.4656909999999999,0.01904727,3.935305861274635e-05,17.08456,31.97
1,0.04064941,0.04473877,0.9981689,1.0,0.02781677,0.05004883,0.9983521,-33.3158,0.6643829000000001,-29.7466,4.183533000000001,0.5457681999999999,0.5635486999999999,1.0,0.05271912,0.03974915,0.9978027,35.4225,4.124405,-29.72014,4.618988,0.3965881,0.4446424,-0.4249693,1.067929,-0.06154864,0.0383361,0.468955,0.01729483,3.935305861274635e-05,17.08456,31.97
1,0.04064941,0.04473877,0.9981689,1.0,0.02781677,0.05004883,0.9983521,-33.3158,0.6643829000000001,-29.7466,4.183533000000001,0.5457681999999999,0.5635486999999999,1.0,0.05271912,0.03974915,0.9978027,35.4225,4.124405,-29.72014,4.618988,0.3965881,0.4446424,-0.4249693,1.067929,-0.06154864,0.0383361,0.468955,0.01729483,3.935305861274635e-05,17.08456,31.97
1,0.04064941,0.04473877,0.9981689,1.0,0.02781677,0.05004883,0.9983521,-33.3158,0.6643829000000001,-29.7466,4.183533000000001,0.5457681999999999,0.5635486999999999,1.0,0.05271912,0.03974915,0.9978027,35.4225,4.124405,-29.72014,4.618988,0.3965881,0.4446424,-0.4249693,1.067929,-0.06154864,0.0383361,0.468955,0.01729483,3.935305861274635e-05,17.08456,31.97
2,0.02923584,0.05000305,0.9983063,1.0,0.02923584,0.05000305,0.9983063,-33.32593,0.6667328,-29.74336,4.194717,0.5458729999999999,0.5634670999999999,1.0,0.0670929,0.04963684,0.9965057,35.37633,3.678329,-28.13496,4.69313,0.396726,0.4443817,-0.424491,1.068062,-0.06356114,0.03766794,0.4732573,0.01617927,3.935305861274635e-05,17.08456,31.97
2,0.02923584,0.05000305,0.9983063,1.0,0.02923584,0.05000305,0.9983063,-33.32593,0.6667328,-29.74336,4.194717,0.5458729999999999,0.5634670999999999,1.0,0.0670929,0.04963684,0.9965057,35.37633,3.678329,-28.13496,4.69313,0.396726,0.4443817,-0.424491,1.068062,-0.06356114,0.03766794,0.4732573,0.01617927,3.935305861274635e-05,17.08456,31.97
2,0.02923584,0.05000305,0.9983063,1.0,0.02923584,0.05000305,0.9983063,-33.32593,0.6667328,-29.74336,4.194717,0.5458729999999999,0.5634670999999999,1.0,0.0670929,0.04963684,0.9965057,35.37633,3.678329,-28.13496,4.69313,0.396726,0.4443817,-0.424491,1.068062,-0.06356114,0.03766794,0.4732573,0.01617927,3.935305861274635e-05,17.08456,31.97
2,0.02830505,0.04954529,0.9983673,1.0,0.02830505,0.04954529,0.9983673,-33.31918,0.6653441999999999,-29.72746,4.1920470000000005,0.5457922,0.5634355999999999,1.0,0.06486511,0.05293274,0.9964752,35.39014,3.676315,-28.12776,4.706726000000001,0.3966338,0.443835,-0.4239824,1.068108,-0.06562167,0.03737087,0.4779385999999999,0.01474021,3.935305861274635e-05,-20.29518,31.97
2,0.02830505,0.04954529,0.9983673,1.0,0.02830505,0.04954529,0.9983673,-33.31918,0.6653441999999999,-29.72746,4.1920470000000005,0.5457922,0.5634355999999999,1.0,0.06486511,0.05293274,0.9964752,35.39014,3.676315,-28.12776,4.706726000000001,0.3966338,0.443835,-0.4239824,1.068108,-0.06562167,0.03737087,0.4779385999999999,0.01474021,3.935305861274635e-05,-20.29518,31.97
2,0.02830505,0.04954529,0.9983673,1.0,0.02830505,0.04954529,0.9983673,-33.31918,0.6653441999999999,-29.72746,4.1920470000000005,0.5457922,0.5634355999999999,1.0,0.06486511,0.05293274,0.9964752,35.39014,3.676315,-28.12776,4.706726000000001,0.3966338,0.443835,-0.4239824,1.068108,-0.06562167,0.03737087,0.4779385999999999,0.01474021,3.935305861274635e-05,-20.29518,31.97
2,0.02828979,0.04830933,0.9984283000000002,1.0,0.02822876,0.04832458,0.9984283000000002,-33.31918,0.6653441999999999,-29.70753,4.189026,0.5457922,0.5634355999999999,1.0,0.0549469,0.04670715,0.9973907,35.48404,4.052887,-29.44032,4.6532290000000005,0.3942875,0.4434767,-0.4232551999999999,1.068181,-0.06753775,0.03664326,0.483102,0.01361344,3.935305861274635e-05,-20.29518,31.97
2,0.02828979,0.04830933,0.9984283000000002,1.0,0.02822876,0.04832458,0.9984283000000002,-33.31918,0.6653441999999999,-29.70753,4.189026,0.5457922,0.5634355999999999,1.0,0.0549469,0.04670715,0.9973907,35.48404,4.052887,-29.44032,4.6532290000000005,0.3942875,0.4434767,-0.4232551999999999,1.068181,-0.06753775,0.03664326,0.483102,0.01361344,3.935305861274635e-05,-20.29518,31.97
2,0.02828979,0.04830933,0.9984283000000002,1.0,0.02822876,0.04832458,0.9984283000000002,-33.31918,0.6653441999999999,-29.70753,4.189026,0.5457922,0.5634355999999999,1.0,0.0549469,0.04670715,0.9973907,35.48404,4.052887,-29.44032,4.6532290000000005,0.3942875,0.4434767,-0.4232551999999999,1.068181,-0.06753775,0.03664326,0.483102,0.01361344,3.935305861274635e-05,-20.29518,31.97
2,0.04716492,0.04240417,0.9979858,1.0,0.04716492,0.04240417,0.9979858,-33.23073,0.6350708,-29.60301,4.176453,0.5395134,0.564441,1.0,0.06111145,0.04898071,0.9969177,35.53983,4.007401,-29.26282,4.573532,0.3913618,0.4429666,-0.4225582,1.068129,-0.06961356,0.03635872,0.4885488,0.01189105,3.935305861274635e-05,-20.29518,31.97
2,0.04716492,0.04240417,0.9979858,1.0,0.04716492,0.04240417,0.9979858,-33.23073,0.6350708,-29.60301,4.176453,0.5395134,0.564441,1.0,0.06111145,0.04898071,0.9969177,35.53983,4.007401,-29.26282,4.573532,0.3913618,0.4429666,-0.4225582,1.068129,-0.06961356,0.03635872,0.4885488,0.01189105,3.935305861274635e-05,-20.29518,31.97
2,0.04716492,0.04240417,0.9979858,1.0,0.04716492,0.04240417,0.9979858,-33.23073,0.6350708,-29.60301,4.176453,0.5395134,0.564441,1.0,0.06111145,0.04898071,0.9969177,35.53983,4.007401,-29.26282,4.573532,0.3913618,0.4429666,-0.4225582,1.068129,-0.06961356,0.03635872,0.4885488,0.01189105,3.935305861274635e-05,-20.29518,31.97
2,-0.1466675,0.016922,0.9890289,1.0,-0.1466827,0.016922,0.9890289,-34.16191,0.3575744999999999,-29.43303,4.220932,0.6041116999999999,0.5773219,1.0,-0.09481812,-0.0241394,0.9951935,34.18512,3.436584,-28.60162,4.521973,0.4647615,0.469946,-0.4217462999999999,1.067868,-0.07173967,0.03650086,0.4947622999999999,0.008833034,3.935305861274635e-05,-20.29518,31.97
2,-0.1466675,0.016922,0.9890289,1.0,-0.1466827,0.016922,0.9890289,-34.16191,0.3575744999999999,-29.43303,4.220932,0.6041116999999999,0.5773219,1.0,-0.09481812,-0.0241394,0.9951935,34.18512,3.436584,-28.60162,4.521973,0.4647615,0.469946,-0.4217462999999999,1.067868,-0.07173967,0.03650086,0.4947622999999999,0.008833034,3.935305861274635e-05,-20.29518,31.97
2,-0.1466675,0.016922,0.9890289,1.0,-0.1466827,0.016922,0.9890289,-34.16191,0.3575744999999999,-29.43303,4.220932,0.6041116999999999,0.5773219,1.0,-0.09481812,-0.0241394,0.9951935,34.18512,3.436584,-28.60162,4.521973,0.4647615,0.469946,-0.4217462999999999,1.067868,-0.07173967,0.03650086,0.4947622999999999,0.008833034,3.935305861274635e-05,-20.29518,31.97
2,-0.3493195,-0.009277344,0.9369507,1.0,-0.3498688,-0.008895874,0.9367371,-35.058640000000004,0.4526367,-29.88622,4.348587,0.6713387,0.5857404,1.0,-0.2940521,-0.04664612,0.9546356,33.19862,3.39061,-28.93475,4.422058,0.5328335999999999,0.4803639,-0.4206672000000001,1.067714,-0.07395731,0.03653942,0.502821,0.00584792,3.935305861274635e-05,-7.825089,31.97
2,-0.3493195,-0.009277344,0.9369507,1.0,-0.3498688,-0.008895874,0.9367371,-35.058640000000004,0.4526367,-29.88622,4.348587,0.6713387,0.5857404,1.0,-0.2940521,-0.04664612,0.9546356,33.19862,3.39061,-28.93475,4.422058,0.5328335999999999,0.4803639,-0.4206672000000001,1.067714,-0.07395731,0.03653942,0.502821,0.00584792,3.935305861274635e-05,-7.825089,31.97
2,-0.3493195,-0.009277344,0.9369507,1.0,-0.3498688,-0.008895874,0.9367371,-35.058640000000004,0.4526367,-29.88622,4.348587,0.6713387,0.5857404,1.0,-0.2940521,-0.04664612,0.9546356,33.19862,3.39061,-28.93475,4.422058,0.5328335999999999,0.4803639,-0.4206672000000001,1.067714,-0.07395731,0.03653942,0.502821,0.00584792,3.935305861274635e-05,-7.825089,31.97
2,-0.3198395,-0.05238342,0.9460144,1.0,-0.3501587,-0.04318237,0.9356842,-35.25928,0.3410645,-29.91988,4.431122,0.6784641,0.5960308000000001,1.0,-0.3140564,-0.05410767,0.9478455,33.14909,3.4390410000000005,-28.94231,4.613846,0.5378569000000001,0.4804723,-0.4193895,1.067544,-0.07723457,0.03656225,0.5151153,0.001956936,3.935305861274635e-05,-7.825089,31.97
2,-0.3198395,-0.05238342,0.9460144,1.0,-0.3501587,-0.04318237,0.9356842,-35.25928,0.3410645,-29.91988,4.431122,0.6784641,0.5960308000000001,1.0,-0.3140564,-0.05410767,0.9478455,33.14909,3.4390410000000005,-28.94231,4.613846,0.5378569000000001,0.4804723,-0.4193895,1.067544,-0.07723457,0.03656225,0.5151153,0.001956936,3.935305861274635e-05,-7.825089,31.97
2,-0.3198395,-0.05238342,0.9460144,1.0,-0.3501587,-0.04318237,0.9356842,-35.25928,0.3410645,-29.91988,4.431122,0.6784641,0.5960308000000001,1.0,-0.3140564,-0.05410767,0.9478455,33.14909,3.4390410000000005,-28.94231,4.613846,0.5378569000000001,0.4804723,-0.4193895,1.067544,-0.07723457,0.03656225,0.5151153,0.001956936,3.935305861274635e-05,-7.825089,31.97
2,-0.3005065999999999,-0.05169678,0.9523621,1.0,-0.3278656,-0.05076599,0.9433441,-35.318659999999994,0.3326874,-29.90735,4.40448,0.6765178000000001,0.597136,1.0,-0.2805480999999999,-0.05235291,0.9584045,33.15546,3.479874,-28.903990000000004,4.408188,0.5319706999999999,0.4778462999999999,-0.4170925999999999,1.0676709999999998,-0.08211792,0.03521712,0.5360672,-0.001970216,3.935305861274635e-05,-7.825089,31.97
2,-0.3005065999999999,-0.05169678,0.9523621,1.0,-0.3278656,-0.05076599,0.9433441,-35.318659999999994,0.3326874,-29.90735,4.40448,0.6765178000000001,0.597136,1.0,-0.2805480999999999,-0.05235291,0.9584045,33.15546,3.479874,-28.903990000000004,4.408188,0.5319706999999999,0.4778462999999999,-0.4170925999999999,1.0676709999999998,-0.08211792,0.03521712,0.5360672,-0.001970216,3.935305861274635e-05,-7.825089,31.97
2,-0.3005065999999999,-0.05169678,0.9523621,1.0,-0.3278656,-0.05076599,0.9433441,-35.318659999999994,0.3326874,-29.90735,4.40448,0.6765178000000001,0.597136,1.0,-0.2805480999999999,-0.05235291,0.9584045,33.15546,3.479874,-28.903990000000004,4.408188,0.5319706999999999,0.4778462999999999,-0.4170925999999999,1.0676709999999998,-0.08211792,0.03521712,0.5360672,-0.001970216,3.935305861274635e-05,-7.825089,31.97
2,-0.2484741,-0.02336121,0.9683533,1.0,-0.2770081,-0.0037078859999999,0.9608459,-35.13477,0.369278,-29.838520000000003,4.415497,0.6608998,0.5861593,1.0,-0.2161407,-0.0453186,0.975296,33.37608,3.531189,-28.825940000000003,4.618851,0.5131594,0.4735117999999999,-0.4144207,1.0679459999999998,-0.08809744,0.034557,0.5614927,-0.004098909,3.935305861274635e-05,-7.825089,31.97
2,-0.2484741,-0.02336121,0.9683533,1.0,-0.2770081,-0.0037078859999999,0.9608459,-35.13477,0.369278,-29.838520000000003,4.415497,0.6608998,0.5861593,1.0,-0.2161407,-0.0453186,0.975296,33.37608,3.531189,-28.825940000000003,4.618851,0.5131594,0.4735117999999999,-0.4144207,1.0679459999999998,-0.08809744,0.034557,0.5614927,-0.004098909,3.935305861274635e-05,-7.825089,31.97
2,-0.2484741,-0.02336121,0.9683533,1.0,-0.2770081,-0.0037078859999999,0.9608459,-35.13477,0.369278,-29.838520000000003,4.415497,0.6608998,0.5861593,1.0,-0.2161407,-0.0453186,0.975296,33.37608,3.531189,-28.825940000000003,4.618851,0.5131594,0.4735117999999999,-0.4144207,1.0679459999999998,-0.08809744,0.034557,0.5614927,-0.004098909,3.935305861274635e-05,-7.825089,31.97
2,-0.2408905,-0.0292510999999999,0.970108,1.0,-0.2653656,-0.02174377,0.9638977,-35.071459999999995,0.3573456,-29.80931,4.387482,0.6565734999999999,0.5892219,1.0,-0.2142334,-0.03735352,0.976059,33.46011,3.5126190000000004,-28.81076,4.671265,0.5099266,0.4726259,-0.4119895999999999,1.067849,-0.09473588,0.03412744,0.5894176999999999,-0.008798806,3.935305861274635e-05,-7.825089,31.97
2,-0.2408905,-0.0292510999999999,0.970108,1.0,-0.2653656,-0.02174377,0.9638977,-35.071459999999995,0.3573456,-29.80931,4.387482,0.6565734999999999,0.5892219,1.0,-0.2142334,-0.03735352,0.976059,33.46011,3.5126190000000004,-28.81076,4.671265,0.5099266,0.4726259,-0.4119895999999999,1.067849,-0.09473588,0.03412744,0.5894176999999999,-0.008798806,3.935305861274635e-05,-7.825089,31.97
2,-0.2408905,-0.0292510999999999,0.970108,1.0,-0.2653656,-0.02174377,0.9638977,-35.071459999999995,0.3573456,-29.80931,4.387482,0.6565734999999999,0.5892219,1.0,-0.2142334,-0.03735352,0.976059,33.46011,3.5126190000000004,-28.81076,4.671265,0.5099266,0.4726259,-0.4119895999999999,1.067849,-0.09473588,0.03412744,0.5894176999999999,-0.008798806,3.935305861274635e-05,-7.825089,31.97
2,-0.1517944,-0.02134705,0.9881744,1.0,-0.1763458,-0.01393127,0.9842224,-34.53833,0.3069763,-29.54874,4.220688,0.6222599,0.5857955,1.0,-0.1272887999999999,-0.02871704,0.9914398,34.045359999999995,3.5001830000000003,-28.71541,4.552917,0.4750581,0.4698201,-0.4102467000000001,1.067407,-0.1012926,0.03510891,0.6151996999999999,-0.01322943,3.935305861274635e-05,-7.825089,31.97
2,-0.1517944,-0.02134705,0.9881744,1.0,-0.1763458,-0.01393127,0.9842224,-34.53833,0.3069763,-29.54874,4.220688,0.6222599,0.5857955,1.0,-0.1272887999999999,-0.02871704,0.9914398,34.045359999999995,3.5001830000000003,-28.71541,4.552917,0.4750581,0.4698201,-0.4102467000000001,1.067407,-0.1012926,0.03510891,0.6151996999999999,-0.01322943,3.935305861274635e-05,-7.825089,31.97
2,-0.1517944,-0.02134705,0.9881744,1.0,-0.1763458,-0.01393127,0.9842224,-34.53833,0.3069763,-29.54874,4.220688,0.6222599,0.5857955,1.0,-0.1272887999999999,-0.02871704,0.9914398,34.045359999999995,3.5001830000000003,-28.71541,4.552917,0.4750581,0.4698201,-0.4102467000000001,1.067407,-0.1012926,0.03510891,0.6151996999999999,-0.01322943,3.935305861274635e-05,-7.825089,31.97
2,-0.08944702,-0.0243988,0.9956818,1.0,-0.1301117,0.005813599,0.9914703,-34.15894,0.01133728,-28.42833,4.300751,0.6001228,0.5810853,1.0,-0.0894165,-0.02442932,0.9956818,34.40453,3.400681,-28.36118,4.68428,0.4562968,0.4690707999999999,-0.4092679,1.06692,-0.1071229,0.03600867,0.6353954,-0.01619124,3.935305861274635e-05,59.69742,31.97
2,-0.08944702,-0.0243988,0.9956818,1.0,-0.1301117,0.005813599,0.9914703,-34.15894,0.01133728,-28.42833,4.300751,0.6001228,0.5810853,1.0,-0.0894165,-0.02442932,0.9956818,34.40453,3.400681,-28.36118,4.68428,0.4562968,0.4690707999999999,-0.4092679,1.06692,-0.1071229,0.03600867,0.6353954,-0.01619124,3.935305861274635e-05,59.69742,31.97
2,-0.08944702,-0.0243988,0.9956818,1.0,-0.1301117,0.005813599,0.9914703,-34.15894,0.01133728,-28.42833,4.300751,0.6001228,0.5810853,1.0,-0.0894165,-0.02442932,0.9956818,34.40453,3.400681,-28.36118,4.68428,0.4562968,0.4690707999999999,-0.4092679,1.06692,-0.1071229,0.03600867,0.6353954,-0.01619124,3.935305861274635e-05,59.69742,31.97
2,-0.06092834,-0.01237488,0.9980621,1.0,-0.0969696,-0.008148193,0.9952393,-33.97395,0.2989349,-29.21527,4.310928,0.5889528,0.581225,1.0,-0.06080627,-0.01239014,0.9980621,34.631,3.457504,-28.47641,4.555145,0.4437407999999999,0.4658357,-0.4084532999999999,1.066775,-0.112322,0.0329587,0.6539727,-0.02143551,3.935305861274635e-05,59.69742,31.97
2,-0.06092834,-0.01237488,0.9980621,1.0,-0.0969696,-0.008148193,0.9952393,-33.97395,0.2989349,-29.21527,4.310928,0.5889528,0.581225,1.0,-0.06080627,-0.01239014,0.9980621,34.631,3.457504,-28.47641,4.555145,0.4437407999999999,0.4658357,-0.4084532999999999,1.066775,-0.112322,0.0329587,0.6539727,-0.02143551,3.935305861274635e-05,59.69742,31.97
2,-0.06092834,-0.01237488,0.9980621,1.0,-0.0969696,-0.008148193,0.9952393,-33.97395,0.2989349,-29.21527,4.310928,0.5889528,0.581225,1.0,-0.06080627,-0.01239014,0.9980621,34.631,3.457504,-28.47641,4.555145,0.4437407999999999,0.4658357,-0.4084532999999999,1.066775,-0.112322,0.0329587,0.6539727,-0.02143551,3.935305861274635e-05,59.69742,31.97
2,-0.06092834,-0.01237488,0.9980621,1.0,-0.0969696,-0.008148193,0.9952393,-33.97395,0.2989349,-29.21527,4.310928,0.5889528,0.581225,1.0,-0.06080627,-0.01239014,0.9980621,34.631,3.457504,-28.47641,4.555145,0.4437407999999999,0.4658357,-0.4080372,1.066971,-0.1170818,0.02874322,0.6692674,-0.02498911,3.935305861274635e-05,59.69742,31.97
2,-0.06092834,-0.01237488,0.9980621,1.0,-0.0969696,-0.008148193,0.9952393,-33.97395,0.2989349,-29.21527,4.310928,0.5889528,0.581225,1.0,-0.06080627,-0.01239014,0.9980621,34.631,3.457504,-28.47641,4.555145,0.4437407999999999,0.4658357,-0.4080372,1.066971,-0.1170818,0.02874322,0.6692674,-0.02498911,3.935305861274635e-05,59.69742,31.97
2,-0.06092834,-0.01237488,0.9980621,1.0,-0.0969696,-0.008148193,0.9952393,-33.97395,0.2989349,-29.21527,4.310928,0.5889528,0.581225,1.0,-0.06080627,-0.01239014,0.9980621,34.631,3.457504,-28.47641,4.555145,0.4437407999999999,0.4658357,-0.4080372,1.066971,-0.1170818,0.02874322,0.6692674,-0.02498911,3.935305861274635e-05,59.69742,31.97
2,-0.07743835,-0.1266022,0.9889221,1.0,-0.08155823,-0.1252289,0.9887543,-33.66574,0.07449341,-29.88039,4.250168,0.5764515,0.6157049,1.0,-0.03553772,-0.1404418999999999,0.9894409,34.70107,3.249878,-29.66357,4.551697,0.4363251,0.5059338,-0.4075362999999999,1.067394,-0.123675,0.02147562,0.6866333,-0.02993368,3.935305861274635e-05,59.69742,31.97
2,-0.07743835,-0.1266022,0.9889221,1.0,-0.08155823,-0.1252289,0.9887543,-33.66574,0.07449341,-29.88039,4.250168,0.5764515,0.6157049,1.0,-0.03553772,-0.1404418999999999,0.9894409,34.70107,3.249878,-29.66357,4.551697,0.4363251,0.5059338,-0.4075362999999999,1.067394,-0.123675,0.02147562,0.6866333,-0.02993368,3.935305861274635e-05,59.69742,31.97
2,-0.07743835,-0.1266022,0.9889221,1.0,-0.08155823,-0.1252289,0.9887543,-33.66574,0.07449341,-29.88039,4.250168,0.5764515,0.6157049,1.0,-0.03553772,-0.1404418999999999,0.9894409,34.70107,3.249878,-29.66357,4.551697,0.4363251,0.5059338,-0.4075362999999999,1.067394,-0.123675,0.02147562,0.6866333,-0.02993368,3.935305861274635e-05,59.69742,31.97
2,-0.02175903,-0.1328734999999999,0.9908905,1.0,-0.05409241,-0.1255951,0.9906006,-33.50569,0.03108215,-29.74591,4.281631,0.5662026,0.6157726,1.0,-0.02166748,-0.1329041,0.9908905,34.90926,3.258804,-29.8056,4.505478,0.4266975999999999,0.5055195,-0.4074875999999999,1.067245,-0.1257489,0.01939267,0.69035,-0.03175002,3.935305861274635e-05,85.90152,31.97
2,-0.02175903,-0.1328734999999999,0.9908905,1.0,-0.05409241,-0.1255951,0.9906006,-33.50569,0.03108215,-29.74591,4.281631,0.5662026,0.6157726,1.0,-0.02166748,-0.1329041,0.9908905,34.90926,3.258804,-29.8056,4.505478,0.4266975999999999,0.5055195,-0.4074875999999999,1.067245,-0.1257489,0.01939267,0.69035,-0.03175002,3.935305861274635e-05,85.90152,31.97
2,-0.02175903,-0.1328734999999999,0.9908905,1.0,-0.05409241,-0.1255951,0.9906006,-33.50569,0.03108215,-29.74591,4.281631,0.5662026,0.6157726,1.0,-0.02166748,-0.1329041,0.9908905,34.90926,3.258804,-29.8056,4.505478,0.4266975999999999,0.5055195,-0.4074875999999999,1.067245,-0.1257489,0.01939267,0.69035,-0.03175002,3.935305861274635e-05,85.90152,31.97
2,-0.02366638,-0.1306915,0.9911346,1.0,-0.04177856,-0.1316986,0.9904022,-33.403,0.1342926,-30.09407,4.22023,0.5608619,0.6167678000000001,1.0,0.005615234,-0.128952,0.9916229,35.01936,3.141342,-29.47383,4.539825,0.4183547999999999,0.5056896,-0.4073153,1.067083,-0.1274006,0.01785192,0.6923383000000001,-0.03398009,3.935305861274635e-05,85.90152,31.97
2,-0.02366638,-0.1306915,0.9911346,1.0,-0.04177856,-0.1316986,0.9904022,-33.403,0.1342926,-30.09407,4.22023,0.5608619,0.6167678000000001,1.0,0.005615234,-0.128952,0.9916229,35.01936,3.141342,-29.47383,4.539825,0.4183547999999999,0.5056896,-0.4073153,1.067083,-0.1274006,0.01785192,0.6923383000000001,-0.03398009,3.935305861274635e-05,85.90152,31.97
2,-0.02366638,-0.1306915,0.9911346,1.0,-0.04177856,-0.1316986,0.9904022,-33.403,0.1342926,-30.09407,4.22023,0.5608619,0.6167678000000001,1.0,0.005615234,-0.128952,0.9916229,35.01936,3.141342,-29.47383,4.539825,0.4183547999999999,0.5056896,-0.4073153,1.067083,-0.1274006,0.01785192,0.6923383000000001,-0.03398009,3.935305861274635e-05,85.90152,31.97
2,0.0015411379999999,-0.1305084,0.9914398,1.0,-0.03422546,-0.1400298999999999,0.9895477,-33.371340000000004,0.1889954,-30.27853,4.213135,0.5586333,0.6182286,1.0,0.01248169,-0.1275635,0.991745,35.1097,3.106995,-29.36778,4.602982,0.4140952,0.5056295,-0.4070919,1.0667870000000002,-0.1284956,0.01820424,0.6927233,-0.03498513,3.935305861274635e-05,85.90152,31.97
2,0.0015411379999999,-0.1305084,0.9914398,1.0,-0.03422546,-0.1400298999999999,0.9895477,-33.371340000000004,0.1889954,-30.27853,4.213135,0.5586333,0.6182286,1.0,0.01248169,-0.1275635,0.991745,35.1097,3.106995,-29.36778,4.602982,0.4140952,0.5056295,-0.4070919,1.0667870000000002,-0.1284956,0.01820424,0.6927233,-0.03498513,3.935305861274635e-05,85.90152,31.97
2,0.0015411379999999,-0.1305084,0.9914398,1.0,-0.03422546,-0.1400298999999999,0.9895477,-33.371340000000004,0.1889954,-30.27853,4.213135,0.5586333,0.6182286,1.0,0.01248169,-0.1275635,0.991745,35.1097,3.106995,-29.36778,4.602982,0.4140952,0.5056295,-0.4070919,1.0667870000000002,-0.1284956,0.01820424,0.6927233,-0.03498513,3.935305861274635e-05,85.90152,31.97
2,0.005905151,-0.136795,0.9905701,1.0,-0.0164032,-0.1420287999999999,0.9897156,-33.33871,0.2083435,-30.51201,4.192612,0.5546528000000001,0.6202595000000001,1.0,0.02035522,-0.1333771,0.9908447,35.137240000000006,3.006363,-29.24225,4.590134,0.4118339,0.5089142,-0.4069862,1.066357,-0.1292285,0.01932609,0.6919102,-0.03597928,3.935305861274635e-05,85.90152,31.97
2,0.005905151,-0.136795,0.9905701,1.0,-0.0164032,-0.1420287999999999,0.9897156,-33.33871,0.2083435,-30.51201,4.192612,0.5546528000000001,0.6202595000000001,1.0,0.02035522,-0.1333771,0.9908447,35.137240000000006,3.006363,-29.24225,4.590134,0.4118339,0.5089142,-0.4069862,1.066357,-0.1292285,0.01932609,0.6919102,-0.03597928,3.935305861274635e-05,85.90152,31.97
2,0.005905151,-0.136795,0.9905701,1.0,-0.0164032,-0.1420287999999999,0.9897156,-33.33871,0.2083435,-30.51201,4.192612,0.5546528000000001,0.6202595000000001,1.0,0.02035522,-0.1333771,0.9908447,35.137240000000006,3.006363,-29.24225,4.590134,0.4118339,0.5089142,-0.4069862,1.066357,-0.1292285,0.01932609,0.6919102,-0.03597928,3.935305861274635e-05,85.90152,31.97
2,-0.01705933,-0.2745667,0.9614105,1.0,-0.07623291,-0.2606506,0.9624023000000002,-33.250370000000004,-0.4840087999999999,-30.009870000000003,4.256226,0.5615595,0.6606685,1.0,-0.01609802,-0.2747954999999999,0.9613646999999998,34.68065,2.488144,-29.39227,4.395203,0.4333172999999999,0.5536506,-0.406773,1.066118,-0.1297624,0.02028177,0.6907314999999999,-0.03710993,3.935305861274635e-05,85.90152,31.97
2,-0.01705933,-0.2745667,0.9614105,1.0,-0.07623291,-0.2606506,0.9624023000000002,-33.250370000000004,-0.4840087999999999,-30.009870000000003,4.256226,0.5615595,0.6606685,1.0,-0.01609802,-0.2747954999999999,0.9613646999999998,34.68065,2.488144,-29.39227,4.395203,0.4333172999999999,0.5536506,-0.406773,1.066118,-0.1297624,0.02028177,0.6907314999999999,-0.03710993,3.935305861274635e-05,85.90152,31.97
2,-0.01705933,-0.2745667,0.9614105,1.0,-0.07623291,-0.2606506,0.9624023000000002,-33.250370000000004,-0.4840087999999999,-30.009870000000003,4.256226,0.5615595,0.6606685,1.0,-0.01609802,-0.2747954999999999,0.9613646999999998,34.68065,2.488144,-29.39227,4.395203,0.4333172999999999,0.5536506,-0.406773,1.066118,-0.1297624,0.02028177,0.6907314999999999,-0.03710993,3.935305861274635e-05,85.90152,31.97
2,-0.02597046,-0.3093567,0.9505768,1.0,-0.06454468,-0.3083954,0.9490509,-33.314820000000005,-0.5347748000000001,-30.02542,4.2668,0.5618675,0.6714713999999999,1.0,-0.02516174,-0.3093719,0.950592,34.765,2.483994,-29.396040000000003,4.407928,0.4318278,0.5602149000000001,-0.4065299,1.065896,-0.1303884,0.02183285,0.6897095999999999,-0.03758636,3.935305861274635e-05,-50.022,31.97
2,-0.02597046,-0.3093567,0.9505768,1.0,-0.06454468,-0.3083954,0.9490509,-33.314820000000005,-0.5347748000000001,-30.02542,4.2668,0.5618675,0.6714713999999999,1.0,-0.02516174,-0.3093719,0.950592,34.765,2.483994,-29.396040000000003,4.407928,0.4318278,0.5602149000000001,-0.4065299,1.065896,-0.1303884,0.02183285,0.6897095999999999,-0.03758636,3.935305861274635e-05,-50.022,31.97
2,-0.02597046,-0.3093567,0.9505768,1.0,-0.06454468,-0.3083954,0.9490509,-33.314820000000005,-0.5347748000000001,-30.02542,4.2668,0.5618675,0.6714713999999999,1.0,-0.02516174,-0.3093719,0.950592,34.765,2.483994,-29.396040000000003,4.407928,0.4318278,0.5602149000000001,-0.4065299,1.065896,-0.1303884,0.02183285,0.6897095999999999,-0.03758636,3.935305861274635e-05,-50.022,31.97
2,-0.03074646,-0.3024445,0.952652,1.0,-0.06300354,-0.2927704,0.9540863000000002,-33.36145,-0.5272979999999999,-30.01801,4.2985690000000005,0.5631939,0.6682140999999999,1.0,-0.02055359,-0.3054352,0.9519806,34.77159,2.492844,-29.39388,4.4152830000000005,0.4308319,0.5591421999999999,-0.4062772999999999,1.065593,-0.1307634,0.02315076,0.6888453,-0.03813139,3.935305861274635e-05,-50.022,31.97
2,-0.03074646,-0.3024445,0.952652,1.0,-0.06300354,-0.2927704,0.9540863000000002,-33.36145,-0.5272979999999999,-30.01801,4.2985690000000005,0.5631939,0.6682140999999999,1.0,-0.02055359,-0.3054352,0.9519806,34.77159,2.492844,-29.39388,4.4152830000000005,0.4308319,0.5591421999999999,-0.4062772999999999,1.065593,-0.1307634,0.02315076,0.6888453,-0.03813139,3.935305861274635e-05,-50.022,31.97
2,-0.03074646,-0.3024445,0.952652,1.0,-0.06300354,-0.2927704,0.9540863000000002,-33.36145,-0.5272979999999999,-30.01801,4.2985690000000005,0.5631939,0.6682140999999999,1.0,-0.02055359,-0.3054352,0.9519806,34.77159,2.492844,-29.39388,4.4152830000000005,0.4308319,0.5591421999999999,-0.4062772999999999,1.065593,-0.1307634,0.02315076,0.6888453,-0.03813139,3.935305861274635e-05,-50.022,31.97
2,-0.0435791,-0.2821502999999999,0.958374,0.9600153,-0.065979,-0.2801514,0.9576721,-33.42007,-0.524826,-30.02843,4.148743,0.5657234,0.6658801,0.9934879,-0.02090454,-0.2840271,0.9585876,34.78172,2.501221,-29.38881,4.370468,0.4306055,0.5548581,-0.4058934,1.065352,-0.131274,0.02416715,0.6881645000000001,-0.03858368,3.935305861274635e-05,-50.022,31.97
2,-0.0435791,-0.2821502999999999,0.958374,0.9600153,-0.065979,-0.2801514,0.9576721,-33.42007,-0.524826,-30.02843,4.148743,0.5657234,0.6658801,0.9934879,-0.02090454,-0.2840271,0.9585876,34.78172,2.501221,-29.38881,4.370468,0.4306055,0.5548581,-0.4058934,1.065352,-0.131274,0.02416715,0.6881645000000001,-0.03858368,3.935305861274635e-05,-50.022,31.97
2,-0.0435791,-0.2821502999999999,0.958374,0.9600153,-0.065979,-0.2801514,0.9576721,-33.42007,-0.524826,-30.02843,4.148743,0.5657234,0.6658801,0.9934879,-0.02090454,-0.2840271,0.9585876,34.78172,2.501221,-29.38881,4.370468,0.4306055,0.5548581,-0.4058934,1.065352,-0.131274,0.02416715,0.6881645000000001,-0.03858368,3.935305861274635e-05,-50.022,31.97
2,-0.04081726,-0.2837677,0.9580078000000002,0.968752,-0.06228638,-0.2822265999999999,0.9573212,-33.47298,-0.4987183,-30.025740000000003,4.164276,0.5669185,0.6653347,0.9862049,-0.0196990999999999,-0.2851715,0.9582672,34.791059999999995,2.513077,-29.387790000000003,4.372437000000001,0.4300779,0.5546371,-0.4056035999999999,1.065104,-0.1317718,0.02558036,0.6875668,-0.0385887,3.935305861274635e-05,-50.022,31.97
2,-0.04081726,-0.2837677,0.9580078000000002,0.968752,-0.06228638,-0.2822265999999999,0.9573212,-33.47298,-0.4987183,-30.025740000000003,4.164276,0.5669185,0.6653347,0.9862049,-0.0196990999999999,-0.2851715,0.9582672,34.791059999999995,2.513077,-29.387790000000003,4.372437000000001,0.4300779,0.5546371,-0.4056035999999999,1.065104,-0.1317718,0.02558036,0.6875668,-0.0385887,3.935305861274635e-05,-50.022,31.97
2,-0.04081726,-0.2837677,0.9580078000000002,0.968752,-0.06228638,-0.2822265999999999,0.9573212,-33.47298,-0.4987183,-30.025740000000003,4.164276,0.5669185,0.6653347,0.9862049,-0.0196990999999999,-0.2851715,0.9582672,34.791059999999995,2.513077,-29.387790000000003,4.372437000000001,0.4300779,0.5546371,-0.4056035999999999,1.065104,-0.1317718,0.02558036,0.6875668,-0.0385887,3.935305861274635e-05,-50.022,31.97
2,-0.04525757,-0.2819672,0.9583435,0.9630435,-0.07191467,-0.2794189,0.9574585,-33.48077,-0.504303,-30.02858,4.303925,0.5688183000000001,0.665116,0.9829599,-0.01945496,-0.2842407,0.9585419,34.79373,2.5144040000000003,-29.38815,4.370804,0.4299465,0.5544252,-0.4052994,1.064804,-0.1320384,0.02670259,0.6869885,-0.03907919,3.935305861274635e-05,-130.9367,31.97
2,-0.04525757,-0.2819672,0.9583435,0.9630435,-0.07191467,-0.2794189,0.9574585,-33.48077,-0.504303,-30.02858,4.303925,0.5688183000000001,0.665116,0.9829599,-0.01945496,-0.2842407,0.9585419,34.79373,2.5144040000000003,-29.38815,4.370804,0.4299465,0.5544252,-0.4052994,1.064804,-0.1320384,0.02670259,0.6869885,-0.03907919,3.935305861274635e-05,-130.9367,31.97
2,-0.04525757,-0.2819672,0.9583435,0.9630435,-0.07191467,-0.2794189,0.9574585,-33.48077,-0.504303,-30.02858,4.303925,0.5688183000000001,0.665116,0.9829599,-0.01945496,-0.2842407,0.9585419,34.79373,2.5144040000000003,-29.38815,4.370804,0.4299465,0.5544252,-0.4052994,1.064804,-0.1320384,0.02670259,0.6869885,-0.03907919,3.935305861274635e-05,-130.9367,31.97
2,-0.04304504,-0.2810669,0.9587097,0.9668217,-0.06817627,-0.2805634,0.9573975,-33.509190000000004,-0.5068359,-30.03148,4.255081,0.5691739,0.6654317,0.9814856,-0.0188446,-0.2813873,0.9593964,34.80922,2.519363,-29.3911,4.364578,0.4293149999999999,0.5537525,-0.4048226,1.064489,-0.1323955,0.02862015,0.6854359,-0.03988511,3.935305861274635e-05,-130.9367,31.97
2,-0.04304504,-0.2810669,0.9587097,0.9668217,-0.06817627,-0.2805634,0.9573975,-33.509190000000004,-0.5068359,-30.03148,4.255081,0.5691739,0.6654317,0.9814856,-0.0188446,-0.2813873,0.9593964,34.80922,2.519363,-29.3911,4.364578,0.4293149999999999,0.5537525,-0.4048226,1.064489,-0.1323955,0.02862015,0.6854359,-0.03988511,3.935305861274635e-05,-130.9367,31.97
2,-0.04304504,-0.2810669,0.9587097,0.9668217,-0.06817627,-0.2805634,0.9573975,-33.509190000000004,-0.5068359,-30.03148,4.255081,0.5691739,0.6654317,0.9814856,-0.0188446,-0.2813873,0.9593964,34.80922,2.519363,-29.3911,4.364578,0.4293149999999999,0.5537525,-0.4048226,1.064489,-0.1323955,0.02862015,0.6854359,-0.03988511,3.935305861274635e-05,-130.9367,31.97
2,-0.04449463,-0.2799225,0.9589844,0.9777256,-0.0690155,-0.2788390999999999,0.95784,-33.51494,-0.5049286000000001,-30.03148,4.254868,0.5695131,0.6650503000000001,0.990338,-0.01966858,-0.280838,0.959549,34.813390000000005,2.522568,-29.39262,4.34079,0.4293149999999999,0.5535601,-0.4048059,1.064499,-0.1320615,0.0295424,0.6832678000000001,-0.03915061,3.935305861274635e-05,-130.9367,31.97
2,-0.04449463,-0.2799225,0.9589844,0.9777256,-0.0690155,-0.2788390999999999,0.95784,-33.51494,-0.5049286000000001,-30.03148,4.254868,0.5695131,0.6650503000000001,0.990338,-0.01966858,-0.280838,0.959549,34.813390000000005,2.522568,-29.39262,4.34079,0.4293149999999999,0.5535601,-0.4048059,1.064499,-0.1320615,0.0295424,0.6832678000000001,-0.03915061,3.935305861274635e-05,-130.9367,31.97
2,-0.04449463,-0.2799225,0.9589844,0.9777256,-0.0690155,-0.2788390999999999,0.95784,-33.51494,-0.5049286000000001,-30.03148,4.254868,0.5695131,0.6650503000000001,0.990338,-0.01966858,-0.280838,0.959549,34.813390000000005,2.522568,-29.39262,4.34079,0.4293149999999999,0.5535601,-0.4048059,1.064499,-0.1320615,0.0295424,0.6832678000000001,-0.03915061,3.935305861274635e-05,-130.9367,31.97
2,-0.0453186,-0.2784729,0.9593658000000002,0.9716992,-0.06930542,-0.2770386,0.9583435,-33.52748,-0.4956359999999999,-30.03206,4.24913,0.5699916,0.664399,0.9762431,-0.02230835,-0.2797089,0.9598236,34.82326,2.526672,-29.39401,4.349167,0.4294209,0.5532222,-0.4049119,1.064666,-0.1312899,0.02963821,0.6804078,-0.03842133,3.935305861274635e-05,-130.9367,31.97
2,-0.0453186,-0.2784729,0.9593658000000002,0.9716992,-0.06930542,-0.2770386,0.9583435,-33.52748,-0.4956359999999999,-30.03206,4.24913,0.5699916,0.664399,0.9762431,-0.02230835,-0.2797089,0.9598236,34.82326,2.526672,-29.39401,4.349167,0.4294209,0.5532222,-0.4049119,1.064666,-0.1312899,0.02963821,0.6804078,-0.03842133,3.935305861274635e-05,-130.9367,31.97
2,-0.0453186,-0.2784729,0.9593658000000002,0.9716992,-0.06930542,-0.2770386,0.9583435,-33.52748,-0.4956359999999999,-30.03206,4.24913,0.5699916,0.664399,0.9762431,-0.02230835,-0.2797089,0.9598236,34.82326,2.526672,-29.39401,4.349167,0.4294209,0.5532222,-0.4049119,1.064666,-0.1312899,0.02963821,0.6804078,-0.03842133,3.935305861274635e-05,-130.9367,31.97
3,-0.04693604,-0.2786102,0.9592438,0.9626219,-0.07138062,-0.277359,0.9580994,-33.5347,-0.4939117,-30.03401,4.250655999999999,0.5705956999999999,0.6644336999999999,0.9995055,-0.02357483,-0.2796478,0.9598083,34.82326,2.526672,-29.39452,4.34935,0.4296380999999999,0.5532222,-0.4051392,1.064761,-0.1300415,0.03012603,0.6759310000000001,-0.03705221,3.935305861274635e-05,-130.9367,31.97
3,-0.04693604,-0.2786102,0.9592438,0.9626219,-0.07138062,-0.277359,0.9580994,-33.5347,-0.4939117,-30.03401,4.250655999999999,0.5705956999999999,0.6644336999999999,0.9995055,-0.02357483,-0.2796478,0.9598083,34.82326,2.526672,-29.39452,4.34935,0.4296380999999999,0.5532222,-0.4051392,1.064761,-0.1300415,0.03012603,0.6759310000000001,-0.03705221,3.935305861274635e-05,-130.9367,31.97
3,-0.04693604,-0.2786102,0.9592438,0.9626219,-0.07138062,-0.277359,0.9580994,-33.5347,-0.4939117,-30.03401,4.250655999999999,0.5705956999999999,0.6644336999999999,0.9995055,-0.02357483,-0.2796478,0.9598083,34.82326,2.526672,-29.39452,4.34935,0.4296380999999999,0.5532222,-0.4051392,1.064761,-0.1300415,0.03012603,0.6759310000000001,-0.03705221,3.935305861274635e-05,-130.9367,31.97
3,-0.06556702,-0.2852936,0.9561768,0.9775618,-0.09394836,-0.295517,0.9506989,-33.560970000000005,-0.4642487,-30.04375,4.22226,0.5753636999999999,0.6670458,0.9840046,-0.03782654,-0.2750702,0.9606628,34.79227,2.518143,-29.409240000000004,4.446426,0.4331205,0.5528696,-0.4061495999999999,1.065659,-0.1247056,0.02790208,0.6574223000000001,-0.03399346,3.935305861274635e-05,68.58301,31.97
3,-0.06556702,-0.2852936,0.9561768,0.9775618,-0.09394836,-0.295517,0.9506989,-33.560970000000005,-0.4642487,-30.04375,4.22226,0.5753636999999999,0.6670458,0.9840046,-0.03782654,-0.2750702,0.9606628,34.79227,2.518143,-29.409240000000004,4.446426,0.4331205,0.5528696,-0.4061495999999999,1.065659,-0.1247056,0.02790208,0.6574223000000001,-0.03399346,3.935305861274635e-05,68.58301,31.97
3,-0.06556702,-0.2852936,0.9561768,0.9775618,-0.09394836,-0.295517,0.9506989,-33.560970000000005,-0.4642487,-30.04375,4.22226,0.5753636999999999,0.6670458,0.9840046,-0.03782654,-0.2750702,0.9606628,34.79227,2.518143,-29.409240000000004,4.446426,0.4331205,0.5528696,-0.4061495999999999,1.065659,-0.1247056,0.02790208,0.6574223000000001,-0.03399346,3.935305861274635e-05,68.58301,31.97
3,-0.09397888,-0.2900390999999999,0.9523773,0.9600816,-0.1135405999999999,-0.2985686999999999,0.9476013,-33.68677,-0.5257568,-30.06619,4.283203,0.5830901,0.6701851,0.9943804,-0.07200623,-0.2803192,0.9571991,34.65453,2.462479,-29.44269,4.41716,0.4436662,0.5562505,-0.4071995999999999,1.066155,-0.1207344,0.02690765,0.6434909000000001,-0.03164183,3.935305861274635e-05,68.58301,31.97
3,-0.09397888,-0.2900390999999999,0.9523773,0.9600816,-0.1135405999999999,-0.2985686999999999,0.9476013,-33.68677,-0.5257568,-30.06619,4.283203,0.5830901,0.6701851,0.9943804,-0.07200623,-0.2803192,0.9571991,34.65453,2.462479,-29.44269,4.41716,0.4436662,0.5562505,-0.4071995999999999,1.066155,-0.1207344,0.02690765,0.6434909000000001,-0.03164183,3.935305861274635e-05,68.58301,31.97
3,-0.09397888,-0.2900390999999999,0.9523773,0.9600816,-0.1135405999999999,-0.2985686999999999,0.9476013,-33.68677,-0.5257568,-30.06619,4.283203,0.5830901,0.6701851,0.9943804,-0.07200623,-0.2803192,0.9571991,34.65453,2.462479,-29.44269,4.41716,0.4436662,0.5562505,-0.4071995999999999,1.066155,-0.1207344,0.02690765,0.6434909000000001,-0.03164183,3.935305861274635e-05,68.58301,31.97
3,-0.1395568999999999,-0.3112488,0.9400177,1.0,-0.1717833999999999,-0.3154602,0.9332581,-33.69917,-0.3560791,-30.04248,4.430984,0.5933957,0.6678097,1.0,-0.1057892,-0.306488,0.9459686,34.56902,2.651398,-29.41373,4.453964,0.4523537,0.5545023,-0.4085714,1.066633,-0.1163023999999999,0.02577346,0.6270498999999999,-0.02898688,3.935305861274635e-05,68.58301,31.97
3,-0.1395568999999999,-0.3112488,0.9400177,1.0,-0.1717833999999999,-0.3154602,0.9332581,-33.69917,-0.3560791,-30.04248,4.430984,0.5933957,0.6678097,1.0,-0.1057892,-0.306488,0.9459686,34.56902,2.651398,-29.41373,4.453964,0.4523537,0.5545023,-0.4085714,1.066633,-0.1163023999999999,0.02577346,0.6270498999999999,-0.02898688,3.935305861274635e-05,68.58301,31.97
3,-0.1395568999999999,-0.3112488,0.9400177,1.0,-0.1717833999999999,-0.3154602,0.9332581,-33.69917,-0.3560791,-30.04248,4.430984,0.5933957,0.6678097,1.0,-0.1057892,-0.306488,0.9459686,34.56902,2.651398,-29.41373,4.453964,0.4523537,0.5545023,-0.4085714,1.066633,-0.1163023999999999,0.02577346,0.6270498999999999,-0.02898688,3.935305861274635e-05,68.58301,31.97
3,-0.01100159,-0.07585144,0.9970551,0.8092489,-0.02760315,-0.09046936,0.9955139,-33.06024,0.6251831,-30.25197,4.22757,0.5467665,0.5941715,0.8663327,0.04141235,-0.0295105,0.998703,35.0808,3.822601,-29.31444,4.70932,0.4105465,0.4635567,-0.4101791,1.067376,-0.1110795,0.0239653,0.6070153,-0.02476825,3.935305861274635e-05,68.58301,31.97
3,-0.01100159,-0.07585144,0.9970551,0.8092489,-0.02760315,-0.09046936,0.9955139,-33.06024,0.6251831,-30.25197,4.22757,0.5467665,0.5941715,0.8663327,0.04141235,-0.0295105,0.998703,35.0808,3.822601,-29.31444,4.70932,0.4105465,0.4635567,-0.4101791,1.067376,-0.1110795,0.0239653,0.6070153,-0.02476825,3.935305861274635e-05,68.58301,31.97
3,-0.01100159,-0.07585144,0.9970551,0.8092489,-0.02760315,-0.09046936,0.9955139,-33.06024,0.6251831,-30.25197,4.22757,0.5467665,0.5941715,0.8663327,0.04141235,-0.0295105,0.998703,35.0808,3.822601,-29.31444,4.70932,0.4105465,0.4635567,-0.4101791,1.067376,-0.1110795,0.0239653,0.6070153,-0.02476825,3.935305861274635e-05,68.58301,31.97
3,0.2477264,0.1288757,0.9602051,0.7059005,0.1591948999999999,0.1043854,0.9817047,-31.96242,1.54895,-31.67511,4.361694,0.4775051999999999,0.5430246999999999,0.8490788,0.2480621,0.1289673,0.9601135,36.52167,4.376892,-29.34129,4.89328,0.3238342,0.4171137,-0.4150814999999999,1.069408,-0.09891513,0.01966204,0.5566821,-0.01399503,3.935305861274635e-05,28.09338,31.97
3,0.2477264,0.1288757,0.9602051,0.7059005,0.1591948999999999,0.1043854,0.9817047,-31.96242,1.54895,-31.67511,4.361694,0.4775051999999999,0.5430246999999999,0.8490788,0.2480621,0.1289673,0.9601135,36.52167,4.376892,-29.34129,4.89328,0.3238342,0.4171137,-0.4150814999999999,1.069408,-0.09891513,0.01966204,0.5566821,-0.01399503,3.935305861274635e-05,28.09338,31.97
3,0.2477264,0.1288757,0.9602051,0.7059005,0.1591948999999999,0.1043854,0.9817047,-31.96242,1.54895,-31.67511,4.361694,0.4775051999999999,0.5430246999999999,0.8490788,0.2480621,0.1289673,0.9601135,36.52167,4.376892,-29.34129,4.89328,0.3238342,0.4171137,-0.4150814999999999,1.069408,-0.09891513,0.01966204,0.5566821,-0.01399503,3.935305861274635e-05,28.09338,31.97
3,0.1836395,0.1127471999999999,0.9765015,0.8227328000000002,0.1491852,0.08833313,0.984848,-32.42078,0.8509674,-29.819370000000003,4.280914,0.4946795999999999,0.5516675,0.9267238,0.1836853,0.1127625,0.9764862,36.26045,4.215912,-29.26909,4.805115,0.3447177,0.4247849,-0.4181220999999999,1.070075,-0.09287269,0.01862082,0.5294816,-0.008109181,3.935305861274635e-05,28.09338,31.97
3,0.1836395,0.1127471999999999,0.9765015,0.8227328000000002,0.1491852,0.08833313,0.984848,-32.42078,0.8509674,-29.819370000000003,4.280914,0.4946795999999999,0.5516675,0.9267238,0.1836853,0.1127625,0.9764862,36.26045,4.215912,-29.26909,4.805115,0.3447177,0.4247849,-0.4181220999999999,1.070075,-0.09287269,0.01862082,0.5294816,-0.008109181,3.935305861274635e-05,28.09338,31.97
3,0.1836395,0.1127471999999999,0.9765015,0.8227328000000002,0.1491852,0.08833313,0.984848,-32.42078,0.8509674,-29.819370000000003,4.280914,0.4946795999999999,0.5516675,0.9267238,0.1836853,0.1127625,0.9764862,36.26045,4.215912,-29.26909,4.805115,0.3447177,0.4247849,-0.4181220999999999,1.070075,-0.09287269,0.01862082,0.5294816,-0.008109181,3.935305861274635e-05,28.09338,31.97
3,0.04937744,0.06785583,0.99646,1.0,0.04756165,0.06744385,0.996582,-32.9554,0.8127441,-29.94096,4.40535,0.5302685,0.5576316,1.0,0.120224,0.08399963,0.9891815,35.65811,3.726212,-27.90358,4.643829,0.3781091,0.4348065,-0.4214147,1.070432,-0.08731553,0.01810225,0.5036016999999999,-0.0034288509999999,3.935305861274635e-05,28.09338,31.97
3,0.04937744,0.06785583,0.99646,1.0,0.04756165,0.06744385,0.996582,-32.9554,0.8127441,-29.94096,4.40535,0.5302685,0.5576316,1.0,0.120224,0.08399963,0.9891815,35.65811,3.726212,-27.90358,4.643829,0.3781091,0.4348065,-0.4214147,1.070432,-0.08731553,0.01810225,0.5036016999999999,-0.0034288509999999,3.935305861274635e-05,28.09338,31.97
3,0.04937744,0.06785583,0.99646,1.0,0.04756165,0.06744385,0.996582,-32.9554,0.8127441,-29.94096,4.40535,0.5302685,0.5576316,1.0,0.120224,0.08399963,0.9891815,35.65811,3.726212,-27.90358,4.643829,0.3781091,0.4348065,-0.4214147,1.070432,-0.08731553,0.01810225,0.5036016999999999,-0.0034288509999999,3.935305861274635e-05,28.09338,31.97
3,0.04685974,0.07402039,0.9961395,0.9214939,0.04684448,0.07402039,0.9961548,-33.100629999999995,0.6664581,-29.508640000000003,4.386902,0.5351196,0.5573140000000001,0.9762241,0.07514954,0.06689453,0.9949188,35.586690000000004,3.90773,-28.5761,4.555618,0.3878534,0.4372997999999999,-0.424559,1.070884,-0.08247644,0.01767619,0.4804986,0.001021313,3.935305861274635e-05,28.09338,31.97
3,0.04685974,0.07402039,0.9961395,0.9214939,0.04684448,0.07402039,0.9961548,-33.100629999999995,0.6664581,-29.508640000000003,4.386902,0.5351196,0.5573140000000001,0.9762241,0.07514954,0.06689453,0.9949188,35.586690000000004,3.90773,-28.5761,4.555618,0.3878534,0.4372997999999999,-0.424559,1.070884,-0.08247644,0.01767619,0.4804986,0.001021313,3.935305861274635e-05,28.09338,31.97
3,0.04685974,0.07402039,0.9961395,0.9214939,0.04684448,0.07402039,0.9961548,-33.100629999999995,0.6664581,-29.508640000000003,4.386902,0.5351196,0.5573140000000001,0.9762241,0.07514954,0.06689453,0.9949188,35.586690000000004,3.90773,-28.5761,4.555618,0.3878534,0.4372997999999999,-0.424559,1.070884,-0.08247644,0.01767619,0.4804986,0.001021313,3.935305861274635e-05,28.09338,31.97
3,7.629395000000001e-05,0.06192017,0.9980774,0.9214939,6.103516e-05,0.06193542,0.9980774,-33.401309999999995,0.6135254,-29.45518,4.395508,0.5532316999999999,0.560688,0.9762241,0.04597473,0.05978394,0.9971466,35.2038,3.857361,-28.508640000000003,4.594711,0.4060843,0.4398354999999999,-0.4294488,1.071003,-0.07516585,0.02070127,0.4460361,0.01075536,3.935305861274635e-05,28.09338,31.97
3,7.629395000000001e-05,0.06192017,0.9980774,0.9214939,6.103516e-05,0.06193542,0.9980774,-33.401309999999995,0.6135254,-29.45518,4.395508,0.5532316999999999,0.560688,0.9762241,0.04597473,0.05978394,0.9971466,35.2038,3.857361,-28.508640000000003,4.594711,0.4060843,0.4398354999999999,-0.4294488,1.071003,-0.07516585,0.02070127,0.4460361,0.01075536,3.935305861274635e-05,28.09338,31.97
3,7.629395000000001e-05,0.06192017,0.9980774,0.9214939,6.103516e-05,0.06193542,0.9980774,-33.401309999999995,0.6135254,-29.45518,4.395508,0.5532316999999999,0.560688,0.9762241,0.04597473,0.05978394,0.9971466,35.2038,3.857361,-28.508640000000003,4.594711,0.4060843,0.4398354999999999,-0.4294488,1.071003,-0.07516585,0.02070127,0.4460361,0.01075536,3.935305861274635e-05,28.09338,31.97
3,-0.06977844,0.04747009,0.9964294,0.9569257,-0.1046143,0.06732178,0.992218,-34.104420000000005,0.2508545,-28.64552,4.394928,0.5941846,0.5646545999999999,0.9984583,-0.06767273,0.04624939,0.9966278,34.522090000000006,3.60759,-27.92482,4.667343,0.4489076,0.4460489,-0.4309731,1.070828,-0.07268298,0.0237774,0.4354125,0.0155087,3.935305861274635e-05,-54.1662,31.97
3,-0.06977844,0.04747009,0.9964294,0.9569257,-0.1046143,0.06732178,0.992218,-34.104420000000005,0.2508545,-28.64552,4.394928,0.5941846,0.5646545999999999,0.9984583,-0.06767273,0.04624939,0.9966278,34.522090000000006,3.60759,-27.92482,4.667343,0.4489076,0.4460489,-0.4309731,1.070828,-0.07268298,0.0237774,0.4354125,0.0155087,3.935305861274635e-05,-54.1662,31.97
3,-0.06977844,0.04747009,0.9964294,0.9569257,-0.1046143,0.06732178,0.992218,-34.104420000000005,0.2508545,-28.64552,4.394928,0.5941846,0.5646545999999999,0.9984583,-0.06767273,0.04624939,0.9966278,34.522090000000006,3.60759,-27.92482,4.667343,0.4489076,0.4460489,-0.4309731,1.070828,-0.07268298,0.0237774,0.4354125,0.0155087,3.935305861274635e-05,-54.1662,31.97
3,0.05012512,0.0471344,0.9976196,0.9491541,-0.03117371,0.05838013,0.9978027,-33.48705,0.5441284000000001,-29.51712,4.50827,0.5614845,0.5644222,0.9775219,0.05085754,0.04702759,0.9975891,35.04149,3.730118,-28.38896,4.565201,0.4108729,0.4453322,-0.4319842,1.06994,-0.07107021,0.02838181,0.429162,0.01796384,3.935305861274635e-05,-54.1662,31.97
3,0.05012512,0.0471344,0.9976196,0.9491541,-0.03117371,0.05838013,0.9978027,-33.48705,0.5441284000000001,-29.51712,4.50827,0.5614845,0.5644222,0.9775219,0.05085754,0.04702759,0.9975891,35.04149,3.730118,-28.38896,4.565201,0.4108729,0.4453322,-0.4319842,1.06994,-0.07107021,0.02838181,0.429162,0.01796384,3.935305861274635e-05,-54.1662,31.97
3,0.05012512,0.0471344,0.9976196,0.9491541,-0.03117371,0.05838013,0.9978027,-33.48705,0.5441284000000001,-29.51712,4.50827,0.5614845,0.5644222,0.9775219,0.05085754,0.04702759,0.9975891,35.04149,3.730118,-28.38896,4.565201,0.4108729,0.4453322,-0.4319842,1.06994,-0.07107021,0.02838181,0.429162,0.01796384,3.935305861274635e-05,-54.1662,31.97
3,0.04975891,0.0592804,0.996994,0.9744274,0.04727173,0.05950928,0.9971008,-33.29407,0.6768341,-29.901840000000004,4.389114,0.5418508000000001,0.5632441999999999,0.9921343,0.1063385,0.05378723,0.9928589,35.26903,3.752045,-28.373790000000003,4.726578,0.3935364,0.443341,-0.4325104,1.06931,-0.07002184,0.03182596,0.4266545999999999,0.01941801,3.935305861274635e-05,-54.1662,31.97
3,0.04975891,0.0592804,0.996994,0.9744274,0.04727173,0.05950928,0.9971008,-33.29407,0.6768341,-29.901840000000004,4.389114,0.5418508000000001,0.5632441999999999,0.9921343,0.1063385,0.05378723,0.9928589,35.26903,3.752045,-28.373790000000003,4.726578,0.3935364,0.443341,-0.4325104,1.06931,-0.07002184,0.03182596,0.4266545999999999,0.01941801,3.935305861274635e-05,-54.1662,31.97
3,0.04975891,0.0592804,0.996994,0.9744274,0.04727173,0.05950928,0.9971008,-33.29407,0.6768341,-29.901840000000004,4.389114,0.5418508000000001,0.5632441999999999,0.9921343,0.1063385,0.05378723,0.9928589,35.26903,3.752045,-28.373790000000003,4.726578,0.3935364,0.443341,-0.4325104,1.06931,-0.07002184,0.03182596,0.4266545999999999,0.01941801,3.935305861274635e-05,-54.1662,31.97
3,0.04975891,0.0592804,0.996994,0.9744274,0.04727173,0.05950928,0.9971008,-33.29407,0.6768341,-29.901840000000004,4.389114,0.5418508000000001,0.5632441999999999,0.9921343,0.1063385,0.05378723,0.9928589,35.26903,3.752045,-28.373790000000003,4.726578,0.3935364,0.443341,-0.432325,1.068598,-0.06954117,0.03519692,0.4279789,0.01877503,3.935305861274635e-05,-54.1662,31.97
3,0.04975891,0.0592804,0.996994,0.9744274,0.04727173,0.05950928,0.9971008,-33.29407,0.6768341,-29.901840000000004,4.389114,0.5418508000000001,0.5632441999999999,0.9921343,0.1063385,0.05378723,0.9928589,35.26903,3.752045,-28.373790000000003,4.726578,0.3935364,0.443341,-0.432325,1.068598,-0.06954117,0.03519692,0.4279789,0.01877503,3.935305861274635e-05,-54.1662,31.97
3,0.04975891,0.0592804,0.996994,0.9744274,0.04727173,0.05950928,0.9971008,-33.29407,0.6768341,-29.901840000000004,4.389114,0.5418508000000001,0.5632441999999999,0.9921343,0.1063385,0.05378723,0.9928589,35.26903,3.752045,-28.373790000000003,4.726578,0.3935364,0.443341,-0.432325,1.068598,-0.06954117,0.03519692,0.4279789,0.01877503,3.935305861274635e-05,-54.1662,31.97
3,0.006515503,0.06265259,0.9980011,1.0,0.006515503,0.06265259,0.9980011,-33.51103,0.6581878999999999,-29.73901,4.333817,0.5560529000000001,0.5617435000000001,1.0,0.0629425,0.06568909,0.9958496,35.12453,3.78125,-28.29399,4.73175,0.4060203,0.4396823,-0.4318342,1.068021,-0.06945559,0.03759111,0.4317843,0.01682756,3.935305861274635e-05,-60.5722,31.97
3,0.006515503,0.06265259,0.9980011,1.0,0.006515503,0.06265259,0.9980011,-33.51103,0.6581878999999999,-29.73901,4.333817,0.5560529000000001,0.5617435000000001,1.0,0.0629425,0.06568909,0.9958496,35.12453,3.78125,-28.29399,4.73175,0.4060203,0.4396823,-0.4318342,1.068021,-0.06945559,0.03759111,0.4317843,0.01682756,3.935305861274635e-05,-60.5722,31.97
3,0.006515503,0.06265259,0.9980011,1.0,0.006515503,0.06265259,0.9980011,-33.51103,0.6581878999999999,-29.73901,4.333817,0.5560529000000001,0.5617435000000001,1.0,0.0629425,0.06568909,0.9958496,35.12453,3.78125,-28.29399,4.73175,0.4060203,0.4396823,-0.4318342,1.068021,-0.06945559,0.03759111,0.4317843,0.01682756,3.935305861274635e-05,-60.5722,31.97
3,0.03300476,0.07173157,0.9968719,1.0,0.003250122,0.0710143999999999,0.997467,-33.53683,0.6361389000000001,-29.55907,4.312149,0.5573604999999999,0.5593205,1.0,0.045578,0.07202148,0.9963531,35.13406,3.820068,-28.3407,4.62085,0.4086358,0.4376081,-0.4311524999999999,1.06735,-0.06976119,0.04013032,0.4364149999999999,0.01415963,3.935305861274635e-05,-60.5722,31.97
3,0.03300476,0.07173157,0.9968719,1.0,0.003250122,0.0710143999999999,0.997467,-33.53683,0.6361389000000001,-29.55907,4.312149,0.5573604999999999,0.5593205,1.0,0.045578,0.07202148,0.9963531,35.13406,3.820068,-28.3407,4.62085,0.4086358,0.4376081,-0.4311524999999999,1.06735,-0.06976119,0.04013032,0.4364149999999999,0.01415963,3.935305861274635e-05,-60.5722,31.97
3,0.03300476,0.07173157,0.9968719,1.0,0.003250122,0.0710143999999999,0.997467,-33.53683,0.6361389000000001,-29.55907,4.312149,0.5573604999999999,0.5593205,1.0,0.045578,0.07202148,0.9963531,35.13406,3.820068,-28.3407,4.62085,0.4086358,0.4376081,-0.4311524999999999,1.06735,-0.06976119,0.04013032,0.4364149999999999,0.01415963,3.935305861274635e-05,-60.5722,31.97
3,0.003509521,0.08221436,0.9965973,1.0,0.003219604,0.08216858,0.9966125,-33.488170000000004,0.7024689000000001,-29.61913,4.392044,0.5557584,0.5558434,1.0,0.06088257,0.09182739,0.9938965,35.231840000000005,3.677902,-27.82695,4.579025,0.4029621,0.4345697,-0.4303639,1.066571,-0.0704536,0.04279431,0.4421449,0.01066981,3.935305861274635e-05,-60.5722,31.97
3,0.003509521,0.08221436,0.9965973,1.0,0.003219604,0.08216858,0.9966125,-33.488170000000004,0.7024689000000001,-29.61913,4.392044,0.5557584,0.5558434,1.0,0.06088257,0.09182739,0.9938965,35.231840000000005,3.677902,-27.82695,4.579025,0.4029621,0.4345697,-0.4303639,1.066571,-0.0704536,0.04279431,0.4421449,0.01066981,3.935305861274635e-05,-60.5722,31.97
3,0.003509521,0.08221436,0.9965973,1.0,0.003219604,0.08216858,0.9966125,-33.488170000000004,0.7024689000000001,-29.61913,4.392044,0.5557584,0.5558434,1.0,0.06088257,0.09182739,0.9938965,35.231840000000005,3.677902,-27.82695,4.579025,0.4029621,0.4345697,-0.4303639,1.066571,-0.0704536,0.04279431,0.4421449,0.01066981,3.935305861274635e-05,-60.5722,31.97
3,0.004821777,0.07984924,0.9967804,1.0,0.004653931,0.07983398,0.9967957,-33.47702,0.6872710999999999,-29.54987,4.41156,0.5550932,0.5561111999999999,1.0,0.05491638,0.08837891,0.9945679,35.24808,3.693054,-27.83186,4.638443,0.4034180999999999,0.4347161,-0.4294401,1.065965,-0.07136232,0.04532147,0.4482854999999999,0.008172331,3.935305861274635e-05,-60.5722,31.97
3,0.004821777,0.07984924,0.9967804,1.0,0.004653931,0.07983398,0.9967957,-33.47702,0.6872710999999999,-29.54987,4.41156,0.5550932,0.5561111999999999,1.0,0.05491638,0.08837891,0.9945679,35.24808,3.693054,-27.83186,4.638443,0.4034180999999999,0.4347161,-0.4294401,1.065965,-0.07136232,0.04532147,0.4482854999999999,0.008172331,3.935305861274635e-05,-60.5722,31.97
3,0.004821777,0.07984924,0.9967804,1.0,0.004653931,0.07983398,0.9967957,-33.47702,0.6872710999999999,-29.54987,4.41156,0.5550932,0.5561111999999999,1.0,0.05491638,0.08837891,0.9945679,35.24808,3.693054,-27.83186,4.638443,0.4034180999999999,0.4347161,-0.4294401,1.065965,-0.07136232,0.04532147,0.4482854999999999,0.008172331,3.935305861274635e-05,-60.5722,31.97
3,0.06668091,0.1024933,0.9924927,1.0,0.02294922,0.08729553,0.9959106,-33.39346,0.7131958,-29.44766,4.531494,0.5491090000000001,0.5530959,1.0,0.07093811,0.1039581,0.9920349,35.34854,3.700287,-27.819470000000003,4.583984,0.3972513,0.4316569999999999,-0.4286346,1.065151,-0.07238373,0.04833445,0.4543718,0.006172704,3.935305861274635e-05,-60.5722,31.97
3,0.06668091,0.1024933,0.9924927,1.0,0.02294922,0.08729553,0.9959106,-33.39346,0.7131958,-29.44766,4.531494,0.5491090000000001,0.5530959,1.0,0.07093811,0.1039581,0.9920349,35.34854,3.700287,-27.819470000000003,4.583984,0.3972513,0.4316569999999999,-0.4286346,1.065151,-0.07238373,0.04833445,0.4543718,0.006172704,3.935305861274635e-05,-60.5722,31.97
3,0.06668091,0.1024933,0.9924927,1.0,0.02294922,0.08729553,0.9959106,-33.39346,0.7131958,-29.44766,4.531494,0.5491090000000001,0.5530959,1.0,0.07093811,0.1039581,0.9920349,35.34854,3.700287,-27.819470000000003,4.583984,0.3972513,0.4316569999999999,-0.4286346,1.065151,-0.07238373,0.04833445,0.4543718,0.006172704,3.935305861274635e-05,-60.5722,31.97
3,0.0512085,0.09884644,0.9937744,1.0,0.02793884,0.09153748,0.9954071,-33.323609999999995,0.7380829000000001,-29.37857,4.370407,0.5458214,0.5506977,1.0,0.07878113,0.1074523999999999,0.9910736,35.4247,3.718719,-27.63464,4.705841,0.393429,0.4289185,-0.4276452999999999,1.064999,-0.07331678,0.04946952,0.4609011999999999,0.0045951,3.935305861274635e-05,-32.67358,31.97
3,0.0512085,0.09884644,0.9937744,1.0,0.02793884,0.09153748,0.9954071,-33.323609999999995,0.7380829000000001,-29.37857,4.370407,0.5458214,0.5506977,1.0,0.07878113,0.1074523999999999,0.9910736,35.4247,3.718719,-27.63464,4.705841,0.393429,0.4289185,-0.4276452999999999,1.064999,-0.07331678,0.04946952,0.4609011999999999,0.0045951,3.935305861274635e-05,-32.67358,31.97
3,0.0512085,0.09884644,0.9937744,1.0,0.02793884,0.09153748,0.9954071,-33.323609999999995,0.7380829000000001,-29.37857,4.370407,0.5458214,0.5506977,1.0,0.07878113,0.1074523999999999,0.9910736,35.4247,3.718719,-27.63464,4.705841,0.393429,0.4289185,-0.4276452999999999,1.064999,-0.07331678,0.04946952,0.4609011999999999,0.0045951,3.935305861274635e-05,-32.67358,31.97
3,0.07217407,0.1060333,0.9917296999999998,1.0,0.04728699,0.1062012,0.9932098,-33.25281,0.686615,-29.169970000000003,4.3751370000000005,0.5400271,0.5479844,1.0,0.09333801,0.1058501999999999,0.989975,35.50581,3.746246,-27.630340000000004,4.652648999999999,0.3881731,0.4281576,-0.4268210999999999,1.065169,-0.07417911,0.04847021,0.4666964,0.002807617,3.935305861274635e-05,-32.67358,31.97
3,0.07217407,0.1060333,0.9917296999999998,1.0,0.04728699,0.1062012,0.9932098,-33.25281,0.686615,-29.169970000000003,4.3751370000000005,0.5400271,0.5479844,1.0,0.09333801,0.1058501999999999,0.989975,35.50581,3.746246,-27.630340000000004,4.652648999999999,0.3881731,0.4281576,-0.4268210999999999,1.065169,-0.07417911,0.04847021,0.4666964,0.002807617,3.935305861274635e-05,-32.67358,31.97
3,0.07217407,0.1060333,0.9917296999999998,1.0,0.04728699,0.1062012,0.9932098,-33.25281,0.686615,-29.169970000000003,4.3751370000000005,0.5400271,0.5479844,1.0,0.09333801,0.1058501999999999,0.989975,35.50581,3.746246,-27.630340000000004,4.652648999999999,0.3881731,0.4281576,-0.4268210999999999,1.065169,-0.07417911,0.04847021,0.4666964,0.002807617,3.935305861274635e-05,-32.67358,31.97
3,0.08575439,0.1124115,0.9899445,1.0,0.05503845,0.1064758,0.9927826,-33.22156,0.6975403,-29.24457,4.353989,0.5376894,0.5482554000000001,1.0,0.09468079,0.1141051999999999,0.9889374,35.57779,3.722702,-27.56723,4.683898999999999,0.385511,0.4270153,-0.4258314,1.065447,-0.07534225,0.04680358,0.4728132,0.001202253,3.935305861274635e-05,-32.67358,31.97
3,0.08575439,0.1124115,0.9899445,1.0,0.05503845,0.1064758,0.9927826,-33.22156,0.6975403,-29.24457,4.353989,0.5376894,0.5482554000000001,1.0,0.09468079,0.1141051999999999,0.9889374,35.57779,3.722702,-27.56723,4.683898999999999,0.385511,0.4270153,-0.4258314,1.065447,-0.07534225,0.04680358,0.4728132,0.001202253,3.935305861274635e-05,-32.67358,31.97
3,0.08575439,0.1124115,0.9899445,1.0,0.05503845,0.1064758,0.9927826,-33.22156,0.6975403,-29.24457,4.353989,0.5376894,0.5482554000000001,1.0,0.09468079,0.1141051999999999,0.9889374,35.57779,3.722702,-27.56723,4.683898999999999,0.385511,0.4270153,-0.4258314,1.065447,-0.07534225,0.04680358,0.4728132,0.001202253,3.935305861274635e-05,-32.67358,31.97
3,0.08950806,0.1206512,0.9886475,1.0,0.06370544,0.1118317,0.9916687,-33.227129999999995,0.7029724,-29.29243,4.302063,0.5364174,0.5475799,1.0,0.1039886,0.1255798,0.9866028,35.5773,3.691299,-27.54915,4.74646,0.3839395,0.4260715999999999,-0.4249958,1.065624,-0.07642752,0.04507916,0.4782547,0.0,3.935305861274635e-05,-32.67358,31.97
3,0.08950806,0.1206512,0.9886475,1.0,0.06370544,0.1118317,0.9916687,-33.227129999999995,0.7029724,-29.29243,4.302063,0.5364174,0.5475799,1.0,0.1039886,0.1255798,0.9866028,35.5773,3.691299,-27.54915,4.74646,0.3839395,0.4260715999999999,-0.4249958,1.065624,-0.07642752,0.04507916,0.4782547,0.0,3.935305861274635e-05,-32.67358,31.97
3,0.08950806,0.1206512,0.9886475,1.0,0.06370544,0.1118317,0.9916687,-33.227129999999995,0.7029724,-29.29243,4.302063,0.5364174,0.5475799,1.0,0.1039886,0.1255798,0.9866028,35.5773,3.691299,-27.54915,4.74646,0.3839395,0.4260715999999999,-0.4249958,1.065624,-0.07642752,0.04507916,0.4782547,0.0,3.935305861274635e-05,-32.67358,31.97
3,0.08950806,0.1206512,0.9886475,1.0,0.06370544,0.1118317,0.9916687,-33.227129999999995,0.7029724,-29.29243,4.302063,0.5364174,0.5475799,1.0,0.1039886,0.1255798,0.9866028,35.5773,3.691299,-27.54915,4.74646,0.3839395,0.4260715999999999,-0.4243052,1.065761,-0.07760175,0.0433298,0.4839449999999999,-0.001320392,3.935305861274635e-05,-32.67358,32.01
3,0.08950806,0.1206512,0.9886475,1.0,0.06370544,0.1118317,0.9916687,-33.227129999999995,0.7029724,-29.29243,4.302063,0.5364174,0.5475799,1.0,0.1039886,0.1255798,0.9866028,35.5773,3.691299,-27.54915,4.74646,0.3839395,0.4260715999999999,-0.4243052,1.065761,-0.07760175,0.0433298,0.4839449999999999,-0.001320392,3.935305861274635e-05,-32.67358,32.01
3,0.08950806,0.1206512,0.9886475,1.0,0.06370544,0.1118317,0.9916687,-33.227129999999995,0.7029724,-29.29243,4.302063,0.5364174,0.5475799,1.0,0.1039886,0.1255798,0.9866028,35.5773,3.691299,-27.54915,4.74646,0.3839395,0.4260715999999999,-0.4243052,1.065761,-0.07760175,0.0433298,0.4839449999999999,-0.001320392,3.935305861274635e-05,-32.67358,32.01
3,0.02210999,0.07363892,0.9970245,1.0,-0.006576538,0.07611084,0.9970703000000002,-33.46989,0.6925507,-29.59096,4.428726,0.5567835999999999,0.5569831999999999,1.0,0.05455017,0.07077026,0.9959869,35.10374,3.59816,-27.94072,4.731888,0.4083348,0.4419922,-0.4235049,1.065923,-0.07894658,0.04240375,0.4894054,-0.001831055,3.935305861274635e-05,-32.67358,32.01
3,0.02210999,0.07363892,0.9970245,1.0,-0.006576538,0.07611084,0.9970703000000002,-33.46989,0.6925507,-29.59096,4.428726,0.5567835999999999,0.5569831999999999,1.0,0.05455017,0.07077026,0.9959869,35.10374,3.59816,-27.94072,4.731888,0.4083348,0.4419922,-0.4235049,1.065923,-0.07894658,0.04240375,0.4894054,-0.001831055,3.935305861274635e-05,-32.67358,32.01
3,0.02210999,0.07363892,0.9970245,1.0,-0.006576538,0.07611084,0.9970703000000002,-33.46989,0.6925507,-29.59096,4.428726,0.5567835999999999,0.5569831999999999,1.0,0.05455017,0.07077026,0.9959869,35.10374,3.59816,-27.94072,4.731888,0.4083348,0.4419922,-0.4235049,1.065923,-0.07894658,0.04240375,0.4894054,-0.001831055,3.935305861274635e-05,-32.67358,32.01
3,-0.2290802,0.01481628,0.9732819,1.0,-0.2293242999999999,0.01483154,0.9732361,-34.64226,0.3942261,-29.55185,4.476227,0.6349736999999999,0.578651,1.0,-0.1521606,0.007675171,0.9883118,33.914640000000006,3.600479,-29.03357,4.502197,0.4839385999999999,0.4631537,-0.4228027,1.066062,-0.08019227,0.04156992,0.4949098,-0.002566382,3.935305861274635e-05,-14.10193,32.01
3,-0.2290802,0.01481628,0.9732819,1.0,-0.2293242999999999,0.01483154,0.9732361,-34.64226,0.3942261,-29.55185,4.476227,0.6349736999999999,0.578651,1.0,-0.1521606,0.007675171,0.9883118,33.914640000000006,3.600479,-29.03357,4.502197,0.4839385999999999,0.4631537,-0.4228027,1.066062,-0.08019227,0.04156992,0.4949098,-0.002566382,3.935305861274635e-05,-14.10193,32.01
3,-0.2290802,0.01481628,0.9732819,1.0,-0.2293242999999999,0.01483154,0.9732361,-34.64226,0.3942261,-29.55185,4.476227,0.6349736999999999,0.578651,1.0,-0.1521606,0.007675171,0.9883118,33.914640000000006,3.600479,-29.03357,4.502197,0.4839385999999999,0.4631537,-0.4228027,1.066062,-0.08019227,0.04156992,0.4949098,-0.002566382,3.935305861274635e-05,-14.10193,32.01
3,-0.2250366,0.0163269,0.9741974,1.0,-0.2250366,0.0163269,0.9741974,-34.63896,0.3867645,-29.55222,4.490341,0.634115,0.5786186,1.0,-0.154129,0.007751465,0.9880065999999998,33.95856,3.570786,-28.946140000000003,4.530579,0.4827404999999999,0.4634115,-0.4220054,1.066308,-0.0817138999999999,0.04082929,0.5005432,-0.0027007629999999,3.935305861274635e-05,-14.10193,32.01
3,-0.2250366,0.0163269,0.9741974,1.0,-0.2250366,0.0163269,0.9741974,-34.63896,0.3867645,-29.55222,4.490341,0.634115,0.5786186,1.0,-0.154129,0.007751465,0.9880065999999998,33.95856,3.570786,-28.946140000000003,4.530579,0.4827404999999999,0.4634115,-0.4220054,1.066308,-0.0817138999999999,0.04082929,0.5005432,-0.0027007629999999,3.935305861274635e-05,-14.10193,32.01
3,-0.2250366,0.0163269,0.9741974,1.0,-0.2250366,0.0163269,0.9741974,-34.63896,0.3867645,-29.55222,4.490341,0.634115,0.5786186,1.0,-0.154129,0.007751465,0.9880065999999998,33.95856,3.570786,-28.946140000000003,4.530579,0.4827404999999999,0.4634115,-0.4220054,1.066308,-0.0817138999999999,0.04082929,0.5005432,-0.0027007629999999,3.935305861274635e-05,-14.10193,32.01
4,-0.2082061999999999,0.006866455,0.9780579,1.0,-0.2084045,0.006866455,0.9780121,-34.54298,0.3692627,-29.408890000000003,4.4897,0.6277162,0.5792421,1.0,-0.1435547,0.007919312,0.9896088,34.0899,3.392929,-28.36269,4.681061,0.4763242,0.4642189,-0.4212674,1.066582,-0.08293365,0.03964176,0.5052888,-0.002192173,3.935305861274635e-05,-14.10193,32.01
4,-0.2082061999999999,0.006866455,0.9780579,1.0,-0.2084045,0.006866455,0.9780121,-34.54298,0.3692627,-29.408890000000003,4.4897,0.6277162,0.5792421,1.0,-0.1435547,0.007919312,0.9896088,34.0899,3.392929,-28.36269,4.681061,0.4763242,0.4642189,-0.4212674,1.066582,-0.08293365,0.03964176,0.5052888,-0.002192173,3.935305861274635e-05,-14.10193,32.01
