Second,eye_comb_direction_x,eye_comb_direction_y,eye_comb_direction_z,eye_r_openness,eye_r_direction_x,eye_r_direction_y,eye_r_direction_z,eye_r_origin_x,eye_r_origin_y,eye_r_origin_z,eye_r_pupil_diameter,eye_r_pupil_position_x,eye_r_pupil_position_y,eye_l_openness,eye_l_direction_x,eye_l_direction_y,eye_l_direction_z,eye_l_origin_x,eye_l_origin_y,eye_l_origin_z,eye_l_pupil_diameter,eye_l_pupil_position_x,eye_l_pupil_position_y,head_position_x,head_position_y,head_position_z,head_rotation_roll,head_rotation_pitch,head_rotation_yaw,EDA,BVP,TMP
0,0.0259552,-0.06344604,0.9976349,1.0,-0.07191467,-0.05682373,0.9957886,-34.25485,3.846497,-28.484890000000004,5.238953,0.5936161,0.4637229,1.0,0.0259552,-0.06344604,0.9976349,34.610409999999995,5.961365,-27.60124,5.651428,0.4303946,0.381761,-0.6045480999999999,1.017745,-0.09317406,0.03346875,0.7425531,0.005904343,1.526406408531995,-0.04928942659473024,29.824127979924718
0,0.0259552,-0.06344604,0.9976349,1.0,-0.07191467,-0.05682373,0.9957886,-34.25485,3.846497,-28.484890000000004,5.238953,0.5936161,0.4637229,1.0,0.0259552,-0.06344604,0.9976349,34.610409999999995,5.961365,-27.60124,5.651428,0.4303946,0.381761,-0.6045480999999999,1.017745,-0.09317406,0.03346875,0.7425531,0.005904343,1.526406408531995,-0.04928942659473024,29.824127979924718
0,0.0259552,-0.06344604,0.9976349,1.0,-0.07191467,-0.05682373,0.9957886,-34.25485,3.846497,-28.484890000000004,5.238953,0.5936161,0.4637229,1.0,0.0259552,-0.06344604,0.9976349,34.610409999999995,5.961365,-27.60124,5.651428,0.4303946,0.381761,-0.6045480999999999,1.017745,-0.09317406,0.03346875,0.7425531,0.005904343,1.526406408531995,-0.04928942659473024,29.824127979924718
0,0.0259552,-0.06344604,0.9976349,1.0,-0.07191467,-0.05682373,0.9957886,-34.25485,3.846497,-28.484890000000004,5.238953,0.5936161,0.4637229,1.0,0.0259552,-0.06344604,0.9976349,34.610409999999995,5.961365,-27.60124,5.651428,0.4303946,0.381761,-0.6045480999999999,1.017745,-0.09317406,0.03346875,0.7425531,0.005904343,1.526406408531995,-0.04928942659473024,29.824127979924718
0,0.02436829,-0.0635376,0.9976807,1.0,-0.0700531,-0.05813599,0.9958344,-34.260940000000005,3.851334,-28.50368,5.2285,0.5935328000000001,0.4639353,1.0,0.02438354,-0.0635376,0.9976807,34.61942,5.952957,-27.58057,5.584015,0.4303662,0.3818855,-0.6045144,1.0177040000000002,-0.09304307,0.03352726,0.742442,0.005834527,1.526406408531995,-0.04928942659473024,29.824127979924718
0,0.02436829,-0.0635376,0.9976807,1.0,-0.0700531,-0.05813599,0.9958344,-34.260940000000005,3.851334,-28.50368,5.2285,0.5935328000000001,0.4639353,1.0,0.02438354,-0.0635376,0.9976807,34.61942,5.952957,-27.58057,5.584015,0.4303662,0.3818855,-0.6045144,1.0177040000000002,-0.09304307,0.03352726,0.742442,0.005834527,1.526406408531995,-0.04928942659473024,29.824127979924718
0,0.02436829,-0.0635376,0.9976807,1.0,-0.0700531,-0.05813599,0.9958344,-34.260940000000005,3.851334,-28.50368,5.2285,0.5935328000000001,0.4639353,1.0,0.02438354,-0.0635376,0.9976807,34.61942,5.952957,-27.58057,5.584015,0.4303662,0.3818855,-0.6045144,1.0177040000000002,-0.09304307,0.03352726,0.742442,0.005834527,1.526406408531995,-0.04928942659473024,29.824127979924718
0,-0.02333069,-0.06150818,0.997818,1.0,-0.06854248,-0.05783081,0.9959564,-34.27127,3.868378,-28.58072,5.119034,0.5936994999999999,0.4639353,1.0,0.01242065,-0.06433105,0.9978485,34.68683,5.950546,-27.56705,5.5740050000000005,0.4300369,0.3819769,-0.6045998,1.017694,-0.09294569,0.03369074,0.7423729,0.005819823,1.520002,-0.04928942659473024,29.824127979924718
0,-0.02333069,-0.06150818,0.997818,1.0,-0.06854248,-0.05783081,0.9959564,-34.27127,3.868378,-28.58072,5.119034,0.5936994999999999,0.4639353,1.0,0.01242065,-0.06433105,0.9978485,34.68683,5.950546,-27.56705,5.5740050000000005,0.4300369,0.3819769,-0.6045998,1.017694,-0.09294569,0.03369074,0.7423729,0.005819823,1.520002,-0.04928942659473024,29.824127979924718
0,-0.02333069,-0.06150818,0.997818,1.0,-0.06854248,-0.05783081,0.9959564,-34.27127,3.868378,-28.58072,5.119034,0.5936994999999999,0.4639353,1.0,0.01242065,-0.06433105,0.9978485,34.68683,5.950546,-27.56705,5.5740050000000005,0.4300369,0.3819769,-0.6045998,1.017694,-0.09294569,0.03369074,0.7423729,0.005819823,1.520002,-0.04928942659473024,29.824127979924718
0,-0.02333069,-0.06150818,0.997818,1.0,-0.06854248,-0.05783081,0.9959564,-34.27127,3.868378,-28.58072,5.119034,0.5936994999999999,0.4639353,1.0,0.01242065,-0.06433105,0.9978485,34.68683,5.950546,-27.56705,5.5740050000000005,0.4300369,0.3819769,-0.6046822,1.017623,-0.092912,0.03408249,0.7422155,0.005893923,1.520002,-0.04928942659473024,29.824127979924718
0,-0.02333069,-0.06150818,0.997818,1.0,-0.06854248,-0.05783081,0.9959564,-34.27127,3.868378,-28.58072,5.119034,0.5936994999999999,0.4639353,1.0,0.01242065,-0.06433105,0.9978485,34.68683,5.950546,-27.56705,5.5740050000000005,0.4300369,0.3819769,-0.6046822,1.017623,-0.092912,0.03408249,0.7422155,0.005893923,1.520002,-0.04928942659473024,29.824127979924718
0,-0.02333069,-0.06150818,0.997818,1.0,-0.06854248,-0.05783081,0.9959564,-34.27127,3.868378,-28.58072,5.119034,0.5936994999999999,0.4639353,1.0,0.01242065,-0.06433105,0.9978485,34.68683,5.950546,-27.56705,5.5740050000000005,0.4300369,0.3819769,-0.6046822,1.017623,-0.092912,0.03408249,0.7422155,0.005893923,1.520002,-0.04928942659473024,29.824127979924718
0,-0.02333069,-0.06150818,0.997818,1.0,-0.06854248,-0.05783081,0.9959564,-34.27127,3.868378,-28.58072,5.119034,0.5936994999999999,0.4639353,1.0,0.01242065,-0.06433105,0.9978485,34.68683,5.950546,-27.56705,5.5740050000000005,0.4300369,0.3819769,-0.6046279999999999,1.017587,-0.0928387,0.03432477,0.7420553000000001,0.005865729,1.520002,-0.04928942659473024,29.824127979924718
0,-0.02333069,-0.06150818,0.997818,1.0,-0.06854248,-0.05783081,0.9959564,-34.27127,3.868378,-28.58072,5.119034,0.5936994999999999,0.4639353,1.0,0.01242065,-0.06433105,0.9978485,34.68683,5.950546,-27.56705,5.5740050000000005,0.4300369,0.3819769,-0.6046279999999999,1.017587,-0.0928387,0.03432477,0.7420553000000001,0.005865729,1.520002,-0.04928942659473024,29.824127979924718
0,-0.02333069,-0.06150818,0.997818,1.0,-0.06854248,-0.05783081,0.9959564,-34.27127,3.868378,-28.58072,5.119034,0.5936994999999999,0.4639353,1.0,0.01242065,-0.06433105,0.9978485,34.68683,5.950546,-27.56705,5.5740050000000005,0.4300369,0.3819769,-0.6046279999999999,1.017587,-0.0928387,0.03432477,0.7420553000000001,0.005865729,1.520002,-0.04928942659473024,29.824127979924718
0,-0.02163696,-0.06448364,0.9976807,1.0,-0.06880188,-0.06019592,0.9958038,-34.27528,3.868378,-28.58072,5.099808,0.5938734999999999,0.4643233,1.0,0.01246643,-0.06748962,0.9976349,34.69608,5.945037999999999,-27.56564,5.535233,0.4297183,0.3826908,-0.6045693,1.017579,-0.09275645,0.03474332,0.741935,0.005961482,1.520002,-0.04928942659473024,29.824127979924718
0,-0.02163696,-0.06448364,0.9976807,1.0,-0.06880188,-0.06019592,0.9958038,-34.27528,3.868378,-28.58072,5.099808,0.5938734999999999,0.4643233,1.0,0.01246643,-0.06748962,0.9976349,34.69608,5.945037999999999,-27.56564,5.535233,0.4297183,0.3826908,-0.6045693,1.017579,-0.09275645,0.03474332,0.741935,0.005961482,1.520002,-0.04928942659473024,29.824127979924718
0,-0.02163696,-0.06448364,0.9976807,1.0,-0.06880188,-0.06019592,0.9958038,-34.27528,3.868378,-28.58072,5.099808,0.5938734999999999,0.4643233,1.0,0.01246643,-0.06748962,0.9976349,34.69608,5.945037999999999,-27.56564,5.535233,0.4297183,0.3826908,-0.6045693,1.017579,-0.09275645,0.03474332,0.741935,0.005961482,1.520002,-0.04928942659473024,29.824127979924718
0,0.01199341,-0.06904602,0.9975281,1.0,-0.06889343,-0.06869507,0.9952545,-34.2964,3.5864260000000003,-27.53949,4.939774,0.5935676,0.4659768,1.0,0.01199341,-0.06904602,0.9975281,34.7012,5.937241,-27.53526,5.472244,0.4296437,0.3829597,-0.6045376,1.017548,-0.09272923,0.03489829,0.741842,0.006062791,1.520002,-0.04928942659473024,29.824127979924718
0,0.01199341,-0.06904602,0.9975281,1.0,-0.06889343,-0.06869507,0.9952545,-34.2964,3.5864260000000003,-27.53949,4.939774,0.5935676,0.4659768,1.0,0.01199341,-0.06904602,0.9975281,34.7012,5.937241,-27.53526,5.472244,0.4296437,0.3829597,-0.6045376,1.017548,-0.09272923,0.03489829,0.741842,0.006062791,1.520002,-0.04928942659473024,29.824127979924718
0,0.01199341,-0.06904602,0.9975281,1.0,-0.06889343,-0.06869507,0.9952545,-34.2964,3.5864260000000003,-27.53949,4.939774,0.5935676,0.4659768,1.0,0.01199341,-0.06904602,0.9975281,34.7012,5.937241,-27.53526,5.472244,0.4296437,0.3829597,-0.6045376,1.017548,-0.09272923,0.03489829,0.741842,0.006062791,1.520002,-0.04928942659473024,29.824127979924718
0,0.01113892,-0.07315063,0.9972534,1.0,-0.06858826,-0.06785583,0.9953308,-34.2984,3.583771,-27.519440000000003,4.925125,0.5935658,0.4657494,1.0,0.01191711,-0.07319641,0.9972382,34.70009,5.934906,-27.52673,5.328644000000001,0.4297213,0.3836654,-0.6044951999999999,1.017433,-0.09263749,0.03528935,0.7417374,0.006143364,1.520002,-0.04928942659473024,29.824127979924718
0,0.01113892,-0.07315063,0.9972534,1.0,-0.06858826,-0.06785583,0.9953308,-34.2984,3.583771,-27.519440000000003,4.925125,0.5935658,0.4657494,1.0,0.01191711,-0.07319641,0.9972382,34.70009,5.934906,-27.52673,5.328644000000001,0.4297213,0.3836654,-0.6044951999999999,1.017433,-0.09263749,0.03528935,0.7417374,0.006143364,1.520002,-0.04928942659473024,29.824127979924718
0,0.01113892,-0.07315063,0.9972534,1.0,-0.06858826,-0.06785583,0.9953308,-34.2984,3.583771,-27.519440000000003,4.925125,0.5935658,0.4657494,1.0,0.01191711,-0.07319641,0.9972382,34.70009,5.934906,-27.52673,5.328644000000001,0.4297213,0.3836654,-0.6044951999999999,1.017433,-0.09263749,0.03528935,0.7417374,0.006143364,1.520002,-0.04928942659473024,29.824127979924718
0,-0.03005981,-0.07017517,0.9970703000000002,1.0,-0.06832886,-0.06661987,0.9954224,-34.29945,3.585785,-27.52863,4.897217,0.5935658,0.4655389,1.0,0.01133728,-0.07389832,0.9971924,34.69833,5.928008999999999,-27.48334,5.316986,0.4298955,0.383661,-0.6044544,1.017385,-0.09262559,0.03550437,0.7417533000000001,0.0061342609999999,1.520002,-0.04928942659473024,29.824127979924718
0,-0.03005981,-0.07017517,0.9970703000000002,1.0,-0.06832886,-0.06661987,0.9954224,-34.29945,3.585785,-27.52863,4.897217,0.5935658,0.4655389,1.0,0.01133728,-0.07389832,0.9971924,34.69833,5.928008999999999,-27.48334,5.316986,0.4298955,0.383661,-0.6044544,1.017385,-0.09262559,0.03550437,0.7417533000000001,0.0061342609999999,1.520002,-0.04928942659473024,29.824127979924718
0,-0.03005981,-0.07017517,0.9970703000000002,1.0,-0.06832886,-0.06661987,0.9954224,-34.29945,3.585785,-27.52863,4.897217,0.5935658,0.4655389,1.0,0.01133728,-0.07389832,0.9971924,34.69833,5.928008999999999,-27.48334,5.316986,0.4298955,0.383661,-0.6044544,1.017385,-0.09262559,0.03550437,0.7417533000000001,0.0061342609999999,1.520002,-0.04928942659473024,29.824127979924718
0,-0.03125,-0.06861877,0.9971466,1.0,-0.06620789,-0.0657196,0.995636,-34.29959,3.5883480000000003,-27.54257,4.8681790000000005,0.5932334,0.4653983,1.0,0.008453369,-0.07182312,0.9973755,34.69908,5.929321,-27.48125,5.3081510000000005,0.4303537999999999,0.3832445,-0.6043930000000001,1.017382,-0.09263678,0.03529727,0.7418376,0.005674957,1.520002,-0.04928942659473024,29.824127979924718
0,-0.03125,-0.06861877,0.9971466,1.0,-0.06620789,-0.0657196,0.995636,-34.29959,3.5883480000000003,-27.54257,4.8681790000000005,0.5932334,0.4653983,1.0,0.008453369,-0.07182312,0.9973755,34.69908,5.929321,-27.48125,5.3081510000000005,0.4303537999999999,0.3832445,-0.6043930000000001,1.017382,-0.09263678,0.03529727,0.7418376,0.005674957,1.520002,-0.04928942659473024,29.824127979924718
0,-0.03125,-0.06861877,0.9971466,1.0,-0.06620789,-0.0657196,0.995636,-34.29959,3.5883480000000003,-27.54257,4.8681790000000005,0.5932334,0.4653983,1.0,0.008453369,-0.07182312,0.9973755,34.69908,5.929321,-27.48125,5.3081510000000005,0.4303537999999999,0.3832445,-0.6043930000000001,1.017382,-0.09263678,0.03529727,0.7418376,0.005674957,1.520002,-0.04928942659473024,29.824127979924718
0,-0.01347351,-0.06843567,0.9975586,1.0,-0.06503296,-0.06349182,0.9958496,-34.30292,3.637711,-27.71777,4.795639,0.5933189,0.4648842000000001,1.0,0.01123047,-0.07073975,0.9974213,34.69908,5.929321,-27.48036,5.299988,0.4298955,0.3830481,-0.6043279,1.017311,-0.09273124,0.03529226,0.7419764,0.005383564,1.520002,-12.05211,29.824127979924718
0,-0.01347351,-0.06843567,0.9975586,1.0,-0.06503296,-0.06349182,0.9958496,-34.30292,3.637711,-27.71777,4.795639,0.5933189,0.4648842000000001,1.0,0.01123047,-0.07073975,0.9974213,34.69908,5.929321,-27.48036,5.299988,0.4298955,0.3830481,-0.6043279,1.017311,-0.09273124,0.03529226,0.7419764,0.005383564,1.520002,-12.05211,29.824127979924718
0,-0.01347351,-0.06843567,0.9975586,1.0,-0.06503296,-0.06349182,0.9958496,-34.30292,3.637711,-27.71777,4.795639,0.5933189,0.4648842000000001,1.0,0.01123047,-0.07073975,0.9974213,34.69908,5.929321,-27.48036,5.299988,0.4298955,0.3830481,-0.6043279,1.017311,-0.09273124,0.03529226,0.7419764,0.005383564,1.520002,-12.05211,29.824127979924718
0,-0.01347351,-0.06843567,0.9975586,1.0,-0.06503296,-0.06349182,0.9958496,-34.30292,3.637711,-27.71777,4.795639,0.5933189,0.4648842000000001,1.0,0.01123047,-0.07073975,0.9974213,34.69908,5.929321,-27.48036,5.299988,0.4298955,0.3830481,-0.6043375,1.017266,-0.09300041,0.03552645,0.7422807,0.005351638,1.520002,-12.05211,29.824127979924718
0,-0.01347351,-0.06843567,0.9975586,1.0,-0.06503296,-0.06349182,0.9958496,-34.30292,3.637711,-27.71777,4.795639,0.5933189,0.4648842000000001,1.0,0.01123047,-0.07073975,0.9974213,34.69908,5.929321,-27.48036,5.299988,0.4298955,0.3830481,-0.6043375,1.017266,-0.09300041,0.03552645,0.7422807,0.005351638,1.520002,-12.05211,29.824127979924718
0,-0.01347351,-0.06843567,0.9975586,1.0,-0.06503296,-0.06349182,0.9958496,-34.30292,3.637711,-27.71777,4.795639,0.5933189,0.4648842000000001,1.0,0.01123047,-0.07073975,0.9974213,34.69908,5.929321,-27.48036,5.299988,0.4298955,0.3830481,-0.6043375,1.017266,-0.09300041,0.03552645,0.7422807,0.005351638,1.520002,-12.05211,29.824127979924718
0,-0.006591797,-0.06825256,0.9976349,1.0,-0.06732178,-0.06152344,0.9958190999999998,-34.30098,3.634369,-27.71388,4.79155,0.5936278,0.4646397,1.0,0.01124573,-0.07019043,0.997467,34.69908,5.929321,-27.48036,5.28537,0.4298955,0.3829597,-0.6043938,1.017264,-0.09307835,0.03562843,0.7424526,0.005313916,1.520002,-12.05211,29.824127979924718
0,-0.006591797,-0.06825256,0.9976349,1.0,-0.06732178,-0.06152344,0.9958190999999998,-34.30098,3.634369,-27.71388,4.79155,0.5936278,0.4646397,1.0,0.01124573,-0.07019043,0.997467,34.69908,5.929321,-27.48036,5.28537,0.4298955,0.3829597,-0.6043938,1.017264,-0.09307835,0.03562843,0.7424526,0.005313916,1.520002,-12.05211,29.824127979924718
0,-0.006591797,-0.06825256,0.9976349,1.0,-0.06732178,-0.06152344,0.9958190999999998,-34.30098,3.634369,-27.71388,4.79155,0.5936278,0.4646397,1.0,0.01124573,-0.07019043,0.997467,34.69908,5.929321,-27.48036,5.28537,0.4298955,0.3829597,-0.6043938,1.017264,-0.09307835,0.03562843,0.7424526,0.005313916,1.520002,-12.05211,29.824127979924718
0,-0.01301575,-0.07002258,0.9974518,1.0,-0.06495667,-0.06611633,0.9956818,-34.27306,3.554932,-27.49731,4.760315,0.5920859,0.4661387999999999,1.0,0.01275635,-0.07188416,0.9973297,34.71928,5.959412,-27.61133,5.131256,0.4289262,0.3832532999999999,-0.6043980999999999,1.0172219999999998,-0.09317791,0.03548117,0.742505,0.005190142,1.520002,-12.05211,29.824127979924718
0,-0.01301575,-0.07002258,0.9974518,1.0,-0.06495667,-0.06611633,0.9956818,-34.27306,3.554932,-27.49731,4.760315,0.5920859,0.4661387999999999,1.0,0.01275635,-0.07188416,0.9973297,34.71928,5.959412,-27.61133,5.131256,0.4289262,0.3832532999999999,-0.6043980999999999,1.0172219999999998,-0.09317791,0.03548117,0.742505,0.005190142,1.520002,-12.05211,29.824127979924718
0,-0.01301575,-0.07002258,0.9974518,1.0,-0.06495667,-0.06611633,0.9956818,-34.27306,3.554932,-27.49731,4.760315,0.5920859,0.4661387999999999,1.0,0.01275635,-0.07188416,0.9973297,34.71928,5.959412,-27.61133,5.131256,0.4289262,0.3832532999999999,-0.6043980999999999,1.0172219999999998,-0.09317791,0.03548117,0.742505,0.005190142,1.520002,-12.05211,29.824127979924718
0,-0.01914978,-0.0692748999999999,0.997406,1.0,-0.06654358,-0.06564331,0.9956055,-34.2663,3.542099,-27.46291,4.741364,0.5920859,0.4661724,1.0,0.01361084,-0.07168579,0.9973297,34.72012,5.960541,-27.621340000000004,5.113205000000001,0.4287556999999999,0.3832532999999999,-0.6043733,1.017228,-0.09320298,0.03539934,0.7425769,0.005046394,1.520002,-12.05211,29.824127979924718
0,-0.01914978,-0.0692748999999999,0.997406,1.0,-0.06654358,-0.06564331,0.9956055,-34.2663,3.542099,-27.46291,4.741364,0.5920859,0.4661724,1.0,0.01361084,-0.07168579,0.9973297,34.72012,5.960541,-27.621340000000004,5.113205000000001,0.4287556999999999,0.3832532999999999,-0.6043733,1.017228,-0.09320298,0.03539934,0.7425769,0.005046394,1.520002,-12.05211,29.824127979924718
0,-0.01914978,-0.0692748999999999,0.997406,1.0,-0.06654358,-0.06564331,0.9956055,-34.2663,3.542099,-27.46291,4.741364,0.5920859,0.4661724,1.0,0.01361084,-0.07168579,0.9973297,34.72012,5.960541,-27.621340000000004,5.113205000000001,0.4287556999999999,0.3832532999999999,-0.6043733,1.017228,-0.09320298,0.03539934,0.7425769,0.005046394,1.520002,-12.05211,29.824127979924718
0,-0.02320862,-0.06886292,0.997345,1.0,-0.06700134,-0.06523132,0.9956055,-34.26424,3.53981,-27.45786,4.733322,0.5920859,0.4661387999999999,1.0,0.01350403,-0.0717926,0.9973145,34.72073,5.95961,-27.61499,5.1070400000000005,0.4287556999999999,0.3832532999999999,-0.6045055,1.017262,-0.09349389,0.03512307,0.7426643,0.004815979,1.520002,-12.05211,29.824127979924718
0,-0.02320862,-0.06886292,0.997345,1.0,-0.06700134,-0.06523132,0.9956055,-34.26424,3.53981,-27.45786,4.733322,0.5920859,0.4661387999999999,1.0,0.01350403,-0.0717926,0.9973145,34.72073,5.95961,-27.61499,5.1070400000000005,0.4287556999999999,0.3832532999999999,-0.6045055,1.017262,-0.09349389,0.03512307,0.7426643,0.004815979,1.520002,-12.05211,29.824127979924718
0,-0.02320862,-0.06886292,0.997345,1.0,-0.06700134,-0.06523132,0.9956055,-34.26424,3.53981,-27.45786,4.733322,0.5920859,0.4661387999999999,1.0,0.01350403,-0.0717926,0.9973145,34.72073,5.95961,-27.61499,5.1070400000000005,0.4287556999999999,0.3832532999999999,-0.6045055,1.017262,-0.09349389,0.03512307,0.7426643,0.004815979,1.520002,-12.05211,29.824127979924718
0,-0.02320862,-0.06886292,0.997345,1.0,-0.06700134,-0.06523132,0.9956055,-34.26424,3.53981,-27.45786,4.733322,0.5920859,0.4661387999999999,1.0,0.01350403,-0.0717926,0.9973145,34.72073,5.95961,-27.61499,5.1070400000000005,0.4287556999999999,0.3832532999999999,-0.6045055,1.017262,-0.09349389,0.03512307,0.7426643,0.004815979,1.520002,2.781227,29.824127979924718
0,-0.02320862,-0.06886292,0.997345,1.0,-0.06700134,-0.06523132,0.9956055,-34.26424,3.53981,-27.45786,4.733322,0.5920859,0.4661387999999999,1.0,0.01350403,-0.0717926,0.9973145,34.72073,5.95961,-27.61499,5.1070400000000005,0.4287556999999999,0.3832532999999999,-0.6045055,1.017262,-0.09349389,0.03512307,0.7426643,0.004815979,1.520002,2.781227,29.824127979924718
0,-0.02320862,-0.06886292,0.997345,1.0,-0.06700134,-0.06523132,0.9956055,-34.26424,3.53981,-27.45786,4.733322,0.5920859,0.4661387999999999,1.0,0.01350403,-0.0717926,0.9973145,34.72073,5.95961,-27.61499,5.1070400000000005,0.4287556999999999,0.3832532999999999,-0.6045055,1.017262,-0.09349389,0.03512307,0.7426643,0.004815979,1.520002,2.781227,29.824127979924718
1,-0.02401733,-0.06936646,0.9972992,1.0,-0.06678772,-0.06494141,0.995636,-34.263090000000005,3.5375370000000004,-27.45488,4.731216000000001,0.5920091,0.4661354,1.0,0.01223755,-0.07299805,0.9972534,34.72122,5.959885,-27.61743,5.109222,0.4289469,0.3834657,-0.6046412,1.017281,-0.09362593,0.03497197,0.7427613000000001,0.00494234,1.520002,2.781227,29.824127979924718
1,-0.02401733,-0.06936646,0.9972992,1.0,-0.06678772,-0.06494141,0.995636,-34.263090000000005,3.5375370000000004,-27.45488,4.731216000000001,0.5920091,0.4661354,1.0,0.01223755,-0.07299805,0.9972534,34.72122,5.959885,-27.61743,5.109222,0.4289469,0.3834657,-0.6046412,1.017281,-0.09362593,0.03497197,0.7427613000000001,0.00494234,1.520002,2.781227,29.824127979924718
1,-0.02401733,-0.06936646,0.9972992,1.0,-0.06678772,-0.06494141,0.995636,-34.263090000000005,3.5375370000000004,-27.45488,4.731216000000001,0.5920091,0.4661354,1.0,0.01223755,-0.07299805,0.9972534,34.72122,5.959885,-27.61743,5.109222,0.4289469,0.3834657,-0.6046412,1.017281,-0.09362593,0.03497197,0.7427613000000001,0.00494234,1.520002,2.781227,29.824127979924718
1,-0.02114868,-0.06838989,0.9974213,1.0,-0.06257629,-0.06385803,0.9959869,-34.24719,3.541824,-27.50467,4.690735,0.5908277,0.4662189,1.0,0.01402283,-0.07214355,0.9972839,34.721270000000004,5.960541,-27.621340000000004,5.103301999999999,0.428648,0.3833337,-0.6046937,1.017309,-0.09366067,0.03427449,0.7429831,0.004505866,1.520002,2.781227,29.824127979924718
1,-0.02114868,-0.06838989,0.9974213,1.0,-0.06257629,-0.06385803,0.9959869,-34.24719,3.541824,-27.50467,4.690735,0.5908277,0.4662189,1.0,0.01402283,-0.07214355,0.9972839,34.721270000000004,5.960541,-27.621340000000004,5.103301999999999,0.428648,0.3833337,-0.6046937,1.017309,-0.09366067,0.03427449,0.7429831,0.004505866,1.520002,2.781227,29.824127979924718
1,-0.02114868,-0.06838989,0.9974213,1.0,-0.06257629,-0.06385803,0.9959869,-34.24719,3.541824,-27.50467,4.690735,0.5908277,0.4662189,1.0,0.01402283,-0.07214355,0.9972839,34.721270000000004,5.960541,-27.621340000000004,5.103301999999999,0.428648,0.3833337,-0.6046937,1.017309,-0.09366067,0.03427449,0.7429831,0.004505866,1.520002,2.781227,29.824127979924718
1,-0.02114868,-0.06838989,0.9974213,1.0,-0.06257629,-0.06385803,0.9959869,-34.24719,3.541824,-27.50467,4.690735,0.5908277,0.4662189,1.0,0.01402283,-0.07214355,0.9972839,34.721270000000004,5.960541,-27.621340000000004,5.103301999999999,0.428648,0.3833337,-0.6047633000000001,1.017286,-0.09380919,0.03409255,0.7432709,0.004366041,1.520002,2.781227,29.824127979924718
1,-0.02114868,-0.06838989,0.9974213,1.0,-0.06257629,-0.06385803,0.9959869,-34.24719,3.541824,-27.50467,4.690735,0.5908277,0.4662189,1.0,0.01402283,-0.07214355,0.9972839,34.721270000000004,5.960541,-27.621340000000004,5.103301999999999,0.428648,0.3833337,-0.6047633000000001,1.017286,-0.09380919,0.03409255,0.7432709,0.004366041,1.520002,2.781227,29.824127979924718
1,-0.02114868,-0.06838989,0.9974213,1.0,-0.06257629,-0.06385803,0.9959869,-34.24719,3.541824,-27.50467,4.690735,0.5908277,0.4662189,1.0,0.01402283,-0.07214355,0.9972839,34.721270000000004,5.960541,-27.621340000000004,5.103301999999999,0.428648,0.3833337,-0.6047633000000001,1.017286,-0.09380919,0.03409255,0.7432709,0.004366041,1.520002,2.781227,29.824127979924718
1,-0.01200867,-0.06286621,0.9979401,1.0,-0.0532074,-0.05857849,0.9968567,-34.14835,3.609558,-27.58791,4.632889,0.5860474,0.4637418,1.0,0.01742554,-0.06585693,0.9976654,34.81505,6.065491000000001,-27.68933,5.03685,0.42486,0.3791522,-0.604739,1.017339,-0.09397365,0.0339876999999999,0.7434257,0.0042007979999999,1.520002,2.781227,29.824127979924718
1,-0.01200867,-0.06286621,0.9979401,1.0,-0.0532074,-0.05857849,0.9968567,-34.14835,3.609558,-27.58791,4.632889,0.5860474,0.4637418,1.0,0.01742554,-0.06585693,0.9976654,34.81505,6.065491000000001,-27.68933,5.03685,0.42486,0.3791522,-0.604739,1.017339,-0.09397365,0.0339876999999999,0.7434257,0.0042007979999999,1.520002,2.781227,29.824127979924718
1,-0.01200867,-0.06286621,0.9979401,1.0,-0.0532074,-0.05857849,0.9968567,-34.14835,3.609558,-27.58791,4.632889,0.5860474,0.4637418,1.0,0.01742554,-0.06585693,0.9976654,34.81505,6.065491000000001,-27.68933,5.03685,0.42486,0.3791522,-0.604739,1.017339,-0.09397365,0.0339876999999999,0.7434257,0.0042007979999999,1.520002,2.781227,29.824127979924718
1,-0.01200867,-0.06286621,0.9979401,1.0,-0.0532074,-0.05857849,0.9968567,-34.14835,3.609558,-27.58791,4.632889,0.5860474,0.4637418,1.0,0.01742554,-0.06585693,0.9976654,34.81505,6.065491000000001,-27.68933,5.03685,0.42486,0.3791522,-0.6047494000000001,1.01745,-0.09424521,0.03356512,0.7435497,0.003929072,1.520002,3.623575,29.824127979924718
1,-0.01200867,-0.06286621,0.9979401,1.0,-0.0532074,-0.05857849,0.9968567,-34.14835,3.609558,-27.58791,4.632889,0.5860474,0.4637418,1.0,0.01742554,-0.06585693,0.9976654,34.81505,6.065491000000001,-27.68933,5.03685,0.42486,0.3791522,-0.6047494000000001,1.01745,-0.09424521,0.03356512,0.7435497,0.003929072,1.520002,3.623575,29.824127979924718
1,-0.01200867,-0.06286621,0.9979401,1.0,-0.0532074,-0.05857849,0.9968567,-34.14835,3.609558,-27.58791,4.632889,0.5860474,0.4637418,1.0,0.01742554,-0.06585693,0.9976654,34.81505,6.065491000000001,-27.68933,5.03685,0.42486,0.3791522,-0.6047494000000001,1.01745,-0.09424521,0.03356512,0.7435497,0.003929072,1.520002,3.623575,29.824127979924718
1,0.1371765,0.003814697,0.9905243,1.0,0.06079102,0.01765442,0.9979858,-33.65018,4.110519,-28.48892,4.593079,0.5511705,0.4419629,1.0,0.1422729,0.00289917,0.9898224,35.24272,6.17305,-26.62378,4.9492650000000005,0.3898702,0.3548177,-0.6047720999999999,1.0174299999999998,-0.09441821,0.03310216,0.7436535,0.003578243,1.520002,3.623575,29.824127979924718
1,0.1371765,0.003814697,0.9905243,1.0,0.06079102,0.01765442,0.9979858,-33.65018,4.110519,-28.48892,4.593079,0.5511705,0.4419629,1.0,0.1422729,0.00289917,0.9898224,35.24272,6.17305,-26.62378,4.9492650000000005,0.3898702,0.3548177,-0.6047720999999999,1.0174299999999998,-0.09441821,0.03310216,0.7436535,0.003578243,1.520002,3.623575,29.824127979924718
1,0.1371765,0.003814697,0.9905243,1.0,0.06079102,0.01765442,0.9979858,-33.65018,4.110519,-28.48892,4.593079,0.5511705,0.4419629,1.0,0.1422729,0.00289917,0.9898224,35.24272,6.17305,-26.62378,4.9492650000000005,0.3898702,0.3548177,-0.6047720999999999,1.0174299999999998,-0.09441821,0.03310216,0.7436535,0.003578243,1.520002,3.623575,29.824127979924718
1,0.1371765,0.003814697,0.9905243,1.0,0.06079102,0.01765442,0.9979858,-33.65018,4.110519,-28.48892,4.593079,0.5511705,0.4419629,1.0,0.1422729,0.00289917,0.9898224,35.24272,6.17305,-26.62378,4.9492650000000005,0.3898702,0.3548177,-0.6047111999999999,1.017379,-0.09448895,0.03291199,0.7437394,0.003460753,1.520002,3.623575,29.824127979924718
1,0.1371765,0.003814697,0.9905243,1.0,0.06079102,0.01765442,0.9979858,-33.65018,4.110519,-28.48892,4.593079,0.5511705,0.4419629,1.0,0.1422729,0.00289917,0.9898224,35.24272,6.17305,-26.62378,4.9492650000000005,0.3898702,0.3548177,-0.6047111999999999,1.017379,-0.09448895,0.03291199,0.7437394,0.003460753,1.520002,3.623575,29.824127979924718
1,0.1371765,0.003814697,0.9905243,1.0,0.06079102,0.01765442,0.9979858,-33.65018,4.110519,-28.48892,4.593079,0.5511705,0.4419629,1.0,0.1422729,0.00289917,0.9898224,35.24272,6.17305,-26.62378,4.9492650000000005,0.3898702,0.3548177,-0.6047111999999999,1.017379,-0.09448895,0.03291199,0.7437394,0.003460753,1.520002,3.623575,29.824127979924718
1,0.05606079,-0.00138855,0.9984131,1.0,0.04910278,-0.0003356933999999,0.9987793,-33.65718,4.080643,-28.59729,4.477233999999999,0.5533776,0.4468432,1.0,0.1205139,-0.01112366,0.9926453000000002,35.3002,6.117126,-26.55344,4.935043,0.3916450999999999,0.358503,-0.6046691999999999,1.017408,-0.09447576,0.0328894,0.7439165,0.0032925059999999,1.520002,3.623575,29.824127979924718
1,0.05606079,-0.00138855,0.9984131,1.0,0.04910278,-0.0003356933999999,0.9987793,-33.65718,4.080643,-28.59729,4.477233999999999,0.5533776,0.4468432,1.0,0.1205139,-0.01112366,0.9926453000000002,35.3002,6.117126,-26.55344,4.935043,0.3916450999999999,0.358503,-0.6046691999999999,1.017408,-0.09447576,0.0328894,0.7439165,0.0032925059999999,1.520002,3.623575,29.824127979924718
1,0.05606079,-0.00138855,0.9984131,1.0,0.04910278,-0.0003356933999999,0.9987793,-33.65718,4.080643,-28.59729,4.477233999999999,0.5533776,0.4468432,1.0,0.1205139,-0.01112366,0.9926453000000002,35.3002,6.117126,-26.55344,4.935043,0.3916450999999999,0.358503,-0.6046691999999999,1.017408,-0.09447576,0.0328894,0.7439165,0.0032925059999999,1.520002,3.623575,29.824127979924718
1,0.1119232,-0.0027771,0.9936981,1.0,0.05041504,0.008163452,0.9986877,-33.6526,4.092056,-28.644990000000004,4.509064,0.5530437,0.4454612,1.0,0.1309814,-0.006195068,0.9913635,35.30023,6.106033,-26.50749,4.992188,0.3899205,0.3577157,-0.604692,1.017418,-0.09443189,0.03294152,0.7439614999999999,0.003350269,1.520002,3.623575,29.824127979924718
1,0.1119232,-0.0027771,0.9936981,1.0,0.05041504,0.008163452,0.9986877,-33.6526,4.092056,-28.644990000000004,4.509064,0.5530437,0.4454612,1.0,0.1309814,-0.006195068,0.9913635,35.30023,6.106033,-26.50749,4.992188,0.3899205,0.3577157,-0.604692,1.017418,-0.09443189,0.03294152,0.7439614999999999,0.003350269,1.520002,3.623575,29.824127979924718
1,0.1119232,-0.0027771,0.9936981,1.0,0.05041504,0.008163452,0.9986877,-33.6526,4.092056,-28.644990000000004,4.509064,0.5530437,0.4454612,1.0,0.1309814,-0.006195068,0.9913635,35.30023,6.106033,-26.50749,4.992188,0.3899205,0.3577157,-0.604692,1.017418,-0.09443189,0.03294152,0.7439614999999999,0.003350269,1.520002,3.623575,29.824127979924718
1,0.09114075,0.003860474,0.9958190999999998,1.0,0.05046082,0.00843811,0.9986877,-33.64825,4.096558,-28.66801,4.527771,0.5529081,0.4454744,1.0,0.1363677999999999,-0.001235962,0.9906464,35.30429,6.101654,-26.48582,4.951431,0.3888803,0.3568491,-0.6046431,1.017363,-0.09441189,0.03288227,0.7437548,0.003459138,1.520002,-3.359852,29.824127979924718
1,0.09114075,0.003860474,0.9958190999999998,1.0,0.05046082,0.00843811,0.9986877,-33.64825,4.096558,-28.66801,4.527771,0.5529081,0.4454744,1.0,0.1363677999999999,-0.001235962,0.9906464,35.30429,6.101654,-26.48582,4.951431,0.3888803,0.3568491,-0.6046431,1.017363,-0.09441189,0.03288227,0.7437548,0.003459138,1.520002,-3.359852,29.824127979924718
1,0.09114075,0.003860474,0.9958190999999998,1.0,0.05046082,0.00843811,0.9986877,-33.64825,4.096558,-28.66801,4.527771,0.5529081,0.4454744,1.0,0.1363677999999999,-0.001235962,0.9906464,35.30429,6.101654,-26.48582,4.951431,0.3888803,0.3568491,-0.6046431,1.017363,-0.09441189,0.03288227,0.7437548,0.003459138,1.520002,-3.359852,29.824127979924718
1,0.09091187,0.003631592,0.9958496,1.0,0.04972839,0.0081176759999999,0.9987183,-33.647870000000005,4.096863,-28.67477,4.495346,0.5530126,0.4455595,1.0,0.1362305,-0.001312256,0.9906616,35.30511,6.100815,-26.48122,4.951675,0.3888803,0.3568491,-0.6046646999999999,1.017389,-0.09431519,0.03284185,0.7436169,0.003476862,1.520002,-3.359852,29.824127979924718
1,0.09091187,0.003631592,0.9958496,1.0,0.04972839,0.0081176759999999,0.9987183,-33.647870000000005,4.096863,-28.67477,4.495346,0.5530126,0.4455595,1.0,0.1362305,-0.001312256,0.9906616,35.30511,6.100815,-26.48122,4.951675,0.3888803,0.3568491,-0.6046646999999999,1.017389,-0.09431519,0.03284185,0.7436169,0.003476862,1.520002,-3.359852,29.824127979924718
1,0.09091187,0.003631592,0.9958496,1.0,0.04972839,0.0081176759999999,0.9987183,-33.647870000000005,4.096863,-28.67477,4.495346,0.5530126,0.4455595,1.0,0.1362305,-0.001312256,0.9906616,35.30511,6.100815,-26.48122,4.951675,0.3888803,0.3568491,-0.6046646999999999,1.017389,-0.09431519,0.03284185,0.7436169,0.003476862,1.520002,-3.359852,29.824127979924718
1,0.08914185,0.003845215,0.9960022,1.0,0.04992676,0.008285522,0.9987183,-33.64688,4.096863,-28.670040000000004,4.495697,0.5529444,0.4454922,1.0,0.1332855,-0.0011444089999999,0.9910736,35.30464,6.099319,-26.47896,4.951767,0.389394,0.3568491,-0.6045258000000001,1.017344,-0.09414722,0.03287909,0.7432316999999999,0.003623248,1.520002,-3.359852,29.824127979924718
1,0.08914185,0.003845215,0.9960022,1.0,0.04992676,0.008285522,0.9987183,-33.64688,4.096863,-28.670040000000004,4.495697,0.5529444,0.4454922,1.0,0.1332855,-0.0011444089999999,0.9910736,35.30464,6.099319,-26.47896,4.951767,0.389394,0.3568491,-0.6045258000000001,1.017344,-0.09414722,0.03287909,0.7432316999999999,0.003623248,1.520002,-3.359852,29.824127979924718
1,0.08914185,0.003845215,0.9960022,1.0,0.04992676,0.008285522,0.9987183,-33.64688,4.096863,-28.670040000000004,4.495697,0.5529444,0.4454922,1.0,0.1332855,-0.0011444089999999,0.9910736,35.30464,6.099319,-26.47896,4.951767,0.389394,0.3568491,-0.6045258000000001,1.017344,-0.09414722,0.03287909,0.7432316999999999,0.003623248,1.520002,-3.359852,29.824127979924718
1,0.08914185,0.003845215,0.9960022,1.0,0.04992676,0.008285522,0.9987183,-33.64688,4.096863,-28.670040000000004,4.495697,0.5529444,0.4454922,1.0,0.1332855,-0.0011444089999999,0.9910736,35.30464,6.099319,-26.47896,4.951767,0.389394,0.3568491,-0.6043544,1.017279,-0.09407905,0.03307695,0.7427053000000001,0.003468279,1.520002,-3.359852,29.824127979924718
1,0.08914185,0.003845215,0.9960022,1.0,0.04992676,0.008285522,0.9987183,-33.64688,4.096863,-28.670040000000004,4.495697,0.5529444,0.4454922,1.0,0.1332855,-0.0011444089999999,0.9910736,35.30464,6.099319,-26.47896,4.951767,0.389394,0.3568491,-0.6043544,1.017279,-0.09407905,0.03307695,0.7427053000000001,0.003468279,1.520002,-3.359852,29.824127979924718
1,0.08914185,0.003845215,0.9960022,1.0,0.04992676,0.008285522,0.9987183,-33.64688,4.096863,-28.670040000000004,4.495697,0.5529444,0.4454922,1.0,0.1332855,-0.0011444089999999,0.9910736,35.30464,6.099319,-26.47896,4.951767,0.389394,0.3568491,-0.6043544,1.017279,-0.09407905,0.03307695,0.7427053000000001,0.003468279,1.520002,-3.359852,29.824127979924718
1,0.09074402,0.003845215,0.9958649,1.0,0.04974365,0.008422852,0.9987183,-33.646,4.098343,-28.67477,4.49054,0.5529444,0.4454479999999999,1.0,0.1364594,-0.001266479,0.9906311,35.30464,6.095825,-26.45174,4.953156,0.3888803,0.3567809,-0.6040858,1.01732,-0.09371863,0.0325141,0.7418872,0.002709714,1.520002,-3.359852,29.824127979924718
1,0.09074402,0.003845215,0.9958649,1.0,0.04974365,0.008422852,0.9987183,-33.646,4.098343,-28.67477,4.49054,0.5529444,0.4454479999999999,1.0,0.1364594,-0.001266479,0.9906311,35.30464,6.095825,-26.45174,4.953156,0.3888803,0.3567809,-0.6040858,1.01732,-0.09371863,0.0325141,0.7418872,0.002709714,1.520002,-3.359852,29.824127979924718
1,0.09074402,0.003845215,0.9958649,1.0,0.04974365,0.008422852,0.9987183,-33.646,4.098343,-28.67477,4.49054,0.5529444,0.4454479999999999,1.0,0.1364594,-0.001266479,0.9906311,35.30464,6.095825,-26.45174,4.953156,0.3888803,0.3567809,-0.6040858,1.01732,-0.09371863,0.0325141,0.7418872,0.002709714,1.520002,-3.359852,29.824127979924718
1,0.0896758999999999,0.00592041,0.9959412,1.0,0.04974365,0.0096893309999999,0.998703,-33.646,4.098343,-28.67477,4.490875,0.5529444,0.4452385999999999,1.0,0.1362305,0.001495361,0.9906616,35.30464,6.093582,-26.439940000000004,4.990494,0.3889244,0.3562955,-0.6038392,1.017247,-0.09292197,0.03263823,0.7394147,0.002718635,1.520002,-3.359852,29.824127979924718
1,0.0896758999999999,0.00592041,0.9959412,1.0,0.04974365,0.0096893309999999,0.998703,-33.646,4.098343,-28.67477,4.490875,0.5529444,0.4452385999999999,1.0,0.1362305,0.001495361,0.9906616,35.30464,6.093582,-26.439940000000004,4.990494,0.3889244,0.3562955,-0.6038392,1.017247,-0.09292197,0.03263823,0.7394147,0.002718635,1.520002,-3.359852,29.824127979924718
1,0.0896758999999999,0.00592041,0.9959412,1.0,0.04974365,0.0096893309999999,0.998703,-33.646,4.098343,-28.67477,4.490875,0.5529444,0.4452385999999999,1.0,0.1362305,0.001495361,0.9906616,35.30464,6.093582,-26.439940000000004,4.990494,0.3889244,0.3562955,-0.6038392,1.017247,-0.09292197,0.03263823,0.7394147,0.002718635,1.520002,-3.359852,29.824127979924718
1,0.09837341,0.006607056,0.9951171999999998,1.0,0.04412842,0.01022339,0.9989624,-33.673359999999995,4.05307,-28.54933,4.479752,0.5547175999999999,0.4455681999999999,1.0,0.1326141,0.00428772,0.9911499,35.285,6.094345,-26.49846,5.060043,0.3901597,0.3562829,-0.6036056,1.017124,-0.09244761,0.03263509,0.7377347,0.0024649439999999,1.520002,-3.973391,29.824127979924718
1,0.09837341,0.006607056,0.9951171999999998,1.0,0.04412842,0.01022339,0.9989624,-33.673359999999995,4.05307,-28.54933,4.479752,0.5547175999999999,0.4455681999999999,1.0,0.1326141,0.00428772,0.9911499,35.285,6.094345,-26.49846,5.060043,0.3901597,0.3562829,-0.6036056,1.017124,-0.09244761,0.03263509,0.7377347,0.0024649439999999,1.520002,-3.973391,29.824127979924718
1,0.09837341,0.006607056,0.9951171999999998,1.0,0.04412842,0.01022339,0.9989624,-33.673359999999995,4.05307,-28.54933,4.479752,0.5547175999999999,0.4455681999999999,1.0,0.1326141,0.00428772,0.9911499,35.285,6.094345,-26.49846,5.060043,0.3901597,0.3562829,-0.6036056,1.017124,-0.09244761,0.03263509,0.7377347,0.0024649439999999,1.520002,-3.973391,29.824127979924718
1,0.09454346,0.007827759,0.9954834,1.0,0.04415894,0.0099334719999999,0.9989624,-33.684490000000004,4.031509,-28.48972,4.492554,0.5550525,0.4458305999999999,1.0,0.1316528,0.006240845,0.991272,35.277359999999994,6.094345,-26.49846,5.057175,0.3905782,0.3559574,-0.6033486,1.017049,-0.09179275,0.03241972,0.7354316,0.00218366,1.520002,-3.973391,29.824127979924718
1,0.09454346,0.007827759,0.9954834,1.0,0.04415894,0.0099334719999999,0.9989624,-33.684490000000004,4.031509,-28.48972,4.492554,0.5550525,0.4458305999999999,1.0,0.1316528,0.006240845,0.991272,35.277359999999994,6.094345,-26.49846,5.057175,0.3905782,0.3559574,-0.6033486,1.017049,-0.09179275,0.03241972,0.7354316,0.00218366,1.520002,-3.973391,29.824127979924718
1,0.09454346,0.007827759,0.9954834,1.0,0.04415894,0.0099334719999999,0.9989624,-33.684490000000004,4.031509,-28.48972,4.492554,0.5550525,0.4458305999999999,1.0,0.1316528,0.006240845,0.991272,35.277359999999994,6.094345,-26.49846,5.057175,0.3905782,0.3559574,-0.6033486,1.017049,-0.09179275,0.03241972,0.7354316,0.00218366,1.520002,-3.973391,29.824127979924718
1,0.08984375,0.007751465,0.9959106,1.0,0.04318237,0.008956909,0.9990234,-33.69154,4.024689,-28.46463,4.4874730000000005,0.5554359,0.4460048,1.0,0.1287537,0.006744385,0.9916382,35.27187,6.096649,-26.5175,5.056442,0.3912394,0.3559470999999999,-0.6028409,1.017087,-0.09065235,0.0305832999999999,0.7316796999999999,0.001211513,1.520002,-3.973391,29.824127979924718
1,0.08984375,0.007751465,0.9959106,1.0,0.04318237,0.008956909,0.9990234,-33.69154,4.024689,-28.46463,4.4874730000000005,0.5554359,0.4460048,1.0,0.1287537,0.006744385,0.9916382,35.27187,6.096649,-26.5175,5.056442,0.3912394,0.3559470999999999,-0.6028409,1.017087,-0.09065235,0.0305832999999999,0.7316796999999999,0.001211513,1.520002,-3.973391,29.824127979924718
1,0.08984375,0.007751465,0.9959106,1.0,0.04318237,0.008956909,0.9990234,-33.69154,4.024689,-28.46463,4.4874730000000005,0.5554359,0.4460048,1.0,0.1287537,0.006744385,0.9916382,35.27187,6.096649,-26.5175,5.056442,0.3912394,0.3559470999999999,-0.6028409,1.017087,-0.09065235,0.0305832999999999,0.7316796999999999,0.001211513,1.520002,-3.973391,29.824127979924718
1,0.07913208,0.007507324,0.9968262,1.0,0.03909302,0.008544922,0.9991913,-33.70071,4.0177760000000005,-28.43938,4.49881,0.5564101,0.4460802,1.0,0.1201935,0.00642395,0.9927216,35.27216,6.100082,-26.54916,5.055786,0.3926445,0.3561212,-0.6023261999999999,1.016939,-0.08899094,0.02852014,0.7254734,-0.0003398294,1.520002,3.667833,29.824127979924718
1,0.07913208,0.007507324,0.9968262,1.0,0.03909302,0.008544922,0.9991913,-33.70071,4.0177760000000005,-28.43938,4.49881,0.5564101,0.4460802,1.0,0.1201935,0.00642395,0.9927216,35.27216,6.100082,-26.54916,5.055786,0.3926445,0.3561212,-0.6023261999999999,1.016939,-0.08899094,0.02852014,0.7254734,-0.0003398294,1.520002,3.667833,29.824127979924718
1,0.07913208,0.007507324,0.9968262,1.0,0.03909302,0.008544922,0.9991913,-33.70071,4.0177760000000005,-28.43938,4.49881,0.5564101,0.4460802,1.0,0.1201935,0.00642395,0.9927216,35.27216,6.100082,-26.54916,5.055786,0.3926445,0.3561212,-0.6023261999999999,1.016939,-0.08899094,0.02852014,0.7254734,-0.0003398294,1.520002,3.667833,29.824127979924718
1,0.07913208,0.007507324,0.9968262,1.0,0.03909302,0.008544922,0.9991913,-33.70071,4.0177760000000005,-28.43938,4.49881,0.5564101,0.4460802,1.0,0.1201935,0.00642395,0.9927216,35.27216,6.100082,-26.54916,5.055786,0.3926445,0.3561212,-0.601748,1.01676,-0.08721079,0.02800529,0.7178475000000001,-0.001838162,1.520002,3.667833,29.824127979924718
1,0.07913208,0.007507324,0.9968262,1.0,0.03909302,0.008544922,0.9991913,-33.70071,4.0177760000000005,-28.43938,4.49881,0.5564101,0.4460802,1.0,0.1201935,0.00642395,0.9927216,35.27216,6.100082,-26.54916,5.055786,0.3926445,0.3561212,-0.601748,1.01676,-0.08721079,0.02800529,0.7178475000000001,-0.001838162,1.520002,3.667833,29.824127979924718
1,0.07913208,0.007507324,0.9968262,1.0,0.03909302,0.008544922,0.9991913,-33.70071,4.0177760000000005,-28.43938,4.49881,0.5564101,0.4460802,1.0,0.1201935,0.00642395,0.9927216,35.27216,6.100082,-26.54916,5.055786,0.3926445,0.3561212,-0.601748,1.01676,-0.08721079,0.02800529,0.7178475000000001,-0.001838162,1.520002,3.667833,29.824127979924718
1,0.3567047,0.01252747,0.9341278,1.0,0.260788,0.01113892,0.9653168,-32.24109,3.98761,-28.797390000000004,4.389389,0.4702255,0.4505346999999999,1.0,0.3569031,0.01252747,0.9340515,36.62895,6.254028,-26.98599,5.133376999999999,0.3039555999999999,0.3527100999999999,-0.5999606,1.016435,-0.07969719,0.02823989,0.6870940999999999,-0.00211872,1.520002,3.667833,30.45
1,0.3567047,0.01252747,0.9341278,1.0,0.260788,0.01113892,0.9653168,-32.24109,3.98761,-28.797390000000004,4.389389,0.4702255,0.4505346999999999,1.0,0.3569031,0.01252747,0.9340515,36.62895,6.254028,-26.98599,5.133376999999999,0.3039555999999999,0.3527100999999999,-0.5999606,1.016435,-0.07969719,0.02823989,0.6870940999999999,-0.00211872,1.520002,3.667833,30.45
1,0.3567047,0.01252747,0.9341278,1.0,0.260788,0.01113892,0.9653168,-32.24109,3.98761,-28.797390000000004,4.389389,0.4702255,0.4505346999999999,1.0,0.3569031,0.01252747,0.9340515,36.62895,6.254028,-26.98599,5.133376999999999,0.3039555999999999,0.3527100999999999,-0.5999606,1.016435,-0.07969719,0.02823989,0.6870940999999999,-0.00211872,1.520002,3.667833,30.45
1,0.3670197,0.007797241,0.9301758,0.9137224,0.3280639999999999,0.00453186,0.9446411,-31.95308,3.897217,-28.9099,4.332962,0.4489811999999999,0.4562776,0.9968558,0.4304047,0.01321411,0.9025269,37.0274,6.256516,-27.15691,5.1220550000000005,0.2758146999999999,0.3537373,-0.5995678000000001,1.016039,-0.0769756,0.02990934,0.6761519,-0.002298361,1.520002,3.667833,30.45
1,0.3670197,0.007797241,0.9301758,0.9137224,0.3280639999999999,0.00453186,0.9446411,-31.95308,3.897217,-28.9099,4.332962,0.4489811999999999,0.4562776,0.9968558,0.4304047,0.01321411,0.9025269,37.0274,6.256516,-27.15691,5.1220550000000005,0.2758146999999999,0.3537373,-0.5995678000000001,1.016039,-0.0769756,0.02990934,0.6761519,-0.002298361,1.520002,3.667833,30.45
1,0.3670197,0.007797241,0.9301758,0.9137224,0.3280639999999999,0.00453186,0.9446411,-31.95308,3.897217,-28.9099,4.332962,0.4489811999999999,0.4562776,0.9968558,0.4304047,0.01321411,0.9025269,37.0274,6.256516,-27.15691,5.1220550000000005,0.2758146999999999,0.3537373,-0.5995678000000001,1.016039,-0.0769756,0.02990934,0.6761519,-0.002298361,1.520002,3.667833,30.45
1,0.3009795999999999,0.007995605,0.9535828000000002,1.0,0.2580109,0.00440979,0.9661255,-32.33,3.896042,-28.79678,4.154297,0.4735324000000001,0.4545904,1.0,0.353714,0.01245117,0.935257,36.70193,6.224243,-26.9912,5.123703,0.3019018,0.3536428,-0.5991696999999999,1.0155610000000002,-0.07412466,0.03171615,0.6654229,-0.002658359,1.520002,1.748297,30.45
1,0.3009795999999999,0.007995605,0.9535828000000002,1.0,0.2580109,0.00440979,0.9661255,-32.33,3.896042,-28.79678,4.154297,0.4735324000000001,0.4545904,1.0,0.353714,0.01245117,0.935257,36.70193,6.224243,-26.9912,5.123703,0.3019018,0.3536428,-0.5991696999999999,1.0155610000000002,-0.07412466,0.03171615,0.6654229,-0.002658359,1.520002,1.748297,30.45
1,0.3009795999999999,0.007995605,0.9535828000000002,1.0,0.2580109,0.00440979,0.9661255,-32.33,3.896042,-28.79678,4.154297,0.4735324000000001,0.4545904,1.0,0.353714,0.01245117,0.935257,36.70193,6.224243,-26.9912,5.123703,0.3019018,0.3536428,-0.5991696999999999,1.0155610000000002,-0.07412466,0.03171615,0.6654229,-0.002658359,1.520002,1.748297,30.45
1,0.2655182,0.02011108,0.9638824,1.0,0.2286224,0.006286621,0.9734802,-32.500370000000004,3.90155,-28.78491,4.366196,0.484384,0.4539175,1.0,0.3120728,0.03775024,0.949295,36.52789,6.205246,-26.93748,5.254074,0.3154774,0.3494792,-0.5985579000000001,1.014483,-0.06889306,0.03708151,0.6463147,-0.00328174,1.520002,1.748297,30.45
1,0.2655182,0.02011108,0.9638824,1.0,0.2286224,0.006286621,0.9734802,-32.500370000000004,3.90155,-28.78491,4.366196,0.484384,0.4539175,1.0,0.3120728,0.03775024,0.949295,36.52789,6.205246,-26.93748,5.254074,0.3154774,0.3494792,-0.5985579000000001,1.014483,-0.06889306,0.03708151,0.6463147,-0.00328174,1.520002,1.748297,30.45
1,0.2655182,0.02011108,0.9638824,1.0,0.2286224,0.006286621,0.9734802,-32.500370000000004,3.90155,-28.78491,4.366196,0.484384,0.4539175,1.0,0.3120728,0.03775024,0.949295,36.52789,6.205246,-26.93748,5.254074,0.3154774,0.3494792,-0.5985579000000001,1.014483,-0.06889306,0.03708151,0.6463147,-0.00328174,1.520002,1.748297,30.45
1,0.2313385,0.01994324,0.9726563,1.0,0.1959229,0.01071167,0.980545,-32.7178,3.94101,-28.8046,4.372116,0.4972189,0.4518289000000001,1.0,0.2872772,0.03465271,0.9572144,36.26031,6.203551999999999,-26.86143,5.107681,0.3293943,0.3497104,-0.5983826,1.01378,-0.06650814,0.04064121,0.6379185,-0.003633002,1.520002,1.748297,30.45
1,0.2313385,0.01994324,0.9726563,1.0,0.1959229,0.01071167,0.980545,-32.7178,3.94101,-28.8046,4.372116,0.4972189,0.4518289000000001,1.0,0.2872772,0.03465271,0.9572144,36.26031,6.203551999999999,-26.86143,5.107681,0.3293943,0.3497104,-0.5983826,1.01378,-0.06650814,0.04064121,0.6379185,-0.003633002,1.520002,1.748297,30.45
1,0.2313385,0.01994324,0.9726563,1.0,0.1959229,0.01071167,0.980545,-32.7178,3.94101,-28.8046,4.372116,0.4972189,0.4518289000000001,1.0,0.2872772,0.03465271,0.9572144,36.26031,6.203551999999999,-26.86143,5.107681,0.3293943,0.3497104,-0.5983826,1.01378,-0.06650814,0.04064121,0.6379185,-0.003633002,1.520002,1.748297,30.45
1,0.2501526,0.03742981,0.9674683,1.0,0.146759,0.009475708,0.9891205,-32.85986,4.0110470000000005,-28.960890000000003,4.308945,0.5102770000000001,0.4507774999999999,1.0,0.2655182,0.04161072,0.9631958,36.13176,6.208008,-26.83098,5.214966,0.3377184,0.348181,-0.598238,1.013031,-0.06423821,0.04433455,0.6302158,-0.003996754,1.520002,1.748297,30.45
1,0.2501526,0.03742981,0.9674683,1.0,0.146759,0.009475708,0.9891205,-32.85986,4.0110470000000005,-28.960890000000003,4.308945,0.5102770000000001,0.4507774999999999,1.0,0.2655182,0.04161072,0.9631958,36.13176,6.208008,-26.83098,5.214966,0.3377184,0.348181,-0.598238,1.013031,-0.06423821,0.04433455,0.6302158,-0.003996754,1.520002,1.748297,30.45
1,0.2501526,0.03742981,0.9674683,1.0,0.146759,0.009475708,0.9891205,-32.85986,4.0110470000000005,-28.960890000000003,4.308945,0.5102770000000001,0.4507774999999999,1.0,0.2655182,0.04161072,0.9631958,36.13176,6.208008,-26.83098,5.214966,0.3377184,0.348181,-0.598238,1.013031,-0.06423821,0.04433455,0.6302158,-0.003996754,1.520002,1.748297,30.45
1,0.2386017,0.05778503,0.9693909,0.9545726,0.1278687,0.02578735,0.9914551,-33.07692,3.893265,-28.44652,4.344772,0.5205746,0.4474596999999999,0.9934335,0.2390442,0.0579071,0.9692688,35.94429,6.232239,-26.814590000000003,5.173935,0.3487957,0.3445067,-0.5983052,1.012296,-0.06234144,0.04822847,0.6240336,-0.004037096,1.520002,-2.226089,30.45
1,0.2386017,0.05778503,0.9693909,0.9545726,0.1278687,0.02578735,0.9914551,-33.07692,3.893265,-28.44652,4.344772,0.5205746,0.4474596999999999,0.9934335,0.2390442,0.0579071,0.9692688,35.94429,6.232239,-26.814590000000003,5.173935,0.3487957,0.3445067,-0.5983052,1.012296,-0.06234144,0.04822847,0.6240336,-0.004037096,1.520002,-2.226089,30.45
1,0.2386017,0.05778503,0.9693909,0.9545726,0.1278687,0.02578735,0.9914551,-33.07692,3.893265,-28.44652,4.344772,0.5205746,0.4474596999999999,0.9934335,0.2390442,0.0579071,0.9692688,35.94429,6.232239,-26.814590000000003,5.173935,0.3487957,0.3445067,-0.5983052,1.012296,-0.06234144,0.04822847,0.6240336,-0.004037096,1.520002,-2.226089,30.45
2,0.2216034,0.06282043,0.9730988000000002,0.9510457,0.1069183,0.03509521,0.9936371,-33.20633,3.907135,-28.41365,4.481918,0.5284535,0.4452054,0.9954197,0.228714,0.06454468,0.971344,35.82028,6.262283,-26.83098,5.179062,0.3548325,0.3425397999999999,-0.5982994,1.011635,-0.06080613,0.05164332,0.6193451,-0.003963997,1.520002,-2.226089,30.45
2,0.2216034,0.06282043,0.9730988000000002,0.9510457,0.1069183,0.03509521,0.9936371,-33.20633,3.907135,-28.41365,4.481918,0.5284535,0.4452054,0.9954197,0.228714,0.06454468,0.971344,35.82028,6.262283,-26.83098,5.179062,0.3548325,0.3425397999999999,-0.5982994,1.011635,-0.06080613,0.05164332,0.6193451,-0.003963997,1.520002,-2.226089,30.45
2,0.2216034,0.06282043,0.9730988000000002,0.9510457,0.1069183,0.03509521,0.9936371,-33.20633,3.907135,-28.41365,4.481918,0.5284535,0.4452054,0.9954197,0.228714,0.06454468,0.971344,35.82028,6.262283,-26.83098,5.179062,0.3548325,0.3425397999999999,-0.5982994,1.011635,-0.06080613,0.05164332,0.6193451,-0.003963997,1.520002,-2.226089,30.45
2,0.1370697,0.03994751,0.9897461,1.0,0.09872437,0.04281616,0.9941864,-33.33395,3.926682,-28.36958,4.461533,0.5340788000000001,0.4428504,1.0,0.1807404,0.03657532,0.9828339,35.67064,6.294052,-26.76172,5.136658000000001,0.3684489,0.3457699999999999,-0.5983105,1.011085,-0.05950335,0.05481185,0.6158984000000001,-0.003525804,1.520002,-2.226089,30.45
2,0.1370697,0.03994751,0.9897461,1.0,0.09872437,0.04281616,0.9941864,-33.33395,3.926682,-28.36958,4.461533,0.5340788000000001,0.4428504,1.0,0.1807404,0.03657532,0.9828339,35.67064,6.294052,-26.76172,5.136658000000001,0.3684489,0.3457699999999999,-0.5983105,1.011085,-0.05950335,0.05481185,0.6158984000000001,-0.003525804,1.520002,-2.226089,30.45
2,0.1370697,0.03994751,0.9897461,1.0,0.09872437,0.04281616,0.9941864,-33.33395,3.926682,-28.36958,4.461533,0.5340788000000001,0.4428504,1.0,0.1807404,0.03657532,0.9828339,35.67064,6.294052,-26.76172,5.136658000000001,0.3684489,0.3457699999999999,-0.5983105,1.011085,-0.05950335,0.05481185,0.6158984000000001,-0.003525804,1.520002,-2.226089,30.45
2,0.08659363,0.04234314,0.9953308,1.0,0.0836792,0.04205322,0.9955902,-33.40187,4.023193,-28.60127,4.459457,0.5389941999999999,0.4417037,1.0,0.1797638,0.05126953,0.9823608,35.54128,6.200362999999999,-26.25836,5.284805,0.3734936,0.3426845,-0.5983850000000001,1.010792,-0.0585465,0.05746087,0.6134776,-0.002953118,1.493096,-2.226089,30.45
2,0.08659363,0.04234314,0.9953308,1.0,0.0836792,0.04205322,0.9955902,-33.40187,4.023193,-28.60127,4.459457,0.5389941999999999,0.4417037,1.0,0.1797638,0.05126953,0.9823608,35.54128,6.200362999999999,-26.25836,5.284805,0.3734936,0.3426845,-0.5983850000000001,1.010792,-0.0585465,0.05746087,0.6134776,-0.002953118,1.493096,-2.226089,30.45
2,0.08659363,0.04234314,0.9953308,1.0,0.0836792,0.04205322,0.9955902,-33.40187,4.023193,-28.60127,4.459457,0.5389941999999999,0.4417037,1.0,0.1797638,0.05126953,0.9823608,35.54128,6.200362999999999,-26.25836,5.284805,0.3734936,0.3426845,-0.5983850000000001,1.010792,-0.0585465,0.05746087,0.6134776,-0.002953118,1.493096,-2.226089,30.45
2,0.08659363,0.04234314,0.9953308,1.0,0.0836792,0.04205322,0.9955902,-33.40187,4.023193,-28.60127,4.459457,0.5389941999999999,0.4417037,1.0,0.1797638,0.05126953,0.9823608,35.54128,6.200362999999999,-26.25836,5.284805,0.3734936,0.3426845,-0.5984528,1.010548,-0.05782335,0.05924596,0.6117172,-0.002198113,1.493096,-2.226089,30.45
2,0.08659363,0.04234314,0.9953308,1.0,0.0836792,0.04205322,0.9955902,-33.40187,4.023193,-28.60127,4.459457,0.5389941999999999,0.4417037,1.0,0.1797638,0.05126953,0.9823608,35.54128,6.200362999999999,-26.25836,5.284805,0.3734936,0.3426845,-0.5984528,1.010548,-0.05782335,0.05924596,0.6117172,-0.002198113,1.493096,-2.226089,30.45
2,0.08659363,0.04234314,0.9953308,1.0,0.0836792,0.04205322,0.9955902,-33.40187,4.023193,-28.60127,4.459457,0.5389941999999999,0.4417037,1.0,0.1797638,0.05126953,0.9823608,35.54128,6.200362999999999,-26.25836,5.284805,0.3734936,0.3426845,-0.5984528,1.010548,-0.05782335,0.05924596,0.6117172,-0.002198113,1.493096,-2.226089,30.45
2,0.08659363,0.04234314,0.9953308,1.0,0.0836792,0.04205322,0.9955902,-33.40187,4.023193,-28.60127,4.459457,0.5389941999999999,0.4417037,1.0,0.1797638,0.05126953,0.9823608,35.54128,6.200362999999999,-26.25836,5.284805,0.3734936,0.3426845,-0.598673,1.010229,-0.05741461,0.06097027,0.6098043000000001,-0.0013552,1.493096,-3.196945,30.45
2,0.08659363,0.04234314,0.9953308,1.0,0.0836792,0.04205322,0.9955902,-33.40187,4.023193,-28.60127,4.459457,0.5389941999999999,0.4417037,1.0,0.1797638,0.05126953,0.9823608,35.54128,6.200362999999999,-26.25836,5.284805,0.3734936,0.3426845,-0.598673,1.010229,-0.05741461,0.06097027,0.6098043000000001,-0.0013552,1.493096,-3.196945,30.45
2,0.08659363,0.04234314,0.9953308,1.0,0.0836792,0.04205322,0.9955902,-33.40187,4.023193,-28.60127,4.459457,0.5389941999999999,0.4417037,1.0,0.1797638,0.05126953,0.9823608,35.54128,6.200362999999999,-26.25836,5.284805,0.3734936,0.3426845,-0.598673,1.010229,-0.05741461,0.06097027,0.6098043000000001,-0.0013552,1.493096,-3.196945,30.45
2,0.0904541,0.05091858,0.9945831,1.0,0.06018066,0.04660034,0.9970856,-33.52005,4.047287,-28.57588,4.454788,0.5468839,0.4398835999999999,1.0,0.1572266,0.06033325,0.9857025,35.40039,6.229065,-26.3383,5.222565,0.3820509,0.3408662,-0.5989196,1.009982,-0.05716,0.06248772,0.6079382,-0.001013992,1.493096,-3.196945,30.45
2,0.0904541,0.05091858,0.9945831,1.0,0.06018066,0.04660034,0.9970856,-33.52005,4.047287,-28.57588,4.454788,0.5468839,0.4398835999999999,1.0,0.1572266,0.06033325,0.9857025,35.40039,6.229065,-26.3383,5.222565,0.3820509,0.3408662,-0.5989196,1.009982,-0.05716,0.06248772,0.6079382,-0.001013992,1.493096,-3.196945,30.45
2,0.0904541,0.05091858,0.9945831,1.0,0.06018066,0.04660034,0.9970856,-33.52005,4.047287,-28.57588,4.454788,0.5468839,0.4398835999999999,1.0,0.1572266,0.06033325,0.9857025,35.40039,6.229065,-26.3383,5.222565,0.3820509,0.3408662,-0.5989196,1.009982,-0.05716,0.06248772,0.6079382,-0.001013992,1.493096,-3.196945,30.45
2,0.2440337999999999,0.1231537,0.9618988000000002,1.0,0.1435547,0.1603698999999999,0.9765472,-33.04541,4.332245,-27.86702,4.673691000000001,0.516764,0.4057838,1.0,0.2447357,0.1228943,0.9617615,35.80632,6.876572,-26.64497,5.323578,0.3521267,0.3094734,-0.59919,1.009844,-0.05719651,0.06339494,0.6061937,-0.0009216107,1.493096,-3.196945,30.45
2,0.2440337999999999,0.1231537,0.9618988000000002,1.0,0.1435547,0.1603698999999999,0.9765472,-33.04541,4.332245,-27.86702,4.673691000000001,0.516764,0.4057838,1.0,0.2447357,0.1228943,0.9617615,35.80632,6.876572,-26.64497,5.323578,0.3521267,0.3094734,-0.59919,1.009844,-0.05719651,0.06339494,0.6061937,-0.0009216107,1.493096,-3.196945,30.45
2,0.2440337999999999,0.1231537,0.9618988000000002,1.0,0.1435547,0.1603698999999999,0.9765472,-33.04541,4.332245,-27.86702,4.673691000000001,0.516764,0.4057838,1.0,0.2447357,0.1228943,0.9617615,35.80632,6.876572,-26.64497,5.323578,0.3521267,0.3094734,-0.59919,1.009844,-0.05719651,0.06339494,0.6061937,-0.0009216107,1.493096,-3.196945,30.45
2,0.2509002999999999,0.1414032,0.9576111,1.0,0.1401672,0.1700134,0.9754028,-33.06216,4.3293610000000005,-27.90993,4.589432,0.5178557,0.4045573,1.0,0.2515411,0.1412354,0.9574738000000002,35.82077,6.870697,-26.669590000000003,5.276184,0.3503027999999999,0.3067084,-0.5996435,1.009774,-0.05735062,0.06357314,0.6047106,-0.0006741553,1.493096,-3.196945,30.45
2,0.2509002999999999,0.1414032,0.9576111,1.0,0.1401672,0.1700134,0.9754028,-33.06216,4.3293610000000005,-27.90993,4.589432,0.5178557,0.4045573,1.0,0.2515411,0.1412354,0.9574738000000002,35.82077,6.870697,-26.669590000000003,5.276184,0.3503027999999999,0.3067084,-0.5996435,1.009774,-0.05735062,0.06357314,0.6047106,-0.0006741553,1.493096,-3.196945,30.45
2,0.2509002999999999,0.1414032,0.9576111,1.0,0.1401672,0.1700134,0.9754028,-33.06216,4.3293610000000005,-27.90993,4.589432,0.5178557,0.4045573,1.0,0.2515411,0.1412354,0.9574738000000002,35.82077,6.870697,-26.669590000000003,5.276184,0.3503027999999999,0.3067084,-0.5996435,1.009774,-0.05735062,0.06357314,0.6047106,-0.0006741553,1.493096,-3.196945,30.45
2,0.2227782999999999,0.1671753,0.9604187,1.0,0.1178588999999999,0.1527862999999999,0.9812012,-33.11436,4.412674,-28.36815,4.401627,0.523469,0.4082046,1.0,0.2263793999999999,0.1676483,0.9594879,35.82294,6.839278999999999,-26.68686,5.463287,0.3544415999999999,0.303344,-0.6000181,1.009958,-0.05752718,0.06276979,0.6037001999999999,-0.0006905339999999,1.493096,-3.196945,30.45
2,0.2227782999999999,0.1671753,0.9604187,1.0,0.1178588999999999,0.1527862999999999,0.9812012,-33.11436,4.412674,-28.36815,4.401627,0.523469,0.4082046,1.0,0.2263793999999999,0.1676483,0.9594879,35.82294,6.839278999999999,-26.68686,5.463287,0.3544415999999999,0.303344,-0.6000181,1.009958,-0.05752718,0.06276979,0.6037001999999999,-0.0006905339999999,1.493096,-3.196945,30.45
2,0.2227782999999999,0.1671753,0.9604187,1.0,0.1178588999999999,0.1527862999999999,0.9812012,-33.11436,4.412674,-28.36815,4.401627,0.523469,0.4082046,1.0,0.2263793999999999,0.1676483,0.9594879,35.82294,6.839278999999999,-26.68686,5.463287,0.3544415999999999,0.303344,-0.6000181,1.009958,-0.05752718,0.06276979,0.6037001999999999,-0.0006905339999999,1.493096,-3.196945,30.45
2,0.2227782999999999,0.1671753,0.9604187,1.0,0.1178588999999999,0.1527862999999999,0.9812012,-33.11436,4.412674,-28.36815,4.401627,0.523469,0.4082046,1.0,0.2263793999999999,0.1676483,0.9594879,35.82294,6.839278999999999,-26.68686,5.463287,0.3544415999999999,0.303344,-0.6004083,1.010208,-0.05789074,0.06169257,0.6030873000000001,-0.0005390479,1.493096,-3.196945,30.45
2,0.2227782999999999,0.1671753,0.9604187,1.0,0.1178588999999999,0.1527862999999999,0.9812012,-33.11436,4.412674,-28.36815,4.401627,0.523469,0.4082046,1.0,0.2263793999999999,0.1676483,0.9594879,35.82294,6.839278999999999,-26.68686,5.463287,0.3544415999999999,0.303344,-0.6004083,1.010208,-0.05789074,0.06169257,0.6030873000000001,-0.0005390479,1.493096,-3.196945,30.45
2,0.2227782999999999,0.1671753,0.9604187,1.0,0.1178588999999999,0.1527862999999999,0.9812012,-33.11436,4.412674,-28.36815,4.401627,0.523469,0.4082046,1.0,0.2263793999999999,0.1676483,0.9594879,35.82294,6.839278999999999,-26.68686,5.463287,0.3544415999999999,0.303344,-0.6004083,1.010208,-0.05789074,0.06169257,0.6030873000000001,-0.0005390479,1.493096,-3.196945,30.45
2,0.2227782999999999,0.1671753,0.9604187,1.0,0.1178588999999999,0.1527862999999999,0.9812012,-33.11436,4.412674,-28.36815,4.401627,0.523469,0.4082046,1.0,0.2263793999999999,0.1676483,0.9594879,35.82294,6.839278999999999,-26.68686,5.463287,0.3544415999999999,0.303344,-0.6006130999999999,1.010387,-0.05848971,0.06049727,0.6026092,-0.0003662109999999,1.493096,4.633278,30.45
2,0.2227782999999999,0.1671753,0.9604187,1.0,0.1178588999999999,0.1527862999999999,0.9812012,-33.11436,4.412674,-28.36815,4.401627,0.523469,0.4082046,1.0,0.2263793999999999,0.1676483,0.9594879,35.82294,6.839278999999999,-26.68686,5.463287,0.3544415999999999,0.303344,-0.6006130999999999,1.010387,-0.05848971,0.06049727,0.6026092,-0.0003662109999999,1.493096,4.633278,30.45
2,0.2227782999999999,0.1671753,0.9604187,1.0,0.1178588999999999,0.1527862999999999,0.9812012,-33.11436,4.412674,-28.36815,4.401627,0.523469,0.4082046,1.0,0.2263793999999999,0.1676483,0.9594879,35.82294,6.839278999999999,-26.68686,5.463287,0.3544415999999999,0.303344,-0.6006130999999999,1.010387,-0.05848971,0.06049727,0.6026092,-0.0003662109999999,1.493096,4.633278,30.45
2,0.1971892999999999,0.1627045,0.9667664,1.0,0.1114655,0.1466827,0.9828644,-33.18712,4.384842,-28.35782,4.496323,0.5270216,0.4101448,1.0,0.2115326,0.1652832,0.9632874,35.77544,6.764709,-26.67271,5.553467,0.3587672999999999,0.3063796,-0.6007925000000001,1.010564,-0.05898774,0.0598405999999999,0.6022708000000001,-0.0003452669999999,1.493096,4.633278,30.45
2,0.1971892999999999,0.1627045,0.9667664,1.0,0.1114655,0.1466827,0.9828644,-33.18712,4.384842,-28.35782,4.496323,0.5270216,0.4101448,1.0,0.2115326,0.1652832,0.9632874,35.77544,6.764709,-26.67271,5.553467,0.3587672999999999,0.3063796,-0.6007925000000001,1.010564,-0.05898774,0.0598405999999999,0.6022708000000001,-0.0003452669999999,1.493096,4.633278,30.45
2,0.1971892999999999,0.1627045,0.9667664,1.0,0.1114655,0.1466827,0.9828644,-33.18712,4.384842,-28.35782,4.496323,0.5270216,0.4101448,1.0,0.2115326,0.1652832,0.9632874,35.77544,6.764709,-26.67271,5.553467,0.3587672999999999,0.3063796,-0.6007925000000001,1.010564,-0.05898774,0.0598405999999999,0.6022708000000001,-0.0003452669999999,1.493096,4.633278,30.45
2,0.1875457999999999,0.1617737,0.9688263,1.0,0.1149902,0.1426086,0.9830627,-33.20917,4.33905,-28.24895,4.560867,0.5271499,0.411517,1.0,0.2134399,0.168457,0.9623108,35.76306,6.745987,-26.68015,5.566177,0.3588491,0.3065697,-0.6009890999999999,1.010583,-0.05957977,0.0597643,0.601711,-0.0005250443,1.493096,4.633278,30.45
2,0.1875457999999999,0.1617737,0.9688263,1.0,0.1149902,0.1426086,0.9830627,-33.20917,4.33905,-28.24895,4.560867,0.5271499,0.411517,1.0,0.2134399,0.168457,0.9623108,35.76306,6.745987,-26.68015,5.566177,0.3588491,0.3065697,-0.6009890999999999,1.010583,-0.05957977,0.0597643,0.601711,-0.0005250443,1.493096,4.633278,30.45
2,0.1875457999999999,0.1617737,0.9688263,1.0,0.1149902,0.1426086,0.9830627,-33.20917,4.33905,-28.24895,4.560867,0.5271499,0.411517,1.0,0.2134399,0.168457,0.9623108,35.76306,6.745987,-26.68015,5.566177,0.3588491,0.3065697,-0.6009890999999999,1.010583,-0.05957977,0.0597643,0.601711,-0.0005250443,1.493096,4.633278,30.45
2,0.1875457999999999,0.1617737,0.9688263,1.0,0.1149902,0.1426086,0.9830627,-33.20917,4.33905,-28.24895,4.560867,0.5271499,0.411517,1.0,0.2134399,0.168457,0.9623108,35.76306,6.745987,-26.68015,5.566177,0.3588491,0.3065697,-0.6012439,1.010476,-0.06016652,0.05969413,0.6011565999999999,-0.0008004686,1.493096,4.633278,30.45
2,0.1875457999999999,0.1617737,0.9688263,1.0,0.1149902,0.1426086,0.9830627,-33.20917,4.33905,-28.24895,4.560867,0.5271499,0.411517,1.0,0.2134399,0.168457,0.9623108,35.76306,6.745987,-26.68015,5.566177,0.3588491,0.3065697,-0.6012439,1.010476,-0.06016652,0.05969413,0.6011565999999999,-0.0008004686,1.493096,4.633278,30.45
2,0.1875457999999999,0.1617737,0.9688263,1.0,0.1149902,0.1426086,0.9830627,-33.20917,4.33905,-28.24895,4.560867,0.5271499,0.411517,1.0,0.2134399,0.168457,0.9623108,35.76306,6.745987,-26.68015,5.566177,0.3588491,0.3065697,-0.6012439,1.010476,-0.06016652,0.05969413,0.6011565999999999,-0.0008004686,1.493096,4.633278,30.45
2,0.2037659,0.1560211,0.9664917,1.0,0.1027527,0.1423492,0.9844513,-33.2802,4.224991,-27.93068,4.587982,0.5314439999999999,0.4127008,1.0,0.2127991,0.1571808,0.9643555,35.71884,6.709014999999999,-26.66486,5.555923,0.360612,0.3097792,-0.6014293000000001,1.010387,-0.06093511,0.05976317,0.6008198,-0.001241882,1.493096,4.480091,30.45
2,0.2037659,0.1560211,0.9664917,1.0,0.1027527,0.1423492,0.9844513,-33.2802,4.224991,-27.93068,4.587982,0.5314439999999999,0.4127008,1.0,0.2127991,0.1571808,0.9643555,35.71884,6.709014999999999,-26.66486,5.555923,0.360612,0.3097792,-0.6014293000000001,1.010387,-0.06093511,0.05976317,0.6008198,-0.001241882,1.493096,4.480091,30.45
2,0.2037659,0.1560211,0.9664917,1.0,0.1027527,0.1423492,0.9844513,-33.2802,4.224991,-27.93068,4.587982,0.5314439999999999,0.4127008,1.0,0.2127991,0.1571808,0.9643555,35.71884,6.709014999999999,-26.66486,5.555923,0.360612,0.3097792,-0.6014293000000001,1.010387,-0.06093511,0.05976317,0.6008198,-0.001241882,1.493096,4.480091,30.45
2,0.1933594,0.1541901,0.9689178,1.0,0.1026763999999999,0.1421051,0.9844971,-33.28889,4.243042,-27.99939,4.59462,0.531782,0.4127142,1.0,0.2023926,0.1553345,0.9669037,35.707809999999995,6.703247,-26.66504,5.553085,0.3628174,0.3103071,-0.6015342,1.010373,-0.06164519,0.05967484,0.6005404999999999,-0.001715511,1.493096,4.480091,30.45
2,0.1933594,0.1541901,0.9689178,1.0,0.1026763999999999,0.1421051,0.9844971,-33.28889,4.243042,-27.99939,4.59462,0.531782,0.4127142,1.0,0.2023926,0.1553345,0.9669037,35.707809999999995,6.703247,-26.66504,5.553085,0.3628174,0.3103071,-0.6015342,1.010373,-0.06164519,0.05967484,0.6005404999999999,-0.001715511,1.493096,4.480091,30.45
2,0.1933594,0.1541901,0.9689178,1.0,0.1026763999999999,0.1421051,0.9844971,-33.28889,4.243042,-27.99939,4.59462,0.531782,0.4127142,1.0,0.2023926,0.1553345,0.9669037,35.707809999999995,6.703247,-26.66504,5.553085,0.3628174,0.3103071,-0.6015342,1.010373,-0.06164519,0.05967484,0.6005404999999999,-0.001715511,1.493096,4.480091,30.45
2,0.1478423999999999,0.1425629,0.9786682,1.0,0.09672546,0.1274261,0.9871063,-33.31638,4.255081,-28.1335,4.587646,0.5337651,0.4158532,1.0,0.1807404,0.1521606,0.9716796999999998,35.67094,6.679183999999999,-26.65517,5.588455000000001,0.3678729,0.311671,-0.6016756,1.010259,-0.06229652,0.05969357,0.6005026,-0.002268998,1.493096,4.480091,30.45
2,0.1478423999999999,0.1425629,0.9786682,1.0,0.09672546,0.1274261,0.9871063,-33.31638,4.255081,-28.1335,4.587646,0.5337651,0.4158532,1.0,0.1807404,0.1521606,0.9716796999999998,35.67094,6.679183999999999,-26.65517,5.588455000000001,0.3678729,0.311671,-0.6016756,1.010259,-0.06229652,0.05969357,0.6005026,-0.002268998,1.493096,4.480091,30.45
2,0.1478423999999999,0.1425629,0.9786682,1.0,0.09672546,0.1274261,0.9871063,-33.31638,4.255081,-28.1335,4.587646,0.5337651,0.4158532,1.0,0.1807404,0.1521606,0.9716796999999998,35.67094,6.679183999999999,-26.65517,5.588455000000001,0.3678729,0.311671,-0.6016756,1.010259,-0.06229652,0.05969357,0.6005026,-0.002268998,1.493096,4.480091,30.45
2,0.1086121,0.02355957,0.9937897,1.0,0.02128601,0.007339478,0.9997406,-33.42828,3.88504,-28.87407,4.609894000000001,0.5504571999999999,0.4545698,1.0,0.1240233999999999,0.02641296,0.9919128,35.081990000000005,6.202667,-27.76241,5.186858999999999,0.3977103,0.359154,-0.601761,1.010219,-0.06295051,0.0599428,0.6007393,-0.002763484,1.493096,4.480091,30.45
2,0.1086121,0.02355957,0.9937897,1.0,0.02128601,0.007339478,0.9997406,-33.42828,3.88504,-28.87407,4.609894000000001,0.5504571999999999,0.4545698,1.0,0.1240233999999999,0.02641296,0.9919128,35.081990000000005,6.202667,-27.76241,5.186858999999999,0.3977103,0.359154,-0.601761,1.010219,-0.06295051,0.0599428,0.6007393,-0.002763484,1.493096,4.480091,30.45
2,0.1086121,0.02355957,0.9937897,1.0,0.02128601,0.007339478,0.9997406,-33.42828,3.88504,-28.87407,4.609894000000001,0.5504571999999999,0.4545698,1.0,0.1240233999999999,0.02641296,0.9919128,35.081990000000005,6.202667,-27.76241,5.186858999999999,0.3977103,0.359154,-0.601761,1.010219,-0.06295051,0.0599428,0.6007393,-0.002763484,1.493096,4.480091,30.45
2,0.02082825,-0.142334,0.9895935,1.0,0.007583618,-0.1424255,0.9897614,-33.43614,3.727158,-29.61823,4.532852,0.5534278,0.4920430999999999,1.0,0.09136963,-0.1413878999999999,0.9857178,35.01108,5.910965,-28.23875,5.2059940000000005,0.4054377,0.4020272,-0.6018074000000001,1.010169,-0.06361689,0.0600068999999999,0.6007851,-0.003303801,1.493096,4.480091,30.45
2,0.02082825,-0.142334,0.9895935,1.0,0.007583618,-0.1424255,0.9897614,-33.43614,3.727158,-29.61823,4.532852,0.5534278,0.4920430999999999,1.0,0.09136963,-0.1413878999999999,0.9857178,35.01108,5.910965,-28.23875,5.2059940000000005,0.4054377,0.4020272,-0.6018074000000001,1.010169,-0.06361689,0.0600068999999999,0.6007851,-0.003303801,1.493096,4.480091,30.45
2,0.02082825,-0.142334,0.9895935,1.0,0.007583618,-0.1424255,0.9897614,-33.43614,3.727158,-29.61823,4.532852,0.5534278,0.4920430999999999,1.0,0.09136963,-0.1413878999999999,0.9857178,35.01108,5.910965,-28.23875,5.2059940000000005,0.4054377,0.4020272,-0.6018074000000001,1.010169,-0.06361689,0.0600068999999999,0.6007851,-0.003303801,1.493096,4.480091,30.45
2,0.07577515,-0.1325377999999999,0.988266,1.0,0.01097107,-0.1189423,0.9928284,-33.5352,3.613678,-29.21722,4.521301,0.5559585,0.4881904999999999,1.0,0.08331299,-0.134079,0.9874573,35.067170000000004,5.930511,-28.328090000000003,5.146545,0.4047534,0.4007146,-0.6019131999999999,1.010162,-0.06429569,0.06007912,0.6008842,-0.003895745,1.493096,4.480091,30.45
2,0.07577515,-0.1325377999999999,0.988266,1.0,0.01097107,-0.1189423,0.9928284,-33.5352,3.613678,-29.21722,4.521301,0.5559585,0.4881904999999999,1.0,0.08331299,-0.134079,0.9874573,35.067170000000004,5.930511,-28.328090000000003,5.146545,0.4047534,0.4007146,-0.6019131999999999,1.010162,-0.06429569,0.06007912,0.6008842,-0.003895745,1.493096,-0.8315697,30.45
2,0.07577515,-0.1325377999999999,0.988266,1.0,0.01097107,-0.1189423,0.9928284,-33.5352,3.613678,-29.21722,4.521301,0.5559585,0.4881904999999999,1.0,0.08331299,-0.134079,0.9874573,35.067170000000004,5.930511,-28.328090000000003,5.146545,0.4047534,0.4007146,-0.6019131999999999,1.010162,-0.06429569,0.06007912,0.6008842,-0.003895745,1.493096,-0.8315697,30.45
2,0.09422302,-0.1233520999999999,0.9878693,1.0,0.0214386,-0.1081085,0.9938965,-33.61705,3.517059,-28.89749,4.5626370000000005,0.5567868,0.4867182,1.0,0.09780884,-0.1240845,0.9874268,35.069790000000005,5.867858999999999,-28.08801,5.221725,0.4023775,0.3991319,-0.6019404,1.010057,-0.06471904,0.06015912,0.600558,-0.004409764,1.493096,-0.8315697,30.45
2,0.09422302,-0.1233520999999999,0.9878693,1.0,0.0214386,-0.1081085,0.9938965,-33.61705,3.517059,-28.89749,4.5626370000000005,0.5567868,0.4867182,1.0,0.09780884,-0.1240845,0.9874268,35.069790000000005,5.867858999999999,-28.08801,5.221725,0.4023775,0.3991319,-0.6019404,1.010057,-0.06471904,0.06015912,0.600558,-0.004409764,1.493096,-0.8315697,30.45
2,0.09422302,-0.1233520999999999,0.9878693,1.0,0.0214386,-0.1081085,0.9938965,-33.61705,3.517059,-28.89749,4.5626370000000005,0.5567868,0.4867182,1.0,0.09780884,-0.1240845,0.9874268,35.069790000000005,5.867858999999999,-28.08801,5.221725,0.4023775,0.3991319,-0.6019404,1.010057,-0.06471904,0.06015912,0.600558,-0.004409764,1.493096,-0.8315697,30.45
2,0.08030701,-0.1109009,0.9905701,1.0,0.01072693,-0.1114502,0.9936981,-33.59918,3.627518,-29.28023,4.565033000000001,0.5582159000000001,0.4870332999999999,1.0,0.1032104,-0.1105956999999999,0.9884796,35.06583,5.823654,-27.96112,5.231781,0.4016877,0.3972680999999999,-0.6019763000000001,1.009953,-0.06518838,0.05994392,0.5998406,-0.004798932,1.493096,-0.8315697,30.45
2,0.08030701,-0.1109009,0.9905701,1.0,0.01072693,-0.1114502,0.9936981,-33.59918,3.627518,-29.28023,4.565033000000001,0.5582159000000001,0.4870332999999999,1.0,0.1032104,-0.1105956999999999,0.9884796,35.06583,5.823654,-27.96112,5.231781,0.4016877,0.3972680999999999,-0.6019763000000001,1.009953,-0.06518838,0.05994392,0.5998406,-0.004798932,1.493096,-0.8315697,30.45
2,0.08030701,-0.1109009,0.9905701,1.0,0.01072693,-0.1114502,0.9936981,-33.59918,3.627518,-29.28023,4.565033000000001,0.5582159000000001,0.4870332999999999,1.0,0.1032104,-0.1105956999999999,0.9884796,35.06583,5.823654,-27.96112,5.231781,0.4016877,0.3972680999999999,-0.6019763000000001,1.009953,-0.06518838,0.05994392,0.5998406,-0.004798932,1.493096,-0.8315697,30.45
2,0.08885193,-0.110672,0.9898682,1.0,0.01187134,-0.111908,0.9936371,-33.60516,3.621887,-29.2717,4.565062999999999,0.5582227,0.4872184,1.0,0.1048125999999999,-0.110321,0.9883423,35.06889,5.820831,-27.955340000000003,5.229904,0.401321,0.3972680999999999,-0.6019787,1.009978,-0.06558965,0.05971703,0.5990076999999999,-0.005387023,1.493096,-0.8315697,30.45
2,0.08885193,-0.110672,0.9898682,1.0,0.01187134,-0.111908,0.9936371,-33.60516,3.621887,-29.2717,4.565062999999999,0.5582227,0.4872184,1.0,0.1048125999999999,-0.110321,0.9883423,35.06889,5.820831,-27.955340000000003,5.229904,0.401321,0.3972680999999999,-0.6019787,1.009978,-0.06558965,0.05971703,0.5990076999999999,-0.005387023,1.493096,-0.8315697,30.45
2,0.08885193,-0.110672,0.9898682,1.0,0.01187134,-0.111908,0.9936371,-33.60516,3.621887,-29.2717,4.565062999999999,0.5582227,0.4872184,1.0,0.1048125999999999,-0.110321,0.9883423,35.06889,5.820831,-27.955340000000003,5.229904,0.401321,0.3972680999999999,-0.6019787,1.009978,-0.06558965,0.05971703,0.5990076999999999,-0.005387023,1.493096,-0.8315697,30.45
2,0.04600525,-0.110733,0.9927826,1.0,0.0069732669999999,-0.1110686999999999,0.9937744,-33.61293,3.618668,-29.25307,4.583145,0.5592906999999999,0.4870332999999999,1.0,0.1086426,-0.1098175,0.9879913,35.06998,5.810852,-27.91296,5.246964,0.4006639999999999,0.3971719,-0.6020854,1.0100360000000002,-0.06598303,0.05903062,0.5983773,-0.006435664,1.493096,-0.8315697,30.45
2,0.04600525,-0.110733,0.9927826,1.0,0.0069732669999999,-0.1110686999999999,0.9937744,-33.61293,3.618668,-29.25307,4.583145,0.5592906999999999,0.4870332999999999,1.0,0.1086426,-0.1098175,0.9879913,35.06998,5.810852,-27.91296,5.246964,0.4006639999999999,0.3971719,-0.6020854,1.0100360000000002,-0.06598303,0.05903062,0.5983773,-0.006435664,1.493096,-0.8315697,30.45
2,0.04600525,-0.110733,0.9927826,1.0,0.0069732669999999,-0.1110686999999999,0.9937744,-33.61293,3.618668,-29.25307,4.583145,0.5592906999999999,0.4870332999999999,1.0,0.1086426,-0.1098175,0.9879913,35.06998,5.810852,-27.91296,5.246964,0.4006639999999999,0.3971719,-0.6020854,1.0100360000000002,-0.06598303,0.05903062,0.5983773,-0.006435664,1.493096,-0.8315697,30.45
2,0.05134583,-0.1085357999999999,0.9927521,1.0,0.00604248,-0.1072693,0.9942017,-33.62576,3.605637,-29.22835,4.608521,0.5598666999999999,0.4866092000000001,1.0,0.1096801999999999,-0.1098328,0.9878693,35.07198,5.800629,-27.85515,5.282744999999999,0.4004626,0.3970488,-0.6021725,1.009889,-0.06651257,0.05916243,0.597751,-0.007044209,1.493096,-0.8315697,30.45
2,0.05134583,-0.1085357999999999,0.9927521,1.0,0.00604248,-0.1072693,0.9942017,-33.62576,3.605637,-29.22835,4.608521,0.5598666999999999,0.4866092000000001,1.0,0.1096801999999999,-0.1098328,0.9878693,35.07198,5.800629,-27.85515,5.282744999999999,0.4004626,0.3970488,-0.6021725,1.009889,-0.06651257,0.05916243,0.597751,-0.007044209,1.493096,-0.8315697,30.45
2,0.05134583,-0.1085357999999999,0.9927521,1.0,0.00604248,-0.1072693,0.9942017,-33.62576,3.605637,-29.22835,4.608521,0.5598666999999999,0.4866092000000001,1.0,0.1096801999999999,-0.1098328,0.9878693,35.07198,5.800629,-27.85515,5.282744999999999,0.4004626,0.3970488,-0.6021725,1.009889,-0.06651257,0.05916243,0.597751,-0.007044209,1.493096,-0.8315697,30.45
2,0.05119324,-0.1079559,0.9928284,1.0,0.006546021,-0.1060486,0.9943237,-33.63513,3.603119,-29.22089,4.625595,0.5600984,0.486418,1.0,0.1105042,-0.1101531999999999,0.9877472,35.07198,5.800095,-27.85477,5.249756,0.4003239,0.3971167,-0.6022338,1.009722,-0.06715967,0.05958094,0.5970677,-0.007643785,1.493096,-0.8315697,30.45
2,0.05119324,-0.1079559,0.9928284,1.0,0.006546021,-0.1060486,0.9943237,-33.63513,3.603119,-29.22089,4.625595,0.5600984,0.486418,1.0,0.1105042,-0.1101531999999999,0.9877472,35.07198,5.800095,-27.85477,5.249756,0.4003239,0.3971167,-0.6022338,1.009722,-0.06715967,0.05958094,0.5970677,-0.007643785,1.493096,-1.244339,30.45
2,0.05119324,-0.1079559,0.9928284,1.0,0.006546021,-0.1060486,0.9943237,-33.63513,3.603119,-29.22089,4.625595,0.5600984,0.486418,1.0,0.1105042,-0.1101531999999999,0.9877472,35.07198,5.800095,-27.85477,5.249756,0.4003239,0.3971167,-0.6022338,1.009722,-0.06715967,0.05958094,0.5970677,-0.007643785,1.493096,-1.974205,30.45
2,0.05705261,-0.1042786,0.9929047,1.0,0.003097534,-0.1016846,0.9947968,-33.66225,3.596863,-29.19757,4.657913,0.5615774,0.485689,1.0,0.1086426,-0.1064758,0.9883575,35.07133,5.791824,-27.84598,5.283264,0.4006639999999999,0.3966959,-0.6022501,1.009587,-0.06760265,0.05995131,0.5962805,-0.008148594,1.493096,3.793484,30.45
2,0.05705261,-0.1042786,0.9929047,1.0,0.003097534,-0.1016846,0.9947968,-33.66225,3.596863,-29.19757,4.657913,0.5615774,0.485689,1.0,0.1086426,-0.1064758,0.9883575,35.07133,5.791824,-27.84598,5.283264,0.4006639999999999,0.3966959,-0.6022501,1.009587,-0.06760265,0.05995131,0.5962805,-0.008148594,1.493096,3.793484,30.45
2,0.05705261,-0.1042786,0.9929047,1.0,0.003097534,-0.1016846,0.9947968,-33.66225,3.596863,-29.19757,4.657913,0.5615774,0.485689,1.0,0.1086426,-0.1064758,0.9883575,35.07133,5.791824,-27.84598,5.283264,0.4006639999999999,0.3966959,-0.6022501,1.009587,-0.06760265,0.05995131,0.5962805,-0.008148594,1.493096,3.793484,30.45
2,0.05474854,-0.104126,0.993042,1.0,0.0008087158,-0.1011658,0.9948578,-33.67468,3.594376,-29.1774,4.686539,0.5623712,0.4855164,1.0,0.1044006,-0.1065979,0.9888,35.067609999999995,5.792358,-27.84598,5.301926,0.4015033,0.3966959,-0.6023536999999999,1.0095690000000002,-0.06814779,0.05983165,0.5952881999999999,-0.008595346,1.493096,3.793484,30.45
2,0.05474854,-0.104126,0.993042,1.0,0.0008087158,-0.1011658,0.9948578,-33.67468,3.594376,-29.1774,4.686539,0.5623712,0.4855164,1.0,0.1044006,-0.1065979,0.9888,35.067609999999995,5.792358,-27.84598,5.301926,0.4015033,0.3966959,-0.6023536999999999,1.0095690000000002,-0.06814779,0.05983165,0.5952881999999999,-0.008595346,1.493096,3.793484,30.45
2,0.05474854,-0.104126,0.993042,1.0,0.0008087158,-0.1011658,0.9948578,-33.67468,3.594376,-29.1774,4.686539,0.5623712,0.4855164,1.0,0.1044006,-0.1065979,0.9888,35.067609999999995,5.792358,-27.84598,5.301926,0.4015033,0.3966959,-0.6023536999999999,1.0095690000000002,-0.06814779,0.05983165,0.5952881999999999,-0.008595346,1.493096,3.793484,30.45
2,0.05314636,-0.1032561999999999,0.9932251,1.0,0.0006103516,-0.1005707,0.9949188,-33.68277,3.594376,-29.1774,4.716522,0.5626842,0.4854267,1.0,0.1008453,-0.1054535,0.9892883,35.06667,5.794571,-27.84947,5.30162,0.4021297,0.3964486,-0.6025316,1.009579,-0.0686803,0.05974528,0.5942415,-0.00915039,1.493096,3.793484,30.45
2,0.05314636,-0.1032561999999999,0.9932251,1.0,0.0006103516,-0.1005707,0.9949188,-33.68277,3.594376,-29.1774,4.716522,0.5626842,0.4854267,1.0,0.1008453,-0.1054535,0.9892883,35.06667,5.794571,-27.84947,5.30162,0.4021297,0.3964486,-0.6025316,1.009579,-0.0686803,0.05974528,0.5942415,-0.00915039,1.493096,3.793484,30.45
2,0.05314636,-0.1032561999999999,0.9932251,1.0,0.0006103516,-0.1005707,0.9949188,-33.68277,3.594376,-29.1774,4.716522,0.5626842,0.4854267,1.0,0.1008453,-0.1054535,0.9892883,35.06667,5.794571,-27.84947,5.30162,0.4021297,0.3964486,-0.6025316,1.009579,-0.0686803,0.05974528,0.5942415,-0.00915039,1.493096,3.793484,30.45
2,0.05032349,-0.1026306,0.9934387,1.0,0.000213623,-0.09954834,0.9950256,-33.69209,3.6018220000000003,-29.1774,4.721512000000001,0.5630670999999999,0.4850090999999999,1.0,0.09832764,-0.1053466999999999,0.9895477,35.06619,5.796021,-27.85783,5.315735,0.4025631,0.3964486,-0.6027493,1.009564,-0.06929965,0.05950837,0.5930165,-0.009479922,1.493096,3.793484,30.45
2,0.05032349,-0.1026306,0.9934387,1.0,0.000213623,-0.09954834,0.9950256,-33.69209,3.6018220000000003,-29.1774,4.721512000000001,0.5630670999999999,0.4850090999999999,1.0,0.09832764,-0.1053466999999999,0.9895477,35.06619,5.796021,-27.85783,5.315735,0.4025631,0.3964486,-0.6027493,1.009564,-0.06929965,0.05950837,0.5930165,-0.009479922,1.493096,3.793484,30.45
2,0.05032349,-0.1026306,0.9934387,1.0,0.000213623,-0.09954834,0.9950256,-33.69209,3.6018220000000003,-29.1774,4.721512000000001,0.5630670999999999,0.4850090999999999,1.0,0.09832764,-0.1053466999999999,0.9895477,35.06619,5.796021,-27.85783,5.315735,0.4025631,0.3964486,-0.6027493,1.009564,-0.06929965,0.05950837,0.5930165,-0.009479922,1.493096,3.793484,30.45
3,0.04258728,-0.1003876,0.9940338,1.0,-0.006103516,-0.09675598,0.995285,-33.70482,3.656723,-29.31682,4.731964,0.5646534000000001,0.4839489999999999,1.0,0.09538269,-0.1040497,0.989975,35.06773,5.848785,-28.00246,5.370101999999999,0.4029122,0.3956185,-0.6029029,1.0096379999999998,-0.06991109,0.05842388,0.5918443,-0.01002464,1.493096,6.318592,30.45
3,0.04258728,-0.1003876,0.9940338,1.0,-0.006103516,-0.09675598,0.995285,-33.70482,3.656723,-29.31682,4.731964,0.5646534000000001,0.4839489999999999,1.0,0.09538269,-0.1040497,0.989975,35.06773,5.848785,-28.00246,5.370101999999999,0.4029122,0.3956185,-0.6029029,1.0096379999999998,-0.06991109,0.05842388,0.5918443,-0.01002464,1.493096,6.318592,30.45
3,0.04258728,-0.1003876,0.9940338,1.0,-0.006103516,-0.09675598,0.995285,-33.70482,3.656723,-29.31682,4.731964,0.5646534000000001,0.4839489999999999,1.0,0.09538269,-0.1040497,0.989975,35.06773,5.848785,-28.00246,5.370101999999999,0.4029122,0.3956185,-0.6029029,1.0096379999999998,-0.06991109,0.05842388,0.5918443,-0.01002464,1.493096,6.318592,30.45
3,0.04272461,-0.10112,0.9939423,1.0,-0.005126953,-0.09709167,0.9952545,-33.70953,3.671371,-29.35727,4.7374730000000005,0.5646800000000001,0.4838741,1.0,0.09242249,-0.1050567999999999,0.9901581,35.07556,5.855576,-28.00246,5.372879,0.4031335,0.3955554,-0.603043,1.009758,-0.07061245,0.05752913,0.5905395999999999,-0.01041718,1.493096,6.318592,30.45
3,0.04272461,-0.10112,0.9939423,1.0,-0.005126953,-0.09709167,0.9952545,-33.70953,3.671371,-29.35727,4.7374730000000005,0.5646800000000001,0.4838741,1.0,0.09242249,-0.1050567999999999,0.9901581,35.07556,5.855576,-28.00246,5.372879,0.4031335,0.3955554,-0.603043,1.009758,-0.07061245,0.05752913,0.5905395999999999,-0.01041718,1.493096,6.318592,30.45
3,0.04272461,-0.10112,0.9939423,1.0,-0.005126953,-0.09709167,0.9952545,-33.70953,3.671371,-29.35727,4.7374730000000005,0.5646800000000001,0.4838741,1.0,0.09242249,-0.1050567999999999,0.9901581,35.07556,5.855576,-28.00246,5.372879,0.4031335,0.3955554,-0.603043,1.009758,-0.07061245,0.05752913,0.5905395999999999,-0.01041718,1.493096,6.318592,30.45
3,-0.000289917,-0.02540588,0.9996643,0.9765288,-0.004760742,-0.02575684,0.999649,-33.78606,3.997772,-28.61157,4.941544,0.5667641999999999,0.4542800999999999,0.9748973,0.09823608,-0.01739502,0.9949951,34.83878,6.304657,-27.12675,5.443558,0.4107912,0.3580413,-0.6032481,1.009896,-0.0712841,0.05689551,0.5891742,-0.01091284,1.493096,6.318592,30.45
3,-0.000289917,-0.02540588,0.9996643,0.9765288,-0.004760742,-0.02575684,0.999649,-33.78606,3.997772,-28.61157,4.941544,0.5667641999999999,0.4542800999999999,0.9748973,0.09823608,-0.01739502,0.9949951,34.83878,6.304657,-27.12675,5.443558,0.4107912,0.3580413,-0.6032481,1.009896,-0.0712841,0.05689551,0.5891742,-0.01091284,1.493096,6.318592,30.45
3,-0.000289917,-0.02540588,0.9996643,0.9765288,-0.004760742,-0.02575684,0.999649,-33.78606,3.997772,-28.61157,4.941544,0.5667641999999999,0.4542800999999999,0.9748973,0.09823608,-0.01739502,0.9949951,34.83878,6.304657,-27.12675,5.443558,0.4107912,0.3580413,-0.6032481,1.009896,-0.0712841,0.05689551,0.5891742,-0.01091284,1.493096,6.318592,30.45
3,0.09397888,0.08930969,0.9915466,0.9568113,-0.01805115,0.1199341,0.9926146999999998,-33.78793,4.17749,-28.07953,5.043167,0.5688151,0.4195257,0.9611561,0.09733582,0.08836365,0.9913177,34.80975,6.581009,-26.45659,5.587296,0.4121392,0.3253372,-0.6036549,1.010198,-0.07250078,0.05528674,0.5866695,-0.0115570999999999,1.493096,6.318592,30.45
3,0.09397888,0.08930969,0.9915466,0.9568113,-0.01805115,0.1199341,0.9926146999999998,-33.78793,4.17749,-28.07953,5.043167,0.5688151,0.4195257,0.9611561,0.09733582,0.08836365,0.9913177,34.80975,6.581009,-26.45659,5.587296,0.4121392,0.3253372,-0.6036549,1.010198,-0.07250078,0.05528674,0.5866695,-0.0115570999999999,1.493096,6.318592,30.45
3,0.09397888,0.08930969,0.9915466,0.9568113,-0.01805115,0.1199341,0.9926146999999998,-33.78793,4.17749,-28.07953,5.043167,0.5688151,0.4195257,0.9611561,0.09733582,0.08836365,0.9913177,34.80975,6.581009,-26.45659,5.587296,0.4121392,0.3253372,-0.6036549,1.010198,-0.07250078,0.05528674,0.5866695,-0.0115570999999999,1.493096,6.318592,30.45
3,0.06732178,0.1002197,0.9926758,1.0,-0.03250122,0.1102752999999999,0.9933624,-33.89345,4.001358,-27.75156,5.028809,0.5744663000000001,0.4242559,1.0,0.08673096,0.09812927,0.9913788,34.86475,6.509583,-26.702240000000003,5.662567,0.4118718,0.3280388,-0.6040161999999999,1.010338,-0.07330206,0.05434481,0.5852788000000001,-0.01189137,1.493096,6.318592,30.45
3,0.06732178,0.1002197,0.9926758,1.0,-0.03250122,0.1102752999999999,0.9933624,-33.89345,4.001358,-27.75156,5.028809,0.5744663000000001,0.4242559,1.0,0.08673096,0.09812927,0.9913788,34.86475,6.509583,-26.702240000000003,5.662567,0.4118718,0.3280388,-0.6040161999999999,1.010338,-0.07330206,0.05434481,0.5852788000000001,-0.01189137,1.493096,6.318592,30.45
3,0.06732178,0.1002197,0.9926758,1.0,-0.03250122,0.1102752999999999,0.9933624,-33.89345,4.001358,-27.75156,5.028809,0.5744663000000001,0.4242559,1.0,0.08673096,0.09812927,0.9913788,34.86475,6.509583,-26.702240000000003,5.662567,0.4118718,0.3280388,-0.6040161999999999,1.010338,-0.07330206,0.05434481,0.5852788000000001,-0.01189137,1.493096,6.318592,30.45
3,0.05541992,0.1049041999999999,0.9929352,1.0,-0.01940918,0.1093445,0.9938049,-33.92885,3.983841,-27.74379,5.072296,0.5734847,0.4249529,1.0,0.0838623,0.1030579,0.9911194,34.86368,6.509293,-26.75018,5.649704,0.4123513,0.3275679,-0.6043242,1.010402,-0.07406539,0.05348659,0.583727,-0.01228976,1.493096,0.9727287,30.45
3,0.05541992,0.1049041999999999,0.9929352,1.0,-0.01940918,0.1093445,0.9938049,-33.92885,3.983841,-27.74379,5.072296,0.5734847,0.4249529,1.0,0.0838623,0.1030579,0.9911194,34.86368,6.509293,-26.75018,5.649704,0.4123513,0.3275679,-0.6043242,1.010402,-0.07406539,0.05348659,0.583727,-0.01228976,1.493096,0.9727287,30.45
3,0.05541992,0.1049041999999999,0.9929352,1.0,-0.01940918,0.1093445,0.9938049,-33.92885,3.983841,-27.74379,5.072296,0.5734847,0.4249529,1.0,0.0838623,0.1030579,0.9911194,34.86368,6.509293,-26.75018,5.649704,0.4123513,0.3275679,-0.6043242,1.010402,-0.07406539,0.05348659,0.583727,-0.01228976,1.493096,0.9727287,30.45
3,0.02841187,0.102951,0.994278,1.0,-0.04273987,0.1009674,0.9939575,-33.95221,3.993347,-27.82207,5.012268,0.5781805,0.4266457999999999,1.0,0.07527161,0.1039734,0.9917145,34.86331,6.511902,-26.79529,5.755615,0.4137558,0.3276859,-0.604545,1.010444,-0.07479179,0.05279424,0.5820633000000001,-0.01260697,1.493096,0.9727287,30.45
3,0.02841187,0.102951,0.994278,1.0,-0.04273987,0.1009674,0.9939575,-33.95221,3.993347,-27.82207,5.012268,0.5781805,0.4266457999999999,1.0,0.07527161,0.1039734,0.9917145,34.86331,6.511902,-26.79529,5.755615,0.4137558,0.3276859,-0.604545,1.010444,-0.07479179,0.05279424,0.5820633000000001,-0.01260697,1.493096,0.9727287,30.45
3,0.02841187,0.102951,0.994278,1.0,-0.04273987,0.1009674,0.9939575,-33.95221,3.993347,-27.82207,5.012268,0.5781805,0.4266457999999999,1.0,0.07527161,0.1039734,0.9917145,34.86331,6.511902,-26.79529,5.755615,0.4137558,0.3276859,-0.604545,1.010444,-0.07479179,0.05279424,0.5820633000000001,-0.01260697,1.493096,0.9727287,30.45
3,0.01847839,0.09979248,0.9948273,1.0,-0.05584717,0.0982666,0.993576,-33.99344,4.000076,-27.88519,5.092834,0.5818026999999999,0.4274872,1.0,0.06655884,0.1004944,0.9927063,34.86331,6.504776000000001,-26.72395,5.763397,0.4152623,0.3280028,-0.6049111999999999,1.010467,-0.07553075,0.0525023,0.5805608,-0.01282087,1.493096,0.9727287,30.45
3,0.01847839,0.09979248,0.9948273,1.0,-0.05584717,0.0982666,0.993576,-33.99344,4.000076,-27.88519,5.092834,0.5818026999999999,0.4274872,1.0,0.06655884,0.1004944,0.9927063,34.86331,6.504776000000001,-26.72395,5.763397,0.4152623,0.3280028,-0.6049111999999999,1.010467,-0.07553075,0.0525023,0.5805608,-0.01282087,1.493096,0.9727287,30.45
3,0.01847839,0.09979248,0.9948273,1.0,-0.05584717,0.0982666,0.993576,-33.99344,4.000076,-27.88519,5.092834,0.5818026999999999,0.4274872,1.0,0.06655884,0.1004944,0.9927063,34.86331,6.504776000000001,-26.72395,5.763397,0.4152623,0.3280028,-0.6049111999999999,1.010467,-0.07553075,0.0525023,0.5805608,-0.01282087,1.493096,0.9727287,30.45
3,0.007522583,0.1028748,0.9946594,1.0,-0.05062866,0.08946228,0.9946899,-34.05576,4.006226,-27.93532,5.070541,0.5830622,0.4291324,1.0,0.0592040999999999,0.1144867,0.9916534,34.862120000000004,6.423080000000001,-26.683640000000004,5.7882690000000006,0.4165443,0.3282022,-0.6052043,1.010466,-0.07631533,0.05220008,0.5788988,-0.01309656,1.493096,0.9727287,30.45
3,0.007522583,0.1028748,0.9946594,1.0,-0.05062866,0.08946228,0.9946899,-34.05576,4.006226,-27.93532,5.070541,0.5830622,0.4291324,1.0,0.0592040999999999,0.1144867,0.9916534,34.862120000000004,6.423080000000001,-26.683640000000004,5.7882690000000006,0.4165443,0.3282022,-0.6052043,1.010466,-0.07631533,0.05220008,0.5788988,-0.01309656,1.493096,0.9727287,30.45
3,0.007522583,0.1028748,0.9946594,1.0,-0.05062866,0.08946228,0.9946899,-34.05576,4.006226,-27.93532,5.070541,0.5830622,0.4291324,1.0,0.0592040999999999,0.1144867,0.9916534,34.862120000000004,6.423080000000001,-26.683640000000004,5.7882690000000006,0.4165443,0.3282022,-0.6052043,1.010466,-0.07631533,0.05220008,0.5788988,-0.01309656,1.493096,0.9727287,30.45
3,-0.03871155,0.0864563,0.9954987,1.0,-0.05012512,0.08422852,0.9951782,-34.08705,3.946732,-27.75366,4.973801,0.5838501,0.4303709,1.0,0.04898071,0.1031798999999999,0.993454,34.78102,6.29213,-26.30507,5.838165,0.4212399,0.3318317999999999,-0.6055847,1.010541,-0.07716034,0.05214775,0.5773041,-0.01313887,1.493096,-9.36095,30.45
3,-0.03871155,0.0864563,0.9954987,1.0,-0.05012512,0.08422852,0.9951782,-34.08705,3.946732,-27.75366,4.973801,0.5838501,0.4303709,1.0,0.04898071,0.1031798999999999,0.993454,34.78102,6.29213,-26.30507,5.838165,0.4212399,0.3318317999999999,-0.6055847,1.010541,-0.07716034,0.05214775,0.5773041,-0.01313887,1.493096,-9.36095,30.45
3,-0.03871155,0.0864563,0.9954987,1.0,-0.05012512,0.08422852,0.9951782,-34.08705,3.946732,-27.75366,4.973801,0.5838501,0.4303709,1.0,0.04898071,0.1031798999999999,0.993454,34.78102,6.29213,-26.30507,5.838165,0.4212399,0.3318317999999999,-0.6055847,1.010541,-0.07716034,0.05214775,0.5773041,-0.01313887,1.493096,-9.36095,30.45
3,-0.03871155,0.0864563,0.9954987,1.0,-0.05012512,0.08422852,0.9951782,-34.08705,3.946732,-27.75366,4.973801,0.5838501,0.4303709,1.0,0.04898071,0.1031798999999999,0.993454,34.78102,6.29213,-26.30507,5.838165,0.4212399,0.3318317999999999,-0.6058366999999999,1.01064,-0.07787719,0.052207,0.5755353,-0.01281448,1.493096,-9.36095,30.45
3,-0.03871155,0.0864563,0.9954987,1.0,-0.05012512,0.08422852,0.9951782,-34.08705,3.946732,-27.75366,4.973801,0.5838501,0.4303709,1.0,0.04898071,0.1031798999999999,0.993454,34.78102,6.29213,-26.30507,5.838165,0.4212399,0.3318317999999999,-0.6058366999999999,1.01064,-0.07787719,0.052207,0.5755353,-0.01281448,1.493096,-9.36095,30.45
3,-0.03871155,0.0864563,0.9954987,1.0,-0.05012512,0.08422852,0.9951782,-34.08705,3.946732,-27.75366,4.973801,0.5838501,0.4303709,1.0,0.04898071,0.1031798999999999,0.993454,34.78102,6.29213,-26.30507,5.838165,0.4212399,0.3318317999999999,-0.6058366999999999,1.01064,-0.07787719,0.052207,0.5755353,-0.01281448,1.493096,-9.36095,30.45
3,-0.0488739,0.08468628,0.9951935,1.0,-0.06100464,0.0844574,0.9945526,-34.17625,3.997787,-27.92368,5.11908,0.5888346999999999,0.4301898,1.0,0.03186035,0.08589172,0.9957886,34.7623,6.315033000000001,-26.40744,5.685013,0.424718,0.3347485,-0.6065257,1.010853,-0.07942918,0.05135919,0.5713106,-0.01270617,1.493096,-9.36095,30.45
3,-0.0488739,0.08468628,0.9951935,1.0,-0.06100464,0.0844574,0.9945526,-34.17625,3.997787,-27.92368,5.11908,0.5888346999999999,0.4301898,1.0,0.03186035,0.08589172,0.9957886,34.7623,6.315033000000001,-26.40744,5.685013,0.424718,0.3347485,-0.6065257,1.010853,-0.07942918,0.05135919,0.5713106,-0.01270617,1.493096,-9.36095,30.45
3,-0.0488739,0.08468628,0.9951935,1.0,-0.06100464,0.0844574,0.9945526,-34.17625,3.997787,-27.92368,5.11908,0.5888346999999999,0.4301898,1.0,0.03186035,0.08589172,0.9957886,34.7623,6.315033000000001,-26.40744,5.685013,0.424718,0.3347485,-0.6065257,1.010853,-0.07942918,0.05135919,0.5713106,-0.01270617,1.493096,-9.36095,30.45
3,-0.0448760999999999,0.08621216,0.9952545,1.0,-0.06703186,0.08601379,0.9940338,-34.1848,3.9888,-27.89937,5.029388,0.5900947,0.429977,1.0,0.02630615,0.08657837,0.9958954,34.74405,6.311478,-26.4202,5.68512,0.4262553,0.3348764999999999,-0.6066729000000001,1.010996,-0.07995354,0.05059752,0.5694452,-0.01313944,1.493096,-9.36095,30.45
3,-0.0448760999999999,0.08621216,0.9952545,1.0,-0.06703186,0.08601379,0.9940338,-34.1848,3.9888,-27.89937,5.029388,0.5900947,0.429977,1.0,0.02630615,0.08657837,0.9958954,34.74405,6.311478,-26.4202,5.68512,0.4262553,0.3348764999999999,-0.6066729000000001,1.010996,-0.07995354,0.05059752,0.5694452,-0.01313944,1.493096,-9.36095,30.45
3,-0.0448760999999999,0.08621216,0.9952545,1.0,-0.06703186,0.08601379,0.9940338,-34.1848,3.9888,-27.89937,5.029388,0.5900947,0.429977,1.0,0.02630615,0.08657837,0.9958954,34.74405,6.311478,-26.4202,5.68512,0.4262553,0.3348764999999999,-0.6066729000000001,1.010996,-0.07995354,0.05059752,0.5694452,-0.01313944,1.493096,-9.36095,30.45
3,-0.07003784,0.09829712,0.9926758,1.0,-0.09864807,0.1021729,0.9898529,-34.311,3.825821,-27.39748,5.190079,0.5991451,0.4287103,1.0,-0.01063538,0.0900116,0.9958801,34.595490000000005,6.152435,-25.96721,5.617462000000001,0.4376366,0.3364569,-0.6069893,1.011015,-0.08073692,0.05049412,0.5675340999999999,-0.01294607,1.493096,-9.36095,30.45
3,-0.07003784,0.09829712,0.9926758,1.0,-0.09864807,0.1021729,0.9898529,-34.311,3.825821,-27.39748,5.190079,0.5991451,0.4287103,1.0,-0.01063538,0.0900116,0.9958801,34.595490000000005,6.152435,-25.96721,5.617462000000001,0.4376366,0.3364569,-0.6069893,1.011015,-0.08073692,0.05049412,0.5675340999999999,-0.01294607,1.493096,-9.36095,30.45
3,-0.07003784,0.09829712,0.9926758,1.0,-0.09864807,0.1021729,0.9898529,-34.311,3.825821,-27.39748,5.190079,0.5991451,0.4287103,1.0,-0.01063538,0.0900116,0.9958801,34.595490000000005,6.152435,-25.96721,5.617462000000001,0.4376366,0.3364569,-0.6069893,1.011015,-0.08073692,0.05049412,0.5675340999999999,-0.01294607,1.493096,-9.36095,30.45
3,-0.07003784,0.09829712,0.9926758,1.0,-0.09864807,0.1021729,0.9898529,-34.311,3.825821,-27.39748,5.190079,0.5991451,0.4287103,1.0,-0.01063538,0.0900116,0.9958801,34.595490000000005,6.152435,-25.96721,5.617462000000001,0.4376366,0.3364569,-0.6073725999999999,1.010936,-0.08150446,0.05032859,0.5657248,-0.01308916,1.493096,5.346371,30.45
3,-0.07003784,0.09829712,0.9926758,1.0,-0.09864807,0.1021729,0.9898529,-34.311,3.825821,-27.39748,5.190079,0.5991451,0.4287103,1.0,-0.01063538,0.0900116,0.9958801,34.595490000000005,6.152435,-25.96721,5.617462000000001,0.4376366,0.3364569,-0.6073725999999999,1.010936,-0.08150446,0.05032859,0.5657248,-0.01308916,1.493096,5.346371,30.45
3,-0.07003784,0.09829712,0.9926758,1.0,-0.09864807,0.1021729,0.9898529,-34.311,3.825821,-27.39748,5.190079,0.5991451,0.4287103,1.0,-0.01063538,0.0900116,0.9958801,34.595490000000005,6.152435,-25.96721,5.617462000000001,0.4376366,0.3364569,-0.6073725999999999,1.010936,-0.08150446,0.05032859,0.5657248,-0.01308916,1.493096,5.346371,30.45
3,-0.04489136,0.1016846,0.9937897,1.0,-0.09660339,0.1117249,0.9890289,-34.34547,3.78566,-27.279740000000004,5.229782,0.5998600000000001,0.4275153,1.0,0.004318237,0.09187317,0.9957581,34.5526,6.171066000000001,-26.1001,5.668182,0.4365645999999999,0.3365442999999999,-0.6077715,1.010962,-0.08224718,0.05023687,0.5637141999999999,-0.01308859,1.46619,5.346371,30.45
3,-0.04489136,0.1016846,0.9937897,1.0,-0.09660339,0.1117249,0.9890289,-34.34547,3.78566,-27.279740000000004,5.229782,0.5998600000000001,0.4275153,1.0,0.004318237,0.09187317,0.9957581,34.5526,6.171066000000001,-26.1001,5.668182,0.4365645999999999,0.3365442999999999,-0.6077715,1.010962,-0.08224718,0.05023687,0.5637141999999999,-0.01308859,1.46619,5.346371,30.45
3,-0.04489136,0.1016846,0.9937897,1.0,-0.09660339,0.1117249,0.9890289,-34.34547,3.78566,-27.279740000000004,5.229782,0.5998600000000001,0.4275153,1.0,0.004318237,0.09187317,0.9957581,34.5526,6.171066000000001,-26.1001,5.668182,0.4365645999999999,0.3365442999999999,-0.6077715,1.010962,-0.08224718,0.05023687,0.5637141999999999,-0.01308859,1.46619,5.346371,30.45
3,-0.04489136,0.1016846,0.9937897,1.0,-0.09660339,0.1117249,0.9890289,-34.34547,3.78566,-27.279740000000004,5.229782,0.5998600000000001,0.4275153,1.0,0.004318237,0.09187317,0.9957581,34.5526,6.171066000000001,-26.1001,5.668182,0.4365645999999999,0.3365442999999999,-0.6080514,1.010976,-0.0830106999999999,0.05001681,0.5616713000000001,-0.01309115,1.46619,5.346371,30.45
3,-0.04489136,0.1016846,0.9937897,1.0,-0.09660339,0.1117249,0.9890289,-34.34547,3.78566,-27.279740000000004,5.229782,0.5998600000000001,0.4275153,1.0,0.004318237,0.09187317,0.9957581,34.5526,6.171066000000001,-26.1001,5.668182,0.4365645999999999,0.3365442999999999,-0.6080514,1.010976,-0.0830106999999999,0.05001681,0.5616713000000001,-0.01309115,1.46619,5.346371,30.45
3,-0.04489136,0.1016846,0.9937897,1.0,-0.09660339,0.1117249,0.9890289,-34.34547,3.78566,-27.279740000000004,5.229782,0.5998600000000001,0.4275153,1.0,0.004318237,0.09187317,0.9957581,34.5526,6.171066000000001,-26.1001,5.668182,0.4365645999999999,0.3365442999999999,-0.6080514,1.010976,-0.0830106999999999,0.05001681,0.5616713000000001,-0.01309115,1.46619,5.346371,30.45
3,-0.07569885,0.1042174999999999,0.9916534,1.0,-0.1269989,0.1150665,0.985199,-34.56364,3.872238,-27.62376,5.137436,0.6126739,0.4269766,1.0,-0.0459136999999999,0.09780884,0.9941406,34.36281,6.141418,-26.14078,5.679626,0.4512846,0.3371049,-0.6084274000000001,1.011064,-0.08380762,0.04965907,0.5597565,-0.01325686,1.46619,5.346371,30.45
3,-0.07569885,0.1042174999999999,0.9916534,1.0,-0.1269989,0.1150665,0.985199,-34.56364,3.872238,-27.62376,5.137436,0.6126739,0.4269766,1.0,-0.0459136999999999,0.09780884,0.9941406,34.36281,6.141418,-26.14078,5.679626,0.4512846,0.3371049,-0.6084274000000001,1.011064,-0.08380762,0.04965907,0.5597565,-0.01325686,1.46619,5.346371,30.45
3,-0.07569885,0.1042174999999999,0.9916534,1.0,-0.1269989,0.1150665,0.985199,-34.56364,3.872238,-27.62376,5.137436,0.6126739,0.4269766,1.0,-0.0459136999999999,0.09780884,0.9941406,34.36281,6.141418,-26.14078,5.679626,0.4512846,0.3371049,-0.6084274000000001,1.011064,-0.08380762,0.04965907,0.5597565,-0.01325686,1.46619,5.346371,30.45
3,-0.05039978,0.0856781,0.9950409,1.0,-0.1297607,0.09924316,0.986557,-34.51358,4.101486,-28.33678,5.084183,0.612236,0.4278829,1.0,-0.05039978,0.0856781,0.9950409,34.40735,6.132904,-26.0607,5.796692,0.4504834,0.3388135,-0.6088394,1.011187,-0.08481185,0.04951859,0.5576431,-0.01269355,1.46619,5.346371,30.45
3,-0.05039978,0.0856781,0.9950409,1.0,-0.1297607,0.09924316,0.986557,-34.51358,4.101486,-28.33678,5.084183,0.612236,0.4278829,1.0,-0.05039978,0.0856781,0.9950409,34.40735,6.132904,-26.0607,5.796692,0.4504834,0.3388135,-0.6088394,1.011187,-0.08481185,0.04951859,0.5576431,-0.01269355,1.46619,5.346371,30.45
3,-0.05039978,0.0856781,0.9950409,1.0,-0.1297607,0.09924316,0.986557,-34.51358,4.101486,-28.33678,5.084183,0.612236,0.4278829,1.0,-0.05039978,0.0856781,0.9950409,34.40735,6.132904,-26.0607,5.796692,0.4504834,0.3388135,-0.6088394,1.011187,-0.08481185,0.04951859,0.5576431,-0.01269355,1.46619,5.346371,30.45
3,0.1685944,0.1330261,0.9766541,1.0,0.03840637,0.1231842,0.9916382,-33.45073,4.184357,-28.2256,5.136566,0.5481979,0.4200645999999999,1.0,0.1691742,0.1330719,0.9765472,35.360490000000006,6.461746,-26.33026,5.775299,0.3810757999999999,0.3205112,-0.6092706,1.011373,-0.08568871,0.04837836,0.5556243000000001,-0.01231398,1.46619,3.313021,30.51
3,0.1685944,0.1330261,0.9766541,1.0,0.03840637,0.1231842,0.9916382,-33.45073,4.184357,-28.2256,5.136566,0.5481979,0.4200645999999999,1.0,0.1691742,0.1330719,0.9765472,35.360490000000006,6.461746,-26.33026,5.775299,0.3810757999999999,0.3205112,-0.6092706,1.011373,-0.08568871,0.04837836,0.5556243000000001,-0.01231398,1.46619,3.313021,30.51
3,0.1685944,0.1330261,0.9766541,1.0,0.03840637,0.1231842,0.9916382,-33.45073,4.184357,-28.2256,5.136566,0.5481979,0.4200645999999999,1.0,0.1691742,0.1330719,0.9765472,35.360490000000006,6.461746,-26.33026,5.775299,0.3810757999999999,0.3205112,-0.6092706,1.011373,-0.08568871,0.04837836,0.5556243000000001,-0.01231398,1.46619,3.313021,30.51
3,0.1777802,0.142334,0.9737091,1.0,0.05908203,0.1337279999999999,0.9892426,-33.42696,4.211563,-28.3187,5.244278,0.5440613000000001,0.4183167,1.0,0.1883087,0.1430206,0.9716339,35.48126,6.548325,-26.56702,5.815796,0.3733551,0.3174873,-0.6096708000000001,1.011647,-0.08648574,0.04722229,0.5534509,-0.01211944,1.46619,3.313021,30.51
3,0.1777802,0.142334,0.9737091,1.0,0.05908203,0.1337279999999999,0.9892426,-33.42696,4.211563,-28.3187,5.244278,0.5440613000000001,0.4183167,1.0,0.1883087,0.1430206,0.9716339,35.48126,6.548325,-26.56702,5.815796,0.3733551,0.3174873,-0.6096708000000001,1.011647,-0.08648574,0.04722229,0.5534509,-0.01211944,1.46619,3.313021,30.51
3,0.1777802,0.142334,0.9737091,1.0,0.05908203,0.1337279999999999,0.9892426,-33.42696,4.211563,-28.3187,5.244278,0.5440613000000001,0.4183167,1.0,0.1883087,0.1430206,0.9716339,35.48126,6.548325,-26.56702,5.815796,0.3733551,0.3174873,-0.6096708000000001,1.011647,-0.08648574,0.04722229,0.5534509,-0.01211944,1.46619,3.313021,30.51
3,0.151474,0.1423645,0.9781494,1.0,0.046875,0.1256561,0.9909515,-33.50008,4.186462000000001,-28.28,5.1044160000000005,0.5484796999999999,0.4200399999999999,1.0,0.1826477,0.1470795,0.9721069,35.4711,6.545685,-26.57851,5.809845,0.3746435999999999,0.3169785999999999,-0.6101302,1.011878,-0.08736566,0.0461520999999999,0.5512715,-0.01190858,1.46619,3.313021,30.51
3,0.151474,0.1423645,0.9781494,1.0,0.046875,0.1256561,0.9909515,-33.50008,4.186462000000001,-28.28,5.1044160000000005,0.5484796999999999,0.4200399999999999,1.0,0.1826477,0.1470795,0.9721069,35.4711,6.545685,-26.57851,5.809845,0.3746435999999999,0.3169785999999999,-0.6101302,1.011878,-0.08736566,0.0461520999999999,0.5512715,-0.01190858,1.46619,3.313021,30.51
3,0.151474,0.1423645,0.9781494,1.0,0.046875,0.1256561,0.9909515,-33.50008,4.186462000000001,-28.28,5.1044160000000005,0.5484796999999999,0.4200399999999999,1.0,0.1826477,0.1470795,0.9721069,35.4711,6.545685,-26.57851,5.809845,0.3746435999999999,0.3169785999999999,-0.6101302,1.011878,-0.08736566,0.0461520999999999,0.5512715,-0.01190858,1.46619,3.313021,30.51
3,0.1533813,0.1335753999999999,0.9790802,1.0,0.04496765,0.1318665,0.9902344,-33.62738,4.00058,-27.64558,5.217041,0.5527046999999999,0.4199819999999999,1.0,0.1557312,0.1335907,0.978714,35.31766,6.561966,-26.73523,5.822861,0.3844662,0.3200345,-0.6105851999999999,1.012215,-0.08827579,0.04484153,0.5492869,-0.01188667,1.46619,3.313021,30.51
3,0.1533813,0.1335753999999999,0.9790802,1.0,0.04496765,0.1318665,0.9902344,-33.62738,4.00058,-27.64558,5.217041,0.5527046999999999,0.4199819999999999,1.0,0.1557312,0.1335907,0.978714,35.31766,6.561966,-26.73523,5.822861,0.3844662,0.3200345,-0.6105851999999999,1.012215,-0.08827579,0.04484153,0.5492869,-0.01188667,1.46619,3.313021,30.51
3,0.1533813,0.1335753999999999,0.9790802,1.0,0.04496765,0.1318665,0.9902344,-33.62738,4.00058,-27.64558,5.217041,0.5527046999999999,0.4199819999999999,1.0,0.1557312,0.1335907,0.978714,35.31766,6.561966,-26.73523,5.822861,0.3844662,0.3200345,-0.6105851999999999,1.012215,-0.08827579,0.04484153,0.5492869,-0.01188667,1.46619,3.313021,30.51
3,0.1434479,0.1290131,0.9812012,1.0,0.03625488,0.1303253,0.990799,-33.66013,3.980209,-27.5565,5.192673,0.5551755,0.4201534,1.0,0.1441345,0.1289978,0.9811096,35.28825,6.566161999999999,-26.80617,5.847702,0.3874043,0.3212273,-0.6109889000000001,1.012472,-0.08933681,0.04342522,0.5475661999999999,-0.0118851,1.46619,3.313021,30.51
3,0.1434479,0.1290131,0.9812012,1.0,0.03625488,0.1303253,0.990799,-33.66013,3.980209,-27.5565,5.192673,0.5551755,0.4201534,1.0,0.1441345,0.1289978,0.9811096,35.28825,6.566161999999999,-26.80617,5.847702,0.3874043,0.3212273,-0.6109889000000001,1.012472,-0.08933681,0.04342522,0.5475661999999999,-0.0118851,1.46619,3.313021,30.51
3,0.1434479,0.1290131,0.9812012,1.0,0.03625488,0.1303253,0.990799,-33.66013,3.980209,-27.5565,5.192673,0.5551755,0.4201534,1.0,0.1441345,0.1289978,0.9811096,35.28825,6.566161999999999,-26.80617,5.847702,0.3874043,0.3212273,-0.6109889000000001,1.012472,-0.08933681,0.04342522,0.5475661999999999,-0.0118851,1.46619,3.313021,30.51
3,0.1142273,0.1249237,0.9855652,1.0,0.01730347,0.106369,0.9941711,-33.71667,4.080337999999999,-27.92796,5.1624300000000005,0.5604374,0.4238335,1.0,0.1406707999999999,0.1298065,0.9815063,35.21492,6.581573,-26.96056,5.751251,0.3904135,0.3217920999999999,-0.6113415,1.012675,-0.09038776,0.04228569,0.5462488,-0.01198405,1.46619,-1.047857,30.51
3,0.1142273,0.1249237,0.9855652,1.0,0.01730347,0.106369,0.9941711,-33.71667,4.080337999999999,-27.92796,5.1624300000000005,0.5604374,0.4238335,1.0,0.1406707999999999,0.1298065,0.9815063,35.21492,6.581573,-26.96056,5.751251,0.3904135,0.3217920999999999,-0.6113415,1.012675,-0.09038776,0.04228569,0.5462488,-0.01198405,1.46619,-1.047857,30.51
3,0.1142273,0.1249237,0.9855652,1.0,0.01730347,0.106369,0.9941711,-33.71667,4.080337999999999,-27.92796,5.1624300000000005,0.5604374,0.4238335,1.0,0.1406707999999999,0.1298065,0.9815063,35.21492,6.581573,-26.96056,5.751251,0.3904135,0.3217920999999999,-0.6113415,1.012675,-0.09038776,0.04228569,0.5462488,-0.01198405,1.46619,-1.047857,30.51
3,0.06292725,0.1087799,0.9920654,1.0,0.01802063,0.1014557,0.9946747,-33.76422,4.009247,-27.701490000000003,5.139084,0.5617459,0.4250925999999999,1.0,0.121521,0.118042,0.9855347,35.197140000000005,6.582077000000001,-26.97585,5.883774,0.3942852,0.3239385,-0.6116557,1.012894,-0.09137161,0.04098001,0.544924,-0.01208435,1.46619,-1.047857,30.51
3,0.06292725,0.1087799,0.9920654,1.0,0.01802063,0.1014557,0.9946747,-33.76422,4.009247,-27.701490000000003,5.139084,0.5617459,0.4250925999999999,1.0,0.121521,0.118042,0.9855347,35.197140000000005,6.582077000000001,-26.97585,5.883774,0.3942852,0.3239385,-0.6116557,1.012894,-0.09137161,0.04098001,0.544924,-0.01208435,1.46619,-1.047857,30.51
3,0.06292725,0.1087799,0.9920654,1.0,0.01802063,0.1014557,0.9946747,-33.76422,4.009247,-27.701490000000003,5.139084,0.5617459,0.4250925999999999,1.0,0.121521,0.118042,0.9855347,35.197140000000005,6.582077000000001,-26.97585,5.883774,0.3942852,0.3239385,-0.6116557,1.012894,-0.09137161,0.04098001,0.544924,-0.01208435,1.46619,-1.047857,30.51
3,0.04942322,0.1118164,0.9924927,1.0,0.0009918213,0.1065063,0.9943085,-33.77762,4.006531,-27.71265,5.195435,0.5650295,0.4244838999999999,1.0,0.1240692,0.1194916,0.9850464,35.17264,6.582367,-27.08591,5.869827,0.3946142,0.3245399,-0.6123544,1.013203,-0.09385055,0.03872208,0.5433880999999999,-0.01287885,1.46619,-1.047857,30.51
3,0.04942322,0.1118164,0.9924927,1.0,0.0009918213,0.1065063,0.9943085,-33.77762,4.006531,-27.71265,5.195435,0.5650295,0.4244838999999999,1.0,0.1240692,0.1194916,0.9850464,35.17264,6.582367,-27.08591,5.869827,0.3946142,0.3245399,-0.6123544,1.013203,-0.09385055,0.03872208,0.5433880999999999,-0.01287885,1.46619,-1.047857,30.51
3,0.04942322,0.1118164,0.9924927,1.0,0.0009918213,0.1065063,0.9943085,-33.77762,4.006531,-27.71265,5.195435,0.5650295,0.4244838999999999,1.0,0.1240692,0.1194916,0.9850464,35.17264,6.582367,-27.08591,5.869827,0.3946142,0.3245399,-0.6123544,1.013203,-0.09385055,0.03872208,0.5433880999999999,-0.01287885,1.46619,-1.047857,30.51
4,0.09919739,0.1114196999999999,0.9888,1.0,0.0022888179999999,0.1009674,0.994873,-33.85146,3.93042,-27.51097,5.225098,0.5671349,0.426254,1.0,0.1258698,0.1141356999999999,0.9854584,35.1546,6.579895,-27.042040000000004,5.88092,0.3949867,0.3252194,-0.6125798000000001,1.01342,-0.0950039,0.03761311,0.5428119,-0.01305867,1.46619,-1.047857,30.51
4,0.09919739,0.1114196999999999,0.9888,1.0,0.0022888179999999,0.1009674,0.994873,-33.85146,3.93042,-27.51097,5.225098,0.5671349,0.426254,1.0,0.1258698,0.1141356999999999,0.9854584,35.1546,6.579895,-27.042040000000004,5.88092,0.3949867,0.3252194,-0.6125798000000001,1.01342,-0.0950039,0.03761311,0.5428119,-0.01305867,1.46619,-1.047857,30.51
4,0.09919739,0.1114196999999999,0.9888,1.0,0.0022888179999999,0.1009674,0.994873,-33.85146,3.93042,-27.51097,5.225098,0.5671349,0.426254,1.0,0.1258698,0.1141356999999999,0.9854584,35.1546,6.579895,-27.042040000000004,5.88092,0.3949867,0.3252194,-0.6125798000000001,1.01342,-0.0950039,0.03761311,0.5428119,-0.01305867,1.46619,-1.047857,30.51
4,0.09895325,0.117569,0.9881134,1.0,-0.003219604,0.1081696,0.9941254,-33.868179999999995,3.927612,-27.506120000000003,5.193375,0.5686044,0.4251077999999999,1.0,0.1257324,0.1198273,0.984787,35.10988,6.537842,-27.02634,5.898346,0.3965607,0.3256599,-0.6128311,1.013591,-0.09616436,0.03656602,0.5425824,-0.01336907,1.46619,-8.497877,30.51
4,0.09895325,0.117569,0.9881134,1.0,-0.003219604,0.1081696,0.9941254,-33.868179999999995,3.927612,-27.506120000000003,5.193375,0.5686044,0.4251077999999999,1.0,0.1257324,0.1198273,0.984787,35.10988,6.537842,-27.02634,5.898346,0.3965607,0.3256599,-0.6128311,1.013591,-0.09616436,0.03656602,0.5425824,-0.01336907,1.46619,-8.497877,30.51
4,0.09895325,0.117569,0.9881134,1.0,-0.003219604,0.1081696,0.9941254,-33.868179999999995,3.927612,-27.506120000000003,5.193375,0.5686044,0.4251077999999999,1.0,0.1257324,0.1198273,0.984787,35.10988,6.537842,-27.02634,5.898346,0.3965607,0.3256599,-0.6128311,1.013591,-0.09616436,0.03656602,0.5425824,-0.01336907,1.46619,-8.497877,30.51
4,0.05036926,0.1139068999999999,0.9922028,1.0,-0.006103516,0.1080474999999999,0.9941254,-33.87971,3.930099,-27.51167,5.214035,0.5694739000000001,0.4251077999999999,1.0,0.1105956999999999,0.119751,0.986618,35.07225,6.53566,-27.02634,5.907333,0.400417,0.3257944,-0.6130247,1.013762,-0.09739757,0.0355891,0.5426612,-0.01360249,1.46619,-8.497877,30.51
4,0.05036926,0.1139068999999999,0.9922028,1.0,-0.006103516,0.1080474999999999,0.9941254,-33.87971,3.930099,-27.51167,5.214035,0.5694739000000001,0.4251077999999999,1.0,0.1105956999999999,0.119751,0.986618,35.07225,6.53566,-27.02634,5.907333,0.400417,0.3257944,-0.6130247,1.013762,-0.09739757,0.0355891,0.5426612,-0.01360249,1.46619,-8.497877,30.51
4,0.05036926,0.1139068999999999,0.9922028,1.0,-0.006103516,0.1080474999999999,0.9941254,-33.87971,3.930099,-27.51167,5.214035,0.5694739000000001,0.4251077999999999,1.0,0.1105956999999999,0.119751,0.986618,35.07225,6.53566,-27.02634,5.907333,0.400417,0.3257944,-0.6130247,1.013762,-0.09739757,0.0355891,0.5426612,-0.01360249,1.46619,-8.497877,30.51
4,0.02331543,0.05633545,0.9981384,1.0,-0.05209351,0.0473175,0.9975128,-34.01044,3.923248000000001,-28.39806,5.219147,0.582101,0.4429653,1.0,0.04307556,0.05865479,0.997345,34.66995,6.039459,-26.5853,5.821823,0.4259518,0.3503445,-0.6130909000000001,1.014027,-0.0986601,0.03445185,0.5428835,-0.01382389,1.46619,-8.497877,30.51
4,0.02331543,0.05633545,0.9981384,1.0,-0.05209351,0.0473175,0.9975128,-34.01044,3.923248000000001,-28.39806,5.219147,0.582101,0.4429653,1.0,0.04307556,0.05865479,0.997345,34.66995,6.039459,-26.5853,5.821823,0.4259518,0.3503445,-0.6130909000000001,1.014027,-0.0986601,0.03445185,0.5428835,-0.01382389,1.46619,-8.497877,30.51
4,0.02331543,0.05633545,0.9981384,1.0,-0.05209351,0.0473175,0.9975128,-34.01044,3.923248000000001,-28.39806,5.219147,0.582101,0.4429653,1.0,0.04307556,0.05865479,0.997345,34.66995,6.039459,-26.5853,5.821823,0.4259518,0.3503445,-0.6130909000000001,1.014027,-0.0986601,0.03445185,0.5428835,-0.01382389,1.46619,-8.497877,30.51
4,0.006622314,-0.04747009,0.9988403,1.0,-0.08337402,-0.05026245,0.9952393,-34.10051,3.647949,-28.40907,5.1399230000000005,0.5901819,0.4686093,1.0,0.01132202,-0.0473175,0.9988098,34.52977,5.788176999999999,-26.88991,5.687180000000001,0.4358294,0.3792173,-0.6130469,1.014234,-0.0997836,0.03356656,0.5432062,-0.01387929,1.46619,-8.497877,30.51
4,0.006622314,-0.04747009,0.9988403,1.0,-0.08337402,-0.05026245,0.9952393,-34.10051,3.647949,-28.40907,5.1399230000000005,0.5901819,0.4686093,1.0,0.01132202,-0.0473175,0.9988098,34.52977,5.788176999999999,-26.88991,5.687180000000001,0.4358294,0.3792173,-0.6130469,1.014234,-0.0997836,0.03356656,0.5432062,-0.01387929,1.46619,-8.497877,30.51
4,0.006622314,-0.04747009,0.9988403,1.0,-0.08337402,-0.05026245,0.9952393,-34.10051,3.647949,-28.40907,5.1399230000000005,0.5901819,0.4686093,1.0,0.01132202,-0.0473175,0.9988098,34.52977,5.788176999999999,-26.88991,5.687180000000001,0.4358294,0.3792173,-0.6130469,1.014234,-0.0997836,0.03356656,0.5432062,-0.01387929,1.46619,-8.497877,30.51
4,-0.05888367,-0.05015564,0.996994,1.0,-0.07807922,-0.05075073,0.9956511999999998,-34.12923,3.598129,-28.16827,5.1936800000000005,0.5900569,0.4682488,1.0,0.008605957,-0.0479126,0.9988098,34.53395,5.795685,-26.90154,5.687683,0.4361345999999999,0.3791739,-0.6129324,1.014591,-0.1010043,0.03205735,0.5436738,-0.01451251,1.46619,-8.497877,30.51
4,-0.05888367,-0.05015564,0.996994,1.0,-0.07807922,-0.05075073,0.9956511999999998,-34.12923,3.598129,-28.16827,5.1936800000000005,0.5900569,0.4682488,1.0,0.008605957,-0.0479126,0.9988098,34.53395,5.795685,-26.90154,5.687683,0.4361345999999999,0.3791739,-0.6129324,1.014591,-0.1010043,0.03205735,0.5436738,-0.01451251,1.46619,-8.497877,30.51
4,-0.05888367,-0.05015564,0.996994,1.0,-0.07807922,-0.05075073,0.9956511999999998,-34.12923,3.598129,-28.16827,5.1936800000000005,0.5900569,0.4682488,1.0,0.008605957,-0.0479126,0.9988098,34.53395,5.795685,-26.90154,5.687683,0.4361345999999999,0.3791739,-0.6129324,1.014591,-0.1010043,0.03205735,0.5436738,-0.01451251,1.46619,-8.497877,30.51
4,0.0006408691,-0.04063416,0.9991608,1.0,-0.07600403,-0.04118347,0.9962463,-34.21875,3.762009,-28.79591,5.187744,0.5933609999999999,0.466679,1.0,0.001190186,-0.04063416,0.9991608,34.544540000000005,5.788176999999999,-26.86322,5.709594999999999,0.4370039,0.3779064,-0.6128720999999999,1.0148,-0.1020828,0.03067586,0.5443147,-0.01503399,1.46619,-8.497877,30.51
4,0.0006408691,-0.04063416,0.9991608,1.0,-0.07600403,-0.04118347,0.9962463,-34.21875,3.762009,-28.79591,5.187744,0.5933609999999999,0.466679,1.0,0.001190186,-0.04063416,0.9991608,34.544540000000005,5.788176999999999,-26.86322,5.709594999999999,0.4370039,0.3779064,-0.6128720999999999,1.0148,-0.1020828,0.03067586,0.5443147,-0.01503399,1.46619,-8.497877,30.51
4,0.0006408691,-0.04063416,0.9991608,1.0,-0.07600403,-0.04118347,0.9962463,-34.21875,3.762009,-28.79591,5.187744,0.5933609999999999,0.466679,1.0,0.001190186,-0.04063416,0.9991608,34.544540000000005,5.788176999999999,-26.86322,5.709594999999999,0.4370039,0.3779064,-0.6128720999999999,1.0148,-0.1020828,0.03067586,0.5443147,-0.01503399,1.46619,-8.497877,30.51
4,-0.001235962,-0.04110718,0.9991455,1.0,-0.0790863,-0.04202271,0.9959717,-34.22678,3.71698,-28.641820000000003,5.252319,0.5939972,0.4670122,1.0,0.0002746582,-0.04107666,0.9991455,34.547990000000006,5.778473,-26.873890000000003,5.7180480000000005,0.4370318,0.378401,-0.6128184,1.014921,-0.1032028,0.02960991,0.5448586,-0.01531995,1.46619,0.8267193,30.51
4,-0.001235962,-0.04110718,0.9991455,1.0,-0.0790863,-0.04202271,0.9959717,-34.22678,3.71698,-28.641820000000003,5.252319,0.5939972,0.4670122,1.0,0.0002746582,-0.04107666,0.9991455,34.547990000000006,5.778473,-26.873890000000003,5.7180480000000005,0.4370318,0.378401,-0.6128184,1.014921,-0.1032028,0.02960991,0.5448586,-0.01531995,1.46619,0.8267193,30.51
4,-0.001235962,-0.04110718,0.9991455,1.0,-0.0790863,-0.04202271,0.9959717,-34.22678,3.71698,-28.641820000000003,5.252319,0.5939972,0.4670122,1.0,0.0002746582,-0.04107666,0.9991455,34.547990000000006,5.778473,-26.873890000000003,5.7180480000000005,0.4370318,0.378401,-0.6128184,1.014921,-0.1032028,0.02960991,0.5448586,-0.01531995,1.46619,0.8267193,30.51
4,-0.02433777,-0.04319763,0.998764,1.0,-0.07711792,-0.03765869,0.9963074,-34.2399,3.683548000000001,-28.51587,5.276489,0.5939972,0.4663013,1.0,-0.003494263,-0.04534912,0.9989624,34.57112,5.772064,-26.88669,5.691574,0.4368619000000001,0.379428,-0.6128384,1.015049,-0.1042783,0.02841251,0.5455555000000001,-0.01586773,1.46619,0.8267193,30.51
4,-0.02433777,-0.04319763,0.998764,1.0,-0.07711792,-0.03765869,0.9963074,-34.2399,3.683548000000001,-28.51587,5.276489,0.5939972,0.4663013,1.0,-0.003494263,-0.04534912,0.9989624,34.57112,5.772064,-26.88669,5.691574,0.4368619000000001,0.379428,-0.6128384,1.015049,-0.1042783,0.02841251,0.5455555000000001,-0.01586773,1.46619,0.8267193,30.51
4,-0.02433777,-0.04319763,0.998764,1.0,-0.07711792,-0.03765869,0.9963074,-34.2399,3.683548000000001,-28.51587,5.276489,0.5939972,0.4663013,1.0,-0.003494263,-0.04534912,0.9989624,34.57112,5.772064,-26.88669,5.691574,0.4368619000000001,0.379428,-0.6128384,1.015049,-0.1042783,0.02841251,0.5455555000000001,-0.01586773,1.46619,0.8267193,30.51
4,-0.02694702,-0.04493713,0.9986115,1.0,-0.07876587,-0.03652954,0.9962158,-34.24342,3.668762,-28.44775,5.288787999999999,0.5943264,0.4660157,1.0,-0.001876831,-0.0489501999999999,0.9987946,34.57748,5.768112,-26.88457,5.686829,0.4363792,0.3801478,-0.6126965999999999,1.015139,-0.1052201,0.02721566,0.5461039000000001,-0.01620963,1.46619,0.8267193,30.51
4,-0.02694702,-0.04493713,0.9986115,1.0,-0.07876587,-0.03652954,0.9962158,-34.24342,3.668762,-28.44775,5.288787999999999,0.5943264,0.4660157,1.0,-0.001876831,-0.0489501999999999,0.9987946,34.57748,5.768112,-26.88457,5.686829,0.4363792,0.3801478,-0.6126965999999999,1.015139,-0.1052201,0.02721566,0.5461039000000001,-0.01620963,1.46619,0.8267193,30.51
4,-0.02694702,-0.04493713,0.9986115,1.0,-0.07876587,-0.03652954,0.9962158,-34.24342,3.668762,-28.44775,5.288787999999999,0.5943264,0.4660157,1.0,-0.001876831,-0.0489501999999999,0.9987946,34.57748,5.768112,-26.88457,5.686829,0.4363792,0.3801478,-0.6126965999999999,1.015139,-0.1052201,0.02721566,0.5461039000000001,-0.01620963,1.46619,0.8267193,30.51
4,-0.02522278,-0.04389954,0.998703,1.0,-0.08135986,-0.03344727,0.996109,-34.24654,3.651398,-28.37073,5.303482,0.5947875,0.4654255,1.0,0.001922607,-0.04888916,0.9987946,34.57869,5.762619,-26.88457,5.682739,0.4357106,0.3803189,-0.6125655,1.015364,-0.1062058,0.02586609,0.5465647,-0.01666092,1.46619,0.8267193,30.51
4,-0.02522278,-0.04389954,0.998703,1.0,-0.08135986,-0.03344727,0.996109,-34.24654,3.651398,-28.37073,5.303482,0.5947875,0.4654255,1.0,0.001922607,-0.04888916,0.9987946,34.57869,5.762619,-26.88457,5.682739,0.4357106,0.3803189,-0.6125655,1.015364,-0.1062058,0.02586609,0.5465647,-0.01666092,1.46619,0.8267193,30.51
4,-0.02522278,-0.04389954,0.998703,1.0,-0.08135986,-0.03344727,0.996109,-34.24654,3.651398,-28.37073,5.303482,0.5947875,0.4654255,1.0,0.001922607,-0.04888916,0.9987946,34.57869,5.762619,-26.88457,5.682739,0.4357106,0.3803189,-0.6125655,1.015364,-0.1062058,0.02586609,0.5465647,-0.01666092,1.46619,0.8267193,30.51
4,-0.03834534,-0.05419922,0.9977875,1.0,-0.09228516,-0.0463561999999999,0.9946442,-34.2449,3.65715,-28.25275,5.37886,0.596414,0.4664233,1.0,0.001190186,-0.05982971,0.9981995,34.59505,5.723083,-26.65033,5.699081,0.4353374,0.3815749,-0.6125506,1.015532,-0.1070734,0.024382,0.5469837,-0.0167699,1.46619,0.8267193,30.51
4,-0.03834534,-0.05419922,0.9977875,1.0,-0.09228516,-0.0463561999999999,0.9946442,-34.2449,3.65715,-28.25275,5.37886,0.596414,0.4664233,1.0,0.001190186,-0.05982971,0.9981995,34.59505,5.723083,-26.65033,5.699081,0.4353374,0.3815749,-0.6125506,1.015532,-0.1070734,0.024382,0.5469837,-0.0167699,1.46619,0.8267193,30.51
4,-0.03834534,-0.05419922,0.9977875,1.0,-0.09228516,-0.0463561999999999,0.9946442,-34.2449,3.65715,-28.25275,5.37886,0.596414,0.4664233,1.0,0.001190186,-0.05982971,0.9981995,34.59505,5.723083,-26.65033,5.699081,0.4353374,0.3815749,-0.6125506,1.015532,-0.1070734,0.024382,0.5469837,-0.0167699,1.46619,0.8267193,30.51
4,0.04562378,0.04707336,0.9978333,1.0,-0.04429626,0.03712463,0.9983215,-33.94984,3.989349,-27.835690000000003,5.346298,0.5783267,0.4376595,1.0,0.06248474,0.04890442,0.9968414,34.71298,6.346756,-26.65173,6.015854,0.4211531,0.3417231,-0.6125666999999999,1.015975,-0.1079368999999999,0.02254437,0.5473395999999999,-0.01688105,1.46619,3.562035,30.51
4,0.04562378,0.04707336,0.9978333,1.0,-0.04429626,0.03712463,0.9983215,-33.94984,3.989349,-27.835690000000003,5.346298,0.5783267,0.4376595,1.0,0.06248474,0.04890442,0.9968414,34.71298,6.346756,-26.65173,6.015854,0.4211531,0.3417231,-0.6125666999999999,1.015975,-0.1079368999999999,0.02254437,0.5473395999999999,-0.01688105,1.46619,3.562035,30.51
4,0.04562378,0.04707336,0.9978333,1.0,-0.04429626,0.03712463,0.9983215,-33.94984,3.989349,-27.835690000000003,5.346298,0.5783267,0.4376595,1.0,0.06248474,0.04890442,0.9968414,34.71298,6.346756,-26.65173,6.015854,0.4211531,0.3417231,-0.6125666999999999,1.015975,-0.1079368999999999,0.02254437,0.5473395999999999,-0.01688105,1.46619,3.562035,30.51
4,0.04780579,0.06707764,0.9965973,1.0,-0.03662109,0.06889343,0.9969482,-33.99171,4.078278,-28.09082,5.343643,0.5787277,0.4316148,1.0,0.07893372,0.06628418,0.9946594,34.74799,6.324997,-26.56464,5.9091190000000005,0.4172857,0.3388734,-0.6126136,1.016314,-0.1087098,0.0206483,0.5476663,-0.01689076,1.46619,3.562035,30.51
4,0.04780579,0.06707764,0.9965973,1.0,-0.03662109,0.06889343,0.9969482,-33.99171,4.078278,-28.09082,5.343643,0.5787277,0.4316148,1.0,0.07893372,0.06628418,0.9946594,34.74799,6.324997,-26.56464,5.9091190000000005,0.4172857,0.3388734,-0.6126136,1.016314,-0.1087098,0.0206483,0.5476663,-0.01689076,1.46619,3.562035,30.51
